DTS Sentinel unit serial number:	SN413079Multiplexer serial number:	ORYXHardware model number:	OX4-SRSoftware version number:	ORYX F/W v4.00 Oryx Data Collector v3.7.2.0data status	okinstallation	princeton_trtdifferential loss correction	single-endedforward channel	channel 2reverse channel	N/Adate	2019/09/17time	06:03:35forward acquisition time	60.00reverse acquisition time	0.00gamma	496.2192k internal	0.2331k external	0.2331temperature offset calibration	0.9977default loss term (dB/km)	0.3790temperature slope calibration	1.0000multiplexer offset coefficient	1.0000multiplexer slope coefficient	1.0000fibre end	0.00T internal ref (°C)	28.72T ext. ref 1 (°C)	0.13T ext. ref 2 (°C)	22.32length (m)	temperature (°C)	Stokes	anti-Stokes-747.200	142.707	0.070	-0.093
-746.185	-57.668	0.210	-0.093
-745.171	800.000	-0.102	0.374
-744.156	78.785	-0.188	0.202
-743.142	-200.000	-0.014	0.063
-742.127	178.049	0.224	0.329
-741.112	-77.232	-0.065	0.023
-740.098	-200.000	0.024	0.350
-739.083	-166.035	0.222	-0.010
-738.069	800.000	-0.075	0.274
-737.054	105.624	0.106	-0.126
-736.039	-58.493	-0.358	-0.157
-735.025	-58.077	0.189	0.083
-734.010	800.000	0.056	-0.213
-732.996	-91.544	-0.170	0.049
-731.981	-83.899	-0.253	-0.081
-730.966	419.160	-0.059	0.128
-729.952	-200.000	0.041	-0.194
-728.937	112.157	0.132	-0.160
-727.923	-106.193	0.121	0.027
-726.908	800.000	0.104	-0.319
-725.894	-200.000	0.005	-0.203
-724.879	-200.000	-0.044	-0.240
-723.864	800.000	0.019	-0.057
-722.850	800.000	-0.100	-0.290
-721.835	300.932	-0.221	0.410
-720.821	-70.361	0.032	-0.012
-719.806	-200.000	-0.026	-0.125
-718.791	-129.786	0.194	0.027
-717.777	-200.000	-0.107	-0.627
-716.762	-190.604	-0.105	0.001
-715.748	157.304	-0.045	0.062
-714.733	-200.000	0.014	-0.248
-713.718	-89.633	0.195	-0.058
-712.704	-81.257	-0.292	-0.097
-711.689	206.642	-0.089	-0.139
-710.675	-54.226	-0.192	-0.088
-709.660	43.325	0.091	-0.084
-708.645	85.231	-0.103	0.114
-707.631	-92.505	0.246	0.070
-706.616	-14.743	0.190	-0.123
-705.602	258.635	-0.111	0.192
-704.587	-96.653	0.107	0.028
-703.572	37.430	-0.096	0.086
-702.558	-200.000	0.397	0.001
-701.543	182.548	-0.102	-0.152
-700.529	-40.523	-0.137	-0.071
-699.514	-200.000	0.005	0.073
-698.499	-200.000	-0.036	-0.368
-697.485	39.534	-0.212	-0.191
-696.470	800.000	0.068	0.281
-695.456	800.000	-0.115	-0.413
-694.441	-35.537	0.162	-0.089
-693.426	-80.673	0.204	0.068
-692.412	13.364	-0.083	0.064
-691.397	-200.000	-0.010	-0.068
-690.383	-200.000	0.003	-0.106
-689.368	129.960	-0.166	-0.214
-688.354	231.993	0.034	0.057
-687.339	404.839	0.084	0.179
-686.324	337.115	-0.139	-0.271
-685.310	-71.394	0.241	0.091
-684.295	125.824	-0.304	-0.386
-683.281	-42.988	-0.141	-0.072
-682.266	193.683	-0.015	0.022
-681.251	-26.109	0.360	-0.213
-680.237	-7.184	-0.201	0.137
-679.222	-133.066	-0.274	-0.035
-678.208	-200.000	0.017	-0.101
-677.193	-97.436	-0.387	0.101
-676.178	-151.123	-0.149	0.011
-675.164	-37.531	0.251	-0.134
-674.149	-94.228	0.512	-0.141
-673.135	489.369	-0.078	-0.178
-672.120	-200.000	-0.046	-0.208
-671.105	36.338	0.273	-0.241
-670.091	-38.921	0.065	0.034
-669.076	21.844	0.153	-0.125
-668.062	346.157	-0.074	-0.147
-667.047	-165.057	-0.277	-0.012
-666.032	-5.604	0.252	0.173
-665.018	-200.000	-0.021	0.135
-664.003	-65.980	0.259	0.104
-662.989	800.000	0.059	-0.198
-661.974	-200.000	0.027	0.233
-660.959	-200.000	-0.002	-0.082
-659.945	31.997	-0.194	0.168
-658.930	-28.995	0.255	0.147
-657.916	-200.000	-0.017	0.292
-656.901	-182.180	0.242	0.005
-655.886	-200.000	0.005	-0.378
-654.872	180.881	0.239	0.352
-653.857	-91.000	-0.164	0.047
-652.843	94.847	0.122	-0.139
-651.828	36.895	-0.176	-0.156
-650.814	-87.901	0.362	-0.109
-649.799	800.000	-0.057	0.249
-648.784	-14.497	-0.225	0.145
-647.770	443.445	-0.153	0.337
-646.755	800.000	0.121	-0.357
-645.741	63.015	-0.105	0.105
-644.726	-71.559	-0.288	-0.108
-643.711	-33.198	-0.347	-0.193
-642.697	-14.080	0.215	-0.139
-641.682	47.207	-0.110	-0.103
-640.668	66.581	0.107	0.109
-639.653	800.000	0.082	0.278
-638.638	-45.351	0.089	0.044
-637.624	-13.191	0.458	0.298
-636.609	-30.318	-0.174	-0.099
-635.595	514.093	0.102	0.239
-634.580	54.770	0.146	-0.141
-633.565	-45.459	0.151	-0.075
-632.551	239.907	-0.048	-0.081
-631.536	-118.994	0.256	0.045
-630.522	-5.174	-0.271	-0.187
-629.507	52.120	0.167	0.159
-628.492	-103.402	-0.124	0.029
-627.478	179.555	-0.117	-0.172
-626.463	-200.000	-0.013	0.091
-625.449	-99.546	0.102	-0.026
-624.434	-89.333	-0.206	0.061
-623.419	-175.744	0.404	-0.011
-622.405	-173.039	-0.272	0.008
-621.390	-91.818	-0.219	-0.062
-620.376	-200.000	0.034	-0.157
-619.361	-200.000	0.020	-0.225
-618.346	305.643	-0.085	0.159
-617.332	242.023	-0.164	0.275
-616.317	-200.000	-0.129	0.000
-615.303	-200.000	-0.012	-0.156
-614.288	-200.000	0.041	0.309
-613.273	-163.621	-0.211	-0.010
-612.259	-34.618	0.185	0.101
-611.244	-51.801	-0.302	0.141
-610.230	14.204	-0.127	0.099
-609.215	-39.061	-0.176	0.093
-608.201	-115.510	0.198	-0.037
-607.186	19.548	-0.139	-0.112
-606.171	800.000	0.098	0.307
-605.157	398.925	0.086	-0.180
-604.142	280.340	-0.070	-0.126
-603.128	184.164	-0.082	-0.121
-602.113	4.685	0.158	-0.116
-601.098	86.675	-0.107	-0.118
-600.084	-177.962	-0.389	0.009
-599.069	-200.000	0.164	-0.000
-598.055	235.151	0.163	0.269
-597.040	-200.000	0.059	0.314
-596.025	-55.312	0.181	0.081
-595.011	362.549	-0.095	-0.191
-593.996	-102.966	0.079	0.019
-592.982	16.760	-0.208	0.165
-591.967	64.276	-0.115	-0.116
-590.952	34.860	-0.160	-0.140
-589.938	-8.864	0.171	-0.115
-588.923	-93.299	0.237	-0.066
-587.909	236.378	-0.058	-0.097
-586.894	28.386	0.149	0.126
-585.879	7.523	0.263	0.197
-584.865	-79.126	-0.312	0.106
-583.850	-134.600	0.129	0.016
-582.836	-67.863	-0.146	0.057
-581.821	-200.000	0.012	0.230
-580.806	82.536	-0.239	-0.259
-579.792	-200.000	0.012	-0.165
-578.777	-200.000	0.035	0.231
-577.763	-12.603	0.057	-0.037
-576.748	710.909	0.065	0.173
-575.733	-200.000	-0.017	0.278
-574.719	726.635	-0.115	-0.307
-573.704	140.132	-0.178	0.235
-572.690	-200.000	-0.015	0.242
-571.675	-135.221	-0.124	0.015
-570.661	-200.000	-0.045	-0.217
-569.646	-200.000	0.043	-0.249
-568.631	-136.573	0.070	-0.008
-567.617	-62.293	-0.276	-0.115
-566.602	795.338	0.079	0.216
-565.588	-131.148	0.120	-0.016
-564.573	275.121	0.138	-0.244
-563.558	-193.842	-0.499	-0.004
-562.544	-8.500	0.046	0.031
-561.529	-176.583	0.131	0.003
-560.515	-28.036	0.189	0.110
-559.500	-173.002	-0.141	-0.004
-558.485	-52.878	0.063	-0.029
-557.471	800.000	0.055	0.214
-556.456	242.261	-0.219	0.366
-555.442	-112.136	-0.485	-0.097
-554.427	800.000	0.070	-0.213
-553.412	-8.319	-0.127	0.085
-552.398	493.234	-0.066	0.152
-551.383	9.046	-0.159	0.120
-550.369	-67.921	-0.093	-0.036
-549.354	-157.796	-0.228	-0.014
-548.339	-44.384	0.048	0.024
-547.325	623.772	0.050	0.126
-546.310	-200.000	0.020	0.230
-545.296	-100.616	-0.158	-0.039
-544.281	35.622	0.080	-0.070
-543.266	-52.496	-0.369	0.170
-542.252	-174.052	0.039	0.001
-541.237	181.261	0.129	-0.190
-540.223	72.116	-0.314	0.326
-539.208	-200.000	0.027	-0.205
-538.193	-200.000	-0.004	-0.167
-537.179	-200.000	0.011	-0.114
-536.164	-28.941	-0.074	-0.042
-535.150	283.451	0.138	0.247
-534.135	50.081	0.197	0.186
-533.121	164.154	-0.181	-0.255
-532.106	-200.000	0.031	-0.193
-531.091	713.286	0.095	-0.252
-530.077	-200.000	-0.015	-0.119
-529.062	-7.175	0.246	-0.167
-528.048	-12.950	-0.111	0.072
-527.033	-200.000	-0.043	-0.250
-526.018	800.000	-0.150	-0.419
-525.004	-144.431	-0.205	-0.019
-523.989	-58.475	-0.238	0.103
-522.975	169.307	-0.091	0.130
-521.960	-174.907	0.139	-0.004
-520.945	-200.000	0.020	0.139
-519.931	-200.000	0.046	0.307
-518.916	-59.468	0.196	-0.084
-517.902	34.900	-0.070	-0.061
-516.887	343.108	-0.327	0.639
-515.872	800.000	-0.122	-0.442
-514.858	493.489	0.111	-0.254
-513.843	-14.663	-0.317	-0.204
-512.829	-77.944	-0.373	0.128
-511.814	-147.306	0.104	0.009
-510.799	-79.077	-0.260	-0.088
-509.785	210.132	-0.239	-0.373
-508.770	800.000	-0.096	0.275
-507.756	734.300	-0.048	-0.127
-506.741	-19.217	0.261	0.162
-505.726	-200.000	0.004	-0.081
-504.712	-1.723	0.495	0.348
-503.697	-92.247	-0.159	-0.045
-502.683	214.420	-0.125	-0.197
-501.668	146.994	-0.082	-0.109
-500.653	587.315	0.143	0.352
-499.639	583.862	-0.060	0.147
-498.624	-200.000	-0.018	0.102
-497.610	150.611	-0.308	0.418
-496.595	174.765	-0.057	-0.082
-495.581	-124.097	-0.150	-0.023
-494.566	471.652	-0.067	-0.150
-493.551	-11.549	-0.146	0.096
-492.537	-140.281	0.211	-0.022
-491.522	-200.000	0.031	0.329
-490.508	77.540	-0.075	-0.080
-489.493	800.000	-0.035	-0.105
-488.478	140.080	0.128	-0.168
-487.464	257.055	0.156	-0.268
-486.449	-200.000	-0.013	0.075
-485.435	-79.379	0.287	-0.097
-484.420	-200.000	0.032	-0.243
-483.405	-47.826	-0.224	0.108
-482.391	103.058	-0.120	-0.140
-481.376	112.960	0.268	0.323
-480.362	56.086	0.200	-0.193
-479.347	258.444	0.177	-0.303
-478.332	800.000	-0.077	-0.297
-477.318	-200.000	-0.051	-0.307
-476.303	-200.000	-0.026	-0.164
-475.289	-200.000	-0.036	-0.179
-474.274	-126.855	-0.253	-0.037
-473.259	-27.868	0.208	-0.120
-472.245	-169.173	0.192	0.007
-471.230	-200.000	-0.017	0.400
-470.216	-157.026	0.226	0.014
-469.201	23.484	-0.226	-0.185
-468.186	740.230	-0.117	-0.314
-467.172	-200.000	0.007	0.423
-466.157	60.772	0.114	0.113
-465.143	618.340	0.078	-0.195
-464.128	-132.546	0.265	0.034
-463.113	18.211	0.143	0.113
-462.099	-200.000	-0.017	-0.115
-461.084	-56.020	-0.057	-0.025
-460.070	800.000	-0.056	0.222
-459.055	800.000	0.058	-0.160
-458.040	-200.000	0.016	0.081
-457.026	800.000	-0.062	0.187
-456.011	-140.355	0.076	-0.008
-454.997	362.758	-0.090	0.180
-453.982	-200.000	0.026	-0.149
-452.968	-163.325	-0.223	0.011
-451.953	55.875	-0.190	0.183
-450.938	-0.133	0.099	0.070
-449.924	800.000	-0.031	0.090
-448.909	-28.987	-0.151	-0.086
-447.895	137.285	-0.108	-0.141
-446.880	65.239	0.233	0.234
-445.865	800.000	-0.032	-0.130
-444.851	-79.022	-0.439	-0.149
-443.836	35.098	-0.129	0.112
-442.822	148.966	0.140	0.188
-441.807	-200.000	0.026	0.333
-440.792	-125.248	0.220	0.033
-439.778	-42.971	-0.234	0.118
-438.763	-200.000	-0.022	0.190
-437.749	-119.694	0.416	-0.072
-436.734	228.036	0.122	-0.197
-435.719	-56.594	0.170	-0.075
-434.705	-200.000	-0.030	-0.137
-433.690	-38.116	0.327	0.173
-432.676	96.348	0.229	0.261
-431.661	-200.000	0.061	0.549
-430.646	394.662	0.107	0.222
-429.632	-116.208	0.149	0.028
-428.617	-21.780	-0.186	0.113
-427.603	-76.947	-0.169	0.059
-426.588	-200.000	-0.025	-0.127
-425.573	24.454	-0.075	0.062
-424.559	-145.855	-0.210	-0.019
-423.544	-200.000	-0.027	-0.269
-422.530	233.225	-0.135	-0.221
-421.515	33.361	0.087	-0.075
-420.500	327.782	-0.143	-0.272
-419.486	-200.000	-0.030	-0.249
-418.471	25.223	-0.135	0.112
-417.457	33.184	-0.082	-0.070
-416.442	-200.000	0.073	-0.479
-415.428	-200.000	0.044	0.324
-414.413	-52.769	-0.154	-0.071
-413.398	-200.000	-0.015	-0.207
-412.384	-46.421	-0.062	-0.030
-411.369	-200.000	0.006	-0.274
-410.355	-200.000	-0.040	-0.178
-409.340	-200.000	-0.015	0.095
-408.325	-91.169	0.340	-0.097
-407.311	-124.717	-0.245	-0.038
-406.296	-115.462	0.142	0.027
-405.282	-107.852	-0.178	-0.039
-404.267	-200.000	0.012	0.174
-403.252	-77.374	0.078	0.027
-402.238	800.000	-0.129	0.442
-401.223	-200.000	0.062	0.332
-400.209	103.118	-0.068	-0.080
-399.194	145.173	-0.110	-0.146
-398.179	407.069	-0.129	0.270
-397.165	104.253	-0.039	-0.045
-396.150	90.625	0.089	0.099
-395.136	-38.804	-0.318	0.166
-394.121	-121.089	-0.219	0.036
-393.106	-71.461	0.176	-0.065
-392.092	-6.916	0.121	-0.082
-391.077	800.000	0.054	-0.162
-390.063	116.737	-0.142	-0.173
-389.048	218.309	-0.089	0.142
-388.033	298.421	0.130	0.237
-387.019	-47.343	0.242	-0.117
-386.004	-81.318	0.010	0.003
-384.990	-64.206	-0.173	0.070
-383.975	800.000	0.118	-0.435
-382.960	720.144	0.028	0.073
-381.946	173.193	-0.151	0.216
-380.931	1.380	-0.172	0.122
-379.917	-200.000	0.044	0.242
-378.902	115.906	0.110	-0.134
-377.888	-134.265	-0.445	0.054
-376.873	-132.914	0.293	0.037
-375.858	-130.992	0.129	-0.017
-374.844	202.255	0.132	-0.202
-373.829	-0.359	-0.240	-0.169
-372.815	59.805	0.139	-0.136
-371.800	-0.290	-0.201	0.142
-370.785	119.666	-0.143	-0.176
-369.771	-200.000	0.005	-0.199
-368.756	125.949	-0.155	-0.194
-367.742	-200.000	0.003	-0.183
-366.727	56.161	0.172	0.166
-365.712	-44.323	-0.277	0.138
-364.698	800.000	-0.043	0.150
-363.683	240.128	0.057	-0.094
-362.669	665.705	0.176	0.450
-361.654	171.806	0.235	0.335
-360.639	-93.614	0.326	-0.089
-359.625	-83.760	-0.319	-0.101
-358.610	210.874	-0.096	0.150
-357.596	135.062	-0.225	0.290
-356.581	-16.480	0.095	0.059
-355.566	-91.211	0.253	0.072
-354.552	-141.491	-0.050	0.005
-353.537	-105.212	0.466	0.106
-352.523	-200.000	0.016	0.158
-351.508	-5.819	0.301	0.204
-350.493	-200.000	0.002	0.167
-349.479	401.090	-0.199	0.414
-348.464	-200.000	-0.035	-0.210
-347.450	28.711	0.110	-0.092
-346.435	800.000	0.120	-0.331
-345.420	-200.000	0.023	-0.265
-344.406	-15.900	0.053	0.033
-343.391	-165.974	-0.209	0.009
-342.377	-200.000	-0.001	-0.041
-341.362	-120.132	-0.344	-0.058
-340.348	-200.000	-0.030	-0.195
-339.333	-5.289	0.092	0.063
-338.318	-200.000	0.016	0.108
-337.304	-161.930	-0.046	0.002
-336.289	361.514	-0.124	-0.247
-335.275	-127.759	-0.383	-0.055
-334.260	-94.896	-0.149	0.040
-333.245	-51.507	0.263	-0.122
-332.231	46.736	0.047	-0.043
-331.216	-122.392	-0.255	-0.041
-330.202	265.773	-0.114	0.197
-329.187	112.553	-0.335	-0.401
-328.172	102.059	0.086	0.099
-327.158	197.103	-0.086	-0.130
-326.143	-29.396	0.236	-0.134
-325.129	800.000	-0.150	0.571
-324.114	800.000	0.040	-0.133
-323.099	-95.974	0.400	-0.105
-322.085	45.702	0.032	-0.029
-321.070	-108.091	-0.155	0.033
-320.056	-164.587	-0.077	-0.003
-319.041	-200.000	0.018	0.125
-318.026	27.282	-0.066	-0.055
-317.012	69.108	-0.091	0.093
-315.997	402.112	-0.166	0.346
-314.983	165.720	0.174	0.244
-313.968	-143.463	-0.597	0.056
-312.953	-160.860	0.140	-0.007
-311.939	78.075	-0.159	-0.168
-310.924	-157.984	0.490	0.029
-309.910	192.095	-0.226	-0.337
-308.895	-127.585	0.224	-0.032
-307.880	-200.000	-0.024	0.166
-306.866	92.416	-0.039	-0.044
-305.851	-35.401	-0.131	0.071
-304.837	-200.000	-0.016	0.348
-303.822	332.702	0.103	-0.198
-302.807	-1.976	0.176	-0.122
-301.793	5.172	-0.223	0.162
-300.778	94.321	-0.097	-0.109
-299.764	61.063	0.197	0.194
-298.749	61.019	0.285	-0.280
-297.735	394.579	-0.077	0.158
-296.720	-200.000	-0.006	0.106
-295.705	17.309	-0.234	-0.184
-294.691	-3.561	0.209	-0.144
-293.676	-52.350	0.307	0.141
-292.662	3.274	0.188	-0.136
-291.647	-200.000	0.071	0.312
-290.632	487.619	-0.056	0.126
-289.618	-47.533	0.398	0.191
-288.603	-108.264	-0.245	-0.052
-287.589	800.000	-0.040	0.170
-286.574	239.824	0.184	-0.303
-285.559	149.004	-0.019	0.025
-284.545	-136.846	0.237	-0.027
-283.530	232.861	0.067	0.109
-282.516	-48.552	0.103	0.049
-281.501	18.101	-0.049	-0.039
-280.486	-129.147	0.285	0.039
-279.472	103.448	-0.087	-0.101
-278.457	-200.000	-0.001	-0.064
-277.443	-158.562	0.435	-0.025
-276.428	280.821	0.084	0.148
-275.413	252.790	0.033	-0.056
-274.399	24.299	0.151	0.123
-273.384	800.000	-0.053	-0.214
-272.370	-56.359	0.264	-0.116
-271.355	-112.349	-0.110	-0.022
-270.340	-200.000	-0.037	0.258
-269.326	-53.027	-0.174	-0.079
-268.311	-143.753	0.237	0.022
-267.297	74.673	-0.108	-0.113
-266.282	4.224	0.180	-0.130
-265.267	78.328	-0.179	0.189
-264.253	62.786	-0.232	-0.230
-263.238	-200.000	-0.004	0.078
-262.224	-200.000	0.001	0.133
-261.209	18.541	0.153	-0.121
-260.195	-27.092	-0.166	-0.095
-259.180	-56.040	-0.231	-0.101
-258.165	-24.791	0.386	-0.227
-257.151	-200.000	-0.018	-0.093
-256.136	31.782	-0.113	-0.096
-255.122	-18.242	0.107	0.066
-254.107	-200.000	0.024	0.133
-253.092	-22.340	-0.188	0.112
-252.078	-160.493	0.096	-0.005
-251.063	36.168	0.260	-0.226
-250.049	562.660	-0.036	-0.085
-249.034	364.935	-0.128	-0.254
-248.019	-97.000	-0.187	-0.048
-247.005	58.906	0.171	0.166
-245.990	800.000	-0.043	-0.141
-244.976	164.288	-0.092	-0.129
-243.961	61.438	0.072	-0.070
-242.946	-113.566	-0.221	-0.043
-241.932	-12.553	-0.067	-0.043
-240.917	800.000	0.128	0.457
-239.903	133.229	0.129	0.165
-238.888	-200.000	0.013	-0.144
-237.873	-50.220	-0.158	0.074
-236.859	172.160	-0.101	-0.144
-235.844	-25.657	0.192	-0.112
-234.830	-146.442	0.319	-0.027
-233.815	490.761	-0.104	0.235
-232.800	800.000	0.066	-0.184
-231.786	34.187	-0.232	-0.199
-230.771	-110.160	0.196	-0.040
-229.757	426.646	-0.016	0.035
-228.742	275.777	0.077	-0.135
-227.727	-82.957	-0.231	0.073
-226.713	-150.569	-0.246	-0.019
-225.698	122.943	-0.043	-0.053
-224.684	655.444	0.060	-0.152
-223.669	-30.270	0.319	-0.179
-222.655	-108.648	-0.234	-0.050
-221.640	182.083	0.156	0.227
-220.625	-157.963	0.244	0.014
-219.611	-65.559	0.217	-0.086
-218.596	25.405	-0.080	0.066
-217.582	-200.000	-0.036	-0.171
-216.567	-18.939	0.103	-0.063
-215.552	-67.218	0.195	-0.076
-214.538	-200.000	0.027	-0.306
-213.523	86.964	0.171	0.186
-212.509	-39.150	0.517	-0.268
-211.494	-200.000	0.045	-0.256
-210.479	39.706	-0.187	-0.166
-209.465	-135.270	0.156	0.018
-208.450	33.292	0.198	0.169
-207.436	51.288	0.309	-0.289
-206.421	-95.546	-0.092	0.024
-205.406	51.129	-0.224	-0.210
-204.392	-30.110	-0.054	0.030
-203.377	343.753	0.119	0.230
-202.363	800.000	0.078	0.316
-201.348	-200.000	0.020	0.125
-200.333	-200.000	-0.000	-0.217
-199.319	-14.617	0.173	-0.110
-198.304	-200.000	-0.005	0.183
-197.290	118.698	0.322	-0.392
-196.275	-75.887	0.175	-0.061
-195.260	126.193	0.163	0.203
-194.246	800.000	-0.035	-0.138
-193.231	-200.000	-0.012	-0.175
-192.217	800.000	0.132	0.437
-191.202	-74.075	-0.570	-0.204
-190.187	399.024	0.048	0.100
-189.173	371.754	-0.071	-0.143
-188.158	72.474	0.075	-0.077
-187.144	106.712	0.148	-0.173
-186.129	-113.693	0.225	0.043
-185.114	-200.000	-0.006	0.100
-184.100	800.000	-0.086	-0.318
-183.085	-152.797	0.100	-0.007
-182.071	3.528	0.212	0.152
-181.056	16.949	-0.131	-0.102
-180.042	-13.240	-0.076	0.048
-179.027	-37.893	0.117	0.061
-178.012	-97.608	0.106	-0.027
-176.998	242.797	-0.017	-0.027
-175.983	800.000	0.091	-0.289
-174.969	-33.422	0.205	-0.111
-173.954	-200.000	-0.021	0.194
-172.939	585.412	0.061	0.147
-171.925	-89.318	0.126	0.037
-170.910	-35.318	-0.194	0.104
-169.896	800.000	-0.005	-0.017
-168.881	792.787	0.021	-0.057
-167.866	-54.022	0.402	-0.180
-166.852	-200.000	0.008	0.153
-165.837	800.000	0.093	0.322
-164.823	-120.247	0.411	-0.069
-163.808	-200.000	-0.045	0.245
-162.793	-47.206	-0.189	-0.091
-161.779	-154.472	-0.220	0.014
-160.764	77.341	0.190	0.199
-159.750	36.953	0.164	0.143
-158.735	389.883	0.106	0.216
-157.720	-106.755	0.311	-0.068
-156.706	-152.630	-0.316	0.022
-155.691	407.409	-0.106	-0.220
-154.677	-68.759	-0.119	0.045
-153.662	333.297	0.112	0.213
-152.647	-200.000	0.044	-0.240
-151.633	69.191	-0.206	-0.208
-150.618	32.940	0.211	0.180
-149.604	296.654	0.103	0.186
-148.589	59.734	0.310	0.300
-147.574	297.741	0.170	0.307
-146.560	-87.926	0.090	0.026
-145.545	-200.000	-0.009	0.220
-144.531	-66.917	0.172	-0.067
-143.516	382.726	0.031	0.063
-142.502	-93.365	0.381	0.104
-141.487	-99.662	-0.181	-0.045
-140.472	-14.108	-0.041	0.026
-139.458	-200.000	0.032	-0.136
-138.443	-200.000	0.012	0.324
-137.429	-200.000	-0.015	0.132
-136.414	35.309	-0.089	-0.076
-135.399	-80.656	0.224	0.073
-134.385	-91.036	0.250	0.071
-133.370	275.069	0.056	0.098
-132.356	-119.767	0.262	-0.044
-131.341	186.768	0.159	-0.232
-130.326	-200.000	-0.004	-0.056
-129.312	439.745	0.106	-0.228
-128.297	800.000	-0.060	0.199
-127.283	-61.086	0.121	-0.050
-126.268	-146.511	0.176	-0.015
-125.253	446.456	-0.097	-0.209
-124.239	9.485	-0.194	-0.144
-123.224	-200.000	0.031	-0.298
-122.210	103.288	0.087	-0.100
-121.195	105.396	0.198	0.230
-120.180	-44.750	-0.170	0.083
-119.166	115.339	0.072	-0.086
-118.151	731.216	-0.070	-0.183
-117.137	800.000	0.086	-0.323
-116.122	206.793	0.127	-0.194
-115.107	263.593	0.149	-0.255
-114.093	-96.221	0.375	-0.098
-113.078	-200.000	0.065	-0.327
-112.064	-56.134	-0.124	-0.054
-111.049	215.861	0.240	0.375
-110.034	146.403	-0.124	0.163
-109.020	326.459	0.043	0.080
-108.005	214.630	0.057	0.089
-106.991	-55.801	-0.167	0.073
-105.976	189.757	0.111	-0.164
-104.962	355.599	-0.050	-0.098
-103.947	-200.000	0.246	-0.001
-102.932	96.772	0.167	0.187
-101.918	172.917	0.103	0.146
-100.903	-200.000	-0.089	0.381
-99.889	77.251	-0.170	0.177
-98.874	-200.000	0.006	-0.343
-97.859	-139.324	0.343	-0.036
-96.845	-126.598	0.090	0.013
-95.830	-200.000	-0.006	-0.246
-94.816	74.147	0.160	-0.165
-93.801	-141.911	-0.276	-0.027
-92.786	-63.379	-0.440	-0.178
-91.772	524.096	-0.049	-0.112
-90.757	274.087	-0.169	-0.293
-89.743	-142.472	0.137	-0.013
-88.728	-22.744	-0.228	-0.135
-87.713	-8.854	0.209	0.138
-86.699	800.000	0.058	-0.248
-85.684	-200.000	0.002	-0.071
-84.670	160.997	0.066	0.091
-83.655	-200.000	0.054	0.246
-82.640	146.592	0.121	0.160
-81.626	415.253	-0.058	0.121
-80.611	650.005	0.025	-0.064
-79.597	-91.719	0.256	0.071
-78.582	-134.894	0.343	-0.041
-77.567	77.383	-0.310	-0.324
-76.553	800.000	0.084	-0.300
-75.538	79.589	0.408	0.430
-74.524	-63.623	-0.263	0.106
-73.509	-200.000	-0.009	-0.216
-72.494	800.000	0.021	0.084
-71.480	42.417	-0.163	0.145
-70.465	-188.846	0.382	0.005
-69.451	27.295	-0.138	0.114
-68.436	-164.709	0.257	0.011
-67.422	120.059	-0.316	-0.384
-66.407	-107.329	0.199	-0.043
-65.392	-200.000	0.086	-0.441
-64.378	-1.060	-0.110	0.076
-63.363	-65.666	-0.163	-0.064
-62.349	616.425	0.124	-0.305
-61.334	-17.177	-1.220	-0.754
-60.319	12.688	0.539	0.408
-59.305	800.000	-0.358	-1.035
-58.290	384.637	0.667	1.347
-57.276	800.000	0.597	1.834
-56.261	-200.000	111.496	636.951
-55.246	461.796	1510.584	3301.602
-54.232	144.148	2692.498	3519.765
-53.217	99.882	2291.171	2600.856
-52.203	38.032	1898.546	1654.391
-51.188	32.066	1686.384	1424.354
-50.173	29.481	1643.560	1368.988
-49.159	49.922	1697.976	1568.859
-48.144	49.831	1712.472	1581.502
-47.130	31.603	1670.650	1407.363
-46.115	28.802	1656.714	1374.644
-45.100	28.702	1651.195	1369.268
-44.086	28.537	1648.427	1365.688
-43.071	28.540	1646.414	1363.992
-42.057	28.554	1643.520	1361.640
-41.042	28.634	1641.515	1360.517
-40.027	28.562	1639.915	1358.605
-39.013	28.535	1638.274	1356.997
-37.998	28.497	1636.851	1355.482
-36.984	28.621	1634.930	1354.751
-35.969	28.740	1633.120	1354.076
-34.954	28.805	1631.603	1353.241
-33.940	28.695	1630.505	1351.466
-32.925	28.666	1629.065	1350.008
-31.911	28.725	1627.039	1348.706
-30.896	28.707	1625.052	1346.879
-29.881	28.578	1623.799	1344.841
-28.867	28.792	1621.687	1344.600
-27.852	28.620	1620.716	1342.487
-26.838	28.675	1619.357	1341.710
-25.823	28.693	1617.950	1340.624
-24.809	28.733	1616.482	1339.641
-23.794	28.770	1615.458	1339.008
-22.779	28.748	1613.959	1337.554
-21.765	28.826	1611.836	1336.308
-20.750	28.709	1610.484	1334.288
-19.736	28.786	1609.087	1333.635
-18.721	28.809	1607.899	1332.763
-17.706	28.795	1606.188	1331.188
-16.692	28.767	1604.827	1329.805
-15.677	28.860	1603.531	1329.356
-14.663	28.765	1602.271	1327.567
-13.648	28.749	1600.918	1326.278
-12.633	28.755	1599.064	1324.736
-11.619	28.679	1598.055	1323.300
-10.604	28.731	1596.342	1322.206
-9.590	28.734	1594.820	1320.908
-8.575	28.798	1593.679	1320.376
-7.560	28.796	1592.732	1319.522
-6.546	28.768	1591.401	1318.163
-5.531	28.753	1590.556	1317.308
-4.517	28.814	1589.402	1316.735
-3.502	28.772	1588.064	1315.275
-2.487	28.863	1586.221	1314.348
-1.473	28.398	1574.341	1301.153
-0.458	25.316	1554.433	1263.003
0.556	19.792	1554.961	1229.158
1.571	17.213	1578.279	1228.852
2.586	16.644	1591.319	1234.744
3.600	15.378	1538.746	1184.909
4.615	8.733	1430.556	1057.736
5.629	1.780	1367.803	967.215
6.644	0.228	1360.513	952.169
7.659	0.097	1358.923	950.140
8.673	0.137	1357.671	949.436
9.688	0.049	1355.876	947.540
10.702	-0.046	1352.806	944.714
11.717	3.312	1357.838	969.305
12.731	11.333	1370.335	1028.913
13.746	16.760	1378.019	1068.933
14.761	17.235	1377.181	1071.183
15.775	16.296	1374.673	1063.222
16.790	15.190	1372.422	1054.432
17.804	14.514	1369.652	1047.963
18.819	14.061	1369.142	1044.636
19.834	13.844	1367.318	1041.788
20.848	13.584	1366.126	1039.162
21.863	13.375	1364.761	1036.721
22.877	13.245	1363.812	1035.090
23.892	13.123	1363.013	1033.634
24.907	13.254	1361.734	1033.389
25.921	13.185	1361.168	1032.436
26.936	13.223	1360.192	1031.844
27.950	13.243	1359.029	1030.991
28.965	13.334	1358.329	1030.937
29.980	13.400	1357.361	1030.522
30.994	13.431	1356.763	1030.169
32.009	13.454	1355.853	1029.530
33.023	13.386	1353.974	1027.590
34.038	13.399	1353.374	1027.130
35.053	13.453	1351.905	1026.257
36.067	13.449	1350.820	1025.320
37.082	13.362	1350.698	1024.596
38.096	13.433	1349.101	1023.734
39.111	13.352	1348.491	1022.678
40.126	13.249	1348.052	1021.618
41.140	13.260	1346.464	1020.388
42.155	13.216	1346.415	1019.993
43.169	13.211	1346.035	1019.581
44.184	13.171	1345.903	1019.148
45.199	13.219	1345.420	1018.986
46.213	13.207	1344.961	1018.476
47.228	13.278	1344.042	1018.126
48.242	13.382	1342.506	1017.514
49.257	13.288	1341.328	1015.950
50.271	13.361	1339.761	1015.120
51.286	13.357	1338.040	1013.704
52.301	13.359	1337.553	1013.260
53.315	13.310	1336.032	1011.716
54.330	13.249	1335.486	1010.840
55.344	13.298	1334.325	1010.173
56.359	13.195	1333.411	1008.759
57.374	13.286	1331.879	1008.067
58.388	13.208	1331.094	1006.908
59.403	13.123	1331.057	1006.274
60.417	13.145	1330.302	1005.751
61.432	13.168	1329.178	1004.952
62.447	13.153	1327.897	1003.800
63.461	13.112	1327.265	1002.987
64.476	13.095	1326.104	1001.917
65.490	13.038	1324.831	1000.520
66.505	13.148	1322.971	999.692
67.520	13.106	1322.239	998.795
68.534	13.174	1321.100	998.259
69.549	13.148	1320.369	997.460
70.563	13.192	1318.687	996.367
71.578	13.033	1318.482	995.168
72.593	13.067	1317.356	994.432
73.607	13.080	1316.147	993.513
74.622	13.041	1315.435	992.650
75.636	13.036	1314.912	992.137
76.651	13.054	1313.980	991.454
77.666	13.086	1313.905	991.503
78.680	13.135	1312.509	990.659
79.695	13.205	1311.887	990.520
80.709	13.101	1311.386	989.431
81.724	13.086	1310.782	988.796
82.739	13.280	1309.342	988.782
83.753	13.220	1308.811	987.936
84.768	13.359	1307.559	987.733
85.782	13.369	1305.955	986.497
86.797	13.415	1304.967	985.936
87.812	13.235	1304.239	984.225
88.826	13.215	1303.457	983.427
89.841	13.235	1302.071	982.414
90.855	13.268	1300.905	981.646
91.870	13.287	1299.901	980.911
92.884	13.341	1299.153	980.583
93.899	13.448	1298.252	980.448
94.914	13.522	1297.372	980.135
95.928	13.373	1297.117	978.974
96.943	13.454	1296.073	978.578
97.957	13.400	1295.175	977.494
98.972	13.437	1294.042	976.771
99.987	13.397	1292.944	975.623
101.001	13.389	1292.280	974.986
102.016	13.338	1291.339	973.890
103.030	13.477	1289.984	973.602
104.045	13.409	1289.413	972.681
105.060	13.321	1288.204	971.166
106.074	13.308	1286.518	969.733
107.089	13.274	1285.199	968.455
108.103	13.150	1284.227	966.912
109.118	13.156	1283.090	966.008
110.133	13.204	1281.554	965.042
111.147	13.293	1280.268	964.507
112.162	13.301	1279.016	963.528
113.176	13.224	1278.200	962.381
114.191	13.312	1277.057	961.946
115.206	13.298	1275.859	960.876
116.220	13.360	1274.563	960.173
117.235	13.383	1273.095	959.119
118.249	13.313	1272.106	957.882
119.264	13.275	1271.233	956.922
120.279	13.231	1270.433	955.979
121.293	13.259	1268.953	954.941
122.308	13.284	1267.937	954.236
123.322	13.238	1267.196	953.330
124.337	13.220	1266.311	952.476
125.352	13.244	1265.210	951.705
126.366	13.264	1263.935	950.774
127.381	13.188	1262.824	949.415
128.395	13.257	1262.193	949.258
129.410	13.235	1261.093	948.218
130.424	13.216	1260.562	947.626
131.439	13.330	1259.648	947.505
132.454	13.345	1258.218	946.436
133.468	13.246	1258.168	945.745
134.483	13.240	1257.208	944.905
135.497	13.223	1256.050	943.853
136.512	13.291	1254.195	942.766
137.527	13.320	1253.164	942.070
138.541	13.290	1251.615	940.654
139.556	13.261	1250.189	939.333
140.570	13.349	1249.605	939.311
141.585	13.285	1248.636	938.137
142.600	13.427	1247.106	937.708
143.614	13.382	1246.428	936.862
144.629	13.436	1244.856	935.902
145.643	13.503	1243.738	935.359
146.658	13.498	1242.464	934.288
147.673	13.434	1241.183	932.884
148.687	13.326	1240.637	931.779
149.702	13.403	1239.169	931.027
150.716	13.272	1238.030	929.353
151.731	13.400	1236.278	928.675
152.746	13.505	1235.264	928.421
153.760	13.360	1234.471	926.931
154.775	13.424	1233.122	926.193
155.789	13.512	1232.406	926.064
156.804	13.546	1230.731	924.916
157.819	13.580	1229.566	924.151
158.833	13.568	1229.341	923.830
159.848	13.558	1228.526	923.083
160.862	13.694	1227.092	922.680
161.877	13.572	1225.996	921.092
162.892	13.448	1224.780	919.410
163.906	13.472	1224.226	919.048
164.921	13.560	1223.250	918.720
165.935	13.541	1222.467	917.946
166.950	13.642	1221.864	917.971
167.964	13.545	1221.158	916.825
168.979	13.593	1220.188	916.279
169.994	13.586	1219.430	915.591
171.008	13.531	1219.119	914.970
172.023	13.655	1217.812	914.593
173.037	13.709	1217.260	914.396
174.052	13.712	1216.495	913.756
175.067	13.707	1215.304	912.757
176.081	13.592	1214.534	911.460
177.096	13.689	1213.644	911.246
178.110	13.721	1212.424	910.428
179.125	13.710	1211.221	909.381
180.140	13.732	1210.022	908.524
181.154	13.691	1208.574	907.132
182.169	13.703	1207.604	906.388
183.183	13.796	1206.331	905.860
184.198	13.840	1205.204	905.174
185.213	13.845	1204.158	904.334
186.227	13.808	1203.204	903.338
187.242	13.924	1201.767	902.809
188.256	13.933	1201.206	902.355
189.271	13.961	1200.129	901.619
190.286	13.793	1199.555	900.196
191.300	13.715	1198.363	898.800
192.315	13.567	1198.025	897.666
193.329	13.715	1197.008	897.624
194.344	13.675	1196.673	897.079
195.359	13.845	1195.737	897.215
196.373	13.964	1195.146	897.338
197.388	14.027	1194.574	897.166
198.402	13.984	1194.101	896.497
199.417	14.089	1193.281	896.371
200.432	14.012	1192.292	895.133
201.446	14.067	1191.572	894.809
202.461	14.055	1190.889	894.154
203.475	14.121	1189.791	893.602
204.490	14.059	1188.418	892.162
205.504	14.063	1187.139	891.146
206.519	14.201	1185.884	890.863
207.534	14.120	1184.706	889.466
208.548	14.125	1183.485	888.496
209.563	14.050	1183.391	887.946
210.577	14.155	1182.561	887.807
211.592	14.225	1181.598	887.375
212.607	14.166	1180.645	886.268
213.621	14.205	1179.619	885.630
214.636	14.168	1178.778	884.722
215.650	14.159	1178.223	884.179
216.665	14.366	1177.046	884.314
217.680	14.407	1176.426	883.987
218.694	14.324	1175.395	882.699
219.709	14.413	1174.457	882.385
220.723	14.348	1174.105	881.700
221.738	14.374	1173.378	881.214
222.753	14.394	1172.624	880.673
223.767	14.431	1171.894	880.243
224.782	14.452	1171.231	879.777
225.796	14.455	1170.433	879.118
226.811	14.459	1170.068	878.783
227.826	14.377	1169.746	878.036
228.840	14.497	1168.335	877.528
229.855	14.424	1168.102	876.891
230.869	14.421	1167.043	876.004
231.884	14.483	1165.950	875.430
232.899	14.410	1165.142	874.366
233.913	14.431	1164.241	873.721
234.928	14.409	1163.611	873.054
235.942	14.404	1162.671	872.246
236.957	14.331	1162.543	871.693
237.972	14.424	1161.578	871.379
238.986	14.508	1161.058	871.349
240.001	14.470	1160.734	870.830
241.015	14.491	1159.501	869.939
242.030	14.492	1158.602	869.193
243.045	14.525	1157.852	868.721
244.059	14.603	1156.980	868.397
245.074	14.671	1156.047	867.973
246.088	14.625	1155.365	867.145
247.103	14.651	1154.663	866.677
248.117	14.776	1153.988	866.745
249.132	14.787	1153.397	866.283
250.147	14.864	1152.308	865.785
251.161	14.796	1151.829	864.995
252.176	14.839	1151.173	864.650
253.190	14.911	1150.332	864.313
254.205	14.991	1150.075	864.458
255.220	14.949	1149.580	863.790
256.234	14.955	1148.801	863.161
257.249	15.044	1147.963	862.915
258.263	14.920	1147.288	861.688
259.278	14.956	1147.067	861.632
260.293	14.988	1146.132	861.020
261.307	15.036	1145.764	860.916
262.322	15.108	1144.822	860.502
263.336	15.075	1144.226	859.807
264.351	15.106	1143.525	859.365
265.366	15.054	1143.204	858.777
266.380	15.063	1142.538	858.248
267.395	15.097	1141.364	857.465
268.409	15.080	1141.148	857.141
269.424	15.151	1140.053	856.605
270.439	15.054	1139.642	855.722
271.453	15.160	1138.698	855.483
272.468	15.154	1137.969	854.828
273.482	15.006	1137.386	853.559
274.497	15.217	1136.326	853.763
275.512	15.050	1136.317	852.829
276.526	15.122	1135.224	852.298
277.541	15.156	1134.108	851.561
278.555	15.085	1133.794	850.886
279.570	15.316	1132.659	851.136
280.585	15.325	1132.282	850.819
281.599	15.317	1131.155	849.860
282.614	15.421	1129.835	849.319
283.628	15.280	1129.192	848.047
284.643	15.341	1128.034	847.406
285.657	15.229	1127.776	846.577
286.672	15.365	1126.642	846.334
287.687	15.336	1125.671	845.384
288.701	15.397	1125.162	845.233
289.716	15.429	1123.995	844.443
290.730	15.331	1123.373	843.410
291.745	15.408	1122.917	843.380
292.760	15.422	1122.382	842.971
293.774	15.392	1121.997	842.457
294.789	15.425	1121.596	842.247
295.803	15.561	1120.042	841.686
296.818	15.545	1119.721	841.291
297.833	15.505	1119.088	840.544
298.847	15.529	1117.808	839.626
299.862	15.488	1116.996	838.737
300.876	15.478	1116.671	838.371
301.891	15.488	1115.967	837.818
302.906	15.602	1115.352	837.847
303.920	15.531	1115.187	837.298
304.935	15.568	1114.304	836.746
305.949	15.616	1113.566	836.358
306.964	15.716	1112.981	836.338
307.979	15.694	1112.290	835.639
308.993	15.840	1111.102	835.397
310.008	15.792	1110.346	834.515
311.022	15.704	1109.774	833.572
312.037	15.773	1108.955	833.228
313.052	15.671	1107.794	831.775
314.066	15.733	1106.990	831.405
315.081	15.674	1106.262	830.497
316.095	15.720	1105.604	830.154
317.110	15.764	1104.905	829.772
318.125	15.779	1103.884	829.007
319.139	15.827	1103.039	828.534
320.154	15.653	1102.831	827.449
321.168	15.739	1102.250	827.362
322.183	15.848	1101.677	827.395
323.197	15.761	1101.028	826.409
324.212	15.772	1100.262	825.814
325.227	15.925	1099.298	825.764
326.241	15.854	1099.078	825.183
327.256	15.870	1098.591	824.819
328.270	15.777	1097.522	823.489
329.285	15.871	1096.487	823.097
330.300	15.874	1095.417	822.240
331.314	15.890	1094.570	821.609
332.329	15.810	1093.699	820.491
333.343	15.846	1092.789	819.912
334.358	15.908	1092.233	819.725
335.373	16.024	1091.487	819.655
336.387	16.077	1090.742	819.281
337.402	16.066	1089.959	818.567
338.416	16.154	1089.107	818.283
339.431	16.000	1088.611	817.090
340.446	16.078	1088.297	817.160
341.460	16.168	1087.012	816.560
342.475	16.207	1086.440	816.246
343.489	16.153	1085.910	815.511
344.504	16.161	1084.868	814.697
345.519	16.276	1083.820	814.393
346.533	16.290	1083.145	813.881
347.548	16.383	1082.409	813.704
348.562	16.346	1081.474	812.753
349.577	16.248	1080.905	811.779
350.592	16.268	1079.862	811.020
351.606	16.333	1079.111	810.696
352.621	16.261	1078.571	809.872
353.635	16.269	1077.963	809.384
354.650	16.213	1077.509	808.705
355.665	16.472	1076.304	808.969
356.679	16.311	1075.874	807.804
357.694	16.274	1075.389	807.191
358.708	16.407	1074.998	807.462
359.723	16.337	1074.415	806.617
360.738	16.417	1073.576	806.299
361.752	16.438	1073.175	806.023
362.767	16.422	1072.561	805.417
363.781	16.499	1071.740	805.095
364.796	16.530	1071.309	804.851
365.810	16.682	1070.625	804.985
366.825	16.547	1070.194	803.948
367.840	16.698	1069.470	804.049
368.854	16.669	1068.767	803.315
369.869	16.584	1068.082	802.324
370.883	16.745	1067.393	802.501
371.898	16.663	1066.294	801.213
372.913	16.635	1065.956	800.756
373.927	16.658	1065.526	800.471
374.942	16.674	1065.221	800.245
375.956	16.817	1064.379	800.218
376.971	16.639	1064.001	799.024
377.986	16.744	1063.750	799.261
379.000	16.828	1062.675	798.779
380.015	16.935	1062.083	798.768
381.029	16.885	1061.915	798.335
382.044	16.859	1061.226	797.622
383.059	16.800	1060.570	796.781
384.073	16.944	1058.758	796.024
385.088	16.897	1058.565	795.588
386.102	17.039	1057.371	795.285
387.117	16.883	1056.642	793.939
388.132	16.749	1055.878	792.669
389.146	16.890	1054.873	792.502
390.161	16.783	1054.369	791.552
391.175	16.884	1053.434	791.250
392.190	17.003	1052.807	791.266
393.205	16.962	1052.291	790.619
394.219	17.012	1051.509	790.193
395.234	16.965	1050.357	789.038
396.248	16.995	1049.627	788.561
397.263	16.965	1048.698	787.653
398.278	16.897	1047.935	786.695
399.292	16.910	1047.619	786.445
400.307	16.956	1046.777	785.959
401.321	16.956	1046.077	785.364
402.336	16.919	1045.379	784.601
403.350	16.970	1044.695	784.253
404.365	17.025	1044.189	784.057
405.380	16.943	1043.143	782.824
406.394	17.144	1042.576	783.255
407.409	17.266	1041.406	782.872
408.423	17.177	1041.088	782.153
409.438	17.199	1040.482	781.730
410.453	17.275	1039.753	781.460
411.467	17.342	1038.977	781.115
412.482	17.284	1037.945	780.003
413.496	17.359	1037.483	779.931
414.511	17.409	1037.125	779.822
415.526	17.426	1036.565	779.414
416.540	17.356	1036.515	778.985
417.555	17.439	1035.800	778.760
418.569	17.421	1035.271	778.208
419.584	17.365	1035.082	777.742
420.599	17.480	1034.039	777.415
421.613	103.914	1323.755	1471.841
422.628	95.174	1365.959	1471.942
