DTS Sentinel unit serial number:	SN413079Multiplexer serial number:	ORYXHardware model number:	OX4-SRSoftware version number:	ORYX F/W v4.00 Oryx Data Collector v3.7.2.0data status	okinstallation	princeton_trtdifferential loss correction	single-endedforward channel	channel 2reverse channel	N/Adate	2019/09/15time	09:07:35forward acquisition time	60.00reverse acquisition time	0.00gamma	496.2192k internal	0.2318k external	0.2318temperature offset calibration	1.0015default loss term (dB/km)	0.3790temperature slope calibration	1.0000multiplexer offset coefficient	1.0000multiplexer slope coefficient	1.0000fibre end	0.00T internal ref (°C)	33.00T ext. ref 1 (°C)	4.97T ext. ref 2 (°C)	30.17length (m)	temperature (°C)	Stokes	anti-Stokes-747.200	141.090	0.176	0.236
-746.185	-200.000	-0.011	0.146
-745.171	198.175	0.045	0.069
-744.156	-123.189	-0.317	0.051
-743.142	-89.192	0.091	0.027
-742.127	-110.999	-0.262	0.055
-741.112	-139.999	-0.208	-0.022
-740.098	74.371	0.083	0.088
-739.083	-200.000	-0.024	-0.241
-738.069	-46.052	0.211	0.105
-737.054	-200.000	0.033	-0.178
-736.039	-113.961	-0.138	-0.027
-735.025	-200.000	0.045	0.385
-734.010	36.441	0.284	-0.254
-732.996	-42.334	-0.226	-0.117
-731.981	620.437	-0.019	0.048
-730.966	-200.000	0.293	0.001
-729.952	32.324	-0.062	0.054
-728.937	669.390	-0.048	-0.125
-727.923	-200.000	-0.046	0.268
-726.908	173.451	-0.064	0.094
-725.894	-39.470	-0.354	0.187
-724.879	800.000	-0.021	0.068
-723.864	-200.000	0.007	-0.097
-722.850	-200.000	-0.059	0.543
-721.835	-200.000	-0.001	0.013
-720.821	-118.087	-0.166	0.030
-719.806	80.988	0.315	-0.344
-718.791	-200.000	-0.007	-0.264
-717.777	-132.311	0.151	-0.020
-716.762	-200.000	-0.019	-0.229
-715.748	65.069	-0.121	0.123
-714.733	656.200	-0.158	-0.410
-713.718	495.786	-0.131	-0.303
-712.704	415.674	-0.080	-0.171
-711.689	120.460	0.198	-0.248
-710.675	-157.652	0.292	-0.018
-709.660	353.665	-0.135	0.272
-708.645	-132.841	0.307	-0.040
-707.631	401.479	-0.036	0.077
-706.616	-185.561	-0.237	-0.004
-705.602	800.000	-0.095	0.285
-704.587	26.197	0.177	-0.149
-703.572	800.000	0.072	-0.290
-702.558	-159.250	0.315	-0.018
-701.543	300.790	0.080	0.150
-700.529	209.845	-0.029	-0.046
-699.514	-59.397	-0.399	0.173
-698.499	-36.426	-0.104	-0.057
-697.485	81.907	0.068	0.075
-696.470	-151.799	0.233	-0.017
-695.456	-114.861	-0.665	-0.128
-694.441	-161.629	-0.168	-0.009
-693.426	-18.525	0.151	0.095
-692.412	-200.000	0.038	-0.196
-691.397	51.428	0.187	-0.179
-690.383	-200.000	-0.053	0.280
-689.368	-95.668	0.075	0.020
-688.354	-145.807	0.073	0.007
-687.339	-200.000	0.086	-0.381
-686.324	-59.522	-0.100	0.043
-685.310	-74.815	-0.275	0.100
-684.295	-99.097	-0.466	-0.119
-683.281	103.020	0.054	0.064
-682.266	-147.390	-0.159	0.014
-681.251	-24.521	-0.249	0.149
-680.237	-200.000	-0.010	-0.249
-679.222	-18.723	-0.442	-0.278
-678.208	13.383	0.134	-0.105
-677.193	467.470	-0.042	0.095
-676.178	-59.344	-0.387	-0.168
-675.164	19.930	-0.124	-0.101
-674.149	-42.907	-0.142	-0.073
-673.135	115.672	-0.043	0.053
-672.120	-81.166	-0.038	0.013
-671.105	800.000	0.045	0.148
-670.091	306.554	0.055	-0.103
-669.076	-81.534	-0.345	-0.114
-668.062	132.895	-0.132	-0.172
-667.047	-200.000	-0.004	-0.378
-666.032	-10.490	-0.171	0.114
-665.018	-31.692	0.030	-0.017
-664.003	-99.907	-0.233	-0.059
-662.989	-23.775	-0.155	0.094
-661.974	-121.117	0.259	-0.044
-660.959	148.941	-0.016	-0.022
-659.945	32.266	-0.149	0.129
-658.930	-34.372	-0.498	0.276
-657.916	1.840	-0.210	0.153
-656.901	-200.000	-0.031	-0.198
-655.886	-200.000	0.022	-0.221
-654.872	115.964	-0.272	-0.336
-653.857	-58.722	-0.146	0.064
-652.843	800.000	-0.106	-0.338
-651.828	235.242	0.130	-0.216
-650.814	-200.000	-0.034	0.433
-649.799	-3.736	-0.256	-0.179
-648.784	-125.105	-0.186	0.029
-647.770	-92.162	0.233	-0.066
-646.755	499.261	0.076	-0.176
-645.741	-200.000	-0.009	-0.060
-644.726	800.000	-0.068	-0.232
-643.711	-4.804	-0.187	-0.130
-642.697	314.471	0.069	0.131
-641.682	-200.000	-0.014	0.265
-640.668	-133.763	-0.335	0.042
-639.653	-200.000	0.057	0.289
-638.638	800.000	0.089	-0.257
-637.624	39.495	0.190	-0.172
-636.609	-34.257	0.187	0.103
-635.595	146.448	-0.211	-0.285
-634.580	-24.026	0.323	0.195
-633.565	382.371	-0.042	-0.087
-632.551	314.166	0.135	-0.255
-631.536	800.000	-0.017	0.060
-630.522	-200.000	0.019	-0.265
-629.507	112.011	0.134	-0.163
-628.492	-111.352	-0.195	0.040
-627.478	357.156	0.085	0.170
-626.463	800.000	0.020	0.075
-625.449	-200.000	0.042	-0.304
-624.434	388.496	0.127	0.265
-623.419	-104.351	-0.101	0.024
-622.405	800.000	0.146	-0.499
-621.390	-200.000	0.036	0.243
-620.376	574.673	-0.073	-0.180
-619.361	-94.996	0.436	0.119
-618.346	-198.374	-0.225	0.001
-617.332	385.419	0.083	-0.172
-616.317	118.836	-0.185	-0.230
-615.303	750.572	-0.022	-0.060
-614.288	-183.479	-0.338	0.006
-613.273	-94.676	0.090	-0.025
-612.259	117.468	-0.037	-0.045
-611.244	189.381	0.090	0.136
-610.230	467.508	0.110	0.248
-609.215	690.620	0.127	0.336
-608.201	45.582	0.107	0.100
-607.186	17.926	-0.147	0.118
-606.171	-101.847	-0.246	0.060
-605.157	120.030	0.215	-0.268
-604.142	38.021	0.032	-0.028
-603.128	800.000	0.056	-0.230
-602.113	109.963	-0.162	0.196
-601.098	224.686	-0.103	0.168
-600.084	515.398	0.125	-0.293
-599.069	800.000	0.044	-0.164
-598.055	-103.829	0.376	0.089
-597.040	247.636	-0.015	0.025
-596.025	456.615	-0.111	-0.247
-595.011	120.442	-0.035	0.043
-593.996	442.758	0.072	0.160
-592.982	800.000	0.057	0.233
-591.967	-105.535	0.312	-0.071
-590.952	-54.317	-0.019	-0.009
-589.938	800.000	-0.051	-0.182
-588.923	48.930	0.392	0.370
-587.909	-200.000	0.038	-0.203
-586.894	-200.000	0.066	-0.307
-585.879	-67.494	-0.101	0.040
-584.865	-150.453	-0.026	0.002
-583.850	800.000	0.077	-0.249
-582.836	-52.456	-0.062	-0.029
-581.821	-64.401	-0.231	0.095
-580.806	-49.578	-0.140	-0.067
-579.792	-17.305	-0.122	-0.077
-578.777	-112.784	-0.073	0.015
-577.763	389.253	-0.110	-0.229
-576.748	393.164	0.111	0.233
-575.733	-200.000	-0.011	0.093
-574.719	-99.980	0.273	-0.068
-573.704	173.100	0.046	0.067
-572.690	-69.087	-0.127	0.049
-571.675	127.899	0.069	0.089
-570.661	-200.000	0.055	0.240
-569.646	-200.000	-0.032	0.457
-568.631	-23.237	-0.335	0.203
-567.617	800.000	-0.067	-0.285
-566.602	126.018	0.191	-0.242
-565.588	-200.000	0.008	0.256
-564.573	800.000	0.026	-0.075
-563.558	69.646	0.179	-0.186
-562.544	-123.852	-0.391	-0.062
-561.529	-68.167	-0.144	-0.056
-560.515	428.319	-0.120	0.261
-559.500	-93.739	0.094	0.026
-558.485	-153.488	-0.139	0.010
-557.471	-200.000	0.054	-0.282
-556.456	-200.000	0.012	-0.292
-555.442	-200.000	0.015	-0.067
-554.427	193.368	-0.059	-0.090
-553.412	557.414	-0.056	-0.135
-552.398	-200.000	0.019	-0.306
-551.383	800.000	0.036	-0.146
-550.369	12.648	-0.112	-0.087
-549.354	800.000	-0.156	-0.540
-548.339	-121.096	0.496	-0.083
-547.325	225.004	-0.075	0.122
-546.310	-130.968	-0.301	0.040
-545.296	-108.432	-0.137	0.030
-544.281	511.647	-0.108	-0.254
-543.266	18.101	-0.226	-0.181
-542.252	622.226	0.044	-0.112
-541.237	-120.179	0.134	-0.023
-540.223	-200.000	-0.126	-0.001
-539.208	800.000	0.075	0.223
-538.193	-68.979	0.206	-0.080
-537.179	-47.923	0.146	0.071
-536.164	-81.517	-0.169	0.056
-535.150	27.361	-0.085	0.072
-534.135	270.281	-0.081	0.142
-533.121	-36.441	-0.194	-0.105
-532.106	-200.000	0.028	-0.251
-531.091	-129.697	-0.318	-0.044
-530.077	407.364	0.039	0.083
-529.062	504.500	-0.050	-0.117
-528.048	26.366	0.380	0.319
-527.033	-152.220	-0.189	0.014
-526.018	800.000	-0.085	-0.271
-525.004	800.000	-0.105	-0.353
-523.989	-29.069	0.075	-0.043
-522.975	190.356	0.053	0.079
-521.960	288.837	0.080	-0.145
-520.945	34.231	0.053	0.046
-519.931	-200.000	-0.001	-0.322
-518.916	5.088	-0.188	-0.139
-517.902	117.613	-0.046	0.057
-516.887	141.985	-0.052	0.069
-515.872	-115.698	0.474	0.089
-514.858	-40.236	-0.081	0.042
-513.843	-162.083	0.095	0.005
-512.829	206.548	-0.191	0.298
-511.814	-29.746	0.182	-0.104
-510.799	430.789	-0.166	0.361
-509.785	-200.000	0.002	0.029
-508.770	-129.667	0.220	0.030
-507.756	-48.587	-0.212	-0.102
-506.741	-35.346	0.185	0.101
-505.726	31.667	0.231	-0.199
-504.712	-122.232	0.100	0.016
-503.697	258.094	-0.111	-0.192
-502.683	-64.760	-0.208	-0.084
-501.668	-116.363	0.286	0.053
-500.653	92.373	-0.136	0.154
-499.639	39.532	-0.220	0.198
-498.624	-56.947	-0.312	-0.138
-497.610	-48.430	-0.244	-0.118
-496.595	30.011	-0.198	-0.169
-495.581	469.006	0.149	-0.336
-494.566	-5.370	-0.186	0.128
-493.551	37.288	0.163	-0.145
-492.537	-200.000	0.015	-0.175
-491.522	-89.145	-0.225	-0.067
-490.508	800.000	0.089	-0.328
-489.493	334.714	0.150	0.291
-488.478	266.411	0.132	-0.231
-487.464	243.665	0.084	0.141
-486.449	-200.000	-0.040	0.423
-485.435	85.908	-0.034	0.037
-484.420	-200.000	0.003	0.079
-483.405	22.952	-0.165	0.136
-482.391	141.727	-0.196	0.260
-481.376	235.156	0.076	0.125
-480.362	800.000	0.023	0.081
-479.347	800.000	-0.077	0.229
-478.332	332.252	0.036	0.070
-477.318	-148.499	0.160	0.013
-476.303	-185.095	-0.291	0.005
-475.289	-107.171	-0.084	-0.018
-474.274	800.000	0.112	0.371
-473.259	357.566	-0.061	-0.122
-472.245	800.000	0.105	-0.306
-471.230	225.826	-0.074	0.121
-470.216	-200.000	-0.059	0.428
-469.201	-73.593	0.291	-0.106
-468.186	-26.541	0.371	-0.218
-467.172	-200.000	0.033	0.423
-466.157	111.052	0.063	0.076
-465.143	-95.955	-0.129	-0.034
-464.128	-133.819	-0.107	-0.013
-463.113	-200.000	-0.017	0.081
-462.099	-109.232	0.291	0.062
-461.084	420.250	-0.110	0.236
-460.070	-52.738	-0.052	0.024
-459.055	-101.468	-0.136	0.033
-458.040	-60.139	-0.046	-0.019
-457.026	80.564	-0.090	0.097
-456.011	42.754	0.030	0.027
-454.997	340.432	0.060	-0.116
-453.982	-50.316	-0.273	0.129
-452.968	14.042	0.178	0.139
-451.953	45.854	0.075	0.069
-450.938	800.000	0.066	0.210
-449.924	685.754	-0.165	-0.432
-448.909	-200.000	0.005	0.224
-447.895	468.907	0.171	0.383
-446.880	-91.410	0.287	-0.082
-445.865	-118.188	0.120	0.021
-444.851	800.000	0.084	0.318
-443.836	-93.483	-0.099	-0.027
-442.822	489.816	0.044	0.102
-441.807	172.709	0.118	0.171
-440.792	-200.000	-0.011	0.202
-439.778	231.914	0.117	0.192
-438.763	-127.636	-0.100	0.014
-437.749	-147.665	0.156	-0.013
-436.734	176.386	0.096	0.140
-435.719	-129.113	0.164	-0.023
-434.705	203.783	0.056	-0.086
-433.690	216.122	0.197	0.313
-432.676	235.568	-0.095	0.156
-431.661	-61.410	0.214	0.090
-430.646	-130.502	-0.379	-0.051
-429.632	118.409	0.157	-0.194
-428.617	800.000	0.076	-0.246
-427.603	-200.000	0.012	0.264
-426.588	114.466	-0.218	0.265
-425.573	-75.493	0.261	-0.093
-424.559	-200.000	-0.009	-0.057
-423.544	-149.337	-0.338	-0.027
-422.530	800.000	0.039	0.125
-421.515	800.000	0.030	-0.120
-420.500	175.732	-0.091	0.132
-419.486	58.170	0.105	0.103
-418.471	81.564	0.192	0.208
-417.457	-66.900	0.296	-0.117
-416.442	-115.042	0.193	0.037
-415.428	140.618	0.085	0.112
-414.413	-98.124	-0.125	0.032
-413.398	76.181	-0.114	0.121
-412.384	105.943	-0.023	-0.027
-411.369	-162.897	0.346	-0.017
-410.355	800.000	-0.052	0.146
-409.340	-200.000	-0.031	-0.244
-408.325	31.840	-0.098	-0.084
-407.311	188.909	-0.059	0.088
-406.296	-164.026	0.238	-0.011
-405.282	-200.000	0.013	0.255
-404.267	414.701	0.059	-0.125
-403.252	173.760	-0.172	0.248
-402.238	203.067	0.087	0.134
-401.223	-138.900	0.166	0.018
-400.209	17.801	0.133	-0.106
-399.194	364.823	0.102	0.205
-398.179	293.671	-0.103	0.188
-397.165	-200.000	-0.006	0.044
-396.150	186.044	-0.200	0.297
-395.136	800.000	0.043	0.158
-394.121	800.000	0.101	-0.294
-393.106	-200.000	0.011	-0.286
-392.092	-20.498	-0.150	0.092
-391.077	273.353	0.233	0.411
-390.063	475.784	-0.049	-0.110
-389.048	-165.044	-0.161	-0.007
-388.033	348.718	-0.186	0.366
-387.019	31.686	-0.071	-0.061
-386.004	-146.354	0.431	0.038
-384.990	-45.485	0.041	-0.020
-383.975	-105.211	0.360	0.082
-382.960	-200.000	0.028	-0.141
-381.946	561.065	0.022	-0.054
-380.931	267.765	-0.084	-0.146
-379.917	-200.000	0.041	0.199
-378.902	-108.328	-0.330	0.071
-377.888	-150.369	0.269	0.021
-376.873	-200.000	0.016	0.128
-375.858	219.364	-0.166	-0.265
-374.844	-8.586	-0.084	0.056
-373.829	138.061	0.097	0.127
-372.815	43.111	0.113	-0.103
-371.800	-200.000	0.014	-0.136
-370.785	123.093	0.109	-0.137
-369.771	2.002	0.193	0.139
-368.756	196.195	-0.041	-0.063
-367.742	281.152	-0.174	-0.311
-366.727	-200.000	0.010	-0.101
-365.712	-200.000	0.012	0.234
-364.698	15.631	0.063	-0.050
-363.683	94.521	-0.178	-0.201
-362.669	-133.846	-0.119	-0.015
-361.654	61.573	0.134	0.133
-360.639	327.022	-0.075	0.144
-359.625	-96.537	-0.241	-0.063
-358.610	176.103	0.047	0.067
-357.596	-40.202	-0.167	0.087
-356.581	-56.826	0.361	-0.159
-355.566	-71.966	-0.221	-0.082
-354.552	372.665	0.042	-0.085
-353.537	-104.422	-0.074	0.017
-352.523	-200.000	0.051	-0.231
-351.508	138.025	-0.065	0.085
-350.493	57.879	-0.067	-0.066
-349.479	-74.712	0.079	0.028
-348.464	194.757	-0.282	0.427
-347.450	50.720	-0.235	0.222
-346.435	-70.551	-0.655	0.247
-345.420	-32.908	-0.158	0.087
-344.406	-47.778	0.324	-0.157
-343.391	-69.227	-0.439	-0.168
-342.377	610.867	-0.162	-0.404
-341.362	-55.580	0.147	-0.065
-340.348	556.664	0.149	-0.357
-339.333	15.667	0.167	0.131
-338.318	800.000	-0.084	0.351
-337.304	800.000	0.026	0.092
-336.289	0.680	-0.332	-0.237
-335.275	421.244	0.040	0.086
-334.260	-48.711	-0.160	0.077
-333.245	111.193	0.273	-0.328
-332.231	-94.053	0.270	-0.074
-331.216	-130.768	-0.370	-0.049
-330.202	29.330	0.076	-0.065
-329.187	-37.940	0.363	-0.192
-328.172	170.014	-0.059	0.084
-327.158	800.000	0.070	-0.229
-326.143	-200.000	-0.018	-0.273
-325.129	-58.435	-0.034	0.015
-324.114	-200.000	0.003	-0.189
-323.099	421.822	0.094	-0.201
-322.085	302.646	0.117	-0.216
-321.070	309.917	-0.083	-0.154
-320.056	-179.551	-0.121	0.003
-319.041	-200.000	-0.010	0.069
-318.026	-71.502	-0.112	-0.042
-317.012	-159.267	0.209	-0.012
-315.997	257.197	0.149	0.255
-314.983	-200.000	-0.034	0.301
-313.968	50.675	-0.054	-0.051
-312.953	-78.759	0.165	0.056
-311.939	-45.004	0.552	0.273
-310.924	276.637	-0.121	-0.214
-309.910	800.000	0.154	0.440
-308.895	9.653	-0.269	0.203
-307.880	-81.232	0.449	0.148
-306.866	503.711	0.017	0.038
-305.851	-142.738	-0.230	-0.022
-304.837	2.901	-0.243	0.175
-303.822	-98.979	0.214	0.054
-302.807	48.871	-0.178	-0.166
-301.793	-200.000	0.158	0.000
-300.778	-200.000	-0.013	0.086
-299.764	64.216	-0.105	-0.105
-298.749	-9.596	-0.121	-0.080
-297.735	351.980	-0.083	-0.163
-296.720	-56.644	0.085	-0.038
-295.705	800.000	0.075	0.277
-294.691	-128.715	0.238	0.033
-293.676	800.000	-0.072	0.237
-292.662	3.889	-0.303	0.220
-291.647	-108.945	0.286	0.061
-290.632	-51.407	-0.122	-0.057
-289.618	-200.000	0.001	0.041
-288.603	75.224	-0.419	-0.439
-287.589	-113.031	-0.112	0.022
-286.574	167.807	-0.197	-0.279
-285.559	-15.461	0.113	-0.072
-284.545	-200.000	-0.063	0.443
-283.530	-47.377	0.122	-0.059
-282.516	-200.000	-0.033	0.145
-281.501	-139.923	-0.335	-0.035
-280.486	-200.000	0.037	-0.175
-279.472	-98.956	-0.229	0.058
-278.457	-96.709	-0.161	-0.042
-277.443	-30.318	0.192	0.108
-276.428	36.955	0.175	0.154
-275.413	431.770	0.071	0.153
-274.399	132.772	-0.225	-0.289
-273.384	-28.142	-0.154	-0.089
-272.370	103.014	-0.213	-0.248
-271.355	11.102	0.093	-0.071
-270.340	-7.143	-0.267	-0.180
-269.326	163.721	-0.110	-0.153
-268.311	-200.000	-0.031	0.186
-267.297	-41.613	0.391	0.199
-266.282	22.498	-0.159	0.129
-265.267	311.127	0.034	-0.063
-264.253	-200.000	0.007	-0.041
-263.238	572.738	0.037	0.090
-262.224	-200.000	0.071	0.000
-261.209	84.164	-0.091	0.099
-260.195	-83.355	0.245	0.078
-259.180	-111.119	-0.224	0.046
-258.165	-10.854	-0.228	-0.149
-257.151	62.384	-0.315	-0.312
-256.136	-145.257	0.123	0.011
-255.122	41.854	-0.307	-0.276
-254.107	17.682	0.074	0.059
-253.092	-200.000	-0.028	0.151
-252.078	85.848	-0.118	-0.129
-251.063	-163.276	-0.118	0.006
-250.049	-200.000	-0.025	0.177
-249.034	-200.000	-0.015	0.099
-248.019	350.081	-0.162	0.318
-247.005	-100.885	0.453	-0.111
-245.990	-105.159	-0.188	-0.043
-244.976	-53.752	-0.041	-0.019
-243.961	56.987	0.042	-0.040
-242.946	800.000	-0.096	0.296
-241.932	-111.870	0.313	-0.063
-240.917	-200.000	0.047	-0.269
-239.903	356.695	-0.091	-0.181
-238.888	-29.477	0.295	-0.168
-237.873	19.679	-0.103	-0.082
-236.859	-44.305	-0.104	-0.052
-235.844	-200.000	0.047	-0.205
-234.830	202.118	-0.171	0.261
-233.815	-66.236	-0.091	0.036
-232.800	-200.000	0.083	0.412
-231.786	-200.000	0.012	-0.305
-230.771	111.355	0.321	-0.384
-229.757	275.889	0.150	-0.263
-228.742	-17.617	-0.350	0.218
-227.727	-95.953	0.134	0.035
-226.713	19.628	0.112	-0.089
-225.698	-74.496	-0.212	-0.076
-224.684	68.152	-0.042	0.043
-223.669	-200.000	0.090	0.412
-222.655	11.233	0.334	0.253
-221.640	-25.538	-0.344	-0.201
-220.625	120.090	0.144	-0.177
-219.611	-13.636	0.068	-0.043
-218.596	-0.449	0.064	-0.045
-217.582	-93.846	0.073	0.020
-216.567	-41.807	0.174	0.089
-215.552	-6.062	-0.273	-0.185
-214.538	71.611	-0.119	-0.122
-213.523	800.000	-0.033	0.131
-212.509	-75.314	0.437	0.155
-211.494	-107.597	0.362	0.078
-210.479	-73.283	-0.348	-0.126
-209.465	504.582	-0.052	-0.119
-208.450	-19.917	0.201	-0.123
-207.436	192.536	0.149	-0.223
-206.421	32.502	-0.147	-0.126
-205.406	35.904	0.082	-0.072
-204.392	-200.000	0.006	0.302
-203.377	58.405	0.324	0.315
-202.363	-81.608	0.359	0.117
-201.348	78.626	0.167	0.177
-200.333	800.000	0.060	0.240
-199.319	735.146	0.155	-0.411
-198.304	-5.194	-0.284	0.193
-197.290	91.017	-0.195	-0.217
-196.275	-200.000	-0.082	0.424
-195.260	-200.000	-0.060	0.364
-194.246	5.798	0.222	-0.162
-193.231	800.000	0.046	0.135
-192.217	-200.000	0.064	-0.309
-191.202	116.307	-0.040	-0.048
-190.187	-175.501	0.197	0.005
-189.173	-60.012	-0.101	-0.043
-188.158	149.004	0.218	0.292
-187.144	-200.000	0.001	-0.190
-186.129	-191.239	-0.084	0.001
-185.114	148.921	0.040	0.053
-184.100	175.670	-0.147	-0.211
-183.085	98.017	0.200	-0.228
-182.071	-64.789	-0.399	-0.160
-181.056	-147.611	0.079	0.007
-180.042	-13.496	-0.360	0.231
-179.027	359.852	0.091	0.180
-178.012	-23.150	-0.134	0.080
-176.998	-108.142	0.319	0.068
-175.983	-80.778	-0.160	-0.053
-174.969	-70.109	0.242	0.091
-173.954	141.091	0.216	-0.283
-172.939	800.000	-0.102	-0.307
-171.925	582.859	-0.058	-0.141
-170.910	72.033	-0.489	0.504
-169.896	-136.360	0.334	-0.038
-168.881	9.547	0.147	0.110
-167.866	-81.515	0.051	0.017
-166.852	800.000	-0.035	-0.142
-165.837	475.382	0.020	-0.046
-164.823	152.672	0.112	0.151
-163.808	-200.000	0.007	0.416
-162.793	-61.520	0.079	-0.033
-161.779	8.386	-0.283	-0.211
-160.764	77.709	0.110	-0.116
-159.750	800.000	-0.028	-0.117
-158.735	-200.000	-0.003	-0.068
-157.720	-71.039	-0.313	0.116
-156.706	-117.513	-0.302	-0.054
-155.691	-200.000	0.016	-0.095
-154.677	-200.000	0.053	-0.260
-153.662	-200.000	-0.036	-0.408
-152.647	-162.775	-0.210	0.010
-151.633	246.297	0.053	-0.088
-150.618	-200.000	0.028	0.509
-149.604	800.000	-0.032	0.130
-148.589	-60.529	0.196	-0.082
-147.574	-108.992	-0.303	0.064
-146.560	34.498	-0.115	-0.099
-145.545	321.790	-0.068	0.127
-144.531	-38.751	0.101	-0.053
-143.516	800.000	-0.040	-0.135
-142.502	-0.363	0.152	0.107
-141.487	800.000	-0.026	-0.105
-140.472	-200.000	-0.030	-0.140
-139.458	134.020	-0.222	-0.285
-138.443	-3.059	-0.312	0.215
-137.429	-16.486	0.109	-0.068
-136.414	1.008	0.224	-0.159
-135.399	41.207	0.198	-0.176
-134.385	-200.000	-0.003	-0.025
-133.370	125.079	-0.222	0.277
-132.356	-89.868	-0.327	0.095
-131.341	-118.520	0.166	0.029
-130.326	-151.136	0.151	-0.011
-129.312	-29.608	-0.240	-0.135
-128.297	195.922	-0.187	0.281
-127.283	22.628	-0.105	-0.085
-126.268	-155.027	-0.182	0.012
-125.253	-34.822	0.199	-0.107
-124.239	800.000	0.044	-0.168
-123.224	121.511	-0.074	-0.092
-122.210	-200.000	0.023	0.278
-121.195	587.659	-0.025	0.060
-120.180	-200.000	0.019	0.197
-119.166	138.270	-0.100	0.129
-118.151	-200.000	0.002	0.188
-117.137	127.993	0.156	0.196
-116.122	28.962	0.081	-0.068
-115.107	-41.851	-0.212	-0.107
-114.093	71.470	0.111	-0.114
-113.078	-143.751	0.342	0.032
-112.064	257.350	-0.085	0.144
-111.049	387.423	-0.063	-0.128
-110.034	-19.119	0.160	0.098
-109.020	-90.163	0.072	0.021
-108.005	19.950	-0.173	-0.138
-106.991	-58.078	-0.223	-0.096
-105.976	421.684	0.115	0.243
-104.962	290.899	0.133	0.238
-103.947	9.315	0.066	0.049
-102.932	453.416	-0.096	-0.210
-101.918	528.436	-0.132	0.308
-100.903	-200.000	-0.055	0.457
-99.889	153.714	0.154	0.208
-98.874	316.235	-0.155	0.289
-97.859	-200.000	0.096	-0.000
-96.845	-56.833	-0.153	-0.067
-95.830	350.124	0.172	-0.335
-94.816	-200.000	-0.044	-0.213
-93.801	-54.421	0.379	0.169
-92.786	57.857	-0.232	-0.224
-91.772	-79.909	0.065	0.021
-90.757	-161.005	-0.253	-0.013
-89.743	55.522	-0.131	0.125
-88.728	-200.000	-0.021	-0.139
-87.713	107.953	0.162	-0.191
-86.699	242.025	0.080	-0.132
-85.684	-25.532	0.161	0.094
-84.670	64.466	0.066	0.065
-83.655	-200.000	0.020	-0.251
-82.640	-111.215	-0.202	-0.041
-81.626	-69.479	0.090	0.034
-80.611	800.000	-0.075	-0.224
-79.597	35.689	0.056	-0.048
-78.582	-200.000	-0.077	-0.407
-77.567	-93.334	0.317	0.087
-76.553	-102.285	-0.193	0.046
-75.538	199.763	0.017	-0.025
-74.524	-200.000	0.027	0.197
-73.509	373.008	-0.114	-0.227
-72.494	-147.892	0.277	0.023
-71.480	83.685	-0.010	0.011
-70.465	-9.848	-0.220	0.144
-69.451	-200.000	-0.016	0.231
-68.436	800.000	0.069	-0.265
-67.422	-200.000	-0.041	0.401
-66.407	55.765	0.382	-0.364
-65.392	473.495	0.082	0.181
-64.378	135.932	0.146	-0.187
-63.363	800.000	0.123	0.337
-62.349	-200.000	-0.094	0.000
-61.334	107.867	-0.618	-0.726
-60.319	247.584	0.335	0.557
-59.305	322.155	-0.480	-0.900
-58.290	448.442	0.420	0.911
-57.276	478.344	0.668	1.490
-56.261	-200.000	98.030	596.347
-55.246	626.672	1425.573	3544.779
-54.232	184.428	2630.280	3838.069
-53.217	113.559	2308.346	2761.113
-52.203	42.385	1920.722	1719.990
-51.188	36.211	1709.355	1483.359
-50.173	33.490	1665.028	1424.419
-49.159	51.328	1711.629	1600.458
-48.144	53.851	1727.969	1634.844
-47.130	35.898	1687.217	1461.542
-46.115	33.150	1672.186	1427.743
-45.100	32.841	1667.766	1421.586
-44.086	32.916	1664.930	1419.677
-43.071	32.911	1662.021	1417.103
-42.057	32.929	1659.678	1415.187
-41.042	32.935	1657.151	1413.020
-40.027	32.864	1655.729	1411.221
-39.013	32.809	1653.474	1408.829
-37.998	32.781	1652.407	1407.659
-36.984	32.947	1650.767	1407.442
-35.969	33.012	1649.274	1406.598
-34.954	33.050	1647.837	1405.597
-33.940	33.062	1645.812	1403.905
-32.925	32.952	1644.220	1401.670
-31.911	32.956	1642.407	1400.100
-30.896	33.024	1640.180	1398.649
-29.881	32.967	1638.734	1396.938
-28.867	33.011	1637.219	1395.919
-27.852	32.946	1635.183	1393.652
-26.838	33.098	1633.862	1393.588
-25.823	33.007	1632.597	1391.784
-24.809	32.965	1631.514	1390.493
-23.794	33.052	1629.818	1389.636
-22.779	33.089	1628.452	1388.690
-21.765	33.037	1626.718	1386.772
-20.750	33.078	1624.582	1385.199
-19.736	33.021	1623.932	1384.169
-18.721	33.047	1622.222	1382.846
-17.706	32.994	1620.818	1381.211
-16.692	32.926	1619.577	1379.600
-15.677	33.011	1618.125	1378.930
-14.663	33.085	1616.435	1377.969
-13.648	33.005	1615.196	1376.279
-12.633	33.010	1613.502	1374.814
-11.619	32.965	1612.192	1373.321
-10.604	33.004	1610.726	1372.302
-9.590	33.086	1609.296	1371.622
-8.575	33.091	1607.582	1370.142
-7.560	33.049	1606.657	1368.997
-6.546	33.134	1605.202	1368.313
-5.531	32.984	1604.409	1366.500
-4.517	32.962	1603.680	1365.667
-3.502	32.967	1602.474	1364.625
-2.487	33.076	1600.663	1363.812
-1.473	33.000	1589.440	1353.650
-0.458	30.645	1570.812	1321.032
0.556	26.424	1571.183	1291.258
1.571	24.281	1595.590	1295.642
2.586	23.731	1608.415	1301.909
3.600	21.017	1554.641	1239.017
4.615	12.860	1444.702	1097.221
5.629	6.085	1380.715	1005.305
6.644	5.151	1371.991	992.925
7.659	4.934	1370.541	990.413
8.673	4.912	1369.419	989.374
9.688	4.903	1367.658	987.960
10.702	4.718	1365.315	985.003
11.717	7.975	1371.817	1010.298
12.731	15.565	1385.814	1068.984
13.746	19.447	1391.093	1097.711
14.761	18.699	1387.949	1090.384
15.775	17.474	1385.510	1080.598
16.790	16.374	1382.814	1071.429
17.804	15.635	1380.288	1064.697
18.819	15.221	1379.081	1061.048
19.834	14.894	1377.829	1057.923
20.848	14.761	1376.404	1055.893
21.863	14.476	1375.234	1053.103
22.877	14.318	1373.881	1050.980
23.892	14.310	1373.094	1050.234
24.907	14.322	1372.115	1049.466
25.921	14.304	1371.026	1048.429
26.936	14.280	1370.590	1047.847
27.950	14.331	1369.780	1047.458
28.965	14.397	1368.683	1046.942
29.980	14.542	1367.305	1046.707
30.994	14.502	1365.929	1045.310
32.009	14.625	1364.838	1045.154
33.023	14.682	1363.832	1044.643
34.038	14.504	1362.711	1042.580
35.053	14.490	1361.027	1041.116
36.067	14.351	1360.256	1039.565
37.082	14.449	1358.760	1038.939
38.096	14.568	1357.832	1038.878
39.111	14.498	1357.470	1038.075
40.126	14.358	1356.589	1036.437
41.140	14.343	1355.267	1035.246
42.155	14.212	1354.854	1034.024
43.169	14.167	1354.555	1033.421
44.184	14.237	1354.404	1033.653
45.199	14.166	1354.149	1032.924
46.213	14.262	1353.335	1032.806
47.228	14.347	1353.011	1032.995
48.242	14.404	1351.257	1031.918
49.257	14.448	1349.308	1030.608
50.271	14.397	1348.168	1029.333
51.286	14.237	1347.443	1027.702
52.301	14.452	1345.823	1027.702
53.315	14.279	1344.536	1025.563
54.330	14.265	1343.928	1024.923
55.344	14.271	1342.569	1023.832
56.359	14.252	1341.471	1022.786
57.374	14.205	1340.764	1021.870
58.388	14.109	1340.158	1020.726
59.403	14.080	1339.385	1019.872
60.417	14.126	1338.239	1019.188
61.432	14.068	1338.066	1018.608
62.447	14.134	1336.095	1017.424
63.461	14.061	1335.127	1016.148
64.476	14.072	1334.326	1015.518
65.490	14.007	1333.643	1014.509
66.505	14.124	1331.492	1013.498
67.520	14.211	1330.320	1013.047
68.534	14.091	1329.846	1011.864
69.549	14.102	1328.711	1010.979
70.563	14.155	1327.198	1010.064
71.578	14.028	1326.231	1008.464
72.593	14.101	1325.211	1008.046
73.607	14.015	1324.398	1006.817
74.622	13.930	1323.938	1005.860
75.636	13.959	1322.998	1005.231
76.651	14.006	1322.446	1005.008
77.666	14.046	1321.834	1004.694
78.680	14.091	1321.333	1004.498
79.695	14.139	1320.373	1003.968
80.709	14.058	1320.323	1003.353
81.724	14.097	1319.230	1002.672
82.739	14.201	1317.927	1002.218
83.753	14.265	1317.493	1002.182
84.768	14.371	1316.372	1001.879
85.782	14.493	1315.429	1001.809
86.797	14.475	1313.727	1000.312
87.812	14.349	1312.774	998.747
88.826	14.322	1311.775	997.734
89.841	14.298	1310.750	996.724
90.855	14.459	1309.678	996.782
91.870	14.421	1308.659	995.694
92.884	14.368	1308.168	994.912
93.899	14.498	1306.974	994.695
94.914	14.568	1306.338	994.540
95.928	14.586	1305.719	994.085
96.943	14.469	1305.031	992.776
97.957	14.420	1303.952	991.580
98.972	14.442	1302.450	990.477
99.987	14.430	1301.671	989.725
101.001	14.461	1300.162	988.678
102.016	14.370	1299.885	987.840
103.030	14.522	1298.662	987.719
104.045	14.415	1298.180	986.633
105.060	14.421	1296.510	985.315
106.074	14.355	1295.348	983.951
107.089	14.173	1294.004	981.771
108.103	14.198	1292.619	980.780
109.118	14.180	1291.315	979.596
110.133	14.147	1289.804	978.172
111.147	14.124	1288.452	976.927
112.162	14.229	1287.218	976.519
113.176	14.304	1286.379	976.238
114.191	14.394	1285.238	975.813
115.206	14.243	1284.178	974.036
116.220	14.194	1282.766	972.595
117.235	14.234	1281.717	971.945
118.249	14.231	1280.981	971.284
119.264	14.230	1279.566	970.121
120.279	14.234	1278.441	969.204
121.293	14.079	1277.766	967.704
122.308	14.175	1276.505	967.218
123.322	14.253	1275.318	966.690
124.337	14.074	1274.206	964.723
125.352	14.088	1273.197	963.953
126.366	14.009	1272.365	962.784
127.381	14.118	1271.190	962.439
128.395	14.097	1269.994	961.328
129.410	14.135	1269.262	960.904
130.424	14.100	1268.666	960.166
131.439	14.221	1267.345	959.778
132.454	14.092	1266.978	958.674
133.468	14.366	1265.368	958.951
134.483	14.316	1264.943	958.255
135.497	14.244	1263.865	956.939
136.512	14.261	1262.556	955.959
137.527	14.260	1261.315	954.933
138.541	14.281	1260.010	953.980
139.556	14.356	1258.417	953.117
140.570	14.406	1257.492	952.618
141.585	14.470	1256.381	952.056
142.600	14.505	1255.345	951.386
143.614	14.517	1254.410	950.665
144.629	14.569	1253.451	950.151
145.643	14.632	1251.962	949.297
146.658	14.447	1250.867	947.326
147.673	14.444	1249.595	946.266
148.687	14.322	1248.338	944.538
149.702	14.275	1246.845	943.056
150.716	14.345	1245.502	942.356
151.731	14.359	1244.808	941.823
152.746	14.495	1242.871	941.041
153.760	14.338	1242.078	939.473
154.775	14.371	1240.958	938.733
155.789	14.532	1239.999	938.829
156.804	14.560	1239.160	938.270
157.819	14.554	1238.168	937.401
158.833	14.589	1237.060	936.673
159.848	14.675	1236.617	936.740
160.862	14.649	1235.298	935.513
161.877	14.540	1233.901	933.760
162.892	14.521	1232.982	932.876
163.906	14.413	1232.231	931.619
164.921	14.346	1231.277	930.442
165.935	14.427	1230.385	930.139
166.950	14.557	1229.578	930.174
167.964	14.527	1229.307	929.717
168.979	14.536	1227.920	928.637
169.994	14.540	1227.713	928.420
171.008	14.573	1226.716	927.764
172.023	14.609	1225.773	927.174
173.037	14.753	1225.406	927.611
174.052	14.782	1224.060	926.670
175.067	14.563	1223.385	924.866
176.081	14.436	1222.293	923.254
177.096	14.515	1221.286	922.846
178.110	14.554	1219.961	921.982
179.125	14.531	1218.756	920.860
180.140	14.547	1217.989	920.288
181.154	14.660	1216.570	919.758
182.169	14.593	1215.406	918.426
183.183	14.817	1214.075	918.572
184.198	14.833	1212.987	917.754
185.213	14.844	1211.852	916.876
186.227	14.840	1211.250	916.316
187.242	14.740	1210.570	915.177
188.256	14.906	1208.763	914.635
189.271	14.887	1207.918	913.813
190.286	14.733	1207.143	912.304
191.300	14.556	1206.147	910.504
192.315	14.513	1205.773	909.908
193.329	14.515	1204.887	909.169
194.344	14.550	1204.715	909.147
195.359	14.664	1203.446	908.730
196.373	14.696	1203.182	908.626
197.388	14.801	1202.966	908.953
198.402	15.026	1201.992	909.362
199.417	15.065	1201.744	909.302
200.432	15.161	1200.798	909.030
201.446	15.075	1200.107	907.960
202.461	15.202	1199.081	907.791
203.475	15.182	1198.051	906.822
204.490	15.040	1196.873	905.079
205.504	15.076	1195.369	904.060
206.519	15.096	1194.127	903.146
207.534	14.981	1193.362	901.868
208.548	15.025	1192.276	901.206
209.563	15.106	1191.451	900.936
210.577	15.100	1190.078	899.787
211.592	15.061	1189.652	899.179
212.607	15.099	1189.179	898.944
213.621	15.218	1187.944	898.567
214.636	15.093	1187.284	897.318
215.650	15.110	1186.480	896.724
216.665	15.249	1184.926	896.213
217.680	15.300	1184.536	896.111
218.694	15.404	1183.381	895.714
219.709	15.364	1182.879	895.042
220.723	15.351	1182.047	894.261
221.738	15.391	1181.023	893.623
222.753	15.207	1181.074	892.603
223.767	15.370	1179.767	892.401
224.782	15.429	1179.277	892.265
225.796	15.409	1178.545	891.528
226.811	15.493	1177.889	891.396
227.826	15.387	1177.145	890.196
228.840	15.287	1176.805	889.327
229.855	15.358	1175.979	889.002
230.869	15.330	1174.996	888.032
231.884	15.334	1173.880	887.128
232.899	15.281	1173.326	886.354
233.913	15.180	1172.959	885.464
234.928	15.285	1171.849	885.099
235.942	15.223	1170.972	884.033
236.957	15.181	1170.414	883.314
237.972	15.246	1169.712	883.047
238.986	15.360	1168.951	882.993
240.001	15.236	1168.059	881.590
241.015	15.274	1167.117	881.000
242.030	15.466	1166.242	881.271
243.045	15.342	1165.920	880.296
244.059	15.413	1165.266	880.097
245.074	15.514	1164.037	879.624
246.088	15.482	1163.162	878.717
247.103	15.620	1162.690	879.004
248.117	15.588	1161.955	878.201
249.132	15.651	1161.650	878.224
250.147	15.792	1160.843	878.271
251.161	15.775	1159.939	877.419
252.176	15.877	1159.330	877.417
253.190	15.904	1158.781	877.060
254.205	15.943	1158.195	876.743
255.220	16.044	1157.075	876.345
256.234	16.004	1156.583	875.687
257.249	16.022	1156.162	875.384
258.263	16.024	1154.973	874.415
259.278	15.973	1154.310	873.573
260.293	15.987	1153.995	873.331
261.307	15.987	1153.838	873.135
262.322	16.037	1153.007	872.683
263.336	16.071	1152.531	872.423
264.351	16.087	1151.597	871.723
265.366	16.213	1150.937	871.796
266.380	16.166	1149.752	870.582
267.395	16.171	1148.999	869.958
268.409	16.065	1148.597	869.030
269.424	16.113	1148.069	868.799
270.439	16.160	1147.147	868.269
271.453	16.053	1146.794	867.371
272.468	16.026	1145.993	866.550
273.482	16.091	1145.069	866.112
274.497	16.159	1144.091	865.645
275.512	16.108	1143.819	865.102
276.526	16.015	1143.312	864.162
277.541	16.058	1142.157	863.431
278.555	16.212	1141.393	863.569
279.570	16.184	1140.878	862.957
280.585	16.251	1140.001	862.561
281.599	16.230	1139.419	861.936
282.614	16.243	1138.222	861.021
283.628	16.232	1137.031	859.990
284.643	16.171	1136.356	859.093
285.657	16.208	1135.476	858.536
286.672	16.320	1134.331	858.165
287.687	16.218	1133.621	857.032
288.701	16.362	1132.223	856.634
289.716	16.260	1131.974	855.851
290.730	16.335	1131.330	855.669
291.745	16.339	1130.337	854.863
292.760	16.433	1129.763	854.826
293.774	16.503	1129.203	854.683
294.789	16.474	1128.891	854.222
295.803	16.556	1127.864	853.786
296.818	16.453	1126.870	852.438
297.833	16.380	1126.438	851.667
298.847	16.296	1126.073	850.891
299.862	16.391	1124.894	850.406
300.876	16.489	1124.507	850.529
301.891	16.530	1123.712	850.059
302.906	16.507	1123.168	849.458
303.920	16.538	1122.418	848.972
304.935	16.636	1121.824	848.939
305.949	16.659	1121.371	848.637
306.964	16.756	1120.683	848.523
307.979	16.629	1119.755	847.113
308.993	16.785	1118.881	847.154
310.008	16.746	1118.416	846.534
311.022	16.691	1117.155	845.230
312.037	16.672	1116.775	844.771
313.052	16.716	1115.641	844.061
314.066	16.704	1114.598	843.138
315.081	16.578	1113.804	841.833
316.095	16.682	1113.143	841.779
317.110	16.623	1112.311	840.781
318.125	16.590	1111.807	840.160
319.139	16.660	1110.923	839.768
320.154	16.651	1110.321	839.192
321.168	16.502	1110.308	838.368
322.183	16.679	1109.383	838.473
323.197	16.667	1108.590	837.738
324.212	16.763	1108.177	837.827
325.227	16.697	1107.470	836.895
326.241	16.744	1106.822	836.561
327.256	16.731	1105.955	835.771
328.270	16.764	1105.111	835.218
329.285	16.665	1104.217	833.984
330.300	16.788	1102.890	833.512
331.314	16.839	1101.908	832.949
332.329	16.702	1101.494	831.889
333.343	16.776	1100.555	831.467
334.358	16.902	1099.723	831.385
335.373	16.896	1099.002	830.736
336.387	16.977	1098.253	830.491
337.402	16.828	1097.635	829.221
338.416	17.044	1096.738	829.526
339.431	17.028	1096.026	828.837
340.446	17.074	1095.663	828.713
341.460	17.156	1095.011	828.548
342.475	17.155	1094.017	827.715
343.489	17.151	1093.344	827.116
344.504	17.244	1092.109	826.563
345.519	17.247	1091.096	825.735
346.533	17.234	1090.815	825.384
347.548	17.398	1089.869	825.394
348.562	17.300	1089.359	824.460
349.577	17.143	1088.723	823.145
350.592	17.165	1087.357	822.144
351.606	17.146	1086.584	821.394
352.621	17.089	1086.201	820.758
353.635	17.074	1085.347	819.967
354.650	17.183	1084.577	819.838
355.665	17.142	1084.148	819.246
356.679	17.085	1083.544	818.441
357.694	17.197	1082.860	818.390
358.708	17.240	1082.045	817.910
359.723	17.249	1081.463	817.442
360.738	17.368	1080.901	817.515
361.752	17.268	1080.469	816.637
362.767	17.384	1080.165	816.892
363.781	17.340	1079.114	815.813
364.796	17.378	1078.641	815.565
365.810	17.465	1078.132	815.526
366.825	17.581	1077.344	815.411
367.840	17.539	1077.090	814.945
368.854	17.656	1076.456	814.955
369.869	17.571	1075.925	814.073
370.883	17.585	1075.107	813.449
371.898	17.634	1074.024	812.793
372.913	17.621	1073.391	812.180
373.927	17.648	1072.462	811.535
374.942	17.654	1072.382	811.430
375.956	17.620	1071.931	810.855
376.971	17.574	1071.417	810.177
377.986	17.654	1070.809	810.027
379.000	17.649	1070.789	809.915
380.015	17.741	1070.065	809.729
381.029	17.693	1069.452	808.968
382.044	17.916	1068.295	809.077
383.059	17.738	1067.722	807.727
384.073	17.824	1066.813	807.378
385.088	17.869	1065.941	806.858
386.102	17.774	1065.245	805.810
387.117	17.784	1064.061	804.891
388.132	17.663	1063.122	803.539
389.146	17.732	1062.233	803.122
390.161	17.675	1061.598	802.301
391.175	17.651	1061.129	801.766
392.190	17.725	1060.484	801.554
393.205	17.770	1059.685	801.089
394.219	17.980	1058.902	801.413
395.234	17.895	1058.143	800.371
396.248	17.853	1056.839	799.113
397.263	17.754	1056.110	798.031
398.278	17.725	1055.322	797.226
399.292	17.778	1054.535	796.813
400.307	17.718	1053.804	795.910
401.321	17.703	1053.595	795.611
402.336	17.834	1052.129	795.045
403.350	17.802	1051.597	794.423
404.365	18.004	1050.844	794.720
405.380	17.906	1050.256	793.751
406.394	17.988	1049.653	793.608
407.409	17.888	1049.262	792.777
408.423	18.046	1048.426	792.806
409.438	18.146	1047.762	792.697
410.453	18.164	1047.121	792.226
411.467	18.207	1046.472	791.867
412.482	18.275	1045.579	791.435
413.496	18.299	1045.098	791.110
414.511	18.232	1044.722	790.445
415.526	18.268	1044.394	790.296
416.540	18.427	1043.618	790.370
417.555	18.363	1043.171	789.666
418.569	18.339	1042.632	789.079
419.584	18.321	1042.102	788.524
420.599	18.283	1041.679	787.961
421.613	147.991	1401.382	1790.762
422.628	135.318	1453.771	1790.866
