DTS Sentinel unit serial number:	SN413079Multiplexer serial number:	ORYXHardware model number:	OX4-SRSoftware version number:	ORYX F/W v4.00 Oryx Data Collector v3.7.2.0data status	okinstallation	princeton_trtdifferential loss correction	single-endedforward channel	channel 2reverse channel	N/Adate	2019/09/14time	07:39:34forward acquisition time	60.00reverse acquisition time	0.00gamma	496.2192k internal	0.2337k external	0.2337temperature offset calibration	1.0127default loss term (dB/km)	0.3790temperature slope calibration	1.0000multiplexer offset coefficient	1.0000multiplexer slope coefficient	1.0000fibre end	0.00T internal ref (°C)	26.30T ext. ref 1 (°C)	3.47T ext. ref 2 (°C)	21.81length (m)	temperature (°C)	Stokes	anti-Stokes-747.200	578.117	-0.028	0.068
-746.185	-200.000	-0.050	-0.296
-745.171	129.237	-0.134	-0.171
-744.156	14.383	0.054	0.042
-743.142	-200.000	-0.007	-0.295
-742.127	771.605	0.131	0.358
-741.112	-3.136	0.246	-0.172
-740.098	-162.045	-0.467	-0.024
-739.083	-140.696	-0.091	-0.009
-738.069	-124.997	0.304	-0.047
-737.054	89.037	0.093	0.104
-736.039	250.907	-0.239	-0.407
-735.025	-96.329	-0.195	0.052
-734.010	-200.000	-0.055	-0.259
-732.996	-140.608	0.168	0.018
-731.981	313.320	0.104	0.197
-730.966	119.800	0.041	0.051
-729.952	800.000	-0.100	-0.317
-728.937	352.656	0.107	-0.214
-727.923	-200.000	0.022	-0.148
-726.908	90.518	-0.256	-0.288
-725.894	-144.576	-0.217	-0.020
-724.879	-200.000	-0.014	-0.439
-723.864	278.477	-0.190	-0.340
-722.850	365.007	-0.061	0.124
-721.835	3.805	0.141	0.103
-720.821	-200.000	-0.017	-0.424
-719.806	-200.000	-0.004	0.067
-718.791	-51.200	-0.418	-0.196
-717.777	-62.806	0.215	-0.089
-716.762	-141.987	-0.104	0.010
-715.748	386.629	-0.074	0.154
-714.733	119.502	0.092	-0.115
-713.718	647.987	0.063	-0.162
-712.704	22.081	-0.135	0.110
-711.689	89.276	-0.015	-0.017
-710.675	7.989	0.309	0.233
-709.660	-70.858	-0.122	-0.046
-708.645	225.841	0.130	0.211
-707.631	-18.707	0.290	0.181
-706.616	293.787	0.065	0.118
-705.602	-89.453	0.056	-0.017
-704.587	105.898	0.042	-0.050
-703.572	262.602	-0.084	0.146
-702.558	248.898	-0.122	0.207
-701.543	800.000	0.089	-0.325
-700.529	124.078	-0.093	-0.117
-699.514	-52.999	0.283	0.131
-698.499	-20.567	0.186	-0.114
-697.485	-200.000	0.028	-0.214
-696.470	-104.097	-0.098	0.023
-695.456	-200.000	-0.021	-0.360
-694.441	-103.822	-0.180	-0.042
-693.426	-56.764	-0.201	-0.089
-692.412	-16.304	-0.390	-0.248
-691.397	-166.884	-0.511	0.021
-690.383	-18.048	-0.111	0.070
-689.368	-50.070	-0.389	0.185
-688.354	256.139	0.203	0.348
-687.339	218.175	0.138	0.220
-686.324	-23.512	-0.264	0.159
-685.310	122.324	0.072	0.090
-684.295	-200.000	0.005	0.044
-683.281	-56.274	-0.071	0.032
-682.266	148.373	0.053	-0.072
-681.251	56.296	-0.185	-0.180
-680.237	-174.759	0.367	0.010
-679.222	-193.638	0.178	-0.002
-678.208	3.974	0.202	0.148
-677.193	-200.000	-0.019	0.115
-676.178	207.979	0.170	0.266
-675.164	352.331	-0.138	-0.274
-674.149	134.783	0.133	-0.173
-673.135	-167.056	-0.473	-0.019
-672.120	-124.608	-0.200	-0.031
-671.105	376.175	0.063	0.128
-670.091	-97.567	0.271	-0.070
-669.076	4.572	-0.067	-0.050
-668.062	-68.176	-0.310	0.121
-667.047	21.032	0.254	0.206
-666.032	-200.000	-0.022	0.121
-665.018	-112.980	0.346	-0.068
-664.003	496.298	0.097	0.223
-662.989	178.239	0.187	-0.273
-661.974	-200.000	-0.053	-0.267
-660.959	-11.399	0.238	0.157
-659.945	-108.094	-0.096	-0.021
-658.930	155.257	0.160	0.220
-657.916	-200.000	-0.069	0.365
-656.901	507.158	-0.166	-0.384
-655.886	-86.995	-0.072	0.022
-654.872	415.140	-0.090	0.192
-653.857	-109.814	0.052	-0.011
-652.843	56.003	0.204	-0.198
-651.828	-128.818	0.178	0.025
-650.814	-200.000	0.062	-0.574
-649.799	-80.241	-0.372	0.125
-648.784	800.000	0.074	0.304
-647.770	-36.864	-0.318	-0.171
-646.755	-61.305	0.297	0.125
-645.741	178.454	0.066	-0.096
-644.726	7.024	0.184	0.137
-643.711	-81.007	-0.034	-0.011
-642.697	149.662	-0.152	0.207
-641.682	800.000	0.091	0.252
-640.668	33.614	0.123	-0.107
-639.653	-200.000	0.020	-0.366
-638.638	-200.000	-0.015	-0.229
-637.624	639.411	0.027	-0.069
-636.609	-200.000	0.015	-0.084
-635.595	28.040	0.231	0.195
-634.580	-76.370	-0.520	-0.183
-633.565	211.750	-0.245	-0.385
-632.551	1.602	0.216	0.155
-631.536	-200.000	-0.028	-0.147
-630.522	-119.122	-0.128	-0.022
-629.507	-127.742	0.332	-0.048
-628.492	-84.702	-0.068	0.021
-627.478	800.000	-0.114	0.324
-626.463	-39.509	0.046	-0.024
-625.449	-70.772	-0.204	-0.077
-624.434	-33.987	-0.036	0.020
-623.419	282.746	-0.081	0.145
-622.405	55.542	0.078	0.075
-621.390	-200.000	0.036	-0.188
-620.376	800.000	0.023	-0.084
-619.361	-200.000	-0.033	0.279
-618.346	84.912	-0.062	0.068
-617.332	79.498	0.213	-0.228
-616.317	-92.982	0.065	-0.018
-615.303	323.380	-0.065	0.124
-614.288	-15.018	0.121	-0.077
-613.273	115.556	-0.119	-0.145
-612.259	-60.265	0.064	-0.027
-611.244	234.244	0.003	-0.005
-610.230	-100.039	-0.697	-0.173
-609.215	11.018	-0.148	-0.113
-608.201	-200.000	0.005	-0.080
-607.186	-77.118	0.295	0.103
-606.171	30.309	0.199	-0.170
-605.157	9.293	0.080	-0.060
-604.142	-200.000	0.008	0.267
-603.128	800.000	-0.040	0.133
-602.113	289.578	-0.278	-0.504
-601.098	334.681	0.082	-0.159
-600.084	-15.689	-0.206	0.131
-599.069	-179.840	0.076	-0.002
-598.055	-64.482	0.230	0.093
-597.040	-200.000	-0.023	-0.251
-596.025	204.633	0.093	0.144
-595.011	286.708	-0.184	0.331
-593.996	-200.000	-0.002	0.035
-592.982	-129.787	0.439	0.060
-591.967	800.000	0.038	0.158
-590.952	55.660	-0.175	0.170
-589.938	190.094	0.200	-0.300
-588.923	701.534	0.126	-0.330
-587.909	800.000	-0.028	0.103
-586.894	-200.000	-0.008	0.121
-585.879	-171.866	-0.434	-0.014
-584.865	-68.754	0.217	0.084
-583.850	48.364	0.071	-0.066
-582.836	800.000	-0.101	-0.284
-581.821	-182.388	-0.058	-0.001
-580.806	-180.350	-0.256	-0.005
-579.792	-200.000	0.004	0.334
-578.777	20.930	0.184	0.149
-577.763	-200.000	-0.024	-0.183
-576.748	-54.794	-0.226	-0.102
-575.733	4.653	0.100	0.073
-574.719	-190.496	-0.275	0.003
-573.704	220.024	-0.143	0.228
-572.690	-200.000	-0.080	0.380
-571.675	117.966	-0.179	-0.220
-570.661	-30.480	0.147	0.083
-569.646	57.084	0.163	-0.158
-568.631	355.529	0.082	-0.162
-567.617	-36.127	0.146	-0.079
-566.602	-71.708	0.074	0.027
-565.588	-56.258	0.217	-0.096
-564.573	800.000	-0.047	-0.167
-563.558	51.714	0.149	0.141
-562.544	-158.748	-0.216	0.012
-561.529	7.366	-0.124	-0.092
-560.515	-140.514	0.032	0.003
-559.500	-200.000	0.012	0.265
-558.485	-200.000	0.000	-0.157
-557.471	-138.588	0.049	-0.005
-556.456	-154.455	0.395	-0.026
-555.442	-13.930	-0.093	0.060
-554.427	147.668	-0.225	-0.303
-553.412	346.185	-0.054	-0.106
-552.398	-18.814	-0.297	-0.184
-551.383	3.587	0.219	-0.159
-550.369	9.172	0.199	0.150
-549.354	238.544	0.065	0.107
-548.339	51.784	0.209	0.198
-547.325	-109.815	-0.066	0.014
-546.310	-133.847	-0.295	0.036
-545.296	169.964	-0.164	0.233
-544.281	-78.085	0.148	-0.051
-543.266	177.908	0.156	0.227
-542.252	433.953	0.088	0.191
-541.237	800.000	-0.056	-0.158
-540.223	191.943	-0.279	-0.419
-539.208	177.728	0.086	-0.125
-538.193	181.054	-0.200	0.293
-537.179	-200.000	-0.029	-0.354
-536.164	-30.885	0.244	0.137
-535.150	193.773	-0.106	-0.160
-534.135	-99.280	0.238	-0.060
-533.121	800.000	-0.052	-0.151
-532.106	1.281	0.194	-0.139
-531.091	54.336	0.167	-0.160
-530.077	-71.007	-0.153	-0.057
-529.062	-200.000	0.039	-0.417
-528.048	614.163	-0.153	0.381
-527.033	800.000	0.033	0.100
-526.018	-200.000	0.007	0.089
-525.004	206.998	0.114	0.176
-523.989	-85.676	0.062	0.019
-522.975	31.408	-0.143	0.123
-521.960	11.179	-0.139	-0.106
-520.945	76.170	-0.289	0.304
-519.931	-70.624	0.056	-0.021
-518.916	-200.000	-0.049	-0.568
-517.902	-3.684	0.361	0.250
-516.887	198.588	0.243	-0.370
-515.872	153.647	0.072	-0.098
-514.858	-146.809	-0.162	0.014
-513.843	800.000	-0.028	0.119
-512.829	-149.821	-0.310	0.024
-511.814	-26.011	0.089	-0.052
-510.799	69.678	-0.087	0.089
-509.785	-49.594	-0.158	0.075
-508.770	149.849	-0.226	-0.305
-507.756	-73.835	0.085	-0.031
-506.741	139.184	0.160	0.210
-505.726	465.726	-0.157	0.350
-504.712	-84.755	-0.266	-0.083
-503.697	30.946	0.164	-0.140
-502.683	-200.000	0.081	-0.366
-501.668	-34.290	-0.210	0.115
-500.653	131.409	0.278	0.355
-499.639	-54.731	-0.097	0.044
-498.624	1.276	0.415	-0.297
-497.610	800.000	-0.016	-0.060
-496.595	281.670	0.107	-0.190
-495.581	800.000	-0.044	0.127
-494.566	-85.240	-0.140	-0.043
-493.551	-47.737	0.166	-0.080
-492.537	-17.108	-0.185	0.116
-491.522	-48.352	-0.263	0.126
-490.508	-29.393	0.309	0.176
-489.493	-159.508	0.322	-0.018
-488.478	-138.766	-0.066	-0.007
-487.464	-18.165	-0.106	-0.066
-486.449	-10.539	-0.097	0.064
-485.435	107.405	0.261	0.309
-484.420	-6.650	-0.158	0.107
-483.405	800.000	-0.025	0.102
-482.391	651.996	-0.060	-0.152
-481.376	-112.097	-0.275	0.055
-480.362	354.476	-0.132	-0.261
-479.347	1.371	0.137	-0.098
-478.332	90.007	0.215	-0.238
-477.318	-200.000	-0.208	-0.001
-476.303	525.747	-0.090	0.212
-475.289	-81.659	0.214	-0.070
-474.274	-92.010	-0.211	-0.059
-473.259	-80.415	-0.206	-0.068
-472.245	690.168	0.152	-0.394
-471.230	693.234	0.053	0.137
-470.216	462.086	0.077	-0.170
-469.201	-200.000	-0.032	0.185
-468.186	423.092	-0.173	-0.368
-467.172	-200.000	0.014	0.167
-466.157	279.396	-0.091	-0.161
-465.143	-200.000	0.014	-0.090
-464.128	273.495	0.199	0.348
-463.113	172.343	0.302	-0.432
-462.099	-8.677	0.291	0.194
-461.084	0.121	-0.014	0.010
-460.070	800.000	0.080	0.339
-459.055	238.591	0.061	-0.100
-458.040	-200.000	0.032	0.152
-457.026	498.178	0.075	-0.171
-456.011	34.815	0.257	-0.223
-454.997	3.506	0.329	0.238
-453.982	42.924	0.246	0.223
-452.968	-200.000	0.046	0.540
-451.953	-101.749	0.243	-0.058
-450.938	800.000	0.122	0.370
-449.924	-200.000	-0.054	-0.368
-448.909	-75.660	-0.178	-0.063
-447.895	-135.732	-0.149	0.017
-446.880	241.865	0.219	0.362
-445.865	519.732	0.094	0.219
-444.851	8.386	-0.170	-0.127
-443.836	328.434	-0.135	0.257
-442.822	-200.000	-0.028	-0.235
-441.807	-200.000	0.008	0.064
-440.792	446.736	-0.056	-0.121
-439.778	-44.443	0.132	0.066
-438.763	249.212	-0.128	0.215
-437.749	800.000	-0.121	0.351
-436.734	458.412	-0.036	0.080
-435.719	-200.000	-0.005	0.147
-434.705	125.094	0.087	0.109
-433.690	-114.039	-0.186	0.036
-432.676	-200.000	0.060	0.315
-431.661	115.330	0.022	0.026
-430.646	-130.296	0.072	-0.010
-429.632	-166.717	-0.200	-0.008
-428.617	578.443	0.088	0.214
-427.603	393.267	0.085	0.174
-426.588	-70.584	0.146	0.055
-425.573	-37.105	-0.044	0.024
-424.559	185.320	-0.103	0.152
-423.544	-94.816	-0.055	-0.015
-422.530	-105.063	0.354	-0.080
-421.515	-21.402	-0.197	-0.119
-420.500	-36.525	-0.430	-0.229
-419.486	424.717	-0.188	0.402
-418.471	46.743	0.169	0.155
-417.457	147.896	0.020	-0.027
-416.442	800.000	0.084	0.312
-415.428	-9.359	-0.091	0.060
-414.413	121.372	0.095	-0.118
-413.398	218.221	-0.163	0.258
-412.384	-100.768	-0.171	-0.042
-411.369	-28.156	-0.092	0.053
-410.355	-80.905	-0.149	0.049
-409.340	-81.362	0.051	-0.017
-408.325	800.000	0.089	-0.359
-407.311	-123.015	-0.219	0.035
-406.296	51.540	-0.065	0.061
-405.282	-200.000	0.052	0.523
-404.267	-103.010	0.182	0.043
-403.252	288.904	-0.088	0.158
-402.238	-14.968	0.107	0.068
-401.223	-36.410	-0.284	-0.152
-400.209	72.976	-0.152	0.157
-399.194	-200.000	-0.006	0.156
-398.179	650.643	-0.034	-0.086
-397.165	291.056	-0.092	-0.166
-396.150	-56.410	-0.228	-0.100
-395.136	-18.687	-0.358	0.221
-394.121	14.863	0.088	0.069
-393.106	151.859	0.097	-0.131
-392.092	601.215	-0.108	-0.267
-391.077	93.796	-0.228	0.256
-390.063	-9.434	-0.067	0.044
-389.048	-42.828	0.138	0.069
-388.033	137.283	-0.024	-0.032
-387.019	-200.000	-0.008	-0.063
-386.004	-182.341	0.444	0.008
-384.990	254.533	-0.082	-0.139
-383.975	800.000	0.045	0.191
-382.960	-70.338	0.448	-0.168
-381.946	668.848	0.114	0.291
-380.931	671.105	-0.015	-0.039
-379.917	-82.873	-0.424	-0.135
-378.902	-21.476	-0.198	-0.119
-377.888	-27.289	-0.167	-0.096
-376.873	-97.446	-0.040	-0.010
-375.858	-99.818	0.204	0.051
-374.844	800.000	0.072	0.311
-373.829	257.318	0.146	0.249
-372.815	262.786	-0.193	0.332
-371.800	-10.969	0.254	0.166
-370.785	-51.899	0.177	-0.082
-369.771	-200.000	0.009	0.202
-368.756	-200.000	0.040	-0.282
-367.742	27.067	0.263	-0.218
-366.727	-200.000	-0.016	-0.189
-365.712	624.461	-0.081	0.202
-364.698	-66.896	-0.231	0.090
-363.683	-22.694	-0.257	-0.153
-362.669	-90.095	-0.098	0.028
-361.654	-166.581	-0.245	-0.010
-360.639	394.993	-0.053	-0.110
-359.625	-1.019	-0.180	-0.126
-358.610	-63.387	0.179	0.073
-357.596	529.864	0.046	0.106
-356.581	-93.420	0.388	-0.106
-355.566	-101.157	0.232	-0.056
-354.552	16.564	-0.181	0.142
-353.537	79.845	0.059	-0.062
-352.523	140.468	0.175	-0.229
-351.508	-200.000	0.038	-0.184
-350.493	-200.000	-0.058	0.281
-349.479	800.000	-0.099	0.405
-348.464	201.663	-0.007	-0.011
-347.450	-200.000	-0.040	-0.188
-346.435	800.000	-0.024	0.075
-345.420	-200.000	0.026	-0.177
-344.406	-186.414	-0.170	-0.002
-343.391	84.004	-0.104	-0.112
-342.377	-108.358	0.335	-0.071
-341.362	-149.962	0.227	-0.017
-340.348	800.000	-0.060	-0.205
-339.333	800.000	-0.072	-0.203
-338.318	216.273	-0.046	-0.072
-337.304	97.460	0.020	-0.023
-336.289	800.000	-0.043	0.182
-335.275	-57.627	-0.104	-0.045
-334.260	-167.976	-0.110	0.004
-333.245	-132.852	-0.303	0.038
-332.231	-73.241	0.124	-0.045
-331.216	216.144	-0.151	-0.236
-330.202	-66.120	0.064	-0.025
-329.187	-200.000	0.012	0.151
-328.172	-132.142	0.327	-0.042
-327.158	800.000	-0.044	-0.147
-326.143	-96.419	-0.040	0.010
-325.129	175.575	-0.091	-0.130
-324.114	494.329	-0.108	-0.244
-323.099	-140.899	-0.394	0.040
-322.085	-103.526	-0.277	-0.064
-321.070	-30.815	0.072	-0.040
-320.056	-134.737	-0.215	0.026
-319.041	-200.000	0.029	-0.290
-318.026	-200.000	-0.003	-0.064
-317.012	183.843	-0.106	-0.154
-315.997	-140.318	0.167	-0.017
-314.983	97.375	-0.140	0.158
-313.968	-48.397	-0.104	-0.050
-312.953	256.260	0.087	-0.147
-311.939	800.000	0.052	-0.204
-310.924	-200.000	0.010	-0.055
-309.910	-114.288	0.290	0.055
-308.895	-200.000	0.017	-0.148
-307.880	19.105	-0.006	0.005
-306.866	355.167	0.044	-0.085
-305.851	-86.297	0.032	-0.010
-304.837	230.448	-0.096	-0.155
-303.822	-200.000	-0.019	0.215
-302.807	409.616	0.012	0.024
-301.793	800.000	-0.015	0.063
-300.778	272.791	0.051	-0.089
-299.764	-104.128	0.184	0.042
-298.749	-153.221	-0.488	-0.034
-297.735	191.122	0.067	0.099
-296.720	271.442	-0.159	0.277
-295.705	-200.000	-0.010	0.099
-294.691	-200.000	-0.016	-0.112
-293.676	-77.663	0.240	-0.082
-292.662	-200.000	0.019	-0.156
-291.647	-58.235	-0.153	-0.066
-290.632	800.000	-0.053	-0.161
-289.618	0.441	-0.106	0.075
-288.603	179.001	0.135	0.195
-287.589	800.000	0.009	0.037
-286.574	-17.755	0.210	-0.130
-285.559	17.187	-0.191	-0.149
-284.545	-78.715	0.419	-0.141
-283.530	-87.630	0.354	0.105
-282.516	-161.112	-0.305	-0.016
-281.501	800.000	-0.056	0.171
-280.486	86.974	0.230	0.250
-279.472	-118.238	0.106	-0.019
-278.457	800.000	0.042	0.125
-277.443	199.880	-0.060	0.090
-276.428	111.510	-0.322	0.383
-275.413	-200.000	0.019	-0.290
-274.399	-21.403	0.307	-0.185
-273.384	168.818	0.104	0.146
-272.370	703.297	-0.064	0.167
-271.355	55.187	0.083	-0.079
-270.340	-102.859	0.107	0.025
-269.326	655.097	0.030	0.076
-268.311	-200.000	-0.012	-0.238
-267.297	-56.266	0.260	-0.114
-266.282	-73.243	0.191	-0.069
-265.267	-127.428	0.144	-0.021
-264.253	-56.242	0.233	0.102
-263.238	-120.864	-0.287	-0.048
-262.224	162.665	0.069	0.095
-261.209	-159.675	-0.332	0.018
-260.195	585.524	-0.008	0.020
-259.180	-70.864	0.197	0.073
-258.165	-99.620	-0.221	0.055
-257.151	28.847	-0.091	0.076
-256.136	195.752	-0.165	-0.248
-255.122	-126.148	-0.181	0.027
-254.107	155.560	0.295	-0.400
-253.092	-67.884	-0.281	0.108
-252.078	371.712	-0.102	0.203
-251.063	-200.000	-0.009	-0.144
-250.049	320.552	-0.163	-0.305
-249.034	-48.471	-0.081	0.039
-248.019	-68.460	0.368	-0.140
-247.005	211.316	0.134	-0.207
-245.990	252.035	0.116	-0.195
-244.976	800.000	0.045	-0.147
-243.961	68.693	-0.244	-0.246
-242.946	-127.943	-0.592	-0.084
-241.932	165.632	-0.133	-0.185
-240.917	-62.936	0.220	-0.090
-239.903	-8.632	-0.182	-0.120
-238.888	741.612	-0.109	0.288
-237.873	82.645	-0.076	-0.082
-236.859	-200.000	-0.025	0.160
-235.844	36.039	-0.054	0.047
-234.830	800.000	-0.046	-0.145
-233.815	39.485	-0.086	0.076
-232.800	-200.000	-0.025	0.112
-231.786	-37.863	0.133	-0.070
-230.771	300.127	0.061	0.110
-229.757	-9.874	-0.168	0.110
-228.742	0.069	0.288	0.202
-227.727	-32.087	-0.216	-0.119
-226.713	-2.491	-0.324	-0.223
-225.698	-29.146	0.343	-0.193
-224.684	57.063	-0.173	-0.166
-223.669	-197.882	0.176	0.001
-222.655	-87.232	-0.184	0.055
-221.640	800.000	0.076	-0.264
-220.625	800.000	0.074	-0.225
-219.611	448.055	0.062	-0.134
-218.596	28.866	0.307	0.256
-217.582	11.843	-0.248	0.187
-216.567	800.000	-0.118	0.442
-215.552	290.559	-0.174	-0.310
-214.538	341.250	-0.039	-0.075
-213.523	65.419	-0.043	-0.043
-212.509	-17.417	0.186	0.115
-211.494	-107.769	-0.046	-0.010
-210.479	119.621	-0.041	0.049
-209.465	-9.656	-0.192	0.126
-208.450	406.536	0.201	0.416
-207.436	-200.000	-0.024	0.238
-206.421	-100.879	0.194	-0.047
-205.406	61.435	0.016	-0.016
-204.392	-73.675	-0.108	-0.039
-203.377	-147.479	-0.096	0.008
-202.363	-73.178	-0.370	0.133
-201.348	-61.856	0.076	-0.031
-200.333	-69.120	-0.211	-0.080
-199.319	-152.684	-0.197	-0.014
-198.304	616.074	0.025	0.061
-197.290	-200.000	-0.031	0.254
-196.275	207.276	0.054	0.083
-195.260	-148.082	-0.270	0.022
-194.246	800.000	-0.084	-0.241
-193.231	-131.527	0.069	0.009
-192.217	-38.401	0.185	0.096
-191.202	-84.283	0.243	0.075
-190.187	304.562	0.172	-0.314
-189.173	120.841	0.079	0.097
-188.158	9.159	0.208	-0.155
-187.144	800.000	-0.067	0.232
-186.129	-55.392	-0.117	0.052
-185.114	-129.838	0.134	0.018
-184.100	800.000	-0.073	-0.300
-183.085	-200.000	-0.015	0.170
-182.071	-200.000	-0.033	0.199
-181.056	-131.797	0.325	-0.042
-180.042	104.027	0.157	0.182
-179.027	-124.975	0.459	0.069
-178.012	-200.000	0.056	-0.402
-176.998	276.690	0.185	-0.323
-175.983	-200.000	-0.056	0.247
-174.969	-173.852	-0.061	-0.002
-173.954	-200.000	-0.004	0.310
-172.939	-60.398	-0.323	0.135
-171.925	691.882	0.126	-0.325
-170.910	-22.165	0.147	0.088
-169.896	-141.177	0.280	0.028
-168.881	332.627	-0.105	0.199
-167.866	800.000	-0.076	0.259
-166.852	167.503	-0.057	-0.079
-165.837	0.011	-0.059	-0.041
-164.823	582.358	-0.048	-0.117
-163.808	-200.000	0.001	-0.141
-162.793	-66.340	0.152	0.059
-161.779	800.000	0.157	-0.445
-160.764	362.120	0.070	0.138
-159.750	-147.067	0.400	-0.034
-158.735	22.778	-0.073	0.059
-157.720	-52.715	0.480	-0.217
-156.706	-160.345	-0.090	-0.005
-155.691	-20.749	-0.207	0.125
-154.677	32.213	0.216	0.182
-153.662	31.662	0.178	0.150
-152.647	-200.000	0.010	-0.193
-151.633	-167.611	0.187	-0.007
-150.618	-51.252	0.428	0.196
-149.604	-18.395	-0.398	-0.244
-148.589	800.000	-0.084	0.318
-147.574	-192.819	0.404	-0.004
-146.560	125.970	0.153	-0.189
-145.545	-117.381	0.320	0.057
-144.531	-200.000	0.040	0.377
-143.516	130.907	-0.131	0.165
-142.502	278.509	-0.122	-0.212
-141.487	405.846	0.056	0.116
-140.472	10.231	-0.106	0.079
-139.458	129.252	0.132	0.165
-138.443	247.559	0.142	0.236
-137.429	5.476	0.074	0.054
-136.414	-163.443	-0.277	0.013
-135.399	157.311	-0.052	0.070
-134.385	32.892	0.087	0.074
-133.370	96.630	0.040	-0.045
-132.356	-124.070	0.193	0.030
-131.341	-34.359	0.068	0.037
-130.326	800.000	-0.079	0.239
-129.312	145.822	0.148	0.195
-128.297	-127.312	0.155	-0.022
-127.283	-11.081	0.277	-0.179
-126.268	-17.033	0.245	0.152
-125.253	-121.148	0.455	-0.075
-124.239	800.000	0.045	-0.163
-123.224	-86.974	0.308	-0.092
-122.210	-34.148	-0.104	-0.056
-121.195	331.101	0.202	0.380
-120.180	-74.481	0.231	0.082
-119.166	-115.492	0.327	0.060
-118.151	-97.493	-0.313	-0.080
-117.137	-200.000	-0.003	-0.146
-116.122	-77.994	0.571	-0.193
-115.107	800.000	-0.025	-0.076
-114.093	-31.064	0.191	0.106
-113.078	-200.000	-0.010	0.211
-112.064	186.687	0.268	-0.390
-111.049	43.536	0.136	-0.121
-110.034	-76.078	0.277	-0.096
-109.020	-171.433	-0.131	0.004
-108.005	-89.529	0.290	-0.083
-106.991	-80.348	0.291	0.095
-105.976	800.000	-0.057	-0.174
-104.962	-79.664	0.192	0.063
-103.947	145.595	-0.059	-0.077
-102.932	800.000	0.009	-0.033
-101.918	-200.000	0.029	0.198
-100.903	180.010	0.034	0.049
-99.889	-70.259	-0.340	0.126
-98.874	137.436	-0.102	0.131
-97.859	520.372	0.078	0.179
-96.845	800.000	-0.102	-0.376
-95.830	-98.957	0.079	-0.020
-94.816	-18.722	0.319	-0.195
-93.801	377.201	-0.173	-0.345
-92.786	534.635	-0.134	0.311
-91.772	535.878	-0.235	0.545
-90.757	-181.243	0.255	-0.005
-89.743	-14.415	0.388	0.244
-88.728	-36.237	0.188	-0.099
-87.713	192.399	-0.089	0.132
-86.699	-88.750	0.389	-0.113
-85.684	-200.000	0.053	0.311
-84.670	-39.478	-0.150	-0.077
-83.655	-19.123	0.300	0.182
-82.640	-144.115	-0.116	0.011
-81.626	-75.575	-0.129	0.045
-80.611	-65.944	0.344	0.135
-79.597	-35.966	-0.163	-0.086
-78.582	-199.922	0.251	-0.001
-77.567	-71.560	-0.286	-0.105
-76.553	-30.744	0.154	0.085
-75.538	483.124	-0.076	-0.170
-74.524	-200.000	0.058	0.263
-73.509	-10.452	0.376	0.244
-72.494	-34.997	0.182	0.097
-71.480	676.747	0.069	0.174
-70.465	34.641	0.126	-0.108
-69.451	-43.545	-0.118	-0.058
-68.436	44.309	0.150	-0.134
-67.422	-65.965	0.044	-0.017
-66.407	-74.116	0.192	0.068
-65.392	800.000	-0.053	-0.168
-64.378	637.846	-0.059	-0.148
-63.363	-82.387	0.248	-0.079
-62.349	-200.000	-0.034	0.334
-61.334	42.722	-1.069	-0.951
-60.319	-2.107	0.767	0.527
-59.305	362.306	-0.464	-0.910
-58.290	800.000	0.557	1.586
-57.276	781.153	0.594	1.590
-56.261	-200.000	117.161	646.364
-55.246	496.262	1549.444	3480.415
-54.232	172.750	2730.806	3841.628
-53.217	98.493	2303.775	2594.654
-52.203	35.410	1908.605	1636.019
-51.188	29.494	1699.906	1411.972
-50.173	27.047	1659.154	1359.772
-49.159	47.582	1716.566	1563.815
-48.144	46.057	1729.712	1564.129
-47.130	28.902	1687.155	1396.669
-46.115	26.317	1672.909	1365.314
-45.100	26.180	1667.861	1360.113
-44.086	26.211	1665.509	1358.371
-43.071	26.211	1662.184	1355.608
-42.057	26.126	1660.371	1353.437
-41.042	26.153	1658.094	1351.731
-40.027	26.169	1655.767	1349.902
-39.013	26.157	1653.967	1348.287
-37.998	26.079	1652.158	1346.177
-36.984	26.084	1651.637	1345.738
-35.969	26.297	1649.879	1345.840
-34.954	26.326	1648.449	1344.832
-33.940	26.278	1646.256	1342.633
-32.925	26.265	1644.811	1341.303
-31.911	26.278	1643.316	1340.132
-30.896	26.255	1641.266	1338.238
-29.881	26.333	1639.600	1337.404
-28.867	26.271	1637.976	1335.565
-27.852	26.337	1636.631	1334.900
-26.838	26.287	1635.310	1333.400
-25.823	26.342	1634.009	1332.697
-24.809	26.366	1632.240	1331.378
-23.794	26.403	1630.540	1330.209
-22.779	26.339	1629.245	1328.627
-21.765	26.321	1627.731	1327.207
-20.750	26.366	1626.409	1326.407
-19.736	26.297	1625.240	1324.897
-18.721	26.353	1623.750	1324.037
-17.706	26.391	1622.233	1323.029
-16.692	26.328	1620.536	1321.130
-15.677	26.263	1619.761	1319.972
-14.663	26.296	1617.872	1318.623
-13.648	26.380	1616.340	1317.930
-12.633	26.281	1614.661	1315.790
-11.619	26.303	1613.193	1314.700
-10.604	26.375	1611.903	1314.120
-9.590	26.366	1610.219	1312.629
-8.575	26.317	1609.100	1311.315
-7.560	26.343	1607.921	1310.487
-6.546	26.324	1606.591	1309.216
-5.531	26.330	1605.732	1308.507
-4.517	26.333	1604.026	1307.083
-3.502	26.327	1603.348	1306.439
-2.487	26.504	1601.279	1305.979
-1.473	26.163	1589.481	1293.860
-0.458	23.451	1570.918	1259.463
0.556	21.172	1572.837	1230.947
1.571	19.162	1597.657	1235.851
2.586	18.687	1610.823	1242.485
3.600	16.486	1554.640	1183.648
4.615	9.629	1446.914	1056.711
5.629	4.382	1388.318	980.741
6.644	3.583	1380.550	970.152
7.659	3.412	1379.727	968.410
8.673	3.415	1379.063	967.878
9.688	3.469	1376.824	966.561
10.702	3.470	1373.931	964.450
11.717	5.915	1379.098	983.322
12.731	13.120	1392.180	1037.993
13.746	18.994	1401.272	1081.734
14.761	20.156	1402.354	1089.781
15.775	19.642	1400.043	1084.658
16.790	18.627	1397.198	1076.001
17.804	17.888	1395.136	1069.687
18.819	17.366	1394.128	1065.549
19.834	17.219	1393.476	1064.038
20.848	17.120	1391.534	1061.843
21.863	16.920	1390.425	1059.649
22.877	16.805	1389.385	1058.044
23.892	16.717	1388.829	1056.979
24.907	16.733	1387.940	1056.310
25.921	16.702	1387.076	1055.363
26.936	16.750	1385.877	1054.660
27.950	16.765	1384.879	1053.896
28.965	16.765	1384.506	1053.523
29.980	16.845	1383.079	1052.838
30.994	16.863	1381.943	1051.996
32.009	16.971	1381.288	1052.074
33.023	17.052	1379.683	1051.257
34.038	16.963	1377.926	1049.278
35.053	16.930	1376.801	1048.123
36.067	16.850	1376.039	1046.957
37.082	16.913	1375.056	1046.501
38.096	16.954	1373.943	1045.814
39.111	16.950	1373.188	1045.122
40.126	16.798	1371.899	1043.116
41.140	16.700	1371.011	1041.744
42.155	16.581	1370.795	1040.755
43.169	16.589	1370.222	1040.281
44.184	16.582	1369.780	1039.810
45.199	16.624	1369.069	1039.431
46.213	16.649	1369.112	1039.531
47.228	16.875	1367.897	1039.900
48.242	16.791	1366.746	1038.421
49.257	16.877	1365.319	1037.769
50.271	16.846	1363.682	1036.242
51.286	16.860	1362.978	1035.703
52.301	16.840	1361.400	1034.287
53.315	16.619	1360.943	1032.504
54.330	16.624	1359.495	1031.340
55.344	16.653	1357.604	1029.995
56.359	16.657	1356.891	1029.386
57.374	16.628	1356.120	1028.535
58.388	16.469	1355.491	1027.002
59.403	16.487	1354.956	1026.613
60.417	16.446	1354.098	1025.626
61.432	16.465	1353.369	1025.096
62.447	16.359	1352.290	1023.547
63.461	16.353	1351.227	1022.616
64.476	16.448	1349.304	1021.640
65.490	16.443	1348.499	1020.910
66.505	16.512	1346.663	1019.850
67.520	16.381	1346.364	1018.744
68.534	16.487	1345.201	1018.408
69.549	16.436	1343.845	1016.985
70.563	16.336	1342.792	1015.497
71.578	16.327	1341.378	1014.286
72.593	16.223	1340.931	1013.230
73.607	16.233	1339.930	1012.448
74.622	16.216	1339.004	1011.557
75.636	16.336	1337.885	1011.339
76.651	16.283	1337.418	1010.580
77.666	16.341	1336.863	1010.418
78.680	16.332	1336.779	1010.210
79.695	16.411	1335.641	1009.734
80.709	16.442	1335.133	1009.447
81.724	16.549	1334.394	1009.438
82.739	16.604	1333.634	1009.101
83.753	16.621	1333.200	1008.783
84.768	16.814	1331.454	1008.520
85.782	16.887	1330.635	1008.250
86.797	16.835	1329.220	1006.780
87.812	16.719	1328.086	1005.137
88.826	16.666	1327.195	1004.063
89.841	16.795	1325.998	1003.831
90.855	16.778	1324.815	1002.746
91.870	16.884	1323.775	1002.496
92.884	16.936	1323.046	1002.166
93.899	16.867	1322.462	1001.226
94.914	16.981	1321.666	1001.206
95.928	17.042	1320.542	1000.629
96.943	16.950	1319.831	999.456
97.957	16.886	1319.179	998.498
98.972	16.831	1318.208	997.351
99.987	16.880	1316.864	996.533
101.001	16.938	1316.071	996.188
102.016	16.970	1314.435	995.046
103.030	16.880	1314.135	994.204
104.045	16.918	1312.986	993.469
105.060	16.749	1311.423	991.211
106.074	16.664	1310.125	989.646
107.089	16.533	1308.167	987.317
108.103	16.424	1307.277	985.921
109.118	16.513	1306.019	985.400
110.133	16.443	1304.351	983.650
111.147	16.447	1303.708	983.100
112.162	16.474	1302.358	982.155
113.176	16.606	1301.183	981.948
114.191	16.559	1300.479	981.056
115.206	16.553	1299.459	980.162
116.220	16.592	1297.809	979.056
117.235	16.556	1296.514	977.788
118.249	16.514	1295.859	976.966
119.264	16.426	1294.787	975.559
120.279	16.425	1293.895	974.797
121.293	16.456	1293.051	974.254
122.308	16.449	1291.757	973.153
123.322	16.411	1290.614	971.989
124.337	16.325	1289.217	970.355
125.352	16.369	1288.049	969.644
126.366	16.353	1287.313	968.908
127.381	16.297	1286.433	967.844
128.395	16.293	1285.221	966.819
129.410	16.400	1284.036	966.457
130.424	16.412	1283.253	965.849
131.439	16.545	1282.100	965.658
132.454	16.573	1281.543	965.308
133.468	16.588	1280.901	964.829
134.483	16.512	1280.192	963.775
135.497	16.565	1279.340	963.349
136.512	16.604	1277.492	962.094
137.527	16.587	1276.408	961.096
138.541	16.618	1275.344	960.389
139.556	16.667	1273.577	959.246
140.570	16.723	1273.296	959.269
141.585	16.833	1271.357	958.348
142.600	16.875	1270.684	957.992
143.614	16.960	1269.724	957.661
144.629	17.026	1268.657	957.147
145.643	16.894	1268.025	955.840
146.658	16.866	1266.301	954.295
147.673	16.769	1264.706	952.466
148.687	16.715	1263.657	951.288
149.702	16.634	1262.596	949.952
150.716	16.743	1260.979	949.263
151.731	16.597	1259.846	947.505
152.746	16.605	1258.687	946.595
153.760	16.702	1257.926	946.484
154.775	16.851	1256.184	945.918
155.789	16.820	1255.876	945.429
156.804	16.938	1254.193	944.736
157.819	16.885	1253.415	943.774
158.833	16.994	1252.654	943.721
159.848	17.025	1252.007	943.322
160.862	17.054	1251.164	942.765
161.877	16.892	1249.407	940.459
162.892	16.700	1248.574	938.686
163.906	16.739	1247.775	938.220
164.921	16.716	1246.691	937.195
165.935	16.812	1245.753	936.938
166.950	16.907	1245.307	937.044
167.964	16.920	1244.160	936.170
168.979	16.769	1243.488	934.745
169.994	16.850	1242.875	934.649
171.008	16.944	1241.878	934.333
172.023	16.970	1241.515	934.125
173.037	17.135	1240.625	934.277
174.052	17.012	1239.795	932.896
175.067	16.870	1238.301	930.908
176.081	16.881	1237.206	930.064
177.096	16.795	1236.973	929.336
178.110	16.815	1235.154	927.996
179.125	16.866	1233.881	927.233
180.140	16.912	1232.515	926.379
181.154	17.021	1231.540	926.159
182.169	17.020	1231.040	925.694
183.183	17.100	1229.819	925.132
184.198	17.129	1228.504	924.218
185.213	17.181	1227.225	923.457
186.227	17.177	1226.015	922.443
187.242	17.217	1224.719	921.604
188.256	17.212	1224.483	921.318
189.271	17.365	1223.275	921.153
190.286	17.112	1222.188	918.886
191.300	16.794	1221.514	916.577
192.315	16.720	1220.786	915.551
193.329	16.849	1220.052	915.612
194.344	17.002	1219.224	915.736
195.359	16.997	1218.625	915.182
196.373	17.086	1218.264	915.307
197.388	17.086	1218.207	915.184
198.402	17.363	1217.599	916.137
199.417	17.438	1216.777	915.841
200.432	17.426	1216.277	915.321
201.446	17.489	1215.338	914.872
202.461	17.634	1214.440	914.894
203.475	17.499	1213.636	913.484
204.490	17.508	1211.772	912.046
205.504	17.364	1210.739	910.419
206.519	17.401	1209.191	909.374
207.534	17.264	1208.487	908.031
208.548	17.399	1207.688	908.068
209.563	17.404	1206.861	907.396
210.577	17.391	1205.526	906.240
211.592	17.434	1204.900	905.921
212.607	17.642	1204.276	906.474
213.621	17.593	1203.485	905.540
214.636	17.522	1202.277	904.174
215.650	17.444	1201.619	903.184
216.665	17.585	1200.539	903.040
217.680	17.671	1199.425	902.577
218.694	17.763	1198.459	902.258
219.709	17.613	1198.217	901.203
220.723	17.661	1197.216	900.627
221.738	17.623	1196.796	900.027
222.753	17.660	1195.634	899.270
223.767	17.623	1195.213	898.678
224.782	17.779	1194.525	898.903
225.796	17.937	1193.811	899.121
226.811	17.809	1193.059	897.800
227.826	17.711	1192.138	896.511
228.840	17.636	1191.505	895.563
229.855	17.622	1190.790	894.873
230.869	17.689	1189.531	894.196
231.884	17.591	1188.821	893.071
232.899	17.602	1188.157	892.552
233.913	17.488	1187.189	891.151
234.928	17.564	1186.681	891.085
235.942	17.511	1185.937	890.171
236.957	17.516	1185.132	889.516
237.972	17.628	1184.402	889.471
238.986	17.580	1183.811	888.702
240.001	17.634	1182.782	888.132
241.015	17.673	1182.009	887.677
242.030	17.592	1181.678	886.924
243.045	17.695	1181.031	886.898
244.059	17.688	1180.294	886.227
245.074	17.820	1178.904	885.791
246.088	17.879	1178.176	885.473
247.103	17.931	1177.426	885.101
248.117	17.954	1177.307	885.052
249.132	18.085	1176.175	884.800
250.147	18.293	1175.619	885.381
251.161	18.347	1175.262	885.311
252.176	18.281	1174.541	884.349
253.190	18.302	1173.872	883.877
254.205	18.418	1173.131	883.839
255.220	18.448	1172.663	883.560
256.234	18.420	1171.840	882.719
257.249	18.421	1171.180	882.152
258.263	18.443	1170.693	881.819
259.278	18.460	1169.798	881.154
260.293	18.443	1169.472	880.744
261.307	18.463	1168.693	880.182
262.322	18.494	1168.137	879.844
263.336	18.579	1166.993	879.341
264.351	18.546	1166.744	878.906
265.366	18.554	1166.201	878.458
266.380	18.556	1165.507	877.869
267.395	18.477	1164.532	876.651
268.409	18.333	1163.911	875.370
269.424	18.391	1163.215	875.066
270.439	18.364	1162.938	874.645
271.453	18.373	1161.554	873.568
272.468	18.424	1160.222	872.751
273.482	18.377	1159.471	871.871
274.497	18.380	1159.113	871.537
275.512	18.345	1158.632	870.920
276.526	18.461	1157.430	870.532
277.541	18.446	1157.096	870.126
278.555	18.513	1156.259	869.757
279.570	18.640	1155.673	869.885
280.585	18.687	1154.961	869.510
281.599	18.716	1153.872	868.760
282.614	18.630	1152.890	867.509
283.628	18.466	1152.101	866.013
284.643	18.557	1150.955	865.531
285.657	18.444	1150.332	864.420
286.672	18.706	1148.779	864.492
287.687	18.613	1148.275	863.570
288.701	18.649	1147.605	863.169
289.716	18.579	1146.808	862.143
290.730	18.571	1146.249	861.606
291.745	18.710	1145.317	861.526
292.760	18.748	1144.515	861.039
293.774	18.675	1144.400	860.507
294.789	18.824	1143.671	860.631
295.803	18.834	1142.832	859.973
296.818	18.717	1142.381	858.975
297.833	18.696	1141.381	858.038
298.847	18.753	1140.630	857.685
299.862	18.664	1140.186	856.829
300.876	18.792	1139.019	856.516
301.891	18.925	1138.548	856.750
302.906	19.030	1137.908	856.715
303.920	19.084	1137.258	856.417
304.935	18.970	1137.124	855.676
305.949	19.070	1136.375	855.531
306.964	19.069	1135.792	855.011
307.979	18.999	1134.701	853.770
308.993	19.118	1133.460	853.346
310.008	19.033	1132.790	852.346
311.022	19.139	1132.125	852.298
312.037	19.153	1131.191	851.585
313.052	19.010	1130.237	850.085
314.066	18.890	1129.226	848.661
315.081	18.792	1128.669	847.679
316.095	18.878	1127.538	847.181
317.110	18.793	1126.948	846.246
318.125	18.872	1126.257	846.037
319.139	18.927	1125.559	845.712
320.154	18.940	1125.001	845.278
321.168	18.850	1124.875	844.667
322.183	18.916	1123.871	844.162
323.197	18.958	1123.407	843.948
324.212	18.954	1122.644	843.278
325.227	19.016	1121.871	842.929
326.241	19.024	1121.414	842.547
327.256	18.893	1120.318	841.011
328.270	18.927	1119.308	840.343
329.285	18.843	1118.925	839.569
330.300	18.974	1117.364	838.967
331.314	18.989	1116.783	838.527
332.329	19.086	1115.535	837.987
333.343	19.084	1115.223	837.670
334.358	19.117	1114.147	836.948
335.373	19.178	1113.692	836.828
336.387	19.314	1112.715	836.680
337.402	19.146	1112.659	835.751
338.416	19.304	1111.436	835.522
339.431	19.294	1111.051	835.113
340.446	19.363	1110.035	834.607
341.460	19.524	1109.927	835.231
342.475	19.496	1109.018	834.340
343.489	19.443	1108.223	833.408
344.504	19.623	1107.002	833.285
345.519	19.561	1106.228	832.329
346.533	19.655	1105.448	832.126
347.548	19.655	1104.963	831.686
348.562	19.685	1103.775	830.861
349.577	19.491	1103.331	829.520
350.592	19.419	1102.161	828.221
351.606	19.460	1101.100	827.550
352.621	19.297	1100.676	826.376
353.635	19.407	1099.920	826.260
354.650	19.360	1099.602	825.723
355.665	19.333	1098.798	824.917
356.679	19.558	1097.867	825.224
357.694	19.382	1097.570	824.084
358.708	19.511	1096.993	824.192
359.723	19.635	1096.188	824.109
360.738	19.642	1095.325	823.423
361.752	19.553	1095.264	822.876
362.767	19.800	1094.114	823.114
363.781	19.656	1093.826	822.141
364.796	19.780	1093.310	822.271
365.810	19.732	1092.911	821.669
366.825	20.016	1092.050	822.298
367.840	19.893	1091.961	821.576
368.854	20.063	1091.356	821.855
369.869	19.938	1090.520	820.557
370.883	19.908	1089.466	819.550
371.898	19.853	1088.505	818.497
372.913	19.777	1088.355	817.950
373.927	19.880	1087.761	817.919
374.942	20.042	1086.845	817.922
375.956	19.885	1086.678	816.984
376.971	20.018	1085.913	816.963
377.986	20.030	1085.656	816.754
379.000	20.099	1084.904	816.440
380.015	20.102	1084.750	816.267
381.029	20.274	1083.625	816.159
382.044	20.260	1082.609	815.256
383.059	20.228	1082.065	814.621
384.073	20.107	1081.240	813.359
385.088	20.122	1080.694	812.949
386.102	20.258	1079.329	812.486
387.117	20.051	1078.787	811.039
388.132	20.003	1077.380	809.685
389.146	19.926	1077.166	809.092
390.161	20.023	1076.222	808.766
391.175	19.983	1075.283	807.801
392.190	20.132	1074.878	808.121
393.205	20.225	1073.959	807.789
394.219	20.112	1073.042	806.502
395.234	20.175	1071.908	805.874
396.248	20.014	1071.261	804.565
397.263	19.919	1070.632	803.583
398.278	20.007	1069.684	803.209
399.292	20.007	1068.615	802.333
400.307	19.842	1068.360	801.309
401.321	19.983	1067.716	801.407
402.336	19.970	1066.952	800.701
403.350	19.943	1065.918	799.730
404.365	19.908	1065.599	799.256
405.380	20.115	1064.709	799.473
406.394	20.194	1063.661	798.982
407.409	20.198	1063.206	798.586
408.423	20.289	1062.361	798.302
409.438	20.442	1061.944	798.620
410.453	20.453	1061.514	798.277
411.467	20.543	1060.673	797.987
412.482	20.510	1060.165	797.382
413.496	20.606	1059.271	797.081
414.511	20.574	1058.892	796.576
415.526	20.665	1058.537	796.658
416.540	20.657	1058.318	796.382
417.555	20.620	1057.190	795.295
418.569	20.587	1057.097	795.006
419.584	20.686	1056.119	794.652
420.599	20.724	1055.738	794.469
421.613	155.279	1404.563	1796.121
422.628	142.577	1455.345	1796.192
