DTS Sentinel unit serial number:	SN413079Multiplexer serial number:	ORYXHardware model number:	OX4-SRSoftware version number:	ORYX F/W v4.00 Oryx Data Collector v3.7.2.0data status	okinstallation	princeton_trtdifferential loss correction	single-endedforward channel	channel 2reverse channel	N/Adate	2019/09/13time	19:07:35forward acquisition time	60.00reverse acquisition time	0.00gamma	496.2192k internal	0.2328k external	0.2328temperature offset calibration	1.0170default loss term (dB/km)	0.3790temperature slope calibration	1.0000multiplexer offset coefficient	1.0000multiplexer slope coefficient	1.0000fibre end	0.00T internal ref (°C)	31.64T ext. ref 1 (°C)	3.87T ext. ref 2 (°C)	24.97length (m)	temperature (°C)	Stokes	anti-Stokes-747.200	8.596	0.216	0.164
-746.185	-130.832	-0.255	0.034
-745.171	-200.000	-0.036	0.433
-744.156	-122.158	-0.083	-0.014
-743.142	-156.217	0.311	-0.020
-742.127	12.682	0.183	-0.142
-741.112	-1.828	-0.104	-0.074
-740.098	112.035	0.297	0.362
-739.083	-44.658	-0.223	0.112
-738.069	-200.000	-0.033	0.345
-737.054	429.252	0.035	-0.076
-736.039	-63.868	-0.430	0.177
-735.025	8.934	-0.114	-0.087
-734.010	-179.092	0.301	-0.007
-732.996	-117.579	-0.256	0.047
-731.981	-88.132	-0.131	-0.039
-730.966	-89.299	-0.148	0.044
-729.952	-75.953	0.137	-0.049
-728.937	532.501	0.124	-0.295
-727.923	-63.032	-0.209	0.087
-726.908	-27.691	-0.144	0.084
-725.894	-50.469	-0.187	-0.089
-724.879	447.173	-0.039	-0.086
-723.864	264.026	-0.104	-0.183
-722.850	-96.796	0.216	-0.057
-721.835	-50.488	-0.175	0.083
-720.821	-111.981	0.036	-0.007
-719.806	378.644	-0.107	-0.220
-718.791	-200.000	-0.061	-0.365
-717.777	800.000	0.086	-0.347
-716.762	98.665	-0.249	0.289
-715.748	-200.000	0.004	-0.044
-714.733	390.797	-0.078	-0.163
-713.718	144.729	0.078	-0.105
-712.704	129.536	-0.181	-0.232
-711.689	-124.492	0.218	-0.034
-710.675	291.204	0.090	0.164
-709.660	6.505	0.157	0.117
-708.645	230.083	-0.160	-0.264
-707.631	-24.263	-0.091	-0.055
-706.616	0.509	-0.173	0.124
-705.602	253.028	-0.067	0.115
-704.587	-200.000	-0.083	-0.398
-703.572	800.000	0.015	-0.052
-702.558	448.411	0.083	0.183
-701.543	416.791	0.095	-0.204
-700.529	180.493	0.129	-0.191
-699.514	-92.444	-0.081	-0.023
-698.499	16.475	0.094	0.075
-697.485	274.642	-0.156	-0.279
-696.470	-43.862	-0.114	-0.058
-695.456	202.175	-0.069	0.106
-694.441	-19.932	-0.178	0.110
-693.426	-103.773	0.129	0.030
-692.412	423.754	0.033	-0.071
-691.397	-200.000	-0.003	0.144
-690.383	64.726	0.152	-0.154
-689.368	-100.865	-0.068	-0.017
-688.354	-59.386	-0.083	0.036
-687.339	-63.955	0.261	-0.107
-686.324	-200.000	-0.011	0.077
-685.310	800.000	-0.047	0.204
-684.295	800.000	0.104	-0.359
-683.281	36.960	-0.072	-0.064
-682.266	-24.052	0.053	0.032
-681.251	-132.554	-0.189	0.024
-680.237	80.961	0.036	0.039
-679.222	119.502	-0.116	-0.144
-678.208	-102.860	0.084	-0.020
-677.193	-31.823	0.230	-0.130
-676.178	-103.058	-0.171	0.041
-675.164	-53.460	-0.189	0.087
-674.149	30.672	-0.243	0.209
-673.135	-85.951	-0.349	0.108
-672.120	800.000	-0.079	-0.227
-671.105	-45.082	-0.613	-0.306
-670.091	-1.057	0.093	0.066
-669.076	-200.000	-0.037	-0.401
-668.062	149.025	0.211	-0.287
-667.047	-117.773	-0.081	0.015
-666.032	-200.000	-0.024	-0.115
-665.018	-127.924	-0.188	0.027
-664.003	-28.815	0.108	0.062
-662.989	223.598	-0.228	-0.369
-661.974	215.445	-0.063	-0.100
-660.959	104.607	0.151	-0.178
-659.945	196.140	-0.128	0.196
-658.930	9.683	-0.062	0.047
-657.916	275.300	0.101	-0.180
-656.901	-200.000	-0.000	-0.214
-655.886	328.143	0.055	0.105
-654.872	800.000	0.115	0.398
-653.857	155.885	-0.038	-0.053
-652.843	-116.129	0.139	0.026
-651.828	-200.000	0.009	-0.096
-650.814	-20.047	0.210	0.130
-649.799	-200.000	0.022	0.331
-648.784	-200.000	-0.057	0.302
-647.770	-24.374	-0.092	0.055
-646.755	173.904	0.217	-0.315
-645.741	-21.128	-0.374	-0.229
-644.726	-56.821	0.121	-0.054
-643.711	186.026	-0.096	-0.143
-642.697	-200.000	-0.012	-0.063
-641.682	55.367	0.027	-0.026
-640.668	-200.000	-0.021	-0.099
-639.653	800.000	-0.030	0.101
-638.638	-200.000	0.002	0.014
-637.624	-200.000	0.019	-0.115
-636.609	800.000	-0.098	-0.290
-635.595	160.952	0.230	0.323
-634.580	-57.174	-0.239	-0.106
-633.565	-15.754	-0.108	0.069
-632.551	-200.000	-0.015	-0.271
-631.536	-122.406	-0.060	-0.010
-630.522	800.000	-0.045	-0.166
-629.507	-38.687	-0.250	0.132
-628.492	-15.196	0.014	0.009
-627.478	41.614	-0.208	-0.189
-626.463	-91.607	-0.480	-0.137
-625.449	-94.417	0.146	-0.040
-624.434	281.533	0.171	0.307
-623.419	-134.212	0.079	-0.010
-622.405	-133.154	-0.264	-0.033
-621.390	193.218	-0.107	0.162
-620.376	38.398	-0.160	0.143
-619.361	-87.824	0.233	-0.070
-618.346	-33.357	-0.227	-0.126
-617.332	-162.189	0.373	0.019
-616.317	-73.306	0.342	-0.126
-615.303	48.775	-0.210	-0.197
-614.288	-111.970	-0.272	-0.055
-613.273	424.136	-0.039	0.084
-612.259	800.000	-0.063	0.209
-611.244	800.000	0.027	-0.092
-610.230	800.000	0.026	-0.072
-609.215	38.474	0.323	0.288
-608.201	68.282	-0.016	0.017
-607.186	218.573	-0.077	-0.124
-606.171	68.071	0.164	0.168
-605.157	-129.998	0.263	0.036
-604.142	125.666	-0.345	-0.437
-603.128	364.131	-0.078	0.158
-602.113	-37.634	-0.193	-0.103
-601.098	74.299	0.029	0.031
-600.084	-52.712	0.383	-0.177
-599.069	-160.005	0.093	0.005
-598.055	443.855	0.128	0.282
-597.040	-176.406	0.141	-0.004
-596.025	206.682	-0.109	0.171
-595.011	70.519	-0.182	0.189
-593.996	-147.405	-0.296	0.025
-592.982	-10.645	0.036	-0.024
-591.967	-200.000	-0.040	0.338
-590.952	205.668	-0.024	-0.037
-589.938	434.849	0.033	0.072
-588.923	113.513	-0.067	-0.082
-587.909	-2.418	0.198	0.139
-586.894	-17.325	0.160	-0.101
-585.879	29.494	0.098	0.084
-584.865	-58.152	-0.167	0.073
-583.850	800.000	-0.049	-0.169
-582.836	-24.118	-0.107	-0.064
-581.821	-18.561	-0.137	-0.086
-580.806	-200.000	-0.053	-0.279
-579.792	-31.117	0.171	0.096
-578.777	-200.000	0.015	0.105
-577.763	-80.962	-0.212	-0.070
-576.748	21.326	-0.065	-0.053
-575.733	-109.102	0.089	0.019
-574.719	22.178	-0.152	-0.124
-573.704	-134.228	-0.337	0.042
-572.690	-54.414	-0.071	-0.032
-571.675	-4.999	0.151	-0.104
-570.661	69.844	0.099	0.102
-569.646	547.849	-0.145	0.347
-568.631	-2.865	0.196	-0.137
-567.617	-57.562	0.188	-0.083
-566.602	64.056	0.265	-0.267
-565.588	733.446	0.041	-0.110
-564.573	373.576	0.068	0.139
-563.558	800.000	0.037	-0.110
-562.544	-89.699	-0.181	0.053
-561.529	800.000	0.014	-0.058
-560.515	137.873	-0.197	-0.258
-559.500	-200.000	-0.017	-0.171
-558.485	-106.239	-0.144	-0.032
-557.471	-200.000	-0.029	-0.253
-556.456	-9.816	0.048	-0.032
-555.442	-200.000	0.406	0.002
-554.427	800.000	-0.015	0.046
-553.412	-78.397	0.335	-0.115
-552.398	-200.000	-0.033	-0.235
-551.383	800.000	-0.058	-0.200
-550.369	-123.693	-0.207	0.033
-549.354	130.918	-0.026	0.034
-548.339	800.000	-0.069	0.240
-547.325	-200.000	0.025	0.293
-546.310	-200.000	-0.012	0.064
-545.296	-200.000	-0.036	0.243
-544.281	653.385	0.025	0.064
-543.266	-157.351	0.314	-0.019
-542.252	-49.482	-0.149	0.071
-541.237	144.503	-0.042	0.056
-540.223	-200.000	0.016	-0.125
-539.208	800.000	0.034	0.142
-538.193	-0.182	0.195	0.139
-537.179	230.144	0.115	-0.188
-536.164	208.347	0.217	-0.340
-535.150	800.000	0.109	-0.310
-534.135	800.000	-0.067	-0.261
-533.121	-52.947	0.201	0.092
-532.106	-64.094	0.293	-0.120
-531.091	124.222	0.129	0.162
-530.077	-120.758	-0.088	-0.015
-529.062	41.648	0.145	0.131
-528.048	195.467	-0.098	0.149
-527.033	-49.405	0.367	-0.175
-526.018	-200.000	0.013	0.236
-525.004	-70.013	0.200	0.076
-523.989	-110.332	-0.417	-0.087
-522.975	-200.000	-0.010	-0.213
-521.960	-113.029	-0.267	0.053
-520.945	-200.000	0.000	-0.155
-519.931	-158.735	0.113	-0.006
-518.916	-200.000	0.060	-0.286
-517.902	241.355	-0.320	-0.534
-516.887	-127.883	0.167	-0.024
-515.872	-93.619	0.241	-0.066
-514.858	147.033	-0.087	0.117
-513.843	-151.312	-0.267	0.020
-512.829	-23.420	-0.234	0.140
-511.814	800.000	0.033	0.122
-510.799	88.000	0.164	0.181
-509.785	-28.414	-0.162	-0.094
-508.770	-127.949	-0.085	-0.012
-507.756	-200.000	-0.026	0.147
-506.741	19.915	-0.174	0.140
-505.726	-170.678	-0.027	0.001
-504.712	49.244	0.120	-0.113
-503.697	-200.000	0.052	-0.292
-502.683	-44.081	-0.198	-0.099
-501.668	-200.000	0.015	0.143
-500.653	-113.636	0.103	-0.020
-499.639	-200.000	-0.043	0.282
-498.624	-200.000	-0.029	0.136
-497.610	-139.880	0.121	0.013
-496.595	-30.469	0.228	0.129
-495.581	-200.000	0.038	-0.380
-494.566	-200.000	0.025	-0.214
-493.551	-81.003	-0.447	-0.148
-492.537	-200.000	-0.015	0.256
-491.522	-200.000	0.046	0.237
-490.508	-200.000	0.018	0.092
-489.493	-27.455	0.147	0.085
-488.478	800.000	-0.099	-0.407
-487.464	800.000	0.019	0.055
-486.449	-200.000	-0.008	-0.218
-485.435	188.391	-0.232	0.347
-484.420	-111.517	0.331	0.067
-483.405	-185.977	-0.289	-0.004
-482.391	-61.536	-0.097	-0.040
-481.376	-200.000	-0.010	-0.186
-480.362	-84.161	-0.433	0.137
-479.347	146.628	0.092	-0.124
-478.332	800.000	0.010	0.040
-477.318	800.000	0.022	0.085
-476.303	360.788	0.185	0.370
-475.289	-200.000	0.027	-0.192
-474.274	-200.000	0.018	-0.090
-473.259	8.144	-0.057	-0.043
-472.245	-52.842	0.046	-0.021
-471.230	-200.000	0.040	0.345
-470.216	-13.940	-0.190	-0.122
-469.201	-18.284	0.268	-0.167
-468.186	-38.741	0.171	0.090
-467.172	-127.889	-0.287	0.041
-466.157	2.025	-0.170	-0.122
-465.143	99.588	0.297	-0.343
-464.128	-200.000	-0.006	-0.031
-463.113	276.685	-0.199	0.352
-462.099	-73.759	-0.220	-0.080
-461.084	13.426	0.120	0.093
-460.070	297.832	0.108	0.198
-459.055	-168.348	-0.227	-0.009
-458.040	1.657	0.150	0.108
-457.026	473.956	0.046	0.103
-456.011	-159.545	0.080	-0.004
-454.997	-134.799	0.289	-0.035
-453.982	-200.000	-0.003	0.276
-452.968	-131.365	0.227	-0.030
-451.953	70.854	0.080	-0.083
-450.938	-193.074	0.422	0.004
-449.924	800.000	0.055	-0.161
-448.909	-117.273	0.142	0.026
-447.895	153.198	-0.190	0.259
-446.880	121.098	-0.279	-0.346
-445.865	-65.064	-0.539	0.217
-444.851	-200.000	-0.018	0.113
-443.836	-34.100	-0.213	0.116
-442.822	-135.299	-0.033	-0.004
-441.807	284.883	0.043	0.076
-440.792	128.759	0.100	-0.126
-439.778	-88.820	-0.234	0.069
-438.763	143.601	0.125	-0.166
-437.749	31.712	-0.177	0.152
-436.734	-200.000	-0.011	0.079
-435.719	-48.296	-0.259	-0.124
-434.705	-79.441	0.341	0.115
-433.690	-166.899	-0.302	0.012
-432.676	-47.216	0.126	0.061
-431.661	249.628	-0.097	0.164
-430.646	800.000	0.025	0.070
-429.632	0.238	-0.039	-0.027
-428.617	-60.698	0.324	0.137
-427.603	235.452	-0.071	-0.117
-426.588	800.000	-0.058	-0.248
-425.573	800.000	-0.072	0.253
-424.559	27.955	-0.148	0.124
-423.544	69.898	0.113	-0.116
-422.530	513.173	-0.048	0.112
-421.515	-170.361	-0.271	-0.009
-420.500	-11.480	-0.162	-0.106
-419.486	800.000	-0.096	0.303
-418.471	12.246	0.141	0.108
-417.457	-127.711	-0.094	0.014
-416.442	133.374	0.134	-0.172
-415.428	27.272	0.087	-0.073
-414.413	182.226	-0.097	0.142
-413.398	13.440	0.078	0.060
-412.384	637.928	0.110	0.279
-411.369	-86.665	0.282	-0.086
-410.355	-200.000	0.011	-0.109
-409.340	563.819	-0.098	0.237
-408.325	174.600	-0.158	-0.227
-407.311	-172.301	-0.400	-0.013
-406.296	7.155	0.054	0.040
-405.282	-69.356	-0.176	0.067
-404.267	30.266	-0.152	-0.129
-403.252	9.960	0.148	-0.112
-402.238	-61.637	0.498	0.208
-401.223	636.698	0.055	0.140
-400.209	116.233	0.126	-0.154
-399.194	-82.088	-0.110	0.036
-398.179	-54.507	-0.044	0.020
-397.165	-26.076	0.343	0.200
-396.150	800.000	-0.017	0.071
-395.136	121.274	0.076	0.094
-394.121	-112.428	-0.459	-0.091
-393.106	-140.529	-0.217	-0.022
-392.092	-160.467	0.216	-0.012
-391.077	526.036	-0.130	-0.303
-390.063	-200.000	0.071	-0.457
-389.048	-200.000	0.007	-0.046
-388.033	800.000	-0.046	-0.136
-387.019	32.636	-0.331	-0.285
-386.004	147.141	0.068	0.091
-384.990	186.108	-0.104	-0.153
-383.975	-87.343	0.254	-0.077
-382.960	800.000	-0.059	0.195
-381.946	-31.162	-0.242	-0.136
-380.931	45.698	0.146	0.134
-379.917	-200.000	-0.016	0.073
-378.902	-75.264	-0.168	0.060
-377.888	35.342	0.197	0.171
-376.873	-66.973	-0.130	-0.051
-375.858	429.375	-0.143	0.307
-374.844	-96.083	-0.384	-0.101
-373.829	103.563	-0.118	0.138
-372.815	143.802	-0.198	-0.262
-371.800	800.000	-0.134	0.374
-370.785	245.741	0.115	0.192
-369.771	-80.356	-0.191	0.064
-368.756	-66.767	-0.332	-0.130
-367.742	-184.207	-0.268	-0.004
-366.727	-200.000	0.075	0.419
-365.712	297.681	-0.096	0.175
-364.698	-111.828	-0.153	-0.031
-363.683	-139.755	-0.346	0.037
-362.669	51.613	-0.117	-0.111
-361.654	800.000	0.092	0.267
-360.639	-200.000	0.059	0.310
-359.625	-51.095	-0.384	-0.179
-358.610	-200.000	0.004	0.151
-357.596	131.823	0.041	0.053
-356.581	-68.336	-0.080	0.031
-355.566	223.829	-0.206	-0.329
-354.552	4.856	0.050	0.037
-353.537	-69.552	-0.234	-0.089
-352.523	-187.598	0.103	0.001
-351.508	-200.000	-0.040	-0.285
-350.493	-141.414	0.228	-0.023
-349.479	718.852	-0.065	-0.172
-348.464	800.000	0.027	0.085
-347.450	-14.372	-0.137	0.088
-346.435	-200.000	-0.016	0.178
-345.420	800.000	-0.099	-0.338
-344.406	-200.000	-0.020	0.145
-343.391	-200.000	0.056	0.460
-342.377	46.165	-0.117	0.108
-341.362	-200.000	0.281	0.001
-340.348	800.000	0.009	-0.025
-339.333	-200.000	0.005	0.189
-338.318	-133.048	0.146	0.018
-337.304	250.404	-0.192	0.324
-336.289	767.773	0.046	0.123
-335.275	-77.672	-0.054	0.019
-334.260	-150.259	-0.147	0.011
-333.245	37.598	0.052	-0.046
-332.231	-200.000	0.019	0.127
-331.216	-64.722	-0.006	0.002
-330.202	800.000	-0.025	0.087
-329.187	164.412	-0.160	0.223
-328.172	-129.063	-0.309	0.043
-327.158	68.319	-0.262	-0.266
-326.143	-200.000	-0.023	-0.113
-325.129	-200.000	0.014	0.282
-324.114	-200.000	-0.018	-0.198
-323.099	470.254	0.149	-0.333
-322.085	61.432	0.016	0.016
-321.070	78.640	0.160	0.169
-320.056	-200.000	-0.011	-0.101
-319.041	12.322	-0.090	-0.069
-318.026	-170.900	-0.100	-0.003
-317.012	22.141	0.028	0.023
-315.997	135.857	0.153	-0.198
-314.983	199.004	-0.131	0.198
-313.968	-87.382	-0.244	0.073
-312.953	-165.020	-0.196	0.009
-311.939	-111.689	-0.167	-0.033
-310.924	-92.758	-0.189	0.052
-309.910	-31.831	0.143	0.079
-308.895	-71.212	0.502	-0.187
-307.880	9.033	-0.324	-0.242
-306.866	-200.000	-0.003	-0.209
-305.851	800.000	-0.090	-0.349
-304.837	171.460	-0.062	0.088
-303.822	10.384	-0.114	-0.086
-302.807	629.690	0.073	-0.182
-301.793	-26.750	0.302	-0.175
-300.778	149.882	0.158	0.212
-299.764	404.164	0.109	0.227
-298.749	123.259	0.065	-0.081
-297.735	-83.218	0.155	-0.049
-296.720	218.495	-0.085	-0.135
-295.705	-41.582	0.115	-0.058
-294.691	363.326	-0.145	-0.288
-293.676	-200.000	0.005	-0.140
-292.662	800.000	0.026	0.105
-291.647	-9.334	0.193	-0.128
-290.632	800.000	0.039	0.111
-289.618	246.962	0.345	0.577
-288.603	800.000	-0.077	0.236
-287.589	-71.278	0.418	0.155
-286.574	-104.006	0.125	-0.029
-285.559	-76.263	0.162	-0.056
-284.545	236.665	0.029	-0.048
-283.530	800.000	-0.019	-0.060
-282.516	-97.207	-0.123	-0.032
-281.501	48.299	0.283	-0.262
-280.486	-2.055	-0.372	0.258
-279.472	-85.992	-0.169	-0.052
-278.457	153.644	0.087	0.118
-277.443	-200.000	0.487	0.001
-276.428	-18.563	0.340	0.210
-275.413	55.935	0.099	-0.095
-274.399	-200.000	-0.045	0.310
-273.384	-11.286	0.049	-0.032
-272.370	-200.000	-0.011	-0.220
-271.355	-200.000	0.012	0.127
-270.340	-115.125	-0.331	0.062
-269.326	-5.125	0.218	-0.148
-268.311	800.000	-0.085	-0.240
-267.297	-104.680	-0.264	0.060
-266.282	619.582	-0.163	0.405
-265.267	34.145	-0.292	-0.251
-264.253	-200.000	-0.104	0.461
-263.238	96.512	0.142	0.161
-262.224	-200.000	0.000	0.012
-261.209	279.087	-0.061	0.107
-260.195	98.649	0.206	0.235
-259.180	6.476	-0.154	0.113
-258.165	-150.250	0.435	0.033
-257.151	-177.284	0.250	0.006
-256.136	267.011	0.208	-0.359
-255.122	-54.363	0.137	0.061
-254.107	272.276	-0.123	-0.214
-253.092	459.336	0.052	0.115
-252.078	800.000	-0.009	-0.036
-251.063	800.000	-0.042	-0.151
-250.049	51.097	0.092	0.086
-249.034	91.239	-0.142	0.158
-248.019	147.579	-0.050	-0.067
-247.005	-61.435	0.299	0.124
-245.990	-200.000	0.001	-0.182
-244.976	98.513	0.191	-0.217
-243.961	-15.518	-0.055	-0.035
-242.946	255.455	0.166	-0.281
-241.932	207.305	0.091	0.140
-240.917	126.574	0.201	-0.252
-239.903	80.671	0.171	-0.182
-238.888	130.383	0.117	-0.148
-237.873	77.889	0.142	-0.149
-236.859	-119.592	0.186	0.032
-235.844	-184.612	-0.211	-0.003
-234.830	-63.736	-0.258	-0.105
-233.815	-14.641	0.231	-0.146
-232.800	15.264	-0.197	-0.153
-231.786	70.839	-0.080	0.082
-230.771	-200.000	0.201	-0.001
-229.757	432.003	-0.113	-0.243
-228.742	74.311	-0.103	0.107
-227.727	-77.058	-0.216	0.074
-226.713	-141.984	0.246	0.024
-225.698	-140.213	0.472	-0.049
-224.684	-50.447	-0.156	-0.073
-223.669	-200.000	-0.025	0.367
-222.655	-24.016	-0.247	0.146
-221.640	70.951	0.184	0.188
-220.625	-9.255	-0.123	0.081
-219.611	353.781	0.057	-0.111
-218.596	99.372	-0.108	-0.124
-217.582	-200.000	-0.086	-0.431
-216.567	138.886	-0.099	0.128
-215.552	-72.225	0.271	0.099
-214.538	800.000	0.075	-0.253
-213.523	-36.916	0.250	0.132
-212.509	-42.977	0.156	0.078
-211.494	-38.038	-0.326	-0.171
-210.479	53.124	0.144	0.136
-209.465	-200.000	0.003	0.047
-208.450	-135.798	0.300	-0.035
-207.436	-19.617	0.152	-0.093
-206.421	-88.920	0.333	0.097
-205.406	-200.000	0.011	-0.051
-204.392	-97.262	0.174	-0.045
-203.377	-19.532	0.272	-0.166
-202.363	20.703	0.131	-0.105
-201.348	755.205	0.099	-0.263
-200.333	29.635	-0.178	-0.149
-199.319	-196.951	0.284	0.002
-198.304	-66.125	0.386	-0.152
-197.290	694.146	0.123	-0.317
-196.275	800.000	-0.050	-0.208
-195.260	-200.000	0.007	-0.057
-194.246	800.000	-0.073	-0.243
-193.231	-51.036	0.335	-0.155
-192.217	216.031	-0.235	0.368
-191.202	-92.395	0.124	0.034
-190.187	184.585	-0.100	-0.146
-189.173	-151.418	0.090	-0.007
-188.158	-49.997	-0.369	0.173
-187.144	-90.487	-0.014	0.004
-186.129	-200.000	0.001	0.086
-185.114	-200.000	0.032	0.338
-184.100	32.165	0.156	0.133
-183.085	-114.237	-0.127	0.024
-182.071	-30.808	-0.140	0.078
-181.056	-8.407	0.268	0.178
-180.042	-25.776	-0.164	0.095
-179.027	-200.000	-0.026	-0.144
-178.012	-200.000	-0.009	-0.252
-176.998	264.728	0.116	-0.200
-175.983	271.786	0.089	-0.154
-174.969	-200.000	0.003	0.391
-173.954	290.398	-0.025	-0.044
-172.939	2.349	-0.138	0.098
-171.925	-101.676	0.115	0.027
-170.910	230.584	0.156	0.251
-169.896	-131.433	0.246	0.032
-168.881	800.000	-0.062	0.251
-167.866	707.709	0.057	-0.148
-166.852	78.717	0.210	-0.221
-165.837	800.000	-0.078	0.274
-164.823	433.589	-0.129	0.277
-163.808	800.000	0.061	0.176
-162.793	-149.687	0.172	-0.013
-161.779	-76.465	0.252	-0.087
-160.764	58.466	-0.207	0.200
-159.750	73.990	-0.058	0.059
-158.735	249.307	-0.172	-0.288
-157.720	117.650	0.175	0.212
-156.706	-193.260	-0.149	-0.001
-155.691	-141.610	-0.136	-0.013
-154.677	108.788	0.098	0.115
-153.662	-200.000	0.053	-0.252
-152.647	129.426	-0.267	-0.336
-151.633	-200.000	0.004	0.092
-150.618	32.804	-0.039	0.033
-149.604	-200.000	0.043	0.316
-148.589	-14.741	-0.098	0.062
-147.574	-200.000	0.026	0.210
-146.560	419.958	-0.112	-0.236
-145.545	96.362	-0.210	0.237
-144.531	22.460	0.077	-0.062
-143.516	-200.000	-0.016	-0.136
-142.502	-200.000	0.058	0.338
-141.487	-30.976	0.080	-0.044
-140.472	0.048	-0.190	-0.133
-139.458	167.615	0.026	-0.036
-138.443	406.714	-0.070	-0.145
-137.429	134.397	0.044	-0.056
-136.414	-200.000	-0.045	0.223
-135.399	41.564	0.279	-0.248
-134.385	83.028	-0.097	0.104
-133.370	2.038	-0.246	0.175
-132.356	-53.438	0.159	0.072
-131.341	800.000	-0.018	-0.066
-130.326	-65.148	-0.140	0.056
-129.312	-116.435	0.175	0.032
-128.297	191.079	0.109	0.161
-127.283	-200.000	-0.014	0.228
-126.268	256.647	0.083	0.141
-125.253	-58.001	0.355	-0.152
-124.239	-85.489	0.198	-0.061
-123.224	259.218	0.051	-0.086
-122.210	-200.000	-0.024	-0.118
-121.195	-89.013	0.364	-0.106
-120.180	-200.000	-0.012	-0.179
-119.166	800.000	-0.062	-0.258
-118.151	800.000	0.022	0.063
-117.137	151.206	-0.132	0.177
-116.122	57.955	0.072	-0.070
-115.107	-21.627	0.197	0.118
-114.093	-200.000	0.024	-0.409
-113.078	-31.694	-0.204	0.112
-112.064	-41.882	0.049	0.025
-111.049	61.638	-0.304	-0.298
-110.034	800.000	0.109	-0.370
-109.020	108.982	0.228	0.268
-108.005	380.045	0.044	0.088
-106.991	397.577	0.044	-0.090
-105.976	109.181	-0.116	0.137
-104.962	-163.281	-0.243	0.011
-103.947	-200.000	0.002	-0.188
-102.932	800.000	0.094	-0.333
-101.918	-46.880	-0.168	0.081
-100.903	800.000	0.081	0.242
-99.889	199.169	0.061	0.092
-98.874	503.585	0.118	0.268
-97.859	-78.915	0.130	-0.043
-96.845	20.374	0.130	-0.103
-95.830	65.392	0.325	-0.323
-94.816	551.655	0.032	0.076
-93.801	-200.000	0.029	0.349
-92.786	800.000	0.065	0.230
-91.772	-124.300	0.293	0.045
-90.757	-200.000	-0.026	-0.157
-89.743	-42.117	0.142	0.072
-88.728	-163.319	0.271	-0.013
-87.713	153.529	0.124	-0.167
-86.699	-9.997	-0.097	-0.063
-85.684	-163.700	0.347	0.016
-84.670	56.550	0.095	0.090
-83.655	179.725	-0.030	0.042
-82.640	-25.517	0.277	0.160
-81.626	-145.298	-0.280	-0.025
-80.611	41.767	0.203	0.181
-79.597	-50.439	-0.222	0.103
-78.582	208.977	-0.086	-0.132
-77.567	277.937	-0.120	0.210
-76.553	800.000	0.147	0.404
-75.538	-200.000	-0.002	-0.256
-74.524	747.862	0.078	0.206
-73.509	-113.291	0.061	-0.012
-72.494	-200.000	-0.005	-0.129
-71.480	-200.000	0.038	-0.299
-70.465	-53.563	0.115	0.052
-69.451	-135.675	0.233	-0.027
-68.436	75.186	0.043	-0.045
-67.422	-200.000	0.003	0.059
-66.407	52.572	-0.103	-0.096
-65.392	800.000	0.044	0.156
-64.378	759.844	0.139	-0.369
-63.363	800.000	-0.009	0.032
-62.349	168.312	0.160	-0.224
-61.334	17.347	-1.262	-0.983
-60.319	52.087	0.352	0.329
-59.305	565.660	-0.417	-0.991
-58.290	166.817	0.780	1.086
-57.276	347.412	0.876	1.692
-56.261	-200.000	99.648	601.982
-55.246	589.676	1404.363	3395.922
-54.232	192.639	2593.440	3840.936
-53.217	112.356	2267.735	2690.191
-52.203	41.157	1892.545	1677.213
-51.188	34.889	1684.303	1445.413
-50.173	32.244	1640.990	1388.676
-49.159	50.102	1690.283	1564.665
-48.144	51.906	1706.495	1593.130
-47.130	34.523	1666.715	1427.360
-46.115	31.776	1652.262	1394.510
-45.100	31.565	1647.583	1388.946
-44.086	31.615	1644.243	1386.442
-43.071	31.594	1642.056	1384.385
-42.057	31.571	1639.684	1382.165
-41.042	31.511	1637.980	1380.232
-40.027	31.595	1635.767	1378.929
-39.013	31.462	1633.889	1376.312
-37.998	31.438	1632.355	1374.788
-36.984	31.548	1631.239	1374.600
-35.969	31.645	1629.435	1373.741
-34.954	31.619	1627.585	1371.933
-33.940	31.627	1626.358	1370.902
-32.925	31.554	1624.575	1368.811
-31.911	31.642	1622.742	1367.859
-30.896	31.484	1621.293	1365.432
-29.881	31.549	1619.654	1364.467
-28.867	31.551	1617.835	1362.898
-27.852	31.680	1616.123	1362.338
-26.838	31.634	1614.454	1360.543
-25.823	31.586	1613.423	1359.274
-24.809	31.798	1611.701	1359.304
-23.794	31.638	1610.491	1357.071
-22.779	31.722	1608.717	1356.129
-21.765	31.627	1607.751	1354.578
-20.750	31.733	1605.777	1353.624
-19.736	31.693	1604.652	1352.333
-18.721	31.659	1603.403	1350.981
-17.706	31.745	1601.727	1350.136
-16.692	31.688	1600.217	1348.397
-15.677	31.604	1599.359	1347.021
-14.663	31.778	1597.564	1346.704
-13.648	31.678	1596.575	1345.100
-12.633	31.770	1594.165	1343.671
-11.619	31.681	1593.248	1342.209
-10.604	31.776	1591.388	1341.268
-9.590	31.673	1590.402	1339.648
-8.575	31.676	1589.091	1338.513
-7.560	31.727	1587.815	1337.749
-6.546	31.664	1587.302	1336.815
-5.531	31.689	1586.214	1336.024
-4.517	31.662	1584.364	1334.217
-3.502	31.647	1583.473	1333.313
-2.487	31.777	1581.702	1332.690
-1.473	31.203	1569.736	1318.503
-0.458	27.768	1549.054	1277.086
0.556	25.138	1548.252	1238.780
1.571	22.315	1571.679	1237.588
2.586	21.590	1583.625	1241.744
3.600	18.772	1529.306	1179.714
4.615	11.251	1422.120	1048.718
5.629	5.058	1361.424	965.627
6.644	3.953	1352.866	952.669
7.659	3.795	1352.471	951.338
8.673	3.803	1351.238	950.433
9.688	3.930	1349.455	949.875
10.702	3.906	1346.814	947.785
11.717	6.642	1351.562	967.846
12.731	14.343	1365.899	1025.614
13.746	20.474	1376.099	1071.094
14.761	21.459	1376.269	1077.204
15.775	20.748	1374.403	1071.273
16.790	19.768	1371.786	1063.112
17.804	19.036	1369.068	1056.423
18.819	18.664	1367.930	1053.165
19.834	18.547	1366.809	1051.492
20.848	18.387	1366.194	1049.943
21.863	18.235	1364.690	1047.765
22.877	18.010	1363.469	1045.359
23.892	17.927	1363.029	1044.420
24.907	17.947	1362.351	1043.930
25.921	17.935	1361.296	1042.959
26.936	17.950	1360.281	1042.180
27.950	18.040	1359.074	1041.711
28.965	18.035	1357.990	1040.756
29.980	18.176	1357.046	1040.800
30.994	18.234	1356.369	1040.541
32.009	18.307	1355.083	1039.906
33.023	18.370	1353.895	1039.288
34.038	18.349	1352.040	1037.640
35.053	18.081	1351.444	1035.471
36.067	18.097	1350.087	1034.434
37.082	18.286	1348.756	1034.467
38.096	18.262	1348.444	1033.991
39.111	18.324	1347.235	1033.346
40.126	18.158	1346.478	1031.673
41.140	17.951	1345.186	1029.344
42.155	17.739	1344.827	1027.702
43.169	17.755	1344.495	1027.454
44.184	17.742	1344.098	1026.978
45.199	17.768	1343.662	1026.712
46.213	17.966	1343.229	1027.485
47.228	18.097	1342.635	1027.723
48.242	18.155	1341.166	1026.856
49.257	18.049	1340.242	1025.425
50.271	18.131	1338.146	1024.222
51.286	18.125	1337.301	1023.448
52.301	18.096	1335.921	1022.127
53.315	18.010	1334.790	1020.659
54.330	17.854	1333.787	1018.871
55.344	17.854	1332.355	1017.688
56.359	17.819	1331.928	1017.062
57.374	17.783	1330.846	1015.930
58.388	17.831	1329.637	1015.202
59.403	17.784	1329.323	1014.594
60.417	17.700	1328.534	1013.400
61.432	17.646	1327.840	1012.459
62.447	17.545	1326.749	1010.938
63.461	17.600	1325.239	1010.029
64.476	17.622	1324.355	1009.395
65.490	17.556	1323.603	1008.342
66.505	17.503	1322.371	1006.999
67.520	17.531	1320.729	1005.828
68.534	17.539	1320.145	1005.340
69.549	17.619	1318.594	1004.541
70.563	17.451	1317.763	1002.828
71.578	17.566	1316.175	1002.211
72.593	17.440	1315.334	1000.738
73.607	17.418	1315.225	1000.438
74.622	17.370	1314.422	999.456
75.636	17.322	1313.859	998.657
76.651	17.410	1312.928	998.377
77.666	17.464	1312.251	998.091
78.680	17.502	1312.176	998.167
79.695	17.614	1311.298	998.070
80.709	17.669	1310.850	997.964
81.724	17.729	1310.217	997.741
82.739	17.898	1308.813	997.571
83.753	17.902	1308.633	997.373
84.768	18.147	1307.207	997.626
85.782	18.160	1306.441	997.027
86.797	18.189	1304.617	995.716
87.812	18.168	1303.324	994.517
88.826	18.035	1302.837	993.286
89.841	18.206	1301.548	993.211
90.855	18.149	1301.024	992.394
91.870	18.210	1299.972	991.853
92.884	18.310	1299.183	991.742
93.899	18.237	1298.702	990.866
94.914	18.298	1297.754	990.409
95.928	18.426	1296.753	990.295
96.943	18.236	1295.853	988.427
97.957	18.246	1294.444	987.322
98.972	18.286	1293.705	986.902
99.987	18.126	1293.090	985.420
101.001	18.256	1291.501	984.869
102.016	18.254	1290.976	984.371
103.030	18.264	1290.168	983.723
104.045	18.304	1288.886	982.890
105.060	18.151	1287.733	981.046
106.074	17.941	1286.481	978.804
107.089	17.629	1285.361	976.076
108.103	17.627	1283.955	974.913
109.118	17.597	1282.495	973.543
110.133	17.650	1281.160	972.749
111.147	17.666	1279.983	971.859
112.162	17.758	1278.528	971.191
113.176	17.774	1278.034	970.824
114.191	17.784	1276.494	969.626
115.206	17.720	1275.729	968.594
116.220	17.819	1274.363	968.032
117.235	17.725	1273.414	966.694
118.249	17.668	1272.345	965.476
119.264	17.724	1270.552	964.344
120.279	17.584	1270.255	963.239
121.293	17.455	1269.490	961.848
122.308	17.453	1267.900	960.549
123.322	17.371	1267.199	959.468
124.337	17.440	1265.840	958.743
125.352	17.437	1264.544	957.657
126.366	17.544	1263.131	957.108
127.381	17.531	1262.077	956.153
128.395	17.579	1261.063	955.566
129.410	17.510	1260.868	954.949
130.424	17.569	1260.050	954.575
131.439	17.709	1258.832	954.348
132.454	17.674	1258.307	953.670
133.468	17.791	1257.073	953.305
134.483	17.774	1256.422	952.632
135.497	17.829	1255.598	952.231
136.512	17.745	1254.696	950.995
137.527	17.780	1253.509	950.203
138.541	17.901	1251.884	949.564
139.556	17.897	1250.683	948.545
140.570	17.980	1249.813	948.264
141.585	18.050	1248.649	947.682
142.600	18.106	1247.402	946.966
143.614	18.226	1246.722	947.028
144.629	18.260	1245.605	946.283
145.643	18.256	1244.285	945.176
146.658	17.986	1243.567	943.054
147.673	17.877	1242.444	941.521
148.687	17.891	1240.468	940.019
149.702	17.835	1239.077	938.571
150.716	17.873	1237.115	937.211
151.731	17.822	1236.486	936.369
152.746	17.813	1235.525	935.509
153.760	17.909	1234.483	935.165
154.775	17.953	1233.491	934.570
155.789	18.009	1232.643	934.155
156.804	18.159	1231.538	934.054
157.819	18.061	1230.678	932.784
158.833	18.063	1230.349	932.459
159.848	18.336	1229.213	933.004
160.862	18.287	1227.955	931.702
161.877	18.029	1226.734	929.289
162.892	17.784	1225.719	927.108
163.906	17.781	1224.826	926.334
164.921	17.871	1223.929	926.060
165.935	18.046	1222.963	926.196
166.950	18.064	1222.181	925.623
167.964	18.148	1221.407	925.405
168.979	17.798	1221.338	923.376
169.994	17.991	1220.212	923.492
171.008	18.160	1218.784	923.242
172.023	18.196	1218.642	923.245
173.037	18.335	1217.822	923.290
174.052	18.163	1217.163	921.781
175.067	17.983	1216.024	919.869
176.081	17.895	1214.949	918.503
177.096	17.848	1214.075	917.504
178.110	18.027	1212.719	917.364
179.125	18.044	1211.823	916.692
180.140	18.026	1210.979	915.880
181.154	18.206	1209.307	915.497
182.169	18.222	1208.805	915.122
183.183	18.288	1207.373	914.309
184.198	18.283	1206.604	913.618
185.213	18.379	1204.984	912.822
186.227	18.305	1204.645	912.093
187.242	18.370	1203.377	911.394
188.256	18.428	1202.291	910.802
189.271	18.533	1201.150	910.413
190.286	18.181	1200.198	907.745
191.300	18.002	1199.035	905.833
192.315	17.813	1198.391	904.266
193.329	17.819	1197.836	903.802
194.344	17.963	1197.208	904.005
195.359	17.974	1196.621	903.541
196.373	18.228	1196.344	904.597
197.388	18.207	1196.198	904.294
198.402	18.491	1195.248	904.997
199.417	18.606	1195.160	905.455
200.432	18.703	1194.354	905.276
201.446	18.804	1193.309	904.939
202.461	18.817	1192.696	904.460
203.475	18.855	1191.677	903.806
204.490	18.635	1190.278	901.510
205.504	18.525	1188.652	899.623
206.519	18.452	1187.674	898.420
207.534	18.350	1186.849	897.184
208.548	18.396	1186.097	896.778
209.563	18.448	1184.955	896.104
210.577	18.367	1184.486	895.246
211.592	18.578	1183.199	895.296
212.607	18.702	1182.802	895.566
213.621	18.596	1182.356	894.593
214.636	18.631	1180.940	893.625
215.650	18.705	1179.889	893.137
216.665	18.702	1179.712	892.910
217.680	18.879	1178.431	892.781
218.694	18.955	1177.315	892.252
219.709	18.839	1176.970	891.307
220.723	18.928	1175.800	890.804
221.738	18.864	1175.421	890.108
222.753	18.774	1174.671	888.996
223.767	18.669	1174.399	888.164
224.782	18.961	1173.349	888.801
225.796	18.967	1173.187	888.632
226.811	18.933	1171.951	887.443
227.826	18.877	1171.220	886.520
228.840	18.656	1170.776	884.969
229.855	18.760	1169.798	884.683
230.869	18.867	1168.987	884.542
231.884	18.765	1168.158	883.315
232.899	18.699	1167.198	882.170
233.913	18.590	1166.572	881.060
234.928	18.595	1165.928	880.520
235.942	18.519	1165.194	879.497
236.957	18.550	1164.470	879.034
237.972	18.576	1163.707	878.514
238.986	18.614	1162.834	877.972
240.001	18.644	1162.224	877.584
241.015	18.723	1161.167	877.113
242.030	18.751	1160.428	876.620
243.045	18.755	1160.309	876.472
244.059	18.788	1159.092	875.646
245.074	18.864	1158.360	875.403
246.088	18.874	1157.909	875.037
247.103	19.007	1157.261	875.143
248.117	19.153	1156.217	875.019
249.132	19.171	1155.753	874.683
250.147	19.365	1155.368	875.297
251.161	19.572	1154.479	875.596
252.176	19.687	1153.729	875.534
253.190	19.706	1153.012	875.009
254.205	19.678	1152.925	874.724
255.220	19.713	1151.907	874.050
256.234	19.598	1151.568	873.132
257.249	19.695	1150.868	873.017
258.263	19.753	1149.709	872.351
259.278	19.689	1149.545	871.826
260.293	19.670	1149.301	871.472
261.307	19.785	1148.342	871.245
262.322	19.740	1147.876	870.589
263.336	19.683	1147.320	869.803
264.351	19.833	1146.822	870.103
265.366	19.831	1145.886	869.306
266.380	19.901	1145.409	869.220
267.395	19.829	1143.910	867.641
268.409	19.672	1143.254	866.282
269.424	19.593	1142.981	865.601
270.439	19.625	1142.184	865.081
271.453	19.605	1141.362	864.284
272.468	19.476	1140.284	862.746
273.482	19.500	1139.895	862.496
274.497	19.494	1139.153	861.828
275.512	19.456	1138.666	861.190
276.526	19.573	1137.937	861.150
277.541	19.662	1136.604	860.506
278.555	19.673	1136.188	860.168
279.570	19.911	1135.647	860.870
280.585	19.895	1134.868	860.122
281.599	19.872	1133.870	859.173
282.614	19.845	1132.660	858.049
283.628	19.760	1131.700	856.825
284.643	19.771	1131.044	856.307
285.657	19.740	1129.966	855.263
286.672	19.783	1128.905	854.596
287.687	19.677	1128.590	853.756
288.701	19.759	1127.276	853.094
289.716	19.710	1126.483	852.176
290.730	19.719	1126.048	851.812
291.745	19.759	1125.587	851.586
292.760	19.874	1124.495	851.254
293.774	19.919	1124.166	851.148
294.789	20.039	1123.654	851.277
295.803	20.046	1123.186	850.879
296.818	19.888	1122.101	849.208
297.833	19.875	1121.376	848.521
298.847	19.837	1120.813	847.830
299.862	19.910	1119.847	847.386
300.876	20.004	1119.077	847.187
301.891	20.038	1118.717	847.004
302.906	19.887	1118.469	846.005
303.920	20.108	1117.851	846.540
304.935	20.137	1117.025	845.980
305.949	20.445	1115.895	846.552
306.964	20.216	1115.900	845.367
307.979	20.204	1114.958	844.517
308.993	20.209	1114.113	843.831
310.008	20.223	1113.469	843.332
311.022	20.180	1112.728	842.491
312.037	20.263	1111.723	842.055
313.052	20.136	1110.930	840.765
314.066	20.013	1109.615	839.101
315.081	19.906	1108.895	837.962
316.095	19.904	1107.877	837.111
317.110	19.929	1106.839	836.372
318.125	19.970	1106.455	836.209
319.139	20.054	1105.411	835.748
320.154	20.007	1105.127	835.234
321.168	20.100	1104.655	835.250
322.183	20.092	1103.992	834.637
323.197	20.148	1103.482	834.446
324.212	20.084	1103.252	833.890
325.227	20.124	1102.637	833.545
326.241	20.010	1102.219	832.608
327.256	20.072	1101.001	831.910
328.270	20.057	1100.062	831.059
329.285	20.074	1099.021	830.278
330.300	19.964	1098.084	828.970
331.314	20.124	1097.150	828.956
332.329	20.166	1095.963	828.187
333.343	20.148	1095.531	827.700
334.358	20.263	1094.620	827.489
335.373	20.117	1094.636	826.729
336.387	20.276	1093.529	826.578
337.402	20.327	1092.933	826.298
338.416	20.360	1092.479	826.038
339.431	20.439	1091.429	825.546
340.446	20.524	1091.247	825.741
341.460	20.670	1090.900	826.097
342.475	20.770	1089.706	825.595
343.489	20.835	1088.865	825.195
344.504	20.779	1088.137	824.302
345.519	20.938	1086.789	823.961
346.533	20.859	1086.556	823.340
347.548	20.796	1086.182	822.686
348.562	20.923	1085.355	822.583
349.577	20.680	1084.283	820.555
350.592	20.615	1083.095	819.276
351.606	20.461	1082.516	818.040
352.621	20.575	1081.276	817.567
353.635	20.533	1081.163	817.213
354.650	20.524	1080.427	816.540
355.665	20.543	1079.696	816.004
356.679	20.676	1079.119	816.120
357.694	20.608	1078.830	815.509
358.708	20.723	1078.152	815.465
359.723	20.624	1077.526	814.458
360.738	20.723	1076.884	814.364
361.752	20.666	1076.778	813.945
362.767	20.746	1075.518	813.292
363.781	20.757	1074.984	812.869
364.796	20.899	1074.520	813.107
365.810	20.992	1073.899	813.002
366.825	21.058	1073.648	813.046
367.840	21.111	1073.627	813.204
368.854	21.244	1073.042	813.308
369.869	21.266	1071.683	812.309
370.883	21.023	1070.846	810.474
371.898	20.981	1070.340	809.823
372.913	21.056	1069.658	809.585
373.927	21.081	1069.255	809.322
374.942	21.212	1068.560	809.335
375.956	21.183	1068.138	808.810
376.971	21.159	1067.437	808.093
377.986	21.152	1066.968	807.635
379.000	21.366	1066.528	808.219
380.015	21.421	1066.116	808.093
381.029	21.487	1065.502	807.859
382.044	21.486	1064.254	806.835
383.059	21.292	1063.990	805.672
384.073	21.333	1063.182	805.178
385.088	21.331	1062.142	804.308
386.102	21.368	1061.144	803.650
387.117	21.187	1060.314	802.121
388.132	21.195	1058.852	800.979
389.146	21.140	1058.412	800.326
390.161	21.045	1057.885	799.420
391.175	21.153	1057.208	799.332
392.190	21.244	1056.512	799.152
393.205	21.396	1055.706	799.164
394.219	21.305	1055.067	798.195
395.234	21.360	1053.836	797.443
396.248	21.260	1053.023	796.303
397.263	21.101	1052.083	794.798
398.278	21.101	1051.157	794.026
399.292	20.970	1050.482	792.854
400.307	20.912	1049.690	791.920
401.321	20.920	1049.261	791.564
402.336	20.988	1048.533	791.254
403.350	20.989	1047.803	790.636
404.365	21.170	1047.014	790.790
405.380	21.309	1046.081	790.643
406.394	21.291	1045.620	790.144
407.409	21.367	1044.815	789.810
408.423	21.408	1044.886	789.980
409.438	21.553	1043.912	789.829
410.453	21.588	1043.112	789.310
411.467	21.780	1042.352	789.529
412.482	21.687	1042.037	788.804
413.496	21.749	1041.510	788.614
414.511	21.651	1041.185	787.856
415.526	21.855	1040.645	788.294
416.540	21.954	1040.080	788.245
417.555	21.799	1039.813	787.276
418.569	21.908	1038.260	786.515
419.584	21.789	1038.181	785.856
420.599	21.755	1037.914	785.432
421.613	155.590	1401.891	1793.641
422.628	142.323	1454.890	1793.751
