DTS Sentinel unit serial number:	SN413079Multiplexer serial number:	ORYXHardware model number:	OX4-SRSoftware version number:	ORYX F/W v4.00 Oryx Data Collector v3.7.2.0data status	okinstallation	princeton_trtdifferential loss correction	single-endedforward channel	channel 2reverse channel	N/Adate	2019/09/12time	22:59:34forward acquisition time	60.00reverse acquisition time	0.00gamma	496.2192k internal	0.2331k external	0.2331temperature offset calibration	1.0178default loss term (dB/km)	0.3790temperature slope calibration	1.0000multiplexer offset coefficient	1.0000multiplexer slope coefficient	1.0000fibre end	0.00T internal ref (°C)	29.31T ext. ref 1 (°C)	3.74T ext. ref 2 (°C)	23.97length (m)	temperature (°C)	Stokes	anti-Stokes-747.200	-200.000	0.001	-0.120
-746.185	-200.000	0.062	0.312
-745.171	48.338	-0.226	0.213
-744.156	297.790	0.169	0.312
-743.142	-56.611	-0.166	0.074
-742.127	-200.000	-0.032	0.268
-741.112	-200.000	-0.086	-0.383
-740.098	94.885	0.183	0.209
-739.083	800.000	0.060	-0.190
-738.069	-200.000	0.002	-0.233
-737.054	-200.000	0.021	-0.190
-736.039	129.408	-0.195	-0.251
-735.025	-175.264	0.428	0.012
-734.010	-200.000	-0.026	0.305
-732.996	-200.000	0.076	-0.336
-731.981	-121.184	0.197	0.033
-730.966	-137.721	-0.242	0.027
-729.952	-109.737	-0.195	0.041
-728.937	-5.440	-0.143	-0.099
-727.923	417.789	-0.040	0.087
-726.908	411.013	0.081	0.173
-725.894	-200.000	0.009	0.085
-724.879	-165.690	-0.293	0.013
-723.864	29.577	0.061	-0.052
-722.850	-58.655	-0.140	0.061
-721.835	250.760	0.031	0.053
-720.821	-37.340	0.234	-0.126
-719.806	413.695	0.131	0.281
-718.791	-160.345	-0.028	0.001
-717.777	-157.189	0.138	0.008
-716.762	-168.058	-0.144	0.006
-715.748	92.960	0.100	0.113
-714.733	12.732	-0.032	0.025
-713.718	-111.245	-0.194	0.040
-712.704	200.252	0.176	-0.272
-711.689	278.413	0.158	-0.283
-710.675	35.532	0.149	0.132
-709.660	250.419	-0.050	-0.085
-708.645	-113.610	-0.196	0.038
-707.631	-200.000	0.026	0.131
-706.616	-176.036	0.173	-0.005
-705.602	157.580	-0.212	0.295
-704.587	-37.102	-0.318	-0.171
-703.572	-160.804	0.291	-0.015
-702.558	-133.841	0.389	0.049
-701.543	109.492	0.139	0.168
-700.529	-200.000	0.013	-0.130
-699.514	19.739	0.075	0.061
-698.499	-200.000	0.001	0.350
-697.485	-55.874	-0.220	0.099
-696.470	-53.622	-0.149	0.069
-695.456	621.791	0.093	-0.235
-694.441	763.764	0.049	-0.133
-693.426	343.873	0.143	0.282
-692.412	-38.208	0.164	0.087
-691.397	544.845	-0.146	0.350
-690.383	189.139	-0.046	-0.069
-689.368	-143.902	-0.038	-0.004
-688.354	87.345	-0.056	0.062
-687.339	324.863	-0.027	0.051
-686.324	-162.310	0.137	0.007
-685.310	90.985	0.204	-0.229
-684.295	-122.429	0.135	0.022
-683.281	800.000	-0.055	-0.218
-682.266	-200.000	-0.007	-0.494
-681.251	-52.262	-0.288	0.134
-680.237	327.606	0.195	0.376
-679.222	-200.000	-0.027	-0.261
-678.208	-200.000	0.015	0.099
-677.193	-200.000	0.056	0.390
-676.178	263.989	0.149	0.260
-675.164	-200.000	-0.028	-0.171
-674.149	193.080	-0.103	-0.157
-673.135	800.000	-0.073	-0.261
-672.120	-111.878	-0.184	0.037
-671.105	-64.601	-0.204	0.083
-670.091	800.000	-0.029	0.093
-669.076	-200.000	-0.003	-0.088
-668.062	94.787	-0.166	-0.190
-667.047	-112.553	0.099	0.020
-666.032	-72.963	0.099	0.036
-665.018	254.102	0.095	0.163
-664.003	-153.348	-0.442	0.031
-662.989	63.332	0.100	-0.101
-661.974	-90.511	-0.382	-0.111
-660.959	-9.739	0.261	0.175
-659.945	197.954	0.179	-0.274
-658.930	70.218	-0.294	0.304
-657.916	-81.263	0.220	0.073
-656.901	-11.454	-0.417	0.275
-655.886	800.000	-0.053	-0.168
-654.872	63.906	-0.122	-0.123
-653.857	24.087	0.154	-0.128
-652.843	255.592	0.059	0.102
-651.828	347.010	-0.146	0.289
-650.814	-127.170	-0.374	0.055
-649.799	-200.000	-0.059	-0.294
-648.784	429.786	0.074	0.160
-647.770	-200.000	-0.023	0.130
-646.755	-38.784	0.063	-0.033
-645.741	85.383	0.040	-0.044
-644.726	208.344	0.167	0.262
-643.711	-56.097	0.182	-0.081
-642.697	800.000	-0.162	-0.457
-641.682	-154.394	-0.304	0.020
-640.668	0.518	0.094	-0.067
-639.653	800.000	0.090	-0.277
-638.638	419.864	0.151	-0.324
-637.624	-155.941	0.072	0.005
-636.609	-46.619	-0.126	-0.062
-635.595	-66.655	0.335	0.133
-634.580	91.344	-0.032	-0.035
-633.565	800.000	0.087	-0.352
-632.551	-140.154	0.368	-0.039
-631.536	-2.471	-0.286	0.201
-630.522	-200.000	-0.037	0.320
-629.507	41.316	-0.100	0.091
-628.492	230.789	-0.074	0.121
-627.478	-53.465	0.126	-0.058
-626.463	800.000	-0.072	-0.295
-625.449	16.473	0.091	0.072
-624.434	800.000	0.043	0.127
-623.419	-200.000	0.024	0.163
-622.405	74.018	-0.357	-0.376
-621.390	800.000	-0.033	-0.098
-620.376	-144.068	-0.216	0.020
-619.361	35.624	-0.259	0.228
-618.346	-106.603	0.275	0.061
-617.332	-2.174	0.054	-0.038
-616.317	-59.186	-0.317	-0.137
-615.303	-125.416	-0.190	-0.029
-614.288	259.600	-0.210	-0.363
-613.273	178.644	-0.068	-0.100
-612.259	800.000	-0.039	0.160
-611.244	-1.039	-0.289	-0.205
-610.230	-18.351	-0.452	-0.283
-609.215	-200.000	-0.011	-0.126
-608.201	-7.817	0.121	0.082
-607.186	503.477	-0.039	-0.089
-606.171	-138.093	0.218	0.024
-605.157	-86.130	0.370	0.114
-604.142	511.186	0.094	-0.219
-603.128	25.712	-0.176	0.147
-602.113	27.323	-0.223	0.187
-601.098	123.171	0.137	0.171
-600.084	-200.000	-0.031	-0.195
-599.069	-156.166	0.068	0.004
-598.055	115.952	-0.108	0.132
-597.040	-200.000	-0.005	0.178
-596.025	800.000	-0.097	0.316
-595.011	-97.334	-0.151	-0.039
-593.996	-27.587	0.054	0.031
-592.982	800.000	0.165	-0.489
-591.967	182.986	0.069	-0.101
-590.952	472.170	-0.158	-0.356
-589.938	800.000	0.016	-0.067
-588.923	17.213	-0.076	0.060
-587.909	0.014	-0.123	0.087
-586.894	39.627	-0.133	0.119
-585.879	-200.000	-0.006	-0.211
-584.865	85.568	-0.206	-0.227
-583.850	149.289	0.123	-0.166
-582.836	492.336	0.022	-0.051
-581.821	-175.808	0.295	-0.008
-580.806	-200.000	0.097	-0.466
-579.792	-16.459	-0.086	0.055
-578.777	800.000	0.022	-0.092
-577.763	-75.745	-0.135	-0.048
-576.748	-56.591	0.111	0.049
-575.733	-73.986	-0.090	0.033
-574.719	-130.487	0.271	0.037
-573.704	49.394	0.066	0.062
-572.690	106.612	-0.250	0.297
-571.675	-54.453	-0.235	-0.106
-570.661	182.740	-0.083	0.122
-569.646	81.992	0.091	-0.099
-568.631	293.032	-0.079	-0.143
-567.617	61.655	0.086	-0.085
-566.602	-8.681	-0.015	0.010
-565.588	-69.933	-0.216	-0.082
-564.573	800.000	-0.155	-0.477
-563.558	180.248	-0.205	-0.300
-562.544	38.667	0.094	-0.084
-561.529	-59.923	-0.357	-0.153
-560.515	186.015	-0.058	0.086
-559.500	651.972	0.058	-0.147
-558.485	99.785	0.076	0.088
-557.471	411.278	0.098	-0.209
-556.456	-20.581	0.138	0.085
-555.442	140.694	-0.059	0.078
-554.427	-200.000	-0.019	0.123
-553.412	-200.000	-0.011	-0.203
-552.398	-170.140	0.159	0.006
-551.383	-60.404	0.238	-0.101
-550.369	17.191	-0.075	0.059
-549.354	272.098	-0.104	-0.184
-548.339	-200.000	0.009	-0.171
-547.325	-92.834	0.303	-0.085
-546.310	-65.656	-0.369	-0.148
-545.296	153.514	-0.079	0.108
-544.281	-138.609	-0.275	-0.030
-543.266	112.073	0.061	0.074
-542.252	-54.212	-0.184	-0.084
-541.237	30.196	0.321	0.273
-540.223	-200.000	0.040	0.232
-539.208	-82.547	-0.199	0.064
-538.193	436.303	0.127	-0.275
-537.179	29.255	0.056	0.048
-536.164	84.790	-0.039	-0.043
-535.150	-0.609	0.133	-0.094
-534.135	-195.828	-0.250	0.002
-533.121	188.245	-0.220	-0.329
-532.106	-30.233	0.120	0.068
-531.091	800.000	-0.008	0.024
-530.077	800.000	-0.114	-0.364
-529.062	281.598	0.151	-0.270
-528.048	-49.138	-0.206	-0.098
-527.033	-25.501	-0.151	0.089
-526.018	-200.000	0.006	0.089
-525.004	296.404	-0.041	0.076
-523.989	-48.395	0.094	0.045
-522.975	153.958	-0.032	0.044
-521.960	-77.643	-0.240	-0.083
-520.945	-200.000	-0.024	-0.183
-519.931	-52.272	0.257	-0.119
-518.916	-200.000	-0.005	0.055
-517.902	-35.641	-0.220	-0.119
-516.887	-200.000	0.022	-0.367
-515.872	12.742	-0.071	0.054
-514.858	-65.454	-0.164	-0.066
-513.843	49.902	-0.166	0.156
-512.829	-32.407	-0.122	0.068
-511.814	-153.423	-0.210	-0.015
-510.799	-31.094	0.207	0.116
-509.785	-25.755	0.078	-0.046
-508.770	37.086	0.042	0.037
-507.756	-130.375	0.124	-0.017
-506.741	13.304	0.127	0.098
-505.726	419.678	0.137	0.292
-504.712	55.870	0.223	-0.216
-503.697	57.179	0.278	-0.270
-502.683	-153.278	-0.279	0.019
-501.668	800.000	-0.007	-0.027
-500.653	-41.132	0.068	-0.035
-499.639	-200.000	-0.048	0.221
-498.624	-200.000	-0.002	0.055
-497.610	-200.000	-0.016	0.078
-496.595	-54.919	-0.238	0.107
-495.581	420.812	-0.044	-0.093
-494.566	-200.000	0.026	0.181
-493.551	-200.000	-0.010	0.288
-492.537	52.962	-0.300	-0.286
-491.522	-200.000	-0.002	0.190
-490.508	-200.000	0.014	0.091
-489.493	-24.185	0.235	0.140
-488.478	-200.000	0.003	-0.252
-487.464	515.551	0.142	0.331
-486.449	-200.000	-0.031	-0.158
-485.435	37.584	0.200	-0.177
-484.420	800.000	-0.056	-0.235
-483.405	102.541	0.088	-0.103
-482.391	-38.428	0.423	0.223
-481.376	800.000	-0.037	0.109
-480.362	-200.000	0.071	-0.456
-479.347	14.300	0.213	-0.165
-478.332	-10.777	-0.140	-0.092
-477.318	92.368	0.115	0.130
-476.303	-200.000	-0.046	0.266
-475.289	112.131	-0.147	0.177
-474.274	-78.661	-0.040	0.013
-473.259	-76.975	0.441	-0.153
-472.245	800.000	-0.036	-0.115
-471.230	-42.495	-0.205	0.104
-470.216	800.000	0.029	0.107
-469.201	-200.000	-0.015	-0.070
-468.186	416.291	0.064	0.135
-467.172	402.965	0.100	0.209
-466.157	360.976	-0.131	-0.262
-465.143	475.745	0.137	-0.307
-464.128	-57.378	0.130	-0.057
-463.113	-101.963	-0.157	0.038
-462.099	39.828	0.058	-0.052
-461.084	-57.553	-0.181	0.079
-460.070	16.261	-0.052	0.041
-459.055	81.643	-0.125	-0.134
-458.040	89.950	0.192	-0.214
-457.026	-13.239	-0.094	-0.061
-456.011	-200.000	-0.036	-0.301
-454.997	373.476	-0.187	-0.378
-453.982	-200.000	-0.039	-0.223
-452.968	215.378	-0.080	0.126
-451.953	-22.546	-0.076	0.045
-450.938	800.000	-0.066	-0.241
-449.924	28.606	0.149	-0.126
-448.909	-149.957	0.113	0.009
-447.895	-200.000	0.028	-0.174
-446.880	-9.736	-0.417	-0.276
-445.865	206.642	-0.067	-0.104
-444.851	165.869	-0.047	-0.066
-443.836	800.000	0.064	-0.209
-442.822	-200.000	0.006	0.081
-441.807	133.730	0.013	0.017
-440.792	-110.897	0.228	0.047
-439.778	800.000	0.048	0.134
-438.763	800.000	-0.052	-0.191
-437.749	378.194	0.009	0.018
-436.734	21.585	-0.151	-0.122
-435.719	-103.147	0.176	-0.041
-434.705	-60.862	-0.188	0.079
-433.690	203.407	0.052	-0.080
-432.676	2.141	-0.229	-0.165
-431.661	55.710	0.186	-0.179
-430.646	44.946	0.166	-0.152
-429.632	53.143	-0.206	0.196
-428.617	-200.000	-0.069	0.314
-427.603	-112.674	0.169	-0.033
-426.588	-63.710	-0.330	0.135
-425.573	655.292	-0.062	-0.158
-424.559	-200.000	-0.002	-0.172
-423.544	144.552	0.151	0.201
-422.530	-118.783	0.056	0.010
-421.515	-95.161	-0.156	-0.042
-420.500	800.000	0.051	-0.219
-419.486	12.245	-0.296	0.227
-418.471	-91.647	0.313	0.088
-417.457	-56.146	-0.170	-0.075
-416.442	-200.000	0.039	-0.250
-415.428	800.000	0.037	0.133
-414.413	800.000	-0.060	0.196
-413.398	322.950	-0.065	0.123
-412.384	-43.740	-0.108	0.054
-411.369	84.877	-0.263	0.287
-410.355	-39.997	0.302	0.156
-409.340	800.000	0.095	-0.280
-408.325	-24.292	0.152	0.090
-407.311	-129.557	0.202	0.028
-406.296	294.777	-0.073	0.133
-405.282	66.932	0.116	-0.117
-404.267	36.776	-0.100	-0.088
-403.252	-200.000	0.011	0.065
-402.238	-63.096	0.082	0.034
-401.223	-40.206	-0.284	0.147
-400.209	-200.000	0.054	0.360
-399.194	800.000	0.070	0.216
-398.179	28.361	0.281	-0.236
-397.165	102.092	-0.256	0.297
-396.150	209.612	-0.216	0.336
-395.136	8.786	-0.082	-0.061
-394.121	-66.149	0.180	-0.071
-393.106	800.000	-0.066	0.216
-392.092	-114.719	-0.113	0.022
-391.077	293.913	-0.118	-0.214
-390.063	-135.468	-0.162	0.019
-389.048	-90.352	0.279	0.080
-388.033	-50.171	-0.153	-0.072
-387.019	-23.090	-0.147	0.088
-386.004	-85.533	-0.240	0.074
-384.990	-161.513	0.175	-0.009
-383.975	-8.581	-0.120	0.080
-382.960	90.151	-0.118	0.131
-381.946	-147.334	0.113	-0.009
-380.931	-150.541	0.060	0.005
-379.917	-76.744	-0.239	-0.083
-378.902	800.000	0.059	-0.175
-377.888	-164.598	-0.063	0.003
-376.873	296.203	-0.199	0.363
-375.858	-200.000	0.036	0.341
-374.844	531.686	-0.080	0.188
-373.829	-140.739	-0.181	0.019
-372.815	-200.000	-0.002	-0.216
-371.800	-110.706	-0.119	-0.024
-370.785	161.742	0.129	0.179
-369.771	84.098	0.257	-0.278
-368.756	-116.888	-0.213	-0.039
-367.742	800.000	-0.023	0.100
-366.727	-148.089	0.030	0.002
-365.712	800.000	0.087	0.245
-364.698	184.722	0.119	-0.175
-363.683	-163.384	0.298	0.014
-362.669	339.165	0.117	0.226
-361.654	169.132	0.172	0.244
-360.639	77.196	0.328	-0.346
-359.625	-127.129	0.034	0.005
-358.610	77.515	0.083	-0.088
-357.596	-184.089	0.189	0.003
-356.581	-200.000	-0.044	-0.322
-355.566	800.000	-0.023	0.074
-354.552	-30.455	0.268	0.150
-353.537	-32.981	0.403	-0.222
-352.523	273.425	0.079	0.138
-351.508	-200.000	0.056	0.287
-350.493	242.517	-0.046	-0.076
-349.479	800.000	-0.140	0.454
-348.464	800.000	0.027	0.078
-347.450	-17.371	0.309	-0.192
-346.435	-117.015	0.277	-0.050
-345.420	-200.000	-0.076	0.349
-344.406	453.642	-0.076	0.166
-343.391	1.731	-0.294	0.210
-342.377	-200.000	-0.041	0.403
-341.362	447.219	-0.062	0.135
-340.348	37.234	-0.017	0.015
-339.333	552.811	-0.100	-0.239
-338.318	800.000	0.112	0.307
-337.304	132.872	0.101	0.129
-336.289	137.082	0.360	-0.466
-335.275	-200.000	-0.029	0.252
-334.260	800.000	-0.031	0.119
-333.245	-200.000	-0.019	-0.369
-332.231	11.497	0.160	-0.121
-331.216	-200.000	-0.023	0.457
-330.202	-156.384	-0.035	0.002
-329.187	-119.790	0.259	0.044
-328.172	-200.000	-0.053	-0.242
-327.158	339.093	0.032	-0.061
-326.143	-24.981	0.053	0.031
-325.129	800.000	0.059	0.244
-324.114	-68.555	0.173	-0.066
-323.099	-113.462	0.224	-0.043
-322.085	-33.066	0.202	-0.111
-321.070	-200.000	0.041	-0.246
-320.056	-200.000	0.028	0.156
-319.041	-114.932	0.249	0.047
-318.026	-200.000	-0.002	-0.244
-317.012	24.062	0.125	0.102
-315.997	-85.872	0.223	0.068
-314.983	-136.273	-0.250	0.029
-313.968	167.899	0.155	0.218
-312.953	-115.835	-0.172	0.032
-311.939	-200.000	0.002	-0.010
-310.924	22.564	-0.302	0.245
-309.910	187.731	0.157	-0.231
-308.895	-148.700	-0.059	-0.005
-307.880	-92.113	-0.036	-0.010
-306.866	143.175	-0.109	-0.144
-305.851	800.000	-0.025	-0.096
-304.837	-146.045	-0.229	0.020
-303.822	214.417	-0.146	-0.229
-302.807	-176.469	0.290	0.007
-301.793	70.573	0.221	0.227
-300.778	-193.975	0.270	-0.002
-299.764	32.056	-0.230	0.196
-298.749	-189.372	-0.243	0.003
-297.735	-49.840	-0.269	-0.126
-296.720	211.935	0.147	0.229
-295.705	49.574	-0.224	0.208
-294.691	-200.000	-0.032	-0.238
-293.676	-200.000	-0.019	0.173
-292.662	-38.631	0.246	-0.128
-291.647	-200.000	-0.057	0.277
-290.632	-46.413	-0.068	0.033
-289.618	800.000	-0.018	0.071
-288.603	-0.684	0.198	0.139
-287.589	401.786	0.040	-0.083
-286.574	493.541	-0.171	-0.387
-285.559	-137.019	0.297	0.034
-284.545	800.000	-0.038	0.114
-283.530	-167.483	-0.089	0.004
-282.516	800.000	0.056	0.180
-281.501	169.120	-0.100	-0.141
-280.486	-93.701	-0.496	0.135
-279.472	776.608	0.088	-0.236
-278.457	-56.836	-0.162	-0.071
-277.443	67.282	0.422	0.425
-276.428	-107.480	0.101	0.022
-275.413	46.046	-0.028	-0.026
-274.399	-200.000	-0.004	-0.080
-273.384	251.233	0.117	0.196
-272.370	95.190	0.359	0.404
-271.355	800.000	-0.049	-0.156
-270.340	5.211	-0.147	0.107
-269.326	800.000	0.090	-0.377
-268.311	-54.969	0.225	0.100
-267.297	-200.000	0.024	-0.380
-266.282	-117.505	0.463	0.083
-265.267	401.954	0.148	0.308
-264.253	-69.682	0.411	-0.155
-263.238	-200.000	0.010	0.054
-262.224	20.849	0.343	-0.274
-261.209	72.902	-0.173	-0.179
-260.195	-41.186	-0.193	0.098
-259.180	-24.110	-0.274	0.162
-258.165	95.423	0.161	-0.181
-257.151	-66.691	-0.336	-0.131
-256.136	-24.576	0.295	-0.173
-255.122	22.944	0.093	-0.076
-254.107	-84.614	-0.025	0.008
-253.092	86.911	0.045	0.049
-252.078	800.000	-0.085	0.316
-251.063	-200.000	0.006	-0.141
-250.049	-200.000	-0.023	-0.233
-249.034	800.000	0.118	0.368
-248.019	800.000	-0.064	0.234
-247.005	-29.147	-0.437	0.247
-245.990	800.000	-0.015	0.058
-244.976	-181.414	0.205	0.004
-243.961	-69.195	0.175	0.066
-242.946	-73.008	-0.130	0.047
-241.932	5.088	0.359	-0.261
-240.917	570.365	0.103	0.246
-239.903	-143.494	-0.340	0.032
-238.888	-128.095	-0.401	0.057
-237.873	-73.296	0.305	0.110
-236.859	-133.247	0.318	0.040
-235.844	-200.000	0.027	-0.212
-234.830	39.836	0.064	-0.056
-233.815	-13.905	-0.380	-0.242
-232.800	-200.000	-0.039	0.254
-231.786	91.332	0.067	0.074
-230.771	704.901	-0.002	0.006
-229.757	-200.000	0.042	-0.225
-228.742	-71.191	0.285	0.105
-227.727	201.138	-0.152	-0.231
-226.713	800.000	0.039	-0.143
-225.698	-53.743	-0.173	-0.078
-224.684	-93.199	0.164	-0.045
-223.669	125.046	-0.145	0.180
-222.655	-107.421	0.164	0.035
-221.640	-25.078	-0.283	0.166
-220.625	-200.000	-0.196	-0.000
-219.611	-65.497	-0.086	0.034
-218.596	190.755	-0.094	0.139
-217.582	14.700	0.271	0.209
-216.567	633.262	-0.036	0.089
-215.552	800.000	0.173	0.525
-214.538	-39.188	0.328	-0.170
-213.523	-1.651	-0.279	0.194
-212.509	-200.000	0.056	0.262
-211.494	-127.229	0.122	0.018
-210.479	-153.393	0.114	0.008
-209.465	281.253	0.122	-0.215
-208.450	94.511	-0.128	-0.144
-207.436	34.678	0.291	-0.251
-206.421	562.331	0.044	0.104
-205.406	39.951	-0.193	-0.171
-204.392	-39.119	-0.082	-0.042
-203.377	233.890	-0.165	-0.267
-202.363	-200.000	0.020	0.115
-201.348	-200.000	0.016	0.118
-200.333	-55.565	0.149	-0.066
-199.319	5.254	-0.147	-0.107
-198.304	-200.000	-0.013	0.328
-197.290	58.323	0.129	-0.124
-196.275	-91.071	-0.365	0.103
-195.260	-50.782	-0.169	-0.078
-194.246	305.265	-0.065	0.119
-193.231	-200.000	-0.017	0.087
-192.217	-130.027	0.327	0.044
-191.202	800.000	-0.042	-0.121
-190.187	800.000	-0.043	0.120
-189.173	-200.000	0.039	-0.246
-188.158	129.342	0.045	0.057
-187.144	-130.395	0.398	-0.053
-186.129	784.351	0.166	0.448
-185.114	-120.349	-0.056	-0.009
-184.100	57.398	-0.284	0.273
-183.085	-57.255	0.172	-0.074
-182.071	800.000	0.125	0.354
-181.056	649.825	-0.109	-0.275
-180.042	-200.000	0.023	-0.180
-179.027	-200.000	0.020	-0.318
-178.012	44.054	-0.310	0.279
-176.998	-200.000	0.023	0.201
-175.983	-77.089	0.554	-0.190
-174.969	-24.950	-0.351	0.205
-173.954	-92.409	0.331	0.092
-172.939	-200.000	-0.003	-0.079
-171.925	474.512	-0.131	0.291
-170.910	0.163	0.131	-0.092
-169.896	193.950	-0.131	-0.195
-168.881	34.975	0.176	0.152
-167.866	-42.952	-0.252	0.126
-166.852	-176.430	-0.099	0.003
-165.837	800.000	-0.052	-0.216
-164.823	75.460	-0.196	0.203
-163.808	-185.481	-0.402	0.006
-162.793	18.939	0.282	-0.222
-161.779	718.163	-0.181	0.473
-160.764	800.000	0.148	0.430
-159.750	495.938	-0.059	0.134
-158.735	-200.000	-0.008	-0.099
-157.720	800.000	0.034	0.114
-156.706	124.215	-0.140	-0.173
-155.691	63.179	0.098	0.096
-154.677	-200.000	0.084	0.428
-153.662	-126.362	-0.103	-0.015
-152.647	-74.793	-0.265	0.093
-151.633	-110.030	-0.361	0.074
-150.618	-200.000	0.050	0.402
-149.604	-72.172	0.335	0.122
-148.589	438.336	-0.118	-0.253
-147.574	211.962	-0.154	-0.239
-146.560	-200.000	-0.042	0.195
-145.545	-11.703	0.233	0.150
-144.531	658.103	-0.031	-0.078
-143.516	-13.865	0.295	-0.187
-142.502	588.918	-0.057	-0.139
-141.487	-28.841	-0.396	0.224
-140.472	98.084	0.174	-0.197
-139.458	24.812	-0.216	0.176
-138.443	-15.162	0.290	0.182
-137.429	-67.913	-0.167	0.064
-136.414	-200.000	-0.040	0.209
-135.399	73.958	-0.338	0.348
-134.385	381.693	0.074	0.149
-133.370	265.351	0.097	-0.166
-132.356	-57.397	-0.186	0.080
-131.341	145.100	0.087	0.114
-130.326	-200.000	0.055	0.242
-129.312	-145.398	-0.191	0.017
-128.297	-74.381	0.182	-0.065
-127.283	-32.288	-0.153	-0.084
-126.268	800.000	0.051	-0.216
-125.253	74.739	-0.395	-0.408
-124.239	-143.510	-0.256	-0.024
-123.224	-120.239	0.205	-0.034
-122.210	34.023	0.331	-0.283
-121.195	214.247	0.063	0.098
-120.180	286.022	-0.087	-0.154
-119.166	430.846	0.130	-0.276
-118.151	-200.000	-0.022	0.158
-117.137	125.168	0.070	0.087
-116.122	-8.779	0.224	-0.148
-115.107	-106.359	-0.112	0.025
-114.093	-200.000	-0.004	0.041
-113.078	-200.000	-0.085	0.454
-112.064	-116.802	0.337	0.061
-111.049	-64.844	0.356	0.141
-110.034	-43.868	0.177	0.088
-109.020	192.552	-0.043	0.064
-108.005	204.712	-0.176	0.269
-106.991	104.666	0.052	0.060
-105.976	174.420	0.177	-0.251
-104.962	43.576	0.112	0.101
-103.947	-138.394	0.329	-0.036
-102.932	-164.570	-0.134	-0.006
-101.918	369.104	0.157	-0.311
-100.903	413.094	0.067	0.140
-99.889	170.242	-0.151	-0.212
-98.874	46.425	0.241	-0.219
-97.859	183.341	0.048	-0.070
-96.845	16.595	0.254	-0.197
-95.830	61.016	0.212	0.206
-94.816	366.361	0.217	-0.430
-93.801	430.646	-0.022	0.046
-92.786	-200.000	0.024	-0.118
-91.772	800.000	0.090	0.285
-90.757	-11.641	0.092	0.060
-89.743	23.610	0.120	-0.097
-88.728	139.069	0.143	-0.184
-87.713	163.799	-0.222	-0.306
-86.699	282.816	-0.191	-0.335
-85.684	274.569	-0.106	0.184
-84.670	-200.000	0.040	-0.315
-83.655	138.304	0.012	0.015
-82.640	-76.721	-0.122	-0.042
-81.626	36.376	0.048	0.041
-80.611	-14.143	0.175	-0.111
-79.597	-135.525	0.442	0.052
-78.582	-16.759	0.212	0.132
-77.567	487.186	0.175	0.391
-76.553	-146.216	0.194	0.017
-75.538	-126.587	0.043	-0.006
-74.524	90.948	0.196	0.216
-73.509	68.131	-0.153	0.153
-72.494	-200.000	-0.015	-0.140
-71.480	-124.713	0.177	-0.027
-70.465	-99.027	0.157	0.039
-69.451	-99.181	-0.130	-0.032
-68.436	-39.402	0.357	-0.183
-67.422	352.099	-0.064	-0.123
-66.407	-139.353	0.056	0.006
-65.392	720.635	-0.088	-0.229
-64.378	391.648	0.088	0.179
-63.363	-153.826	0.155	-0.010
-62.349	800.000	-0.078	0.242
-61.334	32.383	-0.969	-0.820
-60.319	63.861	0.480	0.473
-59.305	361.856	-0.601	-1.181
-58.290	668.530	0.455	1.154
-57.276	617.250	0.667	1.640
-56.261	-200.000	109.912	605.142
-55.246	507.019	1501.762	3412.187
-54.232	177.717	2692.014	3843.622
-53.217	103.409	2281.962	2622.007
-52.203	38.225	1892.215	1649.949
-51.188	32.611	1681.652	1424.005
-50.173	29.977	1638.355	1367.862
-49.159	48.034	1693.984	1550.584
-48.144	48.515	1708.730	1567.636
-47.130	31.901	1665.878	1405.109
-46.115	29.348	1650.955	1373.478
-45.100	29.244	1645.793	1368.360
-44.086	29.184	1643.187	1365.693
-43.071	29.175	1640.756	1363.550
-42.057	29.177	1638.158	1361.354
-41.042	29.217	1635.827	1359.656
-40.027	29.165	1634.446	1358.069
-39.013	29.130	1632.208	1355.903
-37.998	29.109	1630.586	1354.345
-36.984	29.211	1629.240	1353.919
-35.969	29.231	1628.058	1353.035
-34.954	29.279	1626.493	1352.034
-33.940	29.259	1624.967	1350.566
-32.925	29.325	1622.949	1349.314
-31.911	29.307	1621.497	1347.925
-30.896	29.285	1619.785	1346.281
-29.881	29.314	1617.731	1344.739
-28.867	29.307	1616.454	1343.570
-27.852	29.289	1614.780	1341.992
-26.838	29.372	1613.350	1341.358
-25.823	29.434	1611.663	1340.349
-24.809	29.315	1610.794	1338.711
-23.794	29.275	1609.931	1337.650
-22.779	29.351	1607.714	1336.303
-21.765	29.343	1606.011	1334.776
-20.750	29.298	1604.622	1333.247
-19.736	29.363	1603.363	1332.616
-18.721	29.378	1601.760	1331.343
-17.706	29.317	1600.203	1329.550
-16.692	29.324	1598.739	1328.337
-15.677	29.448	1597.191	1327.885
-14.663	29.443	1595.786	1326.628
-13.648	29.442	1594.596	1325.583
-12.633	29.388	1593.036	1323.844
-11.619	29.283	1591.579	1321.827
-10.604	29.307	1590.276	1320.864
-9.590	29.373	1589.327	1320.498
-8.575	29.353	1587.925	1319.136
-7.560	29.349	1586.515	1317.887
-6.546	29.335	1585.532	1316.920
-5.531	29.324	1584.632	1316.041
-4.517	29.352	1583.185	1314.984
-3.502	29.266	1582.417	1313.681
-2.487	29.352	1580.668	1312.788
-1.473	28.986	1568.790	1300.288
-0.458	25.975	1549.248	1262.982
0.556	24.156	1550.367	1231.046
1.571	21.704	1573.713	1232.255
2.586	21.148	1586.826	1238.471
3.600	18.927	1534.034	1181.909
4.615	11.688	1427.205	1053.041
5.629	5.025	1365.673	966.370
6.644	3.721	1358.077	952.871
7.659	3.719	1357.173	952.140
8.673	3.784	1356.411	951.922
9.688	3.757	1354.039	950.008
10.702	3.728	1351.391	947.889
11.717	6.680	1357.325	970.135
12.731	15.032	1372.472	1032.605
13.746	22.096	1383.544	1084.616
14.761	23.951	1385.267	1097.329
15.775	23.357	1384.112	1092.654
16.790	22.598	1381.721	1085.993
17.804	22.019	1380.001	1080.981
18.819	21.934	1378.891	1079.492
19.834	21.885	1377.984	1078.386
20.848	21.936	1377.101	1077.914
21.863	21.728	1376.223	1075.856
22.877	21.728	1375.258	1075.004
23.892	21.497	1374.641	1073.010
24.907	21.538	1373.812	1072.518
25.921	21.557	1372.451	1071.479
26.936	21.495	1371.835	1070.523
27.950	21.677	1370.413	1070.433
28.965	21.686	1369.643	1069.791
29.980	21.843	1368.662	1069.887
30.994	21.995	1368.021	1070.221
32.009	21.964	1366.959	1069.107
33.023	21.881	1366.423	1068.087
34.038	21.725	1364.884	1065.840
35.053	21.766	1362.815	1064.380
36.067	21.689	1362.426	1063.513
37.082	21.677	1361.263	1062.438
38.096	21.801	1360.576	1062.562
39.111	21.743	1360.268	1061.871
40.126	21.713	1358.618	1060.310
41.140	21.342	1357.569	1057.152
42.155	21.114	1357.157	1055.364
43.169	21.065	1356.588	1054.531
44.184	21.107	1356.863	1054.900
45.199	21.282	1356.672	1055.722
46.213	21.565	1356.603	1057.280
47.228	21.700	1355.527	1057.162
48.242	21.676	1354.323	1055.989
49.257	21.525	1353.302	1054.186
50.271	21.621	1351.357	1053.160
51.286	21.564	1350.144	1051.778
52.301	21.462	1349.044	1050.211
53.315	21.421	1347.998	1049.059
54.330	21.241	1347.108	1047.197
55.344	21.273	1345.832	1046.302
56.359	21.207	1344.601	1044.858
57.374	21.196	1343.377	1043.750
58.388	21.050	1342.921	1042.428
59.403	21.017	1342.456	1041.782
60.417	20.957	1341.708	1040.748
61.432	20.783	1340.528	1038.705
62.447	20.881	1339.428	1038.341
63.461	20.764	1338.533	1036.860
64.476	20.782	1337.078	1035.752
65.490	20.746	1336.433	1034.944
66.505	20.826	1334.323	1033.691
67.520	20.916	1333.172	1033.244
68.534	20.815	1332.914	1032.354
69.549	20.699	1331.748	1030.671
70.563	20.573	1330.421	1028.808
71.578	20.604	1328.970	1027.776
72.593	20.488	1328.248	1026.446
73.607	20.498	1327.599	1025.909
74.622	20.579	1326.918	1025.769
75.636	20.682	1326.317	1025.822
76.651	20.603	1326.348	1025.289
77.666	20.739	1324.938	1024.912
78.680	20.789	1324.859	1025.054
79.695	20.868	1324.182	1024.906
80.709	21.114	1323.505	1025.736
81.724	21.154	1323.047	1025.525
82.739	21.280	1322.047	1025.401
83.753	21.483	1321.616	1026.166
84.768	21.677	1321.408	1027.047
85.782	21.895	1320.156	1027.265
86.797	21.857	1318.873	1025.951
87.812	21.761	1317.924	1024.560
88.826	21.699	1316.599	1023.080
89.841	21.624	1315.438	1021.647
90.855	21.784	1314.685	1021.907
91.870	21.853	1314.389	1021.988
92.884	22.011	1313.104	1021.820
93.899	22.025	1312.510	1021.345
94.914	22.040	1311.783	1020.775
95.928	21.962	1310.912	1019.553
96.943	21.862	1310.092	1018.245
97.957	21.794	1308.917	1016.852
98.972	21.895	1308.088	1016.702
99.987	21.773	1307.557	1015.488
101.001	21.759	1306.305	1014.347
102.016	21.843	1305.052	1013.772
103.030	21.854	1304.060	1012.973
104.045	21.671	1303.254	1011.203
105.060	21.581	1301.828	1009.487
106.074	21.246	1299.822	1005.916
107.089	20.919	1298.472	1002.897
108.103	20.844	1297.333	1001.499
109.118	20.812	1295.734	999.993
110.133	20.830	1294.182	998.806
111.147	20.808	1293.574	998.124
112.162	20.858	1292.408	997.425
113.176	21.019	1291.196	997.323
114.191	21.113	1290.120	996.940
115.206	20.970	1289.475	995.536
116.220	21.123	1287.622	994.891
117.235	21.017	1286.566	993.380
118.249	20.780	1285.656	991.241
119.264	20.711	1284.256	989.685
120.279	20.688	1283.163	988.619
121.293	20.608	1281.914	987.117
122.308	20.470	1281.046	985.577
123.322	20.408	1279.935	984.286
124.337	20.436	1278.832	983.510
125.352	20.380	1277.442	982.035
126.366	20.401	1276.484	981.333
127.381	20.271	1275.982	980.127
128.395	20.385	1274.160	979.280
129.410	20.334	1273.415	978.336
130.424	20.545	1272.995	979.113
131.439	20.781	1272.133	979.693
132.454	20.809	1271.818	979.521
133.468	20.895	1271.345	979.553
134.483	20.993	1270.506	979.372
135.497	20.952	1269.493	978.274
136.512	20.869	1268.547	976.990
137.527	20.932	1267.150	976.180
138.541	21.064	1265.636	975.669
139.556	21.060	1264.935	975.019
140.570	21.266	1263.978	975.345
141.585	21.562	1262.710	975.933
142.600	21.576	1262.136	975.479
143.614	21.699	1261.687	975.734
144.629	21.834	1260.925	975.807
145.643	21.800	1260.010	974.825
146.658	21.502	1258.556	971.960
147.673	21.233	1257.060	969.224
148.687	21.181	1255.821	967.894
149.702	20.955	1254.206	965.312
150.716	20.876	1252.828	963.730
151.731	20.772	1251.684	962.189
152.746	20.910	1250.354	961.843
153.760	20.937	1250.010	961.642
154.775	21.122	1249.310	962.042
155.789	21.338	1247.578	961.811
156.804	21.444	1246.462	961.449
157.819	21.383	1245.964	960.641
158.833	21.403	1246.042	960.730
159.848	21.495	1245.511	960.738
160.862	21.566	1243.751	959.685
161.877	21.101	1242.000	955.702
162.892	20.884	1240.799	953.506
163.906	20.849	1239.823	952.483
164.921	20.747	1239.311	951.444
165.935	20.921	1238.591	951.758
166.950	21.131	1238.026	952.385
167.964	21.078	1237.271	951.434
168.979	21.110	1236.281	950.764
169.994	20.984	1235.805	949.627
171.008	21.042	1235.140	949.347
172.023	21.236	1234.891	950.125
173.037	21.354	1234.440	950.337
174.052	21.377	1233.229	949.442
175.067	21.091	1231.950	946.826
176.081	20.862	1230.424	944.327
177.096	20.798	1229.667	943.317
178.110	20.816	1228.560	942.479
179.125	20.918	1227.709	942.298
180.140	21.166	1227.060	943.053
181.154	21.220	1226.413	942.765
182.169	21.502	1224.926	943.060
183.183	21.486	1224.023	942.197
184.198	21.555	1222.901	941.619
185.213	21.512	1222.226	940.783
186.227	21.513	1220.809	939.613
187.242	21.694	1220.079	939.944
188.256	21.751	1219.515	939.730
189.271	21.767	1218.804	939.183
190.286	21.677	1217.220	937.400
191.300	21.262	1215.864	934.054
192.315	21.035	1215.256	932.288
193.329	20.953	1214.834	931.445
194.344	20.952	1214.200	930.874
195.359	20.954	1213.785	930.482
196.373	21.023	1212.988	930.155
197.388	21.190	1213.200	931.126
198.402	21.606	1212.645	932.838
199.417	21.757	1212.438	933.399
200.432	21.891	1211.982	933.678
201.446	21.988	1211.642	933.851
202.461	22.147	1210.350	933.618
203.475	22.038	1209.383	932.208
204.490	21.737	1208.170	929.594
205.504	21.517	1206.487	927.050
206.519	21.420	1205.441	925.652
207.534	21.288	1204.171	923.900
208.548	21.298	1203.556	923.397
209.563	21.242	1202.871	922.495
210.577	21.325	1201.432	921.750
211.592	21.513	1200.990	922.315
212.607	21.679	1200.589	922.801
213.621	21.722	1199.783	922.328
214.636	21.600	1199.244	921.187
215.650	21.759	1198.067	921.040
216.665	21.994	1197.195	921.521
217.680	22.044	1197.140	921.662
218.694	22.177	1196.235	921.580
219.709	21.938	1195.455	919.644
220.723	21.933	1194.318	918.663
221.738	21.839	1193.638	917.568
222.753	21.805	1192.802	916.665
223.767	21.787	1192.416	916.190
224.782	21.982	1191.852	916.697
225.796	22.230	1190.945	917.210
226.811	22.088	1190.437	916.001
227.826	21.883	1189.723	914.298
228.840	21.789	1188.728	912.963
229.855	21.721	1187.672	911.720
230.869	21.732	1187.125	911.277
231.884	21.566	1185.902	909.396
232.899	21.440	1184.996	907.966
233.913	21.323	1184.626	906.995
234.928	21.135	1183.773	905.284
235.942	21.202	1182.633	904.683
236.957	21.173	1181.668	903.713
237.972	21.179	1180.935	903.102
238.986	21.254	1180.967	903.438
240.001	21.267	1180.248	902.875
241.015	21.216	1179.408	901.889
242.030	21.439	1178.300	902.110
243.045	21.561	1178.258	902.626
244.059	21.703	1177.081	902.377
245.074	21.732	1176.569	902.053
246.088	21.797	1176.011	901.882
247.103	22.009	1175.048	902.151
248.117	22.069	1174.740	902.145
249.132	22.351	1174.253	903.138
250.147	22.654	1173.992	904.411
251.161	22.906	1173.327	905.108
252.176	22.988	1172.754	905.009
253.190	22.934	1172.515	904.466
254.205	23.059	1171.982	904.617
255.220	23.044	1171.438	904.038
256.234	23.063	1170.421	903.272
257.249	22.926	1170.149	902.282
258.263	22.978	1169.024	901.599
259.278	22.818	1168.471	900.277
260.293	22.925	1168.052	900.420
261.307	22.931	1167.546	899.981
262.322	23.004	1167.215	900.017
263.336	22.955	1166.580	899.200
264.351	23.085	1165.917	899.272
265.366	23.106	1165.078	898.647
266.380	23.013	1164.415	897.588
267.395	23.003	1163.179	896.503
268.409	22.794	1162.431	894.791
269.424	22.633	1161.702	893.332
270.439	22.596	1161.676	893.047
271.453	22.603	1160.317	891.958
272.468	22.562	1158.917	890.596
273.482	22.417	1158.418	889.400
274.497	22.401	1157.891	888.839
275.512	22.373	1157.358	888.210
276.526	22.447	1156.245	887.646
277.541	22.557	1155.174	887.303
278.555	22.556	1155.131	887.185
279.570	22.775	1154.767	887.927
280.585	23.044	1154.293	888.839
281.599	22.910	1153.207	887.248
282.614	22.829	1151.535	885.478
283.628	22.579	1150.520	883.369
284.643	22.496	1149.470	882.069
285.657	22.545	1149.174	882.005
286.672	22.558	1148.170	881.222
287.687	22.632	1147.046	880.655
288.701	22.657	1146.379	880.185
289.716	22.747	1145.597	879.960
290.730	22.598	1144.981	878.666
291.745	22.643	1144.323	878.305
292.760	22.756	1143.828	878.410
293.774	22.896	1142.962	878.363
294.789	23.009	1142.997	878.875
295.803	22.944	1142.382	878.000
296.818	22.603	1141.208	875.327
297.833	22.659	1139.857	874.492
298.847	22.641	1139.268	873.873
299.862	22.591	1138.846	873.225
300.876	22.726	1138.209	873.330
301.891	22.825	1137.620	873.290
302.906	23.044	1137.333	874.076
303.920	23.248	1136.585	874.428
304.935	23.161	1136.380	873.763
305.949	23.368	1135.947	874.373
306.964	23.420	1135.373	874.114
307.979	23.151	1134.261	871.855
308.993	23.007	1133.740	870.668
310.008	23.130	1132.584	870.310
311.022	23.187	1132.190	870.207
312.037	23.148	1131.119	869.117
313.052	23.141	1129.775	867.972
314.066	22.699	1129.038	865.162
315.081	22.379	1128.131	862.824
316.095	22.376	1127.457	862.215
317.110	22.500	1126.324	861.882
318.125	22.540	1125.709	861.530
319.139	22.508	1124.884	860.667
320.154	22.409	1124.418	859.749
321.168	22.499	1123.888	859.706
322.183	22.493	1123.152	859.038
323.197	22.541	1123.000	859.080
324.212	22.689	1122.116	859.049
325.227	22.711	1121.628	858.707
326.241	22.698	1120.938	858.037
327.256	22.738	1119.721	857.224
328.270	22.670	1119.144	856.376
329.285	22.497	1118.310	854.826
330.300	22.687	1117.012	854.676
331.314	22.514	1116.325	853.240
332.329	22.562	1115.484	852.753
333.343	22.706	1114.576	852.679
334.358	22.830	1114.085	852.824
335.373	22.912	1113.660	852.821
336.387	22.990	1113.169	852.745
337.402	23.170	1112.589	853.093
338.416	23.239	1111.724	852.689
339.431	23.148	1111.595	852.077
340.446	23.489	1110.703	852.958
341.460	23.681	1110.529	853.672
342.475	23.704	1109.798	853.143
343.489	23.673	1109.211	852.471
344.504	23.912	1108.498	852.993
345.519	23.903	1107.660	852.229
346.533	23.937	1106.993	851.801
347.548	24.018	1105.768	851.172
348.562	23.788	1105.342	849.668
349.577	23.335	1104.237	846.583
350.592	23.259	1102.839	845.073
351.606	23.123	1101.921	843.644
352.621	23.003	1100.932	842.240
353.635	22.794	1100.538	840.870
354.650	22.840	1099.845	840.484
355.665	23.065	1099.147	840.948
356.679	23.188	1098.901	841.270
357.694	23.191	1098.528	840.924
358.708	23.360	1097.670	840.992
359.723	23.421	1097.023	840.712
360.738	23.308	1096.753	839.895
361.752	23.282	1096.231	839.299
362.767	23.389	1095.574	839.229
363.781	23.372	1094.575	838.307
364.796	23.627	1094.491	839.375
365.810	23.815	1094.557	840.242
366.825	24.016	1093.835	840.560
367.840	24.100	1093.384	840.536
368.854	24.151	1093.069	840.460
369.869	24.136	1092.013	839.506
370.883	24.103	1090.587	838.181
371.898	23.839	1089.970	836.388
372.913	23.766	1089.587	835.675
373.927	23.885	1088.959	835.679
374.942	24.066	1088.478	836.088
375.956	23.992	1087.989	835.289
376.971	23.837	1087.572	834.168
377.986	23.937	1087.121	834.216
379.000	24.212	1086.650	835.075
380.015	24.173	1086.467	834.675
381.029	24.225	1085.484	834.090
382.044	24.329	1085.050	834.167
383.059	24.339	1083.644	833.063
384.073	24.212	1083.127	831.996
385.088	24.250	1082.460	831.588
386.102	24.220	1081.196	830.405
387.117	23.875	1080.172	827.935
388.132	23.605	1079.139	825.814
389.146	23.722	1077.766	825.238
390.161	23.631	1077.417	824.472
391.175	23.630	1076.644	823.806
392.190	23.861	1076.194	824.457
393.205	24.053	1075.941	825.079
394.219	23.892	1075.545	823.959
395.234	23.859	1073.925	822.490
396.248	23.711	1072.749	820.834
397.263	23.631	1071.905	819.745
398.278	23.569	1071.034	818.721
399.292	23.522	1070.467	818.001
400.307	23.408	1069.595	816.736
401.321	23.399	1068.821	816.032
402.336	23.433	1068.061	815.536
403.350	23.396	1067.305	814.716
404.365	23.541	1067.136	815.182
405.380	23.693	1066.657	815.439
406.394	23.821	1065.909	815.383
407.409	24.004	1065.772	816.046
408.423	24.175	1065.119	816.257
409.438	24.358	1064.304	816.398
410.453	24.409	1063.579	816.004
411.467	24.445	1063.056	815.696
412.482	24.429	1062.420	815.062
413.496	24.518	1062.189	815.219
414.511	24.619	1061.588	815.147
415.526	24.779	1061.243	815.539
416.540	24.822	1061.215	815.639
417.555	24.801	1060.115	814.626
418.569	24.671	1059.413	813.424
419.584	24.479	1058.966	812.134
420.599	24.437	1058.459	811.483
421.613	156.676	1403.957	1797.706
422.628	144.005	1454.270	1797.806
