DTS Sentinel unit serial number:	SN413079Multiplexer serial number:	ORYXHardware model number:	OX4-SRSoftware version number:	ORYX F/W v4.00 Oryx Data Collector v3.7.2.0data status	okinstallation	princeton_trtdifferential loss correction	single-endedforward channel	channel 2reverse channel	N/Adate	2019/09/16time	19:03:35forward acquisition time	60.00reverse acquisition time	0.00gamma	496.2192k internal	0.2323k external	0.2323temperature offset calibration	0.9961default loss term (dB/km)	0.3790temperature slope calibration	1.0000multiplexer offset coefficient	1.0000multiplexer slope coefficient	1.0000fibre end	0.00T internal ref (°C)	35.47T ext. ref 1 (°C)	0.05T ext. ref 2 (°C)	28.68length (m)	temperature (°C)	Stokes	anti-Stokes-747.200	687.515	-0.103	0.273
-746.185	-200.000	0.015	0.069
-745.171	-200.000	0.059	-0.341
-744.156	-100.824	-0.127	0.032
-743.142	32.245	0.177	0.154
-742.127	646.460	0.011	-0.027
-741.112	109.351	0.057	-0.069
-740.098	317.941	0.076	-0.145
-739.083	-124.305	0.286	-0.045
-738.069	3.987	0.101	0.075
-737.054	111.503	-0.120	0.146
-736.039	79.590	-0.107	0.116
-735.025	-200.000	-0.023	0.107
-734.010	800.000	0.115	0.349
-732.996	800.000	-0.086	-0.363
-731.981	-85.503	-0.311	-0.098
-730.966	129.261	0.082	0.105
-729.952	170.545	0.130	0.187
-728.937	-122.549	-0.124	0.020
-727.923	-20.528	-0.087	0.054
-726.908	88.017	-0.385	0.431
-725.894	-65.230	0.236	0.096
-724.879	-87.581	0.143	0.044
-723.864	446.348	0.104	0.231
-722.850	102.635	-0.176	0.208
-721.835	-200.000	0.030	0.156
-720.821	6.184	0.345	0.258
-719.806	793.138	0.170	0.473
-718.791	-114.129	-0.193	-0.038
-717.777	-155.236	0.212	0.014
-716.762	22.635	0.132	-0.109
-715.748	113.434	-0.160	0.196
-714.733	-116.435	0.269	0.050
-713.718	430.797	-0.069	0.151
-712.704	-19.186	-0.248	-0.155
-711.689	104.338	-0.167	-0.199
-710.675	-200.000	-0.045	0.212
-709.660	276.777	0.197	-0.353
-708.645	496.663	0.061	0.142
-707.631	-86.915	-0.332	0.102
-706.616	-200.000	-0.040	-0.292
-705.602	24.770	-0.064	0.053
-704.587	-200.000	0.006	-0.167
-703.572	-106.246	0.282	0.064
-702.558	-200.000	0.035	0.512
-701.543	141.121	0.138	0.184
-700.529	800.000	0.048	-0.154
-699.514	-133.795	0.268	-0.034
-698.499	379.953	0.046	0.095
-697.485	41.350	0.229	-0.209
-696.470	-200.000	-0.089	-0.403
-695.456	-144.409	-0.162	0.015
-694.441	56.640	-0.030	-0.030
-693.426	-200.000	-0.017	-0.137
-692.412	93.462	-0.255	-0.291
-691.397	-109.807	-0.123	-0.026
-690.383	141.765	-0.133	0.178
-689.368	39.733	0.149	-0.135
-688.354	-62.250	0.150	0.063
-687.339	40.848	0.324	-0.294
-686.324	-91.020	-0.027	-0.008
-685.310	-100.627	-0.159	-0.040
-684.295	-84.110	0.274	-0.088
-683.281	-131.049	-0.154	-0.021
-682.266	-89.165	-0.233	0.069
-681.251	-60.104	-0.113	-0.049
-680.237	800.000	-0.101	0.341
-679.222	-30.605	0.100	-0.057
-678.208	-200.000	-0.010	0.197
-677.193	-200.000	-0.049	-0.425
-676.178	800.000	-0.061	-0.214
-675.164	-113.082	-0.146	0.029
-674.149	-38.355	0.151	0.080
-673.135	12.370	0.082	-0.063
-672.120	296.096	0.126	0.233
-671.105	7.456	0.234	-0.176
-670.091	213.818	0.050	-0.080
-669.076	-137.635	0.186	0.021
-668.062	-50.859	-0.382	0.181
-667.047	-127.940	0.192	0.028
-666.032	73.058	-0.207	0.218
-665.018	-3.893	0.321	-0.224
-664.003	306.412	-0.099	-0.186
-662.989	-139.930	0.205	0.022
-661.974	-108.121	-0.192	-0.042
-660.959	800.000	-0.018	0.056
-659.945	-200.000	0.033	-0.307
-658.930	301.411	-0.043	0.079
-657.916	135.134	0.110	-0.144
-656.901	177.506	0.035	-0.052
-655.886	-22.454	0.243	0.148
-654.872	99.756	-0.242	0.283
-653.857	-144.664	0.086	-0.008
-652.843	-182.104	-0.291	0.006
-651.828	800.000	0.037	0.152
-650.814	-200.000	0.026	0.428
-649.799	-23.873	-0.292	-0.176
-648.784	-4.966	0.026	-0.018
-647.770	10.964	0.283	-0.217
-646.755	53.680	-0.203	-0.196
-645.741	218.032	-0.085	0.137
-644.726	-63.029	0.125	0.052
-643.711	-116.964	0.154	0.028
-642.697	51.193	-0.191	0.182
-641.682	-51.478	-0.218	-0.102
-640.668	44.060	-0.032	0.029
-639.653	303.513	-0.091	0.170
-638.638	-29.401	-0.201	-0.116
-637.624	25.076	-0.174	-0.145
-636.609	-200.000	-0.004	-0.304
-635.595	93.784	-0.052	-0.059
-634.580	15.666	-0.310	-0.245
-633.565	619.325	0.093	-0.234
-632.551	156.549	0.195	-0.270
-631.536	284.159	-0.102	0.184
-630.522	152.852	-0.151	-0.208
-629.507	800.000	-0.086	-0.272
-628.492	-61.918	0.261	-0.110
-627.478	179.717	-0.090	0.133
-626.463	-60.879	-0.060	-0.025
-625.449	304.189	0.138	0.257
-624.434	107.077	0.087	0.104
-623.419	624.368	0.069	-0.176
-622.405	-129.804	0.110	-0.015
-621.390	25.142	0.158	-0.131
-620.376	-200.000	0.042	0.415
-619.361	336.062	-0.043	-0.083
-618.346	800.000	0.156	-0.548
-617.332	486.549	-0.105	0.240
-616.317	133.485	0.251	0.326
-615.303	366.443	-0.092	-0.187
-614.288	185.920	-0.053	-0.079
-613.273	28.185	-0.081	-0.069
-612.259	-38.450	-0.189	-0.100
-611.244	290.195	0.032	-0.058
-610.230	-102.310	0.279	-0.067
-609.215	-200.000	0.023	0.126
-608.201	199.740	0.185	-0.285
-607.186	477.280	0.056	0.127
-606.171	-165.404	-0.159	0.007
-605.157	-103.373	0.147	0.035
-604.142	39.878	-0.197	0.178
-603.128	175.950	0.120	0.175
-602.113	44.215	0.206	-0.190
-601.098	-15.938	-0.227	-0.145
-600.084	685.041	-0.051	-0.133
-599.069	34.998	0.208	0.182
-598.055	94.320	0.152	-0.173
-597.040	177.156	0.142	0.208
-596.025	-87.919	0.285	-0.086
-595.011	800.000	0.087	-0.328
-593.996	118.545	0.221	0.273
-592.982	-104.158	-0.215	-0.050
-591.967	8.907	0.080	0.061
-590.952	-177.758	-0.309	0.007
-589.938	-19.303	0.068	0.042
-588.923	-160.346	0.388	-0.021
-587.909	397.397	-0.067	0.141
-586.894	-200.000	-0.039	-0.207
-585.879	800.000	-0.062	0.196
-584.865	-65.344	-0.280	-0.113
-583.850	-200.000	-0.015	0.232
-582.836	-200.000	-0.045	-0.334
-581.821	125.718	0.054	0.069
-580.806	-200.000	-0.019	0.097
-579.792	-139.500	-0.344	0.037
-578.777	800.000	-0.083	-0.317
-577.763	-18.613	-0.074	-0.046
-576.748	-18.688	-0.275	-0.172
-575.733	15.333	-0.094	0.074
-574.719	11.380	0.211	0.162
-573.704	235.267	-0.039	0.065
-572.690	-200.000	0.012	-0.488
-571.675	-61.862	0.404	-0.170
-570.661	-173.496	-0.571	0.017
-569.646	-9.179	-0.220	-0.148
-568.631	-119.228	0.240	0.042
-567.617	-200.000	0.029	-0.244
-566.602	-200.000	0.003	0.158
-565.588	300.874	0.108	0.200
-564.573	-36.014	-0.084	-0.045
-563.558	27.660	0.120	0.101
-562.544	324.496	-0.031	0.059
-561.529	-170.895	-0.311	-0.011
-560.515	-68.650	0.118	-0.046
-559.500	-200.000	0.088	-0.650
-558.485	-80.975	-0.300	0.100
-557.471	-144.231	0.391	-0.037
-556.456	-192.212	-0.210	-0.002
-555.442	-57.826	0.100	0.044
-554.427	365.767	-0.071	-0.142
-553.412	800.000	-0.051	0.170
-552.398	138.911	0.072	-0.095
-551.383	-200.000	-0.008	-0.074
-550.369	13.398	-0.123	0.096
-549.354	11.748	-0.098	0.076
-548.339	-83.042	0.358	-0.115
-547.325	-31.962	-0.107	-0.060
-546.310	-200.000	-0.016	0.198
-545.296	10.219	0.168	0.128
-544.281	800.000	-0.039	-0.162
-543.266	-94.636	-0.090	-0.025
-542.252	-114.297	0.329	0.064
-541.237	-36.649	-0.103	0.055
-540.223	130.743	0.066	0.085
-539.208	-108.952	-0.337	-0.072
-538.193	223.999	0.202	-0.327
-537.179	-200.000	-0.035	-0.346
-536.164	172.846	0.028	-0.040
-535.150	800.000	-0.051	-0.151
-534.135	517.458	0.056	-0.132
-533.121	-130.805	0.148	0.020
-532.106	57.313	-0.212	-0.207
-531.091	-200.000	0.046	0.226
-530.077	24.651	0.161	-0.133
-529.062	279.427	0.041	-0.073
-528.048	-179.502	0.125	-0.003
-527.033	744.193	-0.067	-0.179
-526.018	-71.394	0.092	0.035
-525.004	34.449	-0.201	-0.176
-523.989	106.825	-0.128	0.152
-522.975	-18.341	0.196	0.123
-521.960	286.621	0.095	-0.172
-520.945	800.000	0.018	-0.070
-519.931	-76.429	-0.402	-0.141
-518.916	-54.857	0.160	0.072
-517.902	800.000	0.041	0.177
-516.887	800.000	-0.064	0.205
-515.872	-19.527	0.336	-0.208
-514.858	696.990	-0.111	0.292
-513.843	-43.397	-0.234	0.119
-512.829	-98.710	0.136	0.035
-511.814	800.000	-0.139	-0.387
-510.799	-200.000	0.011	-0.179
-509.785	-167.886	0.281	0.011
-508.770	800.000	0.035	-0.145
-507.756	-200.000	0.018	0.136
-506.741	50.076	0.046	-0.044
-505.726	-91.740	0.189	0.054
-504.712	-5.282	0.059	0.041
-503.697	53.113	-0.151	0.145
-502.683	-63.690	-0.096	-0.039
-501.668	-0.315	-0.047	0.034
-500.653	217.221	0.112	0.179
-499.639	210.631	-0.091	0.143
-498.624	80.063	0.038	-0.041
-497.610	-200.000	0.000	-0.159
-496.595	-200.000	0.010	-0.173
-495.581	221.649	0.036	0.058
-494.566	-16.991	-0.270	0.170
-493.551	440.691	0.121	-0.265
-492.537	-113.454	0.132	-0.026
-491.522	-34.785	0.239	0.130
-490.508	-200.000	-0.014	0.390
-489.493	60.567	-0.108	0.107
-488.478	217.683	0.107	0.170
-487.464	-5.073	0.029	-0.020
-486.449	-56.265	0.116	-0.051
-485.435	-89.964	0.250	-0.073
-484.420	30.748	-0.069	-0.059
-483.405	-127.097	0.646	-0.095
-482.391	-16.900	0.097	0.062
-481.376	276.351	-0.116	-0.205
-480.362	-119.832	-0.206	-0.035
-479.347	-35.637	0.180	0.098
-478.332	-117.938	-0.161	-0.029
-477.318	-114.380	0.109	0.021
-476.303	207.883	0.040	-0.063
-475.289	599.867	-0.140	0.348
-474.274	44.324	0.081	-0.075
-473.259	-200.000	0.036	0.254
-472.245	-115.070	-0.214	-0.041
-471.230	-73.969	-0.308	0.112
-470.216	-2.481	0.315	0.220
-469.201	-161.461	0.217	0.011
-468.186	157.297	0.238	0.329
-467.172	227.094	-0.324	0.526
-466.157	-157.388	-0.222	0.013
-465.143	316.276	0.018	-0.033
-464.128	-92.982	0.267	0.074
-463.113	-200.000	-0.050	0.266
-462.099	-128.236	0.225	0.032
-461.084	597.605	-0.154	0.380
-460.070	172.427	-0.205	0.295
-459.055	-52.476	0.034	-0.016
-458.040	-127.370	0.096	0.014
-457.026	32.499	-0.153	0.132
-456.011	186.829	0.147	0.219
-454.997	-200.000	-0.019	-0.210
-453.982	-158.046	-0.103	-0.006
-452.968	329.547	-0.157	0.302
-451.953	-86.162	0.046	0.014
-450.938	-121.395	-0.270	-0.045
-449.924	-5.215	-0.133	-0.091
-448.909	-197.971	-0.560	0.003
-447.895	-90.602	0.193	0.056
-446.880	159.354	0.241	0.334
-445.865	800.000	-0.159	-0.446
-444.851	-164.914	-0.287	-0.013
-443.836	285.683	0.048	0.086
-442.822	21.845	-0.285	-0.232
-441.807	5.808	0.103	-0.076
-440.792	425.746	-0.095	0.203
-439.778	-80.446	-0.314	0.105
-438.763	800.000	0.108	0.378
-437.749	473.561	0.069	0.155
-436.734	79.358	0.303	-0.325
-435.719	59.412	-0.291	-0.286
-434.705	-143.006	-0.099	-0.010
-433.690	-200.000	-0.035	-0.159
-432.676	214.166	0.225	0.355
-431.661	-200.000	-0.005	0.040
-430.646	-145.202	-0.235	-0.021
-429.632	182.802	0.125	-0.184
-428.617	-73.592	0.465	0.169
-427.603	-200.000	-0.005	0.116
-426.588	40.467	-0.039	-0.035
-425.573	-91.550	-0.234	-0.067
-424.559	202.363	0.236	-0.363
-423.544	-107.659	-0.179	0.039
-422.530	-200.000	-0.035	0.193
-421.515	-149.970	-0.136	0.011
-420.500	800.000	-0.055	-0.180
-419.486	499.950	-0.192	-0.442
-418.471	51.081	0.027	-0.026
-417.457	-200.000	0.024	-0.209
-416.442	-166.610	0.102	0.004
-415.428	63.834	-0.089	-0.089
-414.413	-200.000	0.038	0.268
-413.398	-161.336	0.222	0.011
-412.384	252.298	0.124	0.211
-411.369	-200.000	-0.037	-0.487
-410.355	800.000	0.059	0.172
-409.340	800.000	0.075	0.237
-408.325	-200.000	-0.044	-0.220
-407.311	253.883	0.295	-0.502
-406.296	128.578	0.256	-0.325
-405.282	372.430	0.141	-0.285
-404.267	800.000	0.052	-0.163
-403.252	-200.000	-0.044	0.275
-402.238	543.947	0.100	-0.238
-401.223	-200.000	0.024	0.156
-400.209	115.979	0.123	-0.150
-399.194	250.033	0.008	-0.014
-398.179	800.000	-0.112	-0.321
-397.165	37.386	-0.158	-0.140
-396.150	-84.944	-0.393	0.123
-395.136	143.441	0.261	0.346
-394.121	241.904	0.139	0.231
-393.106	-35.020	-0.260	0.141
-392.092	-42.962	-0.236	0.119
-391.077	35.033	0.269	-0.234
-390.063	-53.755	0.094	-0.043
-389.048	-114.938	0.080	-0.015
-388.033	472.240	-0.150	-0.335
-387.019	303.937	-0.070	-0.130
-386.004	40.401	-0.127	0.114
-384.990	278.275	-0.024	0.042
-383.975	119.473	-0.013	-0.017
-382.960	-200.000	-0.030	0.162
-381.946	-100.737	0.163	-0.040
-380.931	-115.246	0.206	-0.039
-379.917	-197.617	-0.231	-0.001
-378.902	-49.969	-0.069	-0.033
-377.888	-200.000	0.045	0.481
-376.873	-182.637	-0.089	-0.002
-375.858	-34.058	-0.057	0.031
-374.844	-106.262	0.354	0.079
-373.829	-21.168	-0.039	-0.024
-372.815	304.822	-0.055	0.102
-371.800	69.579	0.224	-0.230
-370.785	-162.883	-0.156	-0.008
-369.771	-27.709	-0.271	-0.156
-368.756	-150.954	-0.320	0.024
-367.742	-200.000	-0.041	0.198
-366.727	-124.659	-0.191	0.029
-365.712	631.065	0.026	-0.065
-364.698	2.468	0.283	-0.204
-363.683	208.764	0.044	-0.068
-362.669	800.000	0.057	0.246
-361.654	11.706	-0.395	-0.301
-360.639	-70.292	0.071	-0.027
-359.625	119.791	-0.157	-0.193
-358.610	800.000	0.042	-0.132
-357.596	-43.195	-0.249	0.125
-356.581	800.000	0.068	-0.236
-355.566	-152.978	-0.363	-0.025
-354.552	-86.952	-0.221	0.067
-353.537	78.218	-0.017	0.018
-352.523	-200.000	0.050	0.251
-351.508	141.342	0.097	0.128
-350.493	49.136	0.041	0.038
-349.479	-200.000	0.011	-0.124
-348.464	-200.000	-0.042	0.205
-347.450	589.932	-0.081	0.198
-346.435	-135.922	0.386	-0.045
-345.420	-70.233	0.229	-0.086
-344.406	6.570	-0.186	-0.137
-343.391	99.736	0.017	-0.019
-342.377	-170.171	0.140	0.005
-341.362	-200.000	-0.029	0.292
-340.348	102.353	-0.189	0.220
-339.333	-79.441	0.249	-0.084
-338.318	211.199	0.179	0.281
-337.304	-59.068	-0.185	0.079
-336.289	288.954	0.018	-0.032
-335.275	-81.419	0.059	0.019
-334.260	-200.000	0.011	-0.247
-333.245	-7.832	0.158	-0.106
-332.231	-162.746	-0.101	0.005
-331.216	343.070	-0.155	0.303
-330.202	18.012	-0.134	0.106
-329.187	-100.171	-0.175	-0.043
-328.172	61.270	-0.123	0.121
-327.158	-151.762	0.344	0.025
-326.143	-151.855	0.175	-0.013
-325.129	490.118	0.099	0.225
-324.114	-54.225	0.240	-0.108
-323.099	-114.521	0.159	0.030
-322.085	-17.651	0.076	-0.047
-321.070	394.939	0.085	-0.176
-320.056	123.715	-0.116	0.144
-319.041	-200.000	0.021	-0.106
-318.026	-200.000	0.008	0.141
-317.012	-200.000	0.056	0.559
-315.997	-200.000	0.041	0.542
-314.983	800.000	-0.083	-0.301
-313.968	25.584	0.027	0.022
-312.953	87.346	0.173	0.190
-311.939	800.000	0.102	-0.283
-310.924	-200.000	0.010	0.067
-309.910	-90.894	0.105	0.030
-308.895	-200.000	-0.011	-0.123
-307.880	-120.796	0.204	-0.034
-306.866	36.488	-0.084	0.073
-305.851	-76.892	-0.118	0.041
-304.837	10.294	-0.096	-0.072
-303.822	800.000	0.117	-0.392
-302.807	-40.494	0.065	0.033
-301.793	-79.828	0.269	0.090
-300.778	109.603	0.284	-0.338
-299.764	2.084	0.151	-0.108
-298.749	357.087	0.123	0.243
-297.735	-36.336	0.026	0.014
-296.720	800.000	-0.102	-0.352
-295.705	-151.217	-0.072	0.005
-294.691	-17.180	-0.460	-0.288
-293.676	-62.062	-0.224	0.093
-292.662	690.213	0.080	-0.209
-291.647	-9.605	0.181	0.120
-290.632	54.135	-0.098	0.093
-289.618	-200.000	-0.015	0.350
-288.603	-200.000	0.032	-0.208
-287.589	-200.000	0.034	0.202
-286.574	32.146	-0.167	0.143
-285.559	222.252	-0.072	0.115
-284.545	233.611	0.091	-0.149
-283.530	51.986	-0.251	-0.238
-282.516	166.610	-0.019	0.027
-281.501	225.343	-0.147	-0.235
-280.486	800.000	-0.050	-0.143
-279.472	362.246	0.128	-0.256
-278.457	-48.044	0.142	0.068
-277.443	248.139	-0.254	0.426
-276.428	436.978	-0.106	-0.229
-275.413	78.800	-0.043	0.045
-274.399	-146.569	-0.104	-0.009
-273.384	-57.386	-0.333	0.145
-272.370	12.634	-0.111	-0.085
-271.355	-24.015	-0.214	0.127
-270.340	34.812	0.116	-0.101
-269.326	-200.000	-0.007	0.186
-268.311	95.834	-0.019	-0.022
-267.297	-200.000	0.028	0.297
-266.282	800.000	0.142	0.441
-265.267	800.000	-0.042	0.140
-264.253	173.425	0.246	-0.351
-263.238	-36.008	-0.292	-0.157
-262.224	-19.920	-0.200	-0.122
-261.209	-89.328	0.218	0.064
-260.195	-200.000	-0.054	0.290
-259.180	222.022	-0.075	-0.120
-258.165	29.271	0.097	0.082
-257.151	36.325	0.184	0.161
-256.136	-139.581	0.409	-0.043
-255.122	-150.156	0.239	-0.018
-254.107	-28.131	-0.125	0.071
-253.092	-54.686	-0.101	-0.045
-252.078	-77.642	-0.155	-0.053
-251.063	-200.000	0.001	0.038
-250.049	-122.482	0.233	-0.038
-249.034	-67.077	-0.235	0.092
-248.019	203.372	0.076	-0.116
-247.005	-94.511	-0.105	0.028
-245.990	-67.138	0.126	-0.049
-244.976	-95.101	0.048	0.013
-243.961	222.476	-0.059	-0.094
-242.946	29.951	-0.183	-0.154
-241.932	277.558	0.138	0.242
-240.917	-200.000	0.033	0.229
-239.903	147.658	-0.100	-0.133
-238.888	454.503	0.029	0.063
-237.873	91.667	-0.261	0.290
-236.859	-86.410	0.187	-0.057
-235.844	577.764	0.110	-0.267
-234.830	130.919	0.037	-0.046
-233.815	29.123	-0.225	-0.189
-232.800	-90.318	0.156	0.045
-231.786	800.000	0.032	0.122
-230.771	366.842	0.150	-0.300
-229.757	301.764	0.159	0.290
-228.742	-200.000	-0.036	0.395
-227.727	800.000	-0.089	0.357
-226.713	-200.000	0.214	0.000
-225.698	-55.738	0.060	-0.026
-224.684	-200.000	-0.029	0.254
-223.669	-37.908	-0.181	0.095
-222.655	-22.765	0.144	0.086
-221.640	-53.425	0.303	0.137
-220.625	-10.447	0.206	-0.135
-219.611	-72.998	-0.247	0.090
-218.596	667.538	0.193	-0.492
-217.582	-28.519	-0.046	0.026
-216.567	155.536	0.270	0.368
-215.552	-200.000	-0.144	0.000
-214.538	-121.729	-0.644	0.105
-213.523	-63.921	0.181	0.073
-212.509	-68.572	0.399	-0.153
-211.494	16.766	-0.137	0.107
-210.479	279.409	-0.078	-0.138
-209.465	-29.981	-0.191	-0.108
-208.450	68.820	-0.069	-0.070
-207.436	-41.366	0.400	0.204
-206.421	-48.001	0.325	-0.155
-205.406	56.734	0.171	0.165
-204.392	21.947	0.099	0.080
-203.377	800.000	0.084	0.288
-202.363	800.000	-0.129	-0.391
-201.348	800.000	0.045	-0.176
-200.333	74.086	0.177	0.184
-199.319	250.742	-0.146	-0.246
-198.304	800.000	0.047	0.165
-197.290	657.404	-0.091	-0.232
-196.275	-32.155	-0.280	0.155
-195.260	800.000	-0.083	0.277
-194.246	-200.000	0.043	-0.234
-193.231	248.040	0.189	0.316
-192.217	-68.584	-0.213	-0.082
-191.202	-107.695	0.084	0.018
-190.187	800.000	-0.047	0.165
-189.173	677.233	0.073	0.186
-188.158	-8.238	-0.201	-0.134
-187.144	800.000	0.088	0.285
-186.129	41.178	0.136	-0.122
-185.114	-200.000	-0.019	-0.107
-184.100	526.381	-0.062	0.145
-183.085	-105.296	0.021	-0.005
-182.071	157.503	-0.186	0.254
-181.056	-53.650	0.152	-0.068
-180.042	56.954	0.101	-0.097
-179.027	-41.750	0.303	-0.154
-178.012	-163.995	0.104	0.005
-176.998	268.244	-0.127	-0.220
-175.983	-57.276	-0.182	-0.079
-174.969	516.222	-0.076	0.175
-173.954	-200.000	-0.002	0.200
-172.939	37.439	0.268	-0.235
-171.925	158.046	-0.072	-0.098
-170.910	115.515	-0.093	-0.112
-169.896	23.285	-0.201	-0.163
-168.881	-65.973	0.118	-0.047
-167.866	43.833	-0.210	0.190
-166.852	47.690	-0.166	-0.153
-165.837	-56.381	-0.172	0.075
-164.823	588.879	-0.128	0.311
-163.808	-200.000	-0.067	-0.410
-162.793	40.880	-0.168	0.150
-161.779	-116.696	-0.157	-0.028
-160.764	800.000	-0.084	-0.279
-159.750	-137.970	-0.196	-0.022
-158.735	-161.979	0.201	-0.010
-157.720	-200.000	-0.013	0.075
-156.706	711.533	-0.102	0.266
-155.691	682.816	-0.107	0.275
-154.677	-81.625	0.364	-0.118
-153.662	65.784	-0.194	-0.194
-152.647	213.226	0.056	0.087
-151.633	-200.000	-0.018	0.124
-150.618	800.000	-0.134	-0.441
-149.604	-64.376	0.315	-0.126
-148.589	800.000	-0.079	0.224
-147.574	800.000	-0.055	0.179
-146.560	464.733	0.055	-0.121
-145.545	299.033	-0.196	0.356
-144.531	800.000	-0.047	-0.135
-143.516	800.000	0.070	-0.200
-142.502	72.963	0.165	0.170
-141.487	-109.243	-0.238	0.050
-140.472	-44.046	-0.235	-0.116
-139.458	-105.524	0.158	0.035
-138.443	-37.925	-0.137	0.072
-137.429	611.353	0.085	0.209
-136.414	271.840	-0.058	-0.101
-135.399	291.790	0.205	0.368
-134.385	289.138	0.058	-0.103
-133.370	413.210	0.069	-0.146
-132.356	-100.858	-0.209	-0.051
-131.341	65.846	-0.165	0.165
-130.326	-75.205	0.320	-0.113
-129.312	-194.325	0.183	-0.001
-128.297	-147.172	0.145	0.012
-127.283	150.266	0.132	-0.176
-126.268	209.458	-0.158	0.244
-125.253	-57.294	-0.158	0.068
-124.239	-107.697	0.159	0.034
-123.224	-130.443	-0.094	0.012
-122.210	800.000	-0.132	0.504
-121.195	-132.555	-0.069	-0.009
-120.180	-144.040	0.131	-0.012
-119.166	-100.723	0.245	-0.060
-118.151	-21.278	0.153	0.092
-117.137	69.516	-0.095	0.096
-116.122	-200.000	0.018	0.144
-115.107	-65.797	0.383	0.151
-114.093	246.315	0.233	0.387
-113.078	-17.288	0.251	-0.156
-112.064	125.366	-0.121	0.150
-111.049	-9.287	0.337	0.222
-110.034	-127.163	0.131	-0.019
-109.020	-70.766	0.357	-0.133
-108.005	-9.447	0.202	0.133
-106.991	86.578	0.137	0.149
-105.976	426.064	-0.093	0.197
-104.962	800.000	0.114	0.411
-103.947	311.390	0.046	-0.085
-102.932	-200.000	0.067	-0.313
-101.918	-200.000	0.000	-0.038
-100.903	18.945	-0.274	-0.216
-99.889	800.000	0.108	-0.417
-98.874	800.000	0.113	-0.470
-97.859	-37.227	-0.261	0.137
-96.845	-79.947	-0.383	-0.127
-95.830	-145.641	-0.267	0.023
-94.816	36.894	-0.322	-0.280
-93.801	17.869	-0.100	0.078
-92.786	800.000	0.120	0.438
-91.772	166.412	0.192	-0.268
-90.757	99.182	-0.096	0.110
-89.743	370.903	0.136	0.271
-88.728	-182.038	-0.360	0.007
-87.713	800.000	0.058	0.197
-86.699	46.448	-0.090	0.082
-85.684	800.000	0.144	0.407
-84.670	-8.269	0.139	0.092
-83.655	-162.957	0.421	-0.020
-82.640	149.183	0.134	-0.178
-81.626	-200.000	-0.025	-0.141
-80.611	-200.000	0.048	0.490
-79.597	66.424	0.191	0.191
-78.582	-50.111	0.227	0.106
-77.567	166.568	-0.160	-0.223
-76.553	-200.000	-0.034	-0.352
-75.538	-92.155	0.119	0.033
-74.524	-169.138	0.066	0.002
-73.509	-200.000	-0.014	0.128
-72.494	800.000	-0.107	0.399
-71.480	213.553	0.222	-0.346
-70.465	169.328	-0.172	-0.242
-69.451	122.224	0.027	0.033
-68.436	-191.334	0.353	-0.004
-67.422	-200.000	0.035	0.324
-66.407	34.728	0.286	0.246
-65.392	800.000	0.165	0.478
-64.378	-114.291	0.124	0.023
-63.363	-3.859	-0.139	0.095
-62.349	357.862	0.077	0.150
-61.334	-1.691	-1.002	-0.694
-60.319	800.000	0.194	0.539
-59.305	-200.000	-0.061	-0.790
-58.290	194.320	0.473	0.705
-57.276	411.979	0.631	1.317
-56.261	-200.000	95.639	568.521
-55.246	556.250	1383.642	3276.350
-54.232	154.174	2585.491	3486.677
-53.217	110.117	2293.283	2706.062
-52.203	45.125	1909.534	1729.698
-51.188	38.813	1697.504	1489.828
-50.173	35.919	1653.150	1429.398
-49.159	52.845	1700.288	1597.899
-48.144	56.431	1718.525	1641.940
-47.130	38.464	1674.929	1467.168
-46.115	35.568	1660.268	1432.706
-45.100	35.418	1655.336	1427.275
-44.086	35.353	1652.322	1424.143
-43.071	35.327	1650.180	1422.046
-42.057	35.318	1647.510	1419.619
-41.042	35.302	1645.946	1418.101
-40.027	35.376	1643.332	1416.335
-39.013	35.286	1641.807	1414.298
-37.998	35.289	1639.688	1412.440
-36.984	35.417	1638.274	1412.112
-35.969	35.481	1636.842	1411.289
-34.954	35.520	1635.552	1410.410
-33.940	35.486	1633.122	1408.008
-32.925	35.475	1631.630	1406.582
-31.911	35.516	1629.842	1405.286
-30.896	35.375	1628.579	1403.109
-29.881	35.438	1626.870	1402.046
-28.867	35.420	1625.380	1400.576
-27.852	35.375	1624.076	1399.064
-26.838	35.560	1621.985	1398.553
-25.823	35.533	1620.814	1397.295
-24.809	35.509	1618.999	1395.501
-23.794	35.390	1618.272	1393.954
-22.779	35.520	1616.783	1393.559
-21.765	35.461	1614.852	1391.411
-20.750	35.500	1613.200	1390.217
-19.736	35.509	1611.996	1389.186
-18.721	35.610	1610.158	1388.281
-17.706	35.492	1609.146	1386.497
-16.692	35.514	1607.557	1385.236
-15.677	35.555	1605.312	1383.542
-14.663	35.519	1604.488	1382.511
-13.648	35.488	1603.375	1381.280
-12.633	35.547	1601.277	1379.837
-11.619	35.369	1600.207	1377.586
-10.604	35.489	1598.346	1376.790
-9.590	35.625	1597.052	1376.594
-8.575	35.509	1595.965	1374.770
-7.560	35.466	1595.158	1373.715
-6.546	35.431	1594.162	1372.548
-5.531	35.515	1592.920	1372.031
-4.517	35.418	1591.754	1370.279
-3.502	35.567	1590.445	1370.159
-2.487	35.564	1588.817	1368.680
-1.473	35.185	1577.237	1355.972
-0.458	31.858	1556.420	1314.734
0.556	25.717	1555.224	1277.412
1.571	22.986	1578.243	1276.502
2.586	22.197	1591.716	1281.541
3.600	20.031	1540.183	1224.639
4.615	11.326	1428.901	1078.720
5.629	2.234	1359.847	969.051
6.644	0.179	1350.793	949.563
7.659	0.121	1348.908	947.790
8.673	-0.038	1348.672	946.534
9.688	-0.042	1346.357	944.800
10.702	-0.154	1343.337	941.894
11.717	3.840	1350.247	971.797
12.731	13.041	1365.210	1040.727
13.746	18.124	1370.993	1077.148
14.761	17.333	1368.626	1070.219
15.775	16.296	1365.526	1061.184
16.790	15.159	1362.925	1051.932
17.804	14.317	1360.750	1044.882
18.819	13.925	1359.684	1041.510
19.834	13.778	1358.061	1039.253
20.848	13.450	1357.032	1036.324
21.863	13.107	1356.009	1033.302
22.877	13.178	1354.005	1032.130
23.892	13.005	1353.880	1030.862
24.907	12.970	1353.082	1029.944
25.921	12.902	1352.030	1028.630
26.936	13.039	1350.955	1028.572
27.950	13.187	1349.600	1028.370
28.965	13.183	1349.054	1027.842
29.980	13.257	1348.174	1027.536
30.994	13.378	1346.899	1027.229
32.009	13.380	1345.957	1026.431
33.023	13.375	1345.021	1025.595
34.038	13.310	1343.709	1024.099
35.053	13.196	1342.895	1022.681
36.067	13.252	1341.727	1022.048
37.082	13.211	1341.271	1021.356
38.096	13.255	1340.165	1020.698
39.111	13.239	1339.271	1019.828
40.126	13.228	1338.523	1019.097
41.140	13.099	1337.555	1017.479
42.155	13.064	1336.827	1016.621
43.169	12.966	1336.962	1016.028
44.184	13.109	1336.650	1016.582
45.199	12.994	1336.378	1015.577
46.213	13.098	1335.770	1015.664
47.228	13.183	1334.655	1015.249
48.242	13.254	1333.492	1014.709
49.257	13.219	1332.716	1013.815
50.271	13.186	1330.809	1012.076
51.286	13.294	1329.069	1011.321
52.301	13.124	1328.267	1009.581
53.315	13.173	1327.365	1009.104
54.330	13.076	1326.353	1007.653
55.344	13.122	1324.744	1006.626
56.359	13.075	1323.979	1005.671
57.374	13.024	1323.242	1004.708
58.388	13.044	1322.347	1004.062
59.403	12.981	1321.827	1003.193
60.417	12.975	1321.099	1002.515
61.432	12.871	1320.341	1001.223
62.447	12.994	1319.459	1001.210
63.461	12.946	1318.293	999.946
64.476	12.935	1316.926	998.756
65.490	12.942	1315.516	997.642
66.505	12.990	1313.808	996.544
67.520	12.954	1313.080	995.685
68.534	12.989	1311.880	994.900
69.549	12.995	1310.821	994.045
70.563	12.937	1310.375	993.270
71.578	12.938	1308.540	991.800
72.593	12.944	1307.692	991.106
73.607	12.896	1306.612	989.910
74.622	12.965	1305.808	989.625
75.636	12.853	1305.134	988.355
76.651	12.962	1304.175	988.196
77.666	12.876	1303.543	987.113
78.680	12.909	1303.544	987.228
79.695	12.952	1302.564	986.654
80.709	12.940	1301.955	986.030
81.724	13.086	1301.090	986.164
82.739	13.065	1299.994	985.116
83.753	13.124	1299.292	984.850
84.768	13.218	1297.888	984.259
85.782	13.270	1296.819	983.675
86.797	13.142	1295.553	981.865
87.812	13.134	1294.517	980.942
88.826	13.084	1293.474	979.769
89.841	13.140	1292.122	978.991
90.855	13.112	1291.427	978.211
91.870	13.197	1290.200	977.701
92.884	13.212	1289.779	977.383
93.899	13.224	1288.715	976.561
94.914	13.286	1287.870	976.202
95.928	13.244	1287.303	975.436
96.943	13.310	1286.363	975.027
97.957	13.165	1285.548	973.468
98.972	13.200	1284.412	972.731
99.987	13.284	1283.184	972.206
101.001	13.232	1282.481	971.279
102.016	13.205	1281.660	970.418
103.030	13.285	1280.852	970.185
104.045	13.284	1279.914	969.388
105.060	13.208	1278.780	967.996
106.074	13.261	1277.219	967.041
107.089	13.029	1276.191	964.821
108.103	13.000	1274.946	963.625
109.118	13.076	1273.946	963.225
110.133	13.033	1272.676	961.929
111.147	12.963	1271.206	960.324
112.162	13.018	1270.187	959.790
113.176	13.064	1268.873	958.978
114.191	13.124	1268.163	958.705
115.206	13.061	1266.964	957.352
116.220	13.035	1266.017	956.397
117.235	13.052	1264.575	955.323
118.249	13.114	1263.936	955.112
119.264	13.052	1262.248	953.397
120.279	13.095	1261.216	952.778
121.293	13.064	1260.327	951.846
122.308	13.117	1259.130	951.161
123.322	13.037	1258.195	949.915
124.337	12.995	1257.544	949.095
125.352	13.002	1256.256	948.078
126.366	13.050	1254.655	947.064
127.381	13.029	1253.851	946.253
128.395	13.016	1252.440	945.027
129.410	13.040	1251.962	944.724
130.424	13.100	1250.603	943.954
131.439	13.115	1250.087	943.570
132.454	13.142	1248.950	942.783
133.468	13.214	1248.030	942.417
134.483	13.221	1247.276	941.799
135.497	13.178	1246.256	940.701
136.512	13.172	1244.830	939.510
137.527	13.124	1243.883	938.438
138.541	13.117	1242.832	937.522
139.556	13.157	1241.250	936.472
140.570	13.224	1240.106	935.907
141.585	13.322	1239.092	935.614
142.600	13.274	1237.775	934.267
143.614	13.315	1236.756	933.642
144.629	13.320	1235.999	933.017
145.643	13.257	1234.753	931.637
146.658	13.298	1233.494	930.841
147.673	13.127	1232.255	928.861
148.687	13.187	1230.781	928.004
149.702	13.241	1229.145	926.989
150.716	13.139	1228.178	925.607
151.731	13.140	1227.035	924.669
152.746	13.206	1225.932	924.126
153.760	13.264	1224.776	923.496
154.775	13.288	1223.524	922.604
155.789	13.370	1222.665	922.336
156.804	13.382	1221.648	921.553
157.819	13.412	1220.255	920.588
158.833	13.566	1219.067	920.462
159.848	13.419	1218.858	919.410
160.862	13.362	1217.689	918.126
161.877	13.393	1216.378	917.228
162.892	13.319	1215.324	915.944
163.906	13.273	1214.615	915.073
164.921	13.206	1213.929	914.107
165.935	13.306	1212.481	913.488
166.950	13.398	1211.684	913.315
167.964	13.426	1211.332	913.120
168.979	13.321	1210.594	911.909
169.994	13.452	1209.679	911.860
171.008	13.461	1208.965	911.288
172.023	13.415	1208.381	910.516
173.037	13.476	1207.378	910.013
174.052	13.557	1206.077	909.396
175.067	13.447	1205.142	908.008
176.081	13.367	1204.588	907.070
177.096	13.392	1203.590	906.376
178.110	13.445	1202.488	905.760
179.125	13.370	1201.516	904.536
180.140	13.472	1200.199	904.020
181.154	13.493	1198.890	903.069
182.169	13.537	1197.743	902.366
183.183	13.660	1196.212	901.801
184.198	13.618	1194.938	900.533
185.213	13.677	1194.082	900.131
186.227	13.638	1193.343	899.279
187.242	13.601	1191.973	897.970
188.256	13.654	1191.123	897.537
189.271	13.734	1190.190	897.185
190.286	13.640	1189.106	895.780
191.300	13.571	1188.291	894.716
192.315	13.428	1187.738	893.447
193.329	13.415	1187.054	892.782
194.344	13.444	1186.648	892.557
195.359	13.558	1185.825	892.475
196.373	13.668	1185.440	892.697
197.388	13.729	1185.112	892.698
198.402	13.771	1184.488	892.372
199.417	13.857	1183.923	892.331
200.432	13.909	1182.928	891.781
201.446	13.824	1182.506	890.928
202.461	13.814	1181.228	889.835
203.475	13.969	1180.187	889.800
204.490	13.862	1179.251	888.444
205.504	13.892	1177.732	887.379
206.519	13.900	1176.656	886.536
207.534	13.819	1175.776	885.359
208.548	13.789	1174.976	884.522
209.563	13.981	1173.850	884.617
210.577	13.819	1173.142	883.141
211.592	13.945	1171.903	882.804
212.607	14.029	1171.323	882.733
213.621	13.991	1170.490	881.826
214.636	14.098	1169.071	881.245
215.650	14.009	1168.581	880.327
216.665	14.000	1167.888	879.678
217.680	14.059	1167.344	879.502
218.694	14.093	1166.189	878.734
219.709	14.114	1165.340	878.129
220.723	14.061	1164.576	877.197
221.738	14.119	1163.532	876.639
222.753	14.181	1162.946	876.445
223.767	14.133	1162.305	875.631
224.782	14.198	1161.719	875.453
225.796	14.365	1160.947	875.674
226.811	14.233	1160.368	874.466
227.826	14.247	1159.576	873.863
228.840	14.127	1159.098	872.800
229.855	14.181	1158.339	872.433
230.869	14.282	1157.403	872.182
231.884	14.238	1156.412	871.125
232.899	14.284	1155.510	870.611
233.913	14.044	1155.553	869.307
234.928	14.103	1154.896	869.047
235.942	14.161	1153.886	868.512
236.957	14.210	1152.729	867.818
237.972	14.060	1152.492	866.782
238.986	14.072	1151.924	866.341
240.001	14.205	1150.999	866.264
241.015	14.158	1150.191	865.334
242.030	14.205	1149.137	864.706
243.045	14.311	1148.767	864.902
244.059	14.355	1147.813	864.339
245.074	14.346	1146.872	863.507
246.088	14.398	1146.246	863.228
247.103	14.497	1145.134	862.825
248.117	14.565	1144.709	862.778
249.132	14.493	1143.997	861.796
250.147	14.556	1143.380	861.580
251.161	14.636	1142.759	861.447
252.176	14.738	1141.600	861.024
253.190	14.667	1141.549	860.542
254.205	14.755	1140.862	860.401
255.220	14.757	1140.173	859.818
256.234	14.743	1139.661	859.284
257.249	14.867	1138.804	859.200
258.263	14.718	1138.079	857.809
259.278	14.819	1137.237	857.618
260.293	14.748	1137.141	857.107
261.307	14.882	1136.582	857.293
262.322	14.842	1136.108	856.655
263.336	14.848	1135.189	855.918
264.351	14.817	1134.618	855.256
265.366	14.932	1133.900	855.227
266.380	14.839	1133.187	854.138
267.395	14.782	1132.450	853.214
268.409	14.823	1131.879	852.915
269.424	14.881	1131.119	852.564
270.439	14.805	1130.484	851.625
271.453	14.934	1129.666	851.587
272.468	14.810	1128.527	850.026
273.482	14.943	1127.760	850.047
274.497	14.901	1127.659	849.684
275.512	14.876	1127.040	849.012
276.526	14.999	1125.766	848.604
277.541	14.988	1125.316	848.131
278.555	14.978	1124.408	847.322
279.570	14.995	1124.137	847.131
280.585	15.065	1123.250	846.743
281.599	15.120	1122.316	846.238
282.614	15.033	1121.352	845.000
283.628	15.074	1120.369	844.392
284.643	15.120	1119.057	843.558
285.657	14.993	1118.711	842.585
286.672	15.144	1117.286	842.195
287.687	15.035	1116.794	841.204
288.701	15.182	1115.616	840.977
289.716	15.195	1114.806	840.358
290.730	15.132	1114.111	839.444
291.745	15.165	1113.719	839.237
292.760	15.223	1113.108	838.994
293.774	15.325	1112.581	839.032
294.789	15.361	1112.530	839.103
295.803	15.359	1111.309	838.094
296.818	15.317	1110.195	836.973
297.833	15.420	1109.209	836.667
298.847	15.307	1108.763	835.694
299.862	15.281	1108.298	835.142
300.876	15.371	1107.411	834.847
301.891	15.368	1107.025	834.467
302.906	15.373	1106.067	833.697
303.920	15.314	1105.759	833.095
304.935	15.433	1104.948	833.002
305.949	15.486	1104.332	832.726
306.964	15.646	1103.507	832.825
307.979	15.546	1103.135	831.976
308.993	15.530	1101.822	830.831
310.008	15.619	1101.243	830.762
311.022	15.547	1100.841	830.031
312.037	15.635	1099.835	829.632
313.052	15.575	1099.048	828.671
314.066	15.606	1097.930	827.906
315.081	15.437	1097.186	826.439
316.095	15.465	1096.265	825.808
317.110	15.334	1096.115	824.981
318.125	15.590	1094.765	825.146
319.139	15.462	1094.546	824.281
320.154	15.569	1093.986	824.311
321.168	15.458	1093.270	823.156
322.183	15.533	1092.871	823.151
323.197	15.606	1091.991	822.771
324.212	15.638	1091.305	822.337
325.227	15.638	1090.757	821.854
326.241	15.614	1090.463	821.438
327.256	15.541	1089.774	820.494
328.270	15.632	1089.031	820.303
329.285	15.628	1087.996	819.434
330.300	15.609	1087.108	818.597
331.314	15.649	1085.835	817.762
332.329	15.665	1085.008	817.144
333.343	15.662	1084.558	816.720
334.358	15.719	1083.482	816.112
335.373	15.707	1083.132	815.720
336.387	15.745	1082.502	815.359
337.402	15.775	1081.472	814.655
338.416	15.781	1080.711	814.037
339.431	15.848	1080.035	813.779
340.446	15.890	1079.433	813.459
341.460	15.945	1078.666	813.075
342.475	16.141	1077.607	813.150
343.489	16.125	1076.853	812.431
344.504	16.036	1076.190	811.428
345.519	16.058	1075.124	810.663
346.533	16.190	1074.340	810.633
347.548	16.096	1073.391	809.391
348.562	16.175	1072.995	809.401
349.577	16.075	1072.179	808.233
350.592	15.983	1071.550	807.251
351.606	15.991	1070.424	806.366
352.621	15.849	1070.106	805.375
353.635	16.087	1069.318	805.851
354.650	16.137	1068.991	805.770
355.665	16.098	1068.006	804.772
356.679	16.038	1067.671	804.161
357.694	16.069	1066.994	803.730
358.708	16.096	1066.657	803.534
359.723	16.206	1065.527	803.135
360.738	16.218	1064.875	802.628
361.752	16.250	1064.270	802.252
362.767	16.186	1064.060	801.718
363.781	16.101	1063.301	800.671
364.796	16.295	1062.685	801.059
365.810	16.280	1061.991	800.396
366.825	16.405	1061.284	800.384
367.840	16.374	1060.850	799.837
368.854	16.415	1060.862	799.970
369.869	16.399	1059.963	799.147
370.883	16.461	1059.023	798.657
371.898	16.363	1058.138	797.456
372.913	16.335	1057.392	796.691
373.927	16.350	1057.322	796.639
374.942	16.473	1056.675	796.661
375.956	16.414	1056.196	795.953
376.971	16.487	1055.400	795.625
377.986	16.522	1054.787	795.256
379.000	16.547	1054.433	795.038
380.015	16.459	1054.165	794.352
381.029	16.629	1053.204	794.355
382.044	16.674	1052.332	793.841
383.059	16.631	1051.868	793.217
384.073	16.708	1050.875	792.758
385.088	16.819	1049.973	792.527
386.102	16.710	1049.020	791.230
387.117	16.677	1048.076	790.295
388.132	16.581	1047.535	789.367
389.146	16.670	1046.545	788.965
390.161	16.645	1045.909	788.302
391.175	16.623	1045.160	787.566
392.190	16.723	1044.771	787.667
393.205	16.787	1043.767	787.137
394.219	16.706	1043.218	786.276
395.234	16.713	1042.316	785.563
396.248	16.666	1041.501	784.656
397.263	16.722	1040.275	783.924
398.278	16.725	1039.676	783.418
399.292	16.678	1039.040	782.652
400.307	16.606	1038.251	781.658
401.321	16.707	1037.713	781.647
402.336	16.665	1037.041	780.878
403.350	16.723	1036.392	780.587
404.365	16.770	1035.621	780.153
405.380	16.759	1035.024	779.584
406.394	16.826	1034.234	779.228
407.409	16.815	1033.323	778.426
408.423	17.022	1032.298	778.532
409.438	17.024	1031.939	778.201
410.453	17.177	1031.195	778.274
411.467	17.035	1030.694	777.178
412.482	17.087	1030.276	777.030
413.496	17.148	1029.345	776.539
414.511	17.115	1028.687	775.820
415.526	17.194	1028.259	775.792
416.540	17.142	1028.059	775.333
417.555	17.197	1027.014	774.730
418.569	17.124	1026.641	774.048
419.584	17.278	1026.242	774.379
420.599	17.153	1025.656	773.300
421.613	98.724	1311.634	1438.645
422.628	90.249	1353.291	1438.731
