DTS Sentinel unit serial number:	SN413079Multiplexer serial number:	ORYXHardware model number:	OX4-SRSoftware version number:	ORYX F/W v4.00 Oryx Data Collector v3.7.2.0data status	okinstallation	princeton_trtdifferential loss correction	single-endedforward channel	channel 2reverse channel	N/Adate	2019/09/12time	22:47:35forward acquisition time	60.00reverse acquisition time	0.00gamma	496.2192k internal	0.2331k external	0.2331temperature offset calibration	1.0178default loss term (dB/km)	0.3790temperature slope calibration	1.0000multiplexer offset coefficient	1.0000multiplexer slope coefficient	1.0000fibre end	0.00T internal ref (°C)	29.48T ext. ref 1 (°C)	3.74T ext. ref 2 (°C)	24.08length (m)	temperature (°C)	Stokes	anti-Stokes-747.200	-118.036	0.321	0.058
-746.185	-73.233	-0.176	-0.065
-745.171	-97.136	0.241	0.063
-744.156	-101.804	-0.076	0.019
-743.142	-200.000	0.028	-0.131
-742.127	800.000	0.041	0.178
-741.112	-50.831	-0.161	0.076
-740.098	248.536	0.119	-0.202
-739.083	-200.000	0.002	-0.034
-738.069	-30.254	0.142	0.081
-737.054	238.601	-0.171	0.286
-736.039	261.815	-0.067	0.117
-735.025	251.548	0.201	0.343
-734.010	-124.317	0.188	0.030
-732.996	-48.853	-0.259	-0.125
-731.981	-13.898	0.190	0.124
-730.966	800.000	-0.051	0.178
-729.952	800.000	-0.085	0.257
-728.937	299.039	0.053	-0.097
-727.923	-135.553	0.291	-0.035
-726.908	-25.364	-0.142	-0.084
-725.894	-90.783	-0.109	-0.032
-724.879	760.999	0.044	0.120
-723.864	800.000	0.091	0.399
-722.850	234.990	0.136	-0.226
-721.835	-66.053	-0.224	-0.090
-720.821	86.838	-0.254	-0.282
-719.806	-48.290	-0.099	0.048
-718.791	194.444	-0.239	-0.365
-717.777	800.000	-0.074	-0.294
-716.762	-200.000	0.003	-0.238
-715.748	604.614	-0.061	0.153
-714.733	-191.588	-0.162	-0.002
-713.718	-200.000	-0.028	0.213
-712.704	-11.710	-0.178	0.118
-711.689	-59.525	-0.117	-0.050
-710.675	6.037	-0.141	0.105
-709.660	-117.380	-0.199	0.036
-708.645	-200.000	-0.029	0.312
-707.631	207.695	-0.035	0.055
-706.616	467.997	-0.116	0.262
-705.602	-200.000	-0.055	0.432
-704.587	-96.523	-0.235	0.062
-703.572	279.303	0.070	-0.126
-702.558	56.916	-0.096	-0.094
-701.543	800.000	-0.021	0.063
-700.529	138.888	0.173	-0.228
-699.514	-37.478	0.281	-0.151
-698.499	17.852	-0.152	-0.122
-697.485	-156.363	0.201	0.013
-696.470	-64.769	0.058	-0.023
-695.456	-200.000	-0.024	0.202
-694.441	-86.471	0.086	-0.027
-693.426	-4.849	-0.080	-0.055
-692.412	62.923	-0.098	0.098
-691.397	800.000	0.124	0.359
-690.383	-200.000	0.025	-0.113
-689.368	-49.880	-0.154	0.073
-688.354	-200.000	-0.027	-0.236
-687.339	-200.000	0.480	0.000
-686.324	765.818	-0.091	-0.247
-685.310	-10.511	-0.283	-0.188
-684.295	19.545	0.301	-0.243
-683.281	671.546	0.091	-0.236
-682.266	-3.770	0.184	0.128
-681.251	-49.799	-0.049	0.024
-680.237	277.379	0.092	-0.164
-679.222	-1.626	0.097	-0.069
-678.208	278.080	0.072	0.128
-677.193	800.000	0.054	-0.170
-676.178	74.101	-0.212	0.223
-675.164	482.401	0.076	-0.173
-674.149	-200.000	0.012	-0.246
-673.135	-66.496	-0.051	0.020
-672.120	-137.502	0.364	-0.041
-671.105	371.346	-0.070	0.142
-670.091	111.610	-0.087	-0.105
-669.076	-90.154	-0.080	-0.023
-668.062	717.159	0.104	-0.278
-667.047	-80.077	-0.048	-0.016
-666.032	230.109	-0.023	-0.037
-665.018	46.858	0.161	-0.150
-664.003	-200.000	0.010	-0.071
-662.989	-154.865	0.173	0.011
-661.974	-41.906	0.304	-0.156
-660.959	-162.962	-0.204	-0.010
-659.945	83.817	-0.104	0.114
-658.930	148.203	0.054	0.073
-657.916	483.778	0.077	0.176
-656.901	64.819	0.095	0.097
-655.886	9.203	-0.086	0.065
-654.872	39.855	-0.255	-0.230
-653.857	-200.000	0.025	0.222
-652.843	-200.000	0.008	-0.127
-651.828	-72.671	0.212	0.078
-650.814	28.952	0.166	0.141
-649.799	-139.211	-0.231	0.025
-648.784	-115.277	0.223	0.042
-647.770	-200.000	0.021	-0.320
-646.755	-200.000	0.014	0.297
-645.741	145.274	-0.228	-0.306
-644.726	-75.566	-0.445	0.159
-643.711	327.322	0.064	0.123
-642.697	137.465	0.200	0.262
-641.682	168.086	0.224	-0.320
-640.668	800.000	0.087	0.241
-639.653	800.000	-0.135	0.384
-638.638	-122.762	0.190	0.031
-637.624	449.920	-0.095	-0.210
-636.609	-200.000	-0.004	-0.431
-635.595	-111.406	0.123	-0.025
-634.580	178.170	0.040	-0.058
-633.565	85.727	0.111	-0.122
-632.551	0.832	0.045	0.032
-631.536	800.000	0.065	-0.282
-630.522	-33.361	-0.040	0.022
-629.507	-65.236	0.093	-0.038
-628.492	293.730	-0.091	-0.167
-627.478	88.118	-0.171	-0.190
-626.463	-108.289	0.106	0.023
-625.449	435.706	0.220	-0.480
-624.434	-200.000	0.019	-0.381
-623.419	-200.000	0.009	-0.141
-622.405	-102.073	-0.248	0.060
-621.390	50.513	0.259	0.245
-620.376	7.595	-0.021	-0.016
-619.361	87.881	-0.170	-0.189
-618.346	707.114	0.023	-0.060
-617.332	-42.470	-0.137	0.070
-616.317	-51.871	0.220	0.102
-615.303	800.000	-0.040	-0.174
-614.288	-112.165	-0.129	0.026
-613.273	-56.521	-0.060	-0.027
-612.259	81.170	0.294	0.318
-611.244	-83.013	0.357	-0.115
-610.230	-7.410	0.200	-0.135
-609.215	164.087	0.049	-0.070
-608.201	64.946	0.094	0.095
-607.186	-200.000	-0.025	-0.164
-606.171	-200.000	-0.031	-0.211
-605.157	-66.266	-0.119	-0.048
-604.142	413.691	0.090	0.192
-603.128	71.964	-0.127	-0.133
-602.113	-46.274	0.245	0.121
-601.098	-40.444	-0.095	-0.049
-600.084	-48.933	0.208	-0.100
-599.069	-200.000	0.021	0.425
-598.055	-200.000	0.004	0.298
-597.040	-200.000	0.025	0.480
-596.025	89.702	0.193	0.215
-595.011	-47.496	-0.240	-0.117
-593.996	-70.129	0.217	0.083
-592.982	-7.527	-0.413	-0.279
-591.967	132.494	0.080	-0.103
-590.952	-99.783	0.219	-0.055
-589.938	26.022	-0.091	-0.076
-588.923	167.078	-0.122	0.173
-587.909	-200.000	-0.001	0.025
-586.894	-97.586	0.073	0.019
-585.879	-30.972	-0.222	0.125
-584.865	-138.155	0.257	0.028
-583.850	-36.582	-0.373	0.201
-582.836	66.909	-0.059	-0.060
-581.821	544.187	0.074	0.177
-580.806	266.233	-0.077	0.135
-579.792	-95.245	-0.286	-0.077
-578.777	-75.593	0.181	-0.064
-577.763	56.961	0.099	0.097
-576.748	-200.000	-0.034	-0.200
-575.733	-158.542	0.303	-0.017
-574.719	-136.887	0.096	-0.011
-573.704	2.902	0.083	0.061
-572.690	-16.096	0.173	0.110
-571.675	-44.528	-0.153	0.077
-570.661	-98.588	-0.288	-0.073
-569.646	-162.030	-0.256	-0.013
-568.631	-163.727	-0.202	-0.009
-567.617	34.304	0.084	0.073
-566.602	214.643	0.100	0.158
-565.588	-140.671	0.224	-0.023
-564.573	-93.922	0.151	0.042
-563.558	-200.000	-0.010	0.213
-562.544	567.265	-0.131	0.318
-561.529	245.001	-0.085	0.143
-560.515	-34.228	0.283	-0.155
-559.500	-52.952	-0.194	0.089
-558.485	-43.961	0.458	0.230
-557.471	-174.567	-0.462	-0.013
-556.456	-200.000	0.016	0.106
-555.442	-140.124	0.246	-0.026
-554.427	-23.744	0.491	-0.294
-553.412	-146.479	0.123	0.011
-552.398	-11.242	0.319	0.210
-551.383	-81.488	-0.470	-0.154
-550.369	-200.000	-0.021	-0.396
-549.354	-74.303	-0.151	-0.055
-548.339	49.782	-0.047	0.044
-547.325	-167.460	-0.546	0.022
-546.310	-200.000	0.014	-0.376
-545.296	19.145	-0.049	-0.039
-544.281	-200.000	0.102	-0.494
-543.266	145.646	0.015	-0.020
-542.252	-200.000	0.014	-0.103
-541.237	-80.890	0.150	-0.050
-540.223	59.202	-0.074	0.073
-539.208	118.890	-0.135	-0.166
-538.193	-86.113	-0.244	-0.075
-537.179	125.831	0.084	0.106
-536.164	-57.566	0.188	0.082
-535.150	218.676	-0.074	-0.119
-534.135	733.607	0.066	-0.176
-533.121	-11.378	0.248	-0.163
-532.106	712.185	0.049	-0.129
-531.091	327.480	0.178	0.342
-530.077	-43.897	-0.237	-0.119
-529.062	-45.043	-0.116	0.057
-528.048	387.732	-0.060	0.124
-527.033	-93.824	0.045	-0.012
-526.018	461.772	-0.079	0.177
-525.004	800.000	-0.065	-0.190
-523.989	739.425	-0.101	-0.270
-522.975	39.463	0.207	-0.185
-521.960	-31.241	-0.095	0.053
-520.945	572.175	0.020	-0.049
-519.931	795.082	0.051	0.140
-518.916	-138.854	-0.116	-0.013
-517.902	800.000	0.053	0.170
-516.887	618.892	-0.093	0.234
-515.872	24.362	-0.260	-0.214
-514.858	321.941	0.110	0.209
-513.843	-7.453	-0.145	-0.098
-512.829	473.035	0.143	-0.321
-511.814	-31.480	-0.154	-0.087
-510.799	-200.000	0.008	0.127
-509.785	292.623	0.149	-0.271
-508.770	110.402	0.236	0.283
-507.756	-18.962	0.397	0.246
-506.741	800.000	-0.060	-0.262
-505.726	-200.000	0.016	0.153
-504.712	84.064	-0.241	-0.262
-503.697	800.000	0.076	-0.270
-502.683	-185.213	-0.356	0.006
-501.668	-154.510	-0.507	-0.034
-500.653	-200.000	0.000	-0.085
-499.639	-143.393	0.155	-0.015
-498.624	-24.620	0.171	0.102
-497.610	235.650	0.108	0.177
-496.595	-200.000	0.047	0.450
-495.581	-137.049	-0.221	-0.025
-494.566	-46.413	0.154	0.075
-493.551	238.828	0.023	-0.038
-492.537	-192.185	-0.232	-0.002
-491.522	12.321	0.288	-0.221
-490.508	-200.000	-0.014	0.333
-489.493	-135.416	0.347	0.041
-488.478	-11.181	0.065	-0.042
-487.464	-200.000	0.000	0.048
-486.449	-200.000	-0.022	-0.125
-485.435	800.000	0.122	0.344
-484.420	-74.810	0.206	-0.074
-483.405	-56.046	-0.248	0.110
-482.391	513.864	0.062	-0.143
-481.376	-150.412	0.258	0.020
-480.362	-17.680	-0.148	-0.092
-479.347	-160.598	-0.165	0.009
-478.332	-200.000	0.008	0.093
-477.318	-155.988	0.073	0.005
-476.303	100.404	0.153	-0.177
-475.289	195.467	0.152	0.229
-474.274	-62.628	0.273	-0.113
-473.259	-94.821	0.094	-0.025
-472.245	800.000	0.078	0.256
-471.230	-69.409	0.183	0.070
-470.216	229.492	-0.136	-0.221
-469.201	509.481	-0.047	-0.109
-468.186	107.252	-0.044	-0.052
-467.172	-99.134	0.128	-0.032
-466.157	-105.893	-0.086	0.019
-465.143	800.000	0.038	-0.162
-464.128	-41.361	0.084	-0.043
-463.113	-75.413	-0.222	0.079
-462.099	8.405	0.105	-0.078
-461.084	-200.000	0.014	0.091
-460.070	76.484	-0.277	-0.292
-459.055	22.433	0.075	-0.061
-458.040	-200.000	0.013	0.123
-457.026	440.541	0.065	0.142
-456.011	134.862	0.147	0.190
-454.997	-6.295	-0.019	0.013
-453.982	-121.404	-0.157	-0.026
-452.968	189.472	-0.145	-0.216
-451.953	-200.000	-0.015	-0.089
-450.938	800.000	-0.029	-0.103
-449.924	800.000	0.037	0.113
-448.909	676.319	-0.064	-0.165
-447.895	-5.916	0.277	-0.188
-446.880	-136.415	-0.145	-0.017
-445.865	37.618	0.245	-0.216
-444.851	-123.906	-0.165	-0.026
-443.836	-27.449	0.159	0.092
-442.822	-200.000	-0.026	0.194
-441.807	-183.895	-0.116	0.002
-440.792	315.345	-0.040	-0.074
-439.778	2.297	0.059	-0.043
-438.763	-111.163	-0.342	0.070
-437.749	-178.490	0.200	0.005
-436.734	800.000	-0.077	0.277
-435.719	-200.000	-0.045	-0.226
-434.705	-68.957	-0.249	0.096
-433.690	800.000	0.043	0.143
-432.676	800.000	-0.014	-0.053
-431.661	-200.000	0.002	-0.025
-430.646	-126.958	-0.211	-0.031
-429.632	176.438	0.052	0.075
-428.617	54.079	0.263	0.252
-427.603	36.907	-0.219	-0.192
-426.588	79.136	0.050	-0.053
-425.573	800.000	-0.016	-0.055
-424.559	122.226	-0.284	0.352
-423.544	-23.578	-0.183	0.109
-422.530	800.000	0.056	-0.165
-421.515	121.177	0.052	0.064
-420.500	151.107	0.131	0.177
-419.486	-200.000	-0.006	0.204
-418.471	212.712	-0.133	-0.208
-417.457	-200.000	-0.006	0.031
-416.442	-34.853	-0.084	-0.046
-415.428	50.251	-0.281	-0.264
-414.413	-118.259	0.102	0.018
-413.398	-47.468	-0.345	-0.167
-412.384	-48.670	0.144	0.069
-411.369	-200.000	0.025	-0.208
-410.355	-200.000	-0.075	-0.335
-409.340	16.356	-0.087	-0.068
-408.325	800.000	-0.023	0.096
-407.311	717.677	0.123	0.323
-406.296	-120.561	0.253	-0.043
-405.282	-63.561	-0.154	-0.063
-404.267	-147.737	0.203	0.017
-403.252	298.744	0.106	-0.194
-402.238	-132.341	0.045	0.006
-401.223	-32.645	-0.207	-0.114
-400.209	-200.000	0.014	-0.152
-399.194	278.245	-0.073	-0.130
-398.179	111.323	0.112	0.134
-397.165	143.804	0.124	-0.164
-396.150	31.165	-0.198	-0.168
-395.136	800.000	0.057	0.168
-394.121	235.283	0.093	0.153
-393.106	541.362	-0.110	-0.260
-392.092	18.420	-0.036	0.028
-391.077	74.232	-0.092	-0.096
-390.063	8.950	0.062	0.046
-389.048	-13.870	-0.298	0.191
-388.033	-200.000	0.009	-0.056
-387.019	475.535	-0.088	0.197
-386.004	-161.985	0.095	-0.005
-384.990	-1.449	-0.162	0.113
-383.975	-27.221	0.194	-0.112
-382.960	-200.000	0.383	-0.000
-381.946	-200.000	-0.014	0.067
-380.931	-104.570	-0.119	0.027
-379.917	304.842	0.080	0.148
-378.902	-200.000	-0.004	0.054
-377.888	79.505	0.085	-0.090
-376.873	-102.524	-0.229	-0.054
-375.858	-200.000	0.022	-0.271
-374.844	-138.771	0.431	-0.047
-373.829	-200.000	-0.012	0.378
-372.815	-21.256	-0.062	0.038
-371.800	83.832	-0.277	0.299
-370.785	93.823	-0.089	0.100
-369.771	-0.833	0.267	0.188
-368.756	168.235	-0.104	-0.147
-367.742	-200.000	-0.062	-0.317
-366.727	-39.392	0.268	-0.140
-365.712	800.000	0.039	-0.163
-364.698	-44.221	-0.183	-0.091
-363.683	-142.492	-0.110	0.011
-362.669	-22.896	-0.203	-0.121
-361.654	415.399	-0.018	0.038
-360.639	-11.919	-0.200	-0.130
-359.625	-56.581	0.216	0.095
-358.610	-8.120	0.214	-0.143
-357.596	181.821	0.049	0.071
-356.581	-52.583	-0.266	0.122
-355.566	-55.861	0.295	0.130
-354.552	-59.386	-0.081	0.034
-353.537	246.502	-0.032	0.053
-352.523	800.000	-0.070	0.265
-351.508	498.371	-0.016	-0.037
-350.493	-10.931	0.013	0.009
-349.479	-200.000	-0.010	-0.261
-348.464	534.081	0.090	-0.211
-347.450	800.000	0.114	-0.329
-346.435	-91.052	0.159	0.045
-345.420	-200.000	-0.008	-0.153
-344.406	121.042	0.108	0.133
-343.391	-200.000	-0.041	0.190
-342.377	533.571	-0.130	-0.305
-341.362	-128.271	-0.125	0.018
-340.348	92.470	-0.143	-0.160
-339.333	542.608	0.020	-0.047
-338.318	800.000	0.033	-0.143
-337.304	-177.754	0.211	-0.005
-336.289	-141.584	-0.166	0.017
-335.275	403.874	-0.127	0.265
-334.260	-200.000	-0.010	0.314
-333.245	205.639	0.142	0.219
-332.231	3.072	-0.320	-0.230
-331.216	98.352	-0.058	-0.066
-330.202	59.060	0.208	0.202
-329.187	-100.357	0.303	-0.074
-328.172	153.693	-0.293	-0.398
-327.158	-13.275	0.333	0.214
-326.143	-157.287	-0.102	0.006
-325.129	-200.000	0.002	-0.366
-324.114	-200.000	0.017	-0.183
-323.099	-15.453	0.126	0.080
-322.085	277.019	0.057	-0.101
-321.070	529.568	-0.175	0.410
-320.056	618.158	0.139	-0.347
-319.041	-18.095	-0.196	0.121
-318.026	-200.000	-0.059	-0.257
-317.012	5.753	-0.063	0.046
-315.997	800.000	-0.021	0.078
-314.983	800.000	-0.098	0.357
-313.968	26.577	-0.222	-0.184
-312.953	-142.087	0.241	0.024
-311.939	-200.000	0.008	0.042
-310.924	-160.128	-0.168	-0.009
-309.910	-77.095	0.323	0.112
-308.895	50.084	0.039	0.036
-307.880	-200.000	0.002	-0.017
-306.866	-4.271	0.308	0.211
-305.851	233.059	0.197	-0.320
-304.837	139.173	-0.165	-0.215
-303.822	77.092	-0.112	0.118
-302.807	800.000	-0.026	-0.074
-301.793	-19.117	-0.046	-0.028
-300.778	800.000	-0.074	0.216
-299.764	36.114	-0.133	-0.116
-298.749	800.000	-0.031	-0.124
-297.735	800.000	-0.078	-0.261
-296.720	800.000	-0.089	-0.242
-295.705	118.907	0.097	0.118
-294.691	-136.463	-0.310	-0.036
-293.676	-160.874	0.122	-0.006
-292.662	288.868	-0.146	0.262
-291.647	36.749	-0.055	-0.048
-290.632	-200.000	-0.004	-0.168
-289.618	-200.000	-0.046	0.475
-288.603	84.286	0.211	-0.228
-287.589	800.000	0.056	-0.165
-286.574	-200.000	-0.002	0.160
-285.559	285.285	0.161	0.286
-284.545	70.595	0.369	0.378
-283.530	-200.000	0.007	-0.442
-282.516	-200.000	0.068	0.000
-281.501	-128.623	0.277	0.039
-280.486	584.982	0.128	0.311
-279.472	297.853	-0.229	0.415
-278.457	51.452	-0.137	-0.129
-277.443	-169.151	-0.126	0.005
-276.428	-104.414	-0.144	-0.033
-275.413	-138.310	-0.185	0.020
-274.399	-95.792	0.093	-0.024
-273.384	-16.231	0.174	-0.109
-272.370	21.740	-0.067	-0.054
-271.355	800.000	0.036	0.151
-270.340	-200.000	0.007	0.160
-269.326	-162.097	0.577	0.029
-268.311	-20.665	-0.107	-0.065
-267.297	-54.782	0.269	0.120
-266.282	-200.000	-0.002	0.058
-265.267	735.686	0.061	0.161
-264.253	-200.000	-0.069	0.301
-263.238	95.071	-0.233	-0.262
-262.224	546.289	-0.133	-0.314
-261.209	-53.090	-0.009	-0.004
-260.195	-200.000	0.025	0.243
-259.180	48.449	0.073	0.068
-258.165	516.267	-0.202	-0.466
-257.151	-117.796	-0.156	-0.028
-256.136	-67.022	-0.176	0.069
-255.122	43.052	-0.150	0.135
-254.107	800.000	-0.056	0.207
-253.092	-200.000	0.033	0.162
-252.078	-200.000	0.065	-0.308
-251.063	80.587	0.179	-0.190
-250.049	-148.712	0.035	0.003
-249.034	147.608	0.213	-0.283
-248.019	506.692	0.057	0.130
-247.005	85.250	-0.215	0.233
-245.990	743.649	-0.092	0.244
-244.976	71.984	0.088	0.090
-243.961	-200.000	-0.064	0.459
-242.946	800.000	0.065	-0.187
-241.932	-200.000	0.009	-0.446
-240.917	-200.000	-0.056	-0.414
-239.903	-76.343	-0.277	0.096
-238.888	507.504	-0.209	0.479
-237.873	-200.000	0.050	-0.296
-236.859	-134.323	-0.254	-0.031
-235.844	107.558	-0.036	0.042
-234.830	-28.059	0.148	-0.085
-233.815	-120.358	-0.250	-0.042
-232.800	-76.282	0.200	-0.069
-231.786	-119.967	-0.410	0.069
-230.771	-145.591	-0.286	0.025
-229.757	405.772	-0.093	0.194
-228.742	-200.000	-0.022	0.125
-227.727	623.861	0.063	-0.157
-226.713	-57.731	-0.327	0.141
-225.698	-200.000	-0.032	0.418
-224.684	-151.441	-0.224	-0.016
-223.669	800.000	-0.107	-0.332
-222.655	-28.212	-0.520	-0.296
-221.640	-82.553	0.215	0.069
-220.625	-87.175	0.101	-0.030
-219.611	-85.875	0.302	0.092
-218.596	764.625	-0.041	0.109
-217.582	-200.000	0.007	0.122
-216.567	121.791	0.183	0.225
-215.552	22.072	-0.109	0.087
-214.538	-115.220	0.147	0.027
-213.523	-200.000	-0.035	0.313
-212.509	-34.583	-0.088	-0.048
-211.494	800.000	-0.043	-0.119
-210.479	174.740	0.100	-0.143
-209.465	525.467	0.116	0.269
-208.450	-76.290	0.023	-0.008
-207.436	28.871	-0.134	0.112
-206.421	-72.835	0.526	0.191
-205.406	-172.358	0.222	0.007
-204.392	73.319	-0.083	-0.086
-203.377	77.135	0.024	-0.025
-202.363	97.286	-0.081	-0.091
-201.348	-14.544	0.186	-0.118
-200.333	800.000	-0.076	0.238
-199.319	41.058	-0.088	0.078
-198.304	215.080	-0.095	0.148
-197.290	-193.018	-0.051	0.000
-196.275	354.708	0.094	0.183
-195.260	26.387	-0.170	0.140
-194.246	167.232	0.053	0.074
-193.231	536.321	-0.028	-0.064
-192.217	114.642	0.275	0.330
-191.202	-200.000	0.008	0.159
-190.187	-62.153	-0.183	-0.075
-189.173	-200.000	0.009	-0.127
-188.158	-54.576	-0.294	0.131
-187.144	-140.435	-0.389	0.040
-186.129	-14.340	0.271	-0.172
-185.114	26.992	0.233	-0.193
-184.100	-38.450	0.296	0.154
-183.085	96.118	-0.048	0.054
-182.071	123.561	0.180	0.222
-181.056	-21.002	0.119	-0.072
-180.042	551.988	-0.182	0.431
-179.027	-66.256	-0.070	0.027
-178.012	146.917	0.135	0.178
-176.998	-200.000	-0.018	0.093
-175.983	800.000	-0.024	0.077
-174.969	435.336	-0.078	-0.167
-173.954	232.762	0.078	-0.127
-172.939	-143.445	0.293	-0.028
-171.925	34.856	-0.147	0.126
-170.910	117.784	-0.193	0.234
-169.896	49.820	0.101	-0.094
-168.881	800.000	-0.087	-0.262
-167.866	33.787	0.258	-0.221
-166.852	195.496	-0.075	0.112
-165.837	15.691	0.243	0.188
-164.823	-200.000	0.033	0.191
-163.808	27.911	0.114	0.094
-162.793	-140.228	-0.400	-0.041
-161.779	-200.000	-0.013	-0.245
-160.764	-71.281	-0.031	-0.011
-159.750	205.449	-0.182	-0.278
-158.735	-44.794	-0.208	0.102
-157.720	-65.250	0.252	-0.100
-156.706	-108.062	0.261	0.056
-155.691	-51.575	-0.089	0.041
-154.677	-200.000	-0.018	-0.081
-153.662	-77.147	0.215	-0.074
-152.647	-200.000	-0.013	-0.160
-151.633	-56.907	-0.167	-0.072
-150.618	41.362	0.272	-0.242
-149.604	800.000	0.066	-0.270
-148.589	-94.068	-0.085	-0.023
-147.574	-32.052	-0.362	-0.199
-146.560	407.803	0.084	-0.174
-145.545	-200.000	0.010	0.133
-144.531	800.000	0.043	-0.154
-143.516	41.220	0.169	-0.151
-142.502	15.750	0.076	0.059
-141.487	66.153	-0.234	-0.234
-140.472	-136.105	0.069	-0.008
-139.458	49.652	-0.227	0.210
-138.443	162.244	-0.296	-0.408
-137.429	-118.727	0.286	0.050
-136.414	-200.000	-0.337	0.001
-135.399	-86.019	0.423	0.128
-134.385	312.935	-0.188	0.348
-133.370	-60.865	0.458	0.191
-132.356	301.095	0.060	-0.110
-131.341	800.000	-0.191	-0.533
-130.326	29.274	-0.091	-0.076
-129.312	-25.998	0.209	-0.121
-128.297	-161.790	0.148	0.007
-127.283	-69.419	-0.189	0.071
-126.268	799.050	-0.045	-0.122
-125.253	129.188	-0.203	-0.254
-124.239	734.454	-0.036	0.096
-123.224	-4.555	0.147	0.100
-122.210	-109.910	-0.375	-0.077
-121.195	-63.268	0.260	0.105
-120.180	-46.445	0.209	-0.101
-119.166	800.000	0.078	-0.248
-118.151	-200.000	0.044	0.210
-117.137	-62.645	-0.135	0.055
-116.122	-194.991	0.237	0.002
-115.107	-3.449	0.314	0.215
-114.093	182.786	-0.147	0.213
-113.078	1.967	-0.099	0.070
-112.064	-200.000	-0.013	-0.179
-111.049	61.026	0.355	-0.346
-110.034	40.506	0.108	0.095
-109.020	800.000	-0.075	0.272
-108.005	800.000	-0.050	-0.162
-106.991	-70.349	-0.396	0.147
-105.976	-73.982	0.359	-0.128
-104.962	85.624	0.315	-0.339
-103.947	14.738	-0.167	0.128
-102.932	33.430	0.415	-0.353
-101.918	-47.310	0.124	0.059
-100.903	253.270	-0.130	0.217
-99.889	57.483	0.201	0.193
-98.874	-105.343	-0.215	0.048
-97.859	20.963	-0.180	0.143
-96.845	-121.402	-0.090	0.015
-95.830	319.130	0.137	-0.255
-94.816	-160.793	-0.157	0.008
-93.801	-83.173	-0.102	-0.032
-92.786	800.000	0.071	0.304
-91.772	-70.942	0.360	0.133
-90.757	289.876	0.037	-0.066
-89.743	-141.668	0.007	-0.001
-88.728	800.000	-0.073	-0.304
-87.713	-200.000	0.033	0.377
-86.699	-69.938	-0.191	0.071
-85.684	656.365	0.104	-0.261
-84.670	-43.680	0.041	0.020
-83.655	-76.195	-0.340	0.118
-82.640	-105.513	0.138	-0.031
-81.626	-32.292	-0.113	-0.062
-80.611	149.311	0.014	-0.018
-79.597	-200.000	0.025	-0.144
-78.582	-31.070	0.234	-0.129
-77.567	627.870	0.056	-0.139
-76.553	162.655	-0.288	0.397
-75.538	-200.000	-0.012	0.064
-74.524	158.383	0.161	-0.219
-73.509	-200.000	-0.063	0.310
-72.494	362.563	0.094	0.185
-71.480	22.895	0.055	-0.044
-70.465	64.778	0.046	-0.046
-69.451	-32.619	0.238	-0.130
-68.436	-200.000	-0.050	0.245
-67.422	-200.000	-0.028	-0.298
-66.407	-200.000	-0.019	-0.149
-65.392	-118.409	0.243	-0.042
-64.378	-86.654	-0.210	0.063
-63.363	80.146	0.186	0.196
-62.349	-200.000	0.026	0.431
-61.334	31.034	-1.099	-0.923
-60.319	109.017	0.458	0.536
-59.305	-200.000	-0.118	-0.835
-58.290	121.850	0.739	0.903
-57.276	800.000	0.508	1.462
-56.261	-200.000	108.718	603.793
-55.246	511.984	1493.916	3407.843
-54.232	178.625	2685.283	3842.281
-53.217	104.111	2280.823	2626.976
-52.203	38.482	1892.047	1651.883
-51.188	32.773	1681.646	1425.144
-50.173	30.168	1638.898	1369.649
-49.159	48.495	1693.617	1553.596
-48.144	48.959	1708.487	1570.663
-47.130	32.177	1665.653	1406.908
-46.115	29.679	1650.439	1375.436
-45.100	29.448	1645.963	1369.933
-44.086	29.378	1643.482	1367.296
-43.071	29.310	1640.869	1364.565
-42.057	29.288	1638.856	1362.673
-41.042	29.348	1636.470	1361.077
-40.027	29.419	1634.190	1359.649
-39.013	29.251	1632.818	1357.218
-37.998	29.322	1630.654	1355.893
-36.984	29.319	1629.894	1355.185
-35.969	29.458	1627.974	1354.552
-34.954	29.593	1626.458	1354.228
-33.940	29.437	1625.181	1351.964
-32.925	29.515	1623.192	1350.828
-31.911	29.512	1621.070	1348.986
-30.896	29.508	1619.545	1347.637
-29.881	29.480	1618.207	1346.264
-28.867	29.389	1616.695	1344.293
-27.852	29.412	1615.200	1343.158
-26.838	29.483	1613.877	1342.526
-25.823	29.553	1612.095	1341.496
-24.809	29.513	1611.031	1340.265
-23.794	29.518	1609.687	1339.133
-22.779	29.512	1608.224	1337.821
-21.765	29.524	1606.092	1336.079
-20.750	29.390	1605.168	1334.286
-19.736	29.458	1603.993	1333.753
-18.721	29.538	1602.005	1332.621
-17.706	29.572	1600.221	1331.333
-16.692	29.518	1599.071	1329.930
-15.677	29.598	1597.418	1329.081
-14.663	29.617	1595.791	1327.811
-13.648	29.623	1594.431	1326.669
-12.633	29.427	1593.619	1324.532
-11.619	29.502	1592.119	1323.774
-10.604	29.447	1590.367	1321.868
-9.590	29.545	1589.172	1321.524
-8.575	29.578	1587.664	1320.454
-7.560	29.513	1586.930	1319.326
-6.546	29.483	1585.742	1318.071
-5.531	29.609	1584.557	1317.937
-4.517	29.413	1583.729	1315.797
-3.502	29.517	1582.464	1315.437
-2.487	29.589	1580.127	1313.952
-1.473	29.203	1568.503	1301.504
-0.458	26.186	1549.342	1264.466
0.556	24.331	1549.914	1231.893
1.571	21.877	1572.962	1232.879
2.586	21.303	1585.904	1238.842
3.600	19.185	1532.122	1182.203
4.615	11.689	1425.428	1051.732
5.629	5.012	1364.150	965.212
6.644	3.741	1356.206	951.680
7.659	3.678	1354.796	950.222
8.673	3.780	1353.859	950.106
9.688	3.771	1351.672	948.430
10.702	3.754	1348.383	945.936
11.717	6.785	1354.716	968.914
12.731	14.997	1370.225	1030.693
13.746	22.072	1381.208	1082.635
14.761	23.907	1383.232	1095.441
15.775	23.526	1381.634	1091.737
16.790	22.825	1379.371	1085.538
17.804	22.051	1378.087	1079.674
18.819	21.904	1376.444	1077.395
19.834	21.880	1376.402	1077.114
20.848	21.967	1375.243	1076.646
21.863	21.815	1374.087	1074.718
22.877	21.743	1373.357	1073.606
23.892	21.679	1372.372	1072.349
24.907	21.646	1371.292	1071.212
25.921	21.603	1370.231	1070.025
26.936	21.653	1369.488	1069.656
27.950	21.793	1368.370	1069.540
28.965	21.862	1367.484	1069.173
29.980	21.953	1366.592	1068.937
30.994	22.120	1365.630	1069.107
32.009	22.036	1364.842	1067.887
33.023	22.013	1363.824	1066.852
34.038	21.984	1362.196	1065.310
35.053	21.816	1360.955	1063.225
36.067	21.821	1360.130	1062.518
37.082	21.835	1359.112	1061.716
38.096	22.009	1358.043	1061.840
39.111	21.923	1357.862	1061.083
40.126	21.646	1357.154	1058.760
41.140	21.417	1355.608	1056.075
42.155	21.266	1355.169	1054.729
43.169	21.241	1354.899	1054.277
44.184	21.043	1355.024	1053.086
45.199	21.353	1354.718	1054.625
46.213	21.426	1354.379	1054.707
47.228	21.714	1353.564	1055.714
48.242	21.765	1352.362	1054.992
49.257	21.676	1350.863	1053.194
50.271	21.738	1349.471	1052.388
51.286	21.625	1348.434	1050.809
52.301	21.612	1347.282	1049.736
53.315	21.651	1345.458	1048.458
54.330	21.379	1344.967	1046.354
55.344	21.382	1343.398	1045.061
56.359	21.213	1342.931	1043.597
57.374	21.327	1341.131	1042.786
58.388	21.200	1340.869	1041.729
59.403	21.096	1340.786	1040.955
60.417	21.079	1339.275	1039.586
61.432	20.979	1338.532	1038.323
62.447	21.067	1337.591	1038.021
63.461	20.922	1336.967	1036.583
64.476	20.872	1335.471	1035.039
65.490	20.892	1333.969	1033.898
66.505	20.857	1333.025	1032.868
67.520	20.934	1331.610	1032.137
68.534	20.942	1329.989	1030.835
69.549	20.870	1329.455	1029.904
70.563	20.742	1328.085	1027.997
71.578	20.682	1326.970	1026.690
72.593	20.645	1326.179	1025.767
73.607	20.538	1325.710	1024.685
74.622	20.613	1324.790	1024.324
75.636	20.707	1324.662	1024.688
76.651	20.842	1323.363	1024.385
77.666	20.792	1323.447	1024.065
78.680	20.848	1322.473	1023.555
79.695	20.952	1322.331	1023.960
80.709	21.016	1321.985	1023.980
81.724	21.293	1320.984	1024.738
82.739	21.334	1320.256	1024.322
83.753	21.593	1319.660	1025.287
84.768	21.709	1319.270	1025.572
85.782	21.915	1318.275	1025.911
86.797	21.912	1316.932	1024.759
87.812	21.759	1315.670	1022.792
88.826	21.811	1314.468	1022.074
89.841	21.838	1313.547	1021.421
90.855	21.833	1312.768	1020.695
91.870	22.014	1311.840	1020.940
92.884	22.110	1311.202	1020.911
93.899	22.050	1310.688	1020.070
94.914	22.036	1310.091	1019.433
95.928	22.074	1308.521	1018.341
96.943	22.032	1307.538	1017.247
97.957	21.912	1307.044	1016.078
98.972	21.918	1305.860	1015.097
99.987	21.963	1304.783	1014.431
101.001	21.968	1304.033	1013.786
102.016	21.905	1303.158	1012.656
103.030	21.916	1302.228	1011.909
104.045	21.750	1301.489	1010.283
105.060	21.722	1299.676	1008.626
106.074	21.295	1298.091	1004.854
107.089	21.162	1295.985	1002.370
108.103	20.948	1294.817	1000.148
109.118	20.959	1293.706	999.269
110.133	20.878	1292.318	997.645
111.147	20.948	1291.009	996.945
112.162	21.064	1290.173	996.877
113.176	21.161	1289.300	996.664
114.191	21.114	1288.304	995.541
115.206	21.156	1287.140	994.788
116.220	21.175	1286.252	994.126
117.235	21.213	1284.632	992.998
118.249	21.009	1283.566	990.929
119.264	20.822	1282.711	989.119
120.279	20.792	1281.222	987.713
121.293	20.729	1280.102	986.407
122.308	20.620	1279.498	985.237
123.322	20.511	1278.513	983.771
124.337	20.522	1276.970	982.563
125.352	20.452	1276.182	981.471
126.366	20.473	1274.884	980.504
127.381	20.535	1273.553	979.743
128.395	20.449	1272.353	978.251
129.410	20.436	1271.563	977.485
130.424	20.541	1271.336	977.812
131.439	20.760	1270.694	978.467
132.454	21.001	1269.592	978.883
133.468	20.961	1269.481	978.485
134.483	21.051	1268.664	978.274
135.497	21.039	1267.525	977.242
136.512	21.196	1266.021	976.875
137.527	21.072	1265.226	975.482
138.541	21.141	1264.062	974.883
139.556	21.297	1263.103	974.925
140.570	21.380	1262.131	974.554
141.585	21.558	1260.857	974.475
142.600	21.638	1260.802	974.792
143.614	21.695	1259.909	974.333
144.629	21.922	1259.095	974.881
145.643	21.832	1257.853	973.330
146.658	21.599	1256.147	970.631
147.673	21.347	1254.767	968.083
148.687	21.264	1253.842	966.825
149.702	21.097	1252.003	964.399
150.716	21.028	1250.603	962.856
151.731	21.031	1249.518	961.953
152.746	21.098	1248.699	961.602
153.760	21.162	1247.754	961.143
154.775	21.254	1247.024	961.003
155.789	21.474	1245.875	961.241
156.804	21.479	1244.983	960.494
157.819	21.537	1244.031	959.992
158.833	21.578	1243.811	959.965
159.848	21.761	1242.765	960.076
160.862	21.579	1242.069	958.454
161.877	21.309	1240.446	955.643
162.892	21.006	1239.367	953.072
163.906	20.988	1238.193	951.984
164.921	21.020	1237.040	951.188
165.935	21.106	1236.515	951.167
166.950	21.187	1236.242	951.316
167.964	21.110	1235.706	950.402
168.979	21.114	1234.941	949.751
169.994	21.102	1233.699	948.648
171.008	21.132	1232.900	948.109
172.023	21.296	1232.957	948.960
173.037	21.561	1232.064	949.626
174.052	21.625	1230.985	949.058
175.067	21.254	1229.440	945.774
176.081	20.896	1228.679	943.169
177.096	20.913	1228.169	942.785
178.110	21.045	1226.839	942.398
179.125	21.074	1225.835	941.698
180.140	21.317	1225.382	942.574
181.154	21.474	1224.313	942.517
182.169	21.572	1223.218	942.116
183.183	21.667	1221.727	941.395
184.198	21.614	1221.110	940.555
185.213	21.644	1220.088	939.842
186.227	21.678	1219.229	939.284
187.242	21.691	1218.407	938.634
188.256	21.826	1217.342	938.452
189.271	21.918	1216.905	938.527
190.286	21.616	1215.534	935.772
191.300	21.275	1214.097	932.765
192.315	21.083	1213.277	931.024
193.329	21.171	1212.884	931.112
194.344	21.147	1212.127	930.321
195.359	21.129	1211.528	929.684
196.373	21.132	1211.092	929.279
197.388	21.294	1211.142	930.098
198.402	21.630	1210.955	931.661
199.417	21.899	1210.845	932.927
200.432	22.103	1209.992	933.270
201.446	22.019	1209.809	932.599
202.461	22.262	1208.583	932.860
203.475	22.143	1207.386	931.222
204.490	21.884	1205.894	928.618
205.504	21.607	1205.089	926.454
206.519	21.523	1203.397	924.623
207.534	21.298	1202.322	922.530
208.548	21.359	1201.399	922.061
209.563	21.477	1200.553	921.951
210.577	21.443	1199.352	920.773
211.592	21.722	1198.803	921.735
212.607	21.868	1198.696	922.336
213.621	21.864	1197.976	921.685
214.636	21.818	1196.656	920.342
215.650	21.791	1196.098	919.690
216.665	21.946	1195.582	920.027
217.680	22.110	1195.102	920.437
218.694	22.288	1193.892	920.351
219.709	22.107	1192.934	918.589
220.723	22.076	1192.301	917.856
221.738	22.034	1191.326	916.805
222.753	21.886	1190.426	915.259
223.767	21.917	1189.987	915.002
224.782	22.155	1189.624	915.882
225.796	22.338	1189.488	916.649
226.811	22.199	1188.343	914.965
227.826	22.068	1187.470	913.529
228.840	21.781	1186.951	911.557
229.855	21.793	1186.060	910.852
230.869	21.742	1185.048	909.731
231.884	21.697	1183.982	908.601
232.899	21.510	1182.954	906.762
233.913	21.425	1182.365	905.790
234.928	21.359	1181.689	904.848
235.942	21.231	1181.189	903.724
236.957	21.303	1179.892	903.024
237.972	21.224	1179.249	902.043
238.986	21.269	1178.623	901.719
240.001	21.363	1177.927	901.588
241.015	21.343	1177.361	900.975
242.030	21.452	1176.483	900.786
243.045	21.718	1175.927	901.648
244.059	21.726	1175.152	901.013
245.074	21.921	1174.334	901.307
246.088	21.831	1174.342	900.772
247.103	22.032	1173.574	901.134
248.117	22.233	1172.842	901.526
249.132	22.378	1172.716	902.091
250.147	22.774	1172.556	903.919
251.161	22.965	1171.791	904.224
252.176	23.060	1170.856	903.912
253.190	23.048	1170.887	903.790
254.205	23.083	1170.407	903.519
255.220	23.205	1169.497	903.362
256.234	23.124	1168.731	902.275
257.249	23.016	1167.979	901.062
258.263	22.987	1167.385	900.380
259.278	22.963	1166.403	899.420
260.293	22.982	1166.244	899.315
261.307	23.142	1165.730	899.650
262.322	23.146	1164.771	898.854
263.336	23.187	1164.354	898.658
264.351	23.082	1164.284	897.993
265.366	23.086	1163.251	897.137
266.380	23.121	1162.490	896.646
267.395	23.044	1161.610	895.501
268.409	22.826	1160.682	893.601
269.424	22.834	1160.073	893.093
270.439	22.807	1159.628	892.539
271.453	22.722	1158.803	891.391
272.468	22.645	1157.212	889.702
273.482	22.433	1156.629	888.106
274.497	22.533	1156.045	888.081
275.512	22.476	1155.488	887.291
276.526	22.549	1154.397	886.738
277.541	22.490	1154.226	886.232
278.555	22.556	1153.617	886.019
279.570	23.035	1152.860	887.765
280.585	23.142	1152.527	887.969
281.599	23.106	1151.588	886.986
282.614	22.780	1150.215	884.216
283.628	22.682	1148.823	882.578
284.643	22.576	1147.996	881.336
285.657	22.600	1147.251	880.802
286.672	22.573	1146.487	880.004
287.687	22.638	1145.450	879.453
288.701	22.786	1144.953	879.733
289.716	22.726	1143.823	878.490
290.730	22.822	1142.963	878.228
291.745	22.793	1142.559	877.698
292.760	22.738	1142.153	877.033
293.774	22.840	1141.798	877.190
294.789	23.068	1142.024	878.417
295.803	22.977	1140.835	876.972
296.818	22.787	1139.916	875.247
297.833	22.769	1138.293	873.835
298.847	22.653	1138.203	873.114
299.862	22.733	1137.263	872.710
300.876	22.792	1136.744	872.527
301.891	22.814	1135.972	871.966
302.906	23.077	1135.814	873.067
303.920	23.222	1135.212	873.243
304.935	23.367	1135.108	873.802
305.949	23.549	1134.187	873.908
306.964	23.481	1133.524	872.988
307.979	23.362	1132.555	871.576
308.993	23.160	1131.728	869.873
310.008	23.160	1131.104	869.318
311.022	23.281	1130.534	869.395
312.037	23.165	1129.970	868.315
313.052	23.090	1128.269	866.565
314.066	22.995	1127.014	865.061
315.081	22.619	1126.045	862.397
316.095	22.466	1125.473	861.139
317.110	22.625	1124.613	861.178
318.125	22.563	1123.921	860.269
319.139	22.647	1122.941	859.855
320.154	22.587	1122.598	859.221
321.168	22.526	1122.268	858.596
322.183	22.629	1121.426	858.379
323.197	22.716	1120.803	858.249
324.212	22.762	1120.534	858.191
325.227	22.855	1119.989	858.146
326.241	22.846	1119.485	857.642
327.256	22.737	1118.324	856.149
328.270	22.660	1117.585	855.134
329.285	22.561	1116.914	854.065
330.300	22.684	1115.745	853.692
331.314	22.665	1114.457	852.537
332.329	22.655	1113.675	851.819
333.343	22.719	1113.244	851.720
334.358	22.853	1112.586	851.791
335.373	23.043	1112.450	852.525
336.387	23.133	1111.787	852.376
337.402	23.198	1110.918	851.947
338.416	23.262	1110.018	851.488
339.431	23.284	1109.805	851.356
340.446	23.505	1109.597	852.181
341.460	23.732	1109.168	852.866
342.475	23.787	1108.307	852.395
343.489	23.821	1107.326	851.727
344.504	24.014	1106.384	851.850
345.519	23.961	1105.487	850.832
346.533	24.119	1105.034	851.162
347.548	24.125	1104.432	850.651
348.562	23.991	1103.143	848.943
349.577	23.553	1102.529	846.307
350.592	23.298	1101.286	844.062
351.606	23.121	1100.267	842.365
352.621	23.013	1099.536	841.220
353.635	22.950	1098.806	840.284
354.650	22.892	1098.398	839.626
355.665	23.089	1097.559	839.842
356.679	23.082	1097.111	839.393
357.694	23.255	1096.636	839.776
358.708	23.457	1096.010	840.178
359.723	23.466	1095.399	839.677
360.738	23.346	1094.875	838.635
361.752	23.535	1093.732	838.578
362.767	23.307	1093.860	837.525
363.781	23.464	1093.278	837.748
364.796	23.879	1092.698	839.187
365.810	23.947	1092.763	839.484
366.825	24.045	1092.226	839.458
367.840	24.253	1091.639	839.917
368.854	24.241	1091.630	839.778
369.869	24.227	1090.341	838.645
370.883	24.042	1089.134	836.772
371.898	23.968	1088.096	835.552
372.913	23.821	1087.626	834.427
373.927	23.926	1087.734	834.930
374.942	24.117	1086.831	835.061
375.956	24.076	1086.215	834.319
376.971	23.977	1085.824	833.483
377.986	24.043	1085.349	833.351
379.000	24.328	1084.844	834.224
380.015	24.395	1084.322	834.063
381.029	24.549	1083.348	833.961
382.044	24.404	1082.732	832.736
383.059	24.236	1082.702	831.852
384.073	24.246	1081.468	830.877
385.088	24.341	1080.535	830.529
386.102	24.367	1079.805	830.016
387.117	24.033	1078.166	827.133
388.132	23.794	1077.257	825.250
389.146	23.715	1076.426	824.174
390.161	23.564	1075.861	822.969
391.175	23.640	1075.590	823.041
392.190	23.889	1074.899	823.593
393.205	24.204	1073.919	824.228
394.219	24.148	1073.127	823.287
395.234	24.002	1071.717	821.458
396.248	23.894	1070.714	820.119
397.263	23.717	1069.873	818.589
398.278	23.660	1069.473	817.948
399.292	23.658	1068.536	817.147
400.307	23.655	1067.856	816.540
401.321	23.628	1066.948	815.653
402.336	23.517	1066.199	814.496
403.350	23.471	1065.214	813.464
404.365	23.610	1065.279	814.078
405.380	23.822	1064.493	814.375
406.394	23.740	1064.069	813.604
407.409	24.091	1063.406	814.631
408.423	24.311	1063.179	815.391
409.438	24.281	1062.534	814.688
410.453	24.483	1062.019	815.144
411.467	24.555	1060.957	814.584
412.482	24.593	1060.586	814.402
413.496	24.595	1060.235	814.067
414.511	24.745	1059.747	814.304
415.526	24.881	1059.260	814.474
416.540	24.844	1059.288	814.258
417.555	24.881	1058.403	813.671
418.569	24.718	1057.541	812.199
419.584	24.629	1057.163	811.433
420.599	24.431	1056.835	810.209
421.613	156.343	1403.997	1796.146
422.628	143.637	1454.544	1796.253
