DTS Sentinel unit serial number:	SN413079Multiplexer serial number:	ORYXHardware model number:	OX4-SRSoftware version number:	ORYX F/W v4.00 Oryx Data Collector v3.7.2.0data status	okinstallation	princeton_trtdifferential loss correction	single-endedforward channel	channel 2reverse channel	N/Adate	2019/09/17time	05:27:35forward acquisition time	60.00reverse acquisition time	0.00gamma	496.2192k internal	0.2329k external	0.2329temperature offset calibration	0.9976default loss term (dB/km)	0.3790temperature slope calibration	1.0000multiplexer offset coefficient	1.0000multiplexer slope coefficient	1.0000fibre end	0.00T internal ref (°C)	29.27T ext. ref 1 (°C)	0.14T ext. ref 2 (°C)	23.31length (m)	temperature (°C)	Stokes	anti-Stokes-747.200	74.305	0.145	-0.154
-746.185	-11.083	-0.285	0.189
-745.171	-161.416	0.408	-0.021
-744.156	-200.000	-0.020	0.235
-743.142	-2.127	0.202	0.143
-742.127	65.951	0.312	0.319
-741.112	-105.637	0.190	0.043
-740.098	147.807	0.102	-0.138
-739.083	-75.206	-0.041	-0.015
-738.069	152.536	0.283	0.389
-737.054	-200.000	-0.027	0.131
-736.039	-119.103	-0.267	-0.047
-735.025	-82.192	0.170	0.056
-734.010	-28.690	-0.392	0.227
-732.996	-200.000	-0.012	-0.252
-731.981	56.867	0.205	-0.202
-730.966	-157.904	0.172	0.010
-729.952	-55.147	-0.028	0.013
-728.937	139.905	-0.086	0.114
-727.923	-200.000	-0.012	0.090
-726.908	-109.270	-0.171	0.036
-725.894	-163.488	-0.207	-0.010
-724.879	-74.527	0.283	-0.103
-723.864	-91.774	-0.212	0.061
-722.850	-122.915	-0.079	-0.013
-721.835	800.000	-0.106	-0.343
-720.821	-36.165	-0.169	-0.092
-719.806	582.059	-0.031	0.077
-718.791	91.727	-0.102	0.116
-717.777	21.664	0.131	0.107
-716.762	70.427	0.182	0.189
-715.748	800.000	-0.116	-0.334
-714.733	626.666	0.068	0.173
-713.718	-35.797	-0.124	-0.068
-712.704	-36.467	-0.069	0.038
-711.689	7.078	-0.238	-0.179
-710.675	588.726	-0.081	0.201
-709.660	-96.956	0.110	0.029
-708.645	-35.645	0.368	-0.201
-707.631	-102.701	-0.148	-0.035
-706.616	-153.040	-0.321	-0.023
-705.602	800.000	-0.042	-0.138
-704.587	800.000	0.083	-0.274
-703.572	-200.000	-0.208	0.001
-702.558	-25.991	0.252	-0.149
-701.543	84.960	0.219	0.242
-700.529	119.745	-0.204	0.255
-699.514	406.234	0.109	0.232
-698.499	-75.739	-0.114	0.041
-697.485	443.913	-0.120	-0.264
-696.470	-200.000	-0.046	0.286
-695.456	800.000	-0.147	-0.597
-694.441	800.000	0.102	-0.318
-693.426	235.594	0.137	-0.228
-692.412	-118.873	0.161	-0.028
-691.397	800.000	-0.084	0.312
-690.383	-200.000	0.059	0.449
-689.368	310.287	-0.117	0.220
-688.354	-119.363	-0.328	-0.057
-687.339	-200.000	0.008	-0.140
-686.324	-77.023	0.537	0.188
-685.310	-118.115	-0.273	-0.049
-684.295	138.866	0.140	0.185
-683.281	66.268	-0.229	-0.233
-682.266	-48.646	-0.291	-0.140
-681.251	-89.366	0.314	-0.093
-680.237	-36.661	-0.246	0.133
-679.222	-200.000	-0.024	-0.142
-678.208	-59.228	-0.170	0.074
-677.193	-200.000	0.005	0.090
-676.178	-14.600	-0.186	-0.120
-675.164	-200.000	-0.024	-0.104
-674.149	-200.000	0.008	-0.375
-673.135	-58.402	-0.152	-0.066
-672.120	-200.000	-0.014	0.189
-671.105	-128.677	-0.189	0.027
-670.091	-194.260	-0.309	0.003
-669.076	-106.971	-0.284	0.063
-668.062	453.485	-0.170	-0.378
-667.047	800.000	-0.110	-0.312
-666.032	270.553	-0.050	-0.088
-665.018	-51.924	0.135	0.063
-664.003	-200.000	-0.001	0.106
-662.989	75.228	-0.241	-0.256
-661.974	-71.278	0.187	-0.071
-660.959	-158.593	-0.073	-0.004
-659.945	99.712	-0.059	-0.069
-658.930	-153.089	0.272	0.019
-657.916	-72.033	0.081	0.030
-656.901	-200.000	0.029	0.132
-655.886	45.885	0.160	0.148
-654.872	437.573	0.074	-0.163
-653.857	-200.000	0.015	0.107
-652.843	-85.718	-0.273	0.085
-651.828	-200.000	-0.008	-0.096
-650.814	-19.108	-0.249	-0.155
-649.799	189.842	0.082	-0.123
-648.784	-200.000	0.028	0.215
-647.770	-152.545	-0.591	0.042
-646.755	167.629	0.090	0.129
-645.741	127.118	0.053	0.068
-644.726	81.574	0.159	0.172
-643.711	-172.182	0.234	-0.008
-642.697	-50.937	0.145	0.068
-641.682	-9.157	-0.235	-0.158
-640.668	-19.681	-0.105	0.065
-639.653	9.817	-0.424	0.323
-638.638	-159.031	-0.194	0.011
-637.624	158.362	-0.067	0.094
-636.609	-200.000	0.048	0.254
-635.595	-99.750	0.439	-0.110
-634.580	255.169	-0.213	-0.366
-633.565	0.956	-0.073	-0.053
-632.551	-61.865	0.166	0.069
-631.536	800.000	-0.030	0.110
-630.522	446.715	0.057	0.126
-629.507	-149.241	0.326	-0.026
-628.492	-200.000	0.006	-0.078
-627.478	0.495	-0.157	-0.113
-626.463	305.943	0.071	0.133
-625.449	-67.817	0.092	-0.036
-624.434	-13.830	0.155	0.101
-623.419	-19.243	-0.074	-0.046
-622.405	141.543	-0.164	0.217
-621.390	103.844	0.260	0.306
-620.376	800.000	-0.084	0.278
-619.361	-200.000	-0.005	0.126
-618.346	58.850	0.148	0.146
-617.332	128.768	-0.273	-0.349
-616.317	-178.939	0.225	0.005
-615.303	788.385	-0.063	0.173
-614.288	-76.541	0.418	-0.147
-613.273	-138.711	-0.130	-0.014
-612.259	-31.406	-0.259	-0.146
-611.244	162.815	0.134	-0.189
-610.230	263.205	0.069	0.120
-609.215	-2.643	-0.106	0.074
-608.201	-200.000	0.016	-0.112
-607.186	30.774	-0.190	-0.163
-606.171	12.518	-0.314	0.243
-605.157	800.000	-0.050	0.160
-604.142	-62.842	0.205	-0.085
-603.128	72.855	-0.051	-0.053
-602.113	-128.508	-0.232	0.033
-601.098	5.346	-0.214	-0.158
-600.084	-86.494	0.246	0.076
-599.069	-39.473	0.143	-0.075
-598.055	138.488	-0.179	-0.235
-597.040	-200.000	-0.007	-0.054
-596.025	-112.907	-0.180	-0.036
-595.011	-31.750	-0.091	-0.051
-593.996	-111.063	-0.185	-0.038
-592.982	-200.000	0.002	-0.305
-591.967	25.512	0.252	-0.210
-590.952	-200.000	-0.020	-0.345
-589.938	572.479	-0.093	0.226
-588.923	-167.528	-0.104	0.004
-587.909	-103.248	0.060	-0.014
-586.894	140.801	0.230	-0.305
-585.879	162.274	-0.090	0.126
-584.865	-146.755	0.050	-0.004
-583.850	630.834	-0.117	0.297
-582.836	800.000	-0.064	-0.179
-581.821	-57.569	-0.085	-0.037
-580.806	324.503	0.069	0.131
-579.792	734.425	0.088	-0.235
-578.777	-142.432	0.197	-0.019
-577.763	281.534	0.136	-0.244
-576.748	-23.359	-0.131	-0.079
-575.733	-200.000	0.063	-0.380
-574.719	51.274	0.153	0.146
-573.704	84.422	0.178	-0.195
-572.690	46.444	-0.186	-0.173
-571.675	800.000	-0.026	0.098
-570.661	-200.000	0.015	-0.252
-569.646	-96.878	0.223	0.059
-568.631	140.985	-0.178	-0.236
-567.617	-8.299	0.361	-0.243
-566.602	-200.000	-0.003	-0.107
-565.588	363.847	-0.104	-0.210
-564.573	475.894	-0.219	0.495
-563.558	800.000	0.013	0.053
-562.544	-200.000	0.008	-0.277
-561.529	183.487	-0.060	0.089
-560.515	30.470	-0.097	0.083
-559.500	-200.000	0.020	-0.176
-558.485	-57.476	-0.283	0.124
-557.471	800.000	-0.091	-0.381
-556.456	15.297	-0.233	0.183
-555.442	-87.759	0.244	-0.074
-554.427	-91.362	0.199	-0.057
-553.412	391.687	-0.189	-0.392
-552.398	348.808	0.129	-0.255
-551.383	-91.446	0.103	-0.029
-550.369	-56.244	-0.087	0.039
-549.354	67.708	0.092	-0.094
-548.339	359.542	-0.037	0.074
-547.325	-6.951	-0.064	-0.043
-546.310	800.000	-0.031	0.117
-545.296	39.926	0.049	0.044
-544.281	478.575	0.062	-0.139
-543.266	-136.583	0.143	-0.017
-542.252	56.981	0.222	-0.217
-541.237	800.000	0.091	0.365
-540.223	-52.765	-0.151	0.070
-539.208	800.000	-0.091	-0.280
-538.193	-96.974	-0.360	0.094
-537.179	-26.803	-0.461	0.269
-536.164	-15.445	0.168	0.108
-535.150	275.543	0.027	-0.048
-534.135	17.945	0.264	-0.210
-533.121	-113.574	-0.023	0.005
-532.106	176.979	-0.186	0.270
-531.091	-200.000	0.039	0.173
-530.077	800.000	-0.047	0.167
-529.062	168.967	0.095	-0.135
-528.048	-110.821	-0.370	0.076
-527.033	712.191	-0.121	0.320
-526.018	800.000	0.128	0.387
-525.004	-127.055	-0.317	0.046
-523.989	-120.874	-0.205	-0.034
-522.975	336.909	0.081	-0.157
-521.960	-200.000	-0.008	0.104
-520.945	-48.165	0.184	0.088
-519.931	72.455	0.076	-0.079
-518.916	-93.820	0.223	-0.061
-517.902	800.000	0.035	-0.109
-516.887	533.290	-0.098	-0.233
-515.872	86.009	0.141	-0.155
-514.858	169.385	-0.135	0.192
-513.843	-143.987	0.062	0.006
-512.829	-200.000	0.065	-0.543
-511.814	-83.747	0.315	0.100
-510.799	-200.000	-0.090	-0.442
-509.785	68.336	-0.313	0.321
-508.770	-64.148	-0.195	0.079
-507.756	-41.090	-0.245	-0.126
-506.741	51.759	-0.359	-0.341
-505.726	-10.317	0.040	-0.027
-504.712	112.169	0.101	0.122
-503.697	-66.577	-0.419	-0.166
-502.683	-175.018	0.211	-0.006
-501.668	42.694	-0.065	-0.059
-500.653	172.300	-0.093	0.134
-499.639	145.348	0.075	0.100
-498.624	-200.000	-0.005	-0.445
-497.610	116.993	0.269	-0.330
-496.595	-200.000	-0.001	0.064
-495.581	1.100	0.196	0.140
-494.566	-200.000	0.024	-0.147
-493.551	-20.442	-0.218	0.134
-492.537	-121.563	-0.265	0.044
-491.522	358.749	-0.088	-0.175
-490.508	-65.615	-0.142	-0.057
-489.493	-101.405	-0.470	-0.114
-488.478	-42.444	-0.046	-0.023
-487.464	188.036	-0.200	0.298
-486.449	53.524	-0.316	0.302
-485.435	217.436	0.179	-0.284
-484.420	-200.000	0.038	0.374
-483.405	-169.156	-0.216	-0.008
-482.391	-94.877	0.049	0.013
-481.376	228.857	0.083	-0.135
-480.362	-28.743	-0.576	0.330
-479.347	-35.104	-0.286	-0.155
-478.332	599.002	-0.055	-0.136
-477.318	800.000	0.046	-0.154
-476.303	256.293	0.139	0.239
-475.289	-92.666	0.361	-0.101
-474.274	-200.000	0.019	0.111
-473.259	37.844	-0.099	0.087
-472.245	278.319	-0.189	-0.335
-471.230	-137.065	-0.095	0.011
-470.216	-200.000	-0.075	0.394
-469.201	15.476	-0.126	-0.099
-468.186	-200.000	-0.028	-0.134
-467.172	-200.000	-0.029	0.145
-466.157	-59.206	0.188	0.081
-465.143	-55.310	0.131	-0.059
-464.128	230.367	-0.102	-0.166
-463.113	800.000	-0.090	0.326
-462.099	676.617	-0.074	0.192
-461.084	38.521	-0.109	-0.097
-460.070	-116.031	0.188	0.035
-459.055	-45.050	0.169	-0.084
-458.040	95.290	0.107	-0.121
-457.026	-18.235	0.092	-0.057
-456.011	800.000	0.067	0.207
-454.997	-200.000	-0.050	-0.306
-453.982	-113.407	0.293	0.057
-452.968	-200.000	-0.039	0.327
-451.953	-200.000	0.007	0.057
-450.938	-60.829	-0.092	-0.039
-449.924	34.901	0.132	-0.115
-448.909	285.716	0.194	0.349
-447.895	-162.349	0.145	0.007
-446.880	-200.000	-0.012	-0.097
-445.865	72.013	-0.184	-0.191
-444.851	800.000	-0.082	0.328
-443.836	-15.378	-0.256	0.163
-442.822	-200.000	-0.000	-0.521
-441.807	800.000	-0.066	-0.233
-440.792	-200.000	-0.031	0.171
-439.778	130.610	0.159	0.203
-438.763	-161.799	-0.273	0.014
-437.749	693.893	0.016	-0.043
-436.734	-39.437	-0.177	-0.092
-435.719	78.234	0.179	0.190
-434.705	100.025	0.261	0.301
-433.690	-200.000	0.009	0.197
-432.676	-109.729	-0.270	-0.057
-431.661	-117.310	0.156	0.028
-430.646	-14.789	-0.165	0.105
-429.632	800.000	-0.080	0.316
-428.617	-200.000	0.029	-0.149
-427.603	-200.000	-0.011	-0.165
-426.588	15.487	-0.132	0.103
-425.573	-200.000	0.032	-0.146
-424.559	231.690	-0.143	-0.233
-423.544	99.308	-0.091	-0.104
-422.530	-89.020	-0.151	0.045
-421.515	61.127	0.093	0.092
-420.500	-167.847	-0.454	-0.018
-419.486	-200.000	-0.027	-0.150
-418.471	210.580	-0.016	0.026
-417.457	50.272	0.053	-0.050
-416.442	-160.885	0.136	-0.007
-415.428	49.364	-0.334	0.312
-414.413	245.193	0.054	0.090
-413.398	-131.728	0.128	0.017
-412.384	-115.838	-0.045	-0.008
-411.369	-46.965	0.197	-0.096
-410.355	-103.288	0.123	0.029
-409.340	275.860	0.046	0.081
-408.325	-47.550	0.142	0.069
-407.311	-104.159	0.292	-0.068
-406.296	-88.157	0.222	-0.066
-405.282	-200.000	0.002	0.097
-404.267	436.966	0.128	0.276
-403.252	-200.000	-0.050	-0.294
-402.238	376.285	0.074	-0.150
-401.223	-200.000	-0.048	-0.353
-400.209	800.000	-0.061	-0.182
-399.194	25.754	0.128	-0.106
-398.179	800.000	-0.022	-0.074
-397.165	-111.522	0.085	0.017
-396.150	432.020	-0.007	0.014
-395.136	-31.799	0.118	-0.066
-394.121	-42.982	-0.051	-0.026
-393.106	-200.000	0.029	-0.228
-392.092	14.842	0.242	0.188
-391.077	-66.625	-0.339	0.134
-390.063	-50.509	-0.149	0.070
-389.048	297.645	0.096	0.174
-388.033	11.109	0.159	0.121
-387.019	-29.930	-0.232	-0.132
-386.004	800.000	0.118	-0.434
-384.990	396.335	0.107	-0.222
-383.975	-200.000	0.004	-0.254
-382.960	264.974	-0.045	-0.078
-381.946	739.800	-0.090	0.240
-380.931	-135.829	-0.176	-0.021
-379.917	20.198	0.134	-0.107
-378.902	21.553	0.088	-0.071
-377.888	322.047	0.105	0.198
-376.873	-200.000	0.009	-0.053
-375.858	-146.505	-0.115	0.010
-374.844	172.363	0.037	-0.052
-373.829	-146.890	-0.021	-0.002
-372.815	-134.094	0.164	0.020
-371.800	76.953	0.228	0.240
-370.785	197.794	0.101	0.153
-369.771	181.369	0.069	0.101
-368.756	-66.080	-0.214	-0.085
-367.742	-19.464	0.117	-0.072
-366.727	800.000	-0.099	0.388
-365.712	32.559	-0.202	-0.173
-364.698	7.493	0.418	-0.310
-363.683	-57.373	-0.149	0.065
-362.669	210.357	0.114	0.178
-361.654	800.000	-0.082	-0.235
-360.639	43.737	-0.005	-0.005
-359.625	-42.820	-0.260	-0.131
-358.610	522.145	0.154	0.358
-357.596	530.187	-0.143	-0.336
-356.581	69.434	0.135	-0.138
-355.566	-83.534	0.289	-0.092
-354.552	-200.000	-0.018	0.164
-353.537	150.856	-0.202	0.272
-352.523	800.000	-0.095	0.314
-351.508	-142.129	-0.383	-0.038
-350.493	-139.289	0.375	-0.040
-349.479	-167.486	-0.348	-0.014
-348.464	-101.202	0.101	0.025
-347.450	-71.753	0.294	-0.109
-346.435	45.973	0.068	-0.062
-345.420	800.000	-0.094	0.358
-344.406	162.235	-0.083	0.115
-343.391	-165.385	0.263	0.011
-342.377	410.955	-0.136	0.285
-341.362	-200.000	-0.052	0.292
-340.348	-51.318	0.245	-0.114
-339.333	341.388	-0.138	-0.268
-338.318	-200.000	-0.084	0.376
-337.304	546.632	0.080	0.191
-336.289	73.031	0.249	0.258
-335.275	449.785	-0.051	-0.113
-334.260	-159.486	0.069	-0.004
-333.245	-119.636	0.308	-0.053
-332.231	97.131	-0.066	-0.075
-331.216	-200.000	0.013	0.137
-330.202	-48.499	-0.224	-0.107
-329.187	-152.370	-0.112	0.008
-328.172	-87.605	0.127	0.038
-327.158	-200.000	0.031	-0.341
-326.143	-133.488	-0.096	-0.012
-325.129	-53.479	0.065	-0.030
-324.114	254.615	0.119	0.201
-323.099	568.046	0.035	-0.085
-322.085	181.581	0.110	-0.160
-321.070	52.916	0.119	-0.113
-320.056	-200.000	-0.040	0.205
-319.041	-62.286	0.174	-0.072
-318.026	-28.784	0.242	0.138
-317.012	-5.485	0.207	0.141
-315.997	-15.008	-0.137	0.087
-314.983	-200.000	-0.081	0.413
-313.968	-73.663	0.328	-0.118
-312.953	-200.000	0.012	0.338
-311.939	-27.239	-0.076	0.044
-310.924	56.462	0.144	0.138
-309.910	800.000	-0.041	0.175
-308.895	-200.000	0.033	-0.189
-307.880	-200.000	0.024	0.122
-306.866	2.821	-0.169	-0.122
-305.851	800.000	-0.081	0.334
-304.837	77.047	0.201	-0.211
-303.822	50.602	0.117	0.109
-302.807	800.000	0.036	-0.115
-301.793	43.012	-0.071	-0.064
-300.778	-157.588	0.148	0.009
-299.764	-200.000	0.015	-0.173
-298.749	-26.482	-0.116	0.067
-297.735	800.000	-0.032	0.089
-296.720	-108.940	-0.265	-0.056
-295.705	-200.000	-0.008	0.076
-294.691	-63.200	0.292	-0.119
-293.676	-200.000	0.013	-0.415
-292.662	79.745	0.203	-0.216
-291.647	93.840	-0.290	0.325
-290.632	-18.629	0.340	0.210
-289.618	-61.398	0.030	-0.013
-288.603	-46.764	0.141	-0.069
-287.589	338.868	0.240	0.463
-286.574	521.434	-0.165	0.382
-285.559	800.000	-0.025	-0.077
-284.545	489.938	0.126	0.284
-283.530	54.072	-0.178	0.170
-282.516	-1.737	0.250	-0.174
-281.501	-127.846	-0.163	0.023
-280.486	-200.000	-0.010	0.310
-279.472	-119.178	0.092	0.016
-278.457	-77.896	0.137	0.047
-277.443	-121.302	-0.296	0.049
-276.428	39.848	0.153	0.136
-275.413	43.360	-0.154	-0.139
-274.399	630.697	0.047	0.118
-273.384	-200.000	0.004	-0.290
-272.370	-1.462	-0.291	-0.203
-271.355	113.029	-0.216	-0.259
-270.340	600.918	-0.056	0.138
-269.326	20.622	0.317	-0.253
-268.311	-115.188	0.495	0.093
-267.297	646.086	-0.047	-0.119
-266.282	-107.053	-0.109	-0.024
-265.267	-177.154	-0.045	0.001
-264.253	-200.000	-0.060	0.422
-263.238	36.000	-0.218	-0.190
-262.224	-200.000	0.011	-0.094
-261.209	-200.000	-0.022	0.270
-260.195	134.322	-0.226	0.290
-259.180	597.885	0.072	-0.176
-258.165	168.717	0.203	-0.286
-257.151	41.841	-0.252	-0.226
-256.136	83.969	0.085	0.091
-255.122	-200.000	-0.004	-0.113
-254.107	105.358	-0.074	0.087
-253.092	-176.688	-0.226	-0.006
-252.078	38.621	0.245	-0.216
-251.063	180.458	-0.048	0.070
-250.049	-152.246	-0.245	0.018
-249.034	170.303	-0.103	0.146
-248.019	-61.524	0.052	0.022
-247.005	327.317	0.135	0.255
-245.990	-0.385	0.242	-0.170
-244.976	-7.954	0.146	0.097
-243.961	-166.333	0.271	0.011
-242.946	44.275	0.220	-0.199
-241.932	-45.389	0.401	0.197
-240.917	-200.000	-0.001	-0.109
-239.903	347.880	0.085	0.165
-238.888	-160.396	0.161	0.009
-237.873	-101.327	0.443	0.107
-236.859	-1.963	-0.253	-0.176
-235.844	-71.764	0.178	0.065
-234.830	-200.000	0.010	-0.228
-233.815	-143.426	0.225	-0.021
-232.800	687.845	0.041	0.106
-231.786	116.252	0.054	-0.065
-230.771	47.226	-0.153	-0.141
-229.757	634.083	0.078	-0.196
-228.742	-6.636	-0.233	0.157
-227.727	83.302	0.085	-0.092
-226.713	-45.348	0.103	0.051
-225.698	218.293	-0.228	0.359
-224.684	40.795	0.093	-0.083
-223.669	800.000	0.041	-0.128
-222.655	-200.000	0.045	-0.320
-221.640	-8.123	-0.351	-0.233
-220.625	-30.577	0.192	0.107
-219.611	99.303	-0.080	-0.091
-218.596	800.000	0.067	-0.230
-217.582	149.254	0.053	-0.070
-216.567	-19.069	0.252	0.154
-215.552	471.836	0.203	0.451
-214.538	-200.000	0.021	0.106
-213.523	-139.917	-0.232	0.024
-212.509	-132.128	0.163	-0.021
-211.494	-200.000	0.023	0.228
-210.479	-200.000	-0.015	0.252
-209.465	56.372	0.183	0.175
-208.450	-40.607	0.228	0.117
-207.436	-100.225	-0.176	0.043
-206.421	-200.000	-0.050	0.249
-205.406	103.878	0.129	-0.149
-204.392	52.827	0.114	0.107
-203.377	800.000	-0.049	0.189
-202.363	-104.566	-0.186	0.042
-201.348	-4.344	0.142	0.097
-200.333	162.019	-0.150	0.207
-199.319	298.639	0.169	-0.306
-198.304	-127.474	-0.062	0.009
-197.290	-185.917	-0.376	0.005
-196.275	-173.675	-0.381	-0.011
-195.260	475.576	0.090	-0.201
-194.246	-136.048	0.074	0.009
-193.231	800.000	0.115	0.456
-192.217	334.024	0.081	-0.155
-191.202	-151.575	0.205	-0.015
-190.187	35.525	-0.100	-0.086
-189.173	-4.502	-0.336	0.229
-188.158	-123.886	0.136	-0.021
-187.144	776.609	0.076	-0.206
-186.129	147.836	-0.075	0.099
-185.114	-15.970	0.306	0.192
-184.100	76.685	-0.143	-0.149
-183.085	32.024	0.181	-0.154
-182.071	7.291	-0.384	-0.282
-181.056	-82.350	0.237	0.076
-180.042	-122.414	-0.167	-0.027
-179.027	-86.534	0.099	-0.030
-178.012	-110.585	0.163	-0.033
-176.998	-200.000	-0.219	-0.000
-175.983	-68.675	-0.122	-0.046
-174.969	-200.000	0.009	0.119
-173.954	-93.922	-0.212	0.057
-172.939	-114.970	0.146	-0.027
-171.925	-79.068	-0.065	-0.022
-170.910	-38.516	-0.093	-0.048
-169.896	-200.000	-0.002	-0.181
-168.881	-200.000	-0.021	-0.270
-167.866	145.397	0.047	-0.062
-166.852	-200.000	0.011	0.059
-165.837	-200.000	-0.002	-0.050
-164.823	-60.509	0.214	-0.090
-163.808	-43.155	-0.108	-0.054
-162.793	104.586	0.016	-0.018
-161.779	-200.000	-0.088	-0.403
-160.764	124.179	0.357	-0.442
-159.750	-150.465	0.192	-0.014
-158.735	-141.082	-0.650	0.065
-157.720	14.912	-0.067	-0.051
-156.706	-79.457	-0.193	0.064
-155.691	-118.731	0.255	-0.044
-154.677	800.000	-0.029	-0.100
-153.662	-200.000	-0.005	0.189
-152.647	213.111	-0.103	0.160
-151.633	4.074	-0.088	0.063
-150.618	-66.362	0.300	0.117
-149.604	646.964	-0.101	-0.253
-148.589	46.730	0.369	-0.337
-147.574	-100.381	0.119	0.029
-146.560	560.631	-0.014	0.032
-145.545	-2.102	0.057	-0.040
-144.531	149.091	0.150	-0.199
-143.516	132.084	0.128	0.163
-142.502	51.775	0.072	-0.067
-141.487	-200.000	0.003	0.040
-140.472	-30.151	0.243	0.136
-139.458	-74.336	0.174	0.062
-138.443	140.687	0.207	-0.268
-137.429	-155.061	-0.284	0.018
-136.414	-200.000	-0.036	0.209
-135.399	-91.371	-0.151	0.042
-134.385	-200.000	-0.025	0.178
-133.370	-200.000	-0.002	-0.012
-132.356	95.796	-0.144	-0.161
-131.341	-160.726	-0.365	-0.019
-130.326	186.192	-0.047	-0.068
-129.312	-98.457	0.359	0.090
-128.297	281.121	-0.086	0.151
-127.283	86.633	0.212	0.230
-126.268	379.206	0.157	0.316
-125.253	-90.547	0.409	0.116
-124.239	187.195	0.115	0.168
-123.224	372.490	0.155	-0.310
-122.210	-200.000	-0.022	0.109
-121.195	703.935	0.016	-0.040
-120.180	-200.000	-0.012	-0.171
-119.166	-136.344	0.139	-0.016
-118.151	-200.000	0.009	-0.253
-117.137	132.098	0.014	0.018
-116.122	800.000	0.054	-0.205
-115.107	650.564	0.064	-0.162
-114.093	-200.000	-0.036	-0.327
-113.078	800.000	-0.072	-0.195
-112.064	159.926	-0.151	0.207
-111.049	65.394	0.274	0.272
-110.034	-158.474	0.276	-0.016
-109.020	10.861	-0.238	-0.178
-108.005	-46.689	0.086	0.042
-106.991	-152.431	0.077	0.005
-105.976	-200.000	-0.008	0.487
-104.962	117.655	0.130	0.157
-103.947	42.731	0.179	0.160
-102.932	128.170	0.070	0.087
-101.918	649.258	0.031	0.079
-100.903	182.303	0.148	0.215
-99.889	-28.019	-0.363	-0.206
-98.874	-78.257	-0.092	0.031
-97.859	-200.000	-0.008	-0.183
-96.845	-91.530	0.401	0.112
-95.830	-200.000	-0.062	0.275
-94.816	-200.000	-0.019	-0.267
-93.801	-127.289	0.276	-0.040
-92.786	3.589	0.221	0.158
-91.772	35.455	-0.034	0.030
-90.757	-181.119	0.124	0.002
-89.743	148.035	-0.101	0.134
-88.728	-136.601	-0.152	0.017
-87.713	-98.939	0.232	0.058
-86.699	639.257	0.117	-0.293
-85.684	-138.650	0.196	-0.021
-84.670	-22.085	-0.145	-0.087
-83.655	-200.000	-0.040	0.179
-82.640	800.000	0.009	-0.040
-81.626	54.225	0.160	-0.152
-80.611	800.000	-0.069	0.229
-79.597	-200.000	0.010	-0.044
-78.582	-102.052	-0.187	-0.044
-77.567	89.704	0.269	0.295
-76.553	-141.627	0.086	0.009
-75.538	71.711	-0.298	0.304
-74.524	155.774	0.315	-0.426
-73.509	270.264	-0.130	-0.224
-72.494	69.619	-0.200	0.203
-71.480	6.438	0.177	0.129
-70.465	-200.000	-0.002	-0.095
-69.451	-200.000	-0.013	-0.406
-68.436	-200.000	0.042	0.355
-67.422	-200.000	0.014	-0.220
-66.407	269.726	-0.202	0.347
-65.392	-86.017	0.357	0.108
-64.378	205.990	0.138	-0.210
-63.363	-185.041	-0.193	0.003
-62.349	-123.850	-0.091	-0.014
-61.334	114.314	-1.115	-1.331
-60.319	-99.267	0.617	0.153
-59.305	390.989	-0.484	-0.984
-58.290	127.724	0.828	1.031
-57.276	495.438	0.663	1.494
-56.261	-200.000	110.278	608.238
-55.246	449.183	1501.147	3244.651
-54.232	144.188	2690.615	3520.020
-53.217	100.284	2293.953	2609.455
-52.203	38.445	1902.798	1662.689
-51.188	32.459	1691.136	1432.297
-50.173	29.838	1647.882	1376.142
-49.159	49.751	1703.025	1573.274
-48.144	49.781	1717.597	1586.905
-47.130	32.048	1675.378	1415.629
-46.115	29.313	1659.837	1381.971
-45.100	29.247	1655.211	1377.574
-44.086	29.171	1651.926	1374.220
-43.071	29.112	1649.705	1371.880
-42.057	29.093	1647.302	1369.682
-41.042	29.158	1645.161	1368.331
-40.027	29.191	1643.191	1366.885
-39.013	29.156	1641.368	1365.055
-37.998	29.006	1640.257	1362.965
-36.984	29.131	1638.395	1362.286
-35.969	29.197	1637.525	1361.997
-34.954	29.289	1635.755	1361.152
-33.940	29.241	1634.028	1359.305
-32.925	29.229	1632.609	1357.985
-31.911	29.357	1630.185	1356.853
-30.896	29.259	1628.635	1354.792
-29.881	29.296	1627.018	1353.666
-28.867	29.312	1625.341	1352.335
-27.852	29.274	1624.214	1351.061
-26.838	29.226	1623.086	1349.722
-25.823	29.307	1620.985	1348.514
-24.809	29.312	1620.032	1347.702
-23.794	29.268	1618.883	1346.367
-22.779	29.295	1617.141	1345.062
-21.765	29.338	1615.168	1343.686
-20.750	29.221	1614.089	1341.884
-19.736	29.232	1612.990	1340.998
-18.721	29.342	1610.890	1339.996
-17.706	29.302	1609.785	1338.735
-16.692	29.303	1608.062	1337.251
-15.677	29.281	1606.728	1335.932
-14.663	29.385	1605.052	1335.240
-13.648	29.340	1604.256	1334.193
-12.633	29.255	1602.379	1331.967
-11.619	29.214	1601.463	1330.856
-10.604	29.353	1598.928	1329.702
-9.590	29.402	1597.866	1329.117
-8.575	29.281	1596.787	1327.295
-7.560	29.267	1595.702	1326.243
-6.546	29.263	1594.784	1325.397
-5.531	29.342	1593.078	1324.491
-4.517	29.294	1592.062	1323.249
-3.502	29.200	1591.231	1321.838
-2.487	29.433	1589.510	1322.019
-1.473	28.965	1577.796	1308.899
-0.458	25.991	1558.567	1271.952
0.556	20.646	1558.964	1239.276
1.571	18.151	1582.078	1239.478
2.586	17.739	1595.216	1246.646
3.600	16.301	1543.017	1195.572
4.615	9.024	1434.121	1063.047
5.629	1.780	1370.013	969.459
6.644	0.283	1361.675	953.997
7.659	0.193	1360.463	952.496
8.673	0.050	1359.933	951.134
9.688	0.024	1357.683	949.316
10.702	-0.045	1354.647	946.671
11.717	3.513	1360.186	972.931
12.731	11.736	1373.341	1034.442
13.746	17.060	1380.352	1073.391
14.761	17.330	1378.828	1073.814
15.775	16.351	1376.468	1065.711
16.790	15.163	1374.314	1056.457
17.804	14.442	1371.986	1050.032
18.819	14.071	1370.691	1046.615
19.834	13.833	1369.462	1044.084
20.848	13.653	1368.302	1041.980
21.863	13.414	1366.472	1038.991
22.877	13.226	1365.420	1036.923
23.892	13.305	1364.130	1036.343
24.907	13.101	1363.638	1034.599
25.921	13.274	1362.753	1034.924
26.936	13.292	1361.954	1034.334
27.950	13.120	1361.344	1032.704
28.965	13.321	1360.297	1033.074
29.980	13.457	1358.706	1032.626
30.994	13.374	1358.151	1031.594
32.009	13.515	1357.247	1031.694
33.023	13.394	1356.348	1030.167
34.038	13.379	1354.857	1028.849
35.053	13.223	1354.263	1027.336
36.067	13.351	1353.009	1027.087
37.082	13.420	1351.610	1026.365
38.096	13.425	1350.769	1025.670
39.111	13.412	1350.291	1025.133
40.126	13.266	1350.070	1023.971
41.140	13.180	1348.958	1022.503
42.155	13.217	1348.197	1022.063
43.169	13.152	1348.008	1021.430
44.184	13.185	1347.763	1021.360
45.199	13.090	1347.555	1020.524
46.213	13.242	1346.556	1020.614
47.228	13.298	1345.542	1020.099
48.242	13.391	1343.910	1019.348
49.257	13.357	1342.558	1018.020
50.271	13.235	1341.756	1016.570
51.286	13.280	1340.746	1015.995
52.301	13.356	1339.123	1015.141
53.315	13.274	1338.252	1013.885
54.330	13.191	1337.560	1012.764
55.344	13.279	1335.857	1011.926
56.359	13.172	1334.822	1010.398
57.374	13.161	1333.821	1009.480
58.388	13.188	1333.303	1009.166
59.403	13.118	1332.867	1008.322
60.417	13.125	1331.719	1007.404
61.432	13.203	1330.450	1006.832
62.447	13.129	1329.813	1005.812
63.461	13.127	1328.580	1004.777
64.476	13.087	1327.960	1003.976
65.490	13.127	1326.206	1002.800
66.505	13.110	1324.550	1001.358
67.520	13.120	1323.818	1000.779
68.534	13.169	1322.731	1000.165
69.549	13.197	1321.738	999.492
70.563	13.066	1321.012	998.061
71.578	13.076	1319.453	996.856
72.593	13.031	1318.539	995.805
73.607	13.024	1317.978	995.254
74.622	12.957	1317.456	994.366
75.636	13.001	1316.225	993.615
76.651	12.981	1315.420	992.801
77.666	13.135	1314.940	993.277
78.680	13.094	1314.170	992.362
79.695	13.060	1313.441	991.517
80.709	13.158	1312.672	991.440
81.724	13.247	1311.697	991.147
82.739	13.227	1310.848	990.295
83.753	13.230	1309.919	989.528
84.768	13.295	1308.931	989.084
85.782	13.264	1307.749	987.913
86.797	13.366	1306.026	987.134
87.812	13.317	1304.998	985.977
88.826	13.340	1303.736	985.078
89.841	13.276	1302.739	983.853
90.855	13.249	1302.138	983.150
91.870	13.267	1301.681	982.825
92.884	13.369	1300.408	982.386
93.899	13.388	1299.218	981.510
94.914	13.452	1298.586	981.328
95.928	13.344	1297.854	980.047
96.943	13.367	1296.710	979.229
97.957	13.377	1295.785	978.506
98.972	13.390	1294.991	977.898
99.987	13.366	1293.942	976.879
101.001	13.346	1292.834	975.835
102.016	13.373	1291.983	975.268
103.030	13.287	1291.591	974.376
104.045	13.335	1290.393	973.668
105.060	13.378	1288.946	972.742
106.074	13.388	1287.361	971.520
107.089	13.154	1286.502	969.415
108.103	13.225	1285.420	968.930
109.118	13.168	1284.232	967.611
110.133	13.189	1282.730	966.521
111.147	13.206	1281.293	965.450
112.162	13.231	1280.479	964.899
113.176	13.297	1278.959	964.054
114.191	13.292	1278.515	963.605
115.206	13.240	1277.098	962.145
116.220	13.238	1276.295	961.448
117.235	13.225	1274.982	960.295
118.249	13.163	1274.290	959.332
119.264	13.326	1272.573	958.898
120.279	13.317	1271.380	957.862
121.293	13.219	1270.796	956.767
122.308	13.158	1270.247	955.916
123.322	13.159	1269.038	954.928
124.337	13.201	1267.824	954.172
125.352	13.204	1267.033	953.511
126.366	13.231	1265.453	952.395
127.381	13.215	1264.711	951.659
128.395	13.150	1263.857	950.560
129.410	13.220	1262.513	949.866
130.424	13.247	1261.659	949.296
131.439	13.369	1260.232	948.838
132.454	13.315	1259.272	947.721
133.468	13.303	1258.501	946.989
134.483	13.336	1258.193	946.863
135.497	13.315	1257.236	945.936
136.512	13.278	1255.787	944.550
137.527	13.188	1254.465	942.960
138.541	13.309	1253.031	942.487
139.556	13.293	1251.877	941.444
140.570	13.224	1251.197	940.455
141.585	13.312	1249.689	939.742
142.600	13.335	1248.674	939.025
143.614	13.383	1247.904	938.636
144.629	13.449	1246.649	937.982
145.643	13.417	1245.295	936.699
146.658	13.411	1244.144	935.716
147.673	13.363	1242.972	934.483
148.687	13.315	1242.107	933.476
149.702	13.373	1240.023	932.156
150.716	13.326	1238.843	930.923
151.731	13.331	1237.722	930.026
152.746	13.338	1236.847	929.327
153.760	13.332	1235.757	928.392
154.775	13.467	1234.547	928.155
155.789	13.489	1233.425	927.354
156.804	13.442	1232.678	926.449
157.819	13.521	1231.082	925.607
158.833	13.555	1230.594	925.348
159.848	13.490	1229.969	924.434
160.862	13.574	1228.583	923.778
161.877	13.517	1227.528	922.584
162.892	13.530	1226.323	921.669
163.906	13.564	1225.393	921.078
164.921	13.411	1224.698	919.623
165.935	13.489	1224.318	919.692
166.950	13.665	1222.808	919.450
167.964	13.490	1222.945	918.506
168.979	13.538	1221.674	917.734
169.994	13.606	1220.958	917.490
171.008	13.554	1220.450	916.740
172.023	13.619	1219.464	916.277
173.037	13.623	1218.513	915.504
174.052	13.548	1217.781	914.457
175.067	13.683	1216.535	914.190
176.081	13.579	1215.543	912.791
177.096	13.481	1215.096	911.832
178.110	13.663	1213.459	911.527
179.125	13.625	1212.438	910.467
180.140	13.596	1211.397	909.443
181.154	13.684	1209.745	908.608
182.169	13.792	1208.549	908.221
183.183	13.718	1208.048	907.359
184.198	13.703	1207.083	906.469
185.213	13.846	1205.375	905.886
186.227	13.940	1204.088	905.351
187.242	13.832	1203.098	903.942
188.256	13.924	1202.248	903.725
189.271	13.992	1201.508	903.455
190.286	13.771	1200.594	901.491
191.300	13.689	1199.907	900.447
192.315	13.591	1199.130	899.252
193.329	13.620	1198.712	899.019
194.344	13.711	1197.744	898.708
195.359	13.772	1197.230	898.573
196.373	13.894	1196.366	898.501
197.388	13.860	1196.209	898.121
198.402	14.017	1195.824	898.603
199.417	14.049	1194.766	897.902
200.432	14.139	1193.778	897.563
201.446	14.081	1192.881	896.500
202.461	14.199	1191.960	896.361
203.475	14.102	1191.083	895.100
204.490	14.147	1189.476	894.057
205.504	14.135	1188.514	893.191
206.519	13.973	1187.347	891.364
207.534	13.973	1186.509	890.655
208.548	14.129	1185.423	890.596
209.563	14.171	1184.643	890.157
210.577	14.102	1183.779	889.058
211.592	14.150	1182.520	888.295
212.607	14.240	1181.781	888.140
213.621	14.225	1180.765	887.218
214.636	14.244	1180.121	886.756
215.650	14.166	1179.552	885.833
216.665	14.177	1178.616	885.110
217.680	14.300	1177.675	884.978
218.694	14.288	1176.537	883.985
219.709	14.288	1176.292	883.720
220.723	14.186	1175.333	882.382
221.738	14.326	1174.883	882.705
222.753	14.282	1173.844	881.615
223.767	14.352	1173.237	881.452
224.782	14.443	1172.773	881.508
225.796	14.419	1172.052	880.760
226.811	14.449	1171.481	880.411
227.826	14.453	1170.612	879.700
228.840	14.399	1169.730	878.678
229.855	14.455	1169.027	878.363
230.869	14.447	1168.050	877.511
231.884	14.441	1167.264	876.810
232.899	14.387	1166.852	876.141
233.913	14.342	1165.914	875.123
234.928	14.328	1165.680	874.795
235.942	14.291	1164.673	873.770
236.957	14.428	1163.781	873.741
237.972	14.371	1163.204	872.930
238.986	14.398	1162.448	872.429
240.001	14.388	1161.819	871.826
241.015	14.497	1160.801	871.554
242.030	14.516	1160.049	871.016
243.045	14.454	1159.655	870.315
244.059	14.621	1158.498	870.244
245.074	14.530	1157.729	869.113
246.088	14.660	1156.683	868.929
247.103	14.608	1155.920	868.008
248.117	14.708	1155.409	868.064
249.132	14.697	1154.827	867.493
250.147	14.686	1154.236	866.917
251.161	14.729	1153.737	866.687
252.176	14.767	1152.767	866.081
253.190	14.905	1151.760	865.962
254.205	15.008	1151.142	865.956
255.220	14.888	1150.814	865.012
256.234	14.864	1150.478	864.558
257.249	14.944	1149.558	864.201
258.263	14.865	1148.981	863.282
259.278	14.941	1148.090	862.930
260.293	15.026	1147.511	862.857
261.307	15.044	1146.585	862.180
262.322	14.968	1146.118	861.358
263.336	15.035	1145.913	861.475
264.351	15.079	1145.428	861.260
265.366	14.939	1144.284	859.604
266.380	15.108	1143.936	860.134
267.395	15.150	1142.499	859.191
268.409	15.048	1142.215	858.381
269.424	15.133	1141.136	857.928
270.439	15.022	1141.126	857.273
271.453	15.066	1140.214	856.740
272.468	15.003	1139.181	855.568
273.482	15.009	1138.527	855.028
274.497	15.035	1138.149	854.804
275.512	15.297	1136.917	855.140
276.526	15.182	1136.612	854.246
277.541	15.115	1136.005	853.372
278.555	15.185	1134.986	852.891
279.570	15.231	1134.289	852.525
280.585	15.226	1133.673	851.961
281.599	15.214	1132.668	851.070
282.614	15.215	1131.748	850.305
283.628	15.289	1130.497	849.668
284.643	15.299	1129.931	849.217
285.657	15.372	1128.907	848.743
286.672	15.350	1127.824	847.742
287.687	15.241	1127.008	846.504
288.701	15.445	1126.108	846.782
289.716	15.197	1125.564	845.045
290.730	15.303	1124.920	845.024
291.745	15.373	1124.156	844.727
292.760	15.340	1123.672	844.121
293.774	15.417	1122.947	843.891
294.789	15.490	1122.453	843.808
295.803	15.472	1121.871	843.206
296.818	15.506	1121.001	842.651
297.833	15.369	1120.310	841.369
298.847	15.475	1119.558	841.259
299.862	15.497	1118.446	840.460
300.876	15.589	1117.883	840.426
301.891	15.520	1117.169	839.469
302.906	15.537	1116.549	839.014
303.920	15.748	1115.567	839.251
304.935	15.684	1115.092	838.501
305.949	15.593	1114.662	837.649
306.964	15.721	1113.681	837.477
307.979	15.663	1113.134	836.703
308.993	15.711	1112.224	836.183
310.008	15.739	1111.901	836.004
311.022	15.765	1110.952	835.348
312.037	15.732	1110.000	834.393
313.052	15.702	1109.207	833.574
314.066	15.758	1108.277	833.078
315.081	15.649	1107.507	831.891
316.095	15.632	1106.356	830.865
317.110	15.592	1105.875	830.234
318.125	15.770	1104.911	830.316
319.139	15.712	1104.278	829.480
320.154	15.676	1103.964	828.996
321.168	15.598	1103.694	828.335
322.183	15.662	1102.750	827.868
323.197	15.727	1102.050	827.585
324.212	15.750	1101.422	827.154
325.227	15.758	1100.534	826.453
326.241	15.793	1100.441	826.484
327.256	15.896	1099.185	825.975
328.270	15.789	1098.143	824.591
329.285	15.799	1097.518	824.101
330.300	15.891	1096.539	823.742
331.314	15.719	1096.006	822.426
332.329	15.863	1094.815	822.163
333.343	15.841	1094.163	821.493
334.358	15.930	1093.013	820.993
335.373	15.990	1092.435	820.776
336.387	15.974	1091.450	819.888
337.402	15.955	1091.111	819.470
338.416	15.983	1090.718	819.238
339.431	16.090	1089.748	818.953
340.446	15.950	1089.417	817.955
341.460	16.108	1088.220	817.747
342.475	16.179	1087.319	817.345
343.489	16.237	1086.638	817.040
344.504	16.290	1085.587	816.435
345.519	16.239	1084.920	815.614
346.533	16.318	1083.900	815.157
347.548	16.253	1083.457	814.436
348.562	16.348	1082.347	813.987
349.577	16.226	1081.684	812.829
350.592	16.241	1080.968	812.292
351.606	16.091	1080.431	811.097
352.621	16.200	1079.945	811.181
353.635	16.108	1079.028	809.981
354.650	16.226	1078.028	809.723
355.665	16.217	1077.551	809.250
356.679	16.227	1077.052	808.854
357.694	16.284	1076.399	808.563
358.708	16.261	1075.896	808.005
359.723	16.316	1075.405	807.827
360.738	16.391	1074.447	807.393
361.752	16.393	1074.117	807.084
362.767	16.433	1073.124	806.459
363.781	16.403	1072.739	805.954
364.796	16.489	1071.945	805.695
365.810	16.528	1071.417	805.412
366.825	16.561	1071.041	805.217
367.840	16.573	1070.525	804.813
368.854	16.653	1069.557	804.395
369.869	16.615	1069.247	803.912
370.883	16.646	1068.352	803.313
371.898	16.502	1067.790	802.137
372.913	16.629	1066.705	801.852
373.927	16.632	1066.250	801.454
374.942	16.601	1066.066	801.098
375.956	16.674	1065.290	800.790
376.971	16.648	1065.024	800.397
377.986	16.737	1064.407	800.280
379.000	16.713	1063.589	799.483
380.015	16.766	1063.220	799.384
381.029	16.860	1062.164	798.965
382.044	16.886	1061.850	798.777
383.059	16.782	1061.133	797.679
384.073	16.763	1060.377	796.951
385.088	16.847	1059.279	796.449
386.102	16.923	1058.264	795.971
387.117	16.884	1057.324	795.012
388.132	16.846	1056.595	794.216
389.146	16.827	1055.931	793.559
390.161	16.816	1055.012	792.744
391.175	16.849	1054.569	792.498
392.190	16.845	1053.985	791.970
393.205	16.952	1053.262	791.856
394.219	16.903	1052.286	790.822
395.234	16.927	1051.579	790.333
396.248	16.885	1050.446	789.215
397.263	16.881	1049.263	788.241
398.278	16.907	1048.807	787.946
399.292	16.958	1048.000	787.510
400.307	16.893	1047.034	786.412
401.321	16.902	1046.408	785.914
402.336	16.949	1046.094	785.824
403.350	17.005	1045.397	785.492
404.365	16.908	1044.956	784.645
405.380	17.043	1043.838	784.357
406.394	17.023	1043.115	783.651
407.409	16.997	1043.003	783.381
408.423	17.003	1042.251	782.773
409.438	17.099	1041.227	782.378
410.453	17.318	1040.503	782.773
411.467	17.209	1039.804	781.676
412.482	17.270	1039.172	781.413
413.496	17.262	1038.122	780.517
414.511	17.262	1038.009	780.364
415.526	17.392	1037.416	780.442
416.540	17.382	1037.043	780.049
417.555	17.422	1036.640	779.858
418.569	17.392	1035.988	779.162
419.584	17.304	1035.921	778.641
420.599	17.423	1035.384	778.710
421.613	103.923	1323.006	1472.088
422.628	95.239	1364.888	1472.169
