DTS Sentinel unit serial number:	SN413079Multiplexer serial number:	ORYXHardware model number:	OX4-SRSoftware version number:	ORYX F/W v4.00 Oryx Data Collector v3.7.2.0data status	okinstallation	princeton_trtdifferential loss correction	single-endedforward channel	channel 2reverse channel	N/Adate	2019/09/14time	18:03:35forward acquisition time	60.00reverse acquisition time	0.00gamma	496.2192k internal	0.2313k external	0.2313temperature offset calibration	1.0108default loss term (dB/km)	0.3790temperature slope calibration	1.0000multiplexer offset coefficient	1.0000multiplexer slope coefficient	1.0000fibre end	0.00T internal ref (°C)	37.27T ext. ref 1 (°C)	4.96T ext. ref 2 (°C)	31.78length (m)	temperature (°C)	Stokes	anti-Stokes-747.200	-50.888	0.132	-0.063
-746.185	-73.690	0.235	-0.087
-745.171	-103.023	0.492	-0.118
-744.156	-200.000	0.011	0.501
-743.142	123.042	-0.173	0.220
-742.127	-52.364	0.244	0.114
-741.112	-200.000	0.018	0.163
-740.098	-38.691	-0.403	0.216
-739.083	-16.205	0.417	0.268
-738.069	324.872	-0.138	0.268
-737.054	114.854	0.166	-0.205
-736.039	800.000	-0.042	0.119
-735.025	800.000	0.109	0.426
-734.010	312.390	0.130	-0.248
-732.996	58.615	0.150	0.149
-731.981	-40.928	-0.342	-0.179
-730.966	609.801	-0.133	-0.336
-729.952	228.281	-0.159	-0.263
-728.937	800.000	0.118	-0.465
-727.923	-48.178	0.344	-0.168
-726.908	74.913	0.127	-0.135
-725.894	-200.000	-0.055	-0.519
-724.879	135.457	0.065	-0.086
-723.864	619.725	0.101	-0.257
-722.850	-62.335	-0.087	-0.037
-721.835	-186.908	0.278	-0.004
-720.821	443.889	0.109	-0.242
-719.806	-133.808	-0.073	-0.009
-718.791	72.715	-0.142	0.150
-717.777	-29.021	-0.099	0.058
-716.762	-63.970	-0.056	-0.023
-715.748	-157.959	-0.061	-0.004
-714.733	-87.926	-0.040	-0.012
-713.718	800.000	0.083	-0.339
-712.704	-43.134	-0.145	-0.075
-711.689	47.662	0.103	-0.097
-710.675	706.120	-0.028	0.075
-709.660	-200.000	-0.037	-0.393
-708.645	-20.440	-0.127	-0.079
-707.631	37.586	-0.055	0.050
-706.616	-200.000	-0.028	-0.131
-705.602	-90.287	0.109	0.032
-704.587	-123.295	0.277	-0.045
-703.572	-127.376	-0.323	-0.048
-702.558	163.838	-0.138	-0.196
-701.543	-200.000	-0.029	0.136
-700.529	-151.298	0.534	0.040
-699.514	170.641	0.106	0.154
-698.499	-97.675	-0.174	-0.046
-697.485	163.640	0.190	0.271
-696.470	350.173	-0.116	-0.233
-695.456	140.267	-0.201	-0.268
-694.441	-96.813	-0.354	-0.094
-693.426	223.763	-0.192	0.314
-692.412	231.839	-0.082	-0.137
-691.397	-180.024	-0.292	-0.006
-690.383	46.030	-0.080	-0.075
-689.368	800.000	0.008	0.035
-688.354	-34.660	0.056	0.031
-687.339	129.499	0.184	-0.237
-686.324	-200.000	-0.028	-0.240
-685.310	175.023	0.134	-0.196
-684.295	-29.052	-0.328	0.190
-683.281	744.428	0.073	0.198
-682.266	216.483	0.034	-0.055
-681.251	307.340	0.126	0.238
-680.237	489.979	-0.160	-0.370
-679.222	-63.003	0.224	0.094
-678.208	92.475	-0.131	0.149
-677.193	92.077	-0.049	-0.056
-676.178	-200.000	0.043	-0.330
-675.164	30.445	0.106	0.092
-674.149	56.512	-0.048	0.047
-673.135	-9.743	-0.145	0.098
-672.120	-107.379	-0.239	-0.053
-671.105	-29.276	-0.254	-0.147
-670.091	-200.000	0.035	0.260
-669.076	-53.358	-0.142	0.066
-668.062	147.139	-0.099	-0.134
-667.047	-82.681	0.194	0.064
-666.032	-200.000	-0.085	-0.383
-665.018	72.604	0.229	0.241
-664.003	17.509	-0.166	0.134
-662.989	125.440	-0.222	-0.283
-661.974	-177.023	0.246	-0.006
-660.959	-51.606	-0.101	-0.048
-659.945	-82.118	0.271	-0.089
-658.930	431.921	-0.218	-0.477
-657.916	-35.690	0.279	-0.153
-656.901	800.000	-0.028	-0.114
-655.886	-200.000	-0.044	-0.389
-654.872	-95.554	-0.155	-0.042
-653.857	98.009	-0.059	0.069
-652.843	-24.131	-0.235	-0.142
-651.828	-128.824	-0.179	0.025
-650.814	-6.528	-0.059	0.041
-649.799	35.115	0.155	0.137
-648.784	-78.214	-0.456	-0.158
-647.770	800.000	-0.041	-0.119
-646.755	-131.531	0.212	-0.028
-645.741	-107.333	0.050	0.011
-644.726	180.284	-0.132	-0.196
-643.711	-59.668	-0.168	-0.073
-642.697	800.000	-0.067	0.215
-641.682	-2.668	0.161	0.114
-640.668	75.791	0.216	0.230
-639.653	50.969	-0.098	-0.094
-638.638	-67.602	-0.043	-0.017
-637.624	582.729	-0.065	0.162
-636.609	548.247	-0.087	-0.210
-635.595	-200.000	-0.054	0.266
-634.580	-51.019	0.014	-0.007
-633.565	102.129	-0.242	-0.285
-632.551	800.000	0.065	-0.193
-631.536	156.933	0.151	-0.211
-630.522	3.611	-0.147	-0.108
-629.507	-106.994	0.316	0.071
-628.492	-157.329	0.230	-0.014
-627.478	-1.761	0.121	0.086
-626.463	425.173	0.096	-0.209
-625.449	28.970	-0.185	-0.158
-624.434	-172.124	-0.221	-0.007
-623.419	-79.379	-0.112	0.038
-622.405	-134.774	0.379	0.046
-621.390	-68.259	-0.077	-0.030
-620.376	-85.612	-0.311	0.098
-619.361	21.711	-0.267	-0.219
-618.346	-143.380	0.313	0.030
-617.332	800.000	-0.066	0.187
-616.317	-74.362	-0.321	0.117
-615.303	312.201	-0.044	0.084
-614.288	-115.196	-0.424	-0.081
-613.273	100.177	-0.095	-0.111
-612.259	-200.000	0.002	0.162
-611.244	785.635	-0.130	-0.358
-610.230	226.743	-0.033	-0.054
-609.215	800.000	-0.100	-0.310
-608.201	-200.000	-0.016	0.092
-607.186	44.685	-0.107	-0.099
-606.171	496.454	-0.133	-0.309
-605.157	361.345	-0.106	-0.215
-604.142	25.604	-0.044	-0.037
-603.128	75.035	-0.180	0.191
-602.113	-46.493	0.221	0.110
-601.098	420.891	0.046	-0.100
-600.084	800.000	-0.084	0.342
-599.069	-47.425	-0.210	-0.103
-598.055	800.000	-0.076	0.242
-597.040	52.374	0.069	-0.067
-596.025	-104.343	0.368	-0.086
-595.011	-15.289	0.087	0.056
-593.996	423.362	0.057	-0.124
-592.982	-116.351	-0.300	-0.056
-591.967	800.000	-0.006	0.022
-590.952	-190.594	0.096	0.001
-589.938	62.255	0.320	-0.321
-588.923	280.051	-0.111	-0.200
-587.909	-63.699	0.025	0.010
-586.894	340.271	-0.127	-0.250
-585.879	-144.205	-0.316	-0.030
-584.865	253.662	0.114	-0.196
-583.850	31.342	-0.156	-0.135
-582.836	25.295	-0.174	-0.145
-581.821	-200.000	-0.026	0.152
-580.806	-30.522	-0.335	-0.191
-579.792	-200.000	-0.022	0.233
-578.777	413.268	0.019	0.041
-577.763	-46.782	0.127	-0.062
-576.748	-104.421	0.182	-0.042
-575.733	-200.000	-0.017	0.163
-574.719	-64.987	0.309	-0.126
-573.704	800.000	0.012	0.046
-572.690	-200.000	-0.042	0.253
-571.675	-200.000	-0.050	0.244
-570.661	505.418	0.224	0.524
-569.646	749.775	0.103	0.279
-568.631	800.000	-0.094	0.392
-567.617	38.651	-0.097	-0.087
-566.602	-200.000	-0.040	0.405
-565.588	-107.634	-0.102	0.022
-564.573	-17.198	-0.295	-0.187
-563.558	-156.599	0.277	0.017
-562.544	-149.520	-0.019	0.001
-561.529	118.731	0.106	0.132
-560.515	-200.000	0.023	0.367
-559.500	-40.448	0.106	0.055
-558.485	184.306	-0.056	0.083
-557.471	-11.069	0.198	-0.131
-556.456	-21.441	0.068	-0.042
-555.442	25.401	0.238	-0.199
-554.427	-100.033	-0.107	-0.027
-553.412	124.949	0.135	0.171
-552.398	-78.185	0.434	-0.150
-551.383	144.639	-0.268	0.360
-550.369	-70.356	0.193	0.074
-549.354	-34.244	-0.181	0.100
-548.339	-101.380	0.260	-0.064
-547.325	-126.700	0.278	-0.041
-546.310	800.000	-0.021	0.093
-545.296	-81.543	-0.285	-0.094
-544.281	-200.000	-0.027	-0.222
-543.266	19.934	-0.168	-0.136
-542.252	800.000	-0.066	0.273
-541.237	-88.906	-0.262	0.078
-540.223	-36.722	-0.170	-0.092
-539.208	-88.428	0.457	0.137
-538.193	-73.096	-0.202	0.075
-537.179	105.771	0.027	0.032
-536.164	44.823	-0.088	0.082
-535.150	575.982	-0.168	0.413
-534.135	-200.000	-0.031	0.192
-533.121	159.272	-0.192	0.268
-532.106	-77.248	-0.181	-0.063
-531.091	205.999	0.092	-0.144
-530.077	-171.007	-0.169	-0.006
-529.062	800.000	0.034	0.145
-528.048	-78.633	0.269	0.093
-527.033	-112.706	0.440	0.088
-526.018	-200.000	-0.040	0.270
-525.004	800.000	-0.045	0.151
-523.989	2.362	-0.185	0.135
-522.975	287.677	-0.082	-0.149
-521.960	-94.021	0.308	-0.085
-520.945	-200.000	-0.059	0.310
-519.931	-200.000	0.004	0.206
-518.916	800.000	0.065	0.217
-517.902	39.100	-0.147	-0.132
-516.887	388.392	-0.118	0.246
-515.872	66.447	-0.254	0.259
-514.858	-92.184	0.072	0.020
-513.843	284.324	-0.101	0.183
-512.829	196.712	0.112	0.172
-511.814	-76.823	0.147	-0.052
-510.799	-200.000	0.040	-0.208
-509.785	-200.000	0.040	-0.189
-508.770	-136.144	0.332	-0.039
-507.756	800.000	0.056	-0.226
-506.741	-151.541	-0.321	0.024
-505.726	577.387	0.022	0.053
-504.712	-111.626	0.282	-0.058
-503.697	-77.166	0.156	-0.055
-502.683	-72.000	0.356	0.133
-501.668	81.011	0.380	-0.412
-500.653	67.906	0.173	-0.178
-499.639	46.615	-0.080	-0.074
-498.624	670.114	-0.112	-0.291
-497.610	-200.000	0.005	-0.180
-496.595	117.902	0.027	-0.034
-495.581	208.105	-0.124	-0.194
-494.566	262.991	-0.131	-0.228
-493.551	53.381	-0.112	-0.108
-492.537	-126.607	0.190	0.028
-491.522	76.065	0.134	0.142
-490.508	144.151	0.037	0.049
-489.493	491.460	-0.075	0.172
-488.478	-58.685	-0.152	0.066
-487.464	7.593	0.250	0.188
-486.449	683.432	-0.078	0.206
-485.435	800.000	-0.161	0.473
-484.420	-55.833	0.083	-0.037
-483.405	-94.999	0.335	-0.091
-482.391	245.810	0.050	0.085
-481.376	234.543	-0.106	-0.176
-480.362	-137.453	-0.311	0.035
-479.347	-156.246	-0.165	-0.010
-478.332	247.842	-0.143	-0.242
-477.318	331.138	0.107	-0.208
-476.303	-52.340	-0.039	-0.018
-475.289	371.155	0.103	0.209
-474.274	-55.653	0.165	-0.074
-473.259	-200.000	-0.050	-0.299
-472.245	-138.750	-0.183	-0.020
-471.230	199.523	0.023	-0.035
-470.216	-142.951	-0.112	0.011
-469.201	-3.567	-0.221	0.154
-468.186	-105.163	-0.241	-0.055
-467.172	-107.219	0.274	0.061
-466.157	-44.990	-0.464	-0.232
-465.143	106.937	0.170	0.203
-464.128	79.771	-0.122	0.131
-463.113	-85.416	-0.037	0.011
-462.099	351.977	-0.085	-0.169
-461.084	800.000	0.109	0.370
-460.070	122.902	-0.052	0.066
-459.055	213.103	-0.111	-0.176
-458.040	-29.668	0.186	-0.106
-457.026	-97.220	0.266	0.070
-456.011	0.249	0.031	0.022
-454.997	-113.504	0.222	-0.044
-453.982	18.574	0.091	-0.073
-452.968	-42.845	0.272	-0.139
-451.953	-200.000	0.055	-0.342
-450.938	-28.635	0.022	-0.013
-449.924	-19.325	-0.152	0.095
-448.909	-123.652	-0.234	-0.037
-447.895	229.621	0.040	0.065
-446.880	98.807	-0.130	-0.151
-445.865	-158.029	0.327	0.019
-444.851	-200.000	0.016	-0.276
-443.836	-200.000	-0.006	-0.037
-442.822	-200.000	0.007	0.516
-441.807	29.545	0.203	0.173
-440.792	60.407	-0.060	0.060
-439.778	800.000	-0.093	-0.270
-438.763	182.871	0.230	0.340
-437.749	-200.000	-0.095	0.423
-436.734	131.856	0.134	0.173
-435.719	-52.278	0.055	0.025
-434.705	-33.334	-0.203	-0.113
-433.690	133.194	-0.075	0.097
-432.676	-200.000	0.015	0.160
-431.661	-200.000	0.013	-0.175
-430.646	-200.000	0.002	0.020
-429.632	268.280	-0.230	-0.403
-428.617	178.601	0.087	0.128
-427.603	-200.000	-0.042	-0.484
-426.588	313.512	-0.044	-0.083
-425.573	14.301	0.144	-0.112
-424.559	-173.343	-0.176	-0.005
-423.544	691.044	-0.055	0.143
-422.530	-138.527	0.163	0.018
-421.515	-200.000	0.000	-0.219
-420.500	683.276	-0.110	-0.288
-419.486	-135.676	-0.121	-0.014
-418.471	584.544	0.114	-0.281
-417.457	-110.362	0.094	0.020
-416.442	593.874	-0.057	-0.142
-415.428	-136.081	0.235	0.028
-414.413	-56.832	-0.273	-0.121
-413.398	-129.522	0.208	-0.029
-412.384	-143.337	-0.319	0.031
-411.369	587.681	-0.024	-0.059
-410.355	193.274	-0.078	-0.118
-409.340	190.344	-0.111	0.167
-408.325	-200.000	-0.087	-0.603
-407.311	800.000	-0.151	-0.462
-406.296	528.288	0.039	-0.093
-405.282	-170.790	-0.154	0.005
-404.267	800.000	0.123	0.406
-403.252	800.000	-0.068	-0.255
-402.238	35.153	-0.117	-0.103
-401.223	-20.041	0.110	-0.068
-400.209	-170.205	-0.441	-0.016
-399.194	-146.292	-0.129	-0.011
-398.179	254.992	-0.114	0.195
-397.165	1.367	-0.143	-0.103
-396.150	621.898	0.022	-0.056
-395.136	63.310	0.156	0.156
-394.121	-87.723	0.290	-0.088
-393.106	-200.000	0.026	0.502
-392.092	-70.728	0.076	-0.029
-391.077	800.000	0.072	-0.293
-390.063	113.185	-0.133	0.161
-389.048	81.126	0.106	-0.114
-388.033	800.000	-0.036	-0.121
-387.019	87.103	0.272	-0.301
-386.004	65.550	-0.200	0.203
-384.990	-3.753	0.192	0.133
-383.975	-18.041	0.330	-0.207
-382.960	-130.474	-0.209	-0.028
-381.946	-47.532	0.061	-0.030
-380.931	595.496	0.087	-0.216
-379.917	598.756	-0.073	-0.182
-378.902	-200.000	0.008	-0.055
-377.888	-87.268	-0.171	0.052
-376.873	-28.991	0.225	-0.129
-375.858	-200.000	-0.017	0.143
-374.844	-13.429	-0.171	0.111
-373.829	-200.000	0.017	0.218
-372.815	-82.696	0.194	-0.063
-371.800	-70.504	-0.134	-0.051
-370.785	-200.000	-0.009	-0.047
-369.771	-200.000	-0.060	-0.261
-368.756	0.003	-0.101	-0.072
-367.742	30.038	-0.084	0.071
-366.727	-97.740	0.185	0.048
-365.712	-200.000	-0.000	-0.019
-364.698	502.125	0.099	-0.228
-363.683	189.574	0.156	-0.234
-362.669	118.287	0.090	0.111
-361.654	-35.428	-0.074	-0.040
-360.639	-141.989	-0.170	0.017
-359.625	800.000	-0.068	-0.291
-358.610	192.215	0.125	0.189
-357.596	-105.070	-0.106	-0.024
-356.581	249.924	-0.186	-0.316
-355.566	235.366	0.071	-0.116
-354.552	-185.643	-0.194	0.003
-353.537	-82.373	-0.116	0.038
-352.523	-200.000	-0.028	-0.256
-351.508	-146.660	-0.311	-0.027
-350.493	-200.000	-0.001	0.046
-349.479	-29.644	0.348	-0.198
-348.464	98.029	-0.152	0.174
-347.450	176.822	-0.067	0.097
-346.435	-44.062	0.107	-0.054
-345.420	-23.442	-0.163	0.098
-344.406	-200.000	0.061	0.000
-343.391	560.962	0.097	0.234
-342.377	19.768	0.108	0.087
-341.362	-200.000	0.018	0.416
-340.348	103.365	-0.144	0.168
-339.333	-35.682	-0.180	-0.097
-338.318	554.250	-0.083	0.199
-337.304	-125.609	0.261	0.040
-336.289	-200.000	-0.001	-0.029
-335.275	800.000	0.074	0.251
-334.260	-130.533	0.547	0.074
-333.245	-138.887	0.122	0.013
-332.231	159.083	0.153	-0.213
-331.216	-83.249	-0.028	0.009
-330.202	-35.681	0.212	-0.115
-329.187	-200.000	0.029	-0.205
-328.172	171.157	-0.159	0.227
-327.158	388.974	0.098	-0.202
-326.143	-200.000	0.052	-0.239
-325.129	-200.000	-0.030	0.193
-324.114	-49.861	0.456	-0.216
-323.099	-34.238	0.306	0.167
-322.085	792.882	-0.118	0.323
-321.070	-124.817	-0.314	-0.048
-320.056	-6.591	-0.134	0.091
-319.041	-200.000	0.005	-0.035
-318.026	26.884	0.327	0.273
-317.012	-131.503	-0.292	-0.038
-315.997	-30.330	0.212	-0.120
-314.983	397.966	0.065	-0.135
-313.968	-51.072	0.094	-0.044
-312.953	-21.682	0.182	0.111
-311.939	45.638	-0.192	0.177
-310.924	-58.614	0.476	0.206
-309.910	755.342	-0.046	0.124
-308.895	65.802	0.160	0.161
-307.880	800.000	-0.075	0.268
-306.866	228.079	0.054	0.088
-305.851	34.947	-0.202	0.177
-304.837	-200.000	-0.005	0.075
-303.822	60.362	0.152	0.150
-302.807	800.000	-0.023	0.081
-301.793	23.694	0.051	-0.042
-300.778	-19.182	-0.250	-0.155
-299.764	-31.972	0.180	-0.100
-298.749	-146.705	0.212	0.018
-297.735	800.000	0.040	-0.152
-296.720	-117.684	0.206	-0.037
-295.705	8.700	0.136	-0.102
-294.691	-176.129	-0.362	-0.010
-293.676	139.667	0.064	0.084
-292.662	30.182	0.281	-0.239
-291.647	225.034	0.131	-0.211
-290.632	-198.861	0.217	-0.001
-289.618	663.913	0.082	0.210
-288.603	-60.106	-0.333	-0.142
-287.589	-35.675	0.207	0.112
-286.574	231.507	0.105	0.171
-285.559	-191.912	-0.071	0.001
-284.545	599.175	-0.052	0.128
-283.530	40.633	0.097	0.087
-282.516	-200.000	-0.025	-0.147
-281.501	800.000	-0.036	0.107
-280.486	800.000	-0.082	-0.256
-279.472	266.947	0.246	-0.429
-278.457	-200.000	0.026	0.132
-277.443	-200.000	-0.011	0.073
-276.428	-6.903	0.162	-0.110
-275.413	-200.000	0.014	0.117
-274.399	-152.053	-0.266	-0.019
-273.384	-50.806	-0.257	0.121
-272.370	-27.450	-0.236	0.137
-271.355	-22.044	0.149	-0.090
-270.340	32.462	0.102	-0.087
-269.326	-74.427	-0.274	0.098
-268.311	259.757	-0.233	0.401
-267.297	-102.925	0.093	-0.022
-266.282	-100.355	0.184	-0.045
-265.267	-72.699	0.038	0.014
-264.253	-200.000	0.001	-0.037
-263.238	176.406	-0.156	-0.226
-262.224	82.059	-0.105	-0.114
-261.209	627.350	0.050	-0.127
-260.195	223.124	-0.194	-0.311
-259.180	800.000	0.075	0.319
-258.165	-135.135	0.375	-0.045
-257.151	-77.735	-0.067	-0.023
-256.136	800.000	-0.057	-0.188
-255.122	-200.000	-0.026	0.215
-254.107	-78.894	0.263	0.089
-253.092	48.820	-0.089	0.083
-252.078	485.196	-0.145	-0.329
-251.063	11.778	0.045	-0.034
-250.049	508.696	-0.103	0.238
-249.034	-72.950	-0.170	-0.062
-248.019	-102.742	0.241	-0.057
-247.005	88.730	-0.029	-0.032
-245.990	-115.994	0.358	0.066
-244.976	800.000	0.081	0.238
-243.961	-200.000	0.000	0.093
-242.946	-64.813	-0.264	0.106
-241.932	-178.043	-0.252	-0.006
-240.917	-134.531	-0.354	0.043
-239.903	62.263	0.129	-0.128
-238.888	-175.401	-0.106	-0.003
-237.873	104.693	-0.128	0.150
-236.859	800.000	-0.029	-0.114
-235.844	-200.000	0.023	-0.147
-234.830	800.000	0.113	-0.389
-233.815	16.858	-0.078	0.061
-232.800	-128.467	-0.241	-0.034
-231.786	184.263	-0.047	-0.069
-230.771	471.059	-0.063	-0.142
-229.757	800.000	0.049	0.137
-228.742	37.688	0.145	-0.128
-227.727	69.994	-0.296	0.304
-226.713	-44.585	-0.016	-0.008
-225.698	800.000	-0.051	0.143
-224.684	-87.103	0.249	0.075
-223.669	-7.693	0.292	0.196
-222.655	-200.000	0.011	-0.330
-221.640	237.519	0.219	0.361
-220.625	-121.800	0.211	-0.035
-219.611	166.013	-0.071	0.100
-218.596	52.129	-0.204	-0.193
-217.582	22.630	0.251	0.204
-216.567	-133.851	-0.281	-0.035
-215.552	-130.406	-0.414	0.056
-214.538	33.354	-0.273	-0.235
-213.523	-85.617	0.230	-0.071
-212.509	24.006	0.334	0.273
-211.494	-154.461	-0.337	-0.022
-210.479	-200.000	-0.218	0.001
-209.465	-200.000	-0.049	0.245
-208.450	69.780	0.136	-0.140
-207.436	-200.000	0.003	0.170
-206.421	-200.000	-0.007	0.094
-205.406	231.873	0.199	0.324
-204.392	-130.770	0.406	-0.054
-203.377	800.000	0.074	-0.284
-202.363	-36.758	-0.301	-0.160
-201.348	-66.365	0.201	0.079
-200.333	-87.909	0.109	-0.033
-199.319	192.180	-0.219	-0.327
-198.304	-118.898	-0.086	0.015
-197.290	-98.902	0.231	-0.058
-196.275	-200.000	0.029	-0.166
-195.260	800.000	-0.051	0.188
-194.246	-56.080	-0.474	0.210
-193.231	55.132	0.043	0.041
-192.217	389.252	-0.087	0.179
-191.202	-144.586	-0.308	0.028
-190.187	-200.000	-0.011	-0.148
-189.173	208.258	0.155	0.241
-188.158	800.000	-0.082	-0.258
-187.144	89.370	0.135	-0.149
-186.129	658.200	0.079	-0.201
-185.114	243.755	-0.172	0.286
-184.100	800.000	0.030	0.113
-183.085	-200.000	-0.009	-0.090
-182.071	-109.510	-0.263	-0.055
-181.056	-55.365	-0.451	-0.201
-180.042	206.824	-0.154	0.239
-179.027	-69.052	0.260	-0.099
-178.012	24.788	-0.056	-0.046
-176.998	86.912	0.113	0.123
-175.983	58.579	-0.153	-0.149
-174.969	153.137	-0.258	-0.350
-173.954	-125.891	-0.304	-0.045
-172.939	-200.000	0.002	-0.208
-171.925	81.952	-0.142	0.153
-170.910	-145.786	0.410	-0.036
-169.896	-60.640	0.155	0.065
-168.881	-160.256	0.432	-0.023
-167.866	-200.000	0.020	0.196
-166.852	230.575	0.112	-0.181
-165.837	624.694	0.030	-0.076
-164.823	-126.882	-0.099	-0.014
-163.808	-200.000	0.053	0.497
-162.793	-8.140	0.425	-0.284
-161.779	800.000	-0.140	0.519
-160.764	800.000	-0.027	0.099
-159.750	175.508	-0.160	-0.230
-158.735	-27.356	0.183	0.106
-157.720	150.596	0.090	0.121
-156.706	-156.823	0.110	0.007
-155.691	-135.504	0.217	0.026
-154.677	-135.732	-0.092	-0.011
-153.662	86.428	-0.151	-0.165
-152.647	-20.822	-0.064	-0.039
-151.633	30.480	0.152	0.129
-150.618	380.209	-0.031	0.062
-149.604	-131.820	0.236	-0.031
-148.589	-65.055	0.225	0.090
-147.574	-34.820	0.321	-0.174
-146.560	83.501	0.135	-0.145
-145.545	800.000	0.021	-0.066
-144.531	-200.000	0.005	-0.064
-143.516	-59.530	0.124	0.053
-142.502	-200.000	-0.001	0.116
-141.487	-118.620	-0.046	0.008
-140.472	51.860	0.111	-0.104
-139.458	-177.430	0.185	-0.005
-138.443	133.676	0.136	-0.175
-137.429	800.000	-0.101	-0.297
-136.414	-25.104	0.087	-0.051
-135.399	-200.000	-0.004	0.039
-134.385	-141.637	-0.250	-0.025
-133.370	127.506	0.084	-0.105
-132.356	174.694	0.052	-0.074
-131.341	-81.480	-0.134	0.044
-130.326	503.423	-0.079	0.181
-129.312	-200.000	0.061	0.287
-128.297	-107.173	-0.202	-0.044
-127.283	-200.000	0.009	0.074
-126.268	172.416	0.112	0.159
-125.253	-26.240	0.132	-0.077
-124.239	77.572	0.181	-0.190
-123.224	-67.738	0.278	0.107
-122.210	800.000	-0.058	-0.160
-121.195	471.174	0.094	0.208
-120.180	-125.655	-0.349	-0.052
-119.166	-200.000	-0.018	-0.263
-118.151	36.286	-0.185	-0.161
-117.137	-90.709	0.171	0.049
-116.122	-124.516	0.201	0.031
-115.107	-200.000	0.000	0.342
-114.093	-152.517	0.088	-0.006
-113.078	-200.000	0.002	-0.247
-112.064	-200.000	-0.009	0.214
-111.049	-72.223	-0.220	-0.081
-110.034	-200.000	0.017	-0.349
-109.020	-200.000	-0.035	-0.319
-108.005	233.775	-0.047	-0.076
-106.991	144.236	0.060	-0.080
-105.976	-39.957	-0.419	0.216
-104.962	20.661	0.233	0.186
-103.947	147.847	0.137	0.183
-102.932	-200.000	-0.023	0.268
-101.918	142.998	-0.228	0.299
-100.903	-200.000	0.002	0.276
-99.889	-200.000	-0.011	-0.071
-98.874	37.465	-0.097	-0.085
-97.859	-66.214	-0.128	0.050
-96.845	173.018	-0.117	-0.166
-95.830	-200.000	-0.051	0.248
-94.816	-94.270	0.378	0.102
-93.801	-200.000	0.005	0.078
-92.786	200.069	0.061	0.092
-91.772	-109.493	0.048	0.010
-90.757	-200.000	-0.006	0.188
-89.743	800.000	-0.022	0.076
-88.728	-165.398	0.170	0.007
-87.713	800.000	-0.054	0.230
-86.699	81.710	0.444	0.475
-85.684	0.979	0.273	-0.193
-84.670	55.075	-0.012	0.012
-83.655	61.469	-0.218	-0.214
-82.640	-200.000	0.007	-0.061
-81.626	80.784	-0.104	-0.111
-80.611	499.884	-0.060	0.136
-79.597	141.820	-0.048	0.063
-78.582	64.785	-0.102	-0.102
-77.567	278.779	0.200	0.352
-76.553	-93.713	0.089	0.024
-75.538	-96.267	-0.047	-0.012
-74.524	207.650	0.095	0.146
-73.509	92.364	0.132	-0.147
-72.494	-200.000	0.022	-0.322
-71.480	61.219	0.188	0.184
-70.465	-175.242	-0.122	-0.003
-69.451	52.394	0.260	0.245
-68.436	800.000	0.106	0.357
-67.422	117.730	0.158	0.193
-66.407	7.867	0.238	0.176
-65.392	-68.481	-0.260	-0.100
-64.378	597.550	0.095	0.232
-63.363	-15.338	-0.167	-0.106
-62.349	-200.000	0.007	-0.046
-61.334	107.211	-0.728	-0.854
-60.319	84.012	0.410	0.442
-59.305	-200.000	-0.044	-0.744
-58.290	476.506	0.363	0.810
-57.276	435.631	0.648	1.391
-56.261	-200.000	89.247	502.558
-55.246	541.547	1393.905	3278.790
-54.232	186.653	2606.015	3830.640
-53.217	115.742	2323.881	2805.622
-52.203	46.529	1938.450	1775.312
-51.188	40.529	1729.283	1537.356
-50.173	37.713	1685.344	1476.919
-49.159	52.784	1729.792	1631.924
-48.144	56.518	1747.917	1677.638
-47.130	40.336	1705.957	1514.899
-46.115	37.274	1691.814	1479.012
-45.100	37.135	1686.645	1473.374
-44.086	37.077	1684.386	1470.906
-43.071	37.119	1681.853	1468.952
-42.057	37.082	1678.951	1466.081
-41.042	37.145	1676.992	1464.790
-40.027	37.190	1675.100	1463.415
-39.013	37.095	1673.507	1461.248
-37.998	37.126	1671.551	1459.720
-36.984	37.141	1670.330	1458.705
-35.969	37.250	1668.641	1457.995
-34.954	37.187	1667.641	1456.589
-33.940	37.221	1665.484	1454.900
-32.925	37.269	1663.559	1453.519
-31.911	37.220	1661.900	1451.646
-30.896	37.240	1659.844	1449.941
-29.881	37.300	1658.231	1448.926
-28.867	37.254	1657.028	1447.471
-27.852	37.273	1655.474	1446.201
-26.838	37.255	1653.714	1444.468
-25.823	37.360	1652.287	1443.949
-24.809	37.243	1651.080	1441.967
-23.794	37.238	1649.599	1440.579
-22.779	37.362	1647.645	1439.737
-21.765	37.360	1646.127	1438.334
-20.750	37.331	1644.971	1437.051
-19.736	37.320	1643.474	1435.610
-18.721	37.280	1642.240	1434.174
-17.706	37.262	1640.865	1432.786
-16.692	37.312	1639.097	1431.557
-15.677	37.296	1637.600	1430.071
-14.663	37.364	1636.153	1429.254
-13.648	37.311	1634.997	1427.793
-12.633	37.311	1633.502	1426.435
-11.619	37.258	1632.330	1424.965
-10.604	37.313	1630.042	1423.314
-9.590	37.368	1628.745	1422.530
-8.575	37.313	1627.595	1421.062
-7.560	37.241	1626.861	1419.837
-6.546	37.281	1625.321	1418.733
-5.531	37.337	1624.574	1418.432
-4.517	37.256	1623.229	1416.610
-3.502	37.298	1622.014	1415.804
-2.487	37.326	1620.373	1414.514
-1.473	37.085	1608.287	1402.166
-0.458	34.060	1587.500	1362.362
0.556	30.737	1586.270	1325.236
1.571	27.884	1610.179	1324.431
2.586	26.913	1623.877	1328.476
3.600	23.602	1569.020	1260.018
4.615	14.070	1456.464	1106.393
5.629	6.238	1388.569	1004.859
6.644	5.113	1379.598	991.134
7.659	4.975	1377.961	988.997
8.673	4.845	1377.333	987.631
9.688	4.898	1375.647	986.675
10.702	4.892	1373.039	984.678
11.717	8.148	1379.916	1010.175
12.731	16.562	1395.303	1075.041
13.746	21.236	1402.094	1109.952
14.761	20.386	1398.847	1101.892
15.775	19.203	1395.845	1091.937
16.790	18.150	1393.164	1083.079
17.804	17.296	1391.047	1075.934
18.819	16.906	1389.906	1072.486
19.834	16.644	1388.359	1069.546
20.848	16.434	1387.093	1067.151
21.863	16.291	1385.570	1064.978
22.877	16.146	1384.458	1063.121
23.892	16.081	1383.646	1061.994
24.907	16.118	1382.630	1061.351
25.921	16.007	1381.981	1060.063
26.936	16.128	1381.036	1060.002
27.950	16.172	1380.182	1059.528
28.965	16.183	1379.127	1058.693
29.980	16.319	1377.944	1058.542
30.994	16.361	1377.059	1058.034
32.009	16.295	1376.165	1056.843
33.023	16.234	1374.672	1055.221
34.038	16.295	1373.311	1054.460
35.053	16.305	1371.539	1053.072
36.067	16.174	1370.908	1051.679
37.082	16.265	1369.797	1051.296
38.096	16.272	1369.115	1050.726
39.111	16.267	1368.063	1049.795
40.126	16.253	1366.974	1048.781
41.140	16.039	1366.332	1046.861
42.155	16.050	1365.329	1046.069
43.169	15.928	1365.560	1045.399
44.184	15.894	1365.509	1045.056
45.199	15.955	1364.449	1044.531
46.213	16.107	1364.236	1045.215
47.228	16.101	1363.423	1044.466
48.242	16.272	1361.917	1044.276
49.257	16.142	1360.757	1042.490
50.271	16.124	1359.010	1040.947
51.286	16.201	1358.012	1040.566
52.301	16.224	1356.287	1039.298
53.315	15.970	1355.217	1036.818
54.330	16.021	1354.384	1036.406
55.344	15.953	1353.351	1035.107
56.359	15.927	1352.309	1034.056
57.374	15.955	1351.219	1033.305
58.388	16.008	1350.454	1032.952
59.403	15.912	1349.976	1031.905
60.417	15.796	1349.094	1030.432
61.432	15.897	1348.039	1030.150
62.447	15.860	1347.402	1029.349
63.461	15.761	1346.306	1027.813
64.476	15.722	1345.522	1026.888
65.490	15.682	1344.282	1025.607
66.505	15.792	1342.183	1024.582
67.520	15.804	1341.253	1023.856
68.534	15.877	1339.851	1023.141
69.549	15.863	1339.060	1022.361
70.563	15.897	1338.102	1021.745
71.578	15.774	1337.007	1020.070
72.593	15.663	1336.493	1018.915
73.607	15.617	1335.748	1017.980
74.622	15.661	1335.052	1017.623
75.636	15.700	1333.814	1016.828
76.651	15.774	1332.642	1016.293
77.666	15.729	1332.391	1015.738
78.680	15.744	1331.843	1015.318
79.695	15.868	1331.097	1015.408
80.709	15.831	1330.781	1014.855
81.724	15.917	1329.719	1014.473
82.739	16.047	1328.708	1014.399
83.753	16.099	1328.016	1014.088
84.768	16.079	1327.049	1013.143
85.782	16.223	1326.051	1013.154
86.797	16.270	1324.227	1011.955
87.812	16.177	1323.120	1010.460
88.826	16.105	1322.454	1009.433
89.841	16.146	1321.475	1008.839
90.855	16.146	1320.660	1008.131
91.870	16.211	1319.510	1007.548
92.884	16.313	1318.577	1007.355
93.899	16.287	1317.889	1006.590
94.914	16.303	1316.951	1005.876
95.928	16.291	1316.419	1005.308
96.943	16.214	1315.215	1003.844
97.957	16.178	1314.167	1002.744
98.972	16.225	1313.479	1002.409
99.987	16.175	1312.451	1001.239
101.001	16.178	1311.432	1000.387
102.016	16.161	1310.363	999.384
103.030	16.270	1309.587	999.351
104.045	16.194	1308.483	997.968
105.060	16.132	1307.145	996.497
106.074	16.083	1305.794	995.088
107.089	15.985	1304.163	993.179
108.103	15.841	1303.121	991.450
109.118	15.794	1301.975	990.214
110.133	16.027	1300.107	990.071
111.147	15.961	1299.383	989.046
112.162	15.856	1298.188	987.436
113.176	16.022	1296.668	987.163
114.191	16.030	1295.944	986.572
115.206	15.939	1294.936	985.184
116.220	15.926	1293.612	984.014
117.235	15.985	1292.707	983.583
118.249	15.883	1291.836	982.240
119.264	15.964	1290.193	981.372
120.279	15.909	1289.179	980.195
121.293	15.971	1288.091	979.640
122.308	15.784	1287.283	977.853
123.322	15.818	1286.448	977.333
124.337	15.822	1285.120	976.257
125.352	15.806	1283.531	974.874
126.366	15.815	1283.158	974.554
127.381	15.846	1282.088	973.837
128.395	15.844	1281.064	972.960
129.410	15.856	1280.291	972.359
130.424	15.890	1279.382	971.774
131.439	15.973	1278.427	971.446
132.454	15.942	1277.509	970.483
133.468	15.959	1276.753	969.918
134.483	16.005	1276.249	969.717
135.497	15.936	1275.666	968.787
136.512	15.947	1274.132	967.599
137.527	15.982	1273.013	966.867
138.541	16.073	1271.050	965.814
139.556	16.191	1269.474	965.202
140.570	16.203	1268.899	964.748
141.585	16.255	1267.538	963.928
142.600	16.307	1266.701	963.500
143.614	16.261	1265.922	962.564
144.629	16.371	1264.355	961.912
145.643	16.274	1263.254	960.439
146.658	16.188	1261.805	958.759
147.673	16.169	1260.580	957.639
148.687	16.126	1259.034	956.135
149.702	16.055	1257.534	954.508
150.716	15.975	1256.445	953.147
151.731	16.088	1254.850	952.492
152.746	15.998	1254.380	951.542
153.760	16.240	1252.931	951.723
154.775	16.196	1252.025	950.700
155.789	16.166	1251.437	950.000
156.804	16.174	1250.339	949.131
157.819	16.334	1248.701	948.704
158.833	16.227	1248.158	947.604
159.848	16.420	1246.991	947.719
160.862	16.400	1246.131	946.867
161.877	16.271	1244.770	945.028
162.892	16.128	1243.475	943.164
163.906	15.991	1242.933	941.899
164.921	16.097	1241.894	941.620
165.935	16.200	1241.028	941.456
166.950	16.259	1240.131	941.020
167.964	16.144	1239.541	939.850
168.979	16.153	1238.829	939.275
169.994	16.072	1238.599	938.570
171.008	16.260	1237.358	938.590
172.023	16.322	1236.537	938.228
173.037	16.446	1235.415	937.984
174.052	16.529	1234.083	937.352
175.067	16.326	1233.722	935.865
176.081	16.186	1232.848	934.346
177.096	16.180	1231.879	933.494
178.110	16.269	1230.359	932.754
179.125	16.276	1229.102	931.755
180.140	16.183	1227.846	930.209
181.154	16.392	1226.605	930.340
182.169	16.447	1225.548	929.755
183.183	16.479	1224.462	929.026
184.198	16.487	1223.290	928.100
185.213	16.444	1222.006	926.808
186.227	16.602	1220.762	926.644
187.242	16.625	1219.902	926.036
188.256	16.593	1219.305	925.327
189.271	16.546	1218.071	924.051
190.286	16.468	1216.547	922.389
191.300	16.245	1215.853	920.567
192.315	16.133	1215.525	919.625
193.329	16.211	1214.403	919.121
194.344	16.343	1213.979	919.435
195.359	16.293	1213.876	919.002
196.373	16.300	1213.283	918.512
197.388	16.579	1212.475	919.335
198.402	16.714	1211.969	919.602
199.417	16.783	1210.996	919.158
200.432	16.887	1210.120	918.973
201.446	16.878	1210.062	918.801
202.461	16.865	1209.103	917.922
203.475	16.791	1207.780	916.434
204.490	16.729	1206.565	915.100
205.504	16.664	1205.297	913.702
206.519	16.771	1203.981	913.205
207.534	16.654	1203.317	911.987
208.548	16.629	1202.093	910.843
209.563	16.653	1201.158	910.182
210.577	16.667	1200.454	909.648
211.592	16.805	1199.362	909.481
212.607	16.823	1198.790	909.062
213.621	16.883	1197.559	908.371
214.636	16.854	1197.247	907.895
215.650	16.935	1196.003	907.306
216.665	16.970	1194.859	906.545
217.680	16.938	1194.248	905.833
218.694	17.053	1193.226	905.589
219.709	16.965	1192.439	904.441
220.723	16.972	1191.436	903.641
221.738	16.979	1191.141	903.370
222.753	16.995	1190.295	902.736
223.767	17.054	1189.442	902.321
224.782	17.062	1189.015	901.964
225.796	17.099	1188.391	901.607
226.811	17.123	1187.446	900.934
227.826	17.018	1186.672	899.714
228.840	17.023	1185.796	898.994
229.855	17.030	1185.160	898.473
230.869	17.025	1184.292	897.708
231.884	17.011	1183.514	896.962
232.899	16.992	1182.714	896.176
233.913	16.898	1182.133	895.159
234.928	16.839	1181.472	894.268
235.942	16.929	1180.409	893.860
236.957	16.862	1179.782	892.956
237.972	16.808	1179.340	892.257
238.986	16.960	1178.190	892.109
240.001	16.837	1178.177	891.369
241.015	16.975	1176.732	890.922
242.030	16.996	1175.920	890.339
243.045	17.069	1174.916	889.886
244.059	17.022	1174.282	889.081
245.074	17.085	1173.670	888.869
246.088	17.124	1172.633	888.208
247.103	17.178	1172.005	887.937
248.117	17.227	1171.521	887.748
249.132	17.432	1170.542	887.997
250.147	17.480	1169.988	887.744
251.161	17.591	1169.292	887.717
252.176	17.629	1168.640	887.345
253.190	17.596	1168.064	886.654
254.205	17.617	1167.586	886.321
255.220	17.729	1166.860	886.276
256.234	17.642	1166.016	885.106
257.249	17.654	1165.286	884.534
258.263	17.667	1164.796	884.150
259.278	17.587	1164.591	883.502
260.293	17.677	1163.567	883.116
261.307	17.713	1163.280	883.004
262.322	17.828	1162.352	882.815
263.336	17.844	1162.054	882.596
264.351	17.776	1161.159	881.488
265.366	17.832	1160.546	881.231
266.380	17.753	1160.139	880.436
267.395	17.771	1158.952	879.551
268.409	17.770	1158.131	878.847
269.424	17.753	1157.334	878.076
270.439	17.756	1156.645	877.488
271.453	17.654	1156.213	876.562
272.468	17.780	1154.708	875.987
273.482	17.733	1154.291	875.351
274.497	17.787	1153.748	875.140
275.512	17.780	1152.954	874.426
276.526	17.832	1152.088	873.956
277.541	17.771	1151.574	873.178
278.555	17.776	1151.085	872.757
279.570	17.993	1150.085	873.030
280.585	17.962	1149.459	872.319
281.599	18.085	1148.211	871.923
282.614	17.909	1147.455	870.373
283.628	17.747	1146.710	868.906
284.643	17.899	1145.833	868.939
285.657	17.920	1144.407	867.884
286.672	17.883	1143.645	867.044
287.687	18.044	1142.767	867.117
288.701	18.039	1141.931	866.382
289.716	17.918	1141.763	865.566
290.730	17.966	1140.954	865.117
291.745	17.928	1140.254	864.320
292.760	17.962	1139.848	864.104
293.774	18.076	1138.845	863.844
294.789	18.144	1138.070	863.526
295.803	18.134	1137.670	863.094
296.818	18.110	1136.746	862.196
297.833	18.095	1135.851	861.364
298.847	18.060	1135.504	860.849
299.862	18.058	1134.200	859.773
300.876	18.184	1133.869	860.079
301.891	18.277	1133.564	860.242
302.906	18.228	1132.698	859.262
303.920	18.273	1132.195	859.032
304.935	18.261	1131.644	858.474
305.949	18.408	1130.741	858.454
306.964	18.505	1129.600	857.994
307.979	18.321	1129.346	856.807
308.993	18.402	1128.223	856.284
310.008	18.380	1127.913	855.863
311.022	18.367	1127.232	855.206
312.037	18.404	1126.206	854.536
313.052	18.404	1124.941	853.502
314.066	18.364	1124.072	852.563
315.081	18.250	1123.385	851.400
316.095	18.129	1122.499	850.055
317.110	18.259	1121.818	850.109
318.125	18.158	1121.193	849.061
319.139	18.163	1120.768	848.686
320.154	18.250	1119.454	848.049
321.168	18.218	1119.398	847.769
322.183	18.313	1118.450	847.449
323.197	18.286	1117.868	846.800
324.212	18.249	1117.482	846.247
325.227	18.399	1116.702	846.326
326.241	18.348	1116.129	845.563
327.256	18.277	1115.358	844.554
328.270	18.330	1114.187	843.854
329.285	18.349	1113.448	843.312
330.300	18.443	1112.448	842.944
331.314	18.402	1111.553	841.987
332.329	18.351	1110.609	840.948
333.343	18.350	1109.471	840.006
334.358	18.463	1109.026	840.153
335.373	18.535	1108.471	840.007
336.387	18.488	1107.670	839.096
337.402	18.519	1106.878	838.573
338.416	18.605	1106.280	838.467
339.431	18.602	1105.778	837.997
340.446	18.686	1105.253	837.938
341.460	18.848	1104.392	837.998
342.475	18.841	1103.628	837.311
343.489	18.856	1102.610	836.539
344.504	18.928	1101.318	835.835
345.519	18.949	1100.883	835.535
346.533	18.898	1100.166	834.665
347.548	18.984	1099.420	834.441
348.562	18.936	1098.782	833.652
349.577	18.888	1097.707	832.529
350.592	18.784	1096.789	831.257
351.606	18.637	1096.398	830.175
352.621	18.730	1095.611	829.957
353.635	18.690	1094.897	829.147
354.650	18.792	1093.828	828.760
355.665	18.849	1093.335	828.588
356.679	18.811	1092.872	827.979
357.694	18.817	1092.563	827.703
358.708	18.877	1091.673	827.245
359.723	18.894	1090.714	826.524
360.738	18.926	1089.950	826.024
361.752	18.873	1089.677	825.493
362.767	19.001	1089.224	825.690
363.781	18.918	1088.698	824.818
364.796	19.137	1087.765	825.088
365.810	19.148	1087.316	824.730
366.825	19.125	1087.139	824.411
367.840	19.287	1086.645	824.740
368.854	19.268	1085.937	824.037
369.869	19.296	1085.185	823.526
370.883	19.279	1084.235	822.655
371.898	19.086	1083.653	821.218
372.913	19.253	1082.520	821.082
373.927	19.271	1082.239	820.883
374.942	19.389	1081.859	821.085
375.956	19.372	1080.949	820.237
376.971	19.205	1080.735	819.209
377.986	19.481	1079.984	819.880
379.000	19.474	1079.638	819.510
380.015	19.430	1079.081	818.808
381.029	19.599	1078.280	818.928
382.044	19.533	1077.243	817.754
383.059	19.487	1076.838	817.157
384.073	19.512	1076.101	816.643
385.088	19.494	1075.263	815.851
386.102	19.565	1073.944	815.114
387.117	19.350	1073.268	813.515
388.132	19.380	1071.967	812.599
389.146	19.446	1070.947	812.063
390.161	19.348	1070.356	811.083
391.175	19.379	1069.849	810.770
392.190	19.549	1069.171	810.984
393.205	19.512	1068.679	810.365
394.219	19.501	1067.645	809.457
395.234	19.510	1066.760	808.759
396.248	19.512	1065.742	807.922
397.263	19.440	1064.676	806.710
398.278	19.426	1064.043	806.094
399.292	19.439	1063.116	805.381
400.307	19.323	1062.882	804.590
401.321	19.317	1062.174	803.955
402.336	19.383	1061.290	803.523
403.350	19.411	1060.697	803.130
404.365	19.430	1059.934	802.571
405.380	19.577	1059.056	802.516
406.394	19.585	1058.806	802.293
407.409	19.638	1057.846	801.741
408.423	19.680	1057.200	801.379
409.438	19.850	1056.439	801.516
410.453	19.809	1055.835	800.798
411.467	19.797	1055.293	800.259
412.482	19.906	1054.823	800.340
413.496	19.903	1054.135	799.731
414.511	19.864	1053.288	798.835
415.526	19.999	1053.200	799.325
416.540	20.072	1052.641	799.164
417.555	20.029	1051.823	798.276
418.569	20.002	1051.039	797.486
419.584	20.016	1050.885	797.361
420.599	19.987	1050.203	796.639
421.613	149.448	1399.597	1783.072
422.628	137.026	1450.505	1783.215
