DTS Sentinel unit serial number:	SN413079Multiplexer serial number:	ORYXHardware model number:	OX4-SRSoftware version number:	ORYX F/W v4.00 Oryx Data Collector v3.7.2.0data status	okinstallation	princeton_trtdifferential loss correction	single-endedforward channel	channel 2reverse channel	N/Adate	2019/09/17time	01:27:34forward acquisition time	60.00reverse acquisition time	0.00gamma	496.2192k internal	0.2328k external	0.2328temperature offset calibration	0.9975default loss term (dB/km)	0.3790temperature slope calibration	1.0000multiplexer offset coefficient	1.0000multiplexer slope coefficient	1.0000fibre end	0.00T internal ref (°C)	29.50T ext. ref 1 (°C)	0.11T ext. ref 2 (°C)	24.32length (m)	temperature (°C)	Stokes	anti-Stokes-747.200	26.571	0.116	0.098
-746.185	-152.112	0.198	-0.015
-745.171	-77.808	0.200	-0.070
-744.156	-87.335	-0.336	0.103
-743.142	-200.000	0.006	0.105
-742.127	-200.000	-0.305	0.000
-741.112	-59.967	0.367	0.158
-740.098	-85.432	-0.265	-0.083
-739.083	800.000	0.029	-0.096
-738.069	800.000	0.048	0.136
-737.054	-116.448	0.294	-0.055
-736.039	-91.939	-0.168	-0.048
-735.025	-35.137	0.493	-0.270
-734.010	-24.421	0.135	-0.081
-732.996	-164.578	-0.134	-0.006
-731.981	-122.592	0.275	0.045
-730.966	800.000	0.064	-0.203
-729.952	-55.768	-0.212	-0.096
-728.937	-109.620	-0.249	0.053
-727.923	800.000	0.152	-0.428
-726.908	780.127	0.098	-0.271
-725.894	1.988	-0.196	0.143
-724.879	-79.605	-0.193	0.066
-723.864	-200.000	-0.022	0.290
-722.850	186.114	-0.072	0.108
-721.835	800.000	0.034	0.133
-720.821	-13.210	-0.120	-0.079
-719.806	-73.586	-0.194	-0.071
-718.791	-187.173	0.235	0.003
-717.777	-119.363	-0.158	0.028
-716.762	-44.204	0.198	0.100
-715.748	-57.175	0.072	0.032
-714.733	722.923	-0.138	-0.371
-713.718	-182.032	-0.046	-0.001
-712.704	-84.680	-0.166	0.052
-711.689	61.830	-0.136	0.137
-710.675	-200.000	0.016	-0.177
-709.660	-158.833	-0.258	0.015
-708.645	291.246	-0.136	-0.249
-707.631	-122.503	-0.206	0.034
-706.616	-200.000	0.060	-0.512
-705.602	-3.158	-0.090	0.063
-704.587	-79.459	0.312	-0.106
-703.572	272.555	-0.184	-0.327
-702.558	8.569	0.203	-0.153
-701.543	-100.483	0.070	0.018
-700.529	-135.897	-0.243	-0.029
-699.514	-26.733	0.033	-0.019
-698.499	796.065	-0.111	-0.308
-697.485	433.468	0.163	-0.356
-696.470	144.026	0.093	-0.124
-695.456	759.558	-0.074	0.201
-694.441	20.825	0.210	0.171
-693.426	-200.000	0.021	0.221
-692.412	238.025	0.174	-0.291
-691.397	17.498	-0.111	-0.089
-690.383	-200.000	0.004	-0.502
-689.368	-47.189	-0.089	-0.044
-688.354	136.119	0.078	0.102
-687.339	359.717	0.102	0.205
-686.324	17.535	-0.369	0.295
-685.310	-92.760	-0.201	0.057
-684.295	-94.421	-0.033	0.009
-683.281	-130.420	-0.399	-0.054
-682.266	800.000	-0.041	-0.175
-681.251	87.746	-0.180	-0.201
-680.237	2.276	0.142	0.103
-679.222	413.144	-0.094	-0.202
-678.208	-59.411	0.199	0.086
-677.193	-200.000	-0.023	-0.331
-676.178	276.800	-0.089	0.158
-675.164	-200.000	0.055	-0.270
-674.149	-200.000	-0.012	0.320
-673.135	153.309	-0.083	0.115
-672.120	1.454	-0.274	-0.198
-671.105	67.112	0.178	0.182
-670.091	144.241	0.264	0.354
-669.076	-200.000	-0.007	0.268
-668.062	-93.724	0.221	0.061
-667.047	-59.347	-0.195	-0.084
-666.032	800.000	-0.051	-0.166
-665.018	-200.000	-0.036	0.250
-664.003	-145.892	0.250	-0.022
-662.989	138.549	-0.052	-0.068
-661.974	374.301	0.028	0.058
-660.959	-15.093	-0.147	0.095
-659.945	328.635	-0.091	-0.176
-658.930	-65.775	0.056	0.023
-657.916	240.274	0.017	-0.028
-656.901	-24.375	0.119	0.071
-655.886	-29.519	-0.127	0.073
-654.872	-142.922	0.181	0.018
-653.857	800.000	0.028	-0.108
-652.843	251.527	-0.171	0.292
-651.828	79.453	-0.104	-0.112
-650.814	13.897	0.166	-0.130
-649.799	419.164	-0.140	-0.300
-648.784	-94.542	-0.086	0.024
-647.770	436.375	0.047	-0.103
-646.755	-69.963	-0.042	-0.016
-645.741	-115.757	-0.323	0.061
-644.726	800.000	-0.059	0.197
-643.711	-200.000	-0.020	0.301
-642.697	195.082	-0.284	0.433
-641.682	-120.699	-0.146	-0.025
-640.668	306.133	-0.128	-0.239
-639.653	18.580	-0.336	-0.269
-638.638	-200.000	-0.019	0.153
-637.624	592.898	-0.107	0.266
-636.609	115.022	-0.131	-0.160
-635.595	-54.747	-0.138	0.062
-634.580	70.874	0.231	0.240
-633.565	75.656	0.167	0.177
-632.551	-143.973	-0.500	-0.047
-631.536	22.843	0.066	-0.054
-630.522	-121.127	-0.313	0.053
-629.507	-116.872	-0.280	0.051
-628.492	800.000	-0.017	0.058
-627.478	-24.981	0.143	0.085
-626.463	-65.849	-0.138	0.055
-625.449	-32.132	-0.290	-0.163
-624.434	-200.000	-0.078	-0.414
-623.419	149.083	0.055	-0.075
-622.405	463.958	-0.103	0.232
-621.390	69.041	-0.085	0.087
-620.376	-44.298	0.080	-0.040
-619.361	200.505	0.185	-0.285
-618.346	331.468	-0.120	-0.232
-617.332	14.864	0.246	0.193
-616.317	108.707	-0.079	0.094
-615.303	24.751	0.270	-0.224
-614.288	36.415	-0.089	0.079
-613.273	17.284	-0.018	-0.014
-612.259	102.418	-0.161	-0.188
-611.244	-200.000	-0.006	-0.029
-610.230	5.554	0.145	-0.107
-609.215	-122.069	-0.156	0.026
-608.201	-200.000	0.001	0.007
-607.186	-149.111	-0.135	-0.011
-606.171	-154.188	0.085	0.006
-605.157	-27.473	0.299	-0.174
-604.142	-200.000	0.008	0.046
-603.128	212.188	-0.133	0.210
-602.113	536.140	0.060	-0.143
-601.098	38.806	0.055	0.049
-600.084	-61.650	-0.325	-0.136
-599.069	-200.000	-0.056	-0.279
-598.055	65.804	0.248	0.252
-597.040	800.000	-0.026	-0.097
-596.025	-200.000	-0.004	0.203
-595.011	137.698	-0.014	-0.018
-593.996	-67.807	-0.323	-0.126
-592.982	16.930	0.296	-0.235
-591.967	-200.000	-0.008	0.092
-590.952	9.103	0.090	-0.068
-589.938	-138.327	-0.320	-0.035
-588.923	270.833	0.112	0.198
-587.909	800.000	0.142	0.448
-586.894	-91.065	-0.412	0.119
-585.879	-125.864	-0.061	0.009
-584.865	152.566	0.055	-0.075
-583.850	-50.738	0.099	-0.047
-582.836	-200.000	-0.016	-0.191
-581.821	-30.465	0.180	-0.102
-580.806	-74.135	-0.065	-0.023
-579.792	-200.000	0.024	-0.416
-578.777	-62.416	0.208	-0.086
-577.763	-200.000	0.007	-0.305
-576.748	800.000	0.039	0.131
-575.733	29.983	0.214	0.182
-574.719	-159.245	-0.430	-0.024
-573.704	-59.406	0.074	-0.032
-572.690	161.196	0.150	0.210
-571.675	-200.000	-0.019	-0.337
-570.661	800.000	-0.034	0.100
-569.646	-200.000	0.013	-0.339
-568.631	-200.000	0.027	-0.140
-567.617	-200.000	0.030	-0.146
-566.602	14.823	0.025	-0.019
-565.588	46.176	-0.267	-0.248
-564.573	800.000	-0.058	0.224
-563.558	-200.000	-0.023	0.180
-562.544	16.979	-0.307	0.243
-561.529	-106.781	0.197	-0.044
-560.515	-200.000	0.018	-0.181
-559.500	31.933	-0.062	-0.054
-558.485	800.000	-0.111	-0.413
-557.471	282.290	0.081	-0.145
-556.456	793.720	-0.015	0.040
-555.442	-200.000	-0.015	-0.123
-554.427	42.428	-0.095	-0.087
-553.412	-200.000	-0.042	0.477
-552.398	-18.833	0.054	-0.033
-551.383	-200.000	-0.062	-0.439
-550.369	69.083	0.072	-0.074
-549.354	19.225	0.105	0.085
-548.339	195.606	0.047	0.072
-547.325	-21.519	-0.239	0.146
-546.310	-145.987	0.137	0.012
-545.296	-99.945	0.254	-0.063
-544.281	-3.881	-0.126	-0.087
-543.266	-106.539	0.207	-0.046
-542.252	800.000	-0.028	-0.110
-541.237	-200.000	-0.027	-0.118
-540.223	354.938	0.182	-0.362
-539.208	-169.135	0.076	0.003
-538.193	223.187	0.175	0.281
-537.179	-92.374	0.226	0.063
-536.164	-39.907	-0.304	0.159
-535.150	-40.883	0.195	0.101
-534.135	-200.000	0.012	0.096
-533.121	166.474	-0.045	0.063
-532.106	51.859	-0.198	-0.188
-531.091	-82.470	0.002	-0.001
-530.077	245.109	0.150	0.252
-529.062	-200.000	0.002	0.153
-528.048	800.000	-0.079	-0.341
-527.033	176.868	0.172	0.250
-526.018	-68.137	0.123	-0.048
-525.004	-69.914	0.134	0.051
-523.989	-90.303	0.068	-0.020
-522.975	9.146	-0.168	-0.127
-521.960	118.097	0.153	-0.188
-520.945	-25.511	-0.313	-0.185
-519.931	221.764	-0.041	0.066
-518.916	101.702	-0.068	0.079
-517.902	186.945	0.173	0.258
-516.887	325.096	-0.039	0.074
-515.872	285.427	-0.117	0.211
-514.858	-49.821	-0.130	-0.062
-513.843	-200.000	-0.022	-0.196
-512.829	-200.000	0.090	0.442
-511.814	-143.933	-0.393	-0.037
-510.799	278.255	-0.096	-0.171
-509.785	-200.000	-0.048	0.277
-508.770	95.749	0.111	0.127
-507.756	-8.209	-0.050	0.034
-506.741	-200.000	-0.013	-0.146
-505.726	-200.000	0.017	-0.086
-504.712	-97.487	0.114	0.030
-503.697	-200.000	0.001	-0.029
-502.683	-64.825	-0.183	0.074
-501.668	77.116	0.248	-0.264
-500.653	143.777	0.135	0.179
-499.639	568.735	0.096	0.233
-498.624	-97.902	0.237	0.061
-497.610	-17.887	-0.301	-0.188
-496.595	193.272	-0.161	0.244
-495.581	574.157	0.052	0.128
-494.566	-38.667	-0.247	-0.130
-493.551	-200.000	-0.003	-0.149
-492.537	270.165	0.033	-0.059
-491.522	126.194	0.124	-0.157
-490.508	-72.124	0.215	-0.079
-489.493	41.469	0.022	-0.020
-488.478	-91.291	-0.184	-0.052
-487.464	-200.000	0.048	-0.215
-486.449	104.702	-0.011	-0.013
-485.435	-35.034	-0.080	0.043
-484.420	-146.686	0.070	0.006
-483.405	800.000	0.069	-0.274
-482.391	-200.000	-0.029	-0.165
-481.376	459.330	-0.106	0.235
-480.362	20.279	-0.120	0.097
-479.347	-94.577	0.059	-0.016
-478.332	-127.857	0.522	-0.075
-477.318	31.144	0.125	0.107
-476.303	32.055	0.159	0.136
-475.289	81.718	-0.026	-0.028
-474.274	-200.000	-0.017	-0.095
-473.259	86.893	-0.145	-0.160
-472.245	774.218	-0.070	0.191
-471.230	800.000	-0.032	0.100
-470.216	-28.326	0.081	0.047
-469.201	-146.545	0.041	0.004
-468.186	-0.946	-0.076	-0.054
-467.172	194.511	0.153	0.231
-466.157	-33.865	-0.183	0.101
-465.143	-118.530	0.322	-0.057
-464.128	800.000	0.042	-0.117
-463.113	504.505	0.033	-0.077
-462.099	-161.872	-0.496	0.025
-461.084	-57.872	-0.173	-0.075
-460.070	-191.019	-0.258	0.003
-459.055	-55.508	-0.193	-0.086
-458.040	-62.898	-0.195	-0.080
-457.026	800.000	-0.038	-0.140
-456.011	567.586	0.063	-0.154
-454.997	-200.000	-0.014	0.418
-453.982	88.485	0.168	0.186
-452.968	-42.476	-0.304	0.154
-451.953	-21.163	0.162	-0.099
-450.938	-142.776	-0.142	0.014
-449.924	-100.452	0.258	-0.064
-448.909	-14.736	-0.167	0.107
-447.895	-17.398	0.302	-0.190
-446.880	609.439	0.072	0.180
-445.865	675.791	-0.127	0.329
-444.851	194.871	-0.074	0.112
-443.836	-57.345	0.168	0.074
-442.822	226.030	-0.165	0.267
-441.807	-200.000	-0.002	0.218
-440.792	-1.991	0.432	0.302
-439.778	232.593	0.011	0.018
-438.763	295.955	0.097	0.178
-437.749	-200.000	0.050	-0.304
-436.734	-141.097	0.309	0.031
-435.719	90.824	0.211	-0.235
-434.705	800.000	0.057	-0.193
-433.690	800.000	0.024	0.078
-432.676	-151.735	0.028	0.002
-431.661	173.553	-0.018	-0.026
-430.646	71.531	0.051	-0.053
-429.632	-165.197	0.317	0.014
-428.617	-109.691	0.204	0.043
-427.603	18.610	-0.105	0.083
-426.588	800.000	0.108	-0.312
-425.573	226.208	-0.155	-0.250
-424.559	292.144	0.049	0.088
-423.544	426.618	-0.043	-0.093
-422.530	-17.414	0.260	-0.163
-421.515	-188.535	0.108	0.001
-420.500	567.740	-0.124	0.300
-419.486	-53.557	-0.094	-0.043
-418.471	-200.000	-0.089	-0.539
-417.457	-200.000	0.007	-0.173
-416.442	63.310	-0.089	0.089
-415.428	14.793	-0.093	0.072
-414.413	-200.000	-0.014	-0.366
-413.398	800.000	0.044	-0.150
-412.384	-170.262	-0.109	0.004
-411.369	120.937	-0.214	0.265
-410.355	-4.042	-0.058	-0.040
-409.340	-52.886	0.163	-0.075
-408.325	800.000	0.070	0.244
-407.311	-108.284	-0.238	-0.051
-406.296	-64.739	0.131	-0.053
-405.282	62.008	0.173	-0.172
-404.267	-80.337	0.329	0.109
-403.252	-167.647	-0.252	0.010
-402.238	565.659	0.045	0.107
-401.223	205.383	-0.124	-0.192
-400.209	800.000	-0.038	0.148
-399.194	216.321	0.178	0.282
-398.179	162.859	-0.108	0.150
-397.165	-106.955	-0.271	0.060
-396.150	383.969	0.240	0.490
-395.136	147.024	-0.067	0.089
-394.121	13.725	-0.051	-0.039
-393.106	-53.954	0.325	-0.147
-392.092	486.881	-0.162	-0.367
-391.077	146.853	-0.159	0.212
-390.063	-85.983	0.131	0.040
-389.048	800.000	0.125	0.418
-388.033	800.000	0.066	-0.225
-387.019	36.699	0.199	0.175
-386.004	-200.000	0.003	0.230
-384.990	-98.763	0.221	-0.056
-383.975	34.344	-0.234	-0.203
-382.960	429.010	0.072	-0.155
-381.946	-115.740	0.176	0.033
-380.931	800.000	0.081	0.229
-379.917	-77.931	0.170	-0.058
-378.902	126.325	0.245	-0.308
-377.888	800.000	-0.130	0.428
-376.873	194.305	-0.046	-0.070
-375.858	-88.802	-0.145	0.043
-374.844	21.353	-0.157	-0.127
-373.829	-120.103	0.229	0.039
-372.815	-200.000	0.018	-0.254
-371.800	-22.418	0.473	-0.284
-370.785	57.947	0.240	-0.234
-369.771	354.107	-0.095	-0.187
-368.756	-200.000	-0.024	-0.183
-367.742	550.246	0.043	0.103
-366.727	212.487	-0.105	-0.165
-365.712	-200.000	-0.013	-0.094
-364.698	427.512	0.076	0.162
-363.683	-62.791	-0.386	0.159
-362.669	177.603	-0.112	0.162
-361.654	-108.891	0.036	0.008
-360.639	273.126	0.093	0.163
-359.625	-60.743	0.223	-0.094
-358.610	-200.000	-0.025	0.311
-357.596	-200.000	0.016	-0.152
-356.581	-112.454	-0.225	-0.045
-355.566	-34.324	0.605	-0.329
-354.552	-11.254	0.135	0.089
-353.537	34.720	-0.105	-0.092
-352.523	558.626	0.137	0.327
-351.508	-200.000	0.242	0.000
-350.493	7.730	-0.051	-0.038
-349.479	-108.050	0.094	0.020
-348.464	-32.548	0.084	-0.046
-347.450	23.240	-0.128	-0.105
-346.435	672.363	-0.068	0.175
-345.420	13.660	0.235	-0.181
-344.406	213.540	-0.147	0.230
-343.391	1.145	-0.225	-0.160
-342.377	11.022	-0.176	0.134
-341.362	195.546	0.102	-0.154
-340.348	-115.161	-0.310	-0.058
-339.333	55.388	-0.287	-0.276
-338.318	374.671	-0.055	0.110
-337.304	290.890	-0.144	0.259
-336.289	-200.000	0.011	-0.236
-335.275	-59.787	-0.243	-0.103
-334.260	-88.266	0.244	0.073
-333.245	-8.917	-0.132	0.088
-332.231	-200.000	-0.003	0.190
-331.216	59.903	-0.239	0.234
-330.202	506.539	-0.030	-0.069
-329.187	67.662	-0.263	-0.266
-328.172	-92.722	-0.066	0.018
-327.158	714.194	-0.097	0.256
-326.143	-51.830	-0.059	-0.027
-325.129	47.772	0.107	0.099
-324.114	129.723	-0.291	-0.369
-323.099	-89.214	0.414	-0.121
-322.085	800.000	-0.078	-0.316
-321.070	-200.000	-0.005	0.188
-320.056	116.956	0.145	0.176
-319.041	101.567	-0.112	0.130
-318.026	22.266	0.135	-0.109
-317.012	89.660	0.198	-0.219
-315.997	-200.000	0.044	-0.339
-314.983	-48.931	0.244	0.116
-313.968	-200.000	0.015	-0.091
-312.953	-34.039	0.248	0.135
-311.939	111.272	-0.067	0.081
-310.924	-200.000	0.017	0.164
-309.910	39.730	0.103	-0.091
-308.895	-45.319	0.160	0.078
-307.880	-200.000	0.045	0.235
-306.866	-35.692	-0.409	-0.220
-305.851	68.714	0.206	0.209
-304.837	800.000	-0.046	-0.181
-303.822	18.981	0.351	0.279
-302.807	23.106	-0.161	0.130
-301.793	-108.516	0.401	0.085
-300.778	-32.698	0.237	-0.130
-299.764	98.871	-0.006	-0.007
-298.749	399.231	0.175	0.363
-297.735	-61.835	0.161	0.067
-296.720	-30.086	0.223	0.125
-295.705	271.926	0.097	-0.169
-294.691	31.674	-0.106	-0.090
-293.676	-116.060	-0.032	-0.006
-292.662	92.616	-0.231	0.258
-291.647	423.574	0.089	-0.189
-290.632	510.526	-0.110	-0.253
-289.618	227.695	0.081	-0.130
-288.603	471.868	-0.139	0.310
-287.589	209.703	-0.072	0.112
-286.574	-14.540	-0.222	0.141
-285.559	-162.640	-0.339	0.016
-284.545	800.000	-0.079	0.269
-283.530	-200.000	0.056	0.320
-282.516	265.914	0.062	0.106
-281.501	139.003	0.100	-0.130
-280.486	-200.000	-0.084	-0.470
-279.472	-120.509	-0.315	0.053
-278.457	263.518	0.098	0.169
-277.443	89.513	0.129	0.142
-276.428	-7.733	0.063	0.042
-275.413	175.013	0.058	-0.083
-274.399	-28.691	-0.208	-0.119
-273.384	199.325	-0.115	-0.174
-272.370	559.437	-0.067	-0.161
-271.355	-34.158	0.126	0.069
-270.340	19.324	0.168	-0.133
-269.326	-167.148	-0.395	-0.016
-268.311	140.780	0.159	0.207
-267.297	-85.660	0.435	0.134
-266.282	605.292	0.112	0.275
-265.267	100.232	-0.050	-0.057
-264.253	75.086	-0.149	0.156
-263.238	-200.000	0.006	-0.163
-262.224	-158.498	0.498	0.028
-261.209	513.722	-0.073	0.169
-260.195	-200.000	0.018	0.260
-259.180	-57.981	0.173	-0.075
-258.165	-141.411	0.253	-0.025
-257.151	-130.068	0.224	-0.030
-256.136	-52.945	-0.288	-0.131
-255.122	800.000	0.068	-0.259
-254.107	382.996	-0.047	-0.095
-253.092	-200.000	-0.008	0.260
-252.078	117.908	0.196	0.239
-251.063	126.608	-0.209	0.261
-250.049	-131.195	0.371	-0.049
-249.034	-200.000	-0.023	0.136
-248.019	-200.000	-0.030	0.207
-247.005	-42.696	0.159	0.080
-245.990	28.369	-0.185	-0.154
-244.976	-3.971	0.185	-0.127
-243.961	655.239	0.045	-0.113
-242.946	300.984	0.022	-0.041
-241.932	-112.712	-0.136	-0.027
-240.917	30.268	0.064	0.054
-239.903	-200.000	0.014	0.193
-238.888	800.000	0.037	-0.141
-237.873	-200.000	0.040	-0.280
-236.859	800.000	0.122	-0.426
-235.844	-200.000	-0.005	-0.100
-234.830	-200.000	-0.028	0.239
-233.815	800.000	-0.035	0.119
-232.800	109.444	0.026	0.031
-231.786	96.555	-0.178	-0.201
-230.771	441.653	0.042	0.091
-229.757	8.517	-0.249	0.185
-228.742	-200.000	0.010	-0.101
-227.727	268.348	-0.160	-0.277
-226.713	-72.217	-0.213	-0.078
-225.698	-12.328	0.179	-0.115
-224.684	800.000	-0.032	0.104
-223.669	302.652	-0.216	0.395
-222.655	29.601	0.177	0.149
-221.640	480.442	-0.073	0.163
-220.625	57.789	0.247	0.239
-219.611	60.094	-0.138	0.135
-218.596	119.260	-0.046	0.057
-217.582	-110.699	-0.202	-0.041
-216.567	-0.324	-0.412	-0.289
-215.552	-152.172	-0.199	-0.014
-214.538	800.000	0.065	0.199
-213.523	-200.000	-0.045	0.215
-212.509	-99.214	0.086	-0.021
-211.494	74.943	0.074	-0.077
-210.479	381.075	-0.091	0.184
-209.465	-114.587	0.195	-0.037
-208.450	-200.000	0.014	-0.295
-207.436	304.303	-0.163	0.298
-206.421	132.225	-0.083	0.105
-205.406	112.442	0.069	-0.083
-204.392	-200.000	-0.011	-0.064
-203.377	-31.003	-0.202	0.113
-202.363	-200.000	0.043	0.285
-201.348	800.000	0.041	-0.127
-200.333	-200.000	0.013	0.256
-199.319	224.735	0.131	0.210
-198.304	800.000	-0.148	-0.477
-197.290	-71.024	-0.159	0.059
-196.275	335.789	0.026	-0.050
-195.260	56.993	0.202	0.194
-194.246	101.858	0.060	0.069
-193.231	22.314	0.184	0.148
-192.217	320.397	-0.016	0.030
-191.202	-200.000	0.016	-0.275
-190.187	-200.000	0.018	0.287
-189.173	138.094	-0.183	-0.237
-188.158	-37.512	-0.047	0.024
-187.144	-39.063	-0.299	-0.155
-186.129	-116.786	-0.230	-0.042
-185.114	-1.218	0.138	0.096
-184.100	95.328	0.221	-0.248
-183.085	800.000	-0.151	-0.436
-182.071	-47.618	0.094	-0.045
-181.056	-153.342	0.283	0.019
-180.042	-200.000	0.028	-0.166
-179.027	800.000	-0.068	-0.252
-178.012	47.271	-0.158	0.145
-176.998	-115.280	0.161	0.030
-175.983	-131.251	-0.285	-0.037
-174.969	-75.901	0.082	0.029
-173.954	-131.027	-0.156	0.020
-172.939	-200.000	0.006	0.114
-171.925	410.881	0.172	-0.360
-170.910	12.288	-0.171	0.130
-169.896	-147.244	0.265	-0.022
-168.881	-200.000	-0.020	0.091
-167.866	-200.000	-0.001	0.101
-166.852	800.000	-0.094	-0.323
-165.837	-35.436	-0.171	-0.091
-164.823	134.281	-0.051	-0.065
-163.808	39.065	-0.230	0.202
-162.793	-85.298	0.063	-0.019
-161.779	-200.000	0.063	-0.303
-160.764	-6.895	0.209	0.140
-159.750	52.625	0.045	0.043
-158.735	-200.000	-0.024	0.156
-157.720	-17.666	0.154	0.095
-156.706	44.181	0.194	-0.175
-155.691	321.113	0.025	-0.046
-154.677	1.414	-0.157	-0.111
-153.662	48.536	-0.176	-0.162
-152.647	-139.584	0.104	0.011
-151.633	800.000	-0.074	0.225
-150.618	2.568	-0.235	-0.168
-149.604	800.000	-0.039	-0.145
-148.589	-53.608	0.255	0.115
-147.574	800.000	0.052	-0.170
-146.560	-200.000	-0.040	0.222
-145.545	-158.450	-0.133	-0.008
-144.531	-131.024	-0.295	-0.039
-143.516	111.928	-0.076	0.090
-142.502	-8.237	0.357	-0.236
-141.487	135.577	0.151	-0.193
-140.472	-200.000	0.025	0.180
-139.458	-21.359	0.146	-0.088
-138.443	-174.283	-0.240	-0.007
-137.429	459.925	0.095	0.209
-136.414	3.529	-0.215	0.154
-135.399	-200.000	-0.075	-0.329
-134.385	520.459	-0.055	0.126
-133.370	11.570	0.085	-0.064
-132.356	5.115	0.125	0.090
-131.341	-17.453	0.095	0.059
-130.326	-28.848	0.128	-0.072
-129.312	-126.511	0.278	-0.041
-128.297	44.680	-0.035	0.032
-127.283	-28.364	0.114	0.065
-126.268	343.884	-0.111	-0.214
-125.253	-200.000	-0.060	0.283
-124.239	156.509	-0.168	0.228
-123.224	-74.165	-0.370	0.132
-122.210	159.227	0.061	0.083
-121.195	-200.000	0.067	0.492
-120.180	-136.215	0.213	0.024
-119.166	-200.000	0.018	0.148
-118.151	-200.000	0.018	0.110
-117.137	-18.730	-0.178	-0.109
-116.122	29.270	-0.140	-0.117
-115.107	-200.000	-0.022	-0.341
-114.093	800.000	0.105	0.324
-113.078	357.164	0.024	-0.047
-112.064	-35.983	-0.381	-0.202
-111.049	800.000	0.068	0.272
-110.034	78.322	-0.202	0.212
-109.020	-26.702	-0.100	0.058
-108.005	71.056	0.272	0.277
-106.991	-38.611	0.205	-0.106
-105.976	36.110	-0.271	0.234
-104.962	800.000	0.058	0.246
-103.947	755.897	0.063	-0.167
-102.932	329.028	0.146	0.275
-101.918	506.404	0.096	-0.220
-100.903	708.149	0.018	0.046
-99.889	368.493	0.060	0.120
-98.874	-200.000	-0.079	-0.452
-97.859	-28.821	-0.165	-0.093
-96.845	5.448	0.429	0.311
-95.830	275.736	-0.127	-0.221
-94.816	75.832	0.297	0.308
-93.801	-28.089	0.293	0.166
-92.786	800.000	-0.102	0.283
-91.772	96.345	0.067	-0.075
-90.757	44.657	0.239	0.216
-89.743	-158.475	0.104	0.006
-88.728	-164.257	-0.157	-0.007
-87.713	-106.880	-0.164	-0.036
-86.699	-84.149	-0.077	-0.024
-85.684	-153.800	0.101	0.007
-84.670	-200.000	-0.042	-0.275
-83.655	79.308	0.156	0.164
-82.640	90.549	0.313	0.344
-81.626	175.401	0.160	0.228
-80.611	-17.089	-0.143	-0.089
-79.597	-56.705	0.288	-0.125
-78.582	50.789	-0.118	0.109
-77.567	38.116	-0.334	0.291
-76.553	-27.047	0.233	-0.134
-75.538	-200.000	-0.002	0.069
-74.524	76.624	-0.167	0.174
-73.509	800.000	0.092	0.355
-72.494	256.758	0.142	0.239
-71.480	-166.874	-0.069	0.003
-70.465	706.096	0.040	-0.104
-69.451	507.775	-0.044	0.100
-68.436	-128.723	0.182	0.025
-67.422	-200.000	-0.046	0.221
-66.407	74.047	0.213	-0.220
-65.392	306.303	0.136	-0.249
-64.378	-123.634	0.292	-0.045
-63.363	56.883	-0.068	-0.065
-62.349	-28.197	0.178	0.101
-61.334	69.847	-1.079	-1.092
-60.319	-200.000	0.109	0.930
-59.305	502.915	-0.433	-0.982
-58.290	200.523	0.843	1.271
-57.276	800.000	0.477	1.469
-56.261	-200.000	108.434	590.570
-55.246	445.968	1481.555	3193.510
-54.232	146.215	2672.231	3517.247
-53.217	99.566	2288.682	2597.638
-52.203	38.525	1899.864	1661.338
-51.188	32.701	1688.636	1432.483
-50.173	30.113	1645.752	1376.853
-49.159	49.175	1698.745	1565.525
-48.144	49.385	1715.336	1582.335
-47.130	32.284	1672.468	1415.399
-46.115	29.598	1658.251	1383.234
-45.100	29.404	1653.269	1377.571
-44.086	29.443	1649.937	1375.029
-43.071	29.405	1647.393	1372.574
-42.057	29.373	1644.744	1370.077
-41.042	29.417	1642.901	1368.809
-40.027	29.415	1641.222	1367.342
-39.013	29.353	1639.343	1365.267
-37.998	29.243	1638.213	1363.453
-36.984	29.396	1636.737	1363.308
-35.969	29.482	1634.927	1362.375
-34.954	29.521	1633.492	1361.412
-33.940	29.512	1631.984	1360.037
-32.925	29.488	1629.965	1358.129
-31.911	29.493	1628.597	1356.970
-30.896	29.571	1626.242	1355.527
-29.881	29.483	1625.028	1353.818
-28.867	29.501	1623.002	1352.208
-27.852	29.496	1621.834	1351.139
-26.838	29.486	1620.473	1349.879
-25.823	29.452	1619.387	1348.674
-24.809	29.563	1617.296	1347.690
-23.794	29.559	1615.864	1346.414
-22.779	29.513	1614.676	1345.037
-21.765	29.510	1612.957	1343.524
-20.750	29.452	1611.235	1341.617
-19.736	29.483	1609.795	1340.591
-18.721	29.507	1608.945	1340.003
-17.706	29.615	1606.932	1339.057
-16.692	29.594	1605.330	1337.518
-15.677	29.575	1603.988	1336.212
-14.663	29.540	1602.581	1334.729
-13.648	29.499	1601.394	1333.396
-12.633	29.492	1600.180	1332.279
-11.619	29.614	1597.947	1331.248
-10.604	29.527	1596.860	1329.658
-9.590	29.500	1596.100	1328.780
-8.575	29.593	1594.627	1328.167
-7.560	29.543	1593.051	1326.449
-6.546	29.612	1592.029	1326.036
-5.531	29.483	1591.691	1324.780
-4.517	29.429	1590.059	1322.981
-3.502	29.571	1588.293	1322.472
-2.487	29.675	1586.679	1321.821
-1.473	29.379	1575.269	1310.162
-0.458	26.612	1556.513	1275.063
0.556	21.598	1557.637	1245.504
1.571	19.459	1581.871	1249.299
2.586	19.171	1594.387	1256.969
3.600	17.607	1540.790	1203.567
4.615	9.803	1431.088	1066.380
5.629	1.872	1365.847	967.490
6.644	0.291	1357.727	951.676
7.659	0.193	1356.349	950.006
8.673	0.045	1355.603	948.465
9.688	-0.089	1353.933	946.368
10.702	-0.148	1350.783	943.715
11.717	3.731	1356.380	971.976
12.731	12.334	1369.908	1036.055
13.746	17.512	1376.441	1073.642
14.761	17.397	1374.794	1071.536
15.775	16.277	1372.193	1062.367
16.790	15.203	1369.809	1053.679
17.804	14.482	1367.270	1047.105
18.819	14.045	1366.378	1043.586
19.834	13.904	1364.684	1041.316
20.848	13.631	1363.272	1038.434
21.863	13.291	1362.557	1035.674
22.877	13.209	1361.096	1033.958
23.892	13.142	1360.306	1032.847
24.907	13.207	1359.429	1032.492
25.921	13.191	1358.200	1031.369
26.936	13.195	1357.631	1030.873
27.950	13.209	1356.964	1030.360
28.965	13.326	1355.643	1029.998
29.980	13.329	1355.146	1029.543
30.994	13.465	1353.722	1029.218
32.009	13.506	1352.958	1028.800
33.023	13.396	1352.516	1027.692
34.038	13.360	1351.623	1026.696
35.053	13.373	1349.948	1025.413
36.067	13.234	1349.087	1023.812
37.082	13.312	1347.913	1023.314
38.096	13.198	1347.574	1022.255
39.111	13.331	1346.731	1022.350
40.126	13.230	1345.869	1020.983
41.140	13.272	1344.852	1020.377
42.155	13.121	1344.694	1019.237
43.169	13.155	1343.862	1018.724
44.184	13.173	1344.178	1018.985
45.199	13.141	1343.594	1018.256
46.213	13.229	1342.980	1018.244
47.228	13.351	1341.597	1017.854
48.242	13.216	1340.685	1016.240
49.257	13.312	1338.986	1015.455
50.271	13.307	1337.496	1014.206
51.286	13.308	1336.188	1013.130
52.301	13.322	1335.113	1012.310
53.315	13.266	1333.955	1010.999
54.330	13.205	1333.261	1010.012
55.344	13.123	1332.099	1008.539
56.359	13.172	1330.983	1007.907
57.374	13.183	1330.101	1007.213
58.388	13.157	1329.104	1006.212
59.403	13.028	1329.049	1005.296
60.417	13.153	1327.778	1005.007
61.432	13.088	1327.231	1004.111
62.447	13.103	1326.102	1003.253
63.461	13.129	1324.980	1002.475
64.476	13.000	1324.190	1001.008
65.490	13.055	1323.140	1000.461
66.505	13.031	1320.984	998.592
67.520	13.090	1320.363	998.396
68.534	13.079	1318.989	997.199
69.549	13.148	1317.870	996.679
70.563	13.139	1317.082	995.944
71.578	12.984	1316.127	994.200
72.593	12.959	1315.169	993.240
73.607	13.036	1314.287	992.945
74.622	13.014	1312.906	991.682
75.636	13.108	1312.495	991.850
76.651	13.037	1311.845	990.844
77.666	13.022	1311.336	990.283
78.680	13.056	1310.560	989.812
79.695	12.976	1309.967	988.797
80.709	13.109	1308.814	988.636
81.724	13.251	1307.785	988.620
82.739	13.140	1307.428	987.602
83.753	13.267	1306.363	987.467
84.768	13.293	1305.365	986.779
85.782	13.312	1304.140	985.879
86.797	13.344	1302.748	984.930
87.812	13.325	1301.058	983.451
88.826	13.251	1300.702	982.656
89.841	13.335	1299.434	982.113
90.855	13.271	1298.709	981.099
91.870	13.297	1297.557	980.291
92.884	13.311	1296.785	979.706
93.899	13.325	1295.983	979.094
94.914	13.351	1295.475	978.781
95.928	13.408	1294.747	978.482
96.943	13.399	1293.394	977.317
97.957	13.270	1292.587	975.861
98.972	13.456	1291.502	976.055
99.987	13.351	1290.759	974.788
101.001	13.381	1289.598	974.000
102.016	13.424	1288.447	973.296
103.030	13.379	1287.677	972.364
104.045	13.346	1287.047	971.606
105.060	13.300	1285.477	970.067
106.074	13.232	1284.052	968.507
107.089	13.209	1282.687	967.257
108.103	13.192	1281.691	966.324
109.118	13.162	1280.117	964.875
110.133	13.182	1278.523	963.704
111.147	13.179	1277.823	963.072
112.162	13.105	1276.803	961.789
113.176	13.164	1275.460	961.035
114.191	13.263	1274.420	960.742
115.206	13.238	1273.501	959.817
116.220	13.127	1272.362	958.230
117.235	13.108	1271.469	957.365
118.249	13.284	1269.586	956.883
119.264	13.237	1268.928	956.031
120.279	13.148	1267.921	954.672
121.293	13.132	1267.060	953.846
122.308	13.169	1265.844	953.060
123.322	13.125	1264.798	951.936
124.337	13.129	1263.841	951.151
125.352	13.095	1262.698	950.010
126.366	13.113	1261.645	949.241
127.381	13.096	1260.609	948.281
128.395	13.205	1259.462	947.957
129.410	13.150	1258.535	946.861
130.424	13.184	1258.126	946.665
131.439	13.284	1256.709	946.089
132.454	13.173	1255.852	944.722
133.468	13.156	1254.986	943.892
134.483	13.160	1254.155	943.205
135.497	13.216	1253.128	942.666
136.512	13.246	1251.572	941.585
137.527	13.285	1250.463	940.889
138.541	13.180	1249.269	939.310
139.556	13.345	1247.570	938.889
140.570	13.261	1246.794	937.742
141.585	13.320	1245.482	937.010
142.600	13.366	1244.106	936.153
143.614	13.357	1243.975	935.921
144.629	13.385	1242.240	934.687
145.643	13.423	1241.406	934.194
146.658	13.425	1239.715	932.849
147.673	13.305	1238.820	931.414
148.687	13.279	1237.604	930.274
149.702	13.227	1236.369	928.972
150.716	13.316	1234.727	928.154
151.731	13.248	1233.773	926.975
152.746	13.313	1232.833	926.550
153.760	13.352	1231.763	925.882
154.775	13.382	1230.341	924.900
155.789	13.443	1229.580	924.587
156.804	13.446	1228.412	923.643
157.819	13.489	1227.301	922.967
158.833	13.599	1226.043	922.549
159.848	13.640	1225.176	922.042
160.862	13.534	1224.773	921.071
161.877	13.439	1223.607	919.586
162.892	13.610	1222.400	919.545
163.906	13.467	1221.450	917.956
164.921	13.474	1220.519	917.213
165.935	13.566	1219.266	916.697
166.950	13.598	1219.108	916.675
167.964	13.605	1218.192	915.946
168.979	13.548	1217.342	914.911
169.994	13.533	1216.766	914.315
171.008	13.505	1215.958	913.473
172.023	13.628	1215.204	913.505
173.037	13.616	1214.738	913.008
174.052	13.610	1213.518	911.975
175.067	13.617	1212.300	911.016
176.081	13.479	1211.221	909.365
177.096	13.547	1210.253	908.932
178.110	13.535	1209.119	907.936
179.125	13.580	1208.036	907.288
180.140	13.678	1206.855	906.858
181.154	13.737	1205.772	906.282
182.169	13.660	1204.470	904.805
183.183	13.670	1203.518	904.064
184.198	13.820	1202.320	903.900
185.213	13.770	1200.840	902.439
186.227	13.759	1200.076	901.724
187.242	13.843	1199.228	901.466
188.256	13.926	1197.726	900.704
189.271	13.853	1197.302	899.911
190.286	13.820	1195.854	898.562
191.300	13.693	1194.829	897.029
192.315	13.549	1194.514	895.932
193.329	13.645	1193.864	895.883
194.344	13.601	1193.776	895.501
195.359	13.759	1192.812	895.555
196.373	13.769	1191.929	894.863
197.388	13.849	1191.429	894.841
198.402	13.961	1190.810	894.903
199.417	14.105	1190.173	895.120
200.432	13.977	1189.607	893.927
201.446	14.041	1188.996	893.729
202.461	14.069	1187.750	892.867
203.475	14.059	1186.916	892.107
204.490	14.076	1185.003	890.678
205.504	14.017	1184.041	889.560
206.519	13.981	1182.940	888.463
207.534	13.929	1181.769	887.228
208.548	13.982	1180.839	886.733
209.563	14.084	1180.073	886.625
210.577	14.103	1178.994	885.833
211.592	14.144	1178.365	885.501
212.607	14.076	1177.606	884.492
213.621	14.138	1176.713	884.074
214.636	14.040	1176.301	883.164
215.650	14.166	1174.786	882.616
216.665	14.149	1173.595	881.553
217.680	14.211	1172.719	881.145
218.694	14.200	1172.591	880.917
219.709	14.257	1171.253	880.132
220.723	14.231	1170.893	879.645
221.738	14.233	1170.278	879.117
222.753	14.345	1168.936	878.621
223.767	14.269	1168.682	877.953
224.782	14.357	1168.049	877.865
225.796	14.504	1167.154	877.888
226.811	14.434	1166.861	877.221
227.826	14.330	1166.162	876.070
228.840	14.382	1165.221	875.561
229.855	14.312	1164.348	874.458
230.869	14.403	1163.337	874.102
231.884	14.384	1162.683	873.430
232.899	14.280	1161.797	872.146
233.913	14.397	1161.253	872.270
234.928	14.257	1160.904	871.198
235.942	14.240	1159.867	870.254
236.957	14.335	1159.184	870.159
237.972	14.303	1158.314	869.262
238.986	14.414	1157.586	869.221
240.001	14.420	1157.258	868.926
241.015	14.335	1156.351	867.725
242.030	14.462	1155.404	867.600
243.045	14.443	1154.481	866.735
244.059	14.481	1153.678	866.249
245.074	14.581	1152.728	865.980
246.088	14.583	1151.917	865.305
247.103	14.567	1151.125	864.548
248.117	14.616	1150.628	864.352
249.132	14.598	1150.219	863.878
250.147	14.664	1149.510	863.610
251.161	14.696	1148.949	863.278
252.176	14.678	1148.467	862.746
253.190	14.831	1147.447	862.692
254.205	14.888	1146.524	862.214
255.220	14.962	1146.042	862.157
256.234	14.899	1145.504	861.353
257.249	14.918	1144.799	860.842
258.263	14.930	1144.136	860.329
259.278	14.907	1143.861	859.928
260.293	14.983	1142.781	859.433
261.307	14.890	1142.535	858.695
262.322	14.986	1141.621	858.424
263.336	14.951	1141.132	857.800
264.351	15.037	1140.545	857.724
265.366	14.999	1139.827	856.915
266.380	14.968	1139.263	856.253
267.395	15.001	1138.294	855.619
268.409	15.029	1137.357	854.984
269.424	14.996	1136.722	854.261
270.439	15.033	1136.666	854.333
271.453	15.108	1135.618	853.854
272.468	15.007	1134.812	852.657
273.482	14.994	1133.821	851.769
274.497	15.024	1133.524	851.624
275.512	15.003	1132.999	851.045
276.526	15.149	1131.777	850.793
277.541	15.118	1131.402	850.281
278.555	15.141	1130.797	849.866
279.570	15.166	1130.074	849.377
280.585	15.186	1129.063	848.640
281.599	15.237	1127.859	847.919
282.614	15.174	1127.238	847.061
283.628	15.185	1126.138	846.212
284.643	15.142	1125.103	845.142
285.657	15.217	1124.281	844.832
286.672	15.249	1123.326	844.200
287.687	15.336	1122.480	843.924
288.701	15.282	1121.833	843.095
289.716	15.295	1121.085	842.523
290.730	15.389	1120.641	842.587
291.745	15.251	1119.962	841.309
292.760	15.361	1119.366	841.340
293.774	15.352	1118.868	840.843
294.789	15.432	1118.099	840.592
295.803	15.362	1117.612	839.801
296.818	15.419	1116.715	839.340
297.833	15.367	1116.145	838.573
298.847	15.373	1115.371	837.949
299.862	15.501	1114.270	837.687
300.876	15.538	1113.549	837.256
301.891	15.598	1112.899	836.993
302.906	15.588	1112.359	836.461
303.920	15.527	1111.832	835.689
304.935	15.633	1110.836	835.392
305.949	15.693	1110.446	835.321
306.964	15.713	1109.625	834.731
307.979	15.734	1108.914	834.227
308.993	15.644	1108.153	833.132
310.008	15.715	1107.238	832.724
311.022	15.727	1106.491	832.148
312.037	15.852	1105.703	832.097
313.052	15.773	1104.833	830.980
314.066	15.567	1104.232	829.438
315.081	15.664	1103.234	829.095
316.095	15.658	1102.468	828.416
317.110	15.616	1102.265	827.981
318.125	15.586	1100.939	826.763
319.139	15.632	1100.358	826.481
320.154	15.732	1099.629	826.354
321.168	15.627	1099.110	825.374
322.183	15.665	1098.865	825.302
323.197	15.946	1097.638	825.685
324.212	15.688	1097.523	824.260
325.227	15.773	1097.063	824.260
326.241	15.741	1096.284	823.445
327.256	15.835	1095.146	822.977
328.270	15.887	1093.863	822.194
329.285	15.908	1093.553	821.991
330.300	15.777	1092.769	820.692
331.314	15.826	1091.426	819.847
332.329	15.800	1090.778	819.162
333.343	15.802	1089.994	818.509
334.358	15.852	1089.284	818.146
335.373	15.906	1088.551	817.786
336.387	15.876	1087.894	817.078
337.402	15.987	1086.961	816.843
338.416	16.001	1085.958	816.081
339.431	16.024	1085.456	815.746
340.446	16.118	1084.920	815.722
341.460	15.935	1084.494	814.448
342.475	16.107	1083.452	814.422
343.489	16.151	1082.496	813.845
344.504	16.121	1082.051	813.293
345.519	16.244	1080.826	812.895
346.533	16.290	1079.604	812.125
347.548	16.246	1079.540	811.792
348.562	16.184	1078.753	810.828
349.577	16.226	1077.969	810.373
350.592	16.082	1077.081	808.940
351.606	16.107	1076.535	808.578
352.621	16.117	1075.503	807.779
353.635	16.044	1075.487	807.349
354.650	16.262	1074.386	807.490
355.665	16.211	1073.325	806.381
356.679	16.163	1072.927	805.778
357.694	16.284	1072.685	806.105
358.708	16.340	1071.460	805.379
359.723	16.465	1070.926	805.504
360.738	16.433	1070.514	804.968
361.752	16.281	1069.914	803.724
362.767	16.352	1069.372	803.583
363.781	16.294	1069.405	803.262
364.796	16.366	1068.378	802.761
365.810	16.519	1067.777	802.963
366.825	16.411	1067.593	802.241
367.840	16.465	1066.330	801.478
368.854	16.538	1065.895	801.428
369.869	16.590	1065.363	801.202
370.883	16.599	1064.380	800.436
371.898	16.559	1063.819	799.754
372.913	16.546	1063.145	799.113
373.927	16.571	1062.866	798.953
374.942	16.562	1062.455	798.531
375.956	16.631	1061.951	798.405
376.971	16.555	1061.172	797.393
377.986	16.755	1060.470	797.732
379.000	16.651	1060.055	796.863
380.015	16.763	1059.614	796.985
381.029	16.867	1058.613	796.655
382.044	16.771	1058.218	795.832
383.059	16.788	1057.380	795.213
384.073	16.838	1056.302	794.566
385.088	16.788	1055.445	793.615
386.102	16.962	1054.454	793.616
387.117	16.865	1053.587	792.439
388.132	16.795	1052.675	791.357
389.146	16.712	1052.052	790.429
390.161	16.805	1051.386	790.296
391.175	16.787	1051.013	789.862
392.190	16.724	1050.682	789.248
393.205	16.923	1049.826	789.462
394.219	17.006	1048.315	788.639
395.234	16.979	1047.567	787.884
396.248	16.844	1046.797	786.607
397.263	16.800	1045.837	785.614
398.278	16.764	1045.373	785.027
399.292	16.788	1044.697	784.563
400.307	16.763	1043.763	783.675
401.321	16.823	1043.168	783.439
402.336	16.853	1042.515	783.016
403.350	16.905	1041.664	782.550
404.365	16.861	1041.099	781.852
405.380	17.019	1039.889	781.603
406.394	16.927	1039.710	780.975
407.409	17.009	1038.474	780.353
408.423	17.068	1037.791	780.041
409.438	17.066	1037.718	779.907
410.453	17.151	1036.731	779.489
411.467	17.074	1036.158	778.635
412.482	17.094	1035.640	778.268
413.496	17.173	1034.862	777.975
414.511	17.225	1034.299	777.723
415.526	17.337	1033.727	777.735
416.540	17.462	1033.248	777.878
417.555	17.381	1032.696	777.022
418.569	17.261	1032.599	776.332
419.584	17.317	1031.891	775.990
420.599	17.394	1031.320	775.842
421.613	103.351	1322.665	1469.372
422.628	94.588	1365.082	1469.475
