DTS Sentinel unit serial number:	SN413079Multiplexer serial number:	ORYXHardware model number:	OX4-SRSoftware version number:	ORYX F/W v4.00 Oryx Data Collector v3.7.2.0data status	okinstallation	princeton_trtdifferential loss correction	single-endedforward channel	channel 2reverse channel	N/Adate	2019/09/13time	12:47:35forward acquisition time	60.00reverse acquisition time	0.00gamma	496.2192k internal	0.2315k external	0.2315temperature offset calibration	1.0211default loss term (dB/km)	0.3790temperature slope calibration	1.0000multiplexer offset coefficient	1.0000multiplexer slope coefficient	1.0000fibre end	0.00T internal ref (°C)	34.73T ext. ref 1 (°C)	4.59T ext. ref 2 (°C)	30.24length (m)	temperature (°C)	Stokes	anti-Stokes-747.200	-194.478	-0.154	0.001
-746.185	0.150	-0.303	0.219
-745.171	100.813	0.068	0.080
-744.156	-148.312	-0.480	-0.040
-743.142	106.322	0.086	-0.104
-742.127	778.737	0.060	0.166
-741.112	232.228	0.226	-0.376
-740.098	-200.000	-0.023	0.327
-739.083	317.431	0.071	0.136
-738.069	42.071	0.164	0.151
-737.054	4.409	-0.130	-0.096
-736.039	-200.000	-0.002	0.015
-735.025	-53.098	0.549	0.256
-734.010	147.770	0.140	0.191
-732.996	54.869	-0.188	0.184
-731.981	63.651	-0.060	0.061
-730.966	-83.042	-0.294	-0.096
-729.952	-66.672	-0.266	0.107
-728.937	-200.000	0.044	0.232
-727.923	-85.562	-0.380	0.120
-726.908	-104.771	-0.108	0.025
-725.894	-84.058	-0.313	0.101
-724.879	780.346	-0.123	-0.342
-723.864	-118.231	0.163	0.029
-722.850	-48.866	-0.049	0.024
-721.835	-200.000	0.021	0.255
-720.821	-42.133	-0.260	-0.135
-719.806	-79.532	-0.168	0.057
-718.791	48.088	0.092	0.088
-717.777	-112.502	-0.301	-0.061
-716.762	170.275	-0.091	-0.132
-715.748	-108.858	-0.322	-0.070
-714.733	91.425	-0.170	0.193
-713.718	486.248	0.109	0.252
-712.704	-173.339	0.156	0.005
-711.689	70.767	0.111	-0.117
-710.675	-200.000	0.026	-0.246
-709.660	-121.910	0.075	-0.012
-708.645	-78.309	-0.027	0.010
-707.631	-200.000	-0.005	-0.654
-706.616	82.086	0.258	-0.283
-705.602	31.333	-0.168	0.146
-704.587	75.283	0.182	0.194
-703.572	-87.465	0.237	-0.073
-702.558	261.260	-0.276	0.483
-701.543	-86.116	0.062	-0.019
-700.529	-55.925	0.235	0.106
-699.514	51.136	0.005	0.005
-698.499	-38.412	0.116	0.062
-697.485	262.299	0.096	0.168
-696.470	-146.569	0.154	-0.014
-695.456	-139.285	0.220	0.024
-694.441	800.000	0.030	-0.093
-693.426	13.794	-0.209	0.164
-692.412	-100.271	-0.213	-0.054
-691.397	800.000	0.083	-0.303
-690.383	337.505	0.189	-0.371
-689.368	523.703	0.063	-0.149
-688.354	-71.075	0.253	-0.096
-687.339	-200.000	0.022	0.145
-686.324	-200.000	-0.015	0.246
-685.310	304.791	-0.147	-0.276
-684.295	-181.817	0.133	0.003
-683.281	-80.941	0.254	-0.085
-682.266	-200.000	-0.002	-0.297
-681.251	145.408	0.127	-0.172
-680.237	800.000	0.067	-0.206
-679.222	-110.579	-0.016	0.003
-678.208	41.052	0.143	-0.131
-677.193	418.381	0.166	-0.359
-676.178	-161.557	-0.170	-0.009
-675.164	-130.520	-0.210	-0.029
-674.149	-189.640	0.196	0.002
-673.135	32.201	-0.135	-0.118
-672.120	-200.000	-0.007	0.257
-671.105	-200.000	0.045	0.204
-670.091	800.000	0.029	0.085
-669.076	345.852	-0.085	0.169
-668.062	800.000	0.098	-0.379
-667.047	1.682	0.083	-0.061
-666.032	-200.000	-0.033	-0.212
-665.018	782.852	0.052	0.145
-664.003	-24.736	0.143	-0.086
-662.989	-200.000	0.081	0.000
-661.974	15.616	-0.209	-0.166
-660.959	-200.000	0.028	0.233
-659.945	-80.944	0.331	-0.111
-658.930	-200.000	-0.116	-0.000
-657.916	32.198	-0.105	-0.091
-656.901	295.833	0.241	0.445
-655.886	-101.560	-0.371	-0.091
-654.872	-50.928	-0.370	-0.175
-653.857	-73.590	0.231	0.085
-652.843	800.000	-0.034	-0.118
-651.828	140.615	0.272	0.363
-650.814	-200.000	-0.055	0.249
-649.799	-161.765	-0.050	0.003
-648.784	24.375	-0.048	0.040
-647.770	107.861	0.062	-0.075
-646.755	-200.000	-0.004	-0.051
-645.741	-121.895	-0.241	0.040
-644.726	-42.677	-0.160	0.082
-643.711	85.370	-0.270	-0.299
-642.697	800.000	0.076	-0.293
-641.682	-148.227	-0.060	-0.005
-640.668	-48.309	-0.214	-0.104
-639.653	-200.000	-0.001	-0.111
-638.638	429.603	0.081	0.177
-637.624	-102.319	-0.266	-0.064
-636.609	-200.000	-0.046	0.256
-635.595	157.069	-0.136	0.190
-634.580	89.243	0.190	0.214
-633.565	800.000	0.087	0.250
-632.551	19.887	0.142	0.115
-631.536	-200.000	0.027	-0.165
-630.522	800.000	0.034	0.099
-629.507	-8.650	-0.279	-0.189
-628.492	181.330	0.055	0.082
-627.478	800.000	0.042	0.133
-626.463	69.871	-0.070	0.072
-625.449	800.000	-0.031	0.122
-624.434	-200.000	0.029	-0.214
-623.419	-69.235	-0.089	-0.035
-622.405	-88.523	-0.148	0.044
-621.390	8.797	-0.093	-0.071
-620.376	-132.919	0.380	0.049
-619.361	-200.000	0.001	-0.384
-618.346	-200.000	-0.023	-0.246
-617.332	-185.192	-0.051	0.001
-616.317	-200.000	-0.005	0.092
-615.303	1.500	-0.292	0.212
-614.288	800.000	-0.008	0.026
-613.273	-34.134	-0.277	0.154
-612.259	800.000	-0.057	-0.213
-611.244	351.316	0.068	0.135
-610.230	335.476	0.053	-0.104
-609.215	293.738	0.105	-0.193
-608.201	-200.000	-0.010	0.092
-607.186	-73.169	-0.153	0.057
-606.171	49.419	-0.146	-0.138
-605.157	5.481	0.201	0.149
-604.142	-78.192	0.279	-0.097
-603.128	81.058	0.118	-0.128
-602.113	800.000	0.063	0.220
-601.098	-87.202	-0.522	-0.160
-600.084	-200.000	-0.038	0.207
-599.069	348.612	-0.079	0.157
-598.055	-120.205	0.117	-0.020
-597.040	-55.817	0.220	0.099
-596.025	-2.075	0.048	-0.034
-595.011	18.297	-0.181	0.145
-593.996	-200.000	-0.004	0.200
-592.982	-200.000	-0.015	-0.245
-591.967	-7.110	-0.180	-0.123
-590.952	-200.000	0.009	0.045
-589.938	-68.860	0.131	0.051
-588.923	-200.000	-0.086	-0.478
-587.909	287.422	-0.083	-0.152
-586.894	800.000	-0.016	0.069
-585.879	151.449	0.241	-0.330
-584.865	267.412	-0.157	-0.276
-583.850	-187.888	-0.371	0.005
-582.836	-98.164	-0.275	0.071
-581.821	-80.674	-0.276	0.092
-580.806	-113.646	0.216	-0.042
-579.792	-89.710	0.091	-0.027
-578.777	-200.000	0.023	-0.109
-577.763	-140.081	0.312	0.033
-576.748	-43.490	0.228	0.116
-575.733	-10.196	-0.140	-0.094
-574.719	255.899	0.153	0.263
-573.704	186.597	-0.080	-0.120
-572.690	679.842	-0.036	-0.094
-571.675	-200.000	-0.047	0.249
-570.661	-117.168	0.400	-0.073
-569.646	-181.099	-0.234	0.005
-568.631	-39.133	-0.215	-0.114
-567.617	800.000	0.034	0.125
-566.602	-200.000	0.024	0.256
-565.588	-99.239	-0.140	-0.036
-564.573	126.344	0.161	0.206
-563.558	178.773	0.173	0.255
-562.544	-11.208	-0.125	0.083
-561.529	-122.089	0.201	0.033
-560.515	-200.000	0.024	0.236
-559.500	384.121	-0.043	0.090
-558.485	682.451	-0.101	-0.266
-557.471	-172.761	-0.272	0.009
-556.456	140.111	-0.202	0.268
-555.442	220.658	-0.072	-0.117
-554.427	140.358	0.095	-0.126
-553.412	-200.000	-0.021	-0.385
-552.398	-200.000	-0.039	-0.226
-551.383	-56.606	-0.051	0.023
-550.369	800.000	0.033	0.125
-549.354	800.000	-0.093	-0.334
-548.339	-50.949	-0.120	0.057
-547.325	252.332	0.205	0.352
-546.310	-200.000	-0.014	0.112
-545.296	126.462	0.154	-0.196
-544.281	-107.445	-0.142	0.031
-543.266	-95.648	-0.241	0.065
-542.252	-78.639	0.264	-0.091
-541.237	800.000	0.051	-0.165
-540.223	-200.000	0.002	0.031
-539.208	468.667	0.097	0.219
-538.193	155.285	-0.041	-0.056
-537.179	-13.057	-0.277	0.181
-536.164	-200.000	0.006	-0.234
-535.150	-66.506	-0.078	-0.031
-534.135	509.640	0.118	-0.275
-533.121	-119.560	0.223	-0.039
-532.106	547.548	-0.057	-0.136
-531.091	-14.795	-0.192	0.124
-530.077	54.779	-0.210	-0.204
-529.062	113.782	0.237	0.289
-528.048	-31.853	-0.232	-0.131
-527.033	-109.685	-0.287	0.061
-526.018	53.861	0.185	-0.179
-525.004	800.000	-0.040	0.169
-523.989	527.398	0.134	-0.316
-522.975	-168.080	-0.194	-0.008
-521.960	-72.537	0.522	0.194
-520.945	220.838	-0.072	-0.116
-519.931	-117.060	0.088	-0.016
-518.916	3.084	-0.036	0.027
-517.902	-28.776	-0.211	-0.122
-516.887	-91.143	0.080	-0.023
-515.872	-103.090	0.307	-0.073
-514.858	36.184	-0.097	-0.086
-513.843	137.196	-0.039	-0.051
-512.829	-200.000	0.003	-0.126
-511.814	603.364	0.122	0.304
-510.799	71.274	0.274	0.286
-509.785	267.002	0.042	-0.074
-508.770	-39.606	-0.158	-0.083
-507.756	-173.821	-0.371	-0.011
-506.741	-125.396	-0.143	-0.022
-505.726	-148.740	0.414	0.034
-504.712	73.499	-0.147	0.155
-503.697	-200.000	0.242	-0.001
-502.683	800.000	-0.079	-0.252
-501.668	800.000	0.121	-0.379
-500.653	-171.557	-0.233	-0.008
-499.639	-71.000	-0.139	0.052
-498.624	-46.401	-0.239	-0.118
-497.610	-34.513	-0.452	-0.248
-496.595	37.157	0.139	-0.123
-495.581	-56.714	-0.342	-0.152
-494.566	800.000	-0.018	-0.056
-493.551	37.766	-0.131	0.117
-492.537	-90.465	-0.188	-0.055
-491.522	235.786	-0.010	0.017
-490.508	800.000	-0.124	-0.388
-489.493	43.185	0.124	0.114
-488.478	-111.232	-0.308	0.063
-487.464	27.320	0.099	0.083
-486.449	800.000	-0.130	0.389
-485.435	-52.682	0.129	-0.060
-484.420	23.197	0.043	0.036
-483.405	65.932	-0.077	0.078
-482.391	147.252	0.290	-0.392
-481.376	-200.000	-0.001	-0.083
-480.362	407.435	0.141	0.299
-479.347	153.913	-0.160	0.220
-478.332	650.043	0.100	-0.257
-477.318	-86.349	-0.226	0.070
-476.303	127.697	-0.285	-0.363
-475.289	-200.000	-0.017	0.386
-474.274	800.000	0.077	0.227
-473.259	87.801	0.222	0.247
-472.245	41.031	0.128	0.116
-471.230	545.990	-0.030	0.071
-470.216	-160.204	-0.438	-0.024
-469.201	249.180	-0.097	-0.165
-468.186	-200.000	0.028	-0.320
-467.172	-200.000	0.039	-0.227
-466.157	-130.633	0.264	-0.036
-465.143	-118.239	0.125	0.022
-464.128	-200.000	-0.007	0.248
-463.113	-200.000	0.000	-0.167
-462.099	86.042	-0.151	-0.167
-461.084	-200.000	-0.010	-0.175
-460.070	570.825	-0.028	-0.067
-459.055	146.255	-0.077	0.104
-458.040	-200.000	0.048	0.389
-457.026	-138.932	-0.281	-0.031
-456.011	71.044	0.286	0.297
-454.997	-182.620	-0.435	-0.008
-453.982	-200.000	0.020	0.165
-452.968	-55.469	-0.230	-0.103
-451.953	484.991	0.066	0.152
-450.938	130.675	-0.027	-0.035
-449.924	-108.244	0.121	-0.026
-448.909	217.999	-0.233	-0.372
-447.895	-200.000	-0.030	-0.306
-446.880	51.352	0.302	-0.287
-445.865	44.088	0.260	-0.239
-444.851	293.485	0.180	-0.330
-443.836	7.276	-0.265	0.199
-442.822	134.426	0.052	-0.067
-441.807	31.876	0.214	0.185
-440.792	148.582	0.108	-0.146
-439.778	57.825	-0.192	0.189
-438.763	3.767	-0.154	-0.112
-437.749	82.919	0.075	-0.082
-436.734	-60.193	0.411	-0.176
-435.719	767.628	-0.100	-0.274
-434.705	800.000	-0.018	0.076
-433.690	-200.000	-0.023	0.253
-432.676	-35.860	0.264	-0.143
-431.661	800.000	0.069	-0.209
-430.646	-62.399	-0.119	-0.050
-429.632	-58.091	0.235	-0.102
-428.617	800.000	0.030	0.117
-427.603	23.605	0.190	-0.156
-426.588	-38.443	0.144	-0.076
-425.573	-7.683	-0.084	0.057
-424.559	800.000	0.065	0.244
-423.544	48.265	0.106	0.100
-422.530	-200.000	0.082	0.000
-421.515	288.497	0.068	-0.124
-420.500	41.601	-0.085	-0.077
-419.486	135.821	-0.034	0.045
-418.471	-19.819	0.222	0.138
-417.457	256.241	0.061	-0.105
-416.442	800.000	0.148	0.415
-415.428	276.028	0.125	0.222
-414.413	-22.711	-0.138	0.083
-413.398	-200.000	-0.001	-0.248
-412.384	-142.618	0.098	0.010
-411.369	102.086	0.080	0.093
-410.355	214.733	0.061	0.096
-409.340	-100.123	0.210	-0.052
-408.325	172.489	0.103	-0.148
-407.311	800.000	-0.120	-0.452
-406.296	471.527	-0.244	0.550
-405.282	182.071	-0.173	0.254
-404.267	55.323	-0.099	-0.096
-403.252	-148.587	0.300	-0.025
-402.238	25.851	0.339	0.282
-401.223	-94.647	0.179	0.049
-400.209	-200.000	-0.022	-0.170
-399.194	-131.515	0.167	-0.022
-398.179	77.311	0.198	0.211
-397.165	8.099	-0.125	0.094
-396.150	572.181	-0.032	-0.078
-395.136	-14.118	0.226	-0.146
-394.121	-175.996	-0.194	-0.005
-393.106	111.875	0.055	0.066
-392.092	186.630	0.112	0.167
-391.077	-61.894	0.190	-0.080
-390.063	2.202	0.182	0.132
-389.048	800.000	0.040	-0.132
-388.033	89.559	0.243	0.271
-387.019	800.000	0.013	0.040
-386.004	35.239	-0.363	0.318
-384.990	800.000	0.031	0.124
-383.975	41.135	0.170	0.154
-382.960	-167.338	-0.196	-0.008
-381.946	800.000	0.046	0.185
-380.931	-171.715	0.256	0.008
-379.917	-6.851	0.156	0.106
-378.902	-99.472	-0.135	0.034
-377.888	288.241	0.098	-0.178
-376.873	155.803	0.070	0.096
-375.858	-200.000	-0.021	-0.226
-374.844	68.347	0.010	0.010
-373.829	-200.000	0.026	-0.211
-372.815	91.362	0.135	-0.151
-371.800	-45.696	-0.167	0.083
-370.785	-44.672	0.359	-0.179
-369.771	800.000	-0.060	-0.242
-368.756	238.665	-0.168	-0.278
-367.742	-200.000	-0.017	-0.197
-366.727	94.496	-0.070	0.080
-365.712	-200.000	-0.000	-0.156
-364.698	-128.014	-0.091	-0.013
-363.683	-76.811	0.304	-0.106
-362.669	-3.669	-0.134	0.093
-361.654	-78.366	0.039	-0.013
-360.639	348.993	-0.047	-0.093
-359.625	-67.095	0.337	0.133
-358.610	228.624	0.170	-0.277
-357.596	-98.191	0.316	0.081
-356.581	88.263	-0.148	0.164
-355.566	-109.893	0.112	0.023
-354.552	113.501	-0.215	0.260
-353.537	-48.592	-0.030	-0.014
-352.523	-30.596	-0.273	-0.154
-351.508	44.858	0.123	0.113
-350.493	-60.021	0.350	0.149
-349.479	58.356	0.114	0.111
-348.464	-150.299	0.224	-0.017
-347.450	25.521	-0.187	-0.155
-346.435	-170.360	-0.242	-0.008
-345.420	-159.333	0.189	0.011
-344.406	800.000	-0.051	0.162
-343.391	363.231	-0.053	0.105
-342.377	-32.418	-0.140	0.078
-341.362	3.446	-0.072	0.052
-340.348	800.000	-0.140	0.422
-339.333	-87.213	0.086	-0.026
-338.318	-200.000	-0.066	-0.329
-337.304	-35.618	0.296	0.160
-336.289	228.937	0.138	-0.225
-335.275	800.000	0.113	-0.385
-334.260	800.000	-0.049	-0.198
-333.245	325.320	-0.041	0.077
-332.231	-131.448	0.319	0.042
-331.216	-51.854	0.151	0.070
-330.202	-108.418	0.282	-0.061
-329.187	548.357	0.089	-0.213
-328.172	-4.522	-0.122	-0.084
-327.158	-77.869	0.051	-0.017
-326.143	-12.536	-0.176	0.114
-325.129	-200.000	-0.002	0.181
-324.114	11.933	0.096	-0.073
-323.099	184.621	0.123	0.182
-322.085	800.000	0.034	0.139
-321.070	62.259	-0.146	0.145
-320.056	-101.346	0.094	-0.023
-319.041	-118.638	-0.260	-0.046
-318.026	-7.664	0.134	-0.090
-317.012	-200.000	-0.009	-0.094
-315.997	0.088	-0.155	-0.110
-314.983	-92.301	0.146	-0.041
-313.968	-9.766	0.119	0.079
-312.953	-7.132	-0.101	0.068
-311.939	-26.195	-0.227	-0.133
-310.924	-49.624	-0.242	-0.115
-309.910	-181.364	-0.172	0.003
-308.895	-200.000	0.026	-0.167
-307.880	-54.426	0.124	-0.056
-306.866	-76.865	-0.060	-0.021
-305.851	559.201	-0.103	-0.247
-304.837	-200.000	0.023	-0.148
-303.822	-200.000	-0.017	0.310
-302.807	-200.000	-0.041	-0.354
-301.793	-116.831	-0.205	-0.037
-300.778	-200.000	0.023	0.135
-299.764	68.873	0.139	0.142
-298.749	-200.000	0.006	-0.083
-297.735	-88.834	0.259	0.077
-296.720	-133.112	0.097	-0.012
-295.705	-85.129	0.235	0.073
-294.691	-200.000	-0.078	0.466
-293.676	554.906	-0.131	-0.315
-292.662	-200.000	0.041	0.420
-291.647	37.190	-0.132	0.116
-290.632	-142.131	0.355	0.035
-289.618	423.017	0.032	-0.068
-288.603	32.472	0.201	-0.173
-287.589	-146.897	0.405	-0.035
-286.574	-171.472	0.088	-0.003
-285.559	-70.556	-0.401	-0.151
-284.545	-200.000	0.078	0.385
-283.530	7.758	0.022	0.016
-282.516	800.000	0.006	-0.027
-281.501	-37.058	0.063	0.034
-280.486	800.000	0.018	0.072
-279.472	-82.605	0.246	-0.079
-278.457	-54.564	-0.224	0.101
-277.443	368.187	-0.232	0.468
-276.428	-70.713	-0.171	-0.064
-275.413	-161.762	0.103	-0.005
-274.399	-23.433	-0.054	0.032
-273.384	-200.000	-0.022	0.403
-272.370	-200.000	0.023	-0.261
-271.355	87.916	0.091	-0.100
-270.340	260.880	0.111	-0.190
-269.326	67.364	-0.185	0.188
-268.311	-93.402	-0.177	-0.049
-267.297	282.564	0.113	-0.202
-266.282	-53.990	0.304	0.138
-265.267	20.544	0.137	-0.110
-264.253	266.919	0.104	0.182
-263.238	-81.853	0.107	-0.035
-262.224	-153.605	-0.178	0.012
-261.209	-109.029	0.225	0.048
-260.195	-38.431	-0.064	0.033
-259.180	542.653	-0.057	0.136
-258.165	-41.952	0.145	-0.074
-257.151	-19.210	0.035	-0.022
-256.136	800.000	0.074	0.255
-255.122	-10.484	0.343	-0.226
-254.107	-74.896	-0.306	0.109
-253.092	62.727	0.091	0.090
-252.078	-77.585	-0.215	-0.074
-251.063	103.688	-0.036	0.042
-250.049	148.859	0.030	0.041
-249.034	52.977	-0.066	-0.062
-248.019	333.068	0.013	-0.024
-247.005	384.118	-0.123	0.252
-245.990	-200.000	-0.028	0.365
-244.976	102.365	-0.095	0.111
-243.961	-87.186	0.276	0.083
-242.946	530.320	-0.128	0.300
-241.932	-33.976	-0.130	0.071
-240.917	0.452	-0.138	0.098
-239.903	-190.528	-0.379	0.004
-238.888	-94.766	-0.246	0.066
-237.873	239.616	-0.096	-0.159
-236.859	-19.635	0.114	-0.070
-235.844	-200.000	-0.002	0.083
-234.830	6.733	0.390	-0.288
-233.815	-200.000	0.005	-0.134
-232.800	604.148	-0.014	0.036
-231.786	-156.200	-0.323	0.020
-230.771	50.964	-0.332	-0.312
-229.757	-200.000	0.005	-0.083
-228.742	-101.976	-0.270	0.065
-227.727	-107.288	0.506	-0.111
-226.713	-160.522	-0.327	-0.017
-225.698	-68.666	-0.477	0.183
-224.684	-200.000	-0.016	0.166
-223.669	471.741	0.107	0.238
-222.655	602.931	-0.057	0.141
-221.640	-200.000	0.037	-0.331
-220.625	-86.279	0.141	-0.043
-219.611	105.028	-0.071	0.083
-218.596	-200.000	0.124	-0.561
-217.582	-200.000	-0.010	-0.168
-216.567	474.794	0.093	0.207
-215.552	-22.570	-0.182	-0.109
-214.538	-126.177	-0.076	-0.011
-213.523	-77.364	-0.152	0.053
-212.509	48.050	0.167	-0.155
-211.494	800.000	0.095	0.369
-210.479	343.007	-0.021	0.040
-209.465	-107.371	-0.212	-0.046
-208.450	800.000	0.041	-0.152
-207.436	-46.465	-0.229	0.112
-206.421	73.730	-0.199	0.207
-205.406	-200.000	0.029	0.144
-204.392	-8.207	-0.214	0.143
-203.377	385.198	-0.114	0.234
-202.363	17.311	-0.205	0.162
-201.348	-200.000	0.031	-0.175
-200.333	733.941	0.100	-0.266
-199.319	35.289	0.192	0.167
-198.304	85.237	-0.163	-0.177
-197.290	-200.000	-0.059	-0.405
-196.275	-183.429	0.127	0.002
-195.260	-151.656	0.362	-0.026
-194.246	489.049	0.064	0.145
-193.231	-88.032	-0.283	0.084
-192.217	172.135	-0.089	0.127
-191.202	-13.153	0.127	0.082
-190.187	67.572	0.115	-0.116
-189.173	244.552	0.091	-0.152
-188.158	-200.000	-0.016	-0.106
-187.144	-200.000	0.063	-0.331
-186.129	75.666	-0.132	-0.139
-185.114	800.000	-0.054	-0.183
-184.100	-57.346	0.190	0.083
-183.085	46.116	-0.192	0.177
-182.071	548.644	0.043	-0.101
-181.056	-200.000	0.017	0.090
-180.042	663.166	-0.137	0.351
-179.027	-200.000	-0.015	0.125
-178.012	-90.695	0.487	-0.139
-176.998	-48.864	-0.118	-0.056
-175.983	288.114	-0.087	-0.156
-174.969	-181.439	0.219	-0.004
-173.954	-24.599	-0.303	0.179
-172.939	-140.278	0.212	-0.022
-171.925	236.766	0.083	0.136
-170.910	795.769	0.069	-0.189
-169.896	800.000	0.086	-0.301
-168.881	19.765	-0.184	-0.147
-167.866	-115.755	-0.183	0.034
-166.852	-105.800	-0.212	0.048
-165.837	70.129	0.074	0.076
-164.823	-157.969	0.196	0.011
-163.808	116.366	-0.215	-0.261
-162.793	800.000	-0.067	0.286
-161.779	800.000	0.081	0.234
-160.764	-88.535	0.384	-0.114
-159.750	-200.000	-0.001	0.248
-158.735	234.362	0.165	0.269
-157.720	-200.000	-0.014	-0.111
-156.706	-134.982	0.322	0.038
-155.691	800.000	0.043	0.163
-154.677	-31.272	-0.370	-0.206
-153.662	800.000	0.027	0.095
-152.647	800.000	-0.156	0.459
-151.633	-16.677	-0.023	0.014
-150.618	534.768	0.096	-0.227
-149.604	502.396	-0.034	-0.077
-148.589	800.000	-0.039	-0.116
-147.574	800.000	-0.040	0.167
-146.560	-94.115	-0.242	-0.066
-145.545	50.587	0.081	0.076
-144.531	221.024	-0.030	0.048
-143.516	-71.661	0.078	-0.029
-142.502	800.000	-0.048	-0.163
-141.487	-142.266	-0.204	0.020
-140.472	340.972	-0.157	0.303
-139.458	-200.000	0.021	-0.420
-138.443	66.751	0.056	0.056
-137.429	-14.201	0.226	0.144
-136.414	-26.197	0.077	0.045
-135.399	-72.287	0.163	0.060
-134.385	183.615	0.079	0.116
-133.370	633.176	0.096	0.240
-132.356	188.510	-0.113	0.167
-131.341	92.675	-0.205	-0.229
-130.326	362.803	0.193	0.383
-129.312	-142.119	-0.438	-0.043
-128.297	-77.028	0.110	0.038
-127.283	-92.538	-0.132	-0.037
-126.268	307.466	-0.084	0.155
-125.253	224.849	0.223	-0.358
-124.239	-200.000	-0.032	-0.205
-123.224	-113.640	-0.297	-0.057
-122.210	-100.980	-0.174	0.042
-121.195	-200.000	-0.035	0.199
-120.180	-61.274	0.238	0.099
-119.166	800.000	-0.038	-0.138
-118.151	43.256	0.251	-0.227
-117.137	-200.000	-0.012	-0.254
-116.122	-58.674	-0.425	-0.182
-115.107	488.298	0.111	-0.250
-114.093	-34.642	-0.192	0.104
-113.078	50.384	-0.126	-0.118
-112.064	-135.371	0.062	-0.007
-111.049	306.655	0.023	0.042
-110.034	150.157	0.088	0.117
-109.020	55.876	-0.101	0.097
-108.005	-127.382	0.220	-0.032
-106.991	-200.000	0.036	-0.287
-105.976	-80.304	-0.149	-0.049
-104.962	-116.117	0.379	0.070
-103.947	232.043	-0.085	-0.138
-102.932	-200.000	0.002	0.222
-101.918	-99.353	-0.094	-0.024
-100.903	200.253	0.060	-0.091
-99.889	-12.622	0.142	0.092
-98.874	800.000	-0.055	0.161
-97.859	-200.000	-0.002	-0.123
-96.845	-200.000	-0.008	0.287
-95.830	-80.503	0.236	0.078
-94.816	800.000	0.082	0.234
-93.801	87.907	-0.249	0.272
-92.786	-40.434	0.096	-0.049
-91.772	248.239	0.017	-0.028
-90.757	800.000	0.097	0.387
-89.743	196.218	0.110	0.165
-88.728	273.710	-0.031	-0.054
-87.713	-153.158	-0.295	-0.020
-86.699	5.319	-0.113	-0.082
-85.684	110.185	0.290	-0.344
-84.670	181.406	-0.097	-0.141
-83.655	156.823	0.278	-0.380
-82.640	-200.000	0.057	0.351
-81.626	-24.499	0.088	-0.052
-80.611	97.630	0.069	0.078
-79.597	73.093	-0.245	-0.252
-78.582	72.533	-0.017	-0.018
-77.567	19.662	0.137	0.109
-76.553	-44.490	-0.162	0.080
-75.538	-115.239	-0.158	0.030
-74.524	-188.282	-0.169	-0.002
-73.509	-0.012	0.117	-0.082
-72.494	-159.315	-0.216	0.012
-71.480	-200.000	-0.044	0.197
-70.465	-86.379	-0.077	0.023
-69.451	39.468	-0.214	-0.189
-68.436	245.471	0.215	0.358
-67.422	175.670	0.030	0.044
-66.407	752.820	-0.116	-0.309
-65.392	-90.664	-0.105	0.030
-64.378	115.496	0.144	0.174
-63.363	-200.000	0.056	0.286
-62.349	62.468	-0.220	0.217
-61.334	-11.409	-1.030	-0.669
-60.319	800.000	0.251	0.859
-59.305	-200.000	0.115	-0.693
-58.290	-200.000	0.207	1.157
-57.276	800.000	0.346	1.430
-56.261	-200.000	95.359	560.145
-55.246	634.943	1389.759	3478.697
-54.232	184.723	2624.137	3837.924
-53.217	115.210	2325.479	2801.308
-52.203	44.548	1934.701	1753.966
-51.188	38.086	1720.114	1509.611
-50.173	35.230	1674.366	1447.865
-49.159	51.514	1722.089	1614.233
-48.144	55.016	1739.614	1657.411
-47.130	37.706	1696.609	1485.846
-46.115	34.785	1681.749	1450.639
-45.100	34.556	1676.949	1444.709
-44.086	34.581	1673.851	1442.168
-43.071	34.631	1671.215	1440.217
-42.057	34.589	1669.345	1438.234
-41.042	34.602	1666.903	1436.174
-40.027	34.594	1665.266	1434.641
-39.013	34.458	1663.535	1432.075
-37.998	34.572	1661.042	1430.727
-36.984	34.589	1659.837	1429.760
-35.969	34.654	1658.832	1429.320
-34.954	34.731	1657.249	1428.477
-33.940	34.805	1654.725	1426.795
-32.925	34.750	1652.845	1424.708
-31.911	34.691	1651.216	1422.811
-30.896	34.650	1650.117	1421.502
-29.881	34.635	1648.295	1419.766
-28.867	34.719	1645.898	1418.268
-27.852	34.729	1644.481	1417.060
-26.838	34.710	1643.261	1415.814
-25.823	34.742	1641.866	1414.796
-24.809	34.789	1640.720	1414.098
-23.794	34.801	1639.162	1412.788
-22.779	34.813	1637.526	1411.411
-21.765	34.711	1635.983	1409.268
-20.750	34.787	1634.034	1408.095
-19.736	34.875	1632.435	1407.311
-18.721	34.919	1630.649	1406.036
-17.706	34.810	1629.479	1404.174
-16.692	34.804	1627.693	1402.531
-15.677	34.711	1626.307	1400.602
-14.663	34.829	1625.381	1400.613
-13.648	34.771	1623.911	1398.863
-12.633	34.826	1622.125	1397.678
-11.619	34.763	1620.487	1395.747
-10.604	34.760	1619.299	1394.645
-9.590	34.708	1618.053	1393.137
-8.575	34.762	1616.554	1392.191
-7.560	34.823	1615.446	1391.622
-6.546	34.792	1614.545	1390.569
-5.531	34.739	1613.475	1389.203
-4.517	34.742	1611.934	1387.847
-3.502	34.808	1611.099	1387.545
-2.487	34.860	1608.900	1385.974
-1.473	34.680	1597.433	1374.745
-0.458	31.654	1576.935	1335.505
0.556	29.938	1575.800	1296.858
1.571	26.993	1600.041	1295.709
2.586	25.831	1612.575	1297.380
3.600	22.473	1557.848	1229.836
4.615	13.681	1446.248	1084.382
5.629	6.021	1380.259	986.837
6.644	4.563	1371.430	971.330
7.659	4.535	1370.286	970.263
8.673	4.552	1369.603	969.799
9.688	4.709	1367.525	969.220
10.702	4.598	1365.211	966.799
11.717	8.131	1372.384	993.850
12.731	16.824	1387.722	1059.441
13.746	22.347	1396.531	1100.719
14.761	22.715	1396.011	1102.518
15.775	22.029	1393.743	1096.347
16.790	21.032	1391.156	1087.996
17.804	20.204	1389.152	1081.173
18.819	19.854	1387.603	1077.689
19.834	19.707	1386.922	1076.152
20.848	19.595	1385.607	1074.342
21.863	19.424	1383.915	1071.869
22.877	19.286	1383.043	1070.246
23.892	19.274	1382.545	1069.691
24.907	19.129	1381.883	1068.180
25.921	19.197	1380.558	1067.483
26.936	19.164	1379.668	1066.499
27.950	19.278	1378.512	1066.216
28.965	19.333	1377.849	1065.951
29.980	19.464	1376.932	1065.956
30.994	19.689	1375.197	1065.906
32.009	19.678	1374.347	1065.084
33.023	19.684	1372.906	1063.910
34.038	19.578	1371.755	1062.270
35.053	19.489	1370.380	1060.567
36.067	19.411	1369.509	1059.317
37.082	19.434	1368.858	1058.861
38.096	19.571	1367.353	1058.443
39.111	19.540	1366.708	1057.660
40.126	19.400	1366.065	1056.216
41.140	19.133	1365.154	1053.780
42.155	18.957	1364.248	1051.914
43.169	18.881	1364.014	1051.173
44.184	18.950	1363.694	1051.258
45.199	18.950	1363.646	1051.129
46.213	19.170	1362.987	1051.866
47.228	19.324	1362.635	1052.444
48.242	19.398	1361.410	1051.856
49.257	19.286	1360.030	1050.015
50.271	19.340	1357.806	1048.532
51.286	19.281	1356.951	1047.424
52.301	19.397	1355.416	1046.850
53.315	19.255	1354.438	1045.138
54.330	19.122	1353.377	1043.423
55.344	19.043	1352.010	1041.800
56.359	19.055	1350.991	1040.992
57.374	19.072	1349.998	1040.239
58.388	18.925	1349.345	1038.754
59.403	18.861	1349.428	1038.339
60.417	18.814	1348.257	1037.062
61.432	18.812	1347.503	1036.378
62.447	18.730	1346.189	1034.786
63.461	18.710	1345.036	1033.684
64.476	18.700	1344.009	1032.743
65.490	18.723	1342.833	1031.888
66.505	18.684	1341.239	1030.339
67.520	18.762	1340.069	1029.818
68.534	18.782	1338.994	1029.020
69.549	18.811	1338.381	1028.632
70.563	18.724	1337.037	1026.985
71.578	18.574	1336.021	1025.215
72.593	18.584	1334.917	1024.340
73.607	18.568	1334.503	1023.838
74.622	18.610	1333.573	1023.284
75.636	18.725	1332.841	1023.314
76.651	18.626	1332.678	1022.512
77.666	18.755	1332.030	1022.689
78.680	18.786	1331.311	1022.232
79.695	18.835	1330.555	1021.850
80.709	18.821	1330.295	1021.482
81.724	18.985	1329.229	1021.546
82.739	19.132	1328.616	1021.855
83.753	19.200	1327.950	1021.655
84.768	19.407	1326.758	1021.876
85.782	19.472	1326.213	1021.751
86.797	19.548	1324.739	1020.973
87.812	19.347	1323.847	1019.009
88.826	19.360	1322.196	1017.722
89.841	19.441	1321.152	1017.307
90.855	19.426	1320.569	1016.678
91.870	19.527	1319.818	1016.607
92.884	19.573	1318.993	1016.152
93.899	19.507	1318.567	1015.343
94.914	19.646	1317.053	1014.908
95.928	19.641	1316.286	1014.197
96.943	19.582	1315.783	1013.372
97.957	19.457	1314.747	1011.751
98.972	19.495	1313.458	1010.892
99.987	19.505	1312.253	1009.934
101.001	19.412	1311.589	1008.794
102.016	19.502	1310.492	1008.385
103.030	19.500	1309.504	1007.523
104.045	19.469	1309.095	1006.939
105.060	19.286	1307.564	1004.604
106.074	19.091	1305.826	1002.046
107.089	18.813	1304.041	998.968
108.103	18.768	1302.706	997.601
109.118	18.741	1301.642	996.538
110.133	18.926	1299.489	995.871
111.147	18.818	1298.783	994.618
112.162	18.812	1297.848	993.780
113.176	18.995	1296.088	993.404
114.191	19.057	1295.743	993.408
115.206	18.964	1294.818	992.075
116.220	18.840	1293.424	990.203
117.235	18.962	1292.163	989.855
118.249	18.866	1291.401	988.630
119.264	18.716	1290.270	986.812
120.279	18.744	1288.960	985.888
121.293	18.694	1287.517	984.407
122.308	18.606	1286.638	983.142
123.322	18.640	1285.598	982.459
124.337	18.640	1284.207	981.305
125.352	18.557	1283.369	980.108
126.366	18.536	1282.587	979.305
127.381	18.558	1281.302	978.359
128.395	18.599	1280.654	978.012
129.410	18.735	1279.339	977.694
130.424	18.787	1278.594	977.335
131.439	18.868	1277.881	977.165
132.454	18.942	1276.943	976.782
133.468	18.941	1276.231	976.146
134.483	18.993	1275.300	975.640
135.497	18.972	1274.555	974.864
136.512	19.013	1272.857	973.712
137.527	18.969	1271.828	972.591
138.541	19.067	1270.858	972.319
139.556	19.077	1269.347	971.133
140.570	19.189	1268.723	971.199
141.585	19.212	1267.397	970.230
142.600	19.357	1266.307	970.125
143.614	19.477	1265.438	970.047
144.629	19.566	1263.989	969.348
145.643	19.462	1263.147	968.037
146.658	19.339	1261.786	966.216
147.673	19.183	1260.211	964.055
148.687	19.064	1259.212	962.540
149.702	19.034	1257.679	961.112
150.716	18.984	1256.265	959.670
151.731	18.977	1255.606	959.039
152.746	19.083	1253.975	958.303
153.760	19.047	1252.915	957.206
154.775	19.201	1252.007	957.282
155.789	19.141	1251.295	956.322
156.804	19.320	1249.972	956.220
157.819	19.390	1249.305	956.011
158.833	19.349	1248.409	955.014
159.848	19.646	1247.500	955.880
160.862	19.424	1246.852	954.069
161.877	19.228	1245.070	951.539
162.892	19.052	1243.780	949.500
163.906	19.060	1242.661	948.602
164.921	19.042	1241.869	947.815
165.935	19.263	1241.175	948.417
166.950	19.158	1240.909	947.556
167.964	19.196	1240.244	947.171
168.979	19.085	1239.389	945.824
169.994	19.103	1238.376	945.067
171.008	19.226	1237.598	945.063
172.023	19.264	1237.053	944.770
173.037	19.398	1236.489	944.994
174.052	19.427	1235.391	944.229
175.067	19.196	1233.982	941.806
176.081	19.032	1232.833	939.951
177.096	19.080	1231.756	939.306
178.110	19.179	1230.807	939.040
179.125	19.159	1229.794	938.072
180.140	19.271	1228.675	937.745
181.154	19.312	1227.790	937.212
182.169	19.347	1226.536	936.361
183.183	19.463	1225.618	936.205
184.198	19.484	1224.415	935.319
185.213	19.486	1223.551	934.589
186.227	19.612	1222.391	934.304
187.242	19.671	1221.498	933.856
188.256	19.742	1220.253	933.202
189.271	19.741	1219.946	932.880
190.286	19.437	1218.712	930.215
191.300	19.203	1216.767	927.388
192.315	18.990	1216.486	925.948
193.329	19.010	1215.985	925.592
194.344	19.073	1215.480	925.461
195.359	19.263	1215.069	926.091
196.373	19.208	1214.626	925.377
197.388	19.461	1214.245	926.359
198.402	19.723	1213.917	927.434
199.417	19.782	1213.776	927.563
200.432	19.938	1213.070	927.776
201.446	19.972	1212.179	927.194
202.461	20.092	1211.549	927.272
203.475	20.121	1210.387	926.454
204.490	19.992	1208.753	924.436
205.504	19.594	1208.029	921.675
206.519	19.538	1206.482	920.115
207.534	19.602	1205.002	919.249
208.548	19.686	1203.983	918.832
209.563	19.560	1203.712	917.878
210.577	19.614	1202.789	917.376
211.592	19.617	1202.085	916.775
212.607	19.866	1200.991	917.181
213.621	19.817	1200.438	916.416
214.636	19.842	1199.666	915.881
215.650	19.805	1198.712	914.875
216.665	19.836	1197.969	914.393
217.680	20.072	1196.668	914.563
218.694	20.137	1196.347	914.580
219.709	20.062	1195.344	913.334
220.723	20.010	1194.516	912.347
221.738	20.015	1193.757	911.715
222.753	20.011	1192.784	910.869
223.767	19.888	1192.067	909.593
224.782	20.010	1191.842	909.981
225.796	20.266	1191.233	910.781
226.811	20.195	1190.362	909.662
227.826	20.084	1189.608	908.425
228.840	20.046	1188.523	907.317
229.855	19.949	1188.104	906.407
230.869	19.982	1187.151	905.776
231.884	19.860	1186.054	904.220
232.899	19.753	1185.446	903.117
233.913	19.857	1184.762	903.061
234.928	19.767	1184.025	901.946
235.942	19.777	1182.649	900.874
236.957	19.734	1181.938	900.029
237.972	19.758	1181.556	899.783
238.986	19.771	1180.782	899.182
240.001	19.846	1180.301	899.124
241.015	19.765	1179.178	897.768
242.030	19.982	1178.453	898.263
243.045	19.983	1177.763	897.660
244.059	20.070	1176.954	897.417
245.074	20.013	1176.856	896.965
246.088	20.086	1175.890	896.528
247.103	20.185	1174.995	896.280
248.117	20.357	1174.296	896.555
249.132	20.526	1173.807	896.976
250.147	20.731	1173.049	897.374
251.161	20.671	1173.228	897.122
252.176	20.736	1172.235	896.620
253.190	20.789	1171.828	896.502
254.205	20.886	1170.982	896.274
255.220	20.967	1170.414	896.173
256.234	20.962	1169.888	895.666
257.249	20.771	1169.340	894.188
258.263	20.775	1168.299	893.331
259.278	20.859	1167.937	893.409
260.293	20.911	1166.948	892.837
261.307	20.934	1166.509	892.543
262.322	20.976	1165.960	892.255
263.336	20.981	1165.099	891.546
264.351	21.044	1164.486	891.317
265.366	21.029	1163.791	890.633
266.380	21.124	1162.933	890.379
267.395	21.094	1161.957	889.403
268.409	20.858	1161.134	887.493
269.424	20.736	1160.957	886.656
270.439	20.807	1160.359	886.483
271.453	20.716	1159.171	885.031
272.468	20.813	1158.074	884.610
273.482	20.664	1157.741	883.523
274.497	20.673	1157.111	883.006
275.512	20.770	1156.238	882.755
276.526	20.678	1155.819	881.889
277.541	20.719	1154.985	881.381
278.555	20.812	1154.312	881.261
279.570	20.914	1153.514	881.091
280.585	21.131	1152.968	881.694
281.599	21.095	1151.839	880.571
282.614	20.972	1150.761	879.046
283.628	20.926	1149.293	877.618
284.643	20.870	1148.459	876.618
285.657	20.798	1148.326	876.079
286.672	20.835	1147.118	875.265
287.687	20.967	1145.547	874.652
288.701	20.972	1145.455	874.530
289.716	20.832	1144.768	873.226
290.730	20.963	1144.162	873.345
291.745	20.963	1142.974	872.360
292.760	21.081	1142.288	872.347
293.774	21.089	1142.428	872.417
294.789	21.162	1141.815	872.236
295.803	21.198	1140.976	871.700
296.818	21.070	1140.061	870.282
297.833	20.945	1139.291	868.995
298.847	21.002	1138.188	868.359
299.862	20.983	1137.706	867.825
300.876	20.968	1137.033	867.159
301.891	21.148	1136.501	867.569
302.906	21.216	1135.939	867.405
303.920	21.295	1135.558	867.426
304.935	21.491	1134.621	867.605
305.949	21.501	1134.433	867.435
306.964	21.537	1133.708	866.982
307.979	21.347	1132.504	865.047
308.993	21.281	1131.874	864.159
310.008	21.391	1130.904	863.886
311.022	21.499	1130.444	863.995
312.037	21.465	1129.173	862.775
313.052	21.320	1128.382	861.383
314.066	21.162	1127.600	859.928
315.081	21.004	1126.340	858.117
316.095	20.911	1126.219	857.488
317.110	21.014	1125.100	857.066
318.125	21.126	1124.303	856.938
319.139	20.948	1123.868	855.655
320.154	21.050	1123.074	855.476
321.168	20.963	1122.515	854.546
322.183	21.110	1121.615	854.508
323.197	21.147	1121.327	854.393
324.212	21.127	1120.486	853.577
325.227	21.206	1120.212	853.681
326.241	21.164	1119.243	852.663
327.256	21.192	1118.576	852.214
328.270	21.138	1117.399	850.976
329.285	21.171	1116.712	850.540
330.300	21.184	1115.595	849.676
331.314	21.155	1114.440	848.585
332.329	21.164	1113.912	848.148
333.343	21.263	1112.907	847.790
334.358	21.253	1112.361	847.248
335.373	21.446	1111.402	847.380
336.387	21.432	1110.989	846.921
337.402	21.500	1110.018	846.436
338.416	21.470	1109.561	845.868
339.431	21.626	1109.093	846.189
340.446	21.688	1108.569	846.013
341.460	21.826	1108.051	846.209
342.475	21.865	1107.355	845.792
343.489	21.913	1106.203	845.069
344.504	21.917	1105.788	844.694
345.519	22.025	1104.723	844.325
346.533	22.070	1103.875	843.821
347.548	22.203	1103.052	843.755
348.562	22.089	1102.182	842.466
349.577	21.843	1101.327	840.561
350.592	21.624	1100.297	838.653
351.606	21.630	1099.017	837.631
352.621	21.566	1098.601	836.932
353.635	21.433	1098.477	836.129
354.650	21.554	1097.451	835.852
355.665	21.583	1096.435	835.143
356.679	21.624	1096.344	835.196
357.694	21.730	1095.962	835.337
358.708	21.780	1095.218	834.931
359.723	21.816	1094.692	834.628
360.738	21.848	1094.048	834.215
361.752	21.840	1093.051	833.343
362.767	21.930	1092.514	833.288
363.781	21.862	1091.903	832.424
364.796	22.068	1091.471	832.998
365.810	22.216	1091.041	833.298
366.825	22.234	1090.832	833.153
367.840	22.469	1089.893	833.472
368.854	22.396	1089.667	832.880
369.869	22.368	1089.338	832.424
370.883	22.250	1087.742	830.572
371.898	22.195	1086.954	829.638
372.913	22.189	1086.196	828.956
373.927	22.256	1086.110	829.134
374.942	22.324	1085.493	828.909
375.956	22.392	1084.837	828.657
376.971	22.205	1084.410	827.378
377.986	22.287	1083.938	827.331
379.000	22.458	1083.557	827.770
380.015	22.433	1083.564	827.585
381.029	22.609	1082.555	827.565
382.044	22.569	1081.851	826.766
383.059	22.534	1080.814	825.739
384.073	22.365	1080.291	824.473
385.088	22.578	1078.985	824.401
386.102	22.554	1078.411	823.777
387.117	22.336	1077.312	821.847
388.132	22.200	1076.226	820.312
389.146	22.200	1075.448	819.646
390.161	22.144	1074.790	818.808
391.175	22.200	1073.939	818.349
392.190	22.408	1073.453	818.876
393.205	22.459	1072.956	818.660
394.219	22.422	1072.056	817.729
395.234	22.416	1070.922	816.762
396.248	22.253	1069.738	815.031
397.263	22.302	1068.900	814.551
398.278	22.192	1067.919	813.222
399.292	22.130	1067.048	812.200
400.307	21.959	1066.868	811.200
401.321	22.010	1065.898	810.626
402.336	22.186	1064.911	810.615
403.350	22.110	1064.424	809.821
404.365	22.208	1063.704	809.657
405.380	22.224	1063.506	809.507
406.394	22.379	1062.374	809.288
407.409	22.362	1061.980	808.834
408.423	22.566	1061.484	809.324
409.438	22.687	1060.629	809.155
410.453	22.774	1059.891	808.920
411.467	22.850	1059.330	808.766
412.482	22.802	1058.771	808.051
413.496	22.837	1058.341	807.810
414.511	22.929	1057.981	807.886
415.526	22.986	1057.677	807.843
416.540	22.989	1057.436	807.601
417.555	23.033	1056.482	807.000
418.569	22.951	1056.019	806.202
419.584	23.025	1055.131	805.788
420.599	22.965	1054.641	805.072
421.613	154.352	1401.352	1790.233
422.628	141.755	1451.858	1790.374
