DTS Sentinel unit serial number:	SN413079Multiplexer serial number:	ORYXHardware model number:	OX4-SRSoftware version number:	ORYX F/W v4.00 Oryx Data Collector v3.7.2.0data status	okinstallation	princeton_trtdifferential loss correction	single-endedforward channel	channel 2reverse channel	N/Adate	2019/09/13time	15:35:35forward acquisition time	60.00reverse acquisition time	0.00gamma	496.2192k internal	0.2317k external	0.2317temperature offset calibration	1.0210default loss term (dB/km)	0.3790temperature slope calibration	1.0000multiplexer offset coefficient	1.0000multiplexer slope coefficient	1.0000fibre end	0.00T internal ref (°C)	35.00T ext. ref 1 (°C)	4.76T ext. ref 2 (°C)	29.44length (m)	temperature (°C)	Stokes	anti-Stokes-747.200	800.000	0.072	-0.245
-746.185	171.700	-0.092	0.133
-745.171	-52.662	-0.091	0.043
-744.156	-147.882	0.267	0.023
-743.142	9.178	-0.266	0.204
-742.127	282.159	-0.040	-0.073
-741.112	-200.000	0.007	0.059
-740.098	365.624	-0.181	0.370
-739.083	-67.368	-0.099	-0.039
-738.069	-200.000	-0.011	-0.144
-737.054	-105.587	0.185	0.042
-736.039	-15.708	0.059	0.038
-735.025	-143.582	0.270	0.026
-734.010	-127.875	-0.262	0.038
-732.996	121.817	-0.196	-0.248
-731.981	-151.779	-0.409	0.030
-730.966	-70.734	-0.287	0.110
-729.952	58.896	0.349	-0.348
-728.937	148.122	-0.160	0.219
-727.923	-101.607	-0.107	-0.026
-726.908	84.615	-0.073	-0.081
-725.894	-147.580	-0.425	-0.036
-724.879	800.000	-0.046	-0.154
-723.864	-182.938	0.156	-0.003
-722.850	800.000	-0.059	-0.220
-721.835	800.000	0.013	-0.037
-720.821	159.371	-0.215	0.303
-719.806	-5.463	0.232	0.161
-718.791	-83.302	0.382	0.124
-717.777	-127.851	0.164	0.024
-716.762	252.232	0.189	0.326
-715.748	-19.728	0.016	0.010
-714.733	-200.000	-0.029	-0.160
-713.718	38.624	-0.327	-0.295
-712.704	-72.989	-0.371	-0.138
-711.689	-200.000	0.029	-0.228
-710.675	-200.000	0.051	-0.279
-709.660	-190.406	-0.458	-0.005
-708.645	320.754	0.076	0.147
-707.631	-200.000	0.039	-0.191
-706.616	-200.000	-0.034	-0.269
-705.602	-77.808	-0.154	-0.054
-704.587	155.852	0.137	-0.191
-703.572	-200.000	0.004	-0.061
-702.558	800.000	-0.037	-0.139
-701.543	-134.069	-0.097	-0.012
-700.529	57.430	0.066	-0.066
-699.514	-116.174	-0.111	-0.021
-698.499	800.000	-0.044	0.136
-697.485	800.000	-0.084	0.318
-696.470	365.543	-0.074	-0.152
-695.456	-104.158	-0.209	0.049
-694.441	-118.525	-0.357	-0.064
-693.426	102.604	0.170	-0.201
-692.412	-26.445	-0.065	0.038
-691.397	-86.095	-0.128	-0.040
-690.383	800.000	0.044	0.132
-689.368	800.000	0.025	-0.105
-688.354	-104.470	-0.309	0.072
-687.339	-52.919	0.131	-0.061
-686.324	-200.000	0.259	0.001
-685.310	-124.718	-0.357	-0.056
-684.295	609.362	-0.052	-0.130
-683.281	274.287	-0.162	-0.289
-682.266	-41.340	-0.259	-0.135
-681.251	-200.000	0.023	0.183
-680.237	-82.949	0.154	-0.050
-679.222	321.369	-0.125	-0.241
-678.208	35.878	-0.128	0.114
-677.193	-114.127	0.175	-0.034
-676.178	-111.066	-0.419	-0.087
-675.164	150.113	0.029	0.039
-674.149	-200.000	-0.037	0.385
-673.135	-27.312	0.092	-0.054
-672.120	-112.554	0.115	0.023
-671.105	250.770	-0.068	-0.117
-670.091	300.346	-0.096	-0.178
-669.076	46.971	0.043	0.040
-668.062	-200.000	-0.025	0.372
-667.047	-200.000	-0.029	0.226
-666.032	-200.000	0.009	-0.071
-665.018	-167.009	-0.287	0.012
-664.003	255.400	-0.106	0.183
-662.989	800.000	0.023	0.072
-661.974	27.940	0.141	-0.120
-660.959	774.449	0.055	-0.151
-659.945	226.747	0.193	-0.316
-658.930	-200.000	-0.006	0.146
-657.916	-200.000	0.029	-0.286
-656.901	-200.000	-0.100	-0.478
-655.886	63.093	-0.300	-0.303
-654.872	-14.989	0.065	-0.042
-653.857	26.167	-0.219	0.184
-652.843	-200.000	-0.029	0.146
-651.828	51.543	-0.084	0.081
-650.814	-148.584	-0.472	-0.039
-649.799	-200.000	0.016	-0.081
-648.784	-89.848	-0.287	-0.085
-647.770	29.635	0.083	0.071
-646.755	-147.739	-0.267	0.023
-645.741	-124.653	0.128	0.020
-644.726	23.484	0.222	0.184
-643.711	203.085	0.161	-0.251
-642.697	-47.346	-0.239	-0.117
-641.682	46.825	-0.121	0.114
-640.668	438.062	-0.231	-0.509
-639.653	-200.000	-0.008	-0.154
-638.638	-200.000	0.015	-0.217
-637.624	-94.951	-0.130	-0.035
-636.609	-122.915	0.180	-0.029
-635.595	329.927	0.081	0.157
-634.580	800.000	0.022	-0.066
-633.565	-200.000	-0.036	0.208
-632.551	-200.000	0.029	0.202
-631.536	226.510	-0.056	-0.092
-630.522	800.000	-0.073	-0.203
-629.507	237.638	-0.169	-0.283
-628.492	800.000	0.046	-0.187
-627.478	-200.000	0.001	-0.222
-626.463	-96.851	-0.216	0.057
-625.449	71.114	-0.142	-0.148
-624.434	800.000	0.178	-0.516
-623.419	-200.000	-0.001	-0.298
-622.405	-200.000	-0.023	0.296
-621.390	-74.543	0.219	0.080
-620.376	-200.000	-0.057	-0.331
-619.361	-200.000	0.024	-0.225
-618.346	182.167	-0.084	0.125
-617.332	-157.946	0.071	0.004
-616.317	574.933	-0.040	0.099
-615.303	67.780	0.059	0.061
-614.288	800.000	0.031	-0.132
-613.273	14.893	-0.100	-0.079
-612.259	-200.000	-0.019	0.371
-611.244	102.893	-0.173	0.204
-610.230	332.107	-0.205	0.398
-609.215	77.461	-0.238	0.256
-608.201	-87.256	0.019	0.006
-607.186	-119.999	-0.370	-0.064
-606.171	-200.000	0.000	-0.184
-605.157	178.330	-0.126	0.185
-604.142	158.832	-0.047	-0.066
-603.128	-0.878	-0.229	-0.163
-602.113	800.000	0.025	-0.089
-601.098	-75.153	0.142	0.051
-600.084	-200.000	0.026	-0.396
-599.069	-115.116	0.220	-0.042
-598.055	-200.000	0.007	0.197
-597.040	563.245	-0.122	0.297
-596.025	171.011	-0.091	-0.131
-595.011	-20.386	-0.189	0.117
-593.996	88.090	0.169	-0.189
-592.982	-188.971	0.163	0.002
-591.967	49.352	0.156	0.147
-590.952	-113.873	-0.089	0.017
-589.938	273.747	0.179	0.319
-588.923	-12.994	-0.101	-0.066
-587.909	800.000	0.017	0.056
-586.894	8.815	0.049	-0.037
-585.879	-128.375	0.135	0.019
-584.865	82.058	-0.116	-0.127
-583.850	51.426	0.204	0.195
-582.836	800.000	-0.045	0.159
-581.821	212.168	0.194	0.308
-580.806	-8.002	-0.257	-0.174
-579.792	43.659	-0.144	-0.133
-578.777	-20.130	-0.164	-0.102
-577.763	800.000	-0.116	-0.367
-576.748	-72.182	-0.222	-0.083
-575.733	214.805	-0.025	-0.040
-574.719	21.996	0.119	-0.097
-573.704	13.737	0.152	0.119
-572.690	-26.799	0.337	-0.198
-571.675	-97.671	-0.135	-0.035
-570.661	-93.504	-0.172	0.048
-569.646	-200.000	0.041	-0.301
-568.631	206.267	-0.021	0.033
-567.617	-9.548	0.199	0.134
-566.602	-160.724	0.260	-0.014
-565.588	262.997	0.088	0.153
-564.573	-144.422	-0.420	0.039
-563.558	800.000	0.123	-0.477
-562.544	120.835	-0.093	0.116
-561.529	-13.180	0.357	-0.233
-560.515	78.016	-0.211	-0.227
-559.500	-59.463	-0.138	-0.059
-558.485	-50.894	0.416	0.197
-557.471	-128.703	-0.203	-0.029
-556.456	622.215	-0.039	-0.098
-555.442	126.319	-0.178	0.227
-554.427	-43.735	-0.227	-0.115
-553.412	37.662	0.089	0.079
-552.398	-20.525	-0.148	-0.091
-551.383	-161.371	-0.317	0.016
-550.369	175.603	0.273	-0.398
-549.354	-184.530	0.364	-0.006
-548.339	-188.851	-0.239	-0.003
-547.325	15.759	0.205	-0.162
-546.310	-200.000	-0.009	0.103
-545.296	193.333	-0.296	0.450
-544.281	-71.889	-0.146	0.055
-543.266	-200.000	0.006	0.048
-542.252	9.263	0.344	0.261
-541.237	104.576	0.036	0.042
-540.223	6.113	0.290	0.216
-539.208	-112.711	-0.120	-0.024
-538.193	-69.093	0.269	-0.104
-537.179	-200.000	-0.077	-0.436
-536.164	800.000	-0.033	-0.094
-535.150	760.503	0.068	0.185
-534.135	-56.830	0.333	-0.148
-533.121	-144.264	-0.203	-0.019
-532.106	17.812	0.183	0.146
-531.091	800.000	-0.102	0.396
-530.077	-79.760	-0.290	-0.098
-529.062	-157.852	0.035	0.002
-528.048	-123.535	0.355	-0.057
-527.033	203.402	0.194	0.301
-526.018	62.901	-0.141	0.142
-525.004	9.182	-0.310	-0.235
-523.989	800.000	-0.090	-0.372
-522.975	-62.175	-0.187	0.078
-521.960	800.000	0.086	0.240
-520.945	-102.666	-0.124	-0.030
-519.931	-130.223	-0.153	-0.021
-518.916	-200.000	-0.049	-0.214
-517.902	44.607	0.213	0.197
-516.887	-122.914	0.152	-0.025
-515.872	111.127	0.129	-0.156
-514.858	61.617	0.196	-0.196
-513.843	800.000	0.014	-0.038
-512.829	-200.000	-0.003	-0.190
-511.814	109.791	-0.090	-0.109
-510.799	-138.423	0.180	0.020
-509.785	-58.673	0.379	0.165
-508.770	538.409	-0.212	0.505
-507.756	-200.000	0.071	0.320
-506.741	222.603	0.031	0.051
-505.726	-200.000	-0.008	0.125
-504.712	-117.247	-0.225	0.041
-503.697	-112.088	-0.108	-0.022
-502.683	140.682	0.095	0.125
-501.668	237.109	-0.047	0.078
-500.653	417.714	0.064	-0.137
-499.639	149.655	0.028	0.038
-498.624	-30.697	0.413	-0.234
-497.610	20.545	0.172	0.140
-496.595	-200.000	-0.011	-0.145
-495.581	451.693	-0.041	0.091
-494.566	800.000	-0.074	-0.327
-493.551	29.871	-0.228	-0.195
-492.537	800.000	-0.031	0.088
-491.522	800.000	-0.014	0.055
-490.508	72.465	-0.110	-0.115
-489.493	86.078	-0.174	-0.192
-488.478	89.119	-0.048	0.053
-487.464	-101.606	-0.427	-0.104
-486.449	8.607	0.174	0.131
-485.435	556.631	-0.112	0.271
-484.420	800.000	-0.037	0.161
-483.405	-66.728	0.175	-0.070
-482.391	-94.277	-0.263	-0.072
-481.376	-152.774	0.205	0.015
-480.362	-163.957	0.280	-0.013
-479.347	-52.760	0.080	0.037
-478.332	168.351	0.139	-0.199
-477.318	-71.948	-0.235	-0.087
-476.303	-78.308	0.313	0.108
-475.289	800.000	-0.034	-0.148
-474.274	-44.255	-0.110	0.055
-473.259	-93.914	0.244	0.067
-472.245	-200.000	-0.055	0.278
-471.230	-3.599	0.083	0.058
-470.216	230.454	0.114	0.187
-469.201	203.340	-0.157	0.243
-468.186	-89.372	-0.091	-0.027
-467.172	257.680	-0.122	-0.211
-466.157	251.984	0.180	-0.308
-465.143	-156.123	-0.283	-0.018
-464.128	117.939	-0.164	-0.202
-463.113	141.666	-0.097	-0.128
-462.099	-1.548	-0.034	0.024
-461.084	99.385	-0.085	0.098
-460.070	-200.000	-0.076	-0.392
-459.055	42.834	-0.061	-0.056
-458.040	357.856	-0.074	-0.149
-457.026	800.000	-0.013	-0.044
-456.011	-34.040	0.321	-0.177
-454.997	-200.000	-0.034	0.346
-453.982	-46.593	0.126	-0.062
-452.968	-200.000	-0.014	0.089
-451.953	-36.054	0.138	0.075
-450.938	89.512	0.119	-0.133
-449.924	-126.650	0.250	0.037
-448.909	-110.109	-0.286	-0.060
-447.895	-200.000	0.025	0.406
-446.880	18.622	0.144	0.115
-445.865	-17.310	-0.146	-0.092
-444.851	-112.355	0.197	0.039
-443.836	340.521	-0.146	-0.285
-442.822	-162.988	0.157	0.008
-441.807	122.742	-0.036	0.045
-440.792	-200.000	-0.003	0.226
-439.778	758.887	-0.131	0.356
-438.763	-200.000	-0.032	0.216
-437.749	21.743	-0.099	-0.081
-436.734	-69.785	0.311	-0.119
-435.719	-52.289	0.060	-0.028
-434.705	-100.131	0.119	0.030
-433.690	104.113	-0.267	-0.314
-432.676	-200.000	0.000	0.179
-431.661	-128.727	0.385	-0.054
-430.646	278.322	0.109	0.194
-429.632	130.863	-0.180	0.231
-428.617	-200.000	-0.001	0.099
-427.603	-108.844	0.356	-0.076
-426.588	-143.317	-0.145	-0.014
-425.573	800.000	-0.035	0.123
-424.559	-17.945	0.288	-0.181
-423.544	53.438	0.111	0.106
-422.530	-200.000	-0.042	0.223
-421.515	-103.095	0.196	0.046
-420.500	440.599	-0.082	-0.178
-419.486	-200.000	0.032	-0.279
-418.471	-200.000	0.036	-0.272
-417.457	9.105	-0.093	-0.071
-416.442	92.963	-0.175	-0.198
-415.428	-18.308	0.224	-0.140
-414.413	800.000	0.070	-0.209
-413.398	420.239	-0.046	-0.100
-412.384	-200.000	-0.025	0.175
-411.369	-64.578	-0.088	0.036
-410.355	115.293	0.161	-0.197
-409.340	172.597	0.057	-0.081
-408.325	369.252	-0.104	0.211
-407.311	800.000	0.106	0.355
-406.296	168.197	0.298	-0.423
-405.282	-63.607	-0.031	-0.013
-404.267	-200.000	-0.012	0.272
-403.252	-200.000	0.019	0.120
-402.238	272.567	-0.173	0.305
-401.223	-51.000	-0.099	0.047
-400.209	20.742	-0.072	0.058
-399.194	-106.451	-0.320	0.071
-398.179	75.288	0.150	-0.158
-397.165	-61.047	0.039	0.016
-396.150	-62.423	0.222	0.092
-395.136	-23.892	0.127	0.076
-394.121	9.398	-0.216	0.164
-393.106	763.260	0.026	0.071
-392.092	-200.000	-0.052	-0.265
-391.077	-200.000	-0.074	-0.354
-390.063	-200.000	-0.003	0.116
-389.048	191.471	-0.162	0.244
-388.033	-72.837	0.162	-0.059
-387.019	-40.463	-0.293	-0.152
-386.004	34.928	-0.095	0.083
-384.990	181.604	-0.198	-0.291
-383.975	-53.182	0.231	0.106
-382.960	-200.000	0.009	0.172
-381.946	-200.000	-0.278	0.000
-380.931	-200.000	0.006	0.377
-379.917	800.000	0.108	0.350
-378.902	157.654	0.043	-0.059
-377.888	-25.633	-0.324	0.191
-376.873	456.350	-0.199	0.441
-375.858	-35.298	-0.263	-0.143
-374.844	150.693	0.110	0.149
-373.829	-136.634	-0.182	0.021
-372.815	-98.439	0.384	-0.098
-371.800	183.141	0.036	-0.053
-370.785	-107.537	0.427	0.093
-369.771	-59.876	-0.352	-0.150
-368.756	-157.276	0.219	-0.013
-367.742	-107.274	0.152	0.033
-366.727	-155.971	0.225	-0.014
-365.712	800.000	-0.036	0.154
-364.698	-152.830	-0.493	-0.035
-363.683	210.644	-0.027	0.042
-362.669	-200.000	0.013	0.293
-361.654	-9.007	-0.101	0.068
-360.639	11.530	0.322	-0.246
-359.625	186.135	0.193	0.287
-358.610	160.585	-0.058	-0.081
-357.596	137.389	-0.071	-0.093
-356.581	-200.000	-0.024	0.164
-355.566	6.237	-0.189	0.140
-354.552	-200.000	-0.007	-0.139
-353.537	-157.538	-0.120	0.007
-352.523	800.000	-0.084	0.363
-351.508	139.143	0.111	0.146
-350.493	-72.492	-0.028	-0.010
-349.479	-44.126	0.045	0.022
-348.464	-8.395	0.037	-0.025
-347.450	-68.322	0.102	0.039
-346.435	-123.875	-0.092	-0.015
-345.420	800.000	-0.019	0.060
-344.406	706.485	0.063	-0.167
-343.391	-8.737	-0.133	-0.089
-342.377	800.000	-0.026	0.103
-341.362	-200.000	0.005	0.098
-340.348	622.375	-0.054	0.137
-339.333	245.498	-0.074	-0.125
-338.318	-200.000	-0.040	-0.203
-337.304	-200.000	-0.010	-0.206
-336.289	-21.552	0.285	-0.173
-335.275	241.204	0.150	-0.249
-334.260	-200.000	0.019	0.116
-333.245	366.224	0.136	0.273
-332.231	-94.934	0.078	0.021
-331.216	-200.000	-0.001	0.082
-330.202	56.820	0.118	-0.115
-329.187	-170.417	-0.052	0.002
-328.172	200.111	-0.079	-0.121
-327.158	-113.371	0.225	0.044
-326.143	-66.683	0.014	0.005
-325.129	800.000	-0.046	-0.148
-324.114	-200.000	-0.016	0.428
-323.099	3.366	-0.057	0.041
-322.085	-125.123	-0.315	-0.048
-321.070	-156.281	-0.075	-0.005
-320.056	-200.000	-0.013	-0.239
-319.041	-200.000	0.001	-0.363
-318.026	800.000	0.036	0.104
-317.012	92.097	0.199	-0.223
-315.997	132.297	-0.182	-0.234
-314.983	-139.744	0.279	0.030
-313.968	-104.493	0.198	0.046
-312.953	8.602	0.247	0.185
-311.939	247.642	0.266	0.448
-310.924	-49.313	-0.109	-0.052
-309.910	129.436	0.037	0.047
-308.895	325.831	-0.105	0.200
-307.880	186.620	-0.187	0.277
-306.866	-49.872	0.176	-0.083
-305.851	-77.452	-0.030	0.011
-304.837	42.410	0.120	-0.109
-303.822	800.000	-0.027	-0.099
-302.807	800.000	-0.099	-0.394
-301.793	-200.000	0.000	0.106
-300.778	800.000	-0.022	-0.075
-299.764	-200.000	0.025	-0.150
-298.749	29.037	-0.148	-0.125
-297.735	-102.507	0.342	-0.081
-296.720	147.707	-0.123	0.165
-295.705	-49.163	-0.243	0.116
-294.691	149.833	-0.017	0.023
-293.676	-187.313	0.177	-0.002
-292.662	800.000	-0.072	-0.250
-291.647	-200.000	0.009	-0.117
-290.632	800.000	0.134	-0.524
-289.618	-149.521	-0.326	0.026
-288.603	-200.000	-0.039	-0.362
-287.589	54.766	-0.167	-0.160
-286.574	800.000	0.036	-0.109
-285.559	-23.951	-0.115	0.069
-284.545	-103.264	0.310	-0.073
-283.530	-200.000	0.074	-0.432
-282.516	38.339	-0.047	0.042
-281.501	-123.717	-0.225	-0.035
-280.486	800.000	0.080	0.219
-279.472	567.443	-0.025	0.061
-278.457	12.502	0.372	0.286
-277.443	-148.922	0.068	-0.005
-276.428	-108.658	-0.095	-0.020
-275.413	-113.150	-0.083	-0.016
-274.399	800.000	-0.020	0.087
-273.384	-200.000	-0.037	-0.353
-272.370	629.225	0.132	0.331
-271.355	800.000	0.025	-0.106
-270.340	57.698	-0.145	0.141
-269.326	-144.039	0.129	0.012
-268.311	-98.971	0.100	0.025
-267.297	195.930	-0.146	-0.221
-266.282	175.976	-0.081	0.116
-265.267	-200.000	0.004	0.433
-264.253	339.858	-0.094	0.182
-263.238	73.104	-0.148	-0.153
-262.224	-200.000	0.060	0.302
-261.209	45.627	0.199	0.182
-260.195	1.628	0.134	0.096
-259.180	-38.865	-0.131	-0.069
-258.165	-114.333	-0.142	-0.027
-257.151	-200.000	-0.042	0.203
-256.136	-129.692	0.121	-0.017
-255.122	116.010	0.216	-0.262
-254.107	-200.000	-0.016	0.105
-253.092	-58.050	0.151	-0.065
-252.078	-5.120	0.027	-0.019
-251.063	-4.965	-0.150	0.103
-250.049	-66.676	-0.164	0.064
-249.034	-74.029	-0.049	-0.018
-248.019	-200.000	-0.024	-0.200
-247.005	-200.000	-0.009	-0.452
-245.990	-200.000	-0.025	0.202
-244.976	159.588	0.175	0.241
-243.961	140.096	-0.143	-0.187
-242.946	-127.596	0.104	0.015
-241.932	249.909	0.074	0.125
-240.917	-83.141	0.213	0.068
-239.903	800.000	-0.133	-0.556
-238.888	113.458	-0.076	0.091
-237.873	-38.878	-0.322	-0.169
-236.859	-139.916	0.281	0.030
-235.844	54.061	0.159	-0.152
-234.830	375.789	-0.062	-0.125
-233.815	-31.520	0.289	-0.161
-232.800	-41.548	-0.459	0.234
-231.786	800.000	0.074	0.210
-230.771	561.723	0.159	-0.382
-229.757	-175.320	-0.301	0.008
-228.742	36.166	-0.378	0.330
-227.727	-62.751	0.047	-0.019
-226.713	228.758	0.177	0.286
-225.698	-30.351	-0.140	-0.079
-224.684	-102.736	0.141	-0.033
-223.669	287.068	0.088	-0.158
-222.655	31.054	0.131	0.111
-221.640	-11.975	-0.257	-0.167
-220.625	652.428	0.173	-0.440
-219.611	-35.887	0.067	0.036
-218.596	199.000	-0.034	-0.051
-217.582	-200.000	-0.018	-0.097
-216.567	296.485	0.080	0.145
-215.552	580.892	0.148	0.361
-214.538	-54.170	0.096	0.043
-213.523	800.000	-0.024	0.097
-212.509	-176.507	0.244	-0.006
-211.494	-200.000	-0.268	-0.001
-210.479	-113.881	-0.321	0.062
-209.465	-35.067	0.225	0.122
-208.450	-141.532	-0.312	0.031
-207.436	28.539	-0.107	-0.090
-206.421	-53.427	0.085	0.039
-205.406	-200.000	-0.036	-0.253
-204.392	-36.467	-0.146	-0.078
-203.377	-200.000	-0.017	0.146
-202.363	-34.027	-0.092	0.050
-201.348	800.000	-0.067	0.194
-200.333	93.556	-0.075	-0.084
-199.319	800.000	0.046	-0.143
-198.304	-200.000	-0.009	0.103
-197.290	-200.000	0.069	0.424
-196.275	-200.000	-0.008	0.224
-195.260	-50.018	0.231	-0.109
-194.246	28.046	0.137	0.115
-193.231	106.738	0.181	-0.213
-192.217	-93.477	0.179	-0.049
-191.202	-84.237	-0.222	-0.070
-190.187	-200.000	-0.002	0.072
-189.173	-200.000	0.031	-0.142
-188.158	-42.149	-0.106	0.054
-187.144	291.878	0.179	-0.322
-186.129	74.076	0.139	0.144
-185.114	190.826	0.239	-0.356
-184.100	-200.000	-0.023	-0.122
-183.085	-69.714	0.367	0.139
-182.071	800.000	-0.085	0.256
-181.056	-200.000	0.020	-0.112
-180.042	86.567	-0.200	0.218
-179.027	-8.853	0.175	0.116
-178.012	800.000	0.091	-0.303
-176.998	-200.000	0.009	0.232
-175.983	-192.033	-0.342	-0.003
-174.969	-41.940	0.200	-0.101
-173.954	210.128	-0.224	0.348
-172.939	-200.000	-0.012	0.080
-171.925	264.719	-0.110	0.189
-170.910	-25.745	-0.122	0.071
-169.896	50.071	-0.361	-0.338
-168.881	-19.849	0.057	0.035
-167.866	-200.000	0.012	-0.327
-166.852	-83.613	-0.122	0.039
-165.837	-117.813	0.329	0.058
-164.823	-137.444	-0.099	-0.011
-163.808	-55.079	0.161	0.072
-162.793	-179.137	0.264	0.006
-161.779	133.460	-0.104	-0.133
-160.764	11.614	0.031	-0.023
-159.750	105.006	-0.185	0.217
-158.735	-46.445	0.095	-0.046
-157.720	-75.584	-0.151	0.053
-156.706	15.417	-0.168	0.130
-155.691	85.281	-0.092	0.100
-154.677	96.006	-0.265	0.300
-153.662	-155.566	0.205	-0.013
-152.647	-200.000	-0.021	0.218
-151.633	800.000	0.098	0.320
-150.618	-111.279	0.087	0.018
-149.604	-200.000	-0.005	-0.177
-148.589	-200.000	-0.004	-0.106
-147.574	-43.483	0.107	-0.054
-146.560	257.935	-0.069	-0.118
-145.545	800.000	-0.063	0.174
-144.531	-134.677	0.306	-0.037
-143.516	-132.133	0.378	0.048
-142.502	-136.184	-0.154	0.018
-141.487	-83.531	0.316	0.100
-140.472	-125.186	0.290	-0.044
-139.458	-65.355	0.243	0.097
-138.443	800.000	0.091	0.369
-137.429	-200.000	-0.150	-0.000
-136.414	-200.000	-0.021	0.370
-135.399	42.119	-0.271	-0.243
-134.385	-64.194	0.153	0.062
-133.370	-64.139	0.271	0.109
-132.356	202.007	0.085	-0.130
-131.341	-200.000	0.001	0.045
-130.326	-200.000	-0.018	0.194
-129.312	152.112	0.040	0.054
-128.297	-200.000	0.008	-0.244
-127.283	19.774	0.133	0.106
-126.268	-15.984	-0.310	-0.195
-125.253	113.275	-0.096	0.116
-124.239	-200.000	-0.014	-0.102
-123.224	-152.456	-0.361	0.026
-122.210	473.170	-0.040	0.090
-121.195	-80.310	-0.171	-0.056
-120.180	16.040	0.073	0.057
-119.166	-117.794	-0.058	0.010
-118.151	-58.814	-0.266	-0.114
-117.137	133.500	0.082	0.105
-116.122	-200.000	-0.025	-0.228
-115.107	-200.000	0.047	0.280
-114.093	800.000	0.110	-0.403
-113.078	430.160	0.042	0.089
-112.064	-132.842	-0.086	-0.011
-111.049	352.062	-0.145	-0.284
-110.034	82.270	-0.255	-0.273
-109.020	800.000	-0.056	-0.230
-108.005	-143.813	-0.165	-0.015
-106.991	123.549	0.158	0.196
-105.976	63.389	0.111	0.110
-104.962	1.988	0.262	-0.187
-103.947	402.080	-0.093	-0.193
-102.932	57.128	0.071	0.069
-101.918	207.324	-0.204	-0.314
-100.903	-200.000	0.039	-0.268
-99.889	-200.000	0.032	0.160
-98.874	-154.021	0.378	-0.025
-97.859	-97.244	-0.318	0.082
-96.845	340.375	0.049	0.095
-95.830	-200.000	-0.022	-0.116
-94.816	166.523	0.105	-0.147
-93.801	33.574	0.113	0.097
-92.786	800.000	0.047	-0.135
-91.772	-91.932	0.448	0.125
-90.757	800.000	0.021	0.084
-89.743	26.697	0.028	-0.023
-88.728	-200.000	0.042	0.205
-87.713	-53.304	-0.158	-0.072
-86.699	518.867	-0.021	-0.049
-85.684	800.000	-0.094	0.266
-84.670	800.000	-0.095	0.342
-83.655	-39.706	0.101	-0.052
-82.640	-53.969	-0.103	0.046
-81.626	212.835	-0.100	0.156
-80.611	160.141	-0.056	0.076
-79.597	800.000	-0.049	-0.190
-78.582	272.313	-0.043	0.074
-77.567	800.000	-0.059	-0.240
-76.553	609.558	-0.127	-0.313
-75.538	-122.069	0.090	-0.015
-74.524	-200.000	0.048	-0.224
-73.509	-100.798	0.265	0.064
-72.494	-52.425	0.125	0.057
-71.480	274.062	-0.133	-0.232
-70.465	-26.412	0.118	0.069
-69.451	800.000	-0.040	-0.128
-68.436	33.769	-0.079	-0.067
-67.422	-33.945	0.070	0.038
-66.407	-154.412	-0.309	-0.020
-65.392	-43.954	-0.142	0.070
-64.378	-83.304	0.461	0.146
-63.363	-127.635	0.121	-0.017
-62.349	-200.000	0.025	0.170
-61.334	99.042	-0.856	-0.975
-60.319	106.123	0.088	0.103
-59.305	-200.000	-0.143	-0.718
-58.290	146.256	0.736	0.973
-57.276	-200.000	0.325	1.457
-56.261	-200.000	96.886	579.202
-55.246	655.619	1390.939	3521.161
-54.232	186.720	2613.619	3837.198
-53.217	117.298	2308.250	2797.153
-52.203	44.819	1921.034	1742.367
-51.188	38.396	1706.883	1499.056
-50.173	35.501	1661.880	1437.828
-49.159	52.484	1710.995	1609.737
-48.144	56.283	1728.288	1654.765
-47.130	38.033	1684.649	1476.544
-46.115	35.099	1669.448	1441.124
-45.100	34.947	1664.722	1435.845
-44.086	34.877	1661.858	1432.794
-43.071	34.939	1658.873	1430.628
-42.057	34.869	1656.959	1428.399
-41.042	34.868	1654.787	1426.464
-40.027	34.804	1653.279	1424.628
-39.013	34.906	1650.335	1422.791
-37.998	34.848	1649.349	1421.455
-36.984	34.954	1647.549	1420.634
-35.969	35.011	1646.315	1419.941
-34.954	35.052	1644.368	1418.508
-33.940	35.066	1643.205	1417.550
-32.925	34.951	1641.550	1415.218
-31.911	34.914	1639.368	1413.004
-30.896	34.969	1637.837	1412.039
-29.881	35.011	1636.158	1410.845
-28.867	35.045	1634.423	1409.538
-27.852	35.014	1632.738	1407.806
-26.838	35.006	1631.375	1406.511
-25.823	34.989	1629.881	1405.043
-24.809	35.011	1628.367	1403.846
-23.794	35.080	1626.961	1403.079
-22.779	35.050	1625.293	1401.366
-21.765	34.885	1624.597	1399.503
-20.750	35.097	1621.899	1398.677
-19.736	35.067	1620.444	1397.146
-18.721	35.020	1619.179	1395.655
-17.706	34.959	1617.987	1394.132
-16.692	34.996	1616.161	1392.773
-15.677	34.958	1615.002	1391.441
-14.663	35.007	1613.499	1390.447
-13.648	35.040	1611.946	1389.291
-12.633	35.042	1610.480	1387.984
-11.619	35.047	1609.267	1386.923
-10.604	35.127	1607.096	1385.573
-9.590	35.078	1606.518	1384.667
-8.575	35.014	1604.748	1382.627
-7.560	35.033	1603.573	1381.696
-6.546	34.949	1602.950	1380.499
-5.531	35.061	1601.226	1379.762
-4.517	35.099	1600.004	1378.930
-3.502	35.013	1599.515	1377.835
-2.487	35.183	1597.077	1376.902
-1.473	34.822	1585.968	1364.693
-0.458	31.564	1565.567	1324.078
0.556	29.589	1564.382	1284.094
1.571	26.493	1588.047	1281.520
2.586	25.455	1600.161	1283.770
3.600	22.369	1547.014	1219.668
4.615	13.871	1437.139	1077.997
5.629	6.120	1371.866	980.733
6.644	4.688	1363.141	965.528
7.659	4.700	1361.962	964.682
8.673	4.866	1360.565	964.639
9.688	4.796	1359.670	963.485
10.702	4.701	1357.181	961.047
11.717	8.429	1363.774	988.732
12.731	16.831	1379.784	1052.653
13.746	22.266	1387.698	1092.453
14.761	22.506	1387.421	1093.631
15.775	21.738	1384.746	1086.663
16.790	20.741	1381.617	1077.942
17.804	19.976	1379.976	1071.837
18.819	19.669	1378.408	1068.622
19.834	19.330	1377.529	1065.749
20.848	19.233	1376.347	1064.143
21.863	19.087	1375.361	1062.387
22.877	18.940	1374.399	1060.641
23.892	18.928	1373.166	1059.524
24.907	18.870	1372.238	1058.357
25.921	18.914	1371.820	1058.211
26.936	18.964	1370.788	1057.631
27.950	19.017	1369.908	1057.179
28.965	19.085	1368.824	1056.668
29.980	19.148	1367.619	1056.031
30.994	19.368	1366.084	1056.100
32.009	19.336	1365.112	1055.058
33.023	19.268	1364.160	1053.814
34.038	19.187	1362.605	1052.026
35.053	19.060	1361.837	1050.563
36.067	19.059	1360.255	1049.246
37.082	19.120	1359.419	1048.880
38.096	19.156	1358.428	1048.243
39.111	19.111	1358.274	1047.753
40.126	19.124	1356.670	1046.506
41.140	18.840	1355.921	1044.106
42.155	18.662	1355.355	1042.496
43.169	18.587	1355.321	1041.924
44.184	18.596	1355.007	1041.644
45.199	18.655	1354.663	1041.647
46.213	18.944	1353.944	1042.758
47.228	19.061	1352.981	1042.629
48.242	19.031	1352.713	1042.153
49.257	18.977	1350.721	1040.196
50.271	18.965	1349.401	1039.014
51.286	19.001	1347.900	1037.984
52.301	19.088	1346.144	1037.064
53.315	18.902	1345.424	1035.300
54.330	18.841	1343.983	1033.734
55.344	18.791	1343.048	1032.621
56.359	18.762	1342.110	1031.630
57.374	18.761	1341.394	1030.988
58.388	18.614	1340.596	1029.399
59.403	18.653	1340.161	1029.210
60.417	18.548	1339.313	1027.834
61.432	18.664	1338.598	1027.892
62.447	18.505	1336.946	1025.579
63.461	18.421	1336.285	1024.483
64.476	18.436	1335.039	1023.523
65.490	18.443	1333.826	1022.545
66.505	18.486	1332.414	1021.627
67.520	18.455	1331.109	1020.352
68.534	18.461	1330.460	1019.802
69.549	18.473	1329.103	1018.743
70.563	18.427	1328.237	1017.716
71.578	18.425	1326.641	1016.388
72.593	18.330	1325.718	1015.030
73.607	18.267	1325.343	1014.281
74.622	18.269	1324.729	1013.729
75.636	18.240	1323.944	1012.867
76.651	18.389	1322.691	1012.705
77.666	18.373	1322.719	1012.539
78.680	18.361	1322.767	1012.419
79.695	18.407	1322.147	1012.123
80.709	18.601	1320.960	1012.271
81.724	18.718	1320.301	1012.364
82.739	18.842	1319.184	1012.151
83.753	18.925	1318.883	1012.317
84.768	19.144	1317.661	1012.578
85.782	19.133	1317.060	1011.965
86.797	19.164	1315.563	1010.907
87.812	19.049	1314.258	1009.137
88.826	19.029	1313.117	1008.056
89.841	19.041	1312.084	1007.246
90.855	19.182	1311.002	1007.147
91.870	19.225	1310.654	1007.042
92.884	19.308	1309.465	1006.524
93.899	19.208	1309.045	1005.528
94.914	19.242	1308.772	1005.428
95.928	19.243	1307.513	1004.380
96.943	19.251	1305.952	1003.140
97.957	19.150	1305.405	1002.041
98.972	19.123	1304.248	1000.905
99.987	19.145	1303.384	1000.286
101.001	19.248	1302.346	999.994
102.016	19.218	1301.181	998.840
103.030	19.188	1300.881	998.345
104.045	19.137	1300.283	997.506
105.060	19.085	1298.574	995.807
106.074	18.810	1297.155	993.041
107.089	18.553	1295.569	990.255
108.103	18.483	1294.326	988.813
109.118	18.450	1293.041	987.553
110.133	18.469	1291.643	986.505
111.147	18.543	1290.000	985.590
112.162	18.648	1288.929	985.286
113.176	18.576	1288.313	984.317
114.191	18.705	1287.245	984.155
115.206	18.720	1286.091	983.269
116.220	18.679	1284.739	981.914
117.235	18.750	1283.709	981.448
118.249	18.591	1282.959	979.878
119.264	18.498	1282.070	978.579
120.279	18.561	1280.228	977.448
121.293	18.363	1279.652	975.794
122.308	18.358	1278.214	974.579
123.322	18.355	1277.285	973.770
124.337	18.432	1276.052	973.179
125.352	18.364	1275.077	971.966
126.366	18.483	1273.818	971.596
127.381	18.339	1272.998	970.066
128.395	18.462	1271.895	969.836
129.410	18.343	1271.146	968.510
130.424	18.404	1270.704	968.430
131.439	18.669	1269.479	968.906
132.454	18.525	1268.748	967.450
133.468	18.689	1268.002	967.718
134.483	18.590	1267.374	966.597
135.497	18.703	1266.355	966.374
136.512	18.680	1264.795	964.964
137.527	18.783	1263.633	964.574
138.541	18.837	1262.205	963.698
139.556	18.860	1261.205	962.979
140.570	18.968	1260.258	962.780
141.585	18.983	1259.062	961.861
142.600	18.983	1258.409	961.280
143.614	19.117	1257.524	961.266
144.629	19.196	1256.430	960.784
145.643	19.142	1255.050	959.343
146.658	19.072	1253.548	957.718
147.673	18.899	1252.491	955.866
148.687	18.872	1250.804	954.343
149.702	18.661	1249.691	952.238
150.716	18.590	1248.628	950.950
151.731	18.651	1246.862	949.860
152.746	18.732	1245.977	949.552
153.760	18.709	1245.328	948.842
154.775	18.914	1243.793	948.722
155.789	19.005	1242.706	948.312
156.804	18.982	1242.070	947.617
157.819	19.076	1241.372	947.515
158.833	19.189	1240.095	947.079
159.848	19.219	1239.558	946.753
160.862	19.217	1238.637	945.950
161.877	19.036	1237.116	943.713
162.892	18.799	1236.224	941.654
163.906	18.764	1235.054	940.485
164.921	18.797	1234.182	939.921
165.935	18.894	1233.291	939.690
166.950	18.945	1232.447	939.241
167.964	18.899	1232.493	938.940
168.979	18.785	1231.380	937.386
169.994	18.930	1230.445	937.385
171.008	18.765	1230.096	936.134
172.023	19.085	1228.801	936.809
173.037	19.170	1228.876	937.248
174.052	19.193	1227.438	936.190
175.067	18.860	1226.446	933.540
176.081	18.706	1225.586	931.972
177.096	18.747	1224.212	931.065
178.110	18.921	1222.942	930.959
179.125	18.855	1222.369	930.086
180.140	18.912	1221.152	929.385
181.154	19.022	1219.837	928.895
182.169	19.082	1219.029	928.522
183.183	19.231	1217.648	928.190
184.198	19.285	1216.501	927.525
185.213	19.312	1215.379	926.730
186.227	19.374	1214.507	926.320
187.242	19.370	1213.648	925.559
188.256	19.484	1212.712	925.374
189.271	19.501	1211.820	924.701
190.286	19.299	1210.769	922.735
191.300	18.880	1209.372	919.353
192.315	18.684	1208.693	917.705
193.329	18.780	1208.187	917.752
194.344	18.885	1207.817	917.951
195.359	19.021	1207.133	918.073
196.373	19.036	1207.029	917.998
197.388	19.238	1206.174	918.340
198.402	19.340	1206.223	918.839
199.417	19.637	1205.461	919.759
200.432	19.651	1204.935	919.350
201.446	19.679	1203.772	918.532
202.461	19.843	1202.827	918.599
203.475	19.781	1202.151	917.672
204.490	19.565	1200.836	915.445
205.504	19.476	1199.016	913.503
206.519	19.334	1198.421	912.217
207.534	19.424	1196.814	911.393
208.548	19.328	1196.231	910.359
209.563	19.394	1195.380	909.982
210.577	19.313	1194.731	908.978
211.592	19.553	1193.944	909.560
212.607	19.541	1193.030	908.725
213.621	19.575	1192.682	908.555
214.636	19.515	1191.253	907.070
215.650	19.599	1190.317	906.722
216.665	19.634	1189.778	906.410
217.680	19.726	1189.308	906.456
218.694	19.830	1188.173	906.056
219.709	19.843	1187.142	905.260
220.723	19.769	1186.706	904.457
221.738	19.813	1185.295	903.535
222.753	19.737	1184.806	902.683
223.767	19.805	1184.316	902.587
224.782	19.890	1183.824	902.576
225.796	19.975	1183.410	902.622
226.811	19.980	1182.427	901.821
227.826	19.724	1181.891	899.998
228.840	19.702	1180.826	898.990
229.855	19.815	1179.930	898.817
230.869	19.638	1179.313	897.348
231.884	19.635	1178.093	896.326
232.899	19.709	1177.728	896.352
233.913	19.532	1177.030	894.823
234.928	19.475	1176.302	893.894
235.942	19.460	1175.146	892.859
236.957	19.529	1174.195	892.415
237.972	19.490	1173.983	891.973
238.986	19.459	1173.286	891.208
240.001	19.591	1172.323	891.076
241.015	19.627	1171.431	890.504
242.030	19.582	1170.720	889.654
243.045	19.651	1169.938	889.338
244.059	19.702	1169.656	889.308
245.074	19.784	1168.335	888.642
246.088	19.841	1167.905	888.534
247.103	19.944	1167.234	888.468
248.117	20.014	1166.636	888.295
249.132	20.237	1165.840	888.754
250.147	20.284	1165.953	889.002
251.161	20.539	1164.922	889.441
252.176	20.475	1164.273	888.543
253.190	20.486	1164.087	888.376
254.205	20.629	1163.239	888.382
255.220	20.681	1162.527	888.023
256.234	20.648	1161.893	887.293
257.249	20.693	1161.140	886.866
258.263	20.456	1160.985	885.462
259.278	20.584	1159.943	885.243
260.293	20.479	1159.507	884.296
261.307	20.695	1158.683	884.691
262.322	20.735	1158.268	884.499
263.336	20.763	1157.343	883.852
264.351	20.740	1157.059	883.444
265.366	20.721	1156.275	882.670
266.380	20.682	1155.680	881.939
267.395	20.605	1155.080	881.014
268.409	20.607	1153.681	879.877
269.424	20.533	1153.055	878.948
270.439	20.524	1152.613	878.491
271.453	20.588	1151.443	877.842
272.468	20.472	1150.522	876.480
273.482	20.384	1149.851	875.446
274.497	20.475	1149.576	875.617
275.512	20.510	1148.612	874.982
276.526	20.486	1148.237	874.499
277.541	20.377	1147.738	873.491
278.555	20.464	1146.953	873.256
279.570	20.711	1146.115	873.779
280.585	20.831	1145.675	873.970
281.599	20.738	1144.564	872.579
282.614	20.689	1143.061	871.108
283.628	20.708	1141.628	870.037
284.643	20.644	1141.324	869.405
285.657	20.587	1140.440	868.374
286.672	20.569	1139.400	867.412
287.687	20.591	1138.712	866.921
288.701	20.581	1137.994	866.251
289.716	20.631	1137.291	865.885
290.730	20.670	1136.486	865.392
291.745	20.654	1135.806	864.716
292.760	20.681	1135.124	864.255
293.774	20.767	1134.829	864.381
294.789	20.843	1134.313	864.291
295.803	20.962	1133.416	864.118
296.818	20.853	1132.547	862.838
297.833	20.792	1131.646	861.777
298.847	20.713	1131.007	860.820
299.862	20.743	1130.147	860.241
300.876	20.797	1129.788	860.155
301.891	20.918	1129.019	860.094
302.906	21.098	1128.323	860.375
303.920	21.077	1127.630	859.666
304.935	21.116	1127.460	859.654
305.949	21.265	1126.559	859.622
306.964	21.260	1126.402	859.401
307.979	21.121	1125.273	857.784
308.993	21.086	1124.496	856.940
310.008	21.118	1123.532	856.286
311.022	21.225	1123.243	856.517
312.037	21.211	1122.257	855.619
313.052	21.184	1120.472	854.053
314.066	21.043	1119.506	852.551
315.081	20.877	1118.619	850.990
316.095	20.843	1118.049	850.315
317.110	20.701	1118.189	849.651
318.125	20.764	1117.152	849.098
319.139	20.753	1116.483	848.461
320.154	20.805	1115.591	847.961
321.168	20.778	1115.134	847.405
322.183	20.952	1114.351	847.583
323.197	20.990	1113.910	847.356
324.212	20.984	1113.377	846.848
325.227	20.845	1113.410	846.120
326.241	20.916	1112.288	845.538
327.256	20.962	1110.897	844.628
328.270	20.915	1109.835	843.522
329.285	20.866	1109.295	842.799
330.300	20.932	1108.279	842.271
331.314	20.949	1107.133	841.405
332.329	20.919	1106.696	840.857
333.343	21.042	1105.710	840.625
334.358	21.114	1104.949	840.321
335.373	21.271	1104.525	840.676
336.387	21.233	1103.683	839.781
337.402	21.233	1103.326	839.434
338.416	21.373	1102.391	839.318
339.431	21.363	1102.218	839.067
340.446	21.486	1101.165	838.778
341.460	21.518	1100.792	838.575
342.475	21.603	1100.067	838.356
343.489	21.705	1099.201	838.110
344.504	21.746	1098.368	837.597
345.519	21.764	1097.875	837.233
346.533	21.856	1096.500	836.547
347.548	21.817	1096.075	835.963
348.562	21.848	1095.264	835.419
349.577	21.623	1094.123	833.405
350.592	21.437	1093.366	831.870
351.606	21.412	1092.402	830.941
352.621	21.195	1092.166	829.661
353.635	21.314	1091.512	829.657
354.650	21.356	1090.505	829.014
355.665	21.332	1089.560	828.109
356.679	21.405	1089.049	827.993
357.694	21.432	1088.857	827.903
358.708	21.578	1087.820	827.729
359.723	21.570	1087.424	827.319
360.738	21.531	1087.154	826.854
361.752	21.581	1086.617	826.611
362.767	21.762	1085.336	826.414
363.781	21.806	1085.151	826.409
364.796	21.881	1084.263	826.014
365.810	21.920	1084.419	826.243
366.825	22.052	1083.575	826.148
367.840	22.120	1083.190	826.100
368.854	22.192	1082.553	825.879
369.869	22.146	1081.913	825.102
370.883	21.963	1081.425	823.797
371.898	21.948	1079.909	822.498
372.913	21.927	1079.435	821.966
373.927	22.015	1079.164	822.100
374.942	22.098	1078.907	822.221
375.956	22.118	1078.421	821.871
376.971	21.934	1077.616	820.323
377.986	22.161	1076.831	820.716
379.000	22.194	1076.488	820.533
380.015	22.324	1075.967	820.671
381.029	22.367	1075.114	820.147
382.044	22.315	1074.708	819.523
383.059	22.246	1074.299	818.818
384.073	22.294	1073.020	817.995
385.088	22.341	1072.455	817.709
386.102	22.232	1071.191	816.170
387.117	22.153	1070.169	814.951
388.132	21.893	1069.068	812.834
389.146	22.070	1068.202	812.925
390.161	21.879	1067.760	811.632
391.175	22.017	1066.710	811.399
392.190	22.215	1066.263	811.903
393.205	22.147	1065.883	811.227
394.219	22.167	1065.229	810.750
395.234	22.127	1063.868	809.460
396.248	22.115	1062.790	808.512
397.263	22.081	1061.602	807.378
398.278	21.968	1060.909	806.264
399.292	21.980	1060.108	805.639
400.307	21.884	1059.595	804.738
401.321	21.858	1059.262	804.291
402.336	21.920	1058.235	803.725
403.350	21.984	1057.386	803.301
404.365	22.073	1056.828	803.216
405.380	22.055	1056.559	802.859
406.394	22.208	1055.492	802.673
407.409	22.305	1054.626	802.385
408.423	22.383	1054.256	802.389
409.438	22.394	1053.815	802.031
410.453	22.511	1053.262	802.076
411.467	22.657	1052.027	801.726
412.482	22.673	1051.611	801.411
413.496	22.634	1051.258	800.895
414.511	22.739	1050.614	800.809
415.526	22.788	1050.634	800.977
416.540	22.964	1049.910	801.152
417.555	22.856	1049.271	800.104
418.569	22.727	1048.963	799.215
419.584	22.666	1048.529	798.535
420.599	22.722	1047.664	798.059
421.613	154.617	1400.763	1789.458
422.628	141.767	1452.234	1789.585
