DTS Sentinel unit serial number:	SN413079Multiplexer serial number:	ORYXHardware model number:	OX4-SRSoftware version number:	ORYX F/W v4.00 Oryx Data Collector v3.7.2.0data status	okinstallation	princeton_trtdifferential loss correction	single-endedforward channel	channel 2reverse channel	N/Adate	2019/09/14time	01:23:35forward acquisition time	60.00reverse acquisition time	0.00gamma	496.2192k internal	0.2338k external	0.2338temperature offset calibration	1.0123default loss term (dB/km)	0.3790temperature slope calibration	1.0000multiplexer offset coefficient	1.0000multiplexer slope coefficient	1.0000fibre end	0.00T internal ref (°C)	26.42T ext. ref 1 (°C)	3.18T ext. ref 2 (°C)	21.47length (m)	temperature (°C)	Stokes	anti-Stokes-747.200	-52.274	0.065	-0.030
-746.185	-200.000	-0.062	0.316
-745.171	-6.545	0.080	0.055
-744.156	29.367	-0.140	0.120
-743.142	-200.000	0.014	0.193
-742.127	-200.000	-0.021	0.177
-741.112	57.120	-0.129	-0.126
-740.098	-141.827	-0.546	-0.055
-739.083	-50.359	0.074	0.035
-738.069	-105.802	-0.154	-0.035
-737.054	-13.241	0.163	-0.106
-736.039	-81.411	-0.257	0.085
-735.025	-23.070	0.092	0.056
-734.010	39.717	0.042	-0.038
-732.996	-96.127	-0.229	0.061
-731.981	-107.087	-0.346	0.077
-730.966	102.517	-0.186	-0.219
-729.952	-41.426	0.027	0.014
-728.937	-103.318	-0.200	0.047
-727.923	99.864	-0.145	0.169
-726.908	-200.000	0.035	-0.215
-725.894	375.762	0.093	0.190
-724.879	43.111	0.109	0.100
-723.864	-118.135	0.226	0.040
-722.850	71.030	-0.088	0.092
-721.835	-180.454	0.377	-0.008
-720.821	-22.908	-0.284	0.172
-719.806	-200.000	-0.017	-0.125
-718.791	800.000	-0.049	-0.185
-717.777	-76.677	0.189	0.066
-716.762	-200.000	0.020	-0.101
-715.748	800.000	0.046	0.201
-714.733	-200.000	-0.281	0.000
-713.718	172.586	-0.211	-0.305
-712.704	654.222	-0.076	-0.195
-711.689	456.659	-0.044	0.098
-710.675	-112.864	-0.358	-0.071
-709.660	152.630	-0.149	0.204
-708.645	-74.590	-0.310	0.112
-707.631	-59.239	-0.031	0.013
-706.616	-194.974	-0.185	-0.001
-705.602	-43.249	0.355	-0.180
-704.587	8.815	-0.138	0.104
-703.572	-200.000	0.017	-0.208
-702.558	-116.837	-0.157	0.029
-701.543	121.633	0.235	0.294
-700.529	-21.804	0.280	-0.170
-699.514	-51.285	0.270	0.126
-698.499	8.595	-0.125	0.095
-697.485	800.000	0.093	0.282
-696.470	800.000	0.099	0.346
-695.456	-200.000	0.012	-0.134
-694.441	-200.000	0.007	-0.356
-693.426	-169.529	-0.121	-0.004
-692.412	-32.666	-0.485	0.271
-691.397	42.825	0.091	-0.083
-690.383	-125.123	-0.086	0.013
-689.368	-96.419	0.213	-0.056
-688.354	-114.124	-0.436	0.084
-687.339	-200.000	-0.020	0.173
-686.324	-200.000	-0.009	0.109
-685.310	48.077	-0.147	0.138
-684.295	37.557	0.020	-0.018
-683.281	24.290	-0.096	0.080
-682.266	-92.422	0.165	-0.046
-681.251	800.000	-0.055	0.194
-680.237	324.318	0.051	0.097
-679.222	277.045	-0.207	0.368
-678.208	-200.000	-0.002	-0.253
-677.193	82.038	-0.074	-0.080
-676.178	-6.615	0.415	0.283
-675.164	170.572	-0.085	-0.121
-674.149	66.348	0.076	0.077
-673.135	57.484	-0.098	-0.096
-672.120	79.674	-0.174	-0.187
-671.105	-86.152	-0.145	-0.045
-670.091	468.939	0.048	-0.108
-669.076	129.424	-0.066	-0.085
-668.062	-200.000	-0.040	-0.420
-667.047	-200.000	-0.005	-0.088
-666.032	-200.000	-0.201	-0.000
-665.018	8.266	0.068	-0.051
-664.003	-36.185	-0.345	-0.186
-662.989	13.444	-0.116	-0.090
-661.974	-141.973	-0.175	0.017
-660.959	800.000	-0.104	-0.303
-659.945	-129.514	0.125	-0.017
-658.930	71.229	0.086	0.090
-657.916	-200.000	-0.046	-0.223
-656.901	800.000	0.085	0.244
-655.886	-200.000	-0.022	-0.138
-654.872	-20.873	0.297	0.182
-653.857	-200.000	0.000	0.205
-652.843	-45.385	-0.201	-0.100
-651.828	-139.513	0.073	-0.008
-650.814	19.948	-0.027	0.022
-649.799	44.619	-0.206	-0.190
-648.784	-156.118	0.353	0.022
-647.770	-109.413	-0.159	0.034
-646.755	-46.174	0.047	0.023
-645.741	61.536	0.146	0.146
-644.726	27.796	-0.333	-0.281
-643.711	21.692	-0.130	0.106
-642.697	80.887	0.192	-0.207
-641.682	-105.860	0.231	-0.052
-640.668	-200.000	-0.037	0.211
-639.653	-68.385	0.017	-0.007
-638.638	-30.319	-0.176	0.100
-637.624	-79.174	0.233	0.079
-636.609	160.910	0.208	-0.290
-635.595	256.700	-0.213	-0.366
-634.580	-11.442	-0.186	-0.122
-633.565	-200.000	-0.040	-0.199
-632.551	-200.000	0.025	-0.127
-631.536	33.175	-0.265	-0.229
-630.522	-33.206	0.052	-0.029
-629.507	-0.119	0.320	0.228
-628.492	-200.000	-0.032	0.225
-627.478	34.344	0.080	-0.070
-626.463	216.817	0.149	0.237
-625.449	-39.575	0.132	0.069
-624.434	800.000	0.044	-0.176
-623.419	-41.193	-0.102	-0.053
-622.405	-167.816	0.170	0.007
-621.390	800.000	-0.071	0.208
-620.376	-50.687	0.329	0.155
-619.361	114.631	-0.122	-0.148
-618.346	1.356	0.458	-0.329
-617.332	800.000	0.045	-0.184
-616.317	-149.220	0.037	-0.003
-615.303	800.000	-0.101	-0.317
-614.288	-200.000	-0.025	0.407
-613.273	60.059	-0.040	-0.039
-612.259	-6.671	0.156	-0.106
-611.244	126.924	-0.084	0.106
-610.230	-200.000	0.006	-0.178
-609.215	-200.000	-0.004	-0.121
-608.201	-91.985	-0.206	-0.058
-607.186	-200.000	0.007	0.111
-606.171	650.635	0.073	0.188
-605.157	154.264	0.048	-0.066
-604.142	800.000	0.042	-0.164
-603.128	-90.900	-0.239	0.069
-602.113	-90.036	-0.276	-0.080
-601.098	-200.000	-0.032	0.412
-600.084	291.269	0.150	0.272
-599.069	270.281	-0.186	-0.327
-598.055	-26.028	0.139	-0.082
-597.040	140.014	-0.191	0.252
-596.025	-200.000	0.077	-0.340
-595.011	-200.000	-0.000	0.028
-593.996	-85.189	0.254	0.079
-592.982	736.962	0.021	0.055
-591.967	196.824	-0.283	-0.430
-590.952	76.740	-0.090	-0.095
-589.938	122.895	0.058	0.073
-588.923	257.375	0.170	-0.292
-587.909	-28.565	-0.251	-0.144
-586.894	557.140	0.092	0.222
-585.879	-85.519	-0.416	0.129
-584.865	-106.132	0.153	0.034
-583.850	788.501	-0.126	-0.346
-582.836	242.556	0.210	-0.351
-581.821	4.554	0.178	0.130
-580.806	15.347	-0.203	-0.159
-579.792	59.968	-0.054	0.053
-578.777	70.228	0.182	0.187
-577.763	42.614	-0.266	-0.241
-576.748	144.628	0.134	-0.179
-575.733	19.154	-0.202	0.162
-574.719	577.623	-0.085	-0.208
-573.704	-81.820	-0.298	0.097
-572.690	800.000	-0.038	0.109
-571.675	326.659	-0.103	0.198
-570.661	-15.690	0.135	-0.086
-569.646	-104.978	0.188	-0.043
-568.631	-200.000	0.035	0.161
-567.617	-92.954	-0.150	0.042
-566.602	-63.702	0.025	-0.010
-565.588	428.357	0.159	-0.341
-564.573	209.834	-0.050	-0.079
-563.558	-76.863	0.317	0.110
-562.544	-136.014	-0.166	0.019
-561.529	355.228	0.055	0.108
-560.515	-200.000	0.013	-0.183
-559.500	-108.105	-0.114	0.025
-558.485	579.327	0.059	0.144
-557.471	-138.083	-0.101	0.011
-556.456	-104.554	0.138	0.032
-555.442	800.000	-0.028	-0.082
-554.427	-16.435	0.176	-0.111
-553.412	157.622	-0.215	0.297
-552.398	-57.594	0.304	0.133
-551.383	-200.000	0.032	0.167
-550.369	-110.661	0.212	-0.044
-549.354	50.885	-0.212	-0.200
-548.339	-79.899	0.457	-0.153
-547.325	-200.000	0.003	0.100
-546.310	-74.682	0.201	0.072
-545.296	309.941	-0.118	0.220
-544.281	-128.367	-0.378	-0.054
-543.266	174.676	0.194	-0.280
-542.252	-82.451	0.065	-0.021
-541.237	-81.373	-0.133	-0.044
-540.223	51.205	0.151	0.143
-539.208	696.654	-0.010	0.026
-538.193	-2.755	-0.278	-0.193
-537.179	18.893	0.234	0.186
-536.164	-20.701	-0.037	0.023
-535.150	-35.919	-0.205	0.111
-534.135	195.328	-0.078	-0.118
-533.121	-200.000	-0.029	0.241
-532.106	-200.000	0.001	-0.144
-531.091	319.410	0.113	0.213
-530.077	800.000	0.022	-0.078
-529.062	800.000	0.049	-0.136
-528.048	288.538	-0.115	0.208
-527.033	-118.808	-0.104	-0.018
-526.018	-200.000	0.003	-0.256
-525.004	-37.160	-0.480	-0.256
-523.989	552.415	0.078	0.186
-522.975	-67.013	-0.234	0.092
-521.960	-125.193	0.047	-0.007
-520.945	143.696	-0.196	0.259
-519.931	-200.000	0.046	-0.300
-518.916	56.905	0.184	0.178
-517.902	206.368	-0.135	0.209
-516.887	601.128	-0.057	0.142
-515.872	296.077	-0.060	-0.109
-514.858	288.005	0.135	0.242
-513.843	28.529	-0.175	0.147
-512.829	262.962	0.157	0.272
-511.814	-200.000	0.008	-0.123
-510.799	-200.000	-0.043	0.189
-509.785	-200.000	-0.019	0.135
-508.770	130.732	-0.117	-0.149
-507.756	72.076	0.135	-0.139
-506.741	9.009	0.178	0.134
-505.726	-200.000	0.041	0.269
-504.712	752.574	-0.010	0.026
-503.697	-200.000	0.038	0.241
-502.683	-82.631	-0.158	0.051
-501.668	-85.354	-0.042	0.013
-500.653	-113.633	0.300	0.058
-499.639	-122.737	0.195	0.031
-498.624	449.336	-0.098	-0.215
-497.610	95.848	0.165	-0.187
-496.595	-17.794	0.111	-0.069
-495.581	-56.384	-0.219	-0.096
-494.566	26.927	-0.018	-0.015
-493.551	76.893	0.368	0.388
-492.537	100.876	0.198	0.229
-491.522	-125.981	-0.195	0.029
-490.508	40.831	0.264	-0.237
-489.493	143.449	-0.109	-0.144
-488.478	-45.088	-0.092	0.046
-487.464	-200.000	0.023	-0.103
-486.449	39.580	0.243	-0.217
-485.435	800.000	-0.162	-0.603
-484.420	-26.841	-0.097	0.057
-483.405	800.000	-0.039	0.132
-482.391	800.000	0.039	0.134
-481.376	-18.864	-0.262	0.162
-480.362	85.256	0.080	0.088
-479.347	-200.000	0.026	0.132
-478.332	-111.418	-0.056	-0.011
-477.318	-141.466	-0.277	0.028
-476.303	-122.573	-0.180	0.029
-475.289	-25.495	-0.151	-0.088
-474.274	752.900	-0.046	0.122
-473.259	-173.112	0.120	-0.004
-472.245	800.000	-0.077	-0.320
-471.230	-162.780	-0.255	0.012
-470.216	-135.631	0.124	-0.015
-469.201	-78.347	0.173	0.059
-468.186	35.726	-0.096	0.084
-467.172	-75.180	0.391	0.139
-466.157	125.841	-0.143	0.179
-465.143	26.989	0.154	-0.129
-464.128	-82.578	-0.065	0.021
-463.113	81.557	0.269	0.289
-462.099	2.677	-0.282	0.203
-461.084	-200.000	-0.009	0.215
-460.070	44.445	0.294	-0.268
-459.055	252.935	0.090	-0.153
-458.040	800.000	-0.020	-0.055
-457.026	-200.000	0.040	0.314
-456.011	-200.000	-0.022	0.119
-454.997	8.510	0.159	-0.119
-453.982	571.184	0.089	-0.215
-452.968	168.978	0.200	-0.282
-451.953	-21.095	0.087	0.053
-450.938	81.433	-0.236	0.253
-449.924	-155.340	-0.162	0.010
-448.909	117.647	0.233	0.285
-447.895	38.076	0.245	-0.217
-446.880	156.658	0.081	-0.111
-445.865	800.000	0.047	-0.158
-444.851	-79.349	0.117	-0.039
-443.836	-200.000	-0.021	0.214
-442.822	42.711	-0.159	0.143
-441.807	-101.783	0.168	0.040
-440.792	-54.448	-0.105	-0.047
-439.778	254.383	0.029	-0.050
-438.763	414.888	-0.184	-0.388
-437.749	27.626	0.081	0.068
-436.734	-91.332	0.185	-0.052
-435.719	224.250	0.176	-0.282
-434.705	-18.941	0.122	0.076
-433.690	515.974	0.076	-0.177
-432.676	-62.885	-0.113	0.046
-431.661	49.165	-0.057	0.053
-430.646	-200.000	0.004	-0.081
-429.632	150.565	-0.064	-0.086
-428.617	86.738	0.350	-0.383
-427.603	-75.718	-0.161	0.057
-426.588	14.739	0.197	0.153
-425.573	68.916	-0.194	0.198
-424.559	-14.247	-0.047	-0.030
-423.544	64.868	0.166	-0.166
-422.530	-122.910	0.296	0.047
-421.515	17.791	0.065	0.052
-420.500	-10.831	-0.142	0.093
-419.486	-164.162	-0.223	-0.010
-418.471	-156.056	0.138	0.009
-417.457	-200.000	0.060	-0.297
-416.442	14.925	0.037	0.028
-415.428	800.000	0.130	-0.399
-414.413	17.108	-0.282	0.221
-413.398	800.000	-0.047	0.202
-412.384	-200.000	-0.022	0.152
-411.369	-161.099	-0.132	0.007
-410.355	7.784	0.180	0.134
-409.340	64.006	-0.168	0.167
-408.325	-168.092	0.398	0.015
-407.311	472.619	0.030	-0.066
-406.296	-20.355	0.155	-0.094
-405.282	320.828	0.203	0.382
-404.267	341.877	0.056	-0.109
-403.252	-45.548	-0.241	0.118
-402.238	-14.256	0.107	0.068
-401.223	711.436	0.036	0.095
-400.209	800.000	0.076	-0.210
-399.194	800.000	0.015	0.051
-398.179	-172.056	-0.192	0.006
-397.165	-61.683	0.273	-0.113
-396.150	-200.000	-0.054	0.655
-395.136	-200.000	-0.026	-0.206
-394.121	800.000	-0.062	-0.266
-393.106	-200.000	-0.017	0.159
-392.092	-1.353	0.206	0.144
-391.077	64.893	0.232	0.232
-390.063	800.000	-0.062	0.205
-389.048	-176.513	-0.260	-0.007
-388.033	-91.432	0.524	0.148
-387.019	14.635	0.260	0.201
-386.004	52.257	0.099	0.093
-384.990	-50.231	0.150	-0.070
-383.975	-133.375	-0.420	0.052
-382.960	223.519	-0.187	0.299
-381.946	-171.032	0.078	-0.003
-380.931	-83.389	0.223	-0.071
-379.917	276.433	-0.014	0.025
-378.902	-102.364	-0.034	0.008
-377.888	-200.000	0.049	-0.250
-376.873	205.869	0.252	0.388
-375.858	10.727	-0.288	0.217
-374.844	-125.322	-0.327	-0.049
-373.829	-93.830	0.041	-0.011
-372.815	-136.282	-0.221	-0.025
-371.800	70.233	0.204	0.208
-370.785	538.343	0.100	-0.234
-369.771	800.000	0.047	0.159
-368.756	-200.000	-0.038	-0.334
-367.742	-200.000	-0.011	-0.057
-366.727	-121.911	-0.205	0.033
-365.712	140.592	-0.088	-0.114
-364.698	28.226	0.154	-0.129
-363.683	-138.466	-0.081	0.009
-362.669	50.478	0.326	0.305
-361.654	-200.000	-0.006	0.081
-360.639	-70.507	-0.385	-0.144
-359.625	-18.307	0.119	0.074
-358.610	800.000	0.072	0.197
-357.596	-67.531	-0.179	0.069
-356.581	505.454	-0.042	-0.096
-355.566	290.630	-0.219	-0.394
-354.552	-103.668	-0.070	-0.016
-353.537	606.201	0.181	-0.445
-352.523	-80.673	-0.228	-0.075
-351.508	176.744	0.245	-0.351
-350.493	-105.072	0.428	0.097
-349.479	35.038	-0.132	0.114
-348.464	-111.941	-0.300	-0.060
-347.450	66.397	0.100	-0.100
-346.435	17.672	0.056	-0.044
-345.420	-71.628	-0.085	-0.032
-344.406	-48.338	0.293	0.139
-343.391	252.890	-0.145	0.244
-342.377	-6.750	-0.205	-0.138
-341.362	114.184	-0.114	-0.137
-340.348	-158.276	-0.103	-0.006
-339.333	-200.000	0.011	0.352
-338.318	-25.297	-0.316	0.185
-337.304	-150.884	0.229	0.017
-336.289	-93.649	-0.270	0.074
-335.275	-121.116	-0.200	-0.033
-334.260	1.139	-0.215	0.152
-333.245	-200.000	0.069	-0.444
-332.231	187.815	0.077	-0.114
-331.216	-200.000	-0.041	-0.184
-330.202	-127.090	0.303	-0.044
-329.187	9.669	-0.132	0.099
-328.172	58.987	-0.071	-0.069
-327.158	-118.466	-0.219	-0.038
-326.143	308.603	-0.060	0.110
-325.129	-200.000	0.023	0.139
-324.114	-97.123	0.376	-0.097
-323.099	800.000	0.063	0.176
-322.085	-169.746	-0.321	0.011
-321.070	-14.056	0.095	-0.061
-320.056	-200.000	-0.047	-0.279
-319.041	82.074	0.169	0.181
-318.026	7.466	-0.002	-0.001
-317.012	647.823	-0.052	0.132
-315.997	91.069	0.222	-0.246
-314.983	-3.438	0.168	0.115
-313.968	97.978	-0.056	0.064
-312.953	-128.121	-0.041	0.006
-311.939	138.726	0.259	0.336
-310.924	800.000	-0.072	-0.237
-309.910	-105.111	-0.104	-0.023
-308.895	228.450	-0.032	0.052
-307.880	50.440	-0.102	0.096
-306.866	-111.238	-0.152	-0.031
-305.851	24.219	-0.201	-0.164
-304.837	1.725	0.162	-0.115
-303.822	-127.799	-0.117	0.017
-302.807	-16.663	-0.250	0.156
-301.793	-200.000	-0.006	0.132
-300.778	225.611	-0.042	0.067
-299.764	231.815	-0.161	-0.261
-298.749	-200.000	-0.028	0.153
-297.735	61.175	-0.172	-0.168
-296.720	18.736	0.143	-0.113
-295.705	-41.651	0.409	-0.207
-294.691	800.000	-0.137	-0.392
-293.676	118.545	-0.181	0.220
-292.662	377.004	-0.055	0.111
-291.647	651.433	-0.065	-0.164
-290.632	279.822	-0.120	-0.212
-289.618	-22.270	0.165	-0.099
-288.603	131.717	0.135	-0.172
-287.589	481.224	0.008	0.019
-286.574	-200.000	0.050	-0.305
-285.559	344.120	-0.087	-0.169
-284.545	97.961	-0.165	0.187
-283.530	-199.898	-0.295	-0.001
-282.516	116.029	-0.135	0.163
-281.501	-200.000	-0.001	-0.194
-280.486	416.559	0.085	0.178
-279.472	-5.503	-0.208	-0.141
-278.457	-7.140	0.160	-0.107
-277.443	-13.879	-0.023	-0.015
-276.428	-125.470	0.036	0.005
-275.413	93.588	0.278	0.310
-274.399	-93.090	0.099	0.027
-273.384	-41.301	-0.103	0.052
-272.370	-23.080	-0.115	-0.068
-271.355	-95.803	0.174	-0.046
-270.340	164.841	-0.161	-0.224
-269.326	140.811	0.172	0.224
-268.311	-98.058	-0.123	-0.031
-267.297	800.000	-0.025	-0.085
-266.282	736.440	-0.082	-0.216
-265.267	-59.051	0.309	0.131
-264.253	56.869	0.126	0.121
-263.238	-125.837	0.279	0.041
-262.224	-163.589	-0.355	0.017
-261.209	-40.169	0.117	-0.060
-260.195	800.000	-0.098	-0.402
-259.180	-200.000	-0.027	0.277
-258.165	-48.320	-0.206	0.098
-257.151	-199.984	-0.237	-0.001
-256.136	-200.000	-0.018	0.380
-255.122	-200.000	0.000	-0.352
-254.107	800.000	0.015	0.048
-253.092	-34.111	0.262	0.141
-252.078	156.214	-0.120	0.163
-251.063	-50.805	-0.240	-0.111
-250.049	-93.412	0.446	0.122
-249.034	-98.756	0.173	-0.043
-248.019	597.424	-0.067	-0.164
-247.005	48.824	-0.185	-0.171
-245.990	-106.005	-0.183	-0.041
-244.976	-110.015	-0.137	0.028
-243.961	-200.000	0.061	-0.318
-242.946	260.095	-0.085	0.144
-241.932	800.000	0.047	0.133
-240.917	4.779	0.297	0.215
-239.903	-56.364	-0.417	0.182
-238.888	-159.463	-0.121	-0.007
-237.873	-200.000	0.013	0.235
-236.859	80.807	-0.179	0.190
-235.844	-118.562	0.253	0.044
-234.830	-200.000	-0.009	-0.273
-233.815	-83.121	0.402	0.127
-232.800	-84.624	0.178	-0.055
-231.786	-58.031	-0.256	-0.110
-230.771	-27.702	-0.327	-0.187
-229.757	-5.620	-0.164	-0.110
-228.742	141.960	-0.018	0.024
-227.727	-146.165	-0.107	0.009
-226.713	800.000	0.085	0.353
-225.698	-27.466	-0.376	0.215
-224.684	-120.696	-0.153	0.025
-223.669	5.753	0.075	-0.055
-222.655	-59.588	0.116	-0.049
-221.640	800.000	-0.080	-0.223
-220.625	-39.241	0.318	-0.164
-219.611	-51.877	-0.500	0.229
-218.596	-200.000	0.015	0.198
-217.582	60.449	0.241	0.234
-216.567	800.000	-0.124	-0.342
-215.552	-52.888	0.135	0.061
-214.538	244.977	-0.231	-0.382
-213.523	255.595	0.036	-0.061
-212.509	-77.691	0.265	-0.090
-211.494	78.275	-0.203	-0.213
-210.479	-200.000	0.063	-0.394
-209.465	629.973	-0.076	-0.188
-208.450	-200.000	-0.054	-0.315
-207.436	369.947	-0.075	0.149
-206.421	128.810	-0.225	-0.282
-205.406	94.331	0.142	0.158
-204.392	760.075	0.039	0.103
-203.377	-200.000	-0.018	0.150
-202.363	-172.204	-0.090	0.003
-201.348	733.983	-0.127	0.333
-200.333	754.573	-0.072	-0.190
-199.319	121.558	-0.187	-0.229
-198.304	-200.000	-0.008	0.128
-197.290	-71.550	-0.268	-0.098
-196.275	58.303	0.151	-0.145
-195.260	-200.000	0.026	0.154
-194.246	-13.046	-0.201	0.128
-193.231	-125.540	0.050	0.007
-192.217	-61.012	0.138	-0.057
-191.202	316.908	0.205	0.381
-190.187	64.464	-0.153	-0.151
-189.173	-180.225	0.342	-0.007
-188.158	800.000	0.092	0.386
-187.144	127.267	0.153	0.190
-186.129	405.014	-0.086	-0.179
-185.114	-200.000	0.013	-0.162
-184.100	-200.000	0.048	0.222
-183.085	-9.953	-0.167	-0.109
-182.071	21.800	0.059	-0.047
-181.056	800.000	-0.029	-0.106
-180.042	3.998	-0.128	0.092
-179.027	-108.853	0.085	-0.018
-178.012	422.447	0.122	0.257
-176.998	672.736	0.025	0.065
-175.983	-200.000	0.008	0.145
-174.969	-200.000	-0.030	0.220
-173.954	-79.587	-0.401	-0.133
-172.939	800.000	0.028	-0.090
-171.925	428.742	0.105	0.223
-170.910	67.171	-0.156	-0.156
-169.896	-83.370	0.249	-0.078
-168.881	-141.873	-0.221	0.022
-167.866	552.172	0.117	0.276
-166.852	1.991	0.050	0.035
-165.837	-200.000	-0.002	-0.174
-164.823	-144.331	-0.154	-0.014
-163.808	-112.149	0.202	0.040
-162.793	-200.000	0.091	0.000
-161.779	574.150	0.113	0.269
-160.764	-200.000	-0.053	-0.288
-159.750	82.461	-0.146	0.155
-158.735	-200.000	-0.027	0.116
-157.720	-105.042	-0.453	-0.102
-156.706	47.781	-0.161	0.147
-155.691	-178.632	0.512	-0.012
-154.677	-155.839	0.122	-0.008
-153.662	-125.719	0.270	-0.040
-152.647	-21.220	0.025	0.015
-151.633	132.170	0.173	0.218
-150.618	-49.841	0.183	-0.085
-149.604	109.098	0.119	0.140
-148.589	-50.860	0.148	0.068
-147.574	800.000	0.070	0.259
-146.560	784.851	-0.053	0.143
-145.545	105.256	-0.223	-0.258
-144.531	-200.000	0.021	-0.218
-143.516	-194.905	-0.604	-0.005
-142.502	95.855	0.078	-0.087
-141.487	800.000	0.056	0.224
-140.472	-20.313	-0.148	0.089
-139.458	-200.000	-0.064	-0.308
-138.443	110.271	-0.113	-0.133
-137.429	800.000	0.155	0.497
-136.414	-1.902	-0.219	0.151
-135.399	800.000	-0.057	0.167
-134.385	556.799	0.075	-0.178
-133.370	-72.121	0.334	0.121
-132.356	800.000	0.087	-0.263
-131.341	-166.950	0.232	-0.009
-130.326	-160.879	0.153	0.008
-129.312	294.626	-0.066	-0.118
-128.297	-200.000	0.018	0.194
-127.283	-118.860	0.318	0.055
-126.268	93.925	-0.165	0.184
-125.253	-9.978	0.226	0.147
-124.239	-200.000	-0.018	-0.188
-123.224	-200.000	-0.118	0.548
-122.210	-200.000	-0.009	-0.042
-121.195	681.375	0.123	-0.314
-120.180	800.000	-0.158	-0.431
-119.166	487.561	0.210	0.470
-118.151	247.083	-0.154	0.254
-117.137	-83.451	0.291	0.091
-116.122	233.181	0.113	-0.183
-115.107	800.000	0.059	0.222
-114.093	20.093	0.195	-0.154
-113.078	99.865	0.238	0.270
-112.064	553.686	-0.033	-0.078
-111.049	100.319	0.192	-0.219
-110.034	12.596	0.046	-0.034
-109.020	-57.883	0.285	0.122
-108.005	425.852	0.080	0.169
-106.991	800.000	-0.104	-0.300
-105.976	66.240	0.104	-0.104
-104.962	14.488	0.170	-0.130
-103.947	63.163	-0.036	0.035
-102.932	112.999	-0.194	0.230
-101.918	138.679	0.197	0.254
-100.903	-200.000	0.025	0.151
-99.889	243.169	-0.125	0.205
-98.874	140.753	-0.110	0.142
-97.859	479.945	-0.020	0.045
-96.845	-24.763	-0.144	-0.084
-95.830	1.568	0.215	-0.151
-94.816	416.002	-0.135	0.282
-93.801	249.921	0.150	0.249
-92.786	800.000	0.072	0.302
-91.772	622.672	-0.126	-0.311
-90.757	92.502	-0.149	0.164
-89.743	-22.629	-0.274	0.162
-88.728	-29.730	0.225	0.125
-87.713	800.000	-0.046	0.128
-86.699	33.679	0.191	-0.162
-85.684	-200.000	-0.014	-0.116
-84.670	586.795	0.049	-0.117
-83.655	-200.000	0.033	0.162
-82.640	39.242	0.092	0.080
-81.626	26.241	-0.091	0.075
-80.611	-165.242	-0.233	-0.010
-79.597	800.000	-0.129	0.511
-78.582	800.000	0.015	-0.044
-77.567	800.000	-0.020	0.084
-76.553	-200.000	-0.026	-0.133
-75.538	-200.000	0.016	-0.199
-74.524	-98.550	-0.287	0.072
-73.509	-53.762	0.168	0.075
-72.494	174.453	0.216	-0.306
-71.480	255.702	0.072	-0.121
-70.465	-125.205	0.140	0.021
-69.451	64.932	0.037	-0.037
-68.436	800.000	-0.064	-0.258
-67.422	-63.605	0.230	0.092
-66.407	50.371	0.271	0.250
-65.392	124.367	0.056	-0.069
-64.378	-102.060	0.176	0.041
-63.363	-200.000	0.007	0.099
-62.349	-200.000	0.070	0.377
-61.334	130.695	-0.550	-0.689
-60.319	-13.521	0.614	0.389
-59.305	800.000	-0.313	-1.174
-58.290	137.339	0.815	1.042
-57.276	284.142	0.766	1.346
-56.261	-200.000	115.973	641.408
-55.246	501.272	1538.518	3469.651
-54.232	174.468	2719.442	3841.271
-53.217	98.233	2294.827	2581.668
-52.203	35.358	1902.744	1630.238
-51.188	29.547	1695.573	1408.504
-50.173	27.158	1654.566	1356.579
-49.159	47.152	1712.039	1556.155
-48.144	45.858	1725.334	1558.354
-47.130	28.981	1683.319	1393.819
-46.115	26.533	1668.635	1363.196
-45.100	26.255	1663.845	1357.136
-44.086	26.334	1661.227	1355.542
-43.071	26.389	1658.248	1353.465
-42.057	26.226	1655.881	1350.266
-41.042	26.306	1654.023	1349.292
-40.027	26.275	1652.289	1347.594
-39.013	26.282	1649.922	1345.660
-37.998	26.285	1648.612	1344.565
-36.984	26.288	1647.368	1343.517
-35.969	26.336	1645.951	1342.667
-34.954	26.410	1644.461	1341.943
-33.940	26.357	1642.633	1340.007
-32.925	26.455	1640.767	1339.158
-31.911	26.331	1639.227	1336.932
-30.896	26.542	1636.997	1336.614
-29.881	26.370	1635.885	1334.386
-28.867	26.474	1633.994	1333.555
-27.852	26.460	1632.961	1332.559
-26.838	26.386	1631.568	1330.824
-25.823	26.445	1629.682	1329.667
-24.809	26.501	1628.514	1329.073
-23.794	26.430	1627.316	1327.517
-22.779	26.533	1625.658	1326.874
-21.765	26.342	1624.669	1324.610
-20.750	26.457	1622.303	1323.471
-19.736	26.384	1621.417	1322.163
-18.721	26.549	1619.350	1321.630
-17.706	26.436	1618.299	1319.891
-16.692	26.501	1616.679	1318.992
-15.677	26.433	1615.027	1317.095
-14.663	26.407	1614.085	1316.090
-13.648	26.503	1612.442	1315.395
-12.633	26.494	1610.968	1314.076
-11.619	26.501	1609.106	1312.553
-10.604	26.395	1607.902	1310.755
-9.590	26.429	1606.536	1309.830
-8.575	26.497	1605.150	1309.139
-7.560	26.472	1604.128	1308.080
-6.546	26.475	1602.272	1306.534
-5.531	26.416	1602.001	1305.835
-4.517	26.377	1601.151	1304.810
-3.502	26.449	1599.639	1304.043
-2.487	26.504	1597.771	1302.865
-1.473	26.125	1586.410	1290.842
-0.458	23.401	1567.161	1255.854
0.556	20.883	1568.802	1226.059
1.571	18.665	1593.351	1229.259
2.586	18.234	1605.036	1235.059
3.600	16.119	1549.938	1177.795
4.615	9.434	1442.570	1052.517
5.629	3.983	1383.916	975.358
6.644	3.263	1375.922	965.128
7.659	3.153	1375.078	963.762
8.673	3.116	1374.571	963.091
9.688	3.207	1372.202	961.912
10.702	3.126	1369.404	959.363
11.717	5.647	1373.925	978.202
12.731	12.869	1387.297	1033.032
13.746	19.019	1397.029	1078.877
14.761	20.360	1398.573	1088.387
15.775	19.680	1396.509	1082.428
16.790	18.699	1393.919	1074.189
17.804	17.928	1392.092	1067.861
18.819	17.547	1391.165	1064.675
19.834	17.420	1389.545	1062.552
20.848	17.221	1387.945	1059.993
21.863	17.111	1386.951	1058.450
22.877	16.911	1385.730	1056.177
23.892	16.789	1385.260	1054.966
24.907	16.891	1384.160	1054.674
25.921	16.784	1383.477	1053.391
26.936	16.879	1382.038	1052.796
27.950	16.935	1381.289	1052.477
28.965	17.118	1380.021	1052.553
29.980	17.156	1379.199	1052.069
30.994	17.154	1378.264	1051.250
32.009	17.254	1377.101	1050.890
33.023	17.256	1376.034	1049.993
34.038	17.208	1374.540	1048.462
35.053	16.976	1373.374	1046.050
36.067	17.045	1372.448	1045.682
37.082	17.185	1371.251	1045.534
38.096	17.113	1370.570	1044.480
39.111	17.134	1369.705	1043.861
40.126	17.038	1368.689	1042.405
41.140	16.837	1367.265	1039.992
42.155	16.699	1366.965	1038.825
43.169	16.716	1366.547	1038.521
44.184	16.734	1366.332	1038.373
45.199	16.721	1366.086	1038.018
46.213	16.839	1365.264	1038.025
47.228	16.974	1364.608	1038.258
48.242	16.965	1363.552	1037.312
49.257	16.902	1361.887	1035.569
50.271	17.016	1360.546	1035.151
51.286	17.023	1359.088	1033.989
52.301	16.991	1357.944	1032.833
53.315	16.933	1356.719	1031.461
54.330	16.838	1355.320	1029.729
55.344	16.752	1354.120	1028.199
56.359	16.718	1353.613	1027.522
57.374	16.801	1352.303	1026.935
58.388	16.643	1351.936	1025.613
59.403	16.649	1351.476	1025.208
60.417	16.599	1350.350	1023.957
61.432	16.582	1349.743	1023.306
62.447	16.557	1348.348	1022.009
63.461	16.523	1347.215	1020.854
64.476	16.466	1346.303	1019.724
65.490	16.514	1344.804	1018.788
66.505	16.545	1343.364	1017.799
67.520	16.496	1342.379	1016.668
68.534	16.609	1341.202	1016.361
69.549	16.590	1339.885	1015.161
70.563	16.481	1339.056	1013.791
71.578	16.433	1337.994	1012.611
72.593	16.330	1336.952	1011.113
73.607	16.323	1336.459	1010.608
74.622	16.395	1335.474	1010.205
75.636	16.372	1335.079	1009.682
76.651	16.418	1334.218	1009.214
77.666	16.410	1333.710	1008.695
78.680	16.481	1333.360	1008.762
79.695	16.569	1332.352	1008.435
80.709	16.584	1331.744	1007.975
81.724	16.809	1330.567	1008.337
82.739	16.858	1329.962	1008.076
83.753	16.910	1329.264	1007.768
84.768	17.068	1328.000	1007.661
85.782	17.149	1327.274	1007.498
86.797	17.072	1325.975	1005.969
87.812	16.850	1324.570	1003.502
88.826	17.014	1323.408	1003.503
89.841	17.036	1322.740	1003.036
90.855	17.037	1321.703	1002.164
91.870	17.114	1321.045	1002.035
92.884	17.202	1319.688	1001.436
93.899	17.147	1319.283	1000.712
94.914	17.268	1318.696	1000.892
95.928	17.199	1317.755	999.682
96.943	17.091	1316.607	998.090
97.957	17.053	1316.016	997.329
98.972	17.114	1314.647	996.562
99.987	17.041	1313.749	995.363
101.001	17.081	1312.408	994.497
102.016	17.027	1311.520	993.418
103.030	17.085	1310.629	992.997
104.045	17.101	1309.666	992.271
105.060	16.968	1308.745	990.710
106.074	16.793	1306.861	988.172
107.089	16.654	1305.301	986.097
108.103	16.490	1304.436	984.402
109.118	16.538	1302.885	983.423
110.133	16.602	1301.486	982.653
111.147	16.566	1300.118	981.321
112.162	16.584	1299.240	980.679
113.176	16.796	1297.454	980.470
114.191	16.758	1297.046	979.857
115.206	16.750	1295.762	978.750
116.220	16.688	1294.827	977.600
117.235	16.632	1293.955	976.536
118.249	16.640	1292.934	975.724
119.264	16.680	1291.332	974.656
120.279	16.604	1290.173	973.260
121.293	16.618	1289.052	972.406
122.308	16.569	1287.818	971.109
123.322	16.358	1287.159	969.314
124.337	16.377	1286.132	968.568
125.352	16.267	1285.162	967.123
126.366	16.394	1283.663	966.634
127.381	16.545	1282.282	966.372
128.395	16.474	1281.540	965.322
129.410	16.596	1280.763	965.347
130.424	16.518	1280.405	964.546
131.439	16.631	1279.177	964.180
132.454	16.663	1278.301	963.615
133.468	16.662	1277.662	963.043
134.483	16.718	1276.818	962.638
135.497	16.756	1275.789	961.996
136.512	16.689	1274.963	960.906
137.527	16.806	1272.841	959.884
138.541	16.856	1271.930	959.398
139.556	16.813	1270.858	958.260
140.570	16.882	1269.863	957.815
141.585	16.972	1268.702	957.363
142.600	17.070	1267.364	956.822
143.614	17.096	1266.805	956.462
144.629	17.196	1265.850	956.218
145.643	17.090	1264.507	954.523
146.658	17.064	1263.242	953.338
147.673	16.889	1262.103	951.411
148.687	16.809	1260.806	949.901
149.702	16.791	1259.204	948.509
150.716	16.733	1258.367	947.468
151.731	16.792	1257.104	946.765
152.746	16.791	1256.131	945.946
153.760	16.872	1254.708	945.240
154.775	17.083	1253.430	945.368
155.789	16.994	1252.620	944.177
156.804	17.035	1251.695	943.624
157.819	17.098	1250.742	943.174
158.833	17.099	1249.862	942.435
159.848	17.298	1248.693	942.574
160.862	17.096	1248.224	941.011
161.877	17.035	1246.503	939.298
162.892	16.917	1245.304	937.658
163.906	16.834	1244.975	936.865
164.921	16.894	1243.667	936.129
165.935	16.902	1243.427	935.909
166.950	17.009	1242.311	935.578
167.964	17.065	1241.495	935.192
168.979	16.968	1241.043	934.234
169.994	16.957	1240.201	933.456
171.008	17.027	1239.353	933.118
172.023	17.067	1238.393	932.535
173.037	17.206	1237.616	932.632
174.052	17.078	1236.699	931.155
175.067	17.042	1235.638	930.077
176.081	16.896	1234.439	928.293
177.096	16.934	1233.597	927.783
178.110	16.983	1232.507	927.151
179.125	16.980	1231.245	926.099
180.140	17.106	1230.124	925.865
181.154	17.154	1228.693	924.966
182.169	17.222	1227.811	924.593
183.183	17.302	1227.188	924.476
184.198	17.273	1225.776	923.170
185.213	17.210	1225.033	922.187
186.227	17.281	1223.816	921.574
187.242	17.391	1222.738	921.277
188.256	17.358	1221.572	920.141
189.271	17.347	1221.401	919.872
190.286	17.282	1219.880	918.293
191.300	16.960	1218.707	915.589
192.315	16.738	1218.175	913.912
193.329	16.923	1217.580	914.380
194.344	17.035	1216.722	914.259
195.359	17.091	1216.390	914.231
196.373	17.196	1215.571	914.100
197.388	17.324	1215.541	914.686
198.402	17.407	1215.196	914.793
199.417	17.565	1214.712	915.195
200.432	17.566	1213.897	914.507
201.446	17.704	1212.933	914.440
202.461	17.691	1211.958	913.552
203.475	17.733	1210.679	912.732
204.490	17.594	1209.544	911.054
205.504	17.513	1208.168	909.502
206.519	17.464	1206.882	908.193
207.534	17.400	1205.958	907.075
208.548	17.320	1205.475	906.208
209.563	17.328	1204.428	905.383
210.577	17.356	1203.342	904.631
211.592	17.502	1202.653	904.813
212.607	17.665	1201.472	904.708
213.621	17.637	1201.103	904.203
214.636	17.539	1200.367	903.048
215.650	17.577	1199.423	902.458
216.665	17.751	1197.946	902.189
217.680	17.929	1196.991	902.334
218.694	17.771	1196.639	901.151
219.709	17.820	1195.566	900.523
220.723	17.805	1194.992	899.932
221.738	17.754	1194.280	899.047
222.753	17.736	1193.571	898.340
223.767	17.840	1192.953	898.342
224.782	17.932	1192.117	898.118
225.796	17.871	1191.912	897.560
226.811	18.003	1191.072	897.543
227.826	17.834	1190.062	895.815
228.840	17.832	1189.067	894.974
229.855	17.768	1188.533	894.158
230.869	17.903	1187.557	894.052
231.884	17.828	1186.550	892.822
232.899	17.681	1186.265	891.761
233.913	17.709	1185.210	891.034
234.928	17.692	1184.445	890.295
235.942	17.625	1183.791	889.373
236.957	17.566	1183.045	888.426
237.972	17.641	1181.939	887.906
238.986	17.632	1181.447	887.412
240.001	17.714	1180.957	887.393
241.015	17.673	1180.136	886.483
242.030	17.748	1179.451	886.279
243.045	17.852	1178.407	885.956
244.059	17.807	1177.679	885.099
245.074	17.927	1176.799	884.981
246.088	17.878	1175.996	884.043
247.103	17.925	1176.093	884.285
248.117	17.965	1175.109	883.674
249.132	18.223	1174.394	884.389
250.147	18.475	1173.489	884.929
251.161	18.380	1173.171	884.123
252.176	18.402	1172.438	883.605
253.190	18.500	1171.755	883.516
254.205	18.584	1171.002	883.305
255.220	18.574	1170.376	882.704
256.234	18.578	1169.968	882.339
257.249	18.528	1169.444	881.606
258.263	18.551	1168.788	881.153
259.278	18.479	1168.468	880.464
260.293	18.712	1167.111	880.559
261.307	18.653	1166.934	880.046
262.322	18.636	1166.241	879.357
263.336	18.773	1165.175	879.175
264.351	18.733	1164.881	878.671
265.366	18.619	1164.499	877.724
266.380	18.722	1163.181	877.176
267.395	18.602	1162.510	875.985
268.409	18.566	1161.546	874.992
269.424	18.610	1161.146	874.841
270.439	18.505	1160.687	873.881
271.453	18.451	1159.819	872.875
272.468	18.432	1158.824	871.951
273.482	18.444	1158.120	871.405
274.497	18.471	1157.589	871.068
275.512	18.362	1156.882	869.907
276.526	18.518	1155.910	869.890
277.541	18.624	1154.939	869.620
278.555	18.530	1154.777	868.941
279.570	18.748	1153.931	869.334
280.585	18.884	1152.958	869.210
281.599	18.794	1152.011	867.968
282.614	18.769	1151.146	867.109
283.628	18.743	1149.662	865.788
284.643	18.677	1149.157	864.997
285.657	18.613	1148.290	863.942
286.672	18.629	1147.575	863.410
287.687	18.724	1146.506	863.005
288.701	18.702	1145.425	862.005
289.716	18.789	1144.800	861.896
290.730	18.768	1144.271	861.318
291.745	18.764	1143.495	860.638
292.760	18.730	1143.272	860.221
293.774	18.785	1142.871	860.118
294.789	19.055	1141.778	860.573
295.803	18.937	1141.200	859.471
296.818	18.705	1140.867	857.986
297.833	18.763	1139.712	857.329
298.847	18.810	1138.718	856.740
299.862	18.850	1137.774	856.152
300.876	18.806	1137.634	855.755
301.891	18.890	1136.763	855.438
302.906	19.018	1136.081	855.486
303.920	19.104	1135.720	855.566
304.935	19.116	1134.981	854.996
305.949	19.235	1134.622	855.238
306.964	19.139	1133.816	854.081
307.979	19.098	1132.942	853.143
308.993	19.115	1132.385	852.732
310.008	19.266	1131.178	852.493
311.022	19.167	1130.327	851.287
312.037	19.174	1129.851	850.891
313.052	19.157	1128.687	849.853
314.066	19.010	1127.767	848.363
315.081	18.805	1126.766	846.522
316.095	18.825	1125.997	845.967
317.110	18.968	1125.358	846.118
318.125	19.008	1124.455	845.559
319.139	18.936	1123.589	844.479
320.154	19.080	1123.107	844.749
321.168	19.033	1122.256	843.804
322.183	19.014	1122.093	843.514
323.197	19.078	1121.455	843.274
324.212	19.045	1120.522	842.336
325.227	19.154	1119.899	842.327
326.241	19.063	1119.500	841.505
327.256	19.126	1118.554	841.030
328.270	18.977	1117.709	839.591
329.285	19.051	1116.957	839.313
330.300	19.011	1116.004	838.330
331.314	19.063	1114.663	837.498
332.329	19.018	1114.021	836.723
333.343	19.000	1113.431	836.121
334.358	19.195	1112.293	836.138
335.373	19.381	1111.726	836.539
336.387	19.137	1111.078	834.798
337.402	19.250	1110.480	834.823
338.416	19.288	1109.825	834.439
339.431	19.348	1109.152	834.150
340.446	19.413	1108.720	834.063
341.460	19.625	1108.059	834.515
342.475	19.641	1107.146	833.831
343.489	19.592	1106.095	832.729
344.504	19.661	1105.382	832.453
345.519	19.602	1104.538	831.461
346.533	19.778	1103.446	831.410
347.548	19.800	1103.151	831.220
348.562	19.843	1101.840	830.367
349.577	19.637	1101.024	828.691
350.592	19.534	1100.190	827.496
351.606	19.369	1099.597	826.186
352.621	19.444	1098.693	825.794
353.635	19.395	1098.472	825.318
354.650	19.451	1097.549	824.819
355.665	19.555	1096.805	824.683
356.679	19.591	1096.115	824.262
357.694	19.554	1095.935	823.877
358.708	19.551	1095.261	823.284
359.723	19.664	1094.715	823.338
360.738	19.689	1093.432	822.422
361.752	19.653	1093.412	822.163
362.767	19.732	1092.660	821.900
363.781	19.822	1092.040	821.790
364.796	19.946	1091.311	821.754
365.810	19.880	1091.089	821.204
366.825	19.878	1090.668	820.802
367.840	20.137	1090.052	821.495
368.854	20.118	1089.468	820.892
369.869	20.205	1088.302	820.352
370.883	20.050	1087.457	818.911
371.898	20.044	1086.523	818.107
372.913	19.947	1086.203	817.334
373.927	20.112	1085.424	817.454
374.942	20.020	1085.591	817.076
375.956	20.099	1084.539	816.583
376.971	20.193	1083.812	816.404
377.986	20.168	1083.590	816.046
379.000	20.212	1083.233	815.914
380.015	20.265	1082.660	815.660
381.029	20.284	1081.976	815.163
382.044	20.268	1081.035	814.304
383.059	20.287	1079.984	813.532
384.073	20.314	1079.536	813.247
385.088	20.340	1078.978	812.877
386.102	20.334	1077.602	811.740
387.117	20.231	1076.505	810.359
388.132	20.092	1075.780	809.093
389.146	20.131	1074.868	808.517
390.161	20.111	1074.131	807.798
391.175	20.030	1073.660	806.997
392.190	20.038	1073.186	806.605
393.205	20.343	1072.236	807.237
394.219	20.311	1071.502	806.465
395.234	20.322	1070.348	805.578
396.248	20.231	1069.169	804.197
397.263	20.171	1068.493	803.341
398.278	20.141	1067.365	802.283
399.292	19.893	1067.265	800.987
400.307	19.942	1066.398	800.494
401.321	20.017	1065.508	800.099
402.336	19.952	1065.256	799.540
403.350	20.014	1064.666	799.314
404.365	20.046	1063.524	798.533
405.380	20.019	1063.270	798.147
406.394	20.209	1062.295	798.217
407.409	20.465	1061.403	798.655
408.423	20.471	1060.945	798.268
409.438	20.510	1060.216	797.828
410.453	20.533	1059.747	797.507
411.467	20.519	1059.203	796.964
412.482	20.600	1058.353	796.628
413.496	20.763	1057.533	796.685
414.511	20.794	1056.934	796.304
415.526	20.826	1056.661	796.174
416.540	20.908	1056.637	796.462
417.555	20.820	1055.645	795.242
418.569	20.839	1055.321	795.011
419.584	20.670	1054.904	793.858
420.599	20.762	1054.141	793.633
421.613	155.045	1405.170	1796.198
422.628	142.281	1456.306	1796.288
