DTS Sentinel unit serial number:	SN413079Multiplexer serial number:	ORYXHardware model number:	OX4-SRSoftware version number:	ORYX F/W v4.00 Oryx Data Collector v3.7.2.0data status	okinstallation	princeton_trtdifferential loss correction	single-endedforward channel	channel 2reverse channel	N/Adate	2019/09/14time	05:47:35forward acquisition time	60.00reverse acquisition time	0.00gamma	496.2192k internal	0.2336k external	0.2336temperature offset calibration	1.0127default loss term (dB/km)	0.3790temperature slope calibration	1.0000multiplexer offset coefficient	1.0000multiplexer slope coefficient	1.0000fibre end	0.00T internal ref (°C)	26.92T ext. ref 1 (°C)	3.38T ext. ref 2 (°C)	21.55length (m)	temperature (°C)	Stokes	anti-Stokes-747.200	152.754	-0.124	0.170
-746.185	265.215	-0.047	0.082
-745.171	200.006	0.060	0.093
-744.156	70.793	-0.055	0.057
-743.142	243.032	-0.045	0.076
-742.127	-59.148	-0.097	-0.042
-741.112	-122.715	-0.278	0.045
-740.098	-35.678	0.389	0.212
-739.083	396.624	-0.168	-0.352
-738.069	546.745	-0.121	0.290
-737.054	-152.355	0.044	-0.003
-736.039	-76.089	-0.471	-0.167
-735.025	-200.000	0.034	0.283
-734.010	-10.231	-0.385	0.257
-732.996	-3.298	-0.280	-0.196
-731.981	-200.000	-0.008	0.073
-730.966	-3.514	-0.185	-0.129
-729.952	494.673	-0.091	-0.210
-728.937	249.802	0.058	-0.098
-727.923	-77.345	-0.141	-0.049
-726.908	-160.896	-0.332	0.018
-725.894	-200.000	-0.038	-0.167
-724.879	-200.000	-0.004	-0.368
-723.864	-94.004	0.343	-0.095
-722.850	-38.127	-0.229	-0.122
-721.835	-200.000	0.064	0.520
-720.821	-111.317	-0.490	-0.100
-719.806	800.000	-0.089	0.384
-718.791	116.151	0.144	0.177
-717.777	360.844	-0.183	-0.367
-716.762	47.587	-0.211	-0.198
-715.748	-200.000	-0.041	0.283
-714.733	-141.807	-0.378	-0.038
-713.718	-109.335	-0.107	0.023
-712.704	-115.956	-0.196	-0.037
-711.689	-50.129	-0.242	-0.115
-710.675	-200.000	-0.026	-0.265
-709.660	800.000	-0.058	-0.176
-708.645	-200.000	0.008	-0.306
-707.631	800.000	0.070	0.207
-706.616	-110.408	-0.531	-0.111
-705.602	-64.087	-0.451	0.184
-704.587	302.818	-0.130	0.241
-703.572	11.652	0.083	0.064
-702.558	-141.053	0.437	-0.045
-701.543	-200.000	-0.009	0.350
-700.529	173.145	-0.139	0.200
-699.514	95.286	0.120	0.137
-698.499	70.188	-0.123	0.127
-697.485	132.398	0.194	0.251
-696.470	17.815	0.366	-0.292
-695.456	555.614	-0.045	0.109
-694.441	144.333	0.111	0.148
-693.426	631.137	-0.167	-0.424
-692.412	68.727	0.245	0.252
-691.397	307.347	-0.183	-0.342
-690.383	14.098	-0.298	-0.233
-689.368	-7.971	0.037	0.025
-688.354	128.567	-0.004	0.006
-687.339	62.142	-0.083	0.083
-686.324	-165.309	0.288	-0.013
-685.310	-55.930	0.123	-0.055
-684.295	800.000	0.033	-0.131
-683.281	-200.000	0.003	0.033
-682.266	160.288	-0.062	0.086
-681.251	108.365	-0.078	-0.094
-680.237	-4.904	0.375	-0.259
-679.222	295.191	-0.217	-0.398
-678.208	-39.366	0.149	-0.078
-677.193	-16.302	-0.222	0.141
-676.178	346.469	0.027	0.053
-675.164	-36.182	-0.206	0.111
-674.149	243.852	-0.063	-0.106
-673.135	800.000	-0.033	-0.090
-672.120	-85.067	-0.339	-0.106
-671.105	112.595	-0.171	-0.208
-670.091	-24.094	0.111	-0.066
-669.076	-200.000	0.024	-0.109
-668.062	32.437	0.200	0.173
-667.047	800.000	0.061	-0.194
-666.032	-28.027	-0.271	-0.157
-665.018	-97.639	-0.182	0.047
-664.003	47.990	0.105	-0.098
-662.989	38.975	0.246	-0.220
-661.974	-200.000	0.031	-0.181
-660.959	-42.163	-0.159	-0.081
-659.945	-55.665	0.162	0.073
-658.930	800.000	-0.034	0.113
-657.916	-73.066	0.282	-0.104
-656.901	800.000	0.082	0.347
-655.886	-200.000	0.002	-0.023
-654.872	37.785	0.274	-0.243
-653.857	-200.000	0.066	0.359
-652.843	522.114	0.072	-0.169
-651.828	105.467	-0.093	-0.110
-650.814	62.582	0.388	0.388
-649.799	-200.000	-0.004	-0.116
-648.784	57.565	-0.110	-0.108
-647.770	-114.606	-0.069	-0.013
-646.755	-19.892	-0.442	0.273
-645.741	-200.000	-0.042	-0.256
-644.726	148.769	0.101	-0.137
-643.711	247.099	-0.180	-0.304
-642.697	-44.449	-0.106	0.053
-641.682	-189.162	0.069	-0.001
-640.668	-48.693	0.093	0.045
-639.653	198.017	0.124	-0.190
-638.638	-200.000	-0.006	0.156
-637.624	88.326	0.096	-0.107
-636.609	-120.884	-0.183	-0.031
-635.595	55.827	-0.179	-0.173
-634.580	-64.965	-0.249	-0.101
-633.565	-200.000	-0.026	-0.141
-632.551	21.308	0.021	0.017
-631.536	-82.034	0.230	-0.075
-630.522	-132.011	0.206	0.027
-629.507	73.049	0.167	-0.174
-628.492	-200.000	-0.019	0.326
-627.478	-167.457	0.168	0.007
-626.463	-22.111	-0.088	-0.054
-625.449	-200.000	-0.007	-0.312
-624.434	323.602	0.138	-0.263
-623.419	-72.952	0.196	0.072
-622.405	-51.246	-0.057	-0.027
-621.390	40.538	-0.180	0.162
-620.376	-200.000	0.004	0.062
-619.361	263.993	-0.074	-0.129
-618.346	468.125	0.047	0.105
-617.332	548.159	-0.076	0.182
-616.317	-105.402	0.099	0.022
-615.303	-87.628	0.381	-0.115
-614.288	85.236	-0.182	-0.200
-613.273	-91.355	-0.071	0.020
-612.259	800.000	0.070	0.251
-611.244	-89.907	0.070	0.020
-610.230	-200.000	-0.039	-0.243
-609.215	-64.059	0.110	0.045
-608.201	607.306	-0.012	0.029
-607.186	64.048	-0.101	0.102
-606.171	800.000	0.052	-0.203
-605.157	800.000	-0.018	-0.069
-604.142	270.936	-0.095	0.168
-603.128	-48.131	-0.305	0.147
-602.113	269.947	0.026	-0.046
-601.098	-132.179	-0.316	0.041
-600.084	60.938	-0.072	-0.072
-599.069	-32.478	-0.074	-0.041
-598.055	800.000	-0.072	-0.306
-597.040	89.612	-0.083	0.093
-596.025	-200.000	0.081	0.375
-595.011	118.432	0.257	0.317
-593.996	418.387	0.040	-0.086
-592.982	23.520	-0.104	0.085
-591.967	-35.785	-0.175	-0.095
-590.952	-200.000	-0.082	-0.439
-589.938	-44.912	0.084	-0.042
-588.923	-84.567	0.360	0.113
-587.909	148.083	-0.292	-0.394
-586.894	-155.729	0.203	-0.013
-585.879	800.000	-0.078	0.258
-584.865	16.812	-0.293	-0.231
-583.850	207.927	0.077	0.120
-582.836	-173.057	-0.234	-0.007
-581.821	559.393	0.122	0.293
-580.806	-9.142	-0.244	-0.163
-579.792	25.451	-0.028	0.023
-578.777	54.091	-0.213	0.204
-577.763	-145.062	-0.188	0.017
-576.748	-125.667	0.260	0.039
-575.733	8.121	0.373	0.280
-574.719	-31.413	-0.067	0.038
-573.704	325.570	-0.033	0.063
-572.690	-27.178	0.103	0.060
-571.675	95.914	-0.054	0.062
-570.661	-126.497	-0.167	-0.025
-569.646	-75.183	0.077	-0.027
-568.631	50.109	0.123	-0.116
-567.617	81.305	0.205	0.220
-566.602	-8.990	0.181	0.121
-565.588	800.000	-0.020	0.072
-564.573	800.000	0.015	0.051
-563.558	-131.088	0.195	0.026
-562.544	-200.000	-0.006	0.412
-561.529	-85.491	0.100	0.031
-560.515	-52.151	0.395	-0.183
-559.500	-14.480	-0.262	-0.168
-558.485	-139.468	0.131	0.014
-557.471	-147.639	-0.356	0.030
-556.456	618.144	-0.149	0.373
-555.442	-5.539	0.065	0.045
-554.427	-27.358	0.197	-0.114
-553.412	800.000	0.066	-0.234
-552.398	-57.887	-0.354	0.154
-551.383	91.791	-0.255	-0.286
-550.369	800.000	0.043	0.133
-549.354	-5.012	0.217	-0.149
-548.339	-200.000	-0.015	-0.218
-547.325	-9.471	-0.160	-0.106
-546.310	-92.940	-0.288	-0.080
-545.296	-200.000	0.036	-0.218
-544.281	-128.537	-0.312	0.044
-543.266	8.710	-0.113	-0.085
-542.252	-103.987	-0.134	-0.031
-541.237	800.000	0.158	0.444
-540.223	164.828	-0.108	0.152
-539.208	-148.383	0.147	-0.012
-538.193	800.000	-0.059	-0.183
-537.179	800.000	0.011	0.044
-536.164	-90.139	-0.156	0.045
-535.150	110.576	0.008	0.009
-534.135	-32.554	-0.240	0.133
-533.121	-14.709	0.095	-0.061
-532.106	-200.000	0.011	-0.099
-531.091	241.566	0.145	-0.241
-530.077	-53.157	0.078	-0.036
-529.062	95.985	-0.189	0.215
-528.048	-70.747	0.442	0.166
-527.033	132.648	-0.074	-0.095
-526.018	276.928	0.092	0.163
-525.004	800.000	0.095	-0.294
-523.989	23.356	-0.295	0.242
-522.975	-200.000	-0.021	0.349
-521.960	48.554	0.176	0.164
-520.945	-63.421	0.041	0.017
-519.931	-19.032	-0.285	-0.176
-518.916	-114.961	-0.257	0.049
-517.902	-38.232	0.392	0.207
-516.887	-108.937	-0.238	0.051
-515.872	204.810	0.044	0.068
-514.858	51.929	0.030	0.028
-513.843	-200.000	-0.016	0.105
-512.829	748.285	-0.054	0.144
-511.814	-152.624	0.145	-0.010
-510.799	-124.779	0.155	-0.024
-509.785	-119.210	-0.274	-0.048
-508.770	-8.743	-0.111	-0.074
-507.756	586.975	0.082	0.201
-506.741	98.483	0.183	0.210
-505.726	-4.891	-0.123	-0.084
-504.712	-124.079	0.228	0.036
-503.697	148.961	0.073	-0.098
-502.683	-44.624	-0.242	-0.120
-501.668	-134.849	-0.216	-0.026
-500.653	249.906	-0.088	-0.148
-499.639	-52.279	0.211	-0.097
-498.624	224.020	-0.162	0.259
-497.610	-26.361	0.150	-0.088
-496.595	685.149	-0.033	0.087
-495.581	47.537	-0.167	-0.155
-494.566	800.000	0.031	0.105
-493.551	-94.279	0.203	0.055
-492.537	-45.261	-0.074	0.036
-491.522	251.792	0.087	0.148
-490.508	-98.328	-0.090	0.023
-489.493	-200.000	0.029	0.135
-488.478	800.000	0.033	0.111
-487.464	-127.046	0.098	0.014
-486.449	9.252	0.331	0.249
-485.435	271.051	-0.113	-0.197
-484.420	-69.712	0.446	-0.169
-483.405	344.401	0.034	-0.066
-482.391	-200.000	-0.009	-0.061
-481.376	-105.666	0.197	0.044
-480.362	-200.000	0.055	-0.313
-479.347	150.342	-0.331	-0.446
-478.332	8.752	0.110	-0.082
-477.318	51.610	-0.028	-0.027
-476.303	781.474	0.034	-0.093
-475.289	553.635	-0.113	-0.270
-474.274	-200.000	0.004	0.253
-473.259	109.160	-0.107	-0.127
-472.245	-86.512	0.039	0.012
-471.230	-200.000	0.011	-0.107
-470.216	-200.000	0.033	-0.239
-469.201	-151.804	0.412	0.030
-468.186	577.183	-0.099	-0.240
-467.172	198.693	-0.084	-0.128
-466.157	800.000	0.038	-0.129
-465.143	-200.000	0.012	0.106
-464.128	-60.658	0.308	0.130
-463.113	-200.000	-0.027	0.127
-462.099	-77.515	-0.075	0.026
-461.084	126.681	-0.159	0.200
-460.070	-200.000	0.032	0.153
-459.055	-23.772	-0.132	0.078
-458.040	175.122	0.150	0.215
-457.026	-200.000	0.020	0.143
-456.011	-200.000	0.018	0.188
-454.997	800.000	-0.028	-0.089
-453.982	-42.464	0.200	-0.101
-452.968	800.000	-0.014	-0.048
-451.953	-200.000	0.047	-0.276
-450.938	-1.652	-0.259	0.181
-449.924	1.976	-0.368	-0.264
-448.909	112.065	-0.235	-0.282
-447.895	-188.387	0.213	-0.003
-446.880	198.925	0.120	0.183
-445.865	-123.144	-0.184	-0.029
-444.851	-105.337	0.048	0.011
-443.836	-197.746	-0.096	-0.001
-442.822	-200.000	-0.018	-0.106
-441.807	37.287	-0.278	-0.245
-440.792	-41.742	-0.225	0.115
-439.778	-14.162	0.178	-0.114
-438.763	-200.000	-0.079	0.376
-437.749	-200.000	-0.026	-0.222
-436.734	-77.614	0.178	0.061
-435.719	222.046	0.049	-0.078
-434.705	135.105	0.208	0.268
-433.690	-200.000	-0.048	0.224
-432.676	800.000	0.055	-0.212
-431.661	29.895	0.122	-0.103
-430.646	22.087	-0.243	0.197
-429.632	-200.000	-0.027	-0.209
-428.617	-200.000	-0.012	-0.062
-427.603	184.666	0.080	0.117
-426.588	-56.260	-0.175	-0.077
-425.573	-130.626	0.321	0.043
-424.559	392.370	0.054	-0.112
-423.544	175.155	-0.146	0.210
-422.530	-39.570	0.058	0.030
-421.515	2.447	-0.105	0.075
-420.500	192.232	-0.144	0.215
-419.486	-200.000	0.107	0.639
-418.471	-59.297	0.292	0.125
-417.457	-200.000	-0.040	-0.292
-416.442	-200.000	0.028	0.279
-415.428	-158.403	-0.191	0.011
-414.413	374.461	-0.118	0.237
-413.398	3.236	0.170	0.122
-412.384	-109.166	0.308	0.065
-411.369	106.179	0.099	-0.116
-410.355	87.059	0.187	0.205
-409.340	-200.000	-0.037	0.281
-408.325	186.951	-0.079	-0.117
-407.311	-145.758	-0.289	0.026
-406.296	75.213	-0.136	0.142
-405.282	84.985	0.125	-0.136
-404.267	-47.506	-0.246	-0.119
-403.252	-81.654	-0.184	-0.060
-402.238	453.198	-0.089	0.196
-401.223	-200.000	0.011	-0.371
-400.209	15.164	-0.147	-0.114
-399.194	70.387	-0.114	-0.117
-398.179	20.160	-0.125	0.100
-397.165	-58.833	-0.069	-0.030
-396.150	-48.969	-0.106	0.050
-395.136	-22.840	-0.107	0.064
-394.121	150.390	0.120	0.162
-393.106	-200.000	-0.059	-0.540
-392.092	210.962	0.189	0.294
-391.077	140.515	0.083	0.108
-390.063	-111.262	0.065	0.013
-389.048	174.458	0.306	0.438
-388.033	-200.000	-0.011	-0.192
-387.019	-200.000	-0.016	-0.332
-386.004	-47.537	-0.115	0.055
-384.990	238.847	0.070	-0.116
-383.975	-157.368	0.182	0.011
-382.960	-200.000	0.025	0.308
-381.946	75.276	0.156	-0.163
-380.931	248.978	-0.096	0.161
-379.917	-78.146	0.235	0.080
-378.902	42.996	-0.161	0.145
-377.888	-37.665	0.116	0.061
-376.873	584.518	-0.148	-0.360
-375.858	663.305	-0.057	0.146
-374.844	-67.708	-0.145	0.056
-373.829	-200.000	0.020	-0.146
-372.815	-78.160	0.179	0.061
-371.800	4.587	0.199	-0.144
-370.785	-79.632	-0.184	0.062
-369.771	-29.308	-0.080	-0.045
-368.756	740.942	0.129	-0.342
-367.742	-87.750	-0.081	-0.024
-366.727	-94.078	-0.417	0.113
-365.712	-148.989	-0.165	-0.013
-364.698	127.955	0.185	-0.233
-363.683	-200.000	0.050	-0.290
-362.669	-200.000	0.008	-0.143
-361.654	90.538	0.291	-0.322
-360.639	40.333	-0.149	0.133
-359.625	-9.079	-0.150	0.100
-358.610	-200.000	0.005	-0.175
-357.596	-200.000	-0.013	-0.094
-356.581	-200.000	-0.023	-0.171
-355.566	177.819	0.052	-0.075
-354.552	111.789	-0.084	-0.101
-353.537	279.038	-0.046	0.081
-352.523	-20.331	-0.177	0.108
-351.508	54.413	-0.241	0.229
-350.493	26.515	0.150	-0.124
-349.479	87.072	0.137	0.149
-348.464	800.000	0.116	0.328
-347.450	-200.000	0.011	-0.340
-346.435	-131.394	-0.121	-0.016
-345.420	2.270	-0.046	0.033
-344.406	68.785	0.110	-0.112
-343.391	-200.000	0.027	0.140
-342.377	-200.000	-0.043	0.271
-341.362	-152.484	-0.277	-0.020
-340.348	-21.784	0.060	-0.036
-339.333	148.971	0.011	0.014
-338.318	-79.051	0.122	0.041
-337.304	129.319	-0.032	-0.040
-336.289	800.000	-0.058	-0.245
-335.275	115.603	0.116	-0.141
-334.260	88.960	-0.185	0.203
-333.245	190.471	0.112	-0.166
-332.231	-39.586	-0.172	-0.089
-331.216	608.837	-0.096	0.237
-330.202	800.000	0.092	-0.300
-329.187	77.570	-0.184	-0.193
-328.172	252.721	0.058	0.098
-327.158	-83.819	-0.176	-0.055
-326.143	-127.620	-0.170	-0.024
-325.129	72.716	0.231	0.238
-324.114	13.651	-0.101	0.078
-323.099	-31.096	-0.138	0.077
-322.085	-200.000	-0.010	0.308
-321.070	535.049	0.034	-0.080
-320.056	75.326	-0.080	0.084
-319.041	18.747	0.204	-0.162
-318.026	133.611	0.065	-0.083
-317.012	-36.877	-0.084	0.044
-315.997	501.354	-0.065	0.149
-314.983	269.655	-0.128	-0.222
-313.968	15.963	-0.102	-0.080
-312.953	257.850	0.028	0.048
-311.939	800.000	-0.050	-0.201
-310.924	-112.537	0.310	0.061
-309.910	56.442	-0.225	-0.216
-308.895	695.856	0.076	-0.198
-307.880	260.446	0.127	-0.217
-306.866	-112.869	-0.340	-0.067
-305.851	129.536	0.070	-0.089
-304.837	117.638	-0.135	-0.165
-303.822	160.772	0.222	-0.306
-302.807	-57.140	0.139	0.060
-301.793	124.202	0.084	0.104
-300.778	-99.871	-0.380	-0.094
-299.764	177.562	-0.110	0.159
-298.749	800.000	0.050	-0.160
-297.735	-86.508	0.158	0.048
-296.720	116.353	0.089	0.107
-295.705	13.373	0.252	-0.193
-294.691	-200.000	-0.033	-0.303
-293.676	57.190	0.138	0.133
-292.662	24.436	0.143	-0.117
-291.647	61.086	-0.111	0.109
-290.632	800.000	0.022	-0.091
-289.618	-107.116	-0.079	-0.017
-288.603	126.502	-0.262	0.327
-287.589	296.971	-0.220	0.399
-286.574	170.626	0.111	0.158
-285.559	186.667	-0.111	-0.163
-284.545	-200.000	-0.008	0.087
-283.530	-200.000	-0.015	-0.217
-282.516	-200.000	-0.008	-0.314
-281.501	54.935	0.248	0.236
-280.486	-200.000	0.003	0.032
-279.472	-200.000	0.031	-0.208
-278.457	-48.192	0.278	-0.132
-277.443	-200.000	-0.035	0.395
-276.428	76.496	0.273	0.286
-275.413	199.799	0.088	-0.133
-274.399	-200.000	0.005	0.290
-273.384	-82.503	0.493	-0.158
-272.370	-39.813	-0.225	-0.116
-271.355	-101.452	-0.194	0.047
-270.340	197.785	0.148	-0.224
-269.326	140.323	0.342	-0.446
-268.311	-106.933	-0.112	0.025
-267.297	-53.599	-0.118	-0.053
-266.282	110.253	-0.122	-0.144
-265.267	-200.000	-0.069	-0.342
-264.253	34.835	-0.164	-0.142
-263.238	-200.000	-0.023	-0.331
-262.224	-200.000	-0.042	0.340
-261.209	498.981	0.113	-0.256
-260.195	-104.867	-0.124	0.028
-259.180	800.000	0.003	0.010
-258.165	-87.601	-0.157	0.047
-257.151	286.764	-0.024	-0.043
-256.136	78.638	0.176	0.185
-255.122	-134.803	-0.209	0.025
-254.107	193.693	-0.082	0.122
-253.092	414.630	0.076	-0.160
-252.078	92.388	0.149	-0.166
-251.063	232.406	0.074	0.119
-250.049	364.239	-0.152	-0.301
-249.034	9.141	0.139	0.104
-248.019	-95.469	0.147	0.039
-247.005	-31.942	-0.108	0.059
-245.990	800.000	-0.053	0.180
-244.976	800.000	0.083	0.286
-243.961	10.513	0.092	0.069
-242.946	173.529	-0.155	-0.220
-241.932	7.567	0.070	0.051
-240.917	-172.193	-0.093	-0.003
-239.903	90.824	-0.192	-0.212
-238.888	196.789	0.011	0.017
-237.873	-132.487	-0.134	0.017
-236.859	89.989	-0.100	-0.110
-235.844	-200.000	-0.010	-0.416
-234.830	-158.290	0.202	0.012
-233.815	-200.000	0.017	0.155
-232.800	800.000	0.082	0.257
-231.786	-0.206	-0.134	0.094
-230.771	340.575	0.196	0.376
-229.757	-200.000	0.032	0.141
-228.742	532.913	0.088	-0.205
-227.727	645.638	0.020	0.049
-226.713	672.609	-0.057	-0.146
-225.698	-200.000	0.011	-0.241
-224.684	-90.388	-0.211	-0.060
-223.669	-143.874	0.323	0.030
-222.655	-5.564	0.148	0.100
-221.640	-126.920	-0.008	-0.001
-220.625	-145.930	-0.270	-0.024
-219.611	-59.552	0.091	0.038
-218.596	11.522	-0.208	0.157
-217.582	-65.721	0.008	0.003
-216.567	-118.917	-0.100	0.017
-215.552	-13.406	-0.025	-0.016
-214.538	-6.788	-0.240	0.160
-213.523	-200.000	0.045	0.324
-212.509	-200.000	-0.005	0.539
-211.494	-154.667	0.162	-0.011
-210.479	-200.000	-0.016	-0.090
-209.465	-16.520	-0.179	-0.111
-208.450	-56.844	0.129	-0.056
-207.436	-181.015	0.132	-0.003
-206.421	-91.739	-0.270	-0.075
-205.406	-200.000	0.025	0.167
-204.392	98.683	0.349	0.396
-203.377	-35.377	-0.034	-0.018
-202.363	324.572	-0.078	-0.146
-201.348	237.408	-0.054	0.089
-200.333	-200.000	-0.010	0.212
-199.319	-91.879	-0.426	0.119
-198.304	-52.956	0.348	0.158
-197.290	-12.920	0.204	0.131
-196.275	-45.758	0.149	0.073
-195.260	800.000	0.019	-0.067
-194.246	-160.476	0.302	0.016
-193.231	-200.000	0.002	-0.168
-192.217	12.779	0.297	0.226
-191.202	-200.000	0.010	-0.257
-190.187	-200.000	0.009	0.059
-189.173	-44.414	0.315	0.155
-188.158	-200.000	-0.003	-0.282
-187.144	-53.455	-0.122	0.055
-186.129	-200.000	-0.039	0.218
-185.114	800.000	0.066	-0.221
-184.100	800.000	-0.065	-0.209
-183.085	-143.206	-0.107	0.010
-182.071	-131.915	-0.105	0.014
-181.056	499.945	0.057	-0.129
-180.042	-200.000	-0.010	0.079
-179.027	-49.837	0.184	-0.086
-178.012	-200.000	-0.025	-0.336
-176.998	151.210	-0.196	0.263
-175.983	203.123	-0.117	0.178
-174.969	800.000	0.047	-0.129
-173.954	-147.664	0.200	0.016
-172.939	-200.000	-0.026	0.152
-171.925	-87.924	-0.220	0.065
-170.910	-18.502	0.134	-0.082
-169.896	-23.731	-0.481	0.283
-168.881	-200.000	0.019	0.146
-167.866	-67.946	0.289	0.111
-166.852	-95.098	0.405	0.107
-165.837	-60.705	0.112	0.047
-164.823	-8.205	0.253	-0.167
-163.808	78.322	0.387	0.406
-162.793	-74.220	0.133	-0.047
-161.779	-70.300	0.288	-0.107
-160.764	-200.000	-0.005	-0.283
-159.750	-200.000	-0.046	0.201
-158.735	800.000	0.167	0.510
-157.720	609.930	-0.009	-0.022
-156.706	-119.676	-0.124	0.021
-155.691	-78.497	0.235	-0.079
-154.677	-11.778	0.211	-0.136
-153.662	-30.951	-0.304	-0.168
-152.647	336.517	-0.100	-0.190
-151.633	202.468	-0.019	-0.029
-150.618	-200.000	0.017	0.203
-149.604	800.000	-0.101	-0.340
-148.589	-200.000	-0.029	0.125
-147.574	175.365	0.175	-0.249
-146.560	9.182	0.145	-0.108
-145.545	12.161	0.377	-0.284
-144.531	-200.000	-0.033	0.325
-143.516	-157.398	-0.343	-0.020
-142.502	-6.022	0.095	-0.064
-141.487	-73.786	-0.336	0.120
-140.472	-75.112	-0.191	-0.067
-139.458	-200.000	0.047	0.202
-138.443	192.243	-0.169	-0.251
-137.429	313.384	0.138	-0.254
-136.414	-200.000	0.009	0.400
-135.399	-49.212	0.143	0.067
-134.385	-140.324	0.187	-0.019
-133.370	800.000	-0.083	0.250
-132.356	552.188	0.015	-0.034
-131.341	-171.910	-0.278	-0.009
-130.326	-86.261	0.148	0.045
-129.312	-152.329	0.281	-0.020
-128.297	-60.541	0.310	-0.129
-127.283	-200.000	-0.056	-0.267
-126.268	-200.000	0.007	-0.138
-125.253	65.572	0.315	0.312
-124.239	162.628	0.213	-0.293
-123.224	800.000	-0.069	0.214
-122.210	-200.000	-0.054	0.345
-121.195	-200.000	-0.012	0.059
-120.180	-17.140	-0.211	0.131
-119.166	800.000	-0.007	0.025
-118.151	-109.390	0.306	-0.063
-117.137	-200.000	0.057	-0.313
-116.122	702.962	-0.074	-0.191
-115.107	-31.497	-0.044	-0.024
-114.093	360.579	-0.121	0.238
-113.078	-73.302	-0.117	-0.042
-112.064	278.794	0.114	0.199
-111.049	123.412	-0.219	0.269
-110.034	800.000	-0.003	-0.008
-109.020	800.000	-0.101	-0.412
-108.005	-76.998	0.209	-0.071
-106.991	142.784	0.166	-0.216
-105.976	-167.615	0.242	-0.009
-104.962	-200.000	0.015	-0.104
-103.947	-86.822	-0.140	0.042
-102.932	-200.000	0.014	-0.230
-101.918	-2.778	0.196	-0.134
-100.903	1.350	0.203	-0.143
-99.889	-3.953	0.160	-0.109
-98.874	-200.000	-0.004	-0.196
-97.859	-200.000	-0.344	0.000
-96.845	-2.480	-0.283	-0.194
-95.830	-39.059	0.113	0.058
-94.816	179.507	-0.041	0.059
-93.801	327.800	0.084	0.157
-92.786	-67.951	-0.238	0.091
-91.772	127.942	0.130	0.162
-90.757	19.926	0.150	-0.119
-89.743	99.759	0.161	-0.183
-88.728	-12.098	-0.218	-0.140
-87.713	372.253	0.055	0.109
-86.699	-84.935	0.049	-0.015
-85.684	-123.072	0.253	0.040
-84.670	-69.158	-0.069	0.026
-83.655	685.765	-0.123	0.315
-82.640	81.481	0.059	-0.062
-81.626	185.627	0.278	-0.404
-80.611	27.937	-0.169	-0.140
-79.597	799.655	0.116	0.313
-78.582	-39.322	-0.139	-0.071
-77.567	70.484	0.133	0.135
-76.553	-49.927	-0.169	-0.079
-75.538	-200.000	0.031	-0.169
-74.524	151.177	0.103	-0.137
-73.509	9.174	0.190	0.141
-72.494	-106.914	-0.262	-0.057
-71.480	-92.595	-0.278	-0.076
-70.465	-141.632	-0.112	0.011
-69.451	-200.000	-0.018	0.163
-68.436	75.206	0.314	0.323
-67.422	90.101	-0.328	0.358
-66.407	33.021	0.131	0.111
-65.392	-200.000	0.038	-0.230
-64.378	-132.215	0.152	0.019
-63.363	-200.000	-0.039	0.209
-62.349	176.059	-0.068	0.097
-61.334	102.832	-0.914	-1.047
-60.319	-14.799	0.594	0.373
-59.305	-200.000	-0.200	-1.263
-58.290	160.872	0.755	1.031
-57.276	800.000	0.558	1.599
-56.261	-200.000	116.200	660.220
-55.246	527.953	1532.979	3534.821
-54.232	174.563	2717.482	3842.768
-53.217	101.702	2303.127	2625.533
-52.203	36.322	1907.053	1643.574
-51.188	30.024	1697.231	1414.762
-50.173	27.616	1654.731	1361.324
-49.159	49.605	1711.290	1575.274
-48.144	47.758	1725.080	1573.920
-47.130	29.671	1682.720	1399.768
-46.115	26.989	1668.439	1367.660
-45.100	26.841	1663.352	1362.327
-44.086	26.863	1660.615	1360.195
-43.071	26.751	1658.672	1357.715
-42.057	26.742	1656.066	1355.461
-41.042	26.811	1654.025	1354.251
-40.027	26.795	1652.286	1352.648
-39.013	26.803	1650.205	1350.954
-37.998	26.760	1648.516	1349.201
-36.984	26.801	1647.364	1348.504
-35.969	26.871	1645.685	1347.600
-34.954	26.977	1643.685	1346.692
-33.940	27.010	1641.763	1345.306
-32.925	26.871	1640.816	1343.448
-31.911	26.987	1638.272	1342.169
-30.896	26.949	1636.993	1340.789
-29.881	26.877	1635.471	1338.961
-28.867	26.890	1633.742	1337.587
-27.852	26.915	1632.386	1336.607
-26.838	26.934	1630.665	1335.282
-25.823	26.865	1629.666	1333.907
-24.809	26.928	1628.629	1333.470
-23.794	26.873	1627.339	1331.956
-22.779	26.879	1625.502	1330.444
-21.765	26.848	1623.944	1328.887
-20.750	26.878	1622.288	1327.701
-19.736	26.968	1621.064	1327.302
-18.721	26.972	1619.569	1326.052
-17.706	26.928	1618.215	1324.571
-16.692	26.896	1616.545	1322.918
-15.677	26.869	1615.561	1321.866
-14.663	27.032	1613.769	1321.532
-13.648	27.020	1612.728	1320.540
-12.633	26.972	1610.973	1318.706
-11.619	26.970	1608.976	1317.003
-10.604	26.973	1607.770	1315.982
-9.590	27.026	1605.900	1314.781
-8.575	27.091	1604.892	1314.381
-7.560	26.971	1604.037	1312.756
-6.546	26.986	1602.881	1311.867
-5.531	26.991	1601.544	1310.755
-4.517	27.013	1600.453	1309.970
-3.502	26.883	1599.783	1308.432
-2.487	26.999	1597.901	1307.675
-1.473	26.669	1586.013	1295.535
-0.458	23.820	1566.418	1259.328
0.556	21.186	1567.585	1227.858
1.571	18.957	1591.375	1230.453
2.586	18.362	1604.006	1235.818
3.600	16.157	1548.602	1177.649
4.615	9.568	1440.995	1052.785
5.629	4.239	1382.363	976.373
6.644	3.503	1374.939	966.435
7.659	3.386	1374.138	965.049
8.673	3.288	1373.294	963.763
9.688	3.363	1371.322	962.760
10.702	3.405	1367.858	960.507
11.717	5.846	1372.875	979.195
12.731	12.882	1385.726	1032.472
13.746	18.893	1395.909	1077.771
14.761	20.339	1396.706	1087.357
15.775	19.595	1394.955	1081.242
16.790	18.681	1392.230	1073.321
17.804	17.801	1390.151	1066.124
18.819	17.484	1388.614	1062.871
19.834	17.304	1387.572	1060.858
20.848	17.156	1386.442	1058.975
21.863	16.864	1386.003	1056.727
22.877	16.819	1384.070	1054.879
23.892	16.763	1383.341	1053.884
24.907	16.694	1382.728	1052.896
25.921	16.710	1381.900	1052.269
26.936	16.799	1380.885	1051.954
27.950	16.827	1379.892	1051.279
28.965	16.816	1379.170	1050.571
29.980	16.986	1377.692	1050.403
30.994	17.028	1376.508	1049.669
32.009	17.104	1375.626	1049.370
33.023	17.224	1374.180	1048.916
34.038	16.956	1373.482	1046.636
35.053	16.970	1371.701	1045.276
36.067	16.970	1370.500	1044.265
37.082	16.838	1369.925	1042.923
38.096	17.019	1368.555	1042.901
39.111	16.922	1367.975	1041.768
40.126	16.900	1367.137	1040.903
41.140	16.671	1366.335	1038.798
42.155	16.649	1365.354	1037.823
43.169	16.548	1365.632	1037.324
44.184	16.571	1364.967	1036.868
45.199	16.601	1364.650	1036.719
46.213	16.707	1364.114	1036.871
47.228	16.756	1363.377	1036.517
48.242	16.859	1361.838	1035.884
49.257	16.898	1360.397	1034.935
50.271	16.828	1359.088	1033.423
51.286	16.869	1357.594	1032.443
52.301	16.820	1356.635	1031.327
53.315	16.790	1355.308	1030.041
54.330	16.741	1354.278	1028.874
55.344	16.621	1353.448	1027.422
56.359	16.730	1352.067	1026.941
57.374	16.681	1351.285	1025.961
58.388	16.595	1350.870	1025.034
59.403	16.513	1350.355	1024.055
60.417	16.651	1349.002	1023.775
61.432	16.461	1348.839	1022.410
62.447	16.433	1347.621	1021.228
63.461	16.482	1346.253	1020.396
64.476	16.459	1345.222	1019.385
65.490	16.401	1344.241	1018.206
66.505	16.454	1342.649	1017.228
67.520	16.505	1341.187	1016.334
68.534	16.428	1340.218	1015.052
69.549	16.453	1339.393	1014.486
70.563	16.401	1337.976	1013.010
71.578	16.257	1336.718	1011.107
72.593	16.263	1336.132	1010.605
73.607	16.283	1335.279	1009.992
74.622	16.323	1334.361	1009.450
75.636	16.355	1333.301	1008.748
76.651	16.275	1333.579	1008.392
77.666	16.372	1332.934	1008.396
78.680	16.452	1331.976	1008.059
79.695	16.507	1331.498	1007.934
80.709	16.536	1330.707	1007.420
81.724	16.623	1330.077	1007.372
82.739	16.714	1329.054	1007.051
83.753	16.832	1328.411	1007.173
84.768	16.794	1327.271	1005.991
85.782	16.976	1325.868	1005.920
86.797	16.857	1325.169	1004.595
87.812	16.957	1323.361	1003.726
88.826	16.850	1322.499	1002.350
89.841	16.852	1321.794	1001.744
90.855	16.873	1320.713	1000.959
91.870	16.990	1319.746	1000.825
92.884	16.948	1319.272	1000.130
93.899	17.030	1318.205	999.716
94.914	17.217	1317.131	999.912
95.928	17.064	1316.594	998.518
96.943	17.031	1315.447	997.363
97.957	17.019	1314.386	996.404
98.972	16.964	1313.662	995.440
99.987	16.980	1312.246	994.376
101.001	16.992	1311.469	993.768
102.016	16.945	1310.557	992.717
103.030	17.062	1309.168	992.260
104.045	16.972	1308.923	991.457
105.060	16.831	1307.376	989.376
106.074	16.698	1305.753	987.284
107.089	16.481	1304.687	985.128
108.103	16.476	1303.276	983.946
109.118	16.435	1301.647	982.391
110.133	16.424	1300.743	981.561
111.147	16.587	1299.119	981.192
112.162	16.701	1297.928	980.869
113.176	16.588	1296.917	979.362
114.191	16.586	1295.950	978.532
115.206	16.633	1294.769	977.825
116.220	16.642	1293.279	976.665
117.235	16.621	1292.615	975.959
118.249	16.532	1291.445	974.474
119.264	16.508	1290.170	973.289
120.279	16.574	1288.682	972.456
121.293	16.484	1288.061	971.386
122.308	16.485	1286.915	970.444
123.322	16.377	1285.711	968.831
124.337	16.376	1284.733	968.000
125.352	16.431	1283.318	967.164
126.366	16.511	1281.776	966.371
127.381	16.440	1281.087	965.362
128.395	16.561	1279.941	965.103
129.410	16.535	1279.402	964.464
130.424	16.458	1278.909	963.568
131.439	16.595	1277.419	963.139
132.454	16.589	1276.818	962.566
133.468	16.607	1275.845	961.851
134.483	16.611	1275.166	961.278
135.497	16.616	1274.029	960.365
136.512	16.595	1272.650	959.118
137.527	16.642	1271.370	958.335
138.541	16.687	1269.889	957.393
139.556	16.790	1268.451	956.805
140.570	16.830	1267.889	956.520
141.585	16.906	1266.396	955.739
142.600	16.956	1265.763	955.458
143.614	17.056	1264.791	955.201
144.629	17.089	1263.685	954.469
145.643	17.079	1262.482	953.417
146.658	16.952	1261.559	951.925
147.673	16.783	1259.857	949.608
148.687	16.707	1258.916	948.388
149.702	16.623	1257.648	946.878
150.716	16.597	1256.483	945.772
151.731	16.712	1254.961	945.184
152.746	16.727	1253.760	944.284
153.760	16.724	1252.561	943.277
154.775	16.836	1251.755	943.214
155.789	16.885	1251.069	942.886
156.804	16.959	1250.014	942.417
157.819	16.988	1248.527	941.372
158.833	17.041	1247.985	941.178
159.848	17.120	1247.039	940.814
160.862	17.101	1246.094	939.915
161.877	16.907	1244.901	937.857
162.892	16.801	1243.374	936.039
163.906	16.936	1242.470	936.020
164.921	16.701	1241.787	934.127
165.935	16.860	1240.507	933.961
166.950	16.807	1240.457	933.546
167.964	16.960	1239.502	933.589
168.979	16.815	1238.784	932.166
169.994	16.868	1238.043	931.818
171.008	16.906	1237.056	931.200
172.023	17.057	1236.007	931.156
173.037	17.194	1235.214	931.230
174.052	17.095	1233.928	929.635
175.067	16.955	1232.937	928.042
176.081	16.958	1231.810	927.124
177.096	16.812	1231.291	925.856
178.110	16.911	1230.136	925.445
179.125	16.960	1228.951	924.741
180.140	16.998	1227.544	923.807
181.154	16.974	1226.700	922.959
182.169	17.079	1225.578	922.601
183.183	17.100	1224.648	921.937
184.198	17.120	1223.289	920.937
185.213	17.158	1222.063	920.142
186.227	17.216	1221.211	919.730
187.242	17.229	1220.275	919.018
188.256	17.313	1219.324	918.672
189.271	17.348	1218.420	918.101
190.286	17.132	1217.331	916.030
191.300	16.889	1215.881	913.551
192.315	16.840	1215.179	912.676
193.329	16.818	1214.891	912.261
194.344	16.930	1214.436	912.442
195.359	16.989	1214.330	912.601
196.373	17.158	1213.226	912.598
197.388	17.220	1212.975	912.663
198.402	17.365	1212.680	913.140
199.417	17.466	1212.122	913.179
200.432	17.525	1211.037	912.596
201.446	17.559	1210.270	912.119
202.461	17.635	1209.571	911.919
203.475	17.594	1208.670	910.940
204.490	17.448	1207.392	909.114
205.504	17.326	1206.045	907.372
206.519	17.386	1204.718	906.612
207.534	17.289	1203.466	905.072
208.548	17.293	1202.524	904.303
209.563	17.330	1201.818	903.890
210.577	17.518	1200.411	903.749
211.592	17.479	1199.861	903.052
212.607	17.467	1199.800	902.860
213.621	17.543	1198.545	902.238
214.636	17.474	1197.389	900.922
215.650	17.621	1196.620	901.041
216.665	17.539	1196.119	900.152
217.680	17.734	1194.786	900.099
218.694	17.755	1194.497	899.910
219.709	17.652	1193.329	898.410
220.723	17.742	1192.382	898.090
221.738	17.787	1191.726	897.756
222.753	17.728	1190.878	896.728
223.767	17.705	1190.127	895.959
224.782	17.685	1189.940	895.637
225.796	17.864	1189.414	896.102
226.811	17.870	1188.420	895.305
227.826	17.748	1187.334	893.766
228.840	17.786	1186.992	893.630
229.855	17.777	1186.165	892.881
230.869	17.671	1185.166	891.496
231.884	17.697	1184.343	890.935
232.899	17.589	1183.475	889.635
233.913	17.576	1183.049	889.172
234.928	17.571	1181.671	888.028
235.942	17.463	1181.115	886.971
236.957	17.549	1180.186	886.640
237.972	17.504	1179.430	885.761
238.986	17.552	1179.128	885.707
240.001	17.571	1178.357	885.148
241.015	17.726	1177.255	885.044
242.030	17.643	1176.613	884.057
243.045	17.877	1175.760	884.549
244.059	17.783	1175.169	883.541
245.074	17.773	1174.255	882.722
246.088	17.852	1173.427	882.431
247.103	17.992	1172.747	882.566
248.117	17.952	1172.011	881.724
249.132	18.131	1171.396	882.109
250.147	18.242	1170.918	882.243
251.161	18.377	1169.990	882.158
252.176	18.317	1169.461	881.374
253.190	18.406	1168.741	881.214
254.205	18.592	1168.249	881.717
255.220	18.448	1167.299	880.185
256.234	18.564	1166.776	880.308
257.249	18.544	1166.144	879.649
258.263	18.547	1165.651	879.216
259.278	18.423	1165.007	878.014
260.293	18.562	1164.224	878.059
261.307	18.511	1163.996	877.551
262.322	18.620	1163.199	877.431
263.336	18.580	1162.455	876.586
264.351	18.597	1161.964	876.224
265.366	18.626	1161.315	875.807
266.380	18.663	1160.101	875.001
267.395	18.626	1159.281	874.117
268.409	18.458	1158.510	872.605
269.424	18.459	1157.860	872.039
270.439	18.406	1157.748	871.608
271.453	18.420	1156.873	870.946
272.468	18.409	1155.573	869.832
273.482	18.434	1154.815	869.314
274.497	18.394	1154.464	868.771
275.512	18.344	1154.052	868.126
276.526	18.358	1152.937	867.286
277.541	18.438	1152.372	867.187
278.555	18.572	1151.213	866.917
279.570	18.563	1151.303	866.859
280.585	18.713	1150.474	866.920
281.599	18.693	1149.712	866.163
282.614	18.545	1148.130	864.154
283.628	18.583	1147.147	863.527
284.643	18.543	1146.394	862.683
285.657	18.539	1145.346	861.799
286.672	18.583	1144.237	861.108
287.687	18.558	1143.691	860.493
288.701	18.673	1142.662	860.223
289.716	18.731	1141.699	859.711
290.730	18.676	1141.414	859.144
291.745	18.529	1141.292	858.241
292.760	18.753	1140.142	858.422
293.774	18.639	1139.819	857.530
294.789	18.890	1139.371	858.373
295.803	18.894	1138.425	857.603
296.818	18.773	1137.280	856.064
297.833	18.784	1136.784	855.666
298.847	18.846	1135.763	855.131
299.862	18.798	1135.141	854.350
300.876	18.642	1134.998	853.391
301.891	18.957	1133.921	854.067
302.906	19.013	1133.092	853.646
303.920	19.014	1132.508	853.138
304.935	19.070	1131.881	852.868
305.949	19.152	1131.204	852.688
306.964	19.022	1131.017	851.829
307.979	19.053	1129.969	851.114
308.993	18.957	1129.161	849.956
310.008	19.083	1127.806	849.484
311.022	19.059	1127.602	849.135
312.037	19.033	1126.748	848.291
313.052	18.969	1125.516	846.974
314.066	18.916	1124.545	845.907
315.081	18.798	1124.072	844.896
316.095	18.870	1123.120	844.457
317.110	18.870	1122.522	843.933
318.125	18.811	1121.853	843.068
319.139	18.865	1120.928	842.561
320.154	18.868	1120.214	841.965
321.168	18.927	1119.833	841.892
322.183	18.990	1118.983	841.490
323.197	18.946	1118.586	840.901
324.212	19.012	1118.100	840.785
325.227	19.000	1117.157	839.943
326.241	19.068	1116.766	839.904
327.256	18.991	1115.964	838.851
328.270	19.077	1114.731	838.270
329.285	18.882	1113.767	836.522
330.300	18.968	1113.067	836.337
331.314	18.948	1112.213	835.527
332.329	18.974	1111.574	835.101
333.343	19.145	1110.112	834.754
334.358	19.177	1109.592	834.448
335.373	19.109	1109.144	833.704
336.387	19.207	1108.153	833.359
337.402	19.278	1107.331	833.012
338.416	19.389	1106.784	833.064
339.431	19.437	1106.038	832.661
340.446	19.473	1105.786	832.571
341.460	19.540	1104.993	832.222
342.475	19.622	1103.960	831.767
343.489	19.632	1103.290	831.233
344.504	19.645	1102.274	830.461
345.519	19.619	1101.757	829.869
346.533	19.731	1101.092	829.833
347.548	19.792	1100.002	829.234
348.562	19.759	1099.459	828.593
349.577	19.646	1098.350	827.142
350.592	19.420	1097.594	825.418
351.606	19.407	1096.624	824.554
352.621	19.316	1096.254	823.766
353.635	19.461	1095.269	823.649
354.650	19.389	1094.677	822.785
355.665	19.484	1094.119	822.744
356.679	19.495	1093.355	822.152
357.694	19.517	1093.006	821.920
358.708	19.642	1092.351	821.950
359.723	19.490	1091.868	820.791
360.738	19.630	1090.934	820.682
361.752	19.654	1090.368	820.298
362.767	19.653	1089.898	819.865
363.781	19.570	1089.637	819.200
364.796	19.775	1088.948	819.587
365.810	19.932	1088.077	819.599
366.825	19.974	1087.674	819.420
367.840	19.997	1087.404	819.256
368.854	19.970	1087.007	818.759
369.869	20.028	1085.812	818.056
370.883	19.969	1085.193	817.241
371.898	19.876	1083.966	815.807
372.913	19.977	1083.514	815.869
373.927	19.926	1083.134	815.271
374.942	20.053	1082.814	815.557
375.956	20.062	1082.252	815.105
376.971	20.051	1081.412	814.346
377.986	20.014	1081.399	814.090
379.000	20.243	1080.264	814.237
380.015	20.220	1079.805	813.710
381.029	20.286	1079.392	813.638
382.044	20.256	1078.522	812.768
383.059	20.321	1077.605	812.310
384.073	20.090	1077.179	810.836
385.088	20.244	1075.880	810.510
386.102	20.128	1075.421	809.547
387.117	20.214	1074.027	808.828
388.132	20.009	1073.147	807.138
389.146	20.127	1072.352	807.020
390.161	19.990	1071.913	805.978
391.175	19.992	1071.318	805.471
392.190	20.110	1070.629	805.430
393.205	20.298	1069.927	805.702
394.219	20.145	1069.097	804.298
395.234	20.184	1068.228	803.755
396.248	20.066	1067.106	802.293
397.263	20.137	1065.704	801.493
398.278	20.114	1065.123	800.881
399.292	19.859	1064.866	799.440
400.307	20.061	1063.794	799.494
401.321	19.979	1063.173	798.578
402.336	19.993	1062.203	797.844
403.350	20.069	1061.683	797.732
404.365	20.043	1061.041	797.062
405.380	20.225	1060.090	797.114
406.394	20.160	1059.749	796.487
407.409	20.247	1059.072	796.308
408.423	20.313	1058.373	796.014
409.438	20.453	1057.464	795.900
410.453	20.438	1056.875	795.316
411.467	20.552	1056.231	795.283
412.482	20.684	1055.807	795.499
413.496	20.613	1054.810	794.354
414.511	20.577	1054.629	793.980
415.526	20.820	1054.222	794.713
416.540	20.739	1054.112	794.193
417.555	20.757	1052.988	793.358
418.569	20.699	1052.505	792.660
419.584	20.777	1051.893	792.484
420.599	20.793	1051.655	792.305
421.613	155.032	1404.765	1796.533
422.628	142.196	1456.173	1796.599
