DTS Sentinel unit serial number:	SN413079Multiplexer serial number:	ORYXHardware model number:	OX4-SRSoftware version number:	ORYX F/W v4.00 Oryx Data Collector v3.7.2.0data status	okinstallation	princeton_trtdifferential loss correction	single-endedforward channel	channel 2reverse channel	N/Adate	2019/09/13time	00:39:34forward acquisition time	60.00reverse acquisition time	0.00gamma	496.2192k internal	0.2332k external	0.2332temperature offset calibration	1.0164default loss term (dB/km)	0.3790temperature slope calibration	1.0000multiplexer offset coefficient	1.0000multiplexer slope coefficient	1.0000fibre end	0.00T internal ref (°C)	28.27T ext. ref 1 (°C)	3.70T ext. ref 2 (°C)	22.85length (m)	temperature (°C)	Stokes	anti-Stokes-747.200	63.186	0.159	0.161
-746.185	-75.960	0.186	0.066
-745.171	138.432	0.076	0.101
-744.156	-200.000	-0.010	-0.313
-743.142	-134.407	-0.236	-0.029
-742.127	-141.299	-0.432	-0.044
-741.112	248.203	0.091	-0.155
-740.098	-157.541	-0.061	-0.004
-739.083	800.000	0.088	0.335
-738.069	-18.588	-0.155	-0.097
-737.054	-101.786	-0.090	-0.022
-736.039	-125.202	-0.178	-0.027
-735.025	92.103	-0.129	-0.146
-734.010	-79.123	-0.062	-0.021
-732.996	-103.316	-0.181	-0.043
-731.981	800.000	-0.101	-0.298
-730.966	800.000	-0.069	-0.209
-729.952	-200.000	-0.043	0.251
-728.937	794.123	0.036	0.101
-727.923	382.398	-0.155	0.319
-726.908	24.145	0.150	-0.125
-725.894	-98.702	0.116	-0.030
-724.879	185.724	-0.100	-0.150
-723.864	55.999	0.042	-0.041
-722.850	53.469	-0.191	-0.184
-721.835	47.941	0.080	-0.075
-720.821	-50.182	-0.305	0.145
-719.806	-147.661	-0.161	-0.014
-718.791	-79.576	0.065	0.022
-717.777	-200.000	-0.025	-0.295
-716.762	24.528	0.209	-0.174
-715.748	26.610	-0.178	-0.150
-714.733	636.084	-0.030	0.075
-713.718	-2.869	-0.372	0.261
-712.704	-99.805	0.201	0.051
-711.689	-200.000	-0.007	-0.153
-710.675	190.502	0.062	0.093
-709.660	130.687	-0.053	-0.068
-708.645	-61.738	0.260	0.109
-707.631	55.767	-0.123	0.120
-706.616	-195.912	0.228	-0.002
-705.602	0.243	-0.175	0.125
-704.587	0.844	0.227	-0.163
-703.572	-84.181	0.008	-0.003
-702.558	354.640	-0.156	0.311
-701.543	-84.641	0.120	0.038
-700.529	-57.419	-0.124	-0.055
-699.514	579.773	0.125	-0.308
-698.499	800.000	0.083	-0.285
-697.485	105.266	-0.116	-0.138
-696.470	156.254	-0.281	-0.390
-695.456	-200.000	0.007	-0.089
-694.441	-43.913	-0.083	0.042
-693.426	198.730	0.091	0.139
-692.412	-101.214	0.400	-0.098
-691.397	112.610	-0.104	0.127
-690.383	800.000	-0.088	-0.258
-689.368	-200.000	0.031	0.167
-688.354	29.063	0.209	-0.178
-687.339	4.435	0.067	-0.049
-686.324	124.666	0.008	-0.010
-685.310	20.576	0.057	0.046
-684.295	-200.000	0.062	-0.317
-683.281	-46.938	0.140	0.069
-682.266	-200.000	0.020	0.292
-681.251	-146.773	0.274	0.024
-680.237	244.622	0.007	-0.012
-679.222	-192.394	-0.412	0.004
-678.208	-154.210	0.105	-0.007
-677.193	-131.845	-0.147	-0.019
-676.178	117.881	0.166	-0.205
-675.164	72.117	0.266	0.278
-674.149	-95.428	0.153	0.041
-673.135	-200.000	0.054	-0.390
-672.120	-44.779	-0.280	-0.140
-671.105	67.946	-0.046	0.047
-670.091	-200.000	-0.012	0.193
-669.076	116.533	0.039	-0.048
-668.062	-34.805	0.083	-0.045
-667.047	-200.000	0.010	-0.057
-666.032	149.868	0.170	-0.231
-665.018	-164.928	-0.259	0.012
-664.003	-200.000	0.065	-0.288
-662.989	-57.461	0.044	-0.019
-661.974	-200.000	0.020	0.461
-660.959	109.605	-0.122	0.147
-659.945	23.013	-0.136	-0.112
-658.930	180.830	0.110	0.162
-657.916	-123.233	0.288	0.046
-656.901	800.000	-0.040	-0.123
-655.886	800.000	0.011	0.038
-654.872	-152.850	0.073	-0.005
-653.857	100.794	-0.197	-0.230
-652.843	427.575	-0.054	0.118
-651.828	-170.995	-0.539	0.018
-650.814	-163.508	-0.165	-0.008
-649.799	-74.265	-0.114	0.041
-648.784	-0.902	-0.121	0.086
-647.770	800.000	-0.018	-0.074
-646.755	-131.117	-0.148	-0.020
-645.741	-57.271	0.230	-0.101
-644.726	-142.337	-0.175	-0.017
-643.711	315.743	-0.134	0.253
-642.697	479.841	0.008	-0.019
-641.682	-98.994	-0.301	-0.077
-640.668	62.053	0.133	-0.133
-639.653	-88.486	-0.065	0.019
-638.638	-8.640	0.023	-0.016
-637.624	-94.568	-0.200	-0.055
-636.609	-67.339	0.332	-0.131
-635.595	800.000	-0.079	0.272
-634.580	224.306	-0.194	-0.314
-633.565	91.946	0.115	-0.129
-632.551	-200.000	0.010	0.144
-631.536	-87.743	0.093	0.028
-630.522	69.578	0.054	0.055
-629.507	-104.212	-0.257	-0.060
-628.492	-16.457	-0.173	0.110
-627.478	-84.548	-0.135	-0.043
-626.463	800.000	0.015	-0.054
-625.449	102.505	0.074	0.087
-624.434	-98.639	0.180	-0.046
-623.419	-200.000	0.057	-0.264
-622.405	7.538	-0.135	0.101
-621.390	-64.762	-0.233	-0.094
-620.376	-88.948	-0.297	-0.088
-619.361	54.056	-0.212	-0.204
-618.346	800.000	-0.019	0.065
-617.332	146.239	-0.139	0.187
-616.317	87.088	-0.135	-0.149
-615.303	-200.000	0.017	0.118
-614.288	-200.000	0.035	0.286
-613.273	93.283	0.202	0.229
-612.259	-74.023	0.125	-0.045
-611.244	-200.000	-0.017	-0.132
-610.230	-148.941	0.270	-0.022
-609.215	130.465	-0.115	-0.148
-608.201	-15.636	0.120	0.077
-607.186	-132.269	0.333	-0.043
-606.171	94.919	0.063	0.071
-605.157	800.000	0.073	0.228
-604.142	52.517	-0.186	-0.178
-603.128	800.000	0.021	-0.082
-602.113	98.697	-0.130	-0.150
-601.098	-115.069	0.080	0.015
-600.084	-77.438	-0.058	-0.020
-599.069	264.086	-0.070	0.122
-598.055	-54.313	0.166	0.075
-597.040	800.000	0.035	0.102
-596.025	574.402	-0.128	-0.311
-595.011	561.729	0.135	0.327
-593.996	9.705	0.034	0.026
-592.982	252.978	0.143	0.244
-591.967	-78.013	0.375	0.129
-590.952	157.570	0.067	0.093
-589.938	-200.000	-0.021	0.399
-588.923	-42.381	-0.090	-0.046
-587.909	9.758	0.247	0.188
-586.894	800.000	0.069	0.193
-585.879	-200.000	-0.066	-0.384
-584.865	82.058	-0.027	-0.030
-583.850	-7.205	-0.080	-0.054
-582.836	-200.000	0.016	-0.127
-581.821	27.395	-0.148	-0.124
-580.806	93.048	0.077	-0.087
-579.792	361.939	0.100	-0.200
-578.777	265.941	-0.235	0.411
-577.763	-200.000	0.005	0.400
-576.748	-200.000	-0.021	-0.092
-575.733	165.243	-0.097	0.136
-574.719	54.026	-0.180	-0.173
-573.704	154.211	-0.180	0.247
-572.690	157.513	-0.117	0.162
-571.675	800.000	0.053	-0.165
-570.661	-200.000	-0.009	-0.442
-569.646	772.228	0.158	-0.430
-568.631	-194.469	0.279	0.002
-567.617	21.788	0.163	-0.133
-566.602	-200.000	0.010	0.125
-565.588	-111.253	-0.170	0.035
-564.573	155.028	0.117	-0.161
-563.558	-146.473	-0.364	-0.032
-562.544	-114.208	-0.223	-0.043
-561.529	186.591	-0.307	-0.457
-560.515	86.187	0.080	-0.087
-559.500	57.139	-0.105	-0.102
-558.485	-200.000	0.011	-0.498
-557.471	-87.055	0.063	-0.019
-556.456	205.974	0.246	0.382
-555.442	-11.619	-0.312	-0.205
-554.427	-111.482	-0.191	0.039
-553.412	41.488	0.095	-0.086
-552.398	-200.000	0.044	-0.349
-551.383	99.018	-0.065	0.075
-550.369	-95.231	-0.202	-0.054
-549.354	-46.831	0.198	0.097
-548.339	274.161	0.029	-0.051
-547.325	342.419	0.049	0.095
-546.310	-200.000	0.004	0.083
-545.296	243.432	0.104	-0.174
-544.281	68.331	0.136	0.139
-543.266	-200.000	-0.046	0.215
-542.252	-76.947	0.135	0.047
-541.237	84.068	-0.084	0.092
-540.223	-53.846	0.070	-0.032
-539.208	49.380	0.232	-0.218
-538.193	-88.109	0.152	-0.045
-537.179	73.546	-0.166	0.173
-536.164	155.719	-0.127	-0.174
-535.150	684.932	-0.060	-0.157
-534.135	-200.000	-0.023	-0.273
-533.121	-45.558	0.213	0.105
-532.106	-83.157	-0.066	-0.021
-531.091	-68.969	-0.291	-0.112
-530.077	-13.427	-0.055	0.035
-529.062	800.000	-0.048	0.191
-528.048	-184.616	0.110	-0.002
-527.033	-111.793	-0.298	0.060
-526.018	296.934	0.090	0.164
-525.004	466.018	0.068	-0.152
-523.989	-200.000	-0.412	0.000
-522.975	420.063	0.061	0.130
-521.960	-162.867	-0.131	-0.006
-520.945	-200.000	-0.000	0.011
-519.931	-200.000	-0.045	0.262
-518.916	-88.860	-0.202	-0.060
-517.902	-23.116	-0.333	-0.200
-516.887	44.253	0.165	-0.151
-515.872	-45.420	0.069	0.034
-514.858	-33.216	-0.366	0.202
-513.843	50.223	-0.123	0.116
-512.829	135.067	0.079	-0.102
-511.814	101.833	-0.242	0.281
-510.799	-200.000	-0.043	0.228
-509.785	761.546	-0.035	-0.096
-508.770	-31.998	-0.418	-0.233
-507.756	-138.397	0.266	0.029
-506.741	-168.962	-0.142	-0.005
-505.726	-164.748	0.407	0.018
-504.712	18.675	-0.130	-0.103
-503.697	-150.450	-0.415	0.032
-502.683	-200.000	-0.026	-0.151
-501.668	800.000	0.076	-0.305
-500.653	74.946	-0.132	0.139
-499.639	800.000	0.042	-0.151
-498.624	800.000	0.057	-0.239
-497.610	93.359	0.094	-0.106
-496.595	349.226	0.051	0.099
-495.581	-23.595	0.061	0.037
-494.566	793.159	-0.123	-0.338
-493.551	800.000	-0.074	-0.314
-492.537	151.440	0.107	0.145
-491.522	-200.000	-0.006	-0.188
-490.508	-140.481	-0.201	0.021
-489.493	-41.049	-0.223	0.115
-488.478	-140.578	-0.316	0.033
-487.464	-41.658	0.196	-0.100
-486.449	-120.227	-0.356	-0.060
-485.435	435.749	-0.143	-0.310
-484.420	-91.459	-0.083	-0.024
-483.405	-200.000	0.006	0.000
-482.391	233.778	-0.136	0.224
-481.376	212.733	-0.224	0.352
-480.362	4.103	0.150	-0.109
-479.347	-200.000	-0.039	0.203
-478.332	65.654	-0.065	-0.065
-477.318	21.815	-0.121	0.098
-476.303	-200.000	-0.027	-0.352
-475.289	-200.000	0.012	-0.134
-474.274	-117.452	0.233	0.042
-473.259	800.000	0.085	0.298
-472.245	-148.556	-0.381	-0.031
-471.230	-32.673	-0.327	0.181
-470.216	263.761	0.137	-0.237
-469.201	-200.000	-0.024	0.353
-468.186	120.448	-0.018	0.023
-467.172	-58.209	0.131	-0.057
-466.157	211.992	0.163	-0.255
-465.143	-46.005	0.176	-0.086
-464.128	800.000	-0.120	0.376
-463.113	131.035	-0.214	0.274
-462.099	-200.000	0.009	-0.190
-461.084	800.000	0.045	0.187
-460.070	166.764	-0.187	0.264
-459.055	800.000	0.066	0.183
-458.040	-31.445	0.233	0.130
-457.026	800.000	0.096	-0.321
-456.011	-101.730	-0.299	0.072
-454.997	-67.913	-0.344	-0.134
-453.982	800.000	-0.025	-0.084
-452.968	-200.000	-0.065	-0.292
-451.953	-45.627	0.208	-0.102
-450.938	126.323	-0.101	-0.127
-449.924	-6.030	-0.083	-0.056
-448.909	800.000	0.029	0.126
-447.895	67.298	-0.173	-0.176
-446.880	219.696	-0.166	-0.264
-445.865	2.778	-0.094	0.068
-444.851	33.383	0.263	-0.227
-443.836	800.000	0.085	-0.298
-442.822	-120.914	-0.168	-0.028
-441.807	43.059	-0.141	-0.128
-440.792	731.275	-0.114	0.303
-439.778	-97.349	0.151	-0.039
-438.763	-89.679	-0.127	-0.037
-437.749	64.822	0.047	-0.047
-436.734	206.252	-0.083	-0.128
-435.719	-200.000	0.019	-0.472
-434.705	318.160	-0.038	0.071
-433.690	14.411	0.084	0.065
-432.676	-200.000	0.084	0.380
-431.661	-200.000	-0.022	0.124
-430.646	63.524	-0.083	-0.082
-429.632	-200.000	0.023	-0.123
-428.617	-200.000	0.011	0.094
-427.603	-136.001	-0.358	0.042
-426.588	113.351	-0.186	0.224
-425.573	-27.275	-0.364	-0.211
-424.559	161.597	-0.120	-0.167
-423.544	-22.713	0.194	-0.116
-422.530	-97.095	0.241	0.063
-421.515	-55.747	-0.145	0.065
-420.500	594.563	0.051	0.125
-419.486	291.965	0.225	0.407
-418.471	-200.000	0.012	-0.117
-417.457	322.261	0.141	0.266
-416.442	-200.000	0.003	0.035
-415.428	-200.000	0.024	0.263
-414.413	800.000	0.063	-0.209
-413.398	-200.000	-0.010	0.175
-412.384	118.518	0.065	0.079
-411.369	486.718	0.094	-0.212
-410.355	218.576	0.085	0.136
-409.340	-42.551	0.357	0.181
-408.325	181.829	0.097	0.141
-407.311	-200.000	0.002	-0.163
-406.296	34.850	0.227	0.197
-405.282	-167.284	0.329	-0.013
-404.267	27.953	-0.232	0.194
-403.252	66.852	0.076	0.077
-402.238	293.881	0.163	-0.295
-401.223	492.061	-0.065	0.148
-400.209	-23.136	-0.089	0.053
-399.194	286.497	0.173	-0.311
-398.179	-105.095	-0.270	-0.061
-397.165	599.055	0.105	-0.258
-396.150	-200.000	0.021	0.141
-395.136	147.750	-0.125	0.167
-394.121	349.711	0.132	0.259
-393.106	-62.977	0.217	0.089
-392.092	-118.007	-0.348	-0.062
-391.077	293.028	0.093	-0.169
-390.063	-77.878	0.151	0.052
-389.048	253.397	-0.215	0.364
-388.033	-81.511	0.102	-0.033
-387.019	-30.028	0.082	-0.047
-386.004	-82.525	-0.114	-0.037
-384.990	-119.339	-0.223	0.038
-383.975	800.000	0.164	-0.531
-382.960	-95.012	0.487	-0.130
-381.946	362.621	-0.198	-0.394
-380.931	-137.580	-0.193	0.022
-379.917	206.589	-0.106	-0.163
-378.902	208.746	0.124	-0.192
-377.888	-172.219	-0.298	-0.009
-376.873	-200.000	0.020	0.345
-375.858	-56.854	0.218	0.096
-374.844	220.033	0.029	-0.047
-373.829	476.258	-0.061	0.137
-372.815	-200.000	-0.071	-0.411
-371.800	-95.375	0.263	0.070
-370.785	-89.670	0.177	-0.052
-369.771	-34.925	0.093	-0.050
-368.756	434.415	-0.038	0.083
-367.742	-159.417	0.188	-0.010
-366.727	-147.926	0.217	-0.018
-365.712	-18.939	-0.276	-0.170
-364.698	-59.380	0.141	0.060
-363.683	196.777	-0.045	0.068
-362.669	-200.000	-0.037	-0.231
-361.654	-6.837	0.106	-0.071
-360.639	566.584	0.136	0.328
-359.625	-75.149	0.160	-0.057
-358.610	117.597	0.122	-0.148
-357.596	-78.239	-0.145	0.049
-356.581	39.349	0.240	0.213
-355.566	-94.197	0.184	-0.050
-354.552	364.814	-0.139	-0.278
-353.537	540.898	0.045	-0.107
-352.523	-200.000	-0.051	0.242
-351.508	40.205	0.135	-0.120
-350.493	231.867	0.110	-0.179
-349.479	-138.210	-0.160	0.018
-348.464	118.161	-0.199	0.243
-347.450	-175.120	-0.156	-0.004
-346.435	800.000	0.065	0.249
-345.420	22.046	0.155	-0.125
-344.406	-200.000	-0.034	0.166
-343.391	-93.946	0.153	-0.042
-342.377	-39.483	0.258	-0.134
-341.362	-88.251	-0.155	-0.046
-340.348	-200.000	-0.061	-0.306
-339.333	-177.204	0.271	-0.007
-338.318	-70.173	0.118	0.045
-337.304	-4.044	-0.118	-0.081
-336.289	690.168	0.121	0.314
-335.275	424.481	0.069	0.147
-334.260	-200.000	-0.018	0.093
-333.245	169.362	-0.133	-0.188
-332.231	-81.612	-0.191	-0.062
-331.216	622.197	0.173	0.432
-330.202	7.428	0.091	-0.067
-329.187	87.607	-0.056	0.062
-328.172	-200.000	0.034	-0.260
-327.158	-34.610	-0.086	-0.047
-326.143	64.406	-0.301	-0.300
-325.129	1.659	0.210	0.150
-324.114	-200.000	0.005	-0.042
-323.099	-200.000	-0.023	0.190
-322.085	32.552	0.162	0.139
-321.070	60.086	0.190	0.186
-320.056	1.971	0.094	-0.067
-319.041	212.781	-0.116	0.180
-318.026	-127.313	0.473	0.068
-317.012	545.214	-0.085	0.201
-315.997	5.250	-0.066	-0.048
-314.983	-200.000	-0.020	0.364
-313.968	89.870	0.094	0.104
-312.953	-36.547	-0.246	-0.131
-311.939	800.000	-0.003	0.012
-310.924	-145.608	-0.171	0.015
-309.910	-138.589	-0.187	-0.020
-308.895	-200.000	-0.038	-0.294
-307.880	800.000	-0.054	0.156
-306.866	-200.000	0.009	-0.101
-305.851	-97.166	0.125	0.032
-304.837	48.854	0.377	-0.349
-303.822	49.947	-0.079	0.074
-302.807	61.783	-0.025	-0.025
-301.793	3.930	-0.240	0.173
-300.778	-56.698	0.294	0.128
-299.764	800.000	-0.076	0.296
-298.749	196.385	-0.258	0.389
-297.735	96.364	0.231	0.261
-296.720	-200.000	0.016	-0.198
-295.705	-66.309	0.503	-0.198
-294.691	-180.554	-0.139	0.003
-293.676	-22.290	-0.261	-0.156
-292.662	98.882	0.081	-0.092
-291.647	-41.653	-0.129	0.065
-290.632	-52.511	0.272	-0.124
-289.618	187.515	-0.192	0.283
-288.603	-200.000	-0.002	0.150
-287.589	-68.186	0.240	-0.092
-286.574	-200.000	-0.015	-0.099
-285.559	-136.799	-0.207	-0.024
-284.545	-130.026	0.224	0.030
-283.530	82.310	0.123	0.132
-282.516	-73.415	-0.263	0.095
-281.501	800.000	-0.048	-0.160
-280.486	-94.199	-0.303	0.082
-279.472	-130.582	0.272	0.036
-278.457	-200.000	0.050	-0.355
-277.443	279.743	0.063	-0.111
-276.428	800.000	0.154	0.442
-275.413	-200.000	-0.027	-0.131
-274.399	-36.580	-0.163	0.087
-273.384	800.000	-0.112	0.357
-272.370	10.094	0.175	0.131
-271.355	59.215	0.037	-0.036
-270.340	-200.000	-0.008	-0.056
-269.326	-200.000	0.023	-0.179
-268.311	-59.130	0.089	0.038
-267.297	-132.972	0.267	-0.033
-266.282	209.045	-0.044	0.069
-265.267	-25.453	0.249	0.146
-264.253	-156.448	-0.262	-0.016
-263.238	125.882	-0.078	0.097
-262.224	800.000	-0.092	-0.317
-261.209	174.459	0.155	-0.221
-260.195	-134.485	0.185	-0.022
-259.180	44.874	0.131	-0.119
-258.165	-37.905	0.059	-0.031
-257.151	152.490	0.093	-0.126
-256.136	4.156	-0.147	-0.106
-255.122	63.015	0.094	0.093
-254.107	-80.139	0.167	0.055
-253.092	-200.000	0.005	0.093
-252.078	475.696	0.110	-0.246
-251.063	3.723	-0.273	-0.196
-250.049	-156.540	0.072	-0.004
-249.034	800.000	0.025	0.069
-248.019	-168.589	0.178	0.007
-247.005	-173.632	-0.242	0.007
-245.990	633.226	0.029	0.071
-244.976	122.970	-0.091	0.112
-243.961	57.047	-0.122	0.117
-242.946	779.572	0.044	0.118
-241.932	-117.938	-0.151	-0.027
-240.917	-88.602	0.332	-0.098
-239.903	-157.556	0.520	-0.031
-238.888	442.500	-0.223	-0.481
-237.873	800.000	-0.036	-0.117
-236.859	-200.000	-0.051	0.227
-235.844	-200.000	0.021	-0.284
-234.830	-105.796	0.367	0.082
-233.815	-31.299	0.106	-0.059
-232.800	-111.091	0.156	0.031
-231.786	276.955	-0.025	-0.043
-230.771	-74.671	-0.108	0.038
-229.757	-4.924	-0.146	0.099
-228.742	-100.606	0.083	-0.020
-227.727	-29.423	0.298	0.168
-226.713	-120.858	0.337	-0.056
-225.698	800.000	0.037	0.154
-224.684	-200.000	0.062	-0.463
-223.669	229.676	0.092	0.148
-222.655	-7.285	0.121	0.081
-221.640	-200.000	0.010	0.092
-220.625	-200.000	-0.011	-0.064
-219.611	800.000	-0.044	-0.184
-218.596	-130.861	0.055	0.007
-217.582	-200.000	0.008	-0.298
-216.567	233.156	-0.036	0.059
-215.552	593.226	0.075	-0.183
-214.538	-149.720	-0.261	0.020
-213.523	-87.075	0.260	-0.078
-212.509	800.000	0.098	-0.303
-211.494	-137.304	0.460	-0.051
-210.479	-16.653	-0.359	0.224
-209.465	297.638	0.183	0.330
-208.450	351.688	-0.126	0.247
-207.436	-102.991	-0.198	0.046
-206.421	-200.000	0.043	0.188
-205.406	210.904	0.140	-0.216
-204.392	-51.531	0.224	0.103
-203.377	-5.371	-0.284	-0.192
-202.363	-45.948	0.085	-0.041
-201.348	107.514	0.090	0.106
-200.333	6.910	0.305	0.224
-199.319	-84.279	0.185	-0.058
-198.304	-21.301	-0.198	0.119
-197.290	-72.532	0.348	-0.127
-196.275	800.000	0.058	0.164
-195.260	104.117	-0.267	0.310
-194.246	-134.122	0.127	-0.015
-193.231	577.292	-0.190	-0.456
-192.217	800.000	-0.082	0.272
-191.202	800.000	-0.096	0.280
-190.187	-200.000	-0.018	-0.187
-189.173	52.708	-0.173	0.163
-188.158	-200.000	-0.012	-0.055
-187.144	-59.533	0.195	-0.082
-186.129	-200.000	-0.009	0.228
-185.114	-32.609	-0.070	0.039
-184.100	60.479	-0.135	-0.132
-183.085	-135.507	-0.511	-0.060
-182.071	769.951	0.071	0.191
-181.056	-200.000	0.018	0.278
-180.042	-109.134	0.213	0.045
-179.027	-200.000	-0.005	-0.128
-178.012	103.681	-0.242	-0.280
-176.998	-109.612	0.406	0.084
-175.983	800.000	-0.029	-0.082
-174.969	-121.194	0.136	-0.022
-173.954	800.000	0.049	-0.199
-172.939	-38.586	-0.255	0.132
-171.925	800.000	-0.028	-0.087
-170.910	-18.322	0.212	-0.130
-169.896	-200.000	-0.005	-0.109
-168.881	-200.000	0.070	0.304
-167.866	147.709	-0.221	0.293
-166.852	-200.000	-0.031	-0.163
-165.837	-200.000	0.009	0.188
-164.823	161.053	0.244	-0.336
-163.808	-200.000	-0.057	0.265
-162.793	-45.496	0.423	0.206
-161.779	-200.000	-0.030	0.380
-160.764	-200.000	-0.029	0.134
-159.750	-200.000	0.002	0.098
-158.735	-22.547	-0.172	-0.102
-157.720	59.008	-0.305	0.295
-156.706	104.582	-0.096	-0.111
-155.691	126.509	0.237	0.295
-154.677	-200.000	-0.012	0.108
-153.662	800.000	0.038	-0.138
-152.647	-40.135	-0.071	0.036
-151.633	385.745	-0.069	0.139
-150.618	-12.524	-0.114	0.073
-149.604	-200.000	0.033	-0.187
-148.589	-60.292	0.116	-0.048
-147.574	-200.000	0.007	0.076
-146.560	-26.782	0.132	-0.076
-145.545	-200.000	-0.026	-0.170
-144.531	-200.000	0.003	0.161
-143.516	79.411	0.171	-0.180
-142.502	-60.070	-0.165	-0.069
-141.487	210.812	0.110	0.169
-140.472	62.941	0.164	-0.161
-139.458	109.716	-0.147	-0.174
-138.443	-87.498	0.047	0.014
-137.429	552.068	-0.082	0.194
-136.414	33.798	-0.506	-0.433
-135.399	75.764	-0.104	-0.108
-134.385	-29.809	0.117	-0.065
-133.370	-164.696	0.136	-0.006
-132.356	-200.000	0.009	0.125
-131.341	451.056	0.035	0.076
-130.326	414.771	0.109	-0.227
-129.312	800.000	0.100	0.350
-128.297	-123.256	-0.266	-0.042
-127.283	-65.461	0.078	0.031
-126.268	4.423	0.193	0.139
-125.253	-143.073	0.150	0.014
-124.239	691.709	-0.034	0.088
-123.224	289.604	0.087	-0.154
-122.210	-157.087	-0.173	-0.010
-121.195	-196.264	0.158	0.001
-120.180	75.266	-0.162	0.168
-119.166	26.923	0.077	-0.063
-118.151	800.000	-0.054	-0.153
-117.137	-44.180	0.169	0.083
-116.122	800.000	-0.154	0.451
-115.107	-94.550	0.192	-0.051
-114.093	1.980	-0.149	0.105
-113.078	268.635	0.046	0.080
-112.064	638.592	0.204	0.508
-111.049	450.324	-0.167	0.361
-110.034	-97.778	0.114	0.029
-109.020	364.603	-0.123	0.242
-108.005	-152.385	0.422	0.030
-106.991	-78.168	-0.334	-0.113
-105.976	-200.000	-0.008	-0.220
-104.962	-29.742	0.376	-0.211
-103.947	-26.686	0.213	0.122
-102.932	-200.000	0.003	-0.116
-101.918	27.335	0.318	0.262
-100.903	138.618	0.260	0.335
-99.889	276.440	0.113	0.196
-98.874	-11.991	0.148	0.095
-97.859	-60.474	-0.252	0.105
-96.845	-200.000	-0.015	0.203
-95.830	-200.000	-0.006	0.097
-94.816	-82.350	0.220	0.070
-93.801	32.514	-0.135	0.114
-92.786	-80.313	-0.105	-0.034
-91.772	-200.000	-0.005	-0.097
-90.757	-14.765	-0.049	0.031
-89.743	4.346	0.312	0.224
-88.728	-200.000	-0.051	-0.272
-87.713	-112.564	-0.291	-0.057
-86.699	28.560	0.278	-0.231
-85.684	-135.561	-0.024	-0.003
-84.670	-109.524	-0.264	0.055
-83.655	128.915	-0.129	0.161
-82.640	-109.260	-0.108	0.022
-81.626	-128.301	0.260	0.036
-80.611	-200.000	-0.046	-0.216
-79.597	109.802	-0.180	0.211
-78.582	24.572	0.080	-0.065
-77.567	127.185	-0.150	0.186
-76.553	614.198	0.071	-0.174
-75.538	800.000	0.048	-0.141
-74.524	406.384	-0.090	-0.186
-73.509	133.355	-0.106	0.134
-72.494	-60.170	-0.320	-0.134
-71.480	27.864	0.223	-0.184
-70.465	-89.883	-0.151	-0.043
-69.451	533.398	-0.138	-0.321
-68.436	122.317	0.149	-0.182
-67.422	-118.772	-0.446	0.077
-66.407	-200.000	0.043	-0.388
-65.392	-190.930	0.375	-0.004
-64.378	-106.690	0.338	0.074
-63.363	-112.661	-0.115	-0.022
-62.349	640.738	-0.049	0.121
-61.334	134.061	-0.941	-1.194
-60.319	3.172	0.484	0.345
-59.305	682.455	-0.429	-1.095
-58.290	368.209	0.709	1.403
-57.276	480.446	0.633	1.405
-56.261	-200.000	112.737	635.196
-55.246	526.075	1515.995	3495.482
-54.232	177.595	2695.150	3845.112
-53.217	103.724	2283.317	2625.193
-52.203	37.519	1890.125	1641.379
-51.188	31.544	1678.717	1412.783
-50.173	28.986	1635.592	1357.588
-49.159	49.916	1691.636	1561.681
-48.144	49.223	1705.800	1569.506
-47.130	31.179	1663.310	1396.868
-46.115	28.439	1648.722	1364.201
-45.100	28.248	1643.547	1358.448
-44.086	28.144	1641.767	1356.150
-43.071	28.172	1638.411	1353.530
-42.057	28.071	1636.292	1350.980
-41.042	28.162	1634.122	1349.807
-40.027	28.096	1632.550	1347.968
-39.013	28.200	1629.979	1346.561
-37.998	28.117	1628.390	1344.583
-36.984	28.061	1627.283	1343.206
-35.969	28.145	1626.133	1342.820
-34.954	28.280	1624.086	1342.067
-33.940	28.259	1622.336	1340.411
-32.925	28.298	1620.805	1339.377
-31.911	28.193	1619.363	1337.367
-30.896	28.249	1617.252	1335.980
-29.881	28.261	1615.723	1334.753
-28.867	28.239	1614.096	1333.195
-27.852	28.224	1612.992	1332.119
-26.838	28.304	1611.125	1331.103
-25.823	28.362	1610.100	1330.630
-24.809	28.333	1608.793	1329.283
-23.794	28.262	1607.834	1327.923
-22.779	28.249	1606.082	1326.327
-21.765	28.226	1604.360	1324.687
-20.750	28.317	1602.879	1324.070
-19.736	28.268	1601.594	1322.603
-18.721	28.329	1600.338	1321.953
-17.706	28.225	1598.834	1319.906
-16.692	28.335	1596.990	1319.129
-15.677	28.397	1595.666	1318.427
-14.663	28.361	1594.249	1316.945
-13.648	28.366	1593.321	1316.163
-12.633	28.282	1591.925	1314.352
-11.619	28.306	1589.943	1312.840
-10.604	28.344	1588.484	1311.853
-9.590	28.321	1587.266	1310.628
-8.575	28.295	1586.155	1309.474
-7.560	28.308	1585.012	1308.571
-6.546	28.322	1584.042	1307.817
-5.531	28.237	1583.079	1306.365
-4.517	28.334	1581.605	1305.788
-3.502	28.380	1580.372	1305.048
-2.487	28.302	1579.000	1303.308
-1.473	27.940	1567.458	1291.169
-0.458	25.047	1547.693	1254.619
0.556	23.031	1549.246	1223.539
1.571	20.516	1572.492	1224.096
2.586	19.977	1585.141	1230.007
3.600	18.013	1531.933	1175.119
4.615	10.999	1426.420	1049.009
5.629	4.819	1366.011	966.242
6.644	3.782	1358.052	954.127
7.659	3.592	1357.809	952.703
8.673	3.705	1356.101	952.117
9.688	3.721	1354.734	951.172
10.702	3.611	1352.074	948.545
11.717	6.562	1357.218	970.247
12.731	14.464	1371.405	1029.267
13.746	21.274	1382.914	1080.068
14.761	23.216	1384.711	1093.381
15.775	22.679	1383.119	1088.715
16.790	21.840	1380.971	1081.756
17.804	21.153	1378.968	1075.857
18.819	21.062	1377.393	1073.970
19.834	20.924	1377.248	1072.913
20.848	20.972	1376.379	1072.438
21.863	20.842	1375.340	1070.733
22.877	20.665	1374.534	1068.925
23.892	20.594	1373.396	1067.510
24.907	20.574	1372.204	1066.365
25.921	20.575	1371.208	1065.501
26.936	20.559	1370.334	1064.634
27.950	20.709	1369.254	1064.619
28.965	20.656	1368.874	1063.902
29.980	20.923	1367.458	1064.339
30.994	21.002	1366.608	1064.064
32.009	21.113	1365.356	1063.672
33.023	20.997	1364.644	1062.317
34.038	20.868	1363.181	1060.297
35.053	20.807	1362.127	1059.013
36.067	20.822	1360.440	1057.703
37.082	20.823	1359.927	1057.215
38.096	20.872	1358.986	1056.684
39.111	21.027	1357.676	1056.516
40.126	20.767	1357.404	1054.635
41.140	20.395	1356.411	1051.519
42.155	20.281	1355.217	1049.807
43.169	20.208	1355.976	1049.859
44.184	20.234	1355.470	1049.534
45.199	20.366	1355.134	1049.978
46.213	20.567	1354.646	1050.723
47.228	20.711	1354.314	1051.243
48.242	20.618	1352.839	1049.441
49.257	20.724	1351.480	1048.938
50.271	20.658	1350.477	1047.668
51.286	20.726	1349.039	1046.867
52.301	20.563	1347.801	1044.833
53.315	20.425	1346.579	1042.966
54.330	20.518	1345.159	1042.335
55.344	20.340	1344.203	1040.436
56.359	20.348	1342.961	1039.427
57.374	20.240	1342.605	1038.414
58.388	20.168	1341.397	1036.959
59.403	20.147	1341.531	1036.842
60.417	20.075	1340.380	1035.432
61.432	19.968	1339.384	1033.930
62.447	19.944	1338.431	1032.959
63.461	19.915	1336.747	1031.396
64.476	19.856	1336.030	1030.402
65.490	19.873	1335.048	1029.651
66.505	19.874	1333.500	1028.376
67.520	19.841	1332.570	1027.369
68.534	19.935	1331.411	1026.946
69.549	19.766	1330.458	1025.118
70.563	19.795	1329.367	1024.356
71.578	19.698	1327.671	1022.385
72.593	19.600	1327.193	1021.346
73.607	19.732	1325.766	1020.940
74.622	19.703	1325.638	1020.579
75.636	19.711	1325.410	1020.356
76.651	19.828	1324.633	1020.359
77.666	19.848	1324.315	1020.146
78.680	19.854	1323.899	1019.766
79.695	19.952	1323.235	1019.745
80.709	20.093	1322.806	1020.151
81.724	20.221	1321.805	1020.043
82.739	20.383	1320.810	1020.135
83.753	20.474	1320.752	1020.539
84.768	20.777	1319.630	1021.358
85.782	20.942	1319.089	1021.818
86.797	20.991	1317.809	1021.019
87.812	20.855	1316.460	1019.092
88.826	20.781	1315.289	1017.660
89.841	20.878	1314.181	1017.282
90.855	20.855	1313.863	1016.809
91.870	20.976	1312.986	1016.746
92.884	21.072	1312.081	1016.513
93.899	21.039	1311.771	1015.990
94.914	21.088	1310.794	1015.434
95.928	21.029	1310.603	1014.849
96.943	21.117	1308.667	1013.773
97.957	20.899	1308.217	1012.067
98.972	20.934	1307.203	1011.394
99.987	20.947	1306.217	1010.617
101.001	20.958	1305.163	1009.779
102.016	20.861	1304.558	1008.658
103.030	20.998	1303.495	1008.541
104.045	20.884	1302.248	1006.829
105.060	20.749	1300.957	1004.961
106.074	20.290	1299.469	1001.078
107.089	20.131	1297.620	998.650
108.103	19.898	1295.895	995.893
109.118	19.766	1295.242	994.542
110.133	19.786	1294.027	993.634
111.147	20.037	1292.474	993.796
112.162	20.034	1291.117	992.646
113.176	20.036	1290.626	992.193
114.191	20.106	1289.563	991.689
115.206	20.081	1288.573	990.694
116.220	20.024	1287.632	989.562
117.235	20.062	1286.002	988.438
118.249	19.956	1285.165	987.103
119.264	19.868	1283.832	985.490
120.279	19.840	1282.744	984.404
121.293	19.801	1281.667	983.275
122.308	19.593	1280.747	981.296
123.322	19.564	1279.454	980.057
124.337	19.569	1278.659	979.388
125.352	19.626	1277.285	978.575
126.366	19.492	1276.081	976.805
127.381	19.585	1275.202	976.571
128.395	19.438	1274.068	974.785
129.410	19.472	1273.463	974.431
130.424	19.640	1272.605	974.632
131.439	19.895	1271.932	975.472
132.454	19.903	1271.512	975.109
133.468	19.923	1270.824	974.604
134.483	19.981	1270.138	974.320
135.497	20.156	1268.795	974.186
136.512	20.123	1268.332	973.558
137.527	20.141	1266.841	972.430
138.541	20.179	1265.247	971.334
139.556	20.312	1263.664	970.773
140.570	20.428	1263.589	971.282
141.585	20.559	1262.443	971.049
142.600	20.721	1261.560	971.187
143.614	20.740	1261.405	971.087
144.629	20.796	1259.875	970.131
145.643	20.686	1258.966	968.734
146.658	20.697	1257.091	967.271
147.673	20.475	1255.872	965.010
148.687	20.106	1254.831	962.081
149.702	20.098	1253.343	960.807
150.716	20.059	1251.917	959.417
151.731	19.992	1250.733	958.050
152.746	20.028	1249.677	957.357
153.760	20.186	1248.706	957.401
154.775	20.371	1247.981	957.780
155.789	20.458	1247.188	957.566
156.804	20.291	1246.659	956.157
157.819	20.475	1245.313	956.050
158.833	20.593	1244.651	956.110
159.848	20.899	1243.788	957.041
160.862	20.787	1242.929	955.682
161.877	20.375	1241.505	952.243
162.892	20.031	1239.862	949.012
163.906	20.005	1239.245	948.316
164.921	19.995	1238.298	947.454
165.935	20.113	1237.459	947.372
166.950	20.281	1236.868	947.752
167.964	20.307	1236.257	947.341
168.979	20.248	1235.206	946.129
169.994	20.247	1234.590	945.570
171.008	20.251	1233.731	944.852
172.023	20.376	1233.185	945.029
173.037	20.586	1232.871	945.849
174.052	20.588	1231.620	944.815
175.067	20.231	1230.389	941.850
176.081	20.020	1228.869	939.460
177.096	19.983	1228.381	938.799
178.110	20.103	1227.523	938.715
179.125	20.162	1226.600	938.241
180.140	20.388	1225.553	938.579
181.154	20.579	1224.401	938.646
182.169	20.587	1223.723	938.085
183.183	20.599	1223.207	937.672
184.198	20.590	1221.965	936.592
185.213	20.675	1220.442	935.795
186.227	20.716	1219.487	935.200
187.242	20.782	1219.142	935.210
188.256	20.955	1217.917	935.116
189.271	20.983	1216.735	934.275
190.286	20.781	1215.469	932.138
191.300	20.325	1214.447	928.833
192.315	20.091	1213.571	926.831
193.329	20.109	1213.208	926.564
194.344	20.146	1212.327	926.011
195.359	20.135	1212.123	925.714
196.373	20.197	1211.543	925.518
197.388	20.497	1210.825	926.485
198.402	20.820	1211.278	928.474
199.417	20.927	1211.043	928.782
200.432	21.187	1210.331	929.537
201.446	21.175	1209.901	929.063
202.461	21.295	1209.082	928.991
203.475	21.263	1208.184	928.047
204.490	20.892	1206.408	924.632
205.504	20.657	1204.624	921.937
206.519	20.498	1203.794	920.381
207.534	20.487	1202.246	919.055
208.548	20.532	1201.591	918.710
209.563	20.516	1201.166	918.221
210.577	20.625	1200.001	917.826
211.592	20.729	1199.493	917.902
212.607	20.979	1198.679	918.514
213.621	20.992	1197.847	917.863
214.636	20.803	1196.876	916.046
215.650	20.858	1196.082	915.649
216.665	20.980	1195.573	915.816
217.680	21.160	1195.157	916.362
218.694	21.264	1194.143	916.051
219.709	21.126	1193.290	914.592
220.723	21.188	1192.132	913.947
221.738	21.102	1191.683	913.074
222.753	20.959	1190.810	911.574
223.767	20.964	1189.982	910.886
224.782	21.256	1189.578	912.021
225.796	21.331	1189.160	912.014
226.811	21.231	1188.377	910.811
227.826	21.154	1187.268	909.479
228.840	20.931	1186.881	907.937
229.855	20.931	1185.755	906.994
230.869	20.903	1184.972	906.170
231.884	20.774	1184.464	905.034
232.899	20.570	1183.163	902.899
233.913	20.502	1182.427	901.906
234.928	20.574	1181.956	901.841
235.942	20.542	1180.710	900.643
236.957	20.519	1180.147	900.016
237.972	20.441	1179.298	898.885
238.986	20.561	1178.515	898.829
240.001	20.557	1177.941	898.291
241.015	20.598	1177.185	897.845
242.030	20.662	1176.412	897.505
243.045	20.822	1176.203	898.093
244.059	20.884	1175.314	897.653
245.074	20.969	1174.619	897.481
246.088	21.029	1174.110	897.320
247.103	21.091	1173.601	897.171
248.117	21.342	1172.911	897.854
249.132	21.536	1172.413	898.392
250.147	21.774	1172.134	899.316
251.161	21.977	1171.580	899.856
252.176	21.966	1171.128	899.372
253.190	22.033	1170.257	898.967
254.205	22.110	1169.853	898.971
255.220	22.175	1169.604	899.033
256.234	22.183	1168.972	898.510
257.249	22.076	1168.101	897.209
258.263	21.947	1167.415	895.946
259.278	22.072	1166.321	895.668
260.293	22.164	1165.879	895.714
261.307	22.276	1165.369	895.816
262.322	22.284	1164.892	895.408
263.336	22.198	1164.200	894.360
264.351	22.222	1163.548	893.905
265.366	22.236	1163.289	893.697
266.380	22.103	1162.601	892.411
267.395	22.085	1161.498	891.398
268.409	21.961	1160.632	890.025
269.424	21.929	1159.557	888.959
270.439	21.852	1159.535	888.472
271.453	21.793	1158.452	887.266
272.468	21.671	1157.038	885.486
273.482	21.539	1156.580	884.391
274.497	21.668	1155.704	884.296
275.512	21.640	1155.205	883.693
276.526	21.649	1154.400	883.045
277.541	21.605	1153.692	882.203
278.555	21.822	1152.923	882.629
279.570	21.953	1153.110	883.352
280.585	22.252	1152.389	884.229
281.599	22.112	1151.225	882.556
282.614	21.907	1149.944	880.465
283.628	21.753	1148.496	878.505
284.643	21.769	1147.650	877.860
285.657	21.775	1146.661	877.057
286.672	21.733	1145.952	876.230
287.687	21.839	1145.116	876.039
288.701	21.782	1144.629	875.305
289.716	21.894	1143.533	874.950
290.730	21.880	1143.190	874.541
291.745	21.890	1142.373	873.885
292.760	21.888	1141.717	873.296
293.774	22.052	1141.194	873.637
294.789	22.209	1140.805	874.043
295.803	22.081	1140.195	872.862
296.818	21.954	1139.338	871.498
297.833	21.904	1138.117	870.239
298.847	21.839	1137.650	869.482
299.862	21.957	1136.637	869.215
300.876	21.902	1136.452	868.723
301.891	22.115	1135.915	869.291
302.906	22.274	1135.120	869.389
303.920	22.322	1134.911	869.392
304.935	22.368	1134.864	869.506
305.949	22.530	1134.031	869.590
306.964	22.531	1133.113	868.816
307.979	22.393	1132.149	867.317
308.993	22.265	1131.477	866.095
310.008	22.402	1130.728	866.118
311.022	22.411	1130.133	865.631
312.037	22.378	1129.017	864.540
313.052	22.269	1127.881	863.056
314.066	21.907	1126.433	860.100
315.081	21.746	1125.534	858.546
316.095	21.640	1124.946	857.503
317.110	21.802	1124.012	857.507
318.125	21.700	1123.427	856.487
319.139	21.780	1122.766	856.299
320.154	21.888	1121.865	856.063
321.168	21.898	1121.173	855.509
322.183	21.793	1121.022	854.803
323.197	21.901	1121.076	855.296
324.212	21.870	1120.228	854.425
325.227	21.971	1119.916	854.603
326.241	21.995	1118.801	853.792
327.256	21.906	1117.928	852.619
328.270	21.832	1117.154	851.592
329.285	21.896	1116.196	851.098
330.300	21.839	1115.053	849.875
331.314	21.913	1114.162	849.481
332.329	21.823	1113.558	848.505
333.343	21.916	1112.786	848.296
334.358	22.174	1112.014	848.877
335.373	22.300	1111.646	849.127
336.387	22.295	1110.973	848.518
337.402	22.276	1110.245	847.792
338.416	22.558	1109.571	848.562
339.431	22.407	1109.001	847.325
340.446	22.649	1108.733	848.209
341.460	22.832	1108.129	848.553
342.475	22.917	1107.310	848.257
343.489	23.046	1106.530	848.201
344.504	23.130	1105.685	847.882
345.519	23.048	1104.915	846.827
346.533	23.126	1104.159	846.542
347.548	23.192	1103.815	846.518
348.562	23.133	1102.350	845.039
349.577	22.651	1101.861	842.288
350.592	22.365	1100.533	839.833
351.606	22.324	1099.247	838.585
352.621	22.260	1098.426	837.577
353.635	22.209	1098.070	836.989
354.650	22.158	1097.345	836.120
355.665	22.274	1097.203	836.492
356.679	22.437	1096.133	836.374
357.694	22.523	1096.114	836.696
358.708	22.651	1095.263	836.576
359.723	22.676	1094.589	836.109
360.738	22.647	1094.053	835.487
361.752	22.653	1093.230	834.816
362.767	22.714	1092.529	834.492
363.781	22.602	1092.491	833.861
364.796	22.909	1092.281	835.077
365.810	22.990	1091.770	834.997
366.825	23.276	1091.083	835.744
367.840	23.325	1090.861	835.734
368.854	23.355	1090.456	835.490
369.869	23.519	1089.506	835.462
370.883	23.286	1088.258	833.333
371.898	23.140	1087.321	831.858
372.913	22.956	1087.138	830.777
373.927	23.047	1086.901	830.952
374.942	23.254	1086.077	831.218
375.956	23.226	1085.319	830.436
376.971	23.114	1084.608	829.292
377.986	23.520	1083.958	830.625
379.000	23.439	1084.052	830.242
380.015	23.474	1083.625	830.007
381.029	23.599	1083.016	830.052
382.044	23.614	1082.120	829.363
383.059	23.536	1081.311	828.303
384.073	23.395	1080.281	826.781
385.088	23.531	1079.681	826.883
386.102	23.481	1078.185	825.433
387.117	23.200	1077.645	823.639
388.132	22.871	1076.655	821.279
389.146	22.913	1075.679	820.656
390.161	22.987	1074.782	820.244
391.175	22.884	1074.216	819.260
392.190	23.078	1073.726	819.713
393.205	23.346	1073.105	820.408
394.219	23.307	1072.565	819.742
395.234	23.159	1071.020	817.805
396.248	22.943	1070.155	816.075
397.263	22.921	1069.340	815.282
398.278	22.989	1068.656	815.002
399.292	22.828	1067.540	813.334
400.307	22.798	1066.990	812.708
401.321	22.642	1066.565	811.595
402.336	22.552	1065.558	810.339
403.350	22.572	1064.870	809.838
404.365	22.829	1064.309	810.520
405.380	22.936	1063.756	810.518
406.394	22.965	1063.191	810.149
407.409	23.260	1062.813	811.141
408.423	23.361	1062.274	811.123
409.438	23.560	1061.315	811.225
410.453	23.623	1060.975	811.181
411.467	23.553	1060.401	810.352
412.482	23.746	1059.658	810.595
413.496	23.770	1058.908	810.059
414.511	23.908	1058.543	810.336
415.526	23.977	1058.628	810.644
416.540	24.104	1058.209	810.828
417.555	24.027	1057.242	809.668
418.569	23.828	1056.979	808.486
419.584	23.770	1056.584	807.851
420.599	23.689	1055.868	806.862
421.613	156.678	1403.377	1798.667
422.628	143.931	1453.986	1798.767
