DTS Sentinel unit serial number:	SN413079Multiplexer serial number:	ORYXHardware model number:	OX4-SRSoftware version number:	ORYX F/W v4.00 Oryx Data Collector v3.7.2.0data status	okinstallation	princeton_trtdifferential loss correction	single-endedforward channel	channel 2reverse channel	N/Adate	2019/09/19time	11:39:35forward acquisition time	60.00reverse acquisition time	0.00gamma	496.2192k internal	0.2340k external	0.2340temperature offset calibration	1.0016default loss term (dB/km)	0.3790temperature slope calibration	1.0000multiplexer offset coefficient	1.0000multiplexer slope coefficient	1.0000fibre end	0.00T internal ref (°C)	25.56T ext. ref 1 (°C)	0.81T ext. ref 2 (°C)	21.28length (m)	temperature (°C)	Stokes	anti-Stokes-747.200	-200.000	-0.046	0.203
-746.185	-177.130	-0.192	-0.005
-745.171	-162.633	-0.076	0.004
-744.156	191.361	-0.131	0.198
-743.142	-138.627	-0.302	0.033
-742.127	800.000	-0.066	0.213
-741.112	443.316	0.049	0.108
-740.098	218.580	-0.260	0.416
-739.083	-132.648	0.260	-0.033
-738.069	-111.047	-0.115	0.024
-737.054	279.928	0.046	0.082
-736.039	-105.995	-0.099	0.022
-735.025	130.944	-0.129	-0.166
-734.010	-200.000	-0.060	-0.286
-732.996	-1.233	-0.138	-0.098
-731.981	-200.000	0.006	-0.247
-730.966	-152.861	0.345	0.025
-729.952	-148.035	-0.259	-0.022
-728.937	29.698	0.048	-0.041
-727.923	-74.790	-0.315	-0.113
-726.908	-23.939	-0.218	0.130
-725.894	-41.866	0.168	-0.086
-724.879	130.003	0.055	-0.070
-723.864	-200.000	0.048	-0.249
-722.850	531.137	0.023	0.054
-721.835	-191.790	0.221	0.002
-720.821	-74.589	0.277	0.100
-719.806	-200.000	0.016	0.249
-718.791	-150.578	-0.233	0.018
-717.777	28.080	0.377	-0.319
-716.762	28.407	-0.243	0.206
-715.748	-200.000	-0.069	-0.383
-714.733	800.000	0.045	-0.176
-713.718	49.341	0.269	0.253
-712.704	92.509	0.262	0.296
-711.689	260.358	0.025	-0.044
-710.675	800.000	0.038	0.160
-709.660	-200.000	0.037	0.208
-708.645	-200.000	-0.024	-0.154
-707.631	21.784	-0.115	-0.094
-706.616	-200.000	0.048	0.323
-705.602	-67.999	0.405	0.158
-704.587	534.917	-0.089	-0.211
-703.572	-77.387	0.166	0.058
-702.558	-200.000	-0.043	0.284
-701.543	-200.000	-0.025	-0.127
-700.529	-200.000	0.001	-0.225
-699.514	-90.790	0.071	0.021
-698.499	-102.358	-0.199	0.048
-697.485	179.962	0.155	-0.228
-696.470	-100.108	-0.166	0.041
-695.456	93.016	0.178	-0.201
-694.441	800.000	-0.052	0.190
-693.426	-67.069	-0.381	0.150
-692.412	32.768	0.108	-0.093
-691.397	238.327	-0.094	-0.157
-690.383	323.314	0.053	-0.101
-689.368	283.527	-0.117	0.210
-688.354	800.000	-0.020	0.071
-687.339	-95.612	-0.149	-0.040
-686.324	-120.967	0.333	-0.056
-685.310	117.054	-0.106	-0.130
-684.295	53.538	0.326	-0.313
-683.281	128.766	0.094	0.120
-682.266	233.060	0.054	0.089
-681.251	34.036	0.111	-0.097
-680.237	-61.732	-0.306	0.128
-679.222	800.000	-0.061	0.248
-678.208	-200.000	0.026	-0.532
-677.193	-200.000	0.058	-0.505
-676.178	-56.923	0.022	-0.010
-675.164	39.142	0.146	0.131
-674.149	8.468	0.314	0.236
-673.135	475.675	0.163	0.369
-672.120	80.140	0.063	0.067
-671.105	-86.090	0.270	-0.083
-670.091	-124.436	0.728	0.113
-669.076	-192.617	0.455	-0.004
-668.062	46.812	-0.131	0.122
-667.047	-200.000	-0.012	-0.102
-666.032	135.335	-0.148	0.192
-665.018	800.000	0.040	-0.154
-664.003	-11.863	-0.084	-0.055
-662.989	-112.691	0.149	0.030
-661.974	-200.000	0.031	-0.211
-660.959	708.368	0.141	-0.372
-659.945	295.262	0.105	-0.192
-658.930	-137.486	0.268	0.030
-657.916	-200.000	0.126	0.669
-656.901	144.761	-0.093	-0.125
-655.886	333.028	0.055	-0.107
-654.872	22.970	0.104	-0.085
-653.857	308.348	-0.032	-0.061
-652.843	-200.000	-0.001	0.051
-651.828	800.000	-0.073	-0.239
-650.814	-9.179	-0.279	-0.186
-649.799	-200.000	-0.013	0.287
-648.784	67.794	0.113	0.115
-647.770	73.065	-0.253	-0.265
-646.755	-200.000	0.022	-0.361
-645.741	-62.201	0.130	-0.054
-644.726	618.297	0.140	-0.350
-643.711	-51.724	-0.034	-0.016
-642.697	531.438	-0.047	0.111
-641.682	-116.700	-0.254	0.047
-640.668	-106.452	0.024	0.005
-639.653	-163.757	-0.010	0.000
-638.638	140.591	0.164	-0.217
-637.624	50.895	0.095	-0.090
-636.609	-192.737	0.223	0.002
-635.595	-137.914	0.209	0.023
-634.580	-200.000	0.022	0.315
-633.565	-200.000	0.033	0.146
-632.551	-200.000	-0.038	0.203
-631.536	-26.273	-0.262	-0.154
-630.522	-129.753	-0.123	0.017
-629.507	800.000	0.035	-0.105
-628.492	-200.000	-0.001	-0.080
-627.478	-200.000	0.016	-0.141
-626.463	175.992	0.197	-0.286
-625.449	-40.124	0.300	0.156
-624.434	57.954	-0.124	-0.121
-623.419	46.801	-0.120	-0.111
-622.405	-107.884	-0.217	0.047
-621.390	-200.000	0.001	0.139
-620.376	16.840	-0.109	0.086
-619.361	-200.000	-0.023	0.213
-618.346	-200.000	0.025	0.140
-617.332	-200.000	0.024	0.409
-616.317	145.666	-0.048	0.064
-615.303	333.859	0.171	0.331
-614.288	-200.000	0.032	-0.189
-613.273	-200.000	-0.030	0.268
-612.259	158.365	0.164	0.226
-611.244	-110.015	0.058	0.012
-610.230	-48.243	-0.375	-0.180
-609.215	-154.188	-0.114	-0.008
-608.201	-200.000	-0.016	0.194
-607.186	-123.813	-0.239	0.038
-606.171	404.692	0.119	-0.249
-605.157	117.587	0.127	0.156
-604.142	133.820	0.085	-0.109
-603.128	444.494	0.135	0.296
-602.113	800.000	-0.033	0.106
-601.098	-116.546	-0.170	-0.031
-600.084	326.093	0.073	-0.139
-599.069	-200.000	-0.027	0.192
-598.055	-146.988	-0.214	-0.018
-597.040	-29.677	-0.260	-0.148
-596.025	-155.438	0.110	0.007
-595.011	37.627	0.168	0.149
-593.996	23.799	-0.105	0.087
-592.982	-21.176	-0.173	-0.105
-591.967	-80.549	-0.269	-0.089
-590.952	281.478	0.084	0.150
-589.938	110.788	0.115	-0.137
-588.923	-107.572	0.159	0.035
-587.909	-44.184	-0.123	0.061
-586.894	118.957	-0.137	-0.168
-585.879	69.983	0.241	-0.247
-584.865	-34.315	-0.400	-0.219
-583.850	-71.458	-0.068	0.025
-582.836	-56.239	0.088	-0.039
-581.821	800.000	0.158	-0.556
-580.806	800.000	-0.095	-0.384
-579.792	-79.267	-0.099	0.033
-578.777	800.000	0.049	0.190
-577.763	-112.416	0.255	-0.051
-576.748	-152.288	0.287	-0.021
-575.733	27.384	-0.235	-0.197
-574.719	186.241	0.136	-0.201
-573.704	148.644	-0.115	-0.155
-572.690	-57.417	0.168	-0.073
-571.675	150.686	-0.158	-0.214
-570.661	648.506	-0.062	0.159
-569.646	141.728	-0.078	-0.103
-568.631	18.031	-0.098	-0.078
-567.617	800.000	0.113	0.391
-566.602	-82.340	-0.167	-0.054
-565.588	-114.994	-0.136	-0.026
-564.573	-200.000	0.036	0.473
-563.558	371.145	-0.059	0.120
-562.544	-19.260	-0.228	0.141
-561.529	438.142	-0.106	-0.230
-560.515	-200.000	0.003	-0.083
-559.500	800.000	0.040	0.155
-558.485	234.054	-0.136	-0.223
-557.471	142.130	-0.194	0.256
-556.456	-200.000	-0.012	0.113
-555.442	-200.000	-0.006	-0.149
-554.427	-126.482	-0.337	-0.050
-553.412	-177.383	-0.259	0.006
-552.398	62.588	-0.134	-0.133
-551.383	800.000	0.064	-0.178
-550.369	23.564	0.145	-0.119
-549.354	734.481	0.018	-0.049
-548.339	-87.212	-0.119	0.036
-547.325	415.362	-0.140	0.297
-546.310	-91.684	-0.184	-0.052
-545.296	-96.648	-0.271	0.071
-544.281	-152.986	-0.131	-0.009
-543.266	8.089	0.208	-0.155
-542.252	-200.000	0.014	0.194
-541.237	-200.000	-0.006	0.125
-540.223	21.633	0.568	-0.460
-539.208	272.083	-0.051	0.090
-538.193	-84.079	-0.296	0.094
-537.179	-200.000	-0.051	-0.470
-536.164	-11.878	-0.151	-0.098
-535.150	-2.271	0.027	-0.019
-534.135	-200.000	-0.009	-0.135
-533.121	-128.076	0.262	0.037
-532.106	296.958	0.109	0.199
-531.091	4.083	-0.246	-0.179
-530.077	111.394	0.236	-0.283
-529.062	48.863	-0.096	-0.089
-528.048	-200.000	0.032	-0.341
-527.033	334.518	0.086	0.166
-526.018	568.212	0.188	0.454
-525.004	17.231	0.190	-0.150
-523.989	800.000	-0.046	0.154
-522.975	-14.101	-0.202	0.129
-521.960	-62.600	-0.059	-0.024
-520.945	-69.933	-0.336	-0.127
-519.931	364.119	0.083	0.166
-518.916	201.591	0.211	-0.323
-517.902	296.071	0.232	-0.422
-516.887	-135.194	0.122	0.015
-515.872	-124.270	0.270	0.042
-514.858	-24.776	-0.348	0.206
-513.843	-1.650	0.325	0.228
-512.829	-200.000	0.011	0.388
-511.814	-41.673	-0.259	-0.132
-510.799	-199.576	-0.339	0.002
-509.785	-200.000	-0.029	0.151
-508.770	-83.936	-0.378	0.119
-507.756	-154.737	-0.282	-0.019
-506.741	-149.358	0.173	-0.014
-505.726	-200.000	-0.023	-0.386
-504.712	410.871	0.078	0.165
-503.697	-114.553	-0.304	-0.058
-502.683	-92.134	-0.264	-0.074
-501.668	800.000	0.040	-0.134
-500.653	-3.504	0.183	0.126
-499.639	-200.000	0.044	0.214
-498.624	-98.475	0.346	-0.088
-497.610	-105.115	-0.179	0.041
-496.595	353.396	0.089	0.175
-495.581	64.254	0.110	0.110
-494.566	-58.924	-0.060	0.026
-493.551	113.480	0.167	-0.201
-492.537	125.456	0.207	0.259
-491.522	136.134	-0.118	0.153
-490.508	23.899	-0.226	-0.185
-489.493	-83.206	-0.097	-0.031
-488.478	-42.730	-0.212	0.107
-487.464	283.014	0.111	0.198
-486.449	-111.870	0.050	-0.010
-485.435	800.000	-0.018	0.049
-484.420	417.825	-0.080	0.169
-483.405	-67.445	-0.413	0.161
-482.391	19.166	0.106	0.085
-481.376	-112.041	0.181	0.036
-480.362	-142.549	-0.113	-0.011
-479.347	-176.691	0.205	0.005
-478.332	-70.170	-0.452	-0.170
-477.318	-82.167	0.421	-0.136
-476.303	306.588	0.226	0.418
-475.289	78.807	-0.075	-0.080
-474.274	-40.151	0.115	-0.059
-473.259	210.462	0.114	0.178
-472.245	370.757	-0.148	-0.298
-471.230	-58.587	-0.233	-0.100
-470.216	-53.839	0.117	-0.053
-469.201	105.435	-0.203	0.238
-468.186	65.474	-0.183	-0.184
-467.172	800.000	0.076	0.236
-466.157	-200.000	-0.005	-0.034
-465.143	-200.000	-0.038	0.235
-464.128	-200.000	-0.032	-0.329
-463.113	-97.198	-0.120	-0.031
-462.099	112.878	-0.146	-0.176
-461.084	146.750	0.194	0.259
-460.070	800.000	-0.024	-0.086
-459.055	462.652	-0.047	0.104
-458.040	39.662	0.046	-0.041
-457.026	12.695	0.019	-0.014
-456.011	174.578	-0.120	0.173
-454.997	-200.000	-0.187	-0.000
-453.982	-200.000	0.035	0.188
-452.968	-37.766	-0.234	-0.124
-451.953	-7.676	0.174	-0.116
-450.938	76.952	-0.038	0.040
-449.924	-200.000	-0.006	0.039
-448.909	-180.088	-0.297	-0.006
-447.895	114.410	0.160	-0.193
-446.880	36.966	-0.232	-0.204
-445.865	593.094	0.044	-0.108
-444.851	-49.089	-0.117	0.055
-443.836	85.115	0.069	0.075
-442.822	286.869	0.238	0.426
-441.807	174.380	-0.102	0.147
-440.792	26.721	0.035	0.029
-439.778	-40.819	0.234	0.120
-438.763	-119.142	0.058	0.010
-437.749	58.908	0.097	0.094
-436.734	-200.000	0.231	0.000
-435.719	-200.000	0.035	0.328
-434.705	-68.183	0.421	0.162
-433.690	336.752	0.080	-0.154
-432.676	476.818	-0.135	-0.303
-431.661	67.529	0.235	0.238
-430.646	69.189	-0.130	-0.132
-429.632	-35.926	0.213	0.114
-428.617	367.268	-0.220	-0.439
-427.603	800.000	0.060	-0.210
-426.588	800.000	-0.097	0.267
-425.573	-50.558	0.283	0.132
-424.559	-200.000	0.009	0.057
-423.544	800.000	-0.051	0.154
-422.530	126.229	-0.224	0.281
-421.515	-200.000	-0.021	-0.402
-420.500	-1.766	0.277	0.193
-419.486	-89.730	-0.264	-0.077
-418.471	270.435	0.108	0.187
-417.457	194.442	0.120	0.180
-416.442	185.110	-0.094	-0.138
-415.428	-200.000	0.015	-0.275
-414.413	-200.000	-0.049	-0.359
-413.398	239.105	0.080	-0.132
-412.384	-200.000	-0.015	-0.196
-411.369	-142.805	0.116	-0.011
-410.355	21.381	-0.168	-0.135
-409.340	-192.123	0.239	-0.002
-408.325	318.038	-0.209	0.391
-407.311	-47.368	0.209	-0.101
-406.296	-68.523	0.308	-0.118
-405.282	211.007	0.155	0.242
-404.267	-14.917	0.186	0.118
-403.252	29.779	-0.134	0.113
-402.238	293.819	-0.083	-0.151
-401.223	-91.308	-0.063	0.018
-400.209	-171.124	-0.164	0.006
-399.194	800.000	0.003	-0.008
-398.179	-200.000	0.039	-0.308
-397.165	198.963	0.160	0.242
-396.150	-46.830	0.203	0.098
-395.136	800.000	0.096	0.280
-394.121	299.808	-0.197	-0.358
-393.106	-200.000	-0.015	0.113
-392.092	-20.831	0.059	0.036
-391.077	-161.749	0.200	0.010
-390.063	48.317	-0.173	-0.160
-389.048	-200.000	0.019	0.142
-388.033	559.995	0.077	0.183
-387.019	-5.853	-0.049	-0.033
-386.004	-17.212	0.308	0.192
-384.990	293.778	0.148	-0.267
-383.975	20.208	-0.233	0.186
-382.960	-200.000	-0.022	-0.134
-381.946	22.414	-0.136	-0.110
-380.931	30.153	0.112	0.094
-379.917	214.708	0.129	-0.201
-378.902	800.000	-0.045	-0.194
-377.888	23.791	-0.092	0.075
-376.873	-122.803	-0.263	-0.042
-375.858	-102.840	0.213	-0.050
-374.844	622.487	-0.011	0.027
-373.829	-200.000	0.003	-0.307
-372.815	-66.318	-0.219	-0.086
-371.800	-153.391	0.177	-0.012
-370.785	-103.167	0.184	0.043
-369.771	403.980	0.262	-0.545
-368.756	-133.719	-0.075	-0.009
-367.742	-105.537	0.326	-0.073
-366.727	337.540	-0.094	0.181
-365.712	87.371	0.252	0.275
-364.698	800.000	-0.028	0.110
-363.683	-91.892	-0.145	0.041
-362.669	-200.000	0.014	-0.079
-361.654	800.000	-0.095	0.306
-360.639	800.000	0.126	0.393
-359.625	-139.926	-0.196	0.021
-358.610	368.703	0.117	-0.233
-357.596	-64.577	0.170	-0.068
-356.581	-150.833	0.182	0.014
-355.566	198.230	-0.187	-0.282
-354.552	-129.516	-0.251	0.034
-353.537	-144.621	0.119	0.011
-352.523	-43.009	-0.242	0.121
-351.508	59.050	0.136	0.132
-350.493	-110.024	0.222	-0.046
-349.479	-127.821	-0.238	0.034
-348.464	-148.677	0.025	0.002
-347.450	-47.795	-0.106	-0.051
-346.435	800.000	-0.022	0.069
-345.420	527.539	-0.045	-0.105
-344.406	-69.730	-0.225	-0.085
-343.391	-21.675	-0.082	-0.049
-342.377	136.140	0.111	-0.142
-341.362	-44.448	-0.277	0.137
-340.348	742.274	-0.163	0.433
-339.333	52.840	-0.166	-0.157
-338.318	-200.000	-0.014	-0.084
-337.304	5.494	-0.204	-0.149
-336.289	363.172	-0.073	-0.144
-335.275	135.986	0.183	-0.236
-334.260	444.679	-0.150	-0.325
-333.245	800.000	-0.040	-0.173
-332.231	243.969	0.065	0.107
-331.216	-12.390	0.319	-0.206
-330.202	-200.000	0.079	0.386
-329.187	-19.104	-0.110	-0.068
-328.172	773.460	0.069	-0.185
-327.158	-152.038	-0.289	-0.021
-326.143	-200.000	-0.075	-0.438
-325.129	100.394	-0.170	-0.195
-324.114	-108.358	0.318	0.068
-323.099	158.544	0.189	0.259
-322.085	-71.830	0.182	0.067
-321.070	-122.465	0.252	0.040
-320.056	-79.439	0.146	0.049
-319.041	800.000	0.087	0.273
-318.026	332.473	-0.055	-0.105
-317.012	-85.630	0.290	-0.089
-315.997	95.047	-0.176	0.197
-314.983	12.578	0.222	-0.169
-313.968	187.668	0.088	0.129
-312.953	-18.632	0.399	-0.245
-311.939	-47.813	-0.027	0.013
-310.924	89.422	0.092	-0.101
-309.910	88.219	0.179	-0.196
-308.895	676.552	0.072	0.185
-307.880	93.480	-0.098	0.109
-306.866	-7.988	-0.069	-0.046
-305.851	118.039	-0.139	0.169
-304.837	-77.505	0.043	-0.015
-303.822	-200.000	-0.175	0.000
-302.807	-200.000	0.051	0.413
-301.793	-200.000	-0.006	0.058
-300.778	-5.149	-0.173	-0.117
-299.764	-93.916	-0.175	-0.047
-298.749	800.000	-0.027	0.106
-297.735	244.275	-0.154	0.255
-296.720	-10.510	0.022	0.015
-295.705	-51.226	0.075	-0.035
-294.691	23.791	-0.237	-0.192
-293.676	21.975	0.174	0.140
-292.662	283.969	0.096	0.170
-291.647	42.239	-0.032	0.029
-290.632	44.230	-0.086	0.078
-289.618	128.630	0.148	0.186
-288.603	-200.000	-0.002	0.134
-287.589	214.614	0.155	-0.241
-286.574	68.598	-0.207	0.209
-285.559	800.000	0.075	-0.223
-284.545	30.903	0.088	-0.074
-283.530	800.000	-0.044	-0.189
-282.516	126.786	0.160	-0.200
-281.501	-119.905	-0.144	-0.024
-280.486	-200.000	0.005	-0.207
-279.472	522.276	-0.114	-0.263
-278.457	-46.708	0.223	-0.107
-277.443	-93.389	-0.163	0.044
-276.428	-200.000	0.018	0.414
-275.413	26.921	-0.028	0.023
-274.399	-44.094	-0.333	0.165
-273.384	-200.000	-0.029	0.380
-272.370	39.101	-0.267	-0.235
-271.355	11.211	-0.213	0.160
-270.340	119.356	0.079	0.097
-269.326	-200.000	0.026	-0.227
-268.311	415.402	0.110	-0.231
-267.297	244.802	0.032	0.052
-266.282	800.000	-0.083	-0.246
-265.267	-200.000	-0.013	-0.082
-264.253	136.933	-0.126	0.163
-263.238	287.027	-0.038	0.068
-262.224	28.880	-0.217	0.181
-261.209	424.457	-0.168	-0.356
-260.195	-200.000	0.025	-0.396
-259.180	-140.364	0.238	-0.024
-258.165	153.414	0.144	-0.194
-257.151	800.000	-0.048	0.130
-256.136	-52.307	-0.144	-0.066
-255.122	105.480	-0.263	0.305
-254.107	791.898	-0.084	-0.228
-253.092	-132.719	0.282	0.035
-252.078	-11.326	-0.299	-0.194
-251.063	-137.019	0.088	0.010
-250.049	750.836	0.089	0.236
-249.034	3.975	-0.057	0.041
-248.019	157.475	0.143	-0.195
-247.005	147.219	0.031	0.041
-245.990	108.454	-0.252	0.296
-244.976	65.123	0.196	-0.195
-243.961	197.131	0.005	-0.007
-242.946	-136.113	0.364	0.042
-241.932	71.694	-0.274	-0.280
-240.917	145.349	-0.176	-0.231
-239.903	800.000	-0.024	-0.070
-238.888	-35.696	-0.291	0.155
-237.873	37.448	-0.242	-0.211
-236.859	136.202	0.161	0.206
-235.844	159.808	0.119	-0.162
-234.830	190.922	0.228	0.337
-233.815	-200.000	0.029	0.173
-232.800	-200.000	0.013	-0.097
-231.786	-2.569	0.100	-0.069
-230.771	-200.000	-0.003	-0.113
-229.757	186.638	0.083	0.121
-228.742	205.784	0.098	-0.150
-227.727	-58.631	0.322	-0.137
-226.713	-85.616	0.287	-0.088
-225.698	99.407	-0.187	-0.213
-224.684	17.619	-0.171	-0.133
-223.669	-200.000	0.015	0.373
-222.655	-57.488	-0.239	0.103
-221.640	800.000	0.061	0.187
-220.625	-200.000	0.002	-0.068
-219.611	47.958	0.165	-0.152
-218.596	-158.818	0.133	-0.007
-217.582	800.000	0.158	-0.490
-216.567	283.840	0.092	-0.162
-215.552	236.336	-0.088	-0.143
-214.538	512.332	0.017	-0.038
-213.523	-200.000	0.007	-0.146
-212.509	-200.000	0.004	-0.029
-211.494	436.920	0.034	0.072
-210.479	411.397	-0.117	-0.244
-209.465	225.488	-0.083	0.132
-208.450	-64.481	-0.185	0.074
-207.436	-105.538	0.184	-0.041
-206.421	-154.687	0.160	-0.010
-205.406	184.609	-0.015	-0.022
-204.392	220.939	0.185	0.291
-203.377	360.814	-0.104	0.204
-202.363	3.226	-0.213	0.152
-201.348	157.785	-0.094	0.128
-200.333	-69.759	0.253	0.095
-199.319	535.710	0.090	-0.209
-198.304	-28.772	0.328	0.185
-197.290	800.000	-0.080	-0.254
-196.275	-200.000	-0.020	-0.150
-195.260	-78.451	0.102	0.034
-194.246	-100.840	0.162	-0.039
-193.231	75.494	-0.196	0.203
-192.217	-200.000	0.003	0.426
-191.202	35.220	-0.249	0.214
-190.187	-200.000	-0.003	0.050
-189.173	-24.096	0.135	0.079
-188.158	19.673	0.165	-0.131
-187.144	-43.791	-0.111	-0.055
-186.129	247.230	0.068	0.112
-185.114	151.766	-0.098	0.131
-184.100	-78.937	0.107	-0.036
-183.085	-74.151	-0.049	0.017
-182.071	-114.840	-0.255	0.048
-181.056	800.000	0.117	0.419
-180.042	346.452	0.122	-0.235
-179.027	-59.864	0.232	-0.097
-178.012	219.835	-0.111	-0.174
-176.998	194.393	-0.096	0.142
-175.983	-154.014	-0.194	-0.013
-174.969	5.188	0.154	0.111
-173.954	52.580	-0.107	0.100
-172.939	-46.664	-0.112	0.054
-171.925	159.217	0.053	-0.073
-170.910	-113.618	0.164	-0.031
-169.896	800.000	-0.068	0.190
-168.881	-154.230	0.244	-0.016
-167.866	-119.570	0.210	-0.036
-166.852	4.765	0.119	0.085
-165.837	-181.632	-0.146	0.003
-164.823	493.521	0.077	0.173
-163.808	-200.000	-0.072	0.360
-162.793	-145.292	0.410	-0.036
-161.779	300.964	-0.103	-0.186
-160.764	-82.577	0.478	-0.152
-159.750	800.000	-0.036	-0.114
-158.735	75.613	-0.064	-0.067
-157.720	-200.000	-0.035	0.151
-156.706	70.799	0.161	0.164
-155.691	55.406	-0.137	0.130
-154.677	800.000	0.044	0.182
-153.662	-55.399	-0.268	-0.118
-152.647	544.802	-0.078	0.182
-151.633	-48.238	0.275	0.130
-150.618	800.000	-0.058	0.242
-149.604	-54.753	0.131	0.058
-148.589	-61.389	-0.290	-0.119
-147.574	188.846	0.084	-0.123
-146.560	236.693	0.047	-0.076
-145.545	800.000	-0.074	0.271
-144.531	-200.000	0.015	-0.084
-143.516	-60.945	0.216	0.089
-142.502	-106.346	0.249	-0.055
-141.487	-161.381	-0.077	-0.004
-140.472	-141.880	-0.139	-0.014
-139.458	180.797	0.095	0.137
-138.443	-200.000	0.004	-0.144
-137.429	-74.480	0.062	0.022
-136.414	69.147	0.103	-0.103
-135.399	-114.605	-0.096	0.018
-134.385	-200.000	0.053	-0.285
-133.370	-200.000	0.120	0.536
-132.356	2.280	0.027	-0.019
-131.341	-40.497	0.269	-0.137
-130.326	229.910	0.193	0.308
-129.312	-200.000	0.004	0.121
-128.297	-115.486	0.380	0.070
-127.283	-132.377	-0.408	-0.052
-126.268	-86.642	0.081	0.024
-125.253	800.000	0.048	0.135
-124.239	-59.959	-0.349	-0.146
-123.224	800.000	-0.014	0.038
-122.210	403.329	0.247	0.510
-121.195	-131.392	0.227	0.029
-120.180	800.000	-0.075	-0.298
-119.166	165.312	0.139	-0.192
-118.151	31.055	0.070	0.059
-117.137	-200.000	0.038	-0.296
-116.122	-11.749	-0.061	0.039
-115.107	-83.554	-0.146	0.046
-114.093	-107.761	-0.480	-0.102
-113.078	-25.194	-0.180	-0.104
-112.064	277.816	-0.107	-0.187
-111.049	98.173	0.205	0.230
-110.034	-108.801	-0.207	-0.043
-109.020	168.631	0.095	-0.132
-108.005	-71.588	0.260	-0.095
-106.991	41.378	0.237	0.210
-105.976	37.428	0.157	0.136
-104.962	-200.000	0.021	0.203
-103.947	800.000	-0.045	0.159
-102.932	-87.291	0.049	0.015
-101.918	124.370	0.199	0.245
-100.903	11.347	-0.047	0.035
-99.889	-117.108	-0.075	-0.013
-98.874	-147.727	0.424	-0.035
-97.859	61.229	0.266	-0.258
-96.845	-104.353	-0.364	-0.082
-95.830	-155.777	-0.009	-0.001
-94.816	-21.918	-0.170	0.101
-93.801	99.670	0.235	-0.266
-92.786	-83.181	0.131	0.041
-91.772	58.137	0.149	-0.142
-90.757	-200.000	0.018	0.309
-89.743	-160.098	-0.209	-0.011
-88.728	-42.963	-0.037	0.019
-87.713	-108.825	0.076	0.016
-86.699	78.490	0.141	0.148
-85.684	-66.643	-0.222	-0.086
-84.670	371.708	0.094	0.186
-83.655	4.207	-0.124	0.088
-82.640	-200.000	0.013	-0.063
-81.626	74.506	-0.148	-0.152
-80.611	7.254	-0.201	0.147
-79.597	29.885	-0.061	0.051
-78.582	151.994	-0.038	-0.051
-77.567	94.839	0.177	0.197
-76.553	-122.461	0.442	0.070
-75.538	152.935	0.057	-0.077
-74.524	113.552	0.062	0.074
-73.509	-200.000	0.014	-0.211
-72.494	243.463	0.116	0.190
-71.480	72.395	0.214	0.217
-70.465	-42.157	0.351	-0.175
-69.451	-62.603	0.212	-0.086
-68.436	691.903	0.084	-0.216
-67.422	4.472	-0.108	0.077
-66.407	-200.000	-0.036	-0.169
-65.392	-200.000	-0.030	-0.150
-64.378	-17.827	-0.249	-0.153
-63.363	-79.643	-0.207	-0.068
-62.349	-200.000	-0.022	0.420
-61.334	46.622	-1.185	-1.074
-60.319	51.583	0.776	0.720
-59.305	299.769	-0.615	-1.106
-58.290	215.876	0.815	1.264
-57.276	208.297	0.869	1.327
-56.261	-200.000	118.397	614.667
-55.246	396.548	1563.858	3187.983
-54.232	138.694	2755.455	3532.000
-53.217	90.663	2331.398	2548.846
-52.203	34.475	1931.994	1646.351
-51.188	28.615	1722.504	1422.512
-50.173	26.344	1680.753	1370.775
-49.159	45.558	1740.817	1568.838
-48.144	44.540	1753.771	1572.591
-47.130	28.141	1709.866	1408.204
-46.115	25.671	1695.003	1377.027
-45.100	25.491	1690.005	1371.543
-44.086	25.503	1687.159	1369.268
-43.071	25.415	1684.698	1366.551
-42.057	25.378	1682.771	1364.653
-41.042	25.392	1680.543	1362.899
-40.027	25.479	1678.589	1361.918
-39.013	25.385	1676.540	1359.490
-37.998	25.368	1675.284	1358.288
-36.984	25.481	1673.425	1357.577
-35.969	25.585	1671.795	1356.987
-34.954	25.533	1670.425	1355.429
-33.940	25.534	1668.681	1353.969
-32.925	25.496	1667.484	1352.656
-31.911	25.447	1665.928	1350.972
-30.896	25.531	1663.573	1349.639
-29.881	25.621	1661.824	1348.842
-28.867	25.584	1660.244	1347.231
-27.852	25.551	1659.732	1346.510
-26.838	25.547	1658.048	1345.061
-25.823	25.520	1656.467	1343.524
-24.809	25.616	1655.145	1343.114
-23.794	25.587	1653.263	1341.322
-22.779	25.535	1652.399	1340.178
-21.765	25.540	1650.557	1338.670
-20.750	25.569	1648.904	1337.494
-19.736	25.677	1646.975	1336.675
-18.721	25.606	1646.293	1335.540
-17.706	25.595	1644.222	1333.728
-16.692	25.580	1642.586	1332.238
-15.677	25.627	1641.959	1332.020
-14.663	25.684	1640.128	1330.905
-13.648	25.602	1638.846	1329.210
-12.633	25.638	1636.851	1327.803
-11.619	25.612	1635.430	1326.403
-10.604	25.613	1633.969	1325.178
-9.590	25.641	1633.054	1324.583
-8.575	25.559	1631.504	1322.676
-7.560	25.635	1630.342	1322.239
-6.546	25.611	1629.060	1320.968
-5.531	25.648	1628.108	1320.414
-4.517	25.643	1626.683	1319.173
-3.502	25.480	1626.196	1317.532
-2.487	25.653	1624.067	1317.017
-1.473	25.412	1611.887	1305.338
-0.458	22.820	1592.680	1271.099
0.556	18.399	1594.435	1240.372
1.571	16.021	1618.432	1241.430
2.586	15.627	1630.883	1247.947
3.600	14.386	1576.690	1197.453
4.615	8.252	1466.724	1072.719
5.629	2.079	1405.512	988.000
6.644	0.863	1398.155	974.909
7.659	0.739	1397.716	973.718
8.673	0.769	1396.110	972.708
9.688	0.849	1393.627	971.403
10.702	0.657	1390.011	967.570
11.717	3.539	1394.734	989.271
12.731	10.550	1405.758	1042.179
13.746	15.911	1412.427	1081.557
14.761	17.286	1414.009	1091.507
15.775	16.697	1412.262	1086.280
16.790	15.708	1409.561	1077.774
17.804	15.028	1407.465	1071.721
18.819	14.601	1405.733	1067.577
19.834	14.305	1404.822	1064.897
20.848	14.090	1402.884	1061.962
21.863	13.732	1401.889	1058.832
22.877	13.554	1401.017	1056.939
23.892	13.565	1400.050	1056.186
24.907	13.544	1399.331	1055.417
25.921	13.650	1398.032	1055.019
26.936	13.614	1397.155	1054.033
27.950	13.644	1396.145	1053.370
28.965	13.676	1394.956	1052.585
29.980	13.768	1394.003	1052.354
30.994	13.896	1393.055	1052.358
32.009	13.843	1392.120	1051.224
33.023	13.872	1390.964	1050.438
34.038	13.757	1390.189	1049.038
35.053	13.888	1388.644	1048.603
36.067	13.788	1387.579	1047.078
37.082	13.671	1386.699	1045.584
38.096	13.793	1385.671	1045.485
39.111	13.748	1384.912	1044.534
40.126	13.724	1383.861	1043.500
41.140	13.575	1383.456	1042.165
42.155	13.559	1382.570	1041.302
43.169	13.526	1382.823	1041.195
44.184	13.522	1382.439	1040.786
45.199	13.523	1381.629	1040.091
46.213	13.629	1381.293	1040.410
47.228	13.599	1379.734	1038.956
48.242	13.704	1378.842	1038.854
49.257	13.689	1377.276	1037.486
50.271	13.637	1375.659	1035.852
51.286	13.651	1374.706	1035.128
52.301	13.699	1373.478	1034.410
53.315	13.590	1372.490	1032.900
54.330	13.581	1371.383	1031.917
55.344	13.644	1370.188	1031.321
56.359	13.575	1369.028	1029.928
57.374	13.626	1368.059	1029.425
58.388	13.511	1367.644	1028.305
59.403	13.589	1366.744	1028.022
60.417	13.582	1365.935	1027.281
61.432	13.496	1364.943	1025.908
62.447	13.497	1364.062	1025.162
63.461	13.508	1362.824	1024.211
64.476	13.428	1362.656	1023.496
65.490	13.502	1361.011	1022.630
66.505	13.569	1359.049	1021.474
67.520	13.521	1358.209	1020.459
68.534	13.563	1356.607	1019.424
69.549	13.559	1355.686	1018.613
70.563	13.541	1354.820	1017.766
71.578	13.447	1353.956	1016.446
72.593	13.451	1352.284	1015.129
73.607	13.452	1351.817	1014.695
74.622	13.542	1350.599	1014.240
75.636	13.518	1350.470	1013.910
76.651	13.511	1349.220	1012.839
77.666	13.473	1348.772	1012.180
78.680	13.425	1348.344	1011.472
79.695	13.415	1347.960	1011.032
80.709	13.523	1346.904	1010.815
81.724	13.458	1346.299	1009.875
82.739	13.505	1345.264	1009.295
83.753	13.604	1344.262	1009.054
84.768	13.669	1342.791	1008.259
85.782	13.660	1342.032	1007.546
86.797	13.658	1340.424	1006.238
87.812	13.669	1339.201	1005.295
88.826	13.567	1338.075	1003.741
89.841	13.654	1336.874	1003.280
90.855	13.766	1335.840	1003.093
91.870	13.746	1334.897	1002.172
92.884	13.711	1334.326	1001.444
93.899	13.672	1333.448	1000.464
94.914	13.787	1332.742	1000.535
95.928	13.746	1331.662	999.391
96.943	13.729	1330.824	998.574
97.957	13.726	1329.545	997.505
98.972	13.670	1329.058	996.718
99.987	13.730	1328.247	996.381
101.001	13.737	1327.031	995.421
102.016	13.790	1325.334	994.378
103.030	13.735	1324.918	993.646
104.045	13.714	1323.967	992.719
105.060	13.692	1322.404	991.329
106.074	13.753	1321.032	990.580
107.089	13.596	1319.882	988.692
108.103	13.636	1318.437	987.759
109.118	13.634	1317.225	986.752
110.133	13.622	1315.722	985.466
111.147	13.660	1314.322	984.555
112.162	13.597	1313.523	983.500
113.176	13.666	1311.872	982.585
114.191	13.664	1311.224	982.002
115.206	13.702	1309.801	981.075
116.220	13.706	1308.405	979.967
117.235	13.682	1307.409	978.989
118.249	13.649	1306.596	978.097
119.264	13.798	1305.085	977.762
120.279	13.659	1304.399	976.342
121.293	13.685	1303.128	975.454
122.308	13.610	1301.989	974.074
123.322	13.654	1300.823	973.378
124.337	13.623	1299.705	972.269
125.352	13.685	1298.445	971.605
126.366	13.542	1297.948	970.314
127.381	13.596	1296.826	969.701
128.395	13.615	1295.494	968.730
129.410	13.669	1294.491	968.212
130.424	13.617	1293.676	967.211
131.439	13.665	1292.533	966.552
132.454	13.756	1291.503	966.230
133.468	13.697	1290.646	965.157
134.483	13.633	1290.107	964.297
135.497	13.612	1288.866	963.160
136.512	13.646	1287.454	962.215
137.527	13.631	1286.251	961.148
138.541	13.685	1284.373	959.971
139.556	13.649	1283.475	959.006
140.570	13.764	1282.685	958.994
141.585	13.836	1280.914	958.000
142.600	13.768	1279.492	956.460
143.614	13.697	1279.186	955.741
144.629	13.753	1278.062	955.140
145.643	13.698	1276.997	953.940
146.658	13.682	1275.786	952.860
147.673	13.747	1273.983	951.801
148.687	13.741	1273.010	950.955
149.702	13.830	1271.857	950.521
150.716	13.649	1270.497	948.386
151.731	13.837	1269.237	948.432
152.746	13.801	1267.802	947.075
153.760	13.873	1266.243	946.238
154.775	13.840	1265.563	945.453
155.789	13.896	1264.538	944.925
156.804	13.951	1263.434	944.326
157.819	13.950	1262.118	943.255
158.833	13.993	1261.385	942.866
159.848	13.966	1260.554	942.013
160.862	13.983	1259.488	941.227
161.877	14.048	1257.629	940.126
162.892	13.919	1257.113	938.927
163.906	13.937	1256.114	938.196
164.921	13.883	1255.371	937.255
165.935	13.913	1254.682	936.829
166.950	13.936	1253.875	936.271
167.964	13.951	1253.136	935.719
168.979	13.993	1252.094	935.097
169.994	13.953	1251.518	934.358
171.008	14.040	1250.197	933.780
172.023	14.024	1249.914	933.396
173.037	14.118	1248.983	933.144
174.052	14.085	1248.274	932.349
175.067	14.052	1247.201	931.280
176.081	13.967	1246.218	929.987
177.096	13.987	1245.159	929.223
178.110	14.050	1244.061	928.673
179.125	14.060	1242.846	927.740
180.140	14.117	1241.450	926.938
181.154	14.086	1240.348	925.858
182.169	14.126	1238.981	924.979
183.183	14.207	1238.051	924.653
184.198	14.189	1236.705	923.464
185.213	14.182	1235.763	922.641
186.227	14.157	1234.452	921.444
187.242	14.344	1233.398	921.607
188.256	14.231	1232.545	920.265
189.271	14.337	1231.459	919.959
190.286	14.190	1230.305	918.202
191.300	14.188	1229.558	917.553
192.315	14.168	1229.260	917.138
193.329	14.119	1228.560	916.267
194.344	14.233	1227.401	915.950
195.359	14.215	1227.197	915.615
196.373	14.201	1226.884	915.226
197.388	14.290	1226.158	915.093
198.402	14.303	1226.076	915.019
199.417	14.450	1224.733	914.745
200.432	14.367	1224.078	913.716
201.446	14.415	1223.317	913.332
202.461	14.523	1221.981	912.843
203.475	14.361	1221.076	911.204
204.490	14.559	1219.447	910.990
205.504	14.451	1218.563	909.659
206.519	14.417	1217.507	908.606
207.534	14.432	1216.237	907.659
208.548	14.499	1215.250	907.206
209.563	14.460	1214.183	906.118
210.577	14.499	1213.769	905.938
211.592	14.523	1213.091	905.481
212.607	14.605	1212.089	905.102
213.621	14.520	1211.129	903.843
214.636	14.555	1210.416	903.419
215.650	14.545	1209.141	902.336
216.665	14.619	1208.347	902.061
217.680	14.543	1207.499	900.938
218.694	14.674	1206.460	900.792
219.709	14.636	1205.509	899.795
220.723	14.738	1204.718	899.677
221.738	14.672	1204.256	898.896
222.753	14.641	1203.597	898.156
223.767	14.736	1202.545	897.804
224.782	14.870	1201.240	897.470
225.796	14.772	1201.148	896.794
226.811	14.856	1200.229	896.482
227.826	14.823	1199.716	895.841
228.840	14.851	1198.801	895.225
229.855	14.762	1198.189	894.217
230.869	14.700	1197.626	893.386
231.884	14.697	1197.057	892.867
232.899	14.754	1195.842	892.186
233.913	14.766	1194.895	891.463
234.928	14.795	1194.030	890.895
235.942	14.757	1193.361	890.113
236.957	14.797	1192.203	889.385
237.972	14.875	1191.559	889.240
238.986	14.806	1191.150	888.490
240.001	14.792	1190.542	887.879
241.015	14.857	1189.415	887.309
242.030	14.933	1188.712	887.110
243.045	14.945	1187.604	886.264
244.059	14.967	1186.826	885.722
245.074	14.966	1186.176	885.153
246.088	15.024	1185.392	884.796
247.103	15.024	1184.495	884.052
248.117	15.014	1183.808	883.404
249.132	15.131	1183.039	883.370
250.147	15.140	1182.279	882.774
251.161	15.062	1181.271	881.529
252.176	15.085	1181.012	881.380
253.190	15.230	1180.404	881.610
254.205	15.169	1180.115	881.000
255.220	15.334	1179.045	880.986
256.234	15.148	1178.704	879.679
257.249	15.208	1177.755	879.207
258.263	15.379	1177.097	879.535
259.278	15.248	1176.326	878.193
260.293	15.309	1175.944	878.148
261.307	15.309	1175.887	878.031
262.322	15.340	1174.881	877.365
263.336	15.447	1173.978	877.169
264.351	15.412	1173.355	876.445
265.366	15.534	1172.435	876.316
266.380	15.347	1172.129	875.035
267.395	15.380	1171.105	874.366
268.409	15.376	1170.472	873.795
269.424	15.462	1169.653	873.552
270.439	15.468	1169.338	873.273
271.453	15.437	1168.444	872.365
272.468	15.323	1167.669	871.117
273.482	15.436	1166.730	870.927
274.497	15.392	1166.418	870.390
275.512	15.376	1165.657	869.662
276.526	15.472	1164.868	869.495
277.541	15.498	1163.797	868.752
278.555	15.593	1162.973	868.548
279.570	15.556	1162.389	867.847
280.585	15.650	1161.538	867.618
281.599	15.636	1160.632	866.793
282.614	15.567	1159.963	865.860
283.628	15.591	1158.344	864.701
284.643	15.572	1158.076	864.326
285.657	15.512	1157.093	863.209
286.672	15.739	1155.615	863.193
287.687	15.621	1154.875	861.957
288.701	15.762	1154.428	862.271
289.716	15.850	1153.226	861.747
290.730	15.658	1152.321	860.011
291.745	15.918	1151.569	860.707
292.760	15.776	1151.214	859.639
293.774	15.726	1150.958	859.114
294.789	15.897	1150.015	859.209
295.803	15.785	1149.527	858.197
296.818	15.706	1149.256	857.517
297.833	15.800	1148.227	857.152
298.847	15.893	1147.559	857.050
299.862	15.896	1146.278	856.033
300.876	15.854	1145.622	855.251
301.891	15.900	1145.279	855.154
302.906	15.863	1144.527	854.328
303.920	16.007	1143.519	854.233
304.935	16.017	1142.806	853.673
305.949	16.025	1142.116	853.124
306.964	16.065	1141.978	853.146
307.979	15.961	1141.060	851.859
308.993	16.038	1139.994	851.377
310.008	16.124	1139.254	851.185
311.022	16.166	1138.170	850.512
312.037	16.145	1137.754	850.021
313.052	16.060	1136.948	848.912
314.066	16.094	1135.702	848.077
315.081	16.105	1134.916	847.473
316.095	16.085	1134.370	846.890
317.110	16.134	1134.010	846.794
318.125	16.161	1132.811	845.955
319.139	16.101	1132.089	845.040
320.154	16.105	1131.382	844.461
321.168	16.143	1130.881	844.203
322.183	16.036	1130.582	843.368
323.197	16.151	1129.622	843.153
324.212	16.167	1129.024	842.712
325.227	16.225	1128.191	842.304
326.241	16.291	1127.692	842.185
327.256	16.193	1127.069	841.160
328.270	16.149	1126.432	840.388
329.285	16.176	1125.425	839.699
330.300	16.268	1124.186	839.157
331.314	16.326	1123.046	838.517
332.329	16.274	1122.521	837.792
333.343	16.338	1121.627	837.371
334.358	16.321	1120.397	836.292
335.373	16.253	1120.087	835.651
336.387	16.422	1119.037	835.631
337.402	16.359	1118.106	834.550
338.416	16.321	1117.692	833.979
339.431	16.417	1117.022	833.877
340.446	16.430	1116.349	833.366
341.460	16.509	1115.513	833.058
342.475	16.555	1114.652	832.569
343.489	16.516	1113.710	831.602
344.504	16.505	1112.986	830.931
345.519	16.616	1111.982	830.652
346.533	16.574	1111.418	829.952
347.548	16.666	1110.392	829.564
348.562	16.648	1109.800	828.961
349.577	16.601	1109.185	828.198
350.592	16.583	1108.361	827.419
351.606	16.680	1107.623	827.272
352.621	16.547	1107.357	826.349
353.635	16.616	1106.111	825.681
354.650	16.574	1105.498	824.949
355.665	16.614	1105.037	824.725
356.679	16.665	1103.887	824.044
357.694	16.791	1103.271	824.121
358.708	16.776	1103.043	823.808
359.723	16.665	1102.279	822.622
360.738	16.781	1101.519	822.546
361.752	16.692	1101.202	821.804
362.767	16.810	1100.416	821.719
363.781	16.908	1099.934	821.760
364.796	16.817	1099.217	820.714
365.810	16.880	1098.833	820.657
366.825	16.981	1097.751	820.264
367.840	16.855	1097.778	819.605
368.854	17.038	1096.698	819.608
369.869	17.065	1095.803	818.999
370.883	17.000	1095.185	818.152
371.898	16.987	1094.380	817.415
372.913	16.937	1094.243	816.998
373.927	16.870	1093.716	816.208
374.942	17.020	1093.000	816.322
375.956	17.026	1092.097	815.608
376.971	17.148	1091.559	815.718
377.986	17.120	1091.191	815.238
379.000	17.125	1090.350	814.560
380.015	17.155	1089.847	814.256
381.029	17.134	1089.185	813.591
382.044	17.133	1088.588	813.066
383.059	17.224	1087.493	812.610
384.073	17.187	1087.162	812.116
385.088	17.255	1085.777	811.333
386.102	17.155	1085.575	810.635
387.117	17.171	1084.149	809.574
388.132	17.292	1083.328	809.464
389.146	17.194	1082.777	808.514
390.161	17.240	1081.801	807.933
391.175	17.256	1080.711	807.124
392.190	17.245	1080.499	806.842
393.205	17.243	1079.946	806.347
394.219	17.364	1078.964	806.116
395.234	17.341	1077.628	804.937
396.248	17.437	1076.208	804.260
397.263	17.339	1075.608	803.279
398.278	17.287	1075.272	802.714
399.292	17.271	1074.649	802.099
400.307	17.390	1073.674	801.860
401.321	17.253	1073.375	800.921
402.336	17.371	1072.466	800.726
403.350	17.286	1071.856	799.803
404.365	17.393	1071.331	799.842
405.380	17.416	1070.331	799.132
406.394	17.483	1069.456	798.724
407.409	17.424	1068.872	797.941
408.423	17.440	1068.227	797.462
409.438	17.501	1067.769	797.337
410.453	17.608	1066.966	797.169
411.467	17.500	1066.304	796.097
412.482	17.633	1065.177	795.807
413.496	17.697	1064.866	795.801
414.511	17.685	1063.991	795.020
415.526	17.658	1063.945	794.791
416.540	17.768	1063.247	794.714
417.555	17.763	1062.239	793.863
418.569	17.800	1062.060	793.835
419.584	17.759	1061.762	793.348
420.599	17.733	1060.968	792.567
421.613	107.423	1329.524	1484.537
422.628	99.183	1368.637	1484.611
