DTS Sentinel unit serial number:	SN413079Multiplexer serial number:	ORYXHardware model number:	OX4-SRSoftware version number:	ORYX F/W v4.00 Oryx Data Collector v3.7.2.0data status	okinstallation	princeton_trtdifferential loss correction	single-endedforward channel	channel 2reverse channel	N/Adate	2019/09/12time	18:34:49forward acquisition time	15.00reverse acquisition time	0.00gamma	496.2192k internal	0.2324k external	0.2324temperature offset calibration	1.0136default loss term (dB/km)	0.3790temperature slope calibration	1.0000multiplexer offset coefficient	1.0000multiplexer slope coefficient	1.0000fibre end	0.00T internal ref (°C)	33.19T ext. ref 1 (°C)	2.98T ext. ref 2 (°C)	27.71length (m)	temperature (°C)	Stokes	anti-Stokes-747.200	-200.000	0.021	0.408
-746.185	182.319	-0.622	0.925
-745.171	-200.000	0.063	0.753
-744.156	800.000	0.122	-0.486
-743.142	294.505	-0.290	0.535
-742.127	594.479	-0.208	0.520
-741.112	-200.000	0.048	-0.342
-740.098	95.875	0.205	-0.237
-739.083	39.501	-0.284	0.256
-738.069	-200.000	-0.050	-0.507
-737.054	800.000	-0.190	-0.799
-736.039	7.623	-0.375	0.283
-735.025	-31.858	0.391	0.221
-734.010	-200.000	-0.084	-0.852
-732.996	-9.782	0.065	-0.044
-731.981	181.397	0.287	0.426
-730.966	248.650	0.243	-0.415
-729.952	-200.000	0.025	-0.172
-728.937	169.472	0.370	0.533
-727.923	-193.607	-1.263	0.011
-726.908	-200.000	0.071	0.714
-725.894	348.927	0.359	-0.714
-724.879	800.000	0.117	0.506
-723.864	170.226	-0.341	-0.492
-722.850	-19.603	-0.833	-0.520
-721.835	-33.864	0.349	0.194
-720.821	-200.000	0.093	0.713
-719.806	441.526	-0.398	-0.878
-718.791	132.302	0.042	-0.054
-717.777	-106.783	-0.381	0.085
-716.762	14.440	0.347	-0.273
-715.748	272.630	-0.400	0.712
-714.733	800.000	-0.133	-0.437
-713.718	541.713	-0.365	-0.877
-712.704	232.180	-0.234	0.387
-711.689	-3.064	-0.594	-0.418
-710.675	-200.000	0.277	-1.231
-709.660	-200.000	-0.109	-0.819
-708.645	-106.357	0.042	-0.009
-707.631	130.708	-0.089	0.115
-706.616	-34.495	-0.528	-0.291
-705.602	492.697	0.072	0.167
-704.587	49.220	0.257	-0.244
-703.572	-200.000	-0.001	0.316
-702.558	-135.976	0.268	0.032
-701.543	800.000	0.064	0.226
-700.529	-195.016	-0.666	-0.005
-699.514	-19.725	-0.376	0.235
-698.499	-200.000	-0.120	-0.541
-697.485	-162.979	0.701	-0.034
-696.470	-16.049	-0.715	0.458
-695.456	-76.380	0.377	0.134
-694.441	291.143	-0.087	-0.160
-693.426	315.147	-0.413	0.785
-692.412	79.955	0.313	-0.339
-691.397	-83.405	0.623	-0.201
-690.383	-122.235	-0.219	-0.036
-689.368	800.000	0.039	-0.128
-688.354	-114.526	0.885	-0.171
-687.339	-19.382	0.213	0.133
-686.324	-59.298	-0.659	-0.286
-685.310	-200.000	0.106	-0.587
-684.295	-70.900	0.498	0.189
-683.281	176.297	-0.220	0.322
-682.266	-22.830	-0.206	-0.125
-681.251	-200.000	0.012	-0.108
-680.237	25.144	0.249	0.208
-679.222	137.270	-0.697	0.918
-678.208	26.085	-0.095	-0.080
-677.193	-45.665	-0.728	-0.363
-676.178	-56.943	-0.226	-0.101
-675.164	18.230	-0.070	-0.056
-674.149	216.539	-0.379	0.607
-673.135	51.803	0.092	0.088
-672.120	20.511	0.345	0.281
-671.105	-200.000	0.019	-0.100
-670.091	-162.261	-0.171	-0.009
-669.076	-42.135	0.504	-0.260
-668.062	162.760	-0.324	-0.458
-667.047	-21.098	-0.550	-0.339
-666.032	66.540	0.541	-0.554
-665.018	20.381	-0.421	-0.342
-664.003	800.000	-0.183	-0.713
-662.989	30.616	-0.853	0.734
-661.974	96.273	0.210	0.241
-660.959	-200.000	-0.125	-0.648
-659.945	-83.771	-0.080	0.026
-658.930	-49.411	0.554	0.266
-657.916	45.461	0.834	-0.775
-656.901	194.312	0.070	-0.107
-655.886	-200.000	-0.034	-0.177
-654.872	302.347	-0.092	-0.172
-653.857	246.713	-0.311	-0.527
-652.843	29.923	-0.402	-0.344
-651.828	-200.000	0.064	-0.721
-650.814	179.403	-0.369	0.544
-649.799	-44.636	-0.475	-0.239
-648.784	-109.464	-0.452	0.096
-647.770	126.038	0.279	-0.355
-646.755	-6.361	0.857	0.588
-645.741	-32.941	-0.322	0.180
-644.726	-83.573	0.466	0.150
-643.711	174.284	-0.454	-0.660
-642.697	110.171	-0.580	-0.700
-641.682	-40.412	-0.347	0.181
-640.668	81.081	0.535	0.581
-639.653	149.506	-0.631	-0.859
-638.638	273.149	0.261	0.463
-637.624	-97.568	0.319	0.083
-636.609	-57.573	-0.995	0.439
-635.595	-155.154	0.691	-0.045
-634.580	-39.298	-0.379	-0.200
-633.565	-53.648	0.582	-0.267
-632.551	-200.000	0.233	-1.172
-631.536	-83.093	-0.307	-0.099
-630.522	-80.518	0.443	0.148
-629.507	105.786	0.104	0.123
-628.492	10.082	0.302	0.231
-627.478	592.368	-0.067	-0.166
-626.463	800.000	-0.155	0.467
-625.449	-76.343	0.348	-0.123
-624.434	-115.374	0.200	0.038
-623.419	751.190	0.190	-0.515
-622.405	81.581	0.149	-0.162
-621.390	-19.624	0.537	-0.334
-620.376	678.324	-0.111	-0.289
-619.361	800.000	0.227	-0.938
-618.346	409.462	-0.062	0.133
-617.332	49.372	-0.149	0.140
-616.317	-200.000	-0.064	-0.282
-615.303	146.274	-0.227	0.305
-614.288	-18.795	-0.575	-0.360
-613.273	11.663	0.401	-0.309
-612.259	115.208	-0.146	-0.179
-611.244	-6.033	-0.141	0.097
-610.230	-88.201	0.462	0.139
-609.215	-102.349	0.526	-0.127
-608.201	-71.024	-0.273	-0.103
-607.186	-172.862	-0.662	0.021
-606.171	36.708	0.262	0.232
-605.157	387.233	0.180	-0.374
-604.142	-200.000	-0.005	-0.043
-603.128	-5.145	0.158	-0.109
-602.113	302.729	0.378	-0.703
-601.098	-200.000	0.068	-0.339
-600.084	153.826	0.360	-0.495
-599.069	398.942	0.090	0.189
-598.055	17.881	0.628	-0.502
-597.040	24.019	0.373	0.309
-596.025	57.529	-0.399	0.391
-595.011	-200.000	0.042	-0.323
-593.996	35.402	0.811	-0.714
-592.982	-75.179	-0.346	-0.124
-591.967	252.232	0.716	1.225
-590.952	24.820	0.084	0.070
-589.938	-112.475	0.441	-0.088
-588.923	67.441	0.681	0.698
-587.909	-200.000	0.004	0.053
-586.894	-44.914	0.155	-0.077
-585.879	-25.830	-0.439	0.260
-584.865	-8.471	-0.451	-0.304
-583.850	-29.808	0.182	0.104
-582.836	-145.968	-0.092	-0.008
-581.821	-90.361	0.842	0.245
-580.806	3.656	-0.664	0.486
-579.792	800.000	0.241	-0.782
-578.777	-26.392	-0.903	-0.531
-577.763	-200.000	-0.039	-0.765
-576.748	88.476	-0.563	-0.628
-575.733	-200.000	0.120	0.922
-574.719	-200.000	0.164	1.007
-573.704	-70.465	0.286	0.109
-572.690	-87.853	-0.502	0.151
-571.675	-31.080	0.126	-0.071
-570.661	-0.313	0.157	0.112
-569.646	-97.649	0.330	-0.086
-568.631	800.000	-0.207	-0.761
-567.617	-99.089	-0.746	-0.189
-566.602	-200.000	0.392	-0.002
-565.588	-4.886	0.499	0.344
-564.573	-200.000	0.082	0.705
-563.558	-13.557	-0.323	0.210
-562.544	2.980	-0.357	-0.260
-561.529	17.109	0.537	0.426
-560.515	-64.790	-0.215	0.087
-559.500	-101.501	-0.036	0.009
-558.485	800.000	0.106	0.332
-557.471	800.000	0.089	0.369
-556.456	-147.647	0.537	0.045
-555.442	407.480	0.134	-0.284
-554.427	-21.420	0.120	0.073
-553.412	-200.000	0.110	-0.562
-552.398	-200.000	0.006	0.601
-551.383	800.000	-0.143	-0.482
-550.369	-63.520	0.757	-0.311
-549.354	-200.000	-0.097	0.986
-548.339	97.038	-0.336	0.386
-547.325	-169.853	0.751	0.027
-546.310	-200.000	-0.085	-0.638
-545.296	-132.272	-0.362	0.047
-544.281	88.753	0.167	-0.186
-543.266	53.459	-0.378	-0.364
-542.252	-200.000	0.077	0.924
-541.237	170.731	0.447	0.641
-540.223	-28.085	-1.158	0.671
-539.208	-44.005	-0.661	0.333
-538.193	29.912	-0.374	0.320
-537.179	-115.806	0.581	-0.109
-536.164	800.000	0.054	-0.150
-535.150	125.799	-0.608	-0.768
-534.135	-33.750	-0.764	-0.422
-533.121	2.977	-0.252	-0.183
-532.106	267.395	-0.357	-0.626
-531.091	-135.803	-0.533	0.063
-530.077	117.404	0.263	0.323
-529.062	68.460	0.200	0.205
-528.048	-24.738	0.527	-0.313
-527.033	800.000	0.115	-0.488
-526.018	99.439	0.308	-0.357
-525.004	-200.000	0.016	0.205
-523.989	102.395	-0.197	-0.230
-522.975	43.791	0.263	-0.241
-521.960	-38.328	1.223	0.648
-520.945	-200.000	-0.027	-0.248
-519.931	530.766	0.238	-0.563
-518.916	134.343	-0.158	0.206
-517.902	-109.914	-0.070	0.015
-516.887	-27.636	0.999	0.580
-515.872	-46.813	-0.334	-0.163
-514.858	-200.000	-0.025	1.140
-513.843	134.945	0.465	0.605
-512.829	-107.028	0.099	-0.022
-511.814	652.318	-0.289	-0.740
-510.799	338.170	-0.461	-0.897
-509.785	667.490	-0.123	0.318
-508.770	-109.395	0.840	0.178
-507.756	-200.000	-0.215	-0.970
-506.741	356.627	0.173	-0.345
-505.726	-151.546	0.711	-0.053
-504.712	-200.000	0.233	1.050
-503.697	-200.000	0.066	0.000
-502.683	-126.364	-0.484	-0.072
-501.668	127.910	0.239	-0.304
-500.653	-200.000	0.004	0.194
-499.639	410.656	0.317	-0.673
-498.624	90.129	0.462	-0.516
-497.610	99.783	0.582	0.673
-496.595	5.207	-0.545	-0.402
-495.581	129.041	0.258	-0.329
-494.566	-91.733	-0.930	-0.264
-493.551	90.039	-0.420	-0.469
-492.537	-61.431	-0.571	-0.240
-491.522	-200.000	-0.160	-0.000
-490.508	-37.340	0.640	0.342
-489.493	-184.387	-0.382	-0.006
-488.478	21.275	-0.220	-0.179
-487.464	-86.214	-0.754	-0.232
-486.449	-16.833	-0.509	-0.322
-485.435	-200.000	-0.043	-1.053
-484.420	40.295	-0.288	0.259
-483.405	120.968	0.226	0.281
-482.391	31.281	0.756	0.649
-481.376	-132.848	0.231	-0.029
-480.362	249.825	-0.461	-0.781
-479.347	-130.045	0.529	0.072
-478.332	-76.091	0.730	0.258
-477.318	-73.702	0.464	0.169
-476.303	-30.840	-0.528	-0.298
-475.289	379.325	0.183	0.374
-474.274	140.827	0.690	-0.910
-473.259	131.670	-0.493	-0.633
-472.245	161.222	0.287	0.401
-471.230	-200.000	-0.031	0.236
-470.216	214.254	-0.244	0.385
-469.201	268.709	-0.279	0.489
-468.186	-200.000	0.054	0.437
-467.172	-33.331	0.387	0.214
-466.157	32.222	-0.294	0.254
-465.143	1.062	0.419	0.300
-464.128	83.628	0.307	0.334
-463.113	-200.000	0.050	0.666
-462.099	105.409	-0.285	0.336
-461.084	213.156	-0.336	-0.529
-460.070	-145.967	0.697	-0.062
-459.055	389.614	0.365	0.756
-458.040	289.395	-0.073	0.132
-457.026	-66.335	0.239	-0.095
-456.011	-74.141	0.744	0.269
-454.997	-99.858	-0.561	0.140
-453.982	190.492	-0.338	0.507
-452.968	-55.788	0.496	0.221
-451.953	4.576	0.299	-0.219
-450.938	-200.000	0.043	0.198
-449.924	800.000	0.205	0.800
-448.909	-118.885	-0.625	0.110
-447.895	-99.370	-0.406	-0.102
-446.880	-28.706	-0.121	0.069
-445.865	-104.765	-0.245	-0.056
-444.851	89.044	0.227	-0.252
-443.836	800.000	-0.079	-0.263
-442.822	-200.000	0.112	-0.747
-441.807	-190.242	0.425	0.005
-440.792	-158.625	0.299	-0.017
-439.778	134.877	0.224	-0.290
-438.763	-200.000	-0.025	-0.891
-437.749	-118.531	0.724	-0.128
-436.734	-200.000	-0.140	0.745
-435.719	165.731	-0.134	-0.189
-434.705	-200.000	0.087	-0.716
-433.690	-45.358	-0.441	-0.218
-432.676	-71.867	0.839	-0.311
-431.661	307.981	-0.444	0.826
-430.646	37.180	0.005	0.004
-429.632	-114.119	0.144	-0.028
-428.617	270.275	-0.467	-0.819
-427.603	33.248	0.516	0.447
-426.588	86.400	0.143	0.157
-425.573	9.286	-0.945	-0.712
-424.559	39.131	0.344	0.307
-423.544	166.967	0.133	-0.189
-422.530	-200.000	-0.046	-0.220
-421.515	-116.494	0.703	0.129
-420.500	95.367	-0.574	-0.653
-419.486	32.761	-0.918	-0.792
-418.471	-120.146	-0.596	-0.102
-417.457	26.248	-1.010	-0.841
-416.442	-35.017	0.873	0.474
-415.428	34.654	-0.392	0.342
-414.413	171.519	-0.283	0.405
-413.398	340.441	-0.062	-0.120
-412.384	-133.082	-0.484	-0.061
-411.369	800.000	0.095	-0.368
-410.355	-200.000	0.067	0.448
-409.340	-200.000	-0.040	0.913
-408.325	-200.000	0.021	0.105
-407.311	-200.000	0.065	-0.287
-406.296	-172.427	0.463	0.015
-405.282	-160.158	-0.667	0.036
-404.267	-200.000	-0.197	1.106
-403.252	-97.186	0.733	-0.191
-402.238	-137.916	0.317	0.035
-401.223	239.680	-0.104	-0.173
-400.209	-32.417	-0.502	-0.279
-399.194	-200.000	0.025	-0.181
-398.179	402.176	-0.079	0.165
-397.165	67.793	-0.424	0.431
-396.150	476.295	-0.096	-0.216
-395.136	-117.816	-0.288	0.051
-394.121	-200.000	0.121	-0.608
-393.106	-62.921	0.419	0.173
-392.092	-18.986	0.167	-0.104
-391.077	-200.000	0.012	0.324
-390.063	197.069	0.380	0.577
-389.048	90.255	-0.549	0.612
-388.033	363.373	0.137	0.273
-387.019	-200.000	-0.026	-0.390
-386.004	-18.229	-0.318	0.198
-384.990	-125.130	0.560	-0.086
-383.975	800.000	-0.196	0.569
-382.960	-34.545	-0.664	-0.362
-381.946	800.000	-0.200	-0.822
-380.931	21.719	-0.395	-0.320
-379.917	90.662	-0.497	0.554
-378.902	-114.856	0.482	0.091
-377.888	-8.864	-0.666	-0.444
-376.873	70.974	0.251	-0.259
-375.858	-200.000	-0.248	-1.090
-374.844	-114.152	0.638	0.123
-373.829	-159.185	-0.475	-0.027
-372.815	-130.067	-0.480	-0.065
-371.800	-83.482	-0.688	-0.219
-370.785	517.654	-0.220	0.511
-369.771	118.426	0.609	-0.748
-368.756	-200.000	0.012	-0.098
-367.742	307.874	0.047	-0.087
-366.727	-200.000	-0.038	-0.427
-365.712	165.787	0.153	-0.215
-364.698	299.303	-0.458	-0.839
-363.683	216.454	0.475	-0.752
-362.669	431.930	-0.310	-0.668
-361.654	-46.874	0.766	-0.372
-360.639	562.772	0.234	0.563
-359.625	-200.000	0.019	-0.795
-358.610	800.000	0.112	-0.429
-357.596	120.647	0.275	-0.340
-356.581	-70.681	-0.167	0.063
-355.566	-122.701	-0.399	-0.064
-354.552	800.000	0.182	0.599
-353.537	-68.302	-0.735	0.284
-352.523	800.000	0.115	0.381
-351.508	646.834	-0.152	0.387
-350.493	-135.684	0.283	0.033
-349.479	-87.342	-0.453	0.137
-348.464	-112.671	-0.885	0.175
-347.450	-200.000	0.042	0.292
-346.435	-59.834	-0.787	-0.335
-345.420	79.006	0.623	-0.663
-344.406	-58.120	0.251	-0.109
-343.391	272.868	-0.368	0.647
-342.377	61.110	0.510	0.504
-341.362	-13.979	0.581	0.373
-340.348	93.645	-0.302	-0.340
-339.333	37.193	-0.746	-0.657
-338.318	-131.041	0.653	0.087
-337.304	112.133	0.399	-0.480
-336.289	-200.000	-0.054	-0.975
-335.275	-36.515	-0.207	-0.110
-334.260	82.891	-0.930	1.005
-333.245	-128.000	-0.549	0.078
-332.231	800.000	0.095	0.411
-331.216	99.661	-0.241	0.277
-330.202	800.000	-0.127	-0.549
-329.187	177.998	0.322	-0.467
-328.172	-86.742	-0.663	0.201
-327.158	800.000	-0.138	0.382
-326.143	382.411	-0.461	-0.941
-325.129	10.489	-0.893	-0.676
-324.114	159.994	-0.295	0.408
-323.099	-113.730	-0.859	0.166
-322.085	-101.898	-0.411	0.099
-321.070	338.970	0.225	0.436
-320.056	28.010	-0.375	-0.314
-319.041	-145.435	0.641	0.057
-318.026	-200.000	-0.030	-0.406
-317.012	139.086	0.567	-0.740
-315.997	-45.551	-0.055	-0.027
-314.983	-114.250	-0.238	-0.046
-313.968	227.423	-0.199	-0.321
-312.953	-110.922	-0.087	-0.018
-311.939	-164.125	0.441	0.020
-310.924	-1.882	-0.099	0.069
-309.910	-144.265	0.787	-0.073
-308.895	-73.090	-0.438	-0.159
-307.880	656.533	-0.220	-0.561
-306.866	800.000	0.041	-0.130
-305.851	800.000	-0.078	-0.288
-304.837	-93.140	0.433	-0.120
-303.822	428.567	0.316	0.677
-302.807	-97.073	0.202	-0.053
-301.793	-200.000	-0.027	0.173
-300.778	335.068	-0.379	-0.729
-299.764	-122.844	0.117	0.019
-298.749	-200.000	-0.041	-0.254
-297.735	-22.595	-0.695	-0.417
-296.720	-93.799	0.563	0.154
-295.705	-167.738	-0.638	0.025
-294.691	14.921	0.183	-0.142
-293.676	-137.267	0.358	-0.040
-292.662	115.653	0.030	-0.036
-291.647	-183.558	-0.671	0.011
-290.632	800.000	0.252	0.995
-289.618	-200.000	-0.044	0.279
-288.603	-13.446	0.253	-0.163
-287.589	-47.702	-0.327	0.157
-286.574	-86.158	0.279	0.085
-285.559	-200.000	0.019	-0.469
-284.545	690.123	-0.119	0.309
-283.530	-200.000	-0.192	-0.952
-282.516	-99.626	-0.070	-0.017
-281.501	-200.000	-0.008	0.343
-280.486	-87.571	0.338	-0.101
-279.472	-200.000	-0.069	0.610
-278.457	-200.000	0.046	1.310
-277.443	401.301	-0.171	-0.355
-276.428	10.705	0.831	0.629
-275.413	800.000	0.162	0.477
-274.399	800.000	0.257	1.028
-273.384	-128.702	0.676	0.095
-272.370	-54.728	-0.571	-0.256
-271.355	-200.000	0.138	0.675
-270.340	-76.636	-0.703	0.244
-269.326	-115.523	0.533	-0.099
-268.311	-49.964	0.398	0.187
-267.297	-200.000	-0.043	0.286
-266.282	88.719	0.202	0.223
-265.267	-200.000	-0.090	0.493
-264.253	422.119	-0.297	0.632
-263.238	-100.819	-0.757	-0.184
-262.224	135.349	0.280	0.360
-261.209	-95.657	0.400	-0.106
-260.195	380.148	-0.271	0.551
-259.180	-90.558	0.647	0.185
-258.165	-200.000	0.024	-0.187
-257.151	-165.488	-0.666	0.029
-256.136	354.697	-0.156	-0.307
-255.122	800.000	0.091	0.379
-254.107	742.650	-0.015	-0.040
-253.092	-105.770	-0.303	-0.068
-252.078	18.933	-0.733	0.582
-251.063	-176.697	0.695	0.018
-250.049	-154.544	-0.402	-0.027
-249.034	108.315	-0.383	0.452
-248.019	800.000	-0.154	0.524
-247.005	-106.912	0.596	-0.131
-245.990	8.889	0.255	0.190
-244.976	-200.000	-0.082	-0.450
-243.961	-189.697	-0.704	0.008
-242.946	-97.936	-0.572	0.146
-241.932	-51.764	-0.376	-0.173
-240.917	697.786	0.055	-0.142
-239.903	188.996	-0.273	-0.405
-238.888	800.000	0.158	-0.496
-237.873	-200.000	-0.043	-1.008
-236.859	800.000	0.216	-0.778
-235.844	-2.461	0.283	-0.196
-234.830	-200.000	-0.011	0.333
-233.815	623.312	-0.087	0.218
-232.800	-116.574	0.583	0.106
-231.786	800.000	0.068	-0.293
-230.771	800.000	-0.151	0.632
-229.757	800.000	-0.095	0.410
-228.742	-200.000	-0.180	-0.781
-227.727	800.000	0.221	0.676
-226.713	-89.672	0.909	0.264
-225.698	29.269	-0.243	0.204
-224.684	-167.657	0.674	-0.026
-223.669	11.195	0.258	0.195
-222.655	308.239	-0.467	0.861
-221.640	-200.000	0.128	0.580
-220.625	-170.998	0.608	0.020
-219.611	-133.074	-0.891	-0.112
-218.596	-47.254	-0.598	0.288
-217.582	-66.571	-0.398	-0.156
-216.567	-65.362	0.538	0.214
-215.552	-176.930	-0.280	0.007
-214.538	-125.825	-0.439	-0.066
-213.523	-200.000	0.048	0.527
-212.509	-66.542	0.863	0.339
-211.494	56.728	0.747	-0.719
-210.479	-59.505	-0.388	-0.165
-209.465	-32.901	-0.426	-0.234
-208.450	34.131	-0.100	0.086
-207.436	-88.493	0.376	-0.111
-206.421	800.000	0.208	0.620
-205.406	185.616	0.157	0.231
-204.392	800.000	0.345	1.175
-203.377	800.000	0.212	0.646
-202.363	800.000	-0.187	-0.800
-201.348	-200.000	0.009	0.383
-200.333	241.952	-0.438	-0.723
-199.319	-136.189	0.605	-0.070
-198.304	366.188	-0.439	-0.875
-197.290	-66.985	0.291	-0.113
-196.275	-141.655	-0.074	-0.007
-195.260	-72.280	0.517	0.189
-194.246	-200.000	-0.021	0.105
-193.231	-40.669	0.501	-0.257
-192.217	221.664	-0.435	-0.692
-191.202	-200.000	-0.168	1.162
-190.187	108.852	0.469	-0.553
-189.173	18.181	-0.801	-0.631
-188.158	304.933	-0.278	-0.511
-187.144	800.000	0.112	0.385
-186.129	321.728	-0.267	0.501
-185.114	-200.000	-0.080	-0.477
-184.100	180.384	0.259	0.375
-183.085	560.859	0.198	0.473
-182.071	800.000	0.219	0.780
-181.056	-200.000	-0.068	0.898
-180.042	-200.000	0.075	0.827
-179.027	800.000	0.108	0.323
-178.012	800.000	0.129	-0.374
-176.998	800.000	-0.136	-0.574
-175.983	-200.000	0.112	-0.493
-174.969	-200.000	0.067	-0.549
-173.954	80.783	-0.478	-0.509
-172.939	-57.326	0.538	0.233
-171.925	-138.613	-0.672	0.073
-170.910	-81.606	0.688	0.223
-169.896	49.962	-0.092	0.086
-168.881	800.000	0.161	0.632
-167.866	-159.959	-0.604	0.033
-166.852	74.574	-0.192	0.199
-165.837	-168.969	-0.560	0.021
-164.823	-200.000	0.033	0.337
-163.808	720.194	0.199	-0.523
-162.793	232.321	0.424	0.686
-161.779	-119.169	-0.303	0.052
-160.764	347.166	0.148	-0.287
-159.750	63.281	0.204	-0.202
-158.735	255.513	-0.359	0.607
-157.720	175.785	0.333	0.477
-156.706	31.240	0.110	0.093
-155.691	635.472	0.102	-0.256
-154.677	-200.000	-0.072	-0.400
-153.662	210.900	0.383	0.594
-152.647	-200.000	-0.133	0.841
-151.633	81.383	0.145	0.154
-150.618	70.212	0.211	-0.215
-149.604	-60.286	0.698	-0.293
-148.589	-102.050	0.744	-0.177
-147.574	-49.562	-1.096	0.515
-146.560	-49.808	0.203	0.095
-145.545	-184.233	0.689	-0.011
-144.531	0.967	-0.715	0.505
-143.516	-14.354	-0.260	-0.165
-142.502	25.595	0.606	-0.497
-141.487	-61.036	0.625	-0.260
-140.472	-56.148	-0.630	0.276
-139.458	-50.116	1.104	-0.516
-138.443	29.297	0.621	0.520
-137.429	167.167	0.343	0.480
-136.414	28.785	0.958	0.800
-135.399	223.373	-0.359	0.571
-134.385	-200.000	-0.126	0.832
-133.370	318.617	-0.276	0.515
-132.356	163.232	-0.266	-0.369
-131.341	8.778	1.145	0.851
-130.326	-68.327	-0.517	0.198
-129.312	56.495	0.433	0.415
-128.297	17.596	-0.116	-0.091
-127.283	-200.000	-0.083	-0.736
-126.268	71.117	0.291	-0.297
-125.253	-13.446	0.689	-0.440
-124.239	-27.474	0.322	-0.184
-123.224	-49.562	-0.554	0.260
-122.210	800.000	0.206	0.667
-121.195	-62.634	-0.432	-0.177
-120.180	-200.000	-0.098	0.538
-119.166	-112.961	0.585	-0.114
-118.151	109.856	0.482	0.569
-117.137	-93.783	0.508	-0.138
-116.122	-200.000	0.050	0.479
-115.107	-66.432	1.215	-0.476
-114.093	-28.228	-0.239	-0.136
-113.078	-56.218	-0.389	-0.170
-112.064	-80.966	0.244	0.080
-111.049	588.342	0.199	-0.484
-110.034	175.203	-0.083	-0.119
-109.020	-53.601	0.766	-0.345
-108.005	54.765	-0.695	-0.661
-106.991	175.074	0.155	-0.220
-105.976	-113.269	0.294	-0.057
-104.962	-100.336	0.517	0.126
-103.947	199.505	0.265	0.400
-102.932	-200.000	0.072	0.445
-101.918	235.247	-0.173	0.281
-100.903	-91.357	0.856	0.241
-99.889	89.373	-0.392	0.430
-98.874	-77.694	0.363	-0.124
-97.859	132.373	0.152	0.193
-96.845	-200.000	-0.127	0.653
-95.830	-126.865	-0.918	-0.133
-94.816	800.000	-0.143	-0.474
-93.801	800.000	-0.198	0.608
-92.786	461.431	0.326	0.715
-91.772	-78.928	-0.331	0.111
-90.757	-39.923	-0.302	0.155
-89.743	-116.368	0.179	-0.033
-88.728	800.000	0.103	-0.343
-87.713	800.000	-0.067	-0.193
-86.699	36.724	-0.408	0.355
-85.684	7.786	-0.145	-0.107
-84.670	41.913	-0.394	0.351
-83.655	800.000	0.074	-0.281
-82.640	522.829	-0.226	0.523
-81.626	-148.916	0.475	0.038
-80.611	800.000	0.214	-0.741
-79.597	120.284	0.726	-0.886
-78.582	-61.669	0.155	-0.064
-77.567	667.394	0.088	0.224
-76.553	34.254	-0.528	-0.453
-75.538	316.825	-0.107	0.198
-74.524	68.948	-0.627	-0.633
-73.509	800.000	0.096	-0.294
-72.494	97.002	0.294	0.332
-71.480	371.356	0.053	0.106
-70.465	111.529	-0.523	0.620
-69.451	-17.609	-0.373	-0.231
-68.436	-171.592	-0.862	0.028
-67.422	547.624	-0.206	-0.485
-66.407	800.000	-0.134	-0.503
-65.392	-200.000	-0.022	0.685
-64.378	-20.830	-0.214	-0.129
-63.363	-143.162	-0.153	-0.014
-62.349	-200.000	0.147	1.060
-61.334	-200.000	-0.830	0.001
-60.319	-200.000	-0.070	0.510
-59.305	324.677	-0.474	-0.889
-58.290	117.285	0.727	0.878
-57.276	382.965	0.797	1.611
-56.261	-200.000	96.196	570.153
-55.246	644.672	1367.625	3429.410
-54.232	200.713	2541.071	3839.450
-53.217	111.813	2253.269	2673.151
-52.203	42.355	1883.347	1682.223
-51.188	36.460	1674.716	1451.683
-50.173	33.905	1630.695	1394.739
-49.159	51.762	1680.650	1570.922
-48.144	52.779	1696.246	1593.009
-47.130	36.069	1655.926	1432.257
-46.115	33.379	1641.652	1400.001
-45.100	33.150	1636.525	1393.887
-44.086	33.256	1632.772	1391.416
-43.071	33.230	1631.655	1390.216
-42.057	33.066	1628.585	1386.345
-41.042	33.141	1627.440	1385.862
-40.027	33.023	1625.943	1383.666
-39.013	32.847	1623.205	1379.999
-37.998	32.996	1622.008	1380.011
-36.984	33.161	1620.623	1379.984
-35.969	33.333	1618.153	1379.080
-34.954	33.129	1618.171	1377.552
-33.940	32.977	1616.454	1374.931
-32.925	33.158	1614.439	1374.475
-31.911	32.892	1612.534	1370.869
-30.896	33.351	1609.693	1371.728
-29.881	33.261	1608.261	1369.801
-28.867	33.052	1606.904	1367.076
-27.852	33.222	1605.407	1366.979
-26.838	33.305	1603.242	1365.683
-25.823	33.314	1601.987	1364.623
-24.809	33.201	1601.424	1363.278
-23.794	33.053	1600.087	1361.017
-22.779	33.337	1596.907	1360.296
-21.765	33.538	1596.342	1361.210
-20.750	33.091	1595.622	1357.329
-19.736	33.071	1594.303	1356.011
-18.721	33.226	1592.234	1355.307
-17.706	33.266	1590.571	1354.126
-16.692	33.268	1589.267	1352.973
-15.677	33.024	1588.595	1350.608
-14.663	33.383	1586.653	1351.463
-13.648	33.276	1584.289	1348.632
-12.633	33.049	1583.830	1346.574
-11.619	33.205	1581.407	1345.565
-10.604	33.378	1580.357	1345.849
-9.590	33.345	1579.250	1344.623
-8.575	33.228	1577.679	1342.401
-7.560	33.218	1576.873	1341.591
-6.546	33.279	1575.502	1340.804
-5.531	33.186	1574.407	1339.156
-4.517	33.080	1572.611	1336.825
-3.502	32.948	1573.552	1336.641
-2.487	33.285	1570.584	1336.445
-1.473	33.054	1557.946	1324.024
-0.458	29.871	1540.765	1287.268
0.556	27.590	1539.275	1254.963
1.571	24.924	1561.875	1254.624
2.586	24.394	1573.677	1260.253
3.600	21.649	1522.046	1200.018
4.615	12.927	1412.178	1057.601
5.629	4.504	1348.088	957.765
6.644	2.988	1339.649	942.392
7.659	3.040	1338.629	941.911
8.673	2.958	1337.860	940.783
9.688	2.935	1335.382	938.822
10.702	2.993	1331.979	936.698
11.717	6.168	1339.276	961.183
12.731	15.628	1357.413	1032.484
13.746	23.711	1369.215	1091.250
14.761	25.265	1371.732	1102.714
15.775	25.466	1372.681	1104.616
16.790	25.516	1371.218	1103.651
17.804	25.760	1370.097	1104.143
18.819	25.940	1369.786	1104.900
19.834	26.018	1370.937	1106.206
20.848	26.094	1368.909	1104.941
21.863	26.283	1367.397	1104.777
22.877	26.089	1366.279	1102.593
23.892	26.154	1366.506	1103.074
24.907	26.118	1365.192	1101.697
25.921	26.001	1364.312	1100.172
26.936	25.966	1362.496	1098.400
27.950	26.097	1362.632	1099.207
28.965	26.069	1361.822	1098.289
29.980	26.221	1359.197	1096.996
30.994	26.044	1358.452	1095.227
32.009	26.161	1358.012	1095.481
33.023	26.185	1355.963	1093.881
34.038	26.242	1355.355	1093.639
35.053	26.141	1354.454	1092.204
36.067	26.424	1352.827	1092.506
37.082	26.232	1352.053	1090.621
38.096	26.171	1352.281	1090.340
39.111	26.058	1351.411	1088.862
40.126	26.228	1350.542	1089.088
41.140	26.012	1350.794	1087.895
42.155	26.083	1349.796	1087.419
43.169	26.101	1349.766	1087.411
44.184	26.317	1348.862	1087.884
45.199	26.014	1349.599	1086.561
46.213	26.287	1347.489	1086.407
47.228	26.435	1346.431	1086.343
48.242	26.242	1346.828	1085.412
49.257	26.108	1344.150	1082.350
50.271	26.231	1343.294	1082.306
51.286	25.851	1342.260	1079.099
52.301	26.264	1340.254	1079.861
53.315	26.264	1339.566	1079.211
54.330	26.055	1340.042	1078.250
55.344	26.379	1337.133	1077.744
56.359	26.276	1337.218	1077.104
57.374	26.281	1335.830	1075.923
58.388	25.986	1335.320	1073.660
59.403	26.217	1334.105	1073.959
60.417	26.239	1334.147	1074.031
61.432	26.190	1333.506	1073.131
62.447	26.285	1331.710	1072.152
63.461	26.212	1331.039	1071.083
64.476	26.338	1330.955	1071.668
65.490	26.309	1328.944	1069.785
66.505	26.489	1327.145	1069.306
67.520	26.530	1325.862	1068.417
68.534	26.408	1325.047	1066.947
69.549	26.095	1324.783	1064.791
70.563	26.358	1323.284	1065.046
71.578	26.219	1322.897	1063.818
72.593	26.286	1322.260	1063.608
73.607	26.601	1320.196	1063.703
74.622	26.401	1319.663	1062.008
75.636	26.181	1320.205	1061.056
76.651	25.957	1319.047	1058.715
77.666	26.487	1317.835	1060.758
78.680	26.283	1317.195	1058.954
79.695	26.206	1317.126	1058.352
80.709	26.222	1315.906	1057.373
81.724	26.622	1313.633	1057.790
82.739	26.453	1314.890	1057.722
83.753	26.345	1312.236	1054.860
84.768	26.380	1311.998	1054.779
85.782	26.567	1310.304	1054.417
86.797	26.550	1309.337	1053.445
87.812	26.584	1308.013	1052.484
88.826	26.432	1307.046	1050.727
89.841	26.449	1306.390	1050.209
90.855	26.238	1304.611	1047.459
91.870	26.684	1303.037	1048.685
92.884	26.441	1303.492	1047.555
93.899	26.391	1302.572	1046.433
94.914	26.726	1301.663	1047.548
95.928	26.473	1301.585	1045.927
96.943	26.381	1301.007	1044.841
97.957	26.468	1299.610	1044.128
98.972	26.307	1298.444	1042.171
99.987	26.372	1298.125	1042.195
101.001	26.671	1296.122	1042.218
102.016	26.436	1295.258	1040.077
103.030	26.522	1294.339	1039.745
104.045	26.667	1293.128	1039.509
105.060	26.499	1292.004	1037.551
106.074	26.664	1291.573	1038.057
107.089	26.433	1291.031	1036.206
108.103	26.517	1289.978	1035.754
109.118	26.707	1287.414	1034.687
110.133	26.706	1287.112	1034.347
111.147	26.378	1286.562	1031.943
112.162	26.643	1285.137	1032.215
113.176	26.704	1283.691	1031.315
114.191	26.722	1282.556	1030.414
115.206	26.700	1281.550	1029.388
116.220	26.651	1280.854	1028.457
117.235	26.638	1278.378	1026.308
118.249	26.662	1279.445	1027.207
119.264	26.595	1277.929	1025.523
120.279	26.609	1277.212	1024.935
121.293	26.752	1275.558	1024.326
122.308	26.949	1275.225	1025.077
123.322	26.784	1274.276	1023.293
124.337	26.905	1273.024	1022.880
125.352	26.703	1272.545	1021.268
126.366	26.842	1271.645	1021.238
127.381	26.658	1270.412	1019.120
128.395	26.885	1269.209	1019.343
129.410	26.898	1268.104	1018.436
130.424	26.553	1268.742	1016.919
131.439	26.669	1267.990	1016.877
132.454	26.764	1265.429	1015.270
133.468	26.564	1265.311	1013.962
134.483	26.511	1265.638	1013.836
135.497	26.623	1263.925	1013.005
136.512	26.958	1262.951	1014.004
137.527	26.951	1261.488	1012.699
138.541	26.568	1260.746	1009.881
139.556	26.709	1258.463	1008.749
140.570	26.628	1258.015	1007.848
141.585	26.566	1257.515	1007.014
142.600	26.757	1255.973	1006.753
143.614	26.390	1256.150	1004.762
144.629	26.348	1254.473	1003.098
145.643	26.500	1253.656	1003.200
146.658	26.555	1252.335	1002.361
147.673	26.709	1250.841	1001.930
148.687	26.838	1249.573	1001.536
149.702	26.702	1249.296	1000.472
150.716	26.605	1248.418	999.148
151.731	26.756	1247.278	998.978
152.746	26.608	1245.786	996.880
153.760	26.774	1244.922	997.016
154.775	26.800	1244.574	996.790
155.789	26.897	1243.112	996.064
156.804	26.705	1241.990	994.022
157.819	26.843	1241.790	994.533
158.833	26.745	1241.107	993.359
159.848	27.098	1238.811	993.363
160.862	27.153	1237.759	992.735
161.877	26.788	1238.475	991.225
162.892	26.956	1237.303	991.115
163.906	26.951	1236.725	990.538
164.921	26.854	1235.141	988.655
165.935	26.931	1235.538	989.305
166.950	27.001	1234.296	988.605
167.964	26.855	1234.285	987.710
168.979	26.968	1233.901	987.933
169.994	26.873	1233.025	986.629
171.008	27.063	1232.369	987.046
172.023	26.830	1231.497	984.994
173.037	26.991	1230.787	985.216
174.052	26.929	1228.684	983.107
175.067	26.972	1229.572	983.963
176.081	26.974	1227.610	982.317
177.096	26.662	1227.882	980.760
178.110	26.744	1226.542	980.045
179.125	26.917	1225.288	979.894
180.140	26.943	1224.553	979.358
181.154	26.920	1223.546	978.344
182.169	26.905	1222.210	977.106
183.183	26.975	1221.263	976.643
184.198	26.944	1220.054	975.422
185.213	26.864	1219.555	974.504
186.227	26.987	1217.851	973.717
187.242	27.154	1217.915	974.576
188.256	26.943	1216.844	972.505
189.271	27.047	1216.037	972.332
190.286	26.954	1215.194	971.072
191.300	27.156	1214.724	971.688
192.315	27.259	1213.754	971.376
193.329	26.914	1213.679	969.391
194.344	27.111	1213.533	970.242
195.359	27.022	1212.658	968.980
196.373	27.010	1212.583	968.769
197.388	27.012	1212.606	968.714
198.402	26.937	1212.309	967.992
199.417	26.908	1212.424	967.842
200.432	26.759	1210.527	965.447
201.446	27.220	1209.084	966.664
202.461	27.145	1208.513	965.721
203.475	27.047	1208.214	964.880
204.490	27.092	1207.350	964.340
205.504	27.094	1207.177	964.126
206.519	27.234	1205.040	963.075
207.534	27.004	1203.816	960.800
208.548	27.115	1204.038	961.477
209.563	27.113	1202.870	960.449
210.577	27.149	1202.581	960.322
211.592	27.162	1201.846	959.719
212.607	27.220	1200.677	959.008
213.621	27.229	1199.740	958.222
214.636	27.164	1199.335	957.469
215.650	26.904	1199.699	956.307
216.665	27.251	1197.255	956.099
217.680	26.979	1196.581	954.048
218.694	27.171	1195.237	953.897
219.709	27.225	1195.222	954.083
220.723	27.232	1193.900	952.984
221.738	27.249	1193.308	952.515
222.753	27.251	1192.922	952.133
223.767	27.260	1192.076	951.418
224.782	26.994	1191.933	949.830
225.796	27.272	1190.625	950.157
226.811	27.320	1191.018	950.639
227.826	26.991	1190.743	948.613
228.840	26.857	1191.012	948.043
229.855	27.157	1188.724	947.704
230.869	27.243	1188.573	947.950
231.884	27.186	1187.558	946.759
232.899	26.940	1187.929	945.688
233.913	27.365	1186.023	946.298
234.928	27.254	1185.697	945.374
235.942	27.120	1185.138	944.152
236.957	27.112	1184.588	943.586
237.972	27.197	1183.553	943.123
238.986	27.183	1183.412	942.852
240.001	27.475	1182.636	943.666
241.015	27.445	1181.458	942.484
242.030	27.614	1180.791	942.745
243.045	27.355	1179.851	940.574
244.059	27.376	1179.962	940.685
245.074	27.330	1179.174	939.736
246.088	27.272	1178.193	938.574
247.103	27.309	1177.581	938.193
248.117	27.304	1176.251	937.025
249.132	27.501	1175.794	937.591
250.147	27.346	1175.485	936.464
251.161	27.402	1173.576	935.147
252.176	27.348	1173.710	934.894
253.190	27.353	1172.650	933.991
254.205	27.303	1172.788	933.762
255.220	27.260	1171.997	932.831
256.234	27.413	1171.063	932.788
257.249	27.281	1171.514	932.389
258.263	27.356	1170.295	931.720
259.278	27.513	1169.312	931.657
260.293	27.568	1169.099	931.688
261.307	27.405	1168.409	930.223
262.322	27.373	1167.836	929.522
263.336	27.204	1167.228	928.091
264.351	27.254	1165.836	927.158
265.366	27.497	1165.635	928.153
266.380	27.054	1165.440	925.659
267.395	27.368	1164.963	926.799
268.409	27.533	1163.470	926.366
269.424	27.432	1163.343	925.672
270.439	27.248	1162.831	924.245
271.453	27.215	1162.750	923.930
272.468	27.565	1160.951	924.199
273.482	27.374	1159.830	922.252
274.497	27.518	1160.363	923.328
275.512	27.662	1158.827	922.753
276.526	27.464	1158.637	921.515
277.541	27.542	1157.246	920.721
278.555	27.435	1156.735	919.695
279.570	27.249	1156.396	918.404
280.585	27.551	1155.719	919.309
281.599	27.571	1155.347	919.032
282.614	27.507	1154.348	917.835
283.628	27.386	1153.172	916.207
284.643	27.696	1151.902	916.677
285.657	27.876	1150.615	916.477
286.672	27.314	1150.878	913.781
287.687	27.476	1150.481	914.199
288.701	27.505	1148.895	913.002
289.716	27.565	1148.746	913.105
290.730	27.393	1148.001	911.569
291.745	27.778	1147.146	912.739
292.760	27.361	1146.701	910.217
293.774	27.480	1146.272	910.392
294.789	27.546	1146.000	910.423
295.803	27.526	1145.011	909.456
296.818	27.366	1144.587	908.243
297.833	27.701	1142.809	908.421
298.847	27.772	1142.719	908.621
299.862	27.248	1144.139	907.058
300.876	27.427	1142.687	906.716
301.891	27.734	1141.766	907.435
302.906	27.383	1141.552	905.437
303.920	27.527	1139.972	904.822
304.935	27.569	1139.393	904.488
305.949	27.599	1139.475	904.625
306.964	27.647	1138.754	904.207
307.979	27.648	1137.102	902.821
308.993	27.683	1136.534	902.461
310.008	27.672	1135.527	901.527
311.022	27.313	1135.369	899.551
312.037	27.704	1134.396	900.629
313.052	27.523	1133.438	898.895
314.066	27.379	1133.106	897.841
315.081	27.496	1132.514	897.871
316.095	27.582	1132.048	897.846
317.110	27.422	1130.847	896.025
318.125	27.546	1130.378	896.188
319.139	27.616	1129.020	895.373
320.154	27.526	1129.250	895.035
321.168	27.615	1127.984	894.387
322.183	27.869	1127.130	894.879
323.197	27.780	1126.993	894.252
324.212	27.215	1127.403	891.728
325.227	27.537	1126.097	892.194
326.241	27.988	1125.475	893.832
327.256	27.452	1125.441	891.101
328.270	27.546	1124.355	890.624
329.285	27.266	1124.542	889.322
330.300	27.624	1122.305	889.219
331.314	27.242	1122.209	887.204
332.329	27.574	1120.731	887.574
333.343	27.314	1120.429	885.990
334.358	27.495	1117.875	884.773
335.373	27.692	1118.131	885.850
336.387	27.332	1117.996	883.921
337.402	27.576	1116.709	884.008
338.416	27.590	1117.142	884.340
339.431	27.671	1115.929	883.691
340.446	27.683	1115.351	883.216
341.460	27.517	1113.941	881.218
342.475	27.198	1114.344	879.913
343.489	27.690	1113.454	881.511
344.504	27.924	1111.355	880.904
345.519	27.459	1111.638	878.806
346.533	27.810	1109.178	878.470
347.548	27.608	1109.322	877.537
348.562	27.620	1109.631	877.759
349.577	27.590	1108.381	876.548
350.592	27.365	1107.612	874.782
351.606	27.391	1107.064	874.396
352.621	27.629	1106.313	874.870
353.635	27.707	1105.357	874.408
354.650	27.563	1105.505	873.761
355.665	27.484	1104.764	872.718
356.679	27.415	1104.188	871.854
357.694	27.670	1103.637	872.562
358.708	27.573	1102.754	871.322
359.723	27.494	1103.379	871.361
360.738	27.827	1100.548	870.637
361.752	27.923	1100.386	870.893
362.767	27.593	1100.052	868.977
363.781	27.618	1100.138	869.086
364.796	27.676	1099.185	868.534
365.810	27.475	1099.146	867.470
366.825	27.631	1097.581	866.897
367.840	27.930	1096.594	867.460
368.854	27.550	1096.856	865.786
369.869	27.633	1095.526	865.053
370.883	27.919	1094.569	865.576
371.898	27.951	1093.559	864.855
372.913	27.835	1092.566	863.442
373.927	27.587	1093.324	862.791
374.942	27.452	1093.468	862.192
375.956	27.595	1092.535	862.056
376.971	27.552	1092.026	861.373
377.986	27.504	1091.740	860.846
379.000	27.356	1091.867	860.170
380.015	27.486	1090.526	859.649
381.029	27.718	1089.595	859.936
382.044	27.317	1089.657	858.017
383.059	27.730	1088.193	858.732
384.073	27.702	1086.827	857.446
385.088	27.586	1085.765	855.989
386.102	27.771	1084.936	856.126
387.117	27.594	1084.520	854.894
388.132	27.318	1084.025	853.134
389.146	27.504	1083.831	853.775
390.161	27.241	1083.694	852.361
391.175	27.605	1081.395	852.178
392.190	27.595	1081.001	851.745
393.205	27.383	1081.077	850.740
394.219	27.412	1080.143	850.067
395.234	27.781	1078.417	850.351
396.248	27.419	1079.333	849.310
397.263	27.556	1078.311	849.071
398.278	27.407	1077.132	847.374
399.292	27.394	1077.208	847.297
400.307	27.650	1075.997	847.458
401.321	27.850	1074.188	846.888
402.336	27.440	1074.439	845.110
403.350	27.654	1074.318	845.932
404.365	27.381	1072.951	843.515
405.380	27.422	1072.557	843.322
406.394	27.208	1071.751	841.621
407.409	27.576	1071.129	842.758
408.423	27.795	1069.135	842.125
409.438	27.617	1069.356	841.407
410.453	27.554	1068.870	840.660
411.467	27.290	1068.870	839.367
412.482	27.541	1067.674	839.509
413.496	27.479	1067.003	838.622
414.511	27.581	1066.517	838.634
415.526	27.373	1066.530	837.615
416.540	27.414	1064.364	836.027
417.555	27.617	1063.865	836.493
418.569	27.467	1064.805	836.467
419.584	27.144	1063.920	834.215
420.599	27.343	1064.043	835.154
421.613	152.904	1404.596	1793.393
422.628	140.632	1454.162	1793.479
