DTS Sentinel unit serial number:	SN413079Multiplexer serial number:	ORYXHardware model number:	OX4-SRSoftware version number:	ORYX F/W v4.00 Oryx Data Collector v3.7.2.0data status	okinstallation	princeton_trtdifferential loss correction	single-endedforward channel	channel 2reverse channel	N/Adate	2019/09/13time	04:07:35forward acquisition time	60.00reverse acquisition time	0.00gamma	496.2192k internal	0.2336k external	0.2336temperature offset calibration	1.0185default loss term (dB/km)	0.3790temperature slope calibration	1.0000multiplexer offset coefficient	1.0000multiplexer slope coefficient	1.0000fibre end	0.00T internal ref (°C)	26.94T ext. ref 1 (°C)	4.05T ext. ref 2 (°C)	21.26length (m)	temperature (°C)	Stokes	anti-Stokes-747.200	-130.419	0.214	0.029
-746.185	-64.850	-0.283	0.115
-745.171	248.083	0.040	0.069
-744.156	-126.259	0.337	0.051
-743.142	-68.067	-0.277	0.108
-742.127	-40.152	0.051	0.027
-741.112	64.159	-0.132	0.133
-740.098	569.202	0.130	0.318
-739.083	-144.512	-0.197	-0.018
-738.069	-134.538	-0.206	-0.025
-737.054	-127.344	-0.122	-0.018
-736.039	-122.368	-0.233	-0.038
-735.025	-112.674	-0.211	0.042
-734.010	-103.577	-0.248	-0.058
-732.996	-106.222	0.239	0.054
-731.981	800.000	0.106	-0.294
-730.966	99.286	0.148	0.171
-729.952	-200.000	-0.021	-0.252
-728.937	-107.499	-0.320	-0.070
-727.923	-200.000	-0.007	-0.043
-726.908	26.160	-0.125	0.105
-725.894	-66.888	-0.161	0.064
-724.879	267.973	0.187	-0.328
-723.864	490.604	-0.006	0.014
-722.850	-200.000	-0.043	-0.239
-721.835	800.000	0.057	-0.182
-720.821	337.092	-0.140	0.274
-719.806	139.970	0.106	-0.141
-718.791	-80.462	-0.209	-0.070
-717.777	71.584	-0.284	-0.296
-716.762	132.685	0.097	-0.125
-715.748	-144.664	0.280	0.026
-714.733	-200.000	-0.024	-0.113
-713.718	-46.780	0.228	-0.112
-712.704	-60.559	-0.096	0.041
-711.689	114.632	0.218	-0.267
-710.675	-167.631	0.240	0.010
-709.660	84.807	0.089	-0.098
-708.645	65.151	0.192	0.195
-707.631	-103.570	0.363	-0.085
-706.616	-83.406	-0.379	-0.122
-705.602	88.390	-0.137	0.152
-704.587	-156.030	0.295	0.019
-703.572	-122.419	0.378	-0.062
-702.558	-75.841	-0.371	-0.132
-701.543	-0.451	-0.142	-0.101
-700.529	168.742	0.177	-0.253
-699.514	103.398	-0.096	0.113
-698.499	-200.000	0.033	-0.297
-697.485	-74.593	0.201	0.073
-696.470	169.811	-0.247	0.354
-695.456	-200.000	0.018	-0.180
-694.441	289.781	-0.102	-0.186
-693.426	573.653	-0.233	-0.571
-692.412	-200.000	0.051	0.237
-691.397	39.030	-0.217	-0.195
-690.383	-53.280	-0.138	-0.063
-689.368	146.427	0.286	-0.385
-688.354	-38.755	0.183	-0.096
-687.339	800.000	-0.076	-0.238
-686.324	-200.000	-0.032	-0.181
-685.310	-111.671	-0.386	-0.078
-684.295	212.400	-0.282	-0.446
-683.281	-50.666	0.256	-0.121
-682.266	43.010	-0.333	0.304
-681.251	-81.461	-0.296	0.097
-680.237	-200.000	0.013	0.072
-679.222	-19.344	-0.245	-0.152
-678.208	-19.900	0.253	0.157
-677.193	143.493	-0.036	0.048
-676.178	-32.415	0.027	-0.015
-675.164	272.445	-0.143	0.253
-674.149	-78.343	-0.247	0.085
-673.135	174.107	-0.008	-0.011
-672.120	200.079	0.038	0.058
-671.105	-200.000	0.033	0.211
-670.091	-200.000	-0.023	-0.294
-669.076	18.548	0.145	0.116
-668.062	34.807	-0.344	-0.302
-667.047	-79.655	0.169	-0.057
-666.032	-200.000	-0.006	0.036
-665.018	-154.901	0.075	0.005
-664.003	288.215	0.132	-0.239
-662.989	-85.961	0.446	0.138
-661.974	800.000	-0.079	-0.283
-660.959	-136.042	0.049	-0.006
-659.945	800.000	-0.070	-0.239
-658.930	8.514	-0.209	-0.158
-657.916	552.431	-0.074	-0.178
-656.901	-200.000	0.017	-0.187
-655.886	800.000	0.071	0.259
-654.872	800.000	-0.104	0.356
-653.857	295.746	-0.182	0.333
-652.843	13.818	-0.204	0.159
-651.828	173.585	0.035	0.051
-650.814	465.672	-0.051	0.114
-649.799	80.575	-0.105	-0.114
-648.784	-200.000	-0.027	-0.316
-647.770	14.356	-0.147	-0.115
-646.755	412.079	0.060	-0.127
-645.741	-152.937	-0.161	-0.011
-644.726	59.750	-0.123	-0.121
-643.711	-99.561	-0.124	0.031
-642.697	250.873	-0.162	-0.275
-641.682	353.986	-0.141	0.280
-640.668	172.153	-0.095	0.137
-639.653	-103.232	0.068	0.016
-638.638	-200.000	0.020	-0.213
-637.624	46.881	0.274	0.255
-636.609	274.895	0.164	0.291
-635.595	-200.000	0.049	-0.250
-634.580	-200.000	0.026	-0.418
-633.565	-129.346	-0.259	0.036
-632.551	-73.836	-0.409	0.149
-631.536	-8.973	0.283	0.189
-630.522	-145.713	-0.335	-0.030
-629.507	-49.733	0.197	-0.094
-628.492	175.484	-0.069	-0.101
-627.478	-200.000	0.035	-0.225
-626.463	-111.669	0.328	-0.067
-625.449	800.000	0.055	-0.185
-624.434	-19.818	-0.204	0.126
-623.419	369.880	-0.228	-0.462
-622.405	-69.190	-0.106	-0.041
-621.390	-120.721	0.097	-0.016
-620.376	-200.000	0.025	0.266
-619.361	496.594	-0.127	-0.291
-618.346	73.482	-0.040	-0.042
-617.332	764.480	0.020	-0.053
-616.317	-200.000	-0.024	-0.272
-615.303	81.016	-0.059	-0.064
-614.288	136.347	-0.076	-0.098
-613.273	-92.375	-0.210	-0.059
-612.259	-200.000	-0.052	-0.423
-611.244	-172.297	-0.332	-0.011
-610.230	-84.063	0.061	0.019
-609.215	473.651	0.132	-0.298
-608.201	800.000	0.030	0.121
-607.186	264.666	-0.069	-0.121
-606.171	-200.000	0.008	-0.067
-605.157	67.304	-0.270	0.275
-604.142	-51.076	-0.174	0.081
-603.128	126.950	-0.321	-0.407
-602.113	-0.840	0.153	-0.108
-601.098	-68.316	0.089	0.034
-600.084	-39.941	0.196	-0.102
-599.069	223.296	0.093	0.150
-598.055	800.000	-0.094	0.290
-597.040	-200.000	0.042	-0.209
-596.025	19.178	-0.119	0.096
-595.011	-148.644	-0.333	-0.027
-593.996	135.248	0.054	0.070
-592.982	-23.109	0.212	0.127
-591.967	296.245	0.197	0.360
-590.952	800.000	-0.106	0.317
-589.938	379.117	0.047	0.097
-588.923	-200.000	-0.003	-0.183
-587.909	-145.377	0.166	-0.015
-586.894	-200.000	-0.008	0.092
-585.879	-37.992	-0.170	0.090
-584.865	-151.602	0.246	0.018
-583.850	-66.160	-0.216	0.086
-582.836	16.093	0.202	0.159
-581.821	-150.665	-0.123	0.009
-580.806	800.000	-0.046	-0.178
-579.792	223.559	0.062	-0.099
-578.777	340.983	0.260	-0.507
-577.763	-38.484	-0.355	0.187
-576.748	144.542	0.160	-0.214
-575.733	-26.136	-0.338	0.198
-574.719	69.690	-0.156	-0.160
-573.704	156.011	0.052	0.072
-572.690	406.569	0.089	0.187
-571.675	-90.046	0.129	-0.038
-570.661	-129.534	0.152	-0.021
-569.646	-79.070	-0.216	0.073
-568.631	130.168	-0.142	0.181
-567.617	-200.000	0.005	0.079
-566.602	-89.358	-0.076	0.022
-565.588	-135.475	0.375	0.045
-564.573	70.621	-0.058	0.059
-563.558	800.000	-0.060	-0.222
-562.544	187.497	0.239	-0.356
-561.529	687.043	0.155	-0.403
-560.515	-200.000	0.014	-0.238
-559.500	-200.000	0.000	-0.151
-558.485	-99.310	0.090	0.023
-557.471	-200.000	-0.089	-0.445
-556.456	-200.000	-0.028	0.358
-555.442	43.238	0.119	0.109
-554.427	-87.964	0.164	-0.049
-553.412	-108.533	-0.329	0.070
-552.398	-200.000	-0.005	0.265
-551.383	-184.375	0.175	0.003
-550.369	-200.000	-0.024	0.158
-549.354	311.117	-0.135	0.252
-548.339	0.307	-0.174	-0.124
-547.325	-142.071	0.083	-0.008
-546.310	800.000	0.106	-0.308
-545.296	215.198	-0.163	-0.257
-544.281	169.019	0.229	0.325
-543.266	117.651	-0.036	-0.044
-542.252	522.658	0.038	0.089
-541.237	-132.501	0.277	0.035
-540.223	-131.626	-0.174	0.023
-539.208	-81.090	-0.223	-0.073
-538.193	106.812	-0.123	0.145
-537.179	36.370	-0.184	-0.161
-536.164	-124.017	-0.223	-0.035
-535.150	24.270	-0.248	-0.204
-534.135	-27.188	-0.096	-0.056
-533.121	-41.592	-0.306	-0.157
-532.106	-73.397	0.250	0.091
-531.091	-200.000	-0.005	0.209
-530.077	-89.672	0.199	-0.058
-529.062	-25.337	-0.188	-0.111
-528.048	45.200	0.013	0.012
-527.033	-44.607	0.154	-0.077
-526.018	210.099	0.124	0.193
-525.004	23.033	-0.394	-0.322
-523.989	81.459	-0.030	-0.032
-522.975	275.679	0.086	-0.152
-521.960	-200.000	-0.052	-0.283
-520.945	800.000	-0.072	-0.237
-519.931	-96.908	0.251	-0.066
-518.916	800.000	0.099	-0.312
-517.902	-37.295	-0.213	-0.114
-516.887	-101.813	0.210	0.051
-515.872	-200.000	-0.030	-0.251
-514.858	-55.809	0.141	0.063
-513.843	-190.424	-0.337	-0.004
-512.829	-121.710	0.304	0.050
-511.814	155.331	0.135	0.185
-510.799	200.483	-0.072	0.110
-509.785	82.973	-0.148	0.161
-508.770	-200.000	-0.258	0.001
-507.756	-200.000	0.027	0.123
-506.741	-88.785	0.145	-0.043
-505.726	-57.833	-0.002	0.001
-504.712	800.000	-0.055	0.210
-503.697	-78.498	-0.120	-0.041
-502.683	-8.265	0.352	0.236
-501.668	-70.974	0.410	-0.153
-500.653	-100.834	-0.319	0.078
-499.639	-29.694	-0.140	0.079
-498.624	335.699	0.079	0.153
-497.610	102.251	-0.040	0.046
-496.595	-27.223	0.229	-0.133
-495.581	-200.000	-0.024	-0.182
-494.566	21.154	-0.150	-0.121
-493.551	181.107	-0.178	0.260
-492.537	-141.295	0.307	0.031
-491.522	289.089	0.195	-0.352
-490.508	-154.539	0.423	0.028
-489.493	-193.996	-0.172	-0.001
-488.478	-200.000	0.064	0.395
-487.464	103.870	-0.144	-0.168
-486.449	-48.664	0.189	-0.090
-485.435	-150.475	0.166	0.013
-484.420	158.065	-0.120	-0.166
-483.405	800.000	0.077	-0.216
-482.391	573.003	-0.068	0.164
-481.376	-121.717	-0.235	-0.039
-480.362	-15.885	-0.305	0.193
-479.347	-170.562	-0.475	-0.016
-478.332	800.000	0.060	-0.226
-477.318	101.088	0.109	0.126
-476.303	-79.489	0.231	-0.078
-475.289	-87.358	0.332	0.100
-474.274	800.000	0.042	-0.162
-473.259	-200.000	-0.031	-0.148
-472.245	-192.918	0.004	0.000
-471.230	334.657	-0.088	0.169
-470.216	-148.829	0.079	-0.006
-469.201	-103.596	0.242	-0.056
-468.186	-200.000	0.058	0.279
-467.172	-93.521	-0.059	0.016
-466.157	-154.230	0.319	0.021
-465.143	397.396	-0.088	0.182
-464.128	-67.245	-0.204	0.080
-463.113	57.779	-0.128	-0.124
-462.099	800.000	0.052	0.156
-461.084	-200.000	-0.037	0.191
-460.070	-66.208	-0.232	0.092
-459.055	-132.409	0.260	-0.033
-458.040	-145.019	-0.070	-0.006
-457.026	800.000	-0.032	-0.130
-456.011	85.740	-0.109	-0.119
-454.997	4.564	-0.004	-0.003
-453.982	158.951	-0.083	-0.114
-452.968	35.741	-0.096	-0.084
-451.953	477.641	0.165	0.371
-450.938	800.000	0.093	-0.269
-449.924	165.356	-0.045	-0.063
-448.909	-85.937	-0.159	-0.049
-447.895	800.000	-0.060	0.175
-446.880	-152.431	0.209	0.015
-445.865	-87.568	0.406	0.122
-444.851	-153.106	-0.176	-0.012
-443.836	-20.882	0.154	-0.094
-442.822	-200.000	0.007	-0.187
-441.807	23.958	-0.456	-0.373
-440.792	-0.075	0.230	-0.162
-439.778	800.000	0.078	-0.239
-438.763	193.470	-0.049	-0.074
-437.749	136.347	-0.345	-0.446
-436.734	110.786	-0.124	-0.147
-435.719	-200.000	0.063	-0.373
-434.705	44.266	-0.011	0.010
-433.690	-20.019	0.128	0.078
-432.676	-116.536	-0.106	0.019
-431.661	-200.000	-0.006	0.126
-430.646	-200.000	-0.003	-0.084
-429.632	49.681	-0.224	0.210
-428.617	217.245	0.031	0.049
-427.603	-200.000	-0.025	0.144
-426.588	-90.092	0.323	0.093
-425.573	-200.000	-0.025	0.253
-424.559	175.595	-0.287	-0.412
-423.544	94.009	0.203	-0.229
-422.530	-16.938	-0.047	0.029
-421.515	-200.000	-0.005	0.057
-420.500	-81.016	0.145	0.048
-419.486	-153.512	0.130	0.009
-418.471	-19.990	-0.359	-0.219
-417.457	-31.799	0.244	0.136
-416.442	85.663	0.178	0.194
-415.428	800.000	-0.050	0.217
-414.413	-73.474	-0.116	0.042
-413.398	-200.000	0.000	0.193
-412.384	-117.541	0.285	-0.051
-411.369	416.759	0.029	0.062
-410.355	-10.277	0.131	-0.086
-409.340	186.166	0.036	0.053
-408.325	-8.946	-0.220	-0.146
-407.311	733.572	-0.041	-0.108
-406.296	57.979	0.061	-0.059
-405.282	-122.392	-0.369	-0.060
-404.267	14.164	0.197	0.152
-403.252	-200.000	0.002	-0.127
-402.238	109.725	-0.088	0.104
-401.223	-132.352	-0.224	0.029
-400.209	-186.826	-0.199	-0.003
-399.194	67.048	0.072	0.072
-398.179	800.000	0.014	-0.045
-397.165	-61.081	0.138	-0.058
-396.150	-85.435	0.201	-0.062
-395.136	800.000	-0.051	-0.214
-394.121	50.113	0.124	0.116
-393.106	230.857	0.044	-0.071
-392.092	-40.500	-0.201	0.104
-391.077	107.254	0.156	0.184
-390.063	142.836	0.123	0.162
-389.048	5.944	-0.177	0.130
-388.033	-15.080	0.078	-0.049
-387.019	11.154	-0.094	0.071
-386.004	-96.187	0.242	-0.064
-384.990	582.670	-0.023	-0.057
-383.975	-127.755	0.286	0.041
-382.960	-200.000	-0.026	-0.153
-381.946	-61.767	-0.134	-0.056
-380.931	-66.329	0.192	0.076
-379.917	-200.000	0.006	0.037
-378.902	-80.447	0.121	-0.040
-377.888	-200.000	-0.012	0.147
-376.873	-68.155	0.155	0.060
-375.858	340.139	-0.027	-0.053
-374.844	-92.881	0.213	0.059
-373.829	317.417	0.107	0.200
-372.815	800.000	0.034	0.124
-371.800	-91.510	0.269	-0.076
-370.785	25.799	-0.142	0.117
-369.771	-17.557	-0.116	0.072
-368.756	21.121	0.201	0.162
-367.742	113.405	-0.089	-0.107
-366.727	-83.526	-0.196	-0.062
-365.712	-27.846	0.174	-0.100
-364.698	458.036	-0.125	-0.275
-363.683	108.203	-0.181	-0.213
-362.669	4.601	-0.047	-0.034
-361.654	-127.910	0.334	0.048
-360.639	-35.926	0.297	-0.159
-359.625	288.223	-0.087	0.156
-358.610	307.587	-0.085	0.157
-357.596	173.193	0.129	0.184
-356.581	-41.029	0.201	0.103
-355.566	800.000	0.077	0.213
-354.552	-169.323	0.139	0.005
-353.537	-200.000	0.035	0.180
-352.523	-99.360	-0.184	-0.046
-351.508	-78.634	0.031	-0.010
-350.493	254.236	0.239	0.404
-349.479	72.350	0.227	0.234
-348.464	-148.859	-0.203	0.016
-347.450	-200.000	0.004	-0.160
-346.435	-200.000	-0.008	-0.333
-345.420	242.558	0.132	0.218
-344.406	-23.171	0.118	0.070
-343.391	800.000	0.081	-0.307
-342.377	-82.181	0.197	-0.064
-341.362	187.253	0.102	0.151
-340.348	60.271	0.150	0.146
-339.333	220.132	-0.172	0.272
-338.318	-166.584	-0.169	-0.007
-337.304	232.264	0.175	0.284
-336.289	47.686	0.208	-0.191
-335.275	800.000	-0.041	-0.114
-334.260	38.846	0.204	0.180
-333.245	28.752	0.093	-0.078
-332.231	800.000	-0.128	-0.381
-331.216	182.438	0.092	0.135
-330.202	300.043	-0.129	0.235
-329.187	-80.371	-0.236	0.078
-328.172	15.826	-0.093	0.073
-327.158	-145.842	-0.317	-0.028
-326.143	-97.627	-0.189	0.049
-325.129	-200.000	0.023	-0.135
-324.114	448.976	0.026	-0.057
-323.099	48.521	0.339	0.314
-322.085	-115.439	-0.252	-0.047
-321.070	195.987	-0.179	-0.269
-320.056	800.000	0.060	0.178
-319.041	39.683	0.148	-0.131
-318.026	-39.907	0.391	-0.201
-317.012	-10.622	-0.047	-0.031
-315.997	41.967	0.126	0.113
-314.983	97.012	0.113	0.128
-313.968	-200.000	0.041	0.525
-312.953	800.000	0.068	0.214
-311.939	121.160	0.174	0.214
-310.924	19.547	-0.136	0.108
-309.910	-25.513	-0.381	0.222
-308.895	-132.548	-0.076	-0.010
-307.880	-200.000	-0.045	0.360
-306.866	-69.768	0.297	-0.112
-305.851	129.132	0.192	0.242
-304.837	-200.000	0.021	-0.136
-303.822	-200.000	-0.005	-0.067
-302.807	-46.367	0.192	0.093
-301.793	-106.469	0.181	0.040
-300.778	-200.000	0.020	-0.218
-299.764	109.837	-0.178	-0.211
-298.749	-122.657	0.152	0.024
-297.735	1.198	-0.266	-0.189
-296.720	763.002	-0.066	-0.178
-295.705	3.336	-0.183	0.132
-294.691	193.712	0.096	-0.144
-293.676	-200.000	-0.011	-0.069
-292.662	-170.424	-0.192	-0.007
-291.647	-200.000	0.007	0.330
-290.632	102.011	-0.236	0.272
-289.618	10.184	0.356	0.267
-288.603	295.860	-0.057	-0.104
-287.589	-19.257	-0.103	0.063
-286.574	-125.592	-0.282	-0.042
-285.559	545.136	0.108	0.256
-284.545	-188.085	-0.276	-0.003
-283.530	-34.732	0.108	0.058
-282.516	-200.000	0.060	0.272
-281.501	-68.280	0.249	0.095
-280.486	800.000	-0.091	0.339
-279.472	-29.099	-0.329	-0.186
-278.457	64.081	-0.180	0.178
-277.443	-200.000	0.019	0.127
-276.428	-200.000	0.053	0.507
-275.413	30.129	0.148	-0.125
-274.399	116.349	0.146	0.176
-273.384	-200.000	-0.002	-0.136
-272.370	-75.479	0.343	-0.120
-271.355	-103.591	-0.298	-0.069
-270.340	800.000	0.067	0.218
-269.326	-200.000	0.007	0.336
-268.311	-200.000	-0.019	0.130
-267.297	20.073	0.173	-0.137
-266.282	800.000	-0.052	-0.196
-265.267	-166.198	0.276	-0.012
-264.253	-200.000	0.009	0.053
-263.238	101.269	0.045	0.051
-262.224	-41.134	0.128	0.065
-261.209	-48.692	-0.424	-0.201
-260.195	-70.811	-0.171	-0.064
-259.180	-169.379	0.073	-0.003
-258.165	47.768	-0.046	0.042
-257.151	800.000	-0.115	-0.320
-256.136	-144.348	0.219	-0.020
-255.122	234.238	-0.209	0.339
-254.107	6.594	-0.145	0.106
-253.092	-66.825	0.210	-0.082
-252.078	-112.665	-0.387	-0.076
-251.063	-104.274	-0.025	0.006
-250.049	-117.342	-0.226	0.040
-249.034	-193.462	-0.135	-0.001
-248.019	-76.386	0.317	-0.110
-247.005	-53.795	0.183	-0.082
-245.990	-200.000	-0.002	0.129
-244.976	-122.843	0.071	-0.011
-243.961	16.156	-0.186	0.145
-242.946	-200.000	-0.009	0.208
-241.932	-200.000	0.025	-0.216
-240.917	-107.909	-0.118	-0.025
-239.903	84.312	0.222	-0.239
-238.888	148.806	0.087	-0.116
-237.873	41.664	0.054	0.048
-236.859	100.829	-0.073	-0.084
-235.844	-45.672	-0.319	0.155
-234.830	800.000	0.108	-0.441
-233.815	-200.000	-0.020	0.129
-232.800	800.000	0.042	0.119
-231.786	151.404	0.166	0.222
-230.771	-172.449	0.272	0.008
-229.757	800.000	0.094	-0.354
-228.742	7.111	0.198	-0.145
-227.727	40.369	-0.232	0.205
-226.713	-200.000	0.091	0.479
-225.698	-102.323	-0.296	-0.070
-224.684	800.000	0.096	-0.324
-223.669	-102.692	-0.083	0.019
-222.655	-109.293	0.198	0.041
-221.640	800.000	-0.013	0.053
-220.625	237.769	-0.154	-0.251
-219.611	301.136	-0.021	-0.038
-218.596	17.674	-0.072	0.056
-217.582	-152.720	-0.183	-0.013
-216.567	188.106	0.087	-0.128
-215.552	323.447	0.180	0.337
-214.538	-124.606	0.222	-0.034
-213.523	-17.740	-0.381	-0.235
-212.509	81.945	-0.196	-0.209
-211.494	-200.000	0.029	-0.303
-210.479	603.029	0.168	0.411
-209.465	-133.115	-0.194	-0.024
-208.450	-72.001	-0.138	-0.050
-207.436	-60.010	0.147	0.062
-206.421	-68.925	0.343	0.130
-205.406	-26.581	0.311	0.179
-204.392	-200.000	0.003	-0.457
-203.377	85.709	-0.328	-0.354
-202.363	777.172	0.025	0.067
-201.348	119.725	-0.118	-0.144
-200.333	-78.955	-0.278	-0.093
-199.319	-127.911	-0.205	0.029
-198.304	-83.499	0.196	0.062
-197.290	-52.373	0.145	0.066
-196.275	-106.577	0.157	0.034
-195.260	-200.000	-0.018	0.248
-194.246	-55.549	-0.300	-0.132
-193.231	-132.296	0.181	0.023
-192.217	800.000	0.050	-0.161
-191.202	-0.156	0.140	0.098
-190.187	-42.306	-0.218	0.109
-189.173	-7.010	0.217	0.145
-188.158	-135.831	0.306	0.035
-187.144	-83.102	0.185	-0.059
-186.129	-34.225	0.343	-0.185
-185.114	-173.417	-0.262	-0.008
-184.100	598.238	-0.046	0.113
-183.085	-200.000	0.007	0.063
-182.071	-82.846	-0.176	-0.056
-181.056	-200.000	0.015	-0.248
-180.042	-76.178	-0.370	-0.128
-179.027	199.856	-0.104	0.156
-178.012	800.000	0.032	0.120
-176.998	-115.010	0.213	-0.040
-175.983	-64.247	-0.364	0.146
-174.969	-200.000	-0.035	0.262
-173.954	478.865	0.102	-0.227
-172.939	-144.162	-0.049	0.005
-171.925	-21.526	-0.363	0.217
-170.910	219.253	-0.185	0.291
-169.896	119.034	0.197	0.239
-168.881	123.941	0.065	-0.081
-167.866	-122.353	-0.471	0.075
-166.852	800.000	-0.044	0.143
-165.837	563.178	0.069	-0.165
-164.823	39.152	-0.186	0.163
-163.808	124.789	0.083	-0.103
-162.793	429.325	-0.108	0.229
-161.779	-46.401	-0.062	0.030
-160.764	-174.244	0.112	-0.003
-159.750	77.113	0.049	-0.051
-158.735	52.265	0.142	-0.133
-157.720	48.453	-0.099	0.091
-156.706	800.000	-0.021	0.073
-155.691	-200.000	-0.009	-0.177
-154.677	-32.162	0.355	-0.195
-153.662	-69.187	0.253	-0.095
-152.647	-200.000	-0.031	-0.168
-151.633	800.000	0.112	0.388
-150.618	-57.755	-0.224	-0.096
-149.604	-200.000	-0.055	0.250
-148.589	-200.000	0.011	0.171
-147.574	-200.000	-0.035	0.306
-146.560	-200.000	0.031	-0.152
-145.545	-65.343	-0.167	-0.066
-144.531	0.126	0.280	-0.196
-143.516	-200.000	-0.099	-0.448
-142.502	57.178	0.245	-0.234
-141.487	522.338	0.071	0.164
-140.472	-34.787	-0.092	0.049
-139.458	-77.892	-0.304	0.103
-138.443	246.036	0.127	0.210
-137.429	800.000	0.197	0.611
-136.414	-200.000	-0.040	0.197
-135.399	9.025	0.125	0.093
-134.385	-2.021	-0.089	-0.062
-133.370	-70.035	-0.298	-0.111
-132.356	-200.000	-0.035	-0.186
-131.341	561.346	-0.105	0.248
-130.326	-200.000	0.005	-0.101
-129.312	-153.931	0.206	-0.014
-128.297	-66.710	-0.250	-0.097
-127.283	234.947	-0.090	-0.145
-126.268	-22.258	0.159	-0.095
-125.253	23.627	0.053	-0.043
-124.239	-200.000	0.074	0.318
-123.224	-137.287	0.244	0.027
-122.210	-200.000	-0.052	0.000
-121.195	28.387	-0.075	-0.062
-120.180	-110.141	-0.292	-0.060
-119.166	-98.564	0.419	-0.105
-118.151	203.831	-0.060	-0.091
-117.137	426.261	0.218	-0.460
-116.122	130.764	-0.027	0.034
-115.107	10.296	0.314	-0.234
-114.093	-93.357	0.215	0.058
-113.078	-200.000	0.012	-0.269
-112.064	23.869	0.187	-0.151
-111.049	-60.262	-0.130	0.054
-110.034	14.348	-0.095	-0.073
-109.020	-138.968	-0.115	-0.012
-108.005	335.072	0.106	-0.202
-106.991	323.600	-0.090	0.167
-105.976	-200.000	0.003	-0.260
-104.962	592.471	-0.142	0.344
-103.947	800.000	-0.052	0.166
-102.932	-148.796	-0.197	0.016
-101.918	800.000	0.018	-0.073
-100.903	-82.044	-0.152	0.049
-99.889	-77.475	-0.155	0.053
-98.874	-200.000	-0.006	0.206
-97.859	-200.000	0.025	0.129
-96.845	-35.174	-0.076	0.041
-95.830	800.000	0.077	0.251
-94.816	-200.000	-0.027	-0.213
-93.801	-70.366	-0.228	0.085
-92.786	-162.127	-0.215	0.011
-91.772	115.461	0.064	0.076
-90.757	356.225	-0.103	-0.200
-89.743	325.161	-0.109	0.205
-88.728	99.542	-0.248	0.281
-87.713	-43.366	-0.242	-0.120
-86.699	795.938	-0.134	-0.362
-85.684	-88.402	0.223	0.065
-84.670	-103.137	0.142	-0.033
-83.655	-93.556	0.262	-0.071
-82.640	-133.161	-0.178	0.022
-81.626	-200.000	0.001	-0.041
-80.611	84.256	0.211	-0.226
-79.597	-119.063	-0.317	-0.054
-78.582	-124.814	0.312	-0.047
-77.567	-200.000	0.004	0.107
-76.553	-47.533	0.186	-0.088
-75.538	-90.032	0.073	-0.021
-74.524	343.349	-0.102	0.196
-73.509	-96.409	0.340	-0.088
-72.494	23.116	0.158	-0.127
-71.480	-79.941	0.323	-0.106
-70.465	-110.432	-0.262	0.053
-69.451	-59.767	-0.184	0.077
-68.436	-200.000	0.004	0.169
-67.422	-200.000	0.065	0.338
-66.407	-107.027	0.264	0.057
-65.392	-200.000	0.071	0.325
-64.378	-67.412	0.225	-0.086
-63.363	27.139	0.092	0.076
-62.349	800.000	0.078	0.281
-61.334	154.143	-1.035	-1.389
-60.319	2.870	0.936	0.664
-59.305	321.933	-0.719	-1.338
-58.290	800.000	0.419	1.299
-57.276	545.976	0.647	1.512
-56.261	-200.000	116.908	661.435
-55.246	525.698	1534.997	3532.522
-54.232	175.511	2712.602	3844.025
-53.217	100.530	2289.053	2598.112
-52.203	35.973	1895.508	1630.313
-51.188	30.133	1686.437	1406.286
-50.173	27.646	1644.248	1352.631
-49.159	49.028	1701.266	1561.404
-48.144	47.493	1714.614	1562.034
-47.130	29.563	1672.977	1390.551
-46.115	27.044	1658.488	1359.620
-45.100	26.854	1653.401	1353.975
-44.086	26.933	1650.306	1351.978
-43.071	26.952	1647.973	1350.153
-42.057	26.793	1645.590	1346.966
-41.042	26.889	1643.438	1345.864
-40.027	26.832	1641.838	1344.083
-39.013	26.772	1639.906	1341.999
-37.998	26.764	1638.530	1340.761
-36.984	26.861	1637.085	1340.244
-35.969	26.868	1635.837	1339.222
-34.954	26.937	1633.808	1338.012
-33.940	26.947	1631.835	1336.416
-32.925	26.840	1630.371	1334.378
-31.911	26.932	1628.697	1333.634
-30.896	26.848	1627.072	1331.630
-29.881	26.900	1625.568	1330.727
-28.867	26.957	1623.465	1329.372
-27.852	26.963	1622.437	1328.526
-26.838	26.886	1620.855	1326.613
-25.823	26.862	1619.949	1325.640
-24.809	26.987	1618.243	1325.107
-23.794	26.912	1617.137	1323.599
-22.779	26.984	1615.468	1322.706
-21.765	26.936	1613.491	1320.690
-20.750	26.898	1612.045	1319.171
-19.736	26.929	1610.599	1318.165
-18.721	27.004	1609.470	1317.728
-17.706	26.930	1608.008	1315.947
-16.692	27.003	1606.281	1315.007
-15.677	27.056	1604.690	1314.039
-14.663	27.112	1603.570	1313.470
-13.648	27.010	1602.123	1311.503
-12.633	27.030	1600.768	1310.480
-11.619	26.932	1599.126	1308.379
-10.604	26.965	1597.276	1307.055
-9.590	26.978	1596.046	1306.084
-8.575	27.041	1595.016	1305.643
-7.560	27.076	1593.920	1304.949
-6.546	27.005	1592.865	1303.526
-5.531	26.986	1591.592	1302.295
-4.517	26.990	1590.605	1301.459
-3.502	27.000	1589.142	1300.288
-2.487	26.968	1587.888	1298.982
-1.473	26.641	1576.012	1286.891
-0.458	23.702	1556.605	1250.333
0.556	21.886	1558.049	1217.968
1.571	19.338	1581.097	1217.899
2.586	18.814	1593.517	1223.628
3.600	17.166	1539.607	1170.774
4.615	10.767	1434.260	1049.357
5.629	4.977	1375.243	970.143
6.644	4.081	1367.756	959.225
7.659	3.965	1367.058	957.937
8.673	4.095	1366.176	958.035
9.688	4.079	1363.961	956.299
10.702	3.930	1361.319	953.441
11.717	6.741	1366.183	974.131
12.731	14.347	1380.033	1031.165
13.746	20.919	1391.110	1080.229
14.761	22.813	1393.197	1093.494
15.775	22.388	1391.021	1089.063
16.790	21.383	1388.747	1080.973
17.804	20.556	1387.270	1074.623
18.819	20.427	1385.425	1072.302
19.834	20.329	1384.747	1071.074
20.848	20.363	1383.683	1070.365
21.863	20.135	1382.510	1067.961
22.877	20.046	1382.011	1066.935
23.892	20.059	1380.379	1065.661
24.907	20.033	1379.805	1064.961
25.921	19.979	1378.890	1063.827
26.936	20.029	1377.584	1063.035
27.950	19.943	1377.082	1062.027
28.965	20.215	1375.668	1062.504
29.980	20.356	1374.458	1062.343
30.994	20.404	1374.118	1062.278
32.009	20.501	1373.117	1062.005
33.023	20.407	1371.719	1060.252
34.038	20.313	1370.761	1058.849
35.053	20.202	1369.046	1056.752
36.067	20.251	1367.952	1056.114
37.082	20.147	1367.376	1054.942
38.096	20.186	1366.621	1054.503
39.111	20.256	1365.828	1054.219
40.126	20.181	1364.674	1052.783
41.140	19.890	1363.443	1049.972
42.155	19.642	1363.197	1048.188
43.169	19.585	1362.847	1047.477
44.184	19.622	1362.741	1047.530
45.199	19.708	1362.213	1047.555
46.213	20.023	1361.478	1048.803
47.228	20.076	1361.171	1048.797
48.242	20.186	1359.785	1048.300
49.257	20.200	1357.746	1046.720
50.271	20.087	1357.075	1045.426
51.286	20.010	1356.142	1044.152
52.301	20.057	1354.474	1043.060
53.315	19.934	1353.345	1041.359
54.330	19.873	1352.086	1039.932
55.344	19.673	1351.304	1038.034
56.359	19.726	1349.670	1037.004
57.374	19.605	1349.444	1036.017
58.388	19.672	1347.944	1035.173
59.403	19.530	1347.681	1034.028
60.417	19.606	1347.016	1033.878
61.432	19.479	1346.101	1032.328
62.447	19.354	1345.256	1030.843
63.461	19.276	1343.783	1029.155
64.476	19.227	1342.845	1028.053
65.490	19.330	1341.261	1027.365
66.505	19.371	1339.774	1026.380
67.520	19.324	1339.068	1025.467
68.534	19.358	1337.585	1024.442
69.549	19.367	1336.435	1023.523
70.563	19.250	1335.630	1022.122
71.578	19.117	1334.309	1020.236
72.593	19.071	1333.216	1019.039
73.607	18.963	1333.071	1018.195
74.622	19.145	1332.059	1018.407
75.636	19.224	1331.428	1018.300
76.651	19.243	1330.628	1017.711
77.666	19.362	1330.294	1018.070
78.680	19.271	1330.477	1017.580
79.695	19.560	1328.717	1017.852
80.709	19.617	1328.527	1017.952
81.724	19.705	1328.447	1018.316
82.739	19.798	1327.418	1017.989
83.753	19.940	1326.842	1018.291
84.768	20.128	1325.597	1018.347
85.782	20.199	1324.629	1017.934
86.797	20.264	1323.968	1017.713
87.812	20.110	1322.212	1015.376
88.826	20.118	1321.143	1014.512
89.841	20.121	1320.558	1013.991
90.855	20.233	1319.375	1013.646
91.870	20.339	1318.440	1013.454
92.884	20.396	1317.389	1012.889
93.899	20.393	1316.848	1012.367
94.914	20.447	1316.552	1012.363
95.928	20.450	1315.556	1011.528
96.943	20.332	1314.581	1009.999
97.957	20.228	1313.426	1008.419
98.972	20.175	1312.649	1007.428
99.987	20.331	1311.587	1007.428
101.001	20.304	1310.276	1006.177
102.016	20.228	1309.509	1005.059
103.030	20.260	1308.883	1004.675
104.045	20.272	1307.871	1003.878
105.060	20.056	1306.341	1001.363
106.074	19.770	1304.526	998.233
107.089	19.458	1303.018	995.194
108.103	19.347	1301.499	993.307
109.118	19.360	1300.227	992.324
110.133	19.356	1298.787	991.111
111.147	19.370	1297.941	990.461
112.162	19.444	1296.757	989.889
113.176	19.575	1295.101	989.292
114.191	19.494	1295.222	988.834
115.206	19.552	1293.920	988.082
116.220	19.516	1292.323	986.568
117.235	19.503	1291.098	985.473
118.249	19.478	1290.104	984.486
119.264	19.341	1289.086	982.837
120.279	19.297	1287.651	981.406
121.293	19.278	1287.051	980.758
122.308	19.130	1285.684	978.785
123.322	19.065	1284.514	977.439
124.337	19.124	1283.149	976.646
125.352	19.045	1282.199	975.394
126.366	18.998	1281.314	974.365
127.381	18.991	1280.258	973.438
128.395	19.001	1278.966	972.425
129.410	18.895	1278.709	971.546
130.424	19.213	1277.671	972.465
131.439	19.354	1277.137	972.765
132.454	19.424	1275.959	972.179
133.468	19.371	1275.360	971.338
134.483	19.417	1275.011	971.248
135.497	19.547	1273.925	971.066
136.512	19.569	1272.577	970.077
137.527	19.663	1271.239	969.494
138.541	19.606	1270.365	968.424
139.556	19.671	1268.926	967.608
140.570	19.867	1268.071	967.967
141.585	19.811	1267.649	967.244
142.600	20.088	1265.877	967.353
143.614	20.148	1265.592	967.382
144.629	20.186	1264.813	966.917
145.643	20.085	1263.939	965.600
146.658	19.948	1262.115	963.356
147.673	19.796	1260.784	961.409
148.687	19.644	1259.445	959.461
149.702	19.618	1258.088	958.199
150.716	19.561	1256.471	956.564
151.731	19.555	1255.579	955.770
152.746	19.493	1254.493	954.516
153.760	19.654	1252.935	954.132
154.775	19.795	1252.418	954.437
155.789	19.837	1251.690	954.025
156.804	20.017	1250.190	953.787
157.819	20.014	1249.554	953.206
158.833	20.016	1249.210	952.866
159.848	20.196	1248.538	953.260
160.862	20.148	1247.474	952.098
161.877	19.915	1245.221	949.018
162.892	19.481	1244.086	945.695
163.906	19.622	1243.353	945.825
164.921	19.559	1242.685	944.889
165.935	19.468	1242.304	944.016
166.950	19.765	1241.643	945.053
167.964	19.705	1240.968	944.130
168.979	19.606	1239.964	942.742
169.994	19.634	1239.471	942.437
171.008	19.671	1238.460	941.785
172.023	19.857	1237.583	942.050
173.037	20.027	1237.107	942.525
174.052	19.917	1236.330	941.252
175.067	19.647	1234.901	938.614
176.081	19.523	1233.627	936.890
177.096	19.515	1232.820	936.150
178.110	19.619	1231.598	935.704
179.125	19.678	1230.479	935.093
180.140	19.764	1229.515	934.742
181.154	19.966	1228.700	935.132
182.169	20.013	1227.733	934.563
183.183	19.967	1226.924	933.619
184.198	20.162	1225.679	933.639
185.213	20.152	1224.312	932.460
186.227	20.137	1224.043	932.091
187.242	20.397	1222.277	932.061
188.256	20.274	1221.905	931.035
189.271	20.271	1221.364	930.526
190.286	20.149	1219.145	928.097
191.300	19.702	1218.006	924.759
192.315	19.529	1217.556	923.410
193.329	19.617	1216.967	923.352
194.344	19.722	1216.125	923.192
195.359	19.853	1215.293	923.179
196.373	19.844	1215.132	922.924
197.388	19.853	1215.489	923.161
198.402	20.139	1215.228	924.408
199.417	20.399	1214.402	925.083
200.432	20.560	1213.753	925.365
201.446	20.688	1213.276	925.597
202.461	20.784	1212.097	925.127
203.475	20.744	1211.259	924.196
204.490	20.377	1209.679	920.959
205.504	20.145	1208.593	918.822
206.519	20.220	1206.783	917.764
207.534	20.005	1206.331	916.198
208.548	20.170	1205.151	916.097
209.563	20.123	1204.586	915.339
210.577	20.083	1203.596	914.295
211.592	20.219	1203.386	914.771
212.607	20.430	1202.444	915.084
213.621	20.458	1201.538	914.463
214.636	20.375	1200.656	913.269
215.650	20.280	1199.732	911.991
216.665	20.508	1198.907	912.476
217.680	20.807	1198.233	913.453
218.694	20.757	1197.868	912.833
219.709	20.694	1196.421	911.317
220.723	20.580	1196.069	910.375
221.738	20.642	1195.320	910.044
222.753	20.532	1194.513	908.779
223.767	20.603	1193.614	908.386
224.782	20.617	1193.343	908.172
225.796	20.726	1193.010	908.405
226.811	20.792	1192.065	907.950
227.826	20.564	1190.772	905.698
228.840	20.437	1190.168	904.495
229.855	20.411	1189.656	903.892
230.869	20.573	1188.482	903.761
231.884	20.402	1187.388	901.959
232.899	20.297	1186.669	900.792
233.913	20.070	1185.934	898.975
234.928	20.028	1185.039	898.001
235.942	20.047	1183.900	897.155
236.957	20.066	1183.780	897.084
237.972	20.039	1183.042	896.306
238.986	20.152	1182.068	896.071
240.001	20.131	1181.122	895.165
241.015	20.131	1180.979	894.978
242.030	20.299	1179.684	894.785
243.045	20.400	1179.314	894.946
244.059	20.362	1178.661	894.175
245.074	20.451	1177.831	893.923
246.088	20.613	1177.315	894.288
247.103	20.703	1176.274	893.879
248.117	20.808	1175.925	894.074
249.132	21.052	1175.388	894.839
250.147	21.298	1174.880	895.637
251.161	21.480	1174.266	896.016
252.176	21.523	1173.738	895.756
253.190	21.471	1173.628	895.330
254.205	21.582	1172.800	895.187
255.220	21.823	1171.914	895.659
256.234	21.721	1171.455	894.708
257.249	21.641	1170.322	893.359
258.263	21.557	1170.184	892.745
259.278	21.601	1169.435	892.315
260.293	21.608	1168.848	891.825
261.307	21.544	1168.658	891.278
262.322	21.727	1167.567	891.297
263.336	21.793	1166.738	890.921
264.351	21.781	1166.781	890.815
265.366	21.705	1165.993	889.746
266.380	21.628	1165.250	888.712
267.395	21.714	1163.656	887.851
268.409	21.460	1163.179	886.124
269.424	21.453	1162.487	885.480
270.439	21.453	1161.665	884.778
271.453	21.252	1161.237	883.354
272.468	21.229	1160.185	882.363
273.482	21.226	1159.035	881.396
274.497	21.238	1158.586	881.034
275.512	21.189	1158.040	880.293
276.526	21.197	1157.055	879.507
277.541	21.441	1155.935	879.807
278.555	21.315	1155.674	878.899
279.570	21.567	1155.414	879.889
280.585	21.680	1155.092	880.135
281.599	21.639	1154.090	879.086
282.614	21.522	1152.699	877.363
283.628	21.369	1151.472	875.586
284.643	21.383	1150.311	874.693
285.657	21.403	1149.906	874.411
286.672	21.321	1148.733	873.032
287.687	21.411	1148.062	872.890
288.701	21.361	1147.258	871.956
289.716	21.418	1146.367	871.481
290.730	21.463	1145.750	871.162
291.745	21.514	1145.168	870.896
292.760	21.583	1144.271	870.481
293.774	21.662	1144.155	870.705
294.789	21.671	1144.020	870.572
295.803	21.716	1143.064	869.993
296.818	21.380	1142.434	867.770
297.833	21.467	1141.015	867.045
298.847	21.498	1140.146	866.462
299.862	21.506	1139.729	866.108
300.876	21.507	1139.197	865.633
301.891	21.613	1138.455	865.513
302.906	21.833	1138.136	866.284
303.920	21.874	1137.265	865.744
304.935	21.883	1137.293	865.736
305.949	22.105	1136.755	866.343
306.964	22.069	1135.705	865.290
307.979	21.934	1134.496	863.629
308.993	21.893	1133.985	862.960
310.008	21.918	1133.393	862.554
311.022	21.915	1132.796	862.009
312.037	22.092	1131.751	862.009
313.052	21.725	1130.771	859.383
314.066	21.518	1129.299	857.178
315.081	21.386	1128.426	855.790
316.095	21.355	1127.466	854.837
317.110	21.450	1126.643	854.601
318.125	21.396	1126.285	853.988
319.139	21.493	1125.210	853.573
320.154	21.426	1124.552	852.671
321.168	21.365	1124.526	852.280
322.183	21.478	1123.616	852.064
323.197	21.469	1123.154	851.594
324.212	21.619	1122.505	851.755
325.227	21.723	1121.708	851.581
326.241	21.595	1121.759	850.922
327.256	21.445	1120.585	849.231
328.270	21.432	1119.799	848.495
329.285	21.393	1118.861	847.522
330.300	21.508	1117.730	847.144
331.314	21.464	1116.944	846.264
332.329	21.489	1115.930	845.540
333.343	21.731	1114.717	845.714
334.358	21.780	1114.365	845.607
335.373	21.848	1113.971	845.562
336.387	21.880	1112.898	844.826
337.402	21.970	1112.700	845.038
338.416	21.965	1111.997	844.405
339.431	22.077	1111.276	844.318
340.446	22.274	1110.840	844.858
341.460	22.463	1110.336	845.308
342.475	22.440	1109.721	844.654
343.489	22.529	1108.713	844.239
344.504	22.539	1107.925	843.612
345.519	22.562	1106.830	842.816
346.533	22.692	1106.290	842.948
347.548	22.655	1105.561	842.143
348.562	22.576	1105.255	841.459
349.577	22.324	1103.558	838.891
350.592	22.062	1102.813	837.000
351.606	22.011	1101.742	835.870
352.621	21.808	1101.191	834.416
353.635	21.776	1100.186	833.425
354.650	21.808	1099.518	832.997
355.665	22.011	1098.929	833.444
356.679	22.104	1098.323	833.350
357.694	22.085	1098.008	832.947
358.708	22.182	1097.537	832.977
359.723	22.197	1097.145	832.676
360.738	22.110	1096.366	831.597
361.752	22.182	1095.899	831.511
362.767	22.238	1095.254	831.212
363.781	22.234	1094.676	830.683
364.796	22.418	1094.000	830.964
365.810	22.520	1093.846	831.258
366.825	22.756	1093.076	831.709
367.840	22.836	1093.023	831.975
368.854	22.963	1092.018	831.733
369.869	22.932	1091.588	831.186
370.883	22.790	1090.130	829.334
371.898	22.651	1089.319	827.992
372.913	22.548	1088.976	827.172
373.927	22.657	1088.766	827.451
374.942	22.740	1088.606	827.645
375.956	22.833	1087.991	827.540
376.971	22.742	1087.001	826.292
377.986	22.837	1086.363	826.178
379.000	23.044	1086.034	826.820
380.015	22.960	1085.842	826.209
381.029	23.142	1084.803	826.196
382.044	23.092	1084.290	825.500
383.059	23.075	1083.365	824.643
384.073	22.968	1082.636	823.513
385.088	23.032	1081.760	823.071
386.102	22.982	1080.424	821.754
387.117	22.773	1079.715	820.171
388.132	22.561	1078.292	818.029
389.146	22.559	1077.495	817.344
390.161	22.550	1077.067	816.907
391.175	22.603	1075.913	816.203
392.190	22.788	1075.644	816.785
393.205	23.004	1075.099	817.299
394.219	23.007	1074.254	816.597
395.234	22.795	1073.241	814.774
396.248	22.688	1072.366	813.548
397.263	22.565	1071.124	811.964
398.278	22.469	1070.654	811.096
399.292	22.402	1069.735	810.018
400.307	22.356	1068.744	808.983
401.321	22.393	1068.186	808.662
402.336	22.393	1067.695	808.218
403.350	22.358	1066.827	807.329
404.365	22.416	1066.369	807.174
405.380	22.686	1065.462	807.655
406.394	22.692	1065.100	807.335
407.409	23.009	1064.275	808.088
408.423	23.093	1063.968	808.169
409.438	23.151	1063.580	808.065
410.453	23.205	1062.794	807.645
411.467	23.212	1061.958	806.972
412.482	23.279	1061.612	806.940
413.496	23.391	1060.971	806.893
414.511	23.498	1060.421	806.889
415.526	23.605	1060.109	807.069
416.540	23.653	1059.948	807.089
417.555	23.469	1059.640	805.949
418.569	23.418	1058.694	804.926
419.584	23.467	1058.028	804.573
420.599	23.372	1057.686	803.810
421.613	157.646	1404.797	1798.452
422.628	144.868	1455.335	1798.530
