DTS Sentinel unit serial number:	SN413079Multiplexer serial number:	ORYXHardware model number:	OX4-SRSoftware version number:	ORYX F/W v4.00 Oryx Data Collector v3.7.2.0data status	okinstallation	princeton_trtdifferential loss correction	single-endedforward channel	channel 2reverse channel	N/Adate	2019/09/13time	17:15:34forward acquisition time	60.00reverse acquisition time	0.00gamma	496.2192k internal	0.2308k external	0.2308temperature offset calibration	1.0199default loss term (dB/km)	0.3790temperature slope calibration	1.0000multiplexer offset coefficient	1.0000multiplexer slope coefficient	1.0000fibre end	0.00T internal ref (°C)	35.70T ext. ref 1 (°C)	4.80T ext. ref 2 (°C)	35.29length (m)	temperature (°C)	Stokes	anti-Stokes-747.200	-135.151	0.219	-0.027
-746.185	4.340	0.136	-0.101
-745.171	800.000	-0.109	-0.362
-744.156	800.000	0.033	0.133
-743.142	800.000	-0.018	-0.055
-742.127	270.432	0.049	0.087
-741.112	-137.724	-0.339	0.039
-740.098	-200.000	0.009	-0.216
-739.083	153.915	0.145	0.202
-738.069	198.718	0.137	0.214
-737.054	-200.000	0.021	-0.254
-736.039	-200.000	-0.036	-0.202
-735.025	233.605	-0.030	0.051
-734.010	-129.112	0.347	0.049
-732.996	800.000	-0.045	-0.135
-731.981	-14.922	0.123	0.080
-730.966	800.000	0.031	0.120
-729.952	-72.125	0.186	-0.070
-728.937	-200.000	-0.246	-0.000
-727.923	45.333	0.130	-0.122
-726.908	310.176	0.069	0.131
-725.894	-14.198	-0.128	0.084
-724.879	-2.912	-0.252	0.179
-723.864	325.531	0.085	-0.166
-722.850	-57.647	-0.137	0.061
-721.835	75.974	-0.203	-0.218
-720.821	-61.991	0.126	-0.054
-719.806	312.888	0.139	-0.265
-718.791	108.090	0.069	0.084
-717.777	-200.000	0.006	0.097
-716.762	340.562	-0.093	-0.184
-715.748	-200.000	0.029	-0.329
-714.733	430.938	-0.110	-0.243
-713.718	800.000	0.156	0.457
-712.704	800.000	-0.103	-0.314
-711.689	800.000	-0.041	0.127
-710.675	748.031	0.058	-0.160
-709.660	-64.029	0.255	-0.106
-708.645	617.001	0.060	-0.152
-707.631	-194.769	-0.429	-0.003
-706.616	-54.968	0.412	0.189
-705.602	318.311	-0.021	0.041
-704.587	-35.686	-0.305	-0.168
-703.572	54.373	-0.193	-0.189
-702.558	-5.366	0.249	-0.173
-701.543	-200.000	-0.045	-0.341
-700.529	215.164	-0.181	0.291
-699.514	88.748	0.105	-0.118
-698.499	325.454	0.149	-0.289
-697.485	-41.786	0.050	-0.026
-696.470	-200.000	0.010	0.114
-695.456	-200.000	0.001	-0.290
-694.441	-200.000	-0.029	-0.202
-693.426	-136.403	0.127	-0.015
-692.412	287.108	-0.111	0.204
-691.397	661.615	0.117	-0.306
-690.383	-56.792	-0.145	0.065
-689.368	-136.724	0.355	0.042
-688.354	13.499	-0.148	0.117
-687.339	-200.000	0.061	-0.510
-686.324	-188.401	-0.182	0.002
-685.310	-10.183	-0.222	-0.150
-684.295	381.719	-0.045	0.094
-683.281	800.000	-0.056	0.184
-682.266	-66.698	0.204	0.082
-681.251	321.509	0.123	-0.237
-680.237	-200.000	-0.077	0.351
-679.222	-66.001	-0.164	-0.066
-678.208	-178.186	0.362	-0.009
-677.193	468.719	-0.041	0.094
-676.178	-32.101	0.154	-0.087
-675.164	46.430	0.166	0.156
-674.149	298.496	0.140	-0.260
-673.135	-200.000	0.027	-0.208
-672.120	748.691	0.142	-0.388
-671.105	800.000	0.113	0.375
-670.091	-27.849	0.302	-0.177
-669.076	306.889	0.093	0.176
-668.062	64.597	-0.169	0.172
-667.047	-118.578	0.146	0.026
-666.032	-200.000	0.013	-0.136
-665.018	114.441	-0.139	0.171
-664.003	52.135	0.052	-0.050
-662.989	325.104	-0.069	0.134
-661.974	-200.000	0.059	0.300
-660.959	-129.631	-0.204	0.028
-659.945	46.916	0.094	0.088
-658.930	-145.042	0.277	0.026
-657.916	-105.908	-0.222	0.051
-656.901	-10.035	-0.238	-0.160
-655.886	800.000	-0.059	0.220
-654.872	-200.000	0.033	-0.153
-653.857	-29.070	0.113	0.066
-652.843	-200.000	-0.004	-0.202
-651.828	-85.059	-0.172	0.055
-650.814	-131.635	0.298	-0.040
-649.799	-3.866	0.204	-0.143
-648.784	571.579	0.094	-0.231
-647.770	194.226	-0.171	0.262
-646.755	255.300	0.096	-0.166
-645.741	-178.618	-0.265	0.006
-644.726	-25.676	0.035	-0.021
-643.711	800.000	0.030	0.115
-642.697	164.201	-0.033	0.047
-641.682	-72.701	-0.282	-0.105
-640.668	-98.755	-0.565	0.146
-639.653	-62.230	-0.271	0.114
-638.638	47.872	0.166	-0.157
-637.624	-139.536	0.483	-0.052
-636.609	75.104	-0.029	0.031
-635.595	11.491	0.085	0.066
-634.580	-200.000	0.040	-0.263
-633.565	177.846	-0.036	0.053
-632.551	-100.389	0.024	0.006
-631.536	636.726	0.194	-0.500
-630.522	-36.234	0.217	-0.119
-629.507	800.000	0.030	0.097
-628.492	6.330	-0.123	0.093
-627.478	116.722	-0.090	0.111
-626.463	-2.321	0.074	-0.052
-625.449	-200.000	-0.019	0.367
-624.434	-24.009	-0.130	0.079
-623.419	800.000	0.148	0.430
-622.405	-100.095	0.252	-0.064
-621.390	-90.513	0.152	-0.045
-620.376	-200.000	0.054	-0.401
-619.361	-60.741	-0.431	0.185
-618.346	-63.609	0.182	-0.075
-617.332	-200.000	0.037	0.251
-616.317	-200.000	-0.043	-0.393
-615.303	-200.000	0.004	0.316
-614.288	156.330	0.185	-0.258
-613.273	62.221	-0.236	-0.238
-612.259	800.000	-0.042	0.136
-611.244	517.654	0.120	0.285
-610.230	65.214	-0.092	0.094
-609.215	-200.000	-0.007	0.136
-608.201	-0.793	-0.231	-0.166
-607.186	-200.000	-0.002	0.123
-606.171	41.658	-0.149	-0.136
-605.157	-70.083	-0.337	0.130
-604.142	-171.521	0.089	0.003
-603.128	800.000	-0.046	0.150
-602.113	-131.387	0.173	-0.023
-601.098	166.929	-0.141	0.202
-600.084	-200.000	0.004	0.090
-599.069	-46.187	-0.071	0.035
-598.055	-75.305	-0.066	-0.024
-597.040	-105.909	0.065	0.015
-596.025	649.360	-0.047	0.121
-595.011	357.742	0.120	-0.243
-593.996	-63.262	0.145	-0.060
-592.982	127.947	-0.202	-0.259
-591.967	-99.795	0.222	-0.056
-590.952	-82.433	-0.445	-0.146
-589.938	-200.000	0.002	-0.185
-588.923	80.298	0.146	0.159
-587.909	280.687	-0.110	-0.198
-586.894	92.765	0.121	-0.138
-585.879	800.000	-0.059	0.195
-584.865	-38.964	0.239	0.127
-583.850	121.292	-0.067	0.084
-582.836	94.206	-0.029	0.034
-581.821	154.429	-0.114	0.158
-580.806	-89.348	-0.219	0.065
-579.792	767.631	-0.064	-0.175
-578.777	503.402	0.105	0.245
-577.763	175.611	0.156	0.229
-576.748	78.247	-0.095	0.102
-575.733	800.000	-0.037	0.157
-574.719	-5.585	0.174	0.121
-573.704	10.608	-0.266	0.205
-572.690	314.425	0.095	-0.181
-571.675	-33.988	-0.241	0.134
-570.661	-109.858	-0.304	0.064
-569.646	82.644	-0.073	0.081
-568.631	99.706	-0.128	-0.149
-567.617	-200.000	0.018	0.086
-566.602	100.339	0.214	-0.251
-565.588	-200.000	0.025	-0.219
-564.573	35.363	-0.082	0.072
-563.558	59.393	-0.113	0.112
-562.544	-59.748	-0.214	-0.092
-561.529	704.672	-0.206	0.549
-560.515	-142.171	0.208	-0.021
-559.500	169.143	0.077	0.111
-558.485	-138.088	-0.333	0.037
-557.471	-200.000	-0.003	-0.311
-556.456	-76.036	-0.269	0.096
-555.442	-45.607	-0.131	0.066
-554.427	256.500	-0.181	0.314
-553.412	-95.326	0.121	-0.033
-552.398	-200.000	-0.023	-0.432
-551.383	-192.457	0.156	-0.001
-550.369	-144.587	-0.237	0.022
-549.354	650.293	0.128	0.330
-548.339	185.836	0.250	0.375
-547.325	-61.587	-0.215	0.091
-546.310	-15.554	-0.179	0.115
-545.296	78.115	0.158	0.170
-544.281	-200.000	0.017	0.105
-543.266	-192.190	-0.260	-0.003
-542.252	386.120	0.125	0.260
-541.237	-19.744	-0.035	-0.022
-540.223	-125.851	-0.086	0.013
-539.208	-112.731	-0.241	0.048
-538.193	392.058	0.085	-0.178
-537.179	-200.000	-0.004	-0.061
-536.164	-200.000	-0.078	-0.575
-535.150	-85.954	0.215	-0.067
-534.135	-158.616	0.221	0.013
-533.121	24.590	-0.382	-0.319
-532.106	97.217	0.075	-0.086
-531.091	150.688	-0.048	0.066
-530.077	376.276	0.070	0.144
-529.062	282.751	0.097	-0.175
-528.048	800.000	-0.071	-0.264
-527.033	-200.000	0.033	0.271
-526.018	21.535	-0.222	0.182
-525.004	-77.063	-0.323	-0.114
-523.989	524.418	0.172	0.408
-522.975	-75.181	-0.315	-0.113
-521.960	714.813	0.055	0.148
-520.945	800.000	-0.067	-0.245
-519.931	123.493	-0.068	0.086
-518.916	-56.831	-0.214	0.096
-517.902	-45.031	0.200	0.100
-516.887	800.000	0.033	0.138
-515.872	30.898	-0.213	-0.184
-514.858	-30.239	-0.148	0.085
-513.843	-200.000	0.048	-0.355
-512.829	405.575	0.051	-0.109
-511.814	-48.659	0.274	0.133
-510.799	351.283	-0.202	0.402
-509.785	800.000	0.034	-0.152
-508.770	254.724	-0.125	0.216
-507.756	-56.916	-0.155	0.069
-506.741	-10.317	0.091	0.061
-505.726	-109.487	0.206	0.044
-504.712	83.118	-0.123	0.135
-503.697	113.256	0.250	-0.306
-502.683	800.000	0.051	0.163
-501.668	146.870	0.086	0.116
-500.653	11.033	-0.111	0.085
-499.639	-21.606	0.152	-0.093
-498.624	30.511	-0.235	-0.202
-497.610	800.000	-0.040	0.151
-496.595	-200.000	0.012	0.098
-495.581	-148.912	-0.280	-0.023
-494.566	-19.114	-0.109	0.068
-493.551	65.219	-0.217	0.221
-492.537	-17.901	0.058	0.036
-491.522	-126.009	-0.207	-0.031
-490.508	-7.411	0.188	0.128
-489.493	-200.000	0.005	-0.159
-488.478	94.160	-0.196	-0.224
-487.464	495.928	0.089	-0.207
-486.449	-200.000	0.008	0.234
-485.435	153.674	-0.041	-0.056
-484.420	-200.000	0.000	0.123
-483.405	-200.000	0.014	0.112
-482.391	25.056	-0.233	-0.195
-481.376	-147.415	0.378	-0.032
-480.362	222.129	0.113	-0.183
-479.347	585.273	-0.018	-0.046
-478.332	-89.683	0.216	-0.064
-477.318	344.873	0.154	0.304
-476.303	62.208	0.277	-0.278
-475.289	800.000	0.044	-0.123
-474.274	4.615	0.174	-0.129
-473.259	-60.958	-0.134	0.057
-472.245	55.556	-0.218	-0.213
-471.230	-55.480	-0.232	0.104
-470.216	61.211	-0.213	-0.213
-469.201	114.001	0.181	0.221
-468.186	-24.288	0.071	0.043
-467.172	-200.000	-0.034	-0.153
-466.157	-72.912	-0.264	0.098
-465.143	133.368	0.347	0.451
-464.128	-51.016	0.052	0.024
-463.113	-40.465	-0.010	-0.005
-462.099	-103.011	0.104	0.025
-461.084	1.900	0.164	-0.119
-460.070	333.111	0.137	0.267
-459.055	35.399	0.149	0.132
-458.040	-83.683	0.129	-0.041
-457.026	-200.000	0.049	0.308
-456.011	330.007	0.119	0.231
-454.997	-200.000	0.015	0.089
-453.982	325.813	0.127	-0.245
-452.968	142.724	0.015	0.020
-451.953	-200.000	0.038	-0.259
-450.938	-200.000	0.048	0.215
-449.924	-176.390	0.160	0.004
-448.909	124.012	-0.100	0.126
-447.895	-200.000	-0.001	0.248
-446.880	761.134	0.176	-0.480
-445.865	198.286	-0.080	0.123
-444.851	450.498	-0.101	-0.224
-443.836	-15.586	-0.198	0.127
-442.822	300.129	-0.061	-0.114
-441.807	-85.439	-0.235	-0.074
-440.792	46.602	0.105	-0.098
-439.778	-34.745	0.201	-0.110
-438.763	374.056	0.093	0.190
-437.749	-78.162	0.222	0.077
-436.734	37.925	0.199	-0.178
-435.719	-200.000	-0.043	0.195
-434.705	43.889	0.260	-0.239
-433.690	38.055	0.163	-0.145
-432.676	154.230	0.105	-0.144
-431.661	132.066	0.148	0.191
-430.646	-154.556	0.229	0.015
-429.632	438.497	0.143	-0.313
-428.617	1.869	-0.179	0.129
-427.603	120.285	-0.119	0.148
-426.588	100.762	0.243	-0.283
-425.573	712.297	-0.057	0.152
-424.559	-200.000	-0.044	0.339
-423.544	59.894	0.152	0.150
-422.530	-32.789	-0.112	0.062
-421.515	-57.750	-0.181	0.080
-420.500	-108.918	-0.241	0.052
-419.486	-200.000	0.006	0.295
-418.471	124.868	0.153	-0.194
-417.457	281.587	-0.141	-0.254
-416.442	-200.000	-0.016	-0.217
-415.428	-200.000	-0.006	-0.395
-414.413	292.634	0.023	0.041
-413.398	-200.000	0.014	-0.205
-412.384	118.445	0.112	-0.139
-411.369	219.539	-0.120	0.193
-410.355	38.844	-0.103	-0.093
-409.340	-118.588	0.092	0.016
-408.325	493.944	0.032	-0.074
-407.311	75.224	0.116	0.123
-406.296	13.640	0.201	0.156
-405.282	2.651	0.195	-0.142
-404.267	321.886	-0.069	-0.131
-403.252	-49.843	-0.127	-0.060
-402.238	-3.544	-0.071	0.050
-401.223	112.643	0.094	0.114
-400.209	72.715	-0.110	-0.115
-399.194	-20.194	0.122	-0.075
-398.179	-175.183	-0.274	-0.008
-397.165	-12.859	0.241	0.158
-396.150	800.000	-0.017	0.058
-395.136	124.097	0.102	-0.128
-394.121	800.000	-0.026	-0.095
-393.106	-190.329	-0.147	-0.002
-392.092	-140.974	-0.384	0.040
-391.077	267.560	0.036	-0.063
-390.063	20.414	0.147	-0.119
-389.048	800.000	0.077	0.252
-388.033	800.000	0.056	-0.188
-387.019	-57.402	0.222	-0.098
-386.004	-200.000	-0.031	-0.246
-384.990	-167.996	-0.257	-0.010
-383.975	-75.820	-0.077	-0.027
-382.960	-140.314	0.128	0.013
-381.946	-200.000	0.053	0.393
-380.931	148.408	-0.072	-0.097
-379.917	-152.077	-0.153	-0.011
-378.902	-82.899	0.061	-0.020
-377.888	109.130	0.102	-0.122
-376.873	173.916	0.183	-0.265
-375.858	61.104	0.029	-0.029
-374.844	127.415	0.061	-0.078
-373.829	-149.641	-0.130	-0.010
-372.815	-200.000	-0.005	-0.265
-371.800	800.000	0.059	0.222
-370.785	-200.000	-0.035	-0.166
-369.771	79.214	-0.267	-0.287
-368.756	123.346	-0.017	0.021
-367.742	-26.973	-0.088	-0.052
-366.727	461.582	0.102	-0.227
-365.712	-110.654	0.356	0.074
-364.698	-61.546	-0.407	-0.171
-363.683	-175.493	0.056	-0.002
-362.669	-171.452	-0.156	0.005
-361.654	-36.808	-0.363	-0.195
-360.639	-200.000	0.060	0.304
-359.625	-200.000	0.022	0.429
-358.610	-200.000	-0.020	0.119
-357.596	-200.000	0.004	-0.368
-356.581	800.000	0.086	-0.259
-355.566	401.860	0.102	0.214
-354.552	-3.257	0.012	0.008
-353.537	-200.000	-0.041	0.259
-352.523	-200.000	0.027	0.122
-351.508	210.360	-0.046	-0.072
-350.493	219.535	0.191	-0.306
-349.479	-114.746	-0.122	-0.023
-348.464	162.349	0.106	0.148
-347.450	800.000	0.061	-0.202
-346.435	193.370	0.156	-0.236
-345.420	8.494	-0.330	0.248
-344.406	-31.191	0.201	0.113
-343.391	-102.332	-0.345	-0.083
-342.377	-99.871	-0.081	-0.020
-341.362	-78.474	-0.317	-0.109
-340.348	-42.644	0.325	-0.165
-339.333	-200.000	-0.040	-0.245
-338.318	-51.082	-0.065	0.031
-337.304	166.582	0.208	0.295
-336.289	85.933	0.124	0.136
-335.275	-3.295	-0.327	-0.228
-334.260	-119.094	-0.353	0.062
-333.245	-40.465	0.149	-0.077
-332.231	457.958	-0.087	0.193
-331.216	-78.351	0.144	-0.050
-330.202	-98.091	-0.339	0.087
-329.187	79.949	-0.138	0.149
-328.172	-26.899	-0.023	-0.013
-327.158	458.309	0.091	-0.203
-326.143	259.355	-0.048	-0.083
-325.129	184.795	0.098	0.145
-324.114	-112.941	-0.296	-0.059
-323.099	-156.234	-0.378	-0.024
-322.085	147.612	-0.195	-0.263
-321.070	-80.749	-0.174	-0.058
-320.056	-8.304	-0.145	0.097
-319.041	-5.315	0.317	0.218
-318.026	-37.074	-0.101	0.054
-317.012	-200.000	0.017	0.099
-315.997	-50.244	-0.268	0.127
-314.983	-116.967	0.135	0.025
-313.968	22.484	-0.103	-0.084
-312.953	-200.000	0.012	0.152
-311.939	-200.000	0.003	0.039
-310.924	800.000	-0.056	-0.237
-309.910	25.965	0.327	-0.273
-308.895	237.133	-0.174	-0.288
-307.880	289.745	-0.129	0.234
-306.866	-37.926	0.284	-0.151
-305.851	800.000	0.013	-0.054
-304.837	-76.920	-0.206	0.072
-303.822	192.062	0.133	-0.200
-302.807	-18.556	-0.186	0.116
-301.793	275.158	0.100	-0.176
-300.778	-200.000	0.006	0.541
-299.764	61.730	0.191	0.190
-298.749	-200.000	-0.376	-0.001
-297.735	-65.378	0.164	0.066
-296.720	-142.709	0.178	-0.017
-295.705	349.828	0.194	0.383
-294.691	-200.000	0.038	-0.247
-293.676	-157.772	-0.230	0.014
-292.662	163.182	0.121	-0.170
-291.647	800.000	-0.121	0.367
-290.632	150.838	0.194	-0.263
-289.618	-141.496	0.341	-0.034
-288.603	667.461	-0.043	-0.111
-287.589	-55.482	-0.220	0.098
-286.574	111.014	0.103	0.124
-285.559	800.000	0.068	0.242
-284.545	-200.000	-0.015	0.203
-283.530	21.495	-0.436	-0.354
-282.516	-27.606	0.089	0.052
-281.501	800.000	0.009	-0.038
-280.486	284.136	0.086	0.154
-279.472	-89.513	0.139	0.041
-278.457	92.426	0.281	0.317
-277.443	331.970	0.029	0.057
-276.428	602.685	-0.099	0.245
-275.413	150.113	-0.222	0.300
-274.399	337.520	-0.014	0.028
-273.384	-25.517	0.339	-0.200
-272.370	-45.652	-0.130	-0.064
-271.355	800.000	0.046	-0.128
-270.340	-200.000	0.023	-0.214
-269.326	-151.068	-0.030	0.002
-268.311	-189.936	-0.136	-0.002
-267.297	-80.801	-0.238	-0.079
-266.282	800.000	0.098	-0.336
-265.267	328.972	-0.218	-0.419
-264.253	316.160	-0.156	0.294
-263.238	110.964	0.067	0.080
-262.224	42.380	-0.032	-0.029
-261.209	-200.000	0.017	0.145
-260.195	-31.365	0.179	-0.101
-259.180	114.209	0.164	-0.199
-258.165	39.268	0.243	0.217
-257.151	4.568	0.266	-0.195
-256.136	-119.949	-0.214	-0.037
-255.122	-103.510	-0.209	-0.049
-254.107	-60.888	0.093	0.039
-253.092	-7.910	-0.134	0.090
-252.078	131.189	0.312	-0.400
-251.063	-200.000	-0.030	-0.276
-250.049	177.294	-0.105	0.152
-249.034	-200.000	-0.014	0.360
-248.019	-110.238	0.337	0.070
-247.005	99.156	0.164	0.189
-245.990	-65.586	0.133	-0.053
-244.976	-114.559	0.216	-0.041
-243.961	800.000	-0.054	0.186
-242.946	683.716	0.035	0.090
-241.932	157.883	0.133	-0.183
-240.917	6.386	-0.158	0.117
-239.903	475.853	-0.072	-0.163
-238.888	335.919	-0.079	0.152
-237.873	-200.000	-0.029	-0.131
-236.859	-40.094	-0.140	-0.073
-235.844	800.000	0.119	0.370
-234.830	-142.540	0.402	0.039
-233.815	-200.000	0.004	-0.048
-232.800	-86.290	0.343	-0.105
-231.786	429.282	0.068	-0.146
-230.771	-183.750	-0.340	-0.006
-229.757	-15.754	0.159	-0.101
-228.742	-61.596	-0.134	0.056
-227.727	800.000	0.061	-0.266
-226.713	542.218	-0.186	-0.442
-225.698	-33.002	0.295	-0.163
-224.684	93.138	0.157	0.176
-223.669	-200.000	-0.024	-0.109
-222.655	-34.662	0.116	0.063
-221.640	-16.211	-0.053	0.033
-220.625	800.000	-0.080	0.304
-219.611	267.188	-0.061	0.106
-218.596	-115.692	-0.167	0.031
-217.582	-66.015	-0.033	-0.013
-216.567	800.000	0.062	0.201
-215.552	-84.504	-0.333	-0.105
-214.538	-79.635	-0.198	0.067
-213.523	-200.000	-0.024	0.000
-212.509	664.778	0.076	-0.197
-211.494	800.000	0.029	0.119
-210.479	-95.613	0.289	0.077
-209.465	-200.000	0.047	0.210
-208.450	118.375	0.178	0.219
-207.436	-200.000	0.021	-0.108
-206.421	20.297	0.082	0.066
-205.406	-54.908	-0.405	-0.182
-204.392	-200.000	-0.026	0.303
-203.377	-200.000	0.048	-0.290
-202.363	251.666	0.266	0.451
-201.348	-23.768	0.160	-0.095
-200.333	166.992	0.067	-0.094
-199.319	428.850	-0.155	-0.333
-198.304	-200.000	-0.021	-0.128
-197.290	-39.371	-0.147	0.077
-196.275	-31.550	0.347	0.194
-195.260	570.896	-0.044	0.106
-194.246	-200.000	0.006	-0.065
-193.231	800.000	0.088	0.260
-192.217	-200.000	-0.077	0.438
-191.202	2.016	0.246	0.177
-190.187	395.227	-0.019	-0.039
-189.173	-200.000	0.005	-0.074
-188.158	88.412	0.033	0.036
-187.144	187.413	0.043	-0.064
-186.129	307.744	0.107	0.198
-185.114	-75.757	-0.257	0.091
-184.100	172.610	-0.193	-0.276
-183.085	-37.558	-0.232	-0.123
-182.071	382.596	0.058	0.119
-181.056	326.188	0.139	-0.266
-180.042	-53.456	0.270	-0.123
-179.027	-200.000	0.027	0.143
-178.012	481.664	0.039	-0.087
-176.998	-200.000	0.017	0.273
-175.983	134.038	-0.161	-0.207
-174.969	-200.000	0.024	-0.189
-173.954	-69.706	-0.178	0.068
-172.939	388.566	-0.044	-0.090
-171.925	118.674	0.225	-0.276
-170.910	287.148	0.172	-0.309
-169.896	-92.513	-0.102	-0.028
-168.881	-110.069	0.310	0.064
-167.866	7.577	0.296	0.220
-166.852	-184.766	0.221	0.004
-165.837	-21.601	0.192	0.117
-164.823	-200.000	-0.024	0.194
-163.808	146.558	-0.110	0.147
-162.793	-200.000	-0.010	-0.195
-161.779	35.127	-0.314	-0.274
-160.764	-150.371	0.239	-0.018
-159.750	147.276	0.160	-0.214
-158.735	517.709	0.098	-0.228
-157.720	800.000	0.111	-0.369
-156.706	-69.176	0.161	0.061
-155.691	-77.168	-0.066	0.023
-154.677	107.723	-0.072	-0.085
-153.662	-125.404	0.076	0.012
-152.647	61.803	-0.088	-0.087
-151.633	-78.730	0.232	-0.079
-150.618	368.526	0.152	-0.306
-149.604	-1.978	0.114	0.080
-148.589	11.766	0.108	0.082
-147.574	800.000	0.074	-0.299
-146.560	203.411	0.297	-0.456
-145.545	-148.907	0.289	0.023
-144.531	800.000	0.020	-0.083
-143.516	565.802	-0.048	0.116
-142.502	109.500	0.056	0.066
-141.487	3.776	0.405	0.294
-140.472	63.401	0.204	0.203
-139.458	4.089	-0.148	0.108
-138.443	40.509	-0.073	0.065
-137.429	592.782	0.064	0.157
-136.414	-1.105	0.117	0.082
-135.399	303.121	-0.098	0.179
-134.385	800.000	0.077	-0.285
-133.370	-200.000	0.438	-0.002
-132.356	19.280	-0.073	0.058
-131.341	74.574	0.231	0.241
-130.326	259.462	0.117	0.200
-129.312	-183.928	-0.454	0.008
-128.297	-200.000	0.007	0.064
-127.283	-192.321	-0.125	-0.001
-126.268	-77.865	-0.258	0.088
-125.253	61.724	-0.040	-0.040
-124.239	-43.151	-0.056	-0.028
-123.224	45.395	0.100	-0.092
-122.210	245.340	0.041	0.068
-121.195	-200.000	0.008	0.053
-120.180	586.393	-0.091	0.222
-119.166	-71.988	-0.256	0.094
-118.151	135.979	0.070	-0.091
-117.137	34.009	-0.085	0.074
-116.122	15.946	0.235	0.183
-115.107	-102.019	0.304	-0.073
-114.093	-118.220	-0.352	0.062
-113.078	39.068	0.132	-0.117
-112.064	59.085	-0.125	-0.122
-111.049	260.026	-0.198	-0.339
-110.034	325.374	-0.079	-0.150
-109.020	-114.387	-0.031	0.006
-108.005	158.925	0.087	0.120
-106.991	-89.196	-0.085	-0.025
-105.976	441.369	0.133	-0.288
-104.962	-160.115	0.258	-0.014
-103.947	800.000	-0.069	0.242
-102.932	7.364	0.204	0.151
-101.918	800.000	-0.051	-0.141
-100.903	-36.730	0.233	-0.124
-99.889	162.923	0.231	0.322
-98.874	-66.476	0.094	-0.037
-97.859	-96.513	0.397	-0.104
-96.845	-100.582	-0.056	0.014
-95.830	-200.000	-0.017	-0.200
-94.816	-25.098	0.057	-0.033
-93.801	-32.160	-0.225	0.125
-92.786	-128.961	-0.330	0.046
-91.772	800.000	-0.042	0.138
-90.757	-8.948	0.194	0.128
-89.743	400.833	0.022	-0.045
-88.728	433.552	-0.059	-0.128
-87.713	11.553	0.078	0.059
-86.699	274.801	0.147	-0.258
-85.684	-41.064	0.198	-0.101
-84.670	94.809	-0.223	-0.251
-83.655	-200.000	-0.008	0.480
-82.640	-200.000	0.004	0.295
-81.626	-22.378	-0.261	0.156
-80.611	-112.390	0.245	0.049
-79.597	470.007	-0.060	-0.133
-78.582	264.440	-0.054	0.094
-77.567	-4.739	-0.455	0.311
-76.553	800.000	-0.122	0.409
-75.538	-89.776	0.100	-0.029
-74.524	-85.805	0.282	-0.086
-73.509	-166.626	0.156	-0.006
-72.494	-27.810	0.050	0.029
-71.480	800.000	0.048	0.163
-70.465	-129.902	0.259	0.035
-69.451	-153.237	-0.312	0.022
-68.436	-76.172	0.134	0.047
-67.422	-34.947	-0.262	-0.141
-66.407	-72.299	0.090	-0.033
-65.392	255.343	0.088	-0.148
-64.378	-51.308	-0.236	0.109
-63.363	-3.850	0.023	-0.016
-62.349	-63.536	-0.168	-0.068
-61.334	111.629	-0.690	-0.825
-60.319	544.966	0.211	0.499
-59.305	800.000	-0.322	-0.964
-58.290	269.383	0.653	1.135
-57.276	800.000	0.735	2.056
-56.261	-200.000	89.664	504.976
-55.246	524.643	1398.938	3256.590
-54.232	184.390	2615.107	3833.145
-53.217	112.356	2328.941	2787.381
-52.203	44.647	1937.773	1762.867
-51.188	38.784	1724.681	1523.574
-50.173	36.143	1679.286	1463.400
-49.159	51.874	1724.923	1624.474
-48.144	55.548	1742.793	1669.488
-47.130	38.805	1701.145	1502.700
-46.115	35.792	1686.484	1466.757
-45.100	35.667	1681.378	1461.311
-44.086	35.598	1678.921	1458.596
-43.071	35.581	1676.451	1456.260
-42.057	35.522	1673.960	1453.592
-41.042	35.536	1672.655	1452.506
-40.027	35.525	1670.537	1450.530
-39.013	35.527	1668.121	1448.392
-37.998	35.557	1666.838	1447.446
-36.984	35.604	1665.460	1446.545
-35.969	35.659	1664.133	1445.751
-34.954	35.722	1662.691	1444.908
-33.940	35.699	1660.662	1442.917
-32.925	35.695	1659.237	1441.590
-31.911	35.740	1657.450	1440.316
-30.896	35.717	1655.213	1438.143
-29.881	35.692	1653.626	1436.526
-28.867	35.684	1652.132	1435.107
-27.852	35.751	1650.682	1434.294
-26.838	35.704	1649.447	1432.811
-25.823	35.804	1647.907	1432.163
-24.809	35.656	1647.293	1430.468
-23.794	35.709	1645.179	1428.969
-22.779	35.719	1643.708	1427.711
-21.765	35.724	1642.034	1426.234
-20.750	35.713	1640.363	1424.645
-19.736	35.756	1638.854	1423.601
-18.721	35.755	1637.437	1422.306
-17.706	35.759	1635.880	1420.927
-16.692	35.724	1634.214	1419.163
-15.677	35.741	1632.472	1417.722
-14.663	35.611	1631.521	1415.878
-13.648	35.673	1630.425	1415.329
-12.633	35.750	1628.656	1414.302
-11.619	35.733	1627.276	1412.925
-10.604	35.818	1624.786	1411.332
-9.590	35.815	1623.900	1410.485
-8.575	35.775	1622.761	1409.146
-7.560	35.724	1621.531	1407.649
-6.546	35.726	1620.294	1406.531
-5.531	35.714	1619.251	1405.484
-4.517	35.678	1618.281	1404.325
-3.502	35.738	1616.895	1403.504
-2.487	35.761	1615.896	1402.746
-1.473	36.029	1605.764	1395.838
-0.458	34.484	1587.890	1369.166
0.556	33.281	1588.233	1336.314
1.571	29.896	1611.074	1331.115
2.586	28.271	1622.496	1328.655
3.600	24.212	1566.376	1254.079
4.615	14.532	1453.127	1099.791
5.629	6.382	1385.299	996.943
6.644	4.880	1376.307	980.932
7.659	4.669	1375.463	978.916
8.673	4.791	1373.805	978.412
9.688	4.850	1372.748	977.946
10.702	4.753	1370.123	975.383
11.717	8.417	1377.574	1003.653
12.731	16.904	1392.996	1068.501
13.746	22.183	1401.084	1107.977
14.761	22.394	1400.120	1108.442
15.775	21.519	1397.673	1100.909
16.790	20.430	1395.328	1092.117
17.804	19.697	1392.931	1085.547
18.819	19.339	1391.308	1081.938
19.834	19.165	1390.242	1079.923
20.848	19.045	1388.903	1078.033
21.863	18.859	1387.843	1075.951
22.877	18.797	1386.581	1074.487
23.892	18.651	1386.102	1073.112
24.907	18.637	1385.417	1072.401
25.921	18.608	1384.479	1071.395
26.936	18.585	1383.215	1070.178
27.950	18.740	1382.331	1070.367
28.965	18.823	1381.246	1069.950
29.980	18.852	1380.608	1069.542
30.994	19.038	1378.738	1069.156
32.009	18.964	1378.050	1068.063
33.023	19.106	1376.110	1067.349
34.038	18.963	1375.132	1065.606
35.053	18.725	1374.290	1063.387
36.067	18.768	1372.944	1062.518
37.082	18.858	1371.936	1062.199
38.096	18.960	1370.937	1061.965
39.111	18.935	1369.858	1060.880
40.126	18.736	1368.930	1058.841
41.140	18.616	1368.401	1057.597
42.155	18.452	1367.565	1055.850
43.169	18.390	1367.668	1055.450
44.184	18.503	1367.015	1055.550
45.199	18.442	1366.827	1054.937
46.213	18.534	1366.496	1055.152
47.228	18.663	1365.822	1055.333
48.242	18.794	1364.411	1054.954
49.257	18.833	1362.571	1053.676
50.271	18.847	1361.079	1052.515
51.286	18.739	1360.048	1050.962
52.301	18.706	1358.934	1049.808
53.315	18.697	1357.078	1048.227
54.330	18.499	1356.194	1046.245
55.344	18.461	1355.314	1045.237
56.359	18.555	1353.975	1044.686
57.374	18.485	1353.238	1043.602
58.388	18.322	1352.704	1042.102
59.403	18.279	1352.130	1041.310
60.417	18.303	1351.227	1040.665
61.432	18.365	1349.632	1039.724
62.447	18.226	1349.166	1038.426
63.461	18.132	1347.961	1036.841
64.476	18.102	1346.884	1035.739
65.490	18.193	1345.462	1035.099
66.505	18.275	1343.885	1034.293
67.520	18.258	1342.748	1033.225
68.534	18.211	1342.027	1032.294
69.549	18.215	1341.155	1031.556
70.563	18.127	1339.683	1029.800
71.578	18.085	1338.740	1028.735
72.593	17.940	1338.179	1027.338
73.607	17.992	1337.314	1026.897
74.622	17.975	1336.626	1026.178
75.636	17.955	1336.052	1025.525
76.651	17.998	1335.388	1025.183
77.666	18.089	1334.725	1025.125
78.680	18.205	1334.340	1025.440
79.695	18.234	1333.975	1025.241
80.709	18.233	1332.931	1024.341
81.724	18.514	1331.929	1025.158
82.739	18.441	1331.813	1024.541
83.753	18.570	1330.737	1024.394
84.768	18.713	1329.801	1024.438
85.782	18.882	1328.275	1024.178
86.797	18.870	1327.239	1023.220
87.812	18.759	1326.349	1021.782
88.826	18.704	1325.129	1020.421
89.841	18.849	1324.103	1020.402
90.855	18.895	1322.877	1019.642
91.870	18.830	1322.665	1019.002
92.884	18.836	1321.642	1018.161
93.899	18.919	1320.757	1017.878
94.914	18.962	1319.737	1017.256
95.928	18.859	1319.499	1016.377
96.943	18.824	1318.726	1015.482
97.957	18.901	1317.290	1014.740
98.972	18.915	1316.031	1013.765
99.987	18.872	1314.859	1012.519
101.001	18.872	1313.789	1011.607
102.016	18.771	1313.546	1010.738
103.030	18.877	1312.213	1010.240
104.045	18.823	1311.401	1009.213
105.060	18.632	1310.333	1007.178
106.074	18.419	1308.524	1004.452
107.089	18.269	1307.098	1002.387
108.103	18.095	1306.121	1000.530
109.118	18.141	1304.841	999.732
110.133	18.311	1303.164	999.354
111.147	18.207	1302.169	997.891
112.162	18.199	1300.327	996.350
113.176	18.283	1299.662	996.239
114.191	18.300	1298.973	995.721
115.206	18.380	1297.620	995.062
116.220	18.386	1296.086	993.830
117.235	18.349	1295.357	992.972
118.249	18.285	1294.075	991.527
119.264	18.243	1292.690	990.138
120.279	18.216	1291.481	988.967
121.293	18.109	1290.838	987.767
122.308	18.005	1289.725	986.229
123.322	18.022	1288.627	985.400
124.337	17.994	1287.807	984.524
125.352	18.034	1286.387	983.584
126.366	18.025	1285.385	982.679
127.381	18.053	1284.259	981.890
128.395	18.053	1283.490	981.216
129.410	18.054	1282.242	980.181
130.424	18.335	1281.350	981.023
131.439	18.285	1281.127	980.477
132.454	18.367	1279.916	979.933
133.468	18.229	1279.823	978.986
134.483	18.328	1278.872	978.737
135.497	18.430	1277.704	978.340
136.512	18.367	1276.491	976.964
137.527	18.408	1275.176	976.106
138.541	18.517	1273.305	975.210
139.556	18.578	1272.179	974.603
140.570	18.559	1272.073	974.329
141.585	18.631	1270.768	973.654
142.600	18.809	1269.433	973.551
143.614	18.880	1268.865	973.436
144.629	18.816	1268.011	972.331
145.643	18.855	1266.226	971.098
146.658	18.704	1264.691	968.982
147.673	18.689	1263.584	967.962
148.687	18.522	1262.506	966.111
149.702	18.384	1261.029	964.115
150.716	18.452	1259.597	963.320
151.731	18.453	1258.446	962.360
152.746	18.482	1257.220	961.500
153.760	18.473	1256.296	960.656
154.775	18.601	1255.172	960.429
155.789	18.724	1254.312	960.374
156.804	18.683	1253.322	959.303
157.819	18.664	1252.895	958.787
158.833	18.886	1251.593	958.943
159.848	18.929	1250.828	958.509
160.862	18.870	1249.601	957.157
161.877	18.589	1248.454	954.632
162.892	18.480	1246.843	952.710
163.906	18.379	1246.248	951.611
164.921	18.486	1245.414	951.482
165.935	18.618	1244.128	951.148
166.950	18.568	1244.255	950.882
167.964	18.572	1243.273	950.070
168.979	18.665	1242.341	949.790
169.994	18.587	1241.599	948.704
171.008	18.652	1240.836	948.397
172.023	18.701	1240.335	948.203
173.037	18.910	1239.422	948.572
174.052	18.852	1238.467	947.440
175.067	18.566	1237.250	944.846
176.081	18.427	1236.238	943.229
177.096	18.482	1235.643	942.990
178.110	18.606	1234.183	942.478
179.125	18.587	1233.324	941.629
180.140	18.765	1231.532	941.155
181.154	18.803	1230.722	940.660
182.169	18.800	1230.077	940.069
183.183	18.901	1229.126	939.809
184.198	19.041	1227.388	939.162
185.213	18.971	1226.438	937.970
186.227	19.020	1225.178	937.193
187.242	19.071	1224.580	936.931
188.256	19.084	1223.381	936.002
189.271	19.131	1222.631	935.597
190.286	18.748	1221.659	932.691
191.300	18.566	1220.060	930.402
192.315	18.444	1219.432	929.180
193.329	18.478	1218.832	928.824
194.344	18.600	1218.096	928.844
195.359	18.578	1217.663	928.310
196.373	18.713	1217.631	928.932
197.388	18.779	1217.532	929.133
198.402	19.018	1217.315	930.179
199.417	19.168	1216.505	930.286
200.432	19.320	1215.890	930.557
201.446	19.287	1214.748	929.420
202.461	19.397	1214.032	929.382
203.475	19.292	1212.807	927.801
204.490	19.241	1211.572	926.497
205.504	19.019	1210.405	924.331
206.519	19.034	1208.903	923.180
207.534	19.066	1207.825	922.446
208.548	19.003	1206.940	921.352
209.563	19.050	1206.092	920.878
210.577	19.110	1204.854	920.171
211.592	19.187	1204.231	920.026
212.607	19.293	1203.634	920.053
213.621	19.219	1203.101	919.168
214.636	19.330	1201.693	918.604
215.650	19.223	1201.027	917.444
216.665	19.340	1200.153	917.319
217.680	19.482	1199.541	917.522
218.694	19.405	1198.897	916.539
219.709	19.461	1197.813	915.926
220.723	19.511	1196.707	915.268
221.738	19.423	1196.230	914.353
222.753	19.460	1195.358	913.803
223.767	19.377	1194.895	912.927
224.782	19.617	1193.929	913.377
225.796	19.567	1193.509	912.711
226.811	19.486	1193.525	912.217
227.826	19.394	1192.392	910.785
228.840	19.255	1191.620	909.377
229.855	19.375	1190.513	909.088
230.869	19.460	1189.707	908.837
231.884	19.380	1188.491	907.409
232.899	19.319	1187.635	906.352
233.913	19.183	1187.333	905.330
234.928	19.184	1186.337	904.492
235.942	19.093	1185.757	903.493
236.957	19.097	1185.007	902.865
237.972	19.230	1184.272	902.921
238.986	19.152	1183.581	901.907
240.001	19.157	1183.244	901.597
241.015	19.241	1181.874	900.912
242.030	19.330	1181.156	900.751
243.045	19.556	1179.873	900.868
244.059	19.448	1179.429	899.890
245.074	19.457	1178.905	899.455
246.088	19.520	1178.119	899.105
247.103	19.656	1177.399	899.182
248.117	19.599	1176.802	898.352
249.132	19.895	1176.414	899.512
250.147	20.010	1175.808	899.568
251.161	20.142	1175.377	899.843
252.176	20.240	1174.797	899.829
253.190	20.192	1174.010	898.896
254.205	20.315	1173.401	898.992
255.220	20.295	1172.894	898.418
256.234	20.354	1171.827	897.824
257.249	20.255	1171.501	896.985
258.263	20.246	1170.692	896.239
259.278	20.240	1170.224	895.770
260.293	20.184	1169.397	894.772
261.307	20.332	1169.241	895.334
262.322	20.353	1168.277	894.624
263.336	20.441	1167.456	894.372
264.351	20.395	1167.054	893.744
265.366	20.451	1166.181	893.288
266.380	20.414	1165.388	892.409
267.395	20.384	1164.498	891.494
268.409	20.179	1163.973	889.962
269.424	20.234	1162.991	889.416
270.439	20.258	1162.541	889.117
271.453	20.208	1161.463	887.957
272.468	20.139	1160.696	886.939
273.482	19.962	1160.221	885.591
274.497	20.060	1159.460	885.433
275.512	20.137	1159.011	885.404
276.526	20.215	1158.228	885.125
277.541	20.083	1157.406	883.750
278.555	20.246	1156.700	883.962
279.570	20.453	1155.560	884.063
280.585	20.544	1155.135	884.127
281.599	20.477	1154.430	883.166
282.614	20.329	1153.265	881.444
283.628	20.349	1152.047	880.538
284.643	20.172	1151.062	878.810
285.657	20.192	1150.585	878.470
286.672	20.429	1149.203	878.535
287.687	20.247	1148.350	876.884
288.701	20.423	1147.725	877.221
289.716	20.362	1146.858	876.171
290.730	20.446	1145.999	875.862
291.745	20.436	1145.474	875.330
292.760	20.490	1144.954	875.130
293.774	20.501	1144.355	874.653
294.789	20.607	1144.072	874.887
295.803	20.592	1143.174	874.048
296.818	20.412	1142.212	872.335
297.833	20.362	1141.290	871.302
298.847	20.450	1140.498	871.058
299.862	20.391	1140.315	870.550
300.876	20.433	1139.728	870.233
301.891	20.620	1139.034	870.565
302.906	20.658	1138.159	870.008
303.920	20.776	1137.780	870.231
304.935	20.842	1137.123	869.978
305.949	21.025	1136.097	870.030
306.964	20.930	1135.815	869.265
307.979	20.748	1134.737	867.455
308.993	20.724	1133.900	866.619
310.008	20.930	1133.359	867.156
311.022	20.846	1132.543	866.033
312.037	20.837	1131.906	865.426
313.052	20.781	1130.804	864.231
314.066	20.646	1129.672	862.620
315.081	20.587	1128.520	861.372
316.095	20.526	1128.340	860.854
317.110	20.511	1127.485	860.051
318.125	20.510	1126.595	859.291
319.139	20.602	1125.871	859.121
320.154	20.613	1124.899	858.354
321.168	20.535	1124.667	857.719
322.183	20.577	1124.271	857.544
323.197	20.693	1123.331	857.327
324.212	20.753	1123.102	857.369
325.227	20.635	1122.521	856.269
326.241	20.600	1121.892	855.543
327.256	20.616	1121.061	854.914
328.270	20.695	1119.519	854.048
329.285	20.584	1118.934	852.979
330.300	20.615	1117.844	852.225
331.314	20.708	1117.125	852.057
332.329	20.615	1116.283	850.888
333.343	20.695	1115.766	850.808
334.358	20.820	1114.575	850.434
335.373	20.878	1114.190	850.348
336.387	20.936	1113.189	849.792
337.402	20.928	1112.428	849.095
338.416	20.919	1112.062	848.698
339.431	20.945	1111.256	848.136
340.446	21.171	1110.703	848.737
341.460	21.269	1110.418	848.920
342.475	21.305	1109.600	848.397
343.489	21.428	1108.413	848.009
344.504	21.485	1107.270	847.337
345.519	21.312	1106.983	846.204
346.533	21.487	1105.720	846.011
347.548	21.585	1105.345	846.122
348.562	21.549	1104.476	845.207
349.577	21.242	1103.545	842.940
350.592	21.163	1102.458	841.653
351.606	21.037	1101.513	840.249
352.621	21.032	1101.235	839.940
353.635	20.913	1100.613	838.818
354.650	21.050	1099.513	838.565
355.665	21.143	1098.704	838.319
356.679	21.080	1098.477	837.768
357.694	21.175	1097.812	837.644
358.708	21.267	1097.286	837.611
359.723	21.340	1096.410	837.217
360.738	21.242	1096.144	836.470
361.752	21.256	1095.443	835.927
362.767	21.334	1094.746	835.695
363.781	21.301	1094.544	835.309
364.796	21.551	1093.572	835.687
365.810	21.569	1093.423	835.584
366.825	21.671	1092.712	835.457
367.840	21.732	1092.504	835.512
368.854	21.855	1091.687	835.399
369.869	21.799	1091.044	834.568
370.883	21.742	1090.006	833.429
371.898	21.560	1089.033	831.744
372.913	21.534	1088.689	831.284
373.927	21.598	1088.365	831.270
374.942	21.800	1087.689	831.636
375.956	21.763	1087.032	830.888
376.971	21.669	1086.224	829.751
377.986	21.788	1085.856	829.957
379.000	21.943	1085.378	830.256
380.015	21.922	1085.044	829.825
381.029	22.055	1084.130	829.682
382.044	21.916	1083.839	828.728
383.059	21.820	1083.003	827.561
384.073	21.992	1081.982	827.521
385.088	21.975	1081.290	826.835
386.102	22.000	1079.925	825.841
387.117	21.770	1079.078	824.036
388.132	21.732	1077.865	822.859
389.146	21.754	1077.206	822.385
390.161	21.734	1076.108	821.383
391.175	21.657	1075.759	820.683
392.190	21.768	1075.321	820.793
393.205	21.981	1074.348	820.975
394.219	21.921	1073.822	820.223
395.234	21.780	1072.506	818.487
396.248	21.776	1071.616	817.713
397.263	21.800	1070.406	816.829
398.278	21.648	1069.870	815.640
399.292	21.730	1069.122	815.380
400.307	21.563	1068.730	814.233
401.321	21.549	1068.094	813.612
402.336	21.596	1067.136	813.030
403.350	21.590	1066.439	812.398
404.365	21.677	1065.717	812.177
405.380	21.756	1065.234	812.103
406.394	21.817	1064.337	811.633
407.409	21.916	1063.890	811.676
408.423	22.090	1063.316	811.970
409.438	22.091	1062.571	811.334
410.453	22.166	1061.879	811.082
411.467	22.239	1061.352	810.944
412.482	22.358	1060.506	810.772
413.496	22.363	1059.820	810.202
414.511	22.325	1059.572	809.765
415.526	22.426	1059.313	809.961
416.540	22.463	1059.157	809.938
417.555	22.591	1058.232	809.747
418.569	22.428	1057.502	808.369
419.584	22.326	1057.020	807.461
420.599	22.359	1056.380	807.050
421.613	152.237	1400.161	1785.989
422.628	139.847	1450.251	1786.104
