DTS Sentinel unit serial number:	SN413079Multiplexer serial number:	ORYXHardware model number:	OX4-SRSoftware version number:	ORYX F/W v4.00 Oryx Data Collector v3.7.2.0data status	okinstallation	princeton_trtdifferential loss correction	single-endedforward channel	channel 2reverse channel	N/Adate	2019/09/13time	23:43:35forward acquisition time	60.00reverse acquisition time	0.00gamma	496.2192k internal	0.2338k external	0.2338temperature offset calibration	1.0127default loss term (dB/km)	0.3790temperature slope calibration	1.0000multiplexer offset coefficient	1.0000multiplexer slope coefficient	1.0000fibre end	0.00T internal ref (°C)	26.69T ext. ref 1 (°C)	3.17T ext. ref 2 (°C)	20.97length (m)	temperature (°C)	Stokes	anti-Stokes-747.200	-168.787	-0.107	-0.004
-746.185	149.545	-0.255	0.346
-745.171	-95.738	0.102	-0.027
-744.156	-153.690	0.189	-0.013
-743.142	88.600	0.197	-0.220
-742.127	-70.026	-0.185	-0.071
-741.112	44.126	0.185	0.170
-740.098	-163.733	0.173	0.008
-739.083	113.631	-0.049	-0.059
-738.069	-200.000	-0.005	0.324
-737.054	-182.607	-0.208	0.004
-736.039	-56.267	-0.045	-0.020
-735.025	-101.012	0.175	0.043
-734.010	-140.653	-0.054	-0.006
-732.996	-18.903	-0.249	-0.155
-731.981	-125.636	-0.185	0.028
-730.966	87.649	-0.294	-0.327
-729.952	800.000	-0.049	-0.188
-728.937	-47.310	-0.063	-0.031
-727.923	-62.132	-0.272	0.114
-726.908	36.412	0.240	-0.212
-725.894	131.370	-0.181	0.233
-724.879	146.996	-0.166	-0.224
-723.864	-132.904	0.253	0.032
-722.850	-4.818	0.196	0.135
-721.835	-200.000	-0.051	-0.384
-720.821	-96.547	0.273	-0.072
-719.806	185.840	-0.120	-0.178
-718.791	-200.000	-0.010	-0.257
-717.777	301.166	0.221	-0.409
-716.762	161.169	0.058	0.082
-715.748	-172.139	-0.180	0.006
-714.733	-200.000	-0.044	-0.198
-713.718	-56.795	-0.300	0.133
-712.704	549.040	0.032	0.076
-711.689	-200.000	-0.028	-0.274
-710.675	-174.678	-0.529	-0.015
-709.660	-100.284	-0.205	-0.051
-708.645	-81.798	0.339	-0.111
-707.631	800.000	-0.009	0.032
-706.616	67.348	-0.124	-0.127
-705.602	-136.565	0.260	-0.030
-704.587	115.124	0.375	-0.459
-703.572	-11.760	0.089	0.058
-702.558	27.902	-0.201	0.170
-701.543	359.326	0.129	-0.258
-700.529	-200.000	0.035	-0.404
-699.514	-200.000	0.011	0.277
-698.499	800.000	0.078	-0.253
-697.485	-81.872	-0.239	-0.078
-696.470	-125.051	-0.144	0.022
-695.456	135.317	0.263	-0.342
-694.441	279.253	-0.039	0.069
-693.426	80.487	0.182	0.196
-692.412	-200.000	0.014	-0.298
-691.397	32.032	-0.151	-0.130
-690.383	-66.873	0.157	0.062
-689.368	-71.919	-0.135	-0.050
-688.354	353.635	0.197	-0.392
-687.339	-53.891	0.032	0.014
-686.324	17.816	0.208	-0.166
-685.310	-123.381	-0.300	0.048
-684.295	-123.636	0.264	-0.042
-683.281	-2.768	0.304	-0.213
-682.266	-200.000	0.019	-0.300
-681.251	560.098	0.082	0.197
-680.237	325.527	0.091	-0.174
-679.222	106.890	-0.216	-0.256
-678.208	-159.055	-0.366	0.021
-677.193	237.025	-0.107	-0.177
-676.178	182.622	-0.086	0.127
-675.164	-39.422	-0.167	-0.088
-674.149	800.000	-0.146	-0.513
-673.135	-69.645	0.363	-0.139
-672.120	523.603	0.210	0.493
-671.105	27.036	0.166	0.139
-670.091	10.194	0.220	-0.168
-669.076	12.719	0.224	-0.173
-668.062	-34.801	-0.202	0.110
-667.047	-28.561	0.119	-0.068
-666.032	-182.855	0.250	-0.005
-665.018	-127.418	-0.215	-0.031
-664.003	-129.205	-0.263	-0.037
-662.989	-164.158	0.283	0.013
-661.974	-200.000	0.347	0.001
-660.959	-73.954	0.085	-0.031
-659.945	-1.619	0.301	-0.212
-658.930	-68.913	-0.279	0.108
-657.916	176.938	-0.138	0.201
-656.901	98.685	0.120	-0.138
-655.886	42.543	0.211	-0.192
-654.872	-156.004	0.244	0.015
-653.857	-104.419	-0.244	0.056
-652.843	-68.280	-0.180	0.070
-651.828	121.277	0.081	0.101
-650.814	80.863	0.167	0.180
-649.799	-132.336	0.113	-0.015
-648.784	100.374	-0.142	0.165
-647.770	-5.549	-0.097	-0.067
-646.755	-200.000	0.054	-0.243
-645.741	194.327	0.023	-0.035
-644.726	-200.000	-0.002	-0.110
-643.711	-21.596	0.142	-0.086
-642.697	-122.521	-0.217	0.035
-641.682	-63.967	-0.208	-0.085
-640.668	224.354	-0.151	0.244
-639.653	800.000	0.055	-0.215
-638.638	-200.000	0.042	-0.299
-637.624	607.449	-0.055	-0.138
-636.609	-44.102	-0.114	-0.057
-635.595	101.581	0.258	0.301
-634.580	20.905	-0.264	-0.214
-633.565	231.307	-0.129	0.211
-632.551	331.389	0.170	-0.328
-631.536	253.457	-0.108	-0.184
-630.522	200.002	0.091	0.139
-629.507	-94.093	-0.140	0.038
-628.492	-200.000	-0.050	0.348
-627.478	-151.937	-0.087	0.006
-626.463	620.636	0.103	0.260
-625.449	800.000	-0.014	-0.040
-624.434	-153.524	-0.067	0.005
-623.419	-90.576	-0.110	0.032
-622.405	60.567	-0.046	-0.046
-621.390	615.289	-0.094	0.235
-620.376	-92.754	0.174	-0.049
-619.361	-200.000	-0.028	0.297
-618.346	-87.977	0.125	-0.037
-617.332	-42.117	-0.180	-0.092
-616.317	181.979	0.151	0.221
-615.303	3.384	0.256	0.186
-614.288	311.440	0.112	-0.209
-613.273	-108.267	0.101	-0.022
-612.259	-163.536	-0.188	-0.009
-611.244	467.933	-0.070	0.156
-610.230	-105.611	0.202	0.046
-609.215	-164.511	0.174	-0.008
-608.201	39.238	-0.069	-0.061
-607.186	-108.012	-0.287	-0.062
-606.171	-200.000	-0.058	-0.370
-605.157	258.888	0.069	0.119
-604.142	800.000	0.055	0.223
-603.128	-200.000	-0.021	-0.534
-602.113	-63.942	0.169	-0.069
-601.098	77.878	0.167	0.177
-600.084	142.072	0.131	0.174
-599.069	-25.586	-0.186	0.110
-598.055	-117.930	0.149	0.027
-597.040	-64.185	-0.326	-0.133
-596.025	-200.000	-0.003	0.022
-595.011	-0.996	-0.129	-0.091
-593.996	47.772	-0.134	0.125
-592.982	-23.802	0.133	0.080
-591.967	9.016	-0.140	0.106
-590.952	-140.826	0.072	0.007
-589.938	-200.000	0.036	-0.179
-588.923	-71.294	-0.157	-0.059
-587.909	-200.000	-0.055	-0.293
-586.894	-93.980	0.272	0.074
-585.879	-84.401	-0.269	0.085
-584.865	364.808	-0.067	0.134
-583.850	-28.226	-0.289	0.167
-582.836	-200.000	-0.003	0.156
-581.821	-125.081	0.325	0.050
-580.806	-200.000	0.032	-0.174
-579.792	-35.282	-0.131	0.071
-578.777	79.664	-0.082	0.088
-577.763	2.914	0.413	0.299
-576.748	28.720	-0.225	0.190
-575.733	-200.000	0.096	0.428
-574.719	699.577	-0.022	0.057
-573.704	365.912	0.060	0.120
-572.690	-94.558	-0.425	-0.115
-571.675	6.574	-0.209	-0.155
-570.661	-111.464	0.235	0.048
-569.646	297.263	0.094	0.173
-568.631	74.027	0.237	-0.248
-567.617	621.065	-0.144	-0.361
-566.602	227.018	-0.072	-0.117
-565.588	-157.467	0.429	-0.026
-564.573	-64.625	0.240	-0.097
-563.558	307.493	-0.116	-0.216
-562.544	161.613	-0.137	-0.190
-561.529	89.591	-0.210	0.233
-560.515	118.598	0.054	-0.067
-559.500	-140.743	0.127	-0.013
-558.485	-184.522	0.150	-0.002
-557.471	-181.561	-0.337	-0.007
-556.456	-13.451	0.232	-0.150
-555.442	-69.271	0.423	0.162
-554.427	-99.027	-0.104	0.026
-553.412	-6.213	0.195	0.132
-552.398	-200.000	0.000	0.002
-551.383	800.000	0.070	0.278
-550.369	-200.000	0.025	0.295
-549.354	-129.309	0.198	0.027
-548.339	-122.650	-0.120	0.019
-547.325	521.120	0.172	-0.402
-546.310	-200.000	0.010	-0.448
-545.296	-200.000	0.007	0.201
-544.281	-80.262	-0.106	0.035
-543.266	56.856	-0.222	0.216
-542.252	201.890	0.157	-0.242
-541.237	-65.302	-0.127	-0.051
-540.223	139.183	-0.053	0.069
-539.208	416.764	0.059	0.126
-538.193	-200.000	0.049	-0.268
-537.179	137.620	0.118	-0.153
-536.164	33.974	-0.111	0.097
-535.150	542.223	-0.135	0.321
-534.135	800.000	-0.054	0.231
-533.121	52.577	-0.169	0.160
-532.106	-84.824	0.155	0.048
-531.091	-64.298	-0.262	0.106
-530.077	402.280	0.073	-0.152
-529.062	-174.204	-0.123	0.004
-528.048	-96.066	0.154	0.041
-527.033	97.483	-0.188	0.215
-526.018	-62.889	0.204	0.084
-525.004	-200.000	0.009	-0.128
-523.989	-144.255	0.355	0.033
-522.975	-12.820	-0.092	-0.060
-521.960	-7.490	0.336	-0.226
-520.945	-75.315	-0.287	0.102
-519.931	800.000	0.113	0.386
-518.916	-174.476	-0.234	0.007
-517.902	-27.057	-0.295	0.171
-516.887	175.167	-0.029	-0.042
-515.872	-20.998	0.303	0.185
-514.858	800.000	-0.019	-0.067
-513.843	-90.161	0.258	0.075
-512.829	159.958	0.202	0.280
-511.814	-30.838	0.160	0.090
-510.799	-67.212	-0.069	-0.027
-509.785	-155.984	0.161	-0.010
-508.770	214.759	0.251	-0.396
-507.756	-200.000	0.044	-0.415
-506.741	800.000	0.037	0.136
-505.726	800.000	0.072	0.242
-504.712	-86.721	-0.220	-0.067
-503.697	800.000	-0.100	-0.367
-502.683	800.000	0.126	0.412
-501.668	-200.000	0.031	0.204
-500.653	0.725	-0.097	0.069
-499.639	157.465	-0.079	0.108
-498.624	59.282	-0.150	-0.146
-497.610	-200.000	0.050	-0.266
-496.595	-135.447	-0.253	0.030
-495.581	-119.711	0.226	0.039
-494.566	-166.595	-0.248	0.010
-493.551	-26.639	-0.100	0.058
-492.537	50.905	-0.077	0.072
-491.522	800.000	0.017	0.060
-490.508	74.197	-0.116	0.121
-489.493	130.052	0.099	0.125
-488.478	212.295	0.097	-0.152
-487.464	-128.412	-0.313	-0.044
-486.449	172.022	0.164	-0.233
-485.435	-200.000	0.000	-0.111
-484.420	32.133	-0.061	0.053
-483.405	-161.974	-0.286	0.014
-482.391	622.548	-0.143	0.357
-481.376	-57.233	0.203	-0.089
-480.362	-37.522	-0.119	-0.063
-479.347	-50.496	0.340	0.159
-478.332	730.967	0.107	0.285
-477.318	365.826	-0.103	-0.206
-476.303	642.941	-0.051	-0.128
-475.289	108.955	0.106	0.126
-474.274	-200.000	0.008	0.198
-473.259	113.231	0.138	0.167
-472.245	-124.191	-0.200	0.031
-471.230	47.482	-0.248	-0.229
-470.216	-200.000	0.012	-0.197
-469.201	-169.915	-0.189	-0.007
-468.186	-132.696	-0.260	-0.033
-467.172	-145.237	0.232	-0.021
-466.157	86.663	0.138	-0.151
-465.143	0.451	0.217	0.154
-464.128	-44.793	0.384	0.190
-463.113	66.957	0.191	-0.193
-462.099	-200.000	0.028	0.156
-461.084	-109.846	-0.473	-0.098
-460.070	-200.000	0.053	-0.293
-459.055	-200.000	0.010	-0.190
-458.040	800.000	0.136	-0.508
-457.026	-69.141	0.167	-0.064
-456.011	277.934	-0.165	-0.292
-454.997	42.191	0.163	0.147
-453.982	72.269	-0.087	-0.090
-452.968	-200.000	0.022	-0.183
-451.953	-200.000	0.015	0.184
-450.938	-104.746	-0.097	0.022
-449.924	257.273	0.201	0.343
-448.909	251.473	0.132	-0.223
-447.895	127.864	-0.023	0.029
-446.880	327.828	-0.107	-0.204
-445.865	400.680	0.098	-0.205
-444.851	-44.083	0.186	0.093
-443.836	-200.000	-0.000	-0.229
-442.822	800.000	-0.103	-0.363
-441.807	587.533	-0.027	-0.067
-440.792	-109.210	-0.174	-0.037
-439.778	-2.401	0.156	-0.109
-438.763	389.717	0.162	0.333
-437.749	-200.000	-0.010	-0.087
-436.734	-37.895	0.146	0.077
-435.719	68.213	0.148	-0.151
-434.705	-200.000	-0.003	0.186
-433.690	800.000	0.049	0.158
-432.676	-200.000	0.033	0.275
-431.661	20.037	0.257	-0.205
-430.646	-200.000	0.047	0.235
-429.632	-200.000	0.022	-0.123
-428.617	-159.015	0.231	-0.013
-427.603	34.898	0.299	0.260
-426.588	-5.609	-0.290	-0.197
-425.573	-69.749	0.381	-0.144
-424.559	-200.000	0.004	-0.021
-423.544	-98.742	-0.218	0.055
-422.530	-166.386	0.113	0.005
-421.515	141.295	-0.206	-0.271
-420.500	-200.000	0.106	-0.500
-419.486	-150.937	-0.202	0.015
-418.471	-200.000	0.031	-0.197
-417.457	28.275	0.121	0.101
-416.442	234.555	-0.008	-0.013
-415.428	126.265	-0.086	-0.108
-414.413	-200.000	-0.081	0.407
-413.398	248.758	-0.036	0.060
-412.384	87.577	0.063	-0.069
-411.369	-31.358	-0.131	-0.073
-410.355	-144.013	0.230	-0.021
-409.340	-200.000	-0.072	0.571
-408.325	92.282	0.136	-0.151
-407.311	800.000	0.052	0.149
-406.296	49.362	0.238	0.221
-405.282	451.020	0.056	0.123
-404.267	-88.330	0.055	-0.016
-403.252	328.484	-0.102	-0.194
-402.238	-82.420	-0.122	0.039
-401.223	-51.933	0.132	0.061
-400.209	-55.797	-0.142	-0.063
-399.194	134.940	-0.107	0.138
-398.179	-151.036	-0.291	-0.022
-397.165	-200.000	-0.022	-0.300
-396.150	-158.732	-0.150	-0.009
-395.136	-72.686	0.243	-0.089
-394.121	-200.000	0.029	-0.223
-393.106	-123.509	-0.093	0.015
-392.092	105.249	0.201	0.235
-391.077	41.742	-0.088	-0.079
-390.063	276.523	-0.118	0.208
-389.048	267.588	0.212	0.367
-388.033	-106.278	-0.069	-0.015
-387.019	527.917	-0.099	-0.232
-386.004	-200.000	0.006	-0.052
-384.990	87.516	-0.230	-0.252
-383.975	800.000	-0.101	0.296
-382.960	-106.198	-0.266	0.059
-381.946	11.434	0.059	0.044
-380.931	-149.919	-0.257	0.020
-379.917	-94.896	0.361	-0.097
-378.902	-61.520	0.151	0.063
-377.888	-160.253	-0.165	-0.009
-376.873	800.000	-0.039	-0.163
-375.858	-51.111	-0.193	0.090
-374.844	108.666	0.187	-0.221
-373.829	347.844	-0.151	-0.295
-372.815	-200.000	0.005	0.189
-371.800	174.982	-0.138	-0.197
-370.785	800.000	0.091	-0.264
-369.771	32.900	-0.427	0.365
-368.756	-200.000	0.050	0.253
-367.742	-58.298	-0.196	-0.084
-366.727	-2.918	0.208	-0.143
-365.712	-200.000	0.004	-0.123
-364.698	72.579	-0.108	-0.111
-363.683	800.000	0.045	0.176
-362.669	9.415	-0.161	-0.121
-361.654	32.906	-0.112	-0.096
-360.639	-200.000	-0.055	-0.341
-359.625	-170.625	0.105	-0.004
-358.610	-36.319	-0.121	0.065
-357.596	199.556	-0.081	0.123
-356.581	-89.635	-0.131	0.038
-355.566	-98.168	-0.137	0.035
-354.552	159.493	0.058	0.080
-353.537	130.237	0.124	-0.157
-352.523	-56.878	-0.164	-0.072
-351.508	58.028	0.413	-0.400
-350.493	-120.265	-0.218	0.037
-349.479	22.621	-0.166	-0.135
-348.464	-47.980	-0.071	0.034
-347.450	49.511	0.070	-0.065
-346.435	-106.075	-0.126	-0.028
-345.420	57.131	0.183	-0.176
-344.406	-48.823	-0.047	-0.022
-343.391	-50.764	-0.200	-0.093
-342.377	741.152	-0.112	-0.298
-341.362	-63.194	-0.157	-0.064
-340.348	97.344	-0.088	0.100
-339.333	800.000	-0.105	-0.357
-338.318	436.145	-0.064	-0.137
-337.304	-200.000	0.016	0.198
-336.289	-200.000	0.024	-0.160
-335.275	-200.000	-0.008	-0.389
-334.260	-40.522	-0.211	0.108
-333.245	177.830	-0.066	0.095
-332.231	800.000	0.122	0.390
-331.216	-48.037	-0.402	-0.192
-330.202	282.082	-0.163	-0.289
-329.187	55.505	-0.101	0.096
-328.172	-88.887	-0.190	-0.056
-327.158	-200.000	-0.051	0.234
-326.143	-200.000	0.085	-0.444
-325.129	148.884	-0.122	0.163
-324.114	800.000	0.086	-0.241
-323.099	36.633	-0.082	-0.072
-322.085	-143.398	0.234	0.022
-321.070	177.141	0.140	-0.201
-320.056	509.155	-0.080	0.184
-319.041	187.936	-0.141	-0.208
-318.026	-146.667	0.066	-0.006
-317.012	299.697	-0.072	0.130
-315.997	-144.851	0.113	-0.010
-314.983	315.160	0.163	-0.302
-313.968	800.000	0.101	0.374
-312.953	234.423	-0.090	-0.147
-311.939	39.060	0.156	-0.137
-310.924	-200.000	0.022	-0.201
-309.910	-85.729	0.226	0.069
-308.895	0.877	0.074	-0.053
-307.880	-200.000	-0.089	-0.386
-306.866	-28.931	-0.125	-0.071
-305.851	-86.945	-0.205	-0.062
-304.837	359.756	-0.197	0.389
-303.822	22.627	-0.163	0.131
-302.807	108.892	-0.335	-0.396
-301.793	800.000	0.046	0.132
-300.778	278.405	-0.015	0.025
-299.764	-200.000	0.051	0.245
-298.749	-200.000	-0.036	0.247
-297.735	-58.801	0.111	0.047
-296.720	-27.603	-0.098	-0.056
-295.705	27.975	-0.104	-0.087
-294.691	-149.446	-0.310	-0.024
-293.676	449.405	-0.051	-0.110
-292.662	-200.000	0.013	-0.121
-291.647	-20.435	-0.178	-0.108
-290.632	-109.478	-0.117	0.024
-289.618	-168.053	0.085	0.003
-288.603	135.384	-0.229	0.294
-287.589	-160.847	0.171	-0.009
-286.574	40.042	-0.354	-0.313
-285.559	-87.779	0.161	0.048
-284.545	-200.000	0.016	0.465
-283.530	99.651	0.115	-0.131
-282.516	-89.144	0.214	-0.062
-281.501	-68.219	-0.173	-0.066
-280.486	397.217	0.077	0.159
-279.472	36.930	0.220	0.192
-278.457	-68.825	-0.265	0.101
-277.443	278.979	-0.033	-0.058
-276.428	-30.343	-0.136	0.076
-275.413	306.975	-0.176	-0.323
-274.399	25.646	-0.104	0.085
-273.384	-152.426	-0.220	-0.016
-272.370	306.639	-0.115	-0.212
-271.355	475.223	-0.068	-0.152
-270.340	487.296	0.079	-0.178
-269.326	-188.062	0.328	-0.004
-268.311	-99.681	0.256	0.063
-267.297	223.090	-0.148	-0.235
-266.282	183.961	-0.032	-0.047
-265.267	346.780	-0.059	-0.115
-264.253	192.605	0.190	0.282
-263.238	-94.182	0.296	0.080
-262.224	313.512	0.053	0.098
-261.209	97.665	0.028	-0.032
-260.195	-131.538	0.146	-0.019
-259.180	90.531	0.272	0.300
-258.165	-200.000	-0.036	0.374
-257.151	-200.000	-0.040	-0.199
-256.136	79.827	0.117	0.124
-255.122	-200.000	-0.013	-0.104
-254.107	649.127	0.117	-0.295
-253.092	-200.000	-0.030	0.330
-252.078	144.206	-0.173	0.228
-251.063	-140.408	0.123	-0.013
-250.049	-154.001	-0.134	0.009
-249.034	187.873	0.182	-0.268
-248.019	-126.962	-0.245	-0.036
-247.005	-200.000	-0.001	0.425
-245.990	-200.000	-0.016	-0.071
-244.976	800.000	-0.132	0.555
-243.961	260.425	0.058	0.099
-242.946	116.017	-0.275	-0.332
-241.932	313.693	0.072	0.133
-240.917	-91.243	-0.183	0.052
-239.903	188.301	0.085	0.125
-238.888	-53.149	0.145	-0.065
-237.873	-109.264	-0.077	0.016
-236.859	-65.567	0.316	-0.125
-235.844	800.000	-0.075	0.305
-234.830	-200.000	-0.102	0.526
-233.815	9.330	-0.230	0.171
-232.800	6.440	-0.189	-0.138
-231.786	584.508	0.038	-0.092
-230.771	-173.892	0.081	-0.002
-229.757	50.877	0.078	-0.073
-228.742	-200.000	0.002	-0.224
-227.727	-200.000	-0.046	-0.299
-226.713	-86.179	0.369	-0.112
-225.698	-82.366	-0.046	-0.015
-224.684	-109.796	-0.160	-0.033
-223.669	91.713	0.113	0.125
-222.655	-99.742	0.251	-0.062
-221.640	-200.000	-0.030	-0.257
-220.625	-200.000	0.034	0.177
-219.611	16.439	-0.211	0.164
-218.596	302.922	0.221	0.403
-217.582	-59.540	0.221	-0.093
-216.567	800.000	-0.019	0.061
-215.552	-200.000	0.003	0.131
-214.538	111.315	-0.111	-0.131
-213.523	-200.000	-0.043	0.268
-212.509	72.021	0.192	0.196
-211.494	-10.650	0.274	0.178
-210.479	-93.343	0.274	-0.075
-209.465	-92.387	-0.211	0.058
-208.450	800.000	-0.055	-0.198
-207.436	165.498	-0.098	-0.136
-206.421	16.167	0.033	0.026
-205.406	-19.090	0.410	-0.250
-204.392	800.000	0.052	0.149
-203.377	198.517	0.107	-0.161
-202.363	-16.091	0.037	-0.023
-201.348	732.424	-0.113	0.296
-200.333	-106.351	-0.245	0.054
-199.319	-200.000	0.014	0.316
-198.304	-90.065	0.193	0.055
-197.290	343.847	0.164	-0.316
-196.275	-64.039	-0.373	0.150
-195.260	612.721	0.111	0.273
-194.246	800.000	-0.037	0.156
-193.231	800.000	-0.040	0.169
-192.217	611.460	0.120	0.296
-191.202	668.147	0.104	0.265
-190.187	-200.000	-0.075	-0.335
-189.173	151.840	-0.156	-0.209
-188.158	-200.000	0.045	-0.204
-187.144	250.029	-0.051	0.086
-186.129	-129.238	0.127	-0.017
-185.114	-91.302	0.305	-0.086
-184.100	9.200	0.008	0.006
-183.085	31.304	0.313	0.264
-182.071	89.280	-0.077	0.084
-181.056	304.312	0.179	-0.326
-180.042	-96.928	-0.115	0.030
-179.027	158.956	0.081	0.110
-178.012	-2.918	-0.125	0.086
-176.998	349.584	-0.108	0.209
-175.983	11.547	0.180	0.136
-174.969	421.222	0.036	0.075
-173.954	-200.000	0.002	-0.273
-172.939	-90.814	0.248	0.070
-171.925	-40.004	-0.224	-0.115
-170.910	403.202	0.015	-0.032
-169.896	-88.433	0.278	0.082
-168.881	-173.414	0.217	-0.006
-167.866	-200.000	0.026	-0.226
-166.852	260.838	-0.093	-0.158
-165.837	-172.470	-0.162	-0.005
-164.823	-23.015	0.238	0.141
-163.808	41.651	0.101	-0.090
-162.793	675.049	-0.059	0.150
-161.779	31.651	0.088	0.074
-160.764	-79.118	0.056	0.019
-159.750	-108.881	0.462	0.097
-158.735	397.220	-0.087	0.179
-157.720	135.351	-0.080	0.102
-156.706	-42.376	-0.184	-0.092
-155.691	0.625	0.209	-0.146
-154.677	-25.216	-0.238	-0.138
-153.662	800.000	0.063	0.211
-152.647	-138.657	0.084	0.009
-151.633	-163.992	-0.283	-0.013
-150.618	-57.355	-0.142	0.061
-149.604	104.428	-0.075	0.086
-148.589	460.291	-0.098	-0.214
-147.574	-49.565	-0.233	-0.109
-146.560	-148.167	-0.203	0.016
-145.545	277.367	0.105	0.183
-144.531	0.151	-0.041	0.029
-143.516	48.910	0.068	0.063
-142.502	-200.000	0.021	-0.154
-141.487	-200.000	0.074	-0.430
-140.472	-86.789	-0.145	0.043
-139.458	-200.000	0.054	0.261
-138.443	50.706	0.293	0.272
-137.429	-47.124	-0.361	-0.173
-136.414	799.451	0.124	-0.335
-135.399	91.177	0.091	0.101
-134.385	-200.000	0.024	0.154
-133.370	-122.211	-0.081	-0.013
-132.356	39.110	-0.093	-0.081
-131.341	-64.494	-0.043	-0.017
-130.326	-179.753	0.510	0.011
-129.312	-69.000	0.194	0.073
-128.297	-145.273	0.220	-0.019
-127.283	497.844	0.099	0.223
-126.268	424.712	-0.073	0.155
-125.253	800.000	-0.096	-0.311
-124.239	476.197	-0.088	0.195
-123.224	-175.178	0.258	0.007
-122.210	454.120	-0.011	-0.025
-121.195	506.843	0.082	0.187
-120.180	109.202	0.141	0.165
-119.166	-49.455	0.252	0.117
-118.151	345.329	0.022	-0.042
-117.137	549.590	-0.115	0.269
-116.122	-200.000	0.029	-0.138
-115.107	-200.000	-0.000	0.380
-114.093	-77.831	0.534	-0.181
-113.078	76.537	-0.159	-0.166
-112.064	51.998	-0.130	0.121
-111.049	209.518	-0.181	0.277
-110.034	14.303	-0.178	-0.136
-109.020	28.735	-0.177	0.147
-108.005	16.579	0.173	0.134
-106.991	-200.000	0.049	-0.373
-105.976	54.644	-0.167	-0.158
-104.962	800.000	0.023	0.070
-103.947	445.879	-0.049	0.105
-102.932	-200.000	0.021	-0.134
-101.918	480.401	0.048	-0.106
-100.903	72.353	-0.111	0.114
-99.889	-115.186	-0.225	-0.042
-98.874	-11.128	-0.222	0.143
-97.859	128.156	-0.146	-0.182
-96.845	-106.043	0.188	-0.041
-95.830	237.067	0.087	0.141
-94.816	-73.668	-0.353	-0.126
-93.801	62.889	0.240	-0.235
-92.786	61.402	0.112	-0.109
-91.772	-31.722	-0.167	-0.092
-90.757	60.846	-0.353	0.342
-89.743	-38.502	-0.029	0.015
-88.728	-51.759	-0.298	0.136
-87.713	15.425	0.230	0.177
-86.699	-200.000	0.139	-0.000
-85.684	-87.758	0.104	-0.031
-84.670	800.000	0.011	0.034
-83.655	177.359	-0.034	0.048
-82.640	-200.000	-0.002	0.056
-81.626	800.000	-0.174	0.515
-80.611	-102.831	0.370	-0.086
-79.597	683.898	0.071	0.182
-78.582	84.464	0.093	0.099
-77.567	422.987	-0.164	0.344
-76.553	-77.567	0.295	0.100
-75.538	-116.355	0.268	0.048
-74.524	-200.000	0.012	0.362
-73.509	336.233	-0.184	0.349
-72.494	-85.455	0.390	0.119
-71.480	120.444	0.093	0.113
-70.465	-32.507	0.273	-0.149
-69.451	-86.142	-0.062	-0.019
-68.436	61.661	-0.214	-0.208
-67.422	738.606	-0.078	-0.205
-66.407	-92.058	-0.211	0.058
-65.392	-200.000	-0.046	-0.306
-64.378	143.223	0.153	0.199
-63.363	-117.292	0.064	0.011
-62.349	-9.718	0.260	0.169
-61.334	154.274	-0.856	-1.148
-60.319	59.496	0.609	0.587
-59.305	334.052	-0.458	-0.866
-58.290	296.126	0.735	1.317
-57.276	800.000	0.479	1.383
-56.261	-200.000	115.374	645.106
-55.246	508.016	1530.691	3470.801
-54.232	176.266	2708.373	3842.265
-53.217	99.189	2286.120	2580.452
-52.203	35.689	1896.103	1627.187
-51.188	29.960	1690.134	1406.986
-50.173	27.450	1649.090	1354.132
-49.159	47.488	1706.069	1553.091
-48.144	46.065	1719.799	1554.767
-47.130	29.335	1677.213	1391.298
-46.115	26.821	1662.720	1360.384
-45.100	26.562	1658.462	1354.908
-44.086	26.695	1655.302	1353.269
-43.071	26.549	1653.136	1350.356
-42.057	26.493	1650.462	1347.702
-41.042	26.506	1648.724	1346.324
-40.027	26.534	1646.963	1345.040
-39.013	26.509	1644.592	1342.867
-37.998	26.567	1643.394	1342.268
-36.984	26.585	1641.704	1340.964
-35.969	26.543	1641.045	1340.062
-34.954	26.636	1639.017	1339.042
-33.940	26.678	1637.491	1338.050
-32.925	26.621	1635.537	1335.984
-31.911	26.662	1633.722	1334.744
-30.896	26.573	1632.567	1333.096
-29.881	26.638	1630.607	1331.920
-28.867	26.766	1628.680	1331.230
-27.852	26.713	1627.141	1329.532
-26.838	26.745	1625.969	1328.754
-25.823	26.747	1624.875	1327.827
-24.809	26.758	1623.796	1326.969
-23.794	26.683	1622.259	1325.111
-22.779	26.722	1620.400	1323.831
-21.765	26.595	1619.449	1322.071
-20.750	26.632	1617.166	1320.424
-19.736	26.700	1616.026	1319.940
-18.721	26.723	1614.577	1318.869
-17.706	26.683	1613.246	1317.441
-16.692	26.784	1611.239	1316.483
-15.677	26.754	1609.902	1315.117
-14.663	26.721	1608.598	1313.763
-13.648	26.777	1607.457	1313.186
-12.633	26.723	1605.961	1311.517
-11.619	26.764	1603.675	1309.894
-10.604	26.704	1602.520	1308.468
-9.590	26.822	1601.062	1308.077
-8.575	26.752	1599.970	1306.627
-7.560	26.815	1598.440	1305.778
-6.546	26.781	1598.015	1305.139
-5.531	26.730	1596.981	1303.873
-4.517	26.654	1595.962	1302.445
-3.502	26.672	1594.805	1301.577
-2.487	26.737	1592.774	1300.330
-1.473	26.433	1580.550	1288.136
-0.458	23.352	1561.629	1250.946
0.556	20.661	1563.045	1219.408
1.571	18.349	1587.176	1221.646
2.586	17.957	1599.597	1228.282
3.600	15.778	1543.931	1170.288
4.615	9.249	1437.471	1047.083
5.629	3.863	1379.309	970.883
6.644	3.220	1371.901	961.568
7.659	3.110	1370.665	959.930
8.673	3.183	1369.530	959.510
9.688	3.177	1367.691	958.096
10.702	3.193	1365.098	956.295
11.717	5.668	1368.905	974.283
12.731	12.728	1382.617	1028.168
13.746	18.949	1392.796	1074.648
14.761	20.464	1394.180	1085.086
15.775	19.807	1392.455	1079.550
16.790	18.718	1389.818	1070.621
17.804	17.968	1387.813	1064.311
18.819	17.675	1386.060	1061.052
19.834	17.558	1384.947	1059.375
20.848	17.359	1383.990	1057.314
21.863	17.228	1382.549	1055.304
22.877	17.128	1381.271	1053.619
23.892	16.987	1380.609	1052.145
24.907	16.996	1380.106	1051.721
25.921	17.013	1378.864	1050.790
26.936	17.062	1377.794	1050.182
27.950	17.107	1376.762	1049.585
28.965	17.193	1376.312	1049.674
29.980	17.251	1374.663	1048.686
30.994	17.417	1373.729	1048.903
32.009	17.376	1373.064	1048.051
33.023	17.417	1371.567	1047.065
34.038	17.247	1370.494	1045.112
35.053	17.212	1369.352	1043.933
36.067	17.186	1367.788	1042.486
37.082	17.176	1366.997	1041.731
38.096	17.297	1365.877	1041.525
39.111	17.242	1365.386	1040.725
40.126	17.108	1364.320	1038.999
41.140	16.988	1362.962	1037.139
42.155	16.853	1362.482	1035.857
43.169	16.779	1362.393	1035.244
44.184	16.860	1362.155	1035.468
45.199	16.881	1361.530	1035.032
46.213	16.967	1361.146	1035.170
47.228	17.087	1360.485	1035.311
48.242	17.178	1358.851	1034.526
49.257	17.082	1357.536	1032.854
50.271	17.107	1356.171	1031.871
51.286	17.077	1355.290	1030.927
52.301	17.163	1353.498	1029.997
53.315	16.978	1352.538	1028.054
54.330	16.875	1351.462	1026.520
55.344	16.852	1350.090	1025.246
56.359	16.945	1348.899	1024.816
57.374	16.945	1348.418	1024.360
58.388	16.807	1347.551	1022.779
59.403	16.746	1347.314	1022.136
60.417	16.704	1346.696	1021.324
61.432	16.729	1345.672	1020.607
62.447	16.659	1344.351	1019.097
63.461	16.627	1343.203	1017.943
64.476	16.627	1342.205	1017.099
65.490	16.604	1340.847	1015.839
66.505	16.667	1338.992	1014.723
67.520	16.702	1338.347	1014.352
68.534	16.685	1337.236	1013.318
69.549	16.687	1336.483	1012.674
70.563	16.547	1335.483	1010.987
71.578	16.492	1334.220	1009.613
72.593	16.505	1332.997	1008.678
73.607	16.524	1332.758	1008.522
74.622	16.643	1331.198	1007.962
75.636	16.516	1331.198	1007.113
76.651	16.601	1330.263	1006.823
77.666	16.540	1330.128	1006.268
78.680	16.621	1329.412	1006.119
79.695	16.738	1328.472	1006.013
80.709	16.808	1327.993	1005.975
81.724	16.910	1327.178	1005.874
82.739	16.999	1326.302	1005.651
83.753	17.040	1325.884	1005.488
84.768	17.105	1324.946	1005.074
85.782	17.233	1323.572	1004.696
86.797	17.301	1322.267	1004.021
87.812	17.140	1320.977	1002.003
88.826	17.095	1319.855	1000.796
89.841	17.145	1318.940	1000.309
90.855	17.281	1318.103	1000.385
91.870	17.135	1317.596	999.054
92.884	17.321	1316.743	999.411
93.899	17.336	1315.387	998.382
94.914	17.380	1314.735	998.055
95.928	17.352	1314.164	997.372
96.943	17.202	1312.993	995.514
97.957	17.220	1312.058	994.823
98.972	17.261	1311.107	994.255
99.987	17.204	1310.265	993.196
101.001	17.304	1309.320	992.974
102.016	17.211	1308.447	991.680
103.030	17.225	1307.140	990.683
104.045	17.246	1306.369	990.136
105.060	17.084	1304.904	987.997
106.074	16.953	1303.543	986.116
107.089	16.703	1302.083	983.473
108.103	16.649	1301.053	982.296
109.118	16.732	1299.457	981.484
110.133	16.640	1297.968	979.740
111.147	16.758	1296.741	979.408
112.162	16.860	1295.038	978.625
113.176	16.672	1294.453	977.013
114.191	16.869	1293.448	977.303
115.206	16.905	1292.237	976.506
116.220	16.860	1291.013	975.234
117.235	16.905	1289.985	974.635
118.249	16.872	1288.934	973.566
119.264	16.846	1287.348	972.131
120.279	16.811	1286.590	971.272
121.293	16.699	1285.624	969.812
122.308	16.529	1284.688	968.052
123.322	16.581	1283.632	967.463
124.337	16.552	1282.244	966.167
125.352	16.575	1281.100	965.354
126.366	16.509	1280.473	964.415
127.381	16.725	1278.765	964.273
128.395	16.595	1278.058	962.919
129.410	16.533	1277.732	962.233
130.424	16.609	1276.704	961.808
131.439	16.689	1275.897	961.569
132.454	16.834	1274.619	961.345
133.468	16.838	1274.054	960.855
134.483	16.826	1273.890	960.578
135.497	16.785	1272.815	959.449
136.512	16.794	1271.146	958.157
137.527	16.771	1270.308	957.311
138.541	16.820	1268.290	955.982
139.556	16.987	1267.095	955.936
140.570	17.135	1266.189	956.003
141.585	17.145	1264.795	954.925
142.600	17.157	1264.171	954.437
143.614	17.192	1263.356	953.931
144.629	17.160	1262.451	952.986
145.643	17.291	1261.033	952.560
146.658	17.189	1259.653	950.864
147.673	17.160	1257.846	949.255
148.687	16.897	1257.472	947.422
149.702	16.908	1255.453	945.877
150.716	16.806	1254.620	944.597
151.731	16.819	1253.517	943.756
152.746	16.921	1252.367	943.373
153.760	17.008	1251.037	942.773
154.775	17.159	1250.079	942.803
155.789	17.169	1249.336	942.217
156.804	17.177	1248.138	941.274
157.819	17.117	1247.079	940.060
158.833	17.315	1246.395	940.557
159.848	17.283	1245.984	939.983
160.862	17.269	1244.916	939.020
161.877	17.244	1242.752	937.168
162.892	16.986	1242.113	935.182
163.906	16.969	1241.213	934.325
164.921	17.012	1240.251	933.758
165.935	17.113	1239.178	933.420
166.950	17.119	1238.723	933.027
167.964	17.028	1238.326	932.144
168.979	16.996	1237.724	931.436
169.994	17.107	1236.326	930.907
171.008	17.123	1236.118	930.760
172.023	17.155	1235.107	930.087
173.037	17.259	1234.697	930.265
174.052	17.350	1233.434	929.733
175.067	17.097	1232.202	927.336
176.081	17.052	1231.510	926.490
177.096	17.119	1230.199	925.785
178.110	17.139	1229.480	925.272
179.125	17.165	1228.001	924.218
180.140	17.159	1226.901	923.275
181.154	17.227	1226.076	922.944
182.169	17.296	1224.911	922.360
183.183	17.356	1223.748	921.727
184.198	17.386	1222.865	921.146
185.213	17.396	1221.612	920.172
186.227	17.511	1220.350	919.764
187.242	17.495	1219.793	919.172
188.256	17.538	1218.959	918.694
189.271	17.558	1217.941	917.956
190.286	17.385	1216.524	915.875
191.300	17.187	1215.624	914.051
192.315	17.012	1214.811	912.418
193.329	16.921	1214.754	911.806
194.344	17.044	1213.897	911.741
195.359	17.203	1213.485	912.207
196.373	17.299	1213.294	912.494
197.388	17.485	1212.265	912.642
198.402	17.594	1212.022	912.957
199.417	17.712	1211.579	913.178
200.432	17.737	1210.791	912.637
201.446	17.816	1210.046	912.417
202.461	17.915	1209.153	912.194
203.475	17.840	1208.578	911.274
204.490	17.721	1206.920	909.313
205.504	17.679	1205.385	907.848
206.519	17.590	1204.500	906.630
207.534	17.647	1203.018	905.735
208.548	17.558	1202.058	904.460
209.563	17.600	1201.710	904.343
210.577	17.591	1200.522	903.322
211.592	17.739	1199.737	903.434
212.607	17.797	1198.949	903.071
213.621	17.663	1198.138	901.668
214.636	17.772	1197.466	901.662
215.650	17.764	1196.429	900.758
216.665	17.974	1195.124	900.802
217.680	17.962	1194.811	900.425
218.694	18.077	1193.952	900.301
219.709	17.986	1192.967	899.001
220.723	17.978	1191.926	898.097
221.738	17.896	1191.523	897.280
222.753	17.900	1191.007	896.835
223.767	17.835	1190.761	896.227
224.782	17.947	1189.978	896.148
225.796	18.050	1189.148	895.984
226.811	18.007	1188.684	895.330
227.826	17.964	1187.745	894.316
228.840	17.927	1186.594	893.175
229.855	18.008	1185.955	893.042
230.869	17.897	1185.532	892.063
231.884	17.934	1184.412	891.335
232.899	17.734	1183.584	889.590
233.913	17.707	1183.303	889.157
234.928	17.708	1181.956	888.073
235.942	17.777	1181.218	887.798
236.957	17.728	1180.375	886.831
237.972	17.757	1179.556	886.288
238.986	17.672	1179.461	885.696
240.001	17.839	1178.362	885.663
241.015	17.701	1177.667	884.342
242.030	17.746	1177.101	884.075
243.045	17.955	1175.905	884.180
244.059	18.036	1175.308	884.070
245.074	17.981	1174.556	883.145
246.088	18.060	1173.549	882.716
247.103	18.132	1172.566	882.268
248.117	18.261	1172.516	882.823
249.132	18.362	1171.395	882.417
250.147	18.580	1170.579	882.848
251.161	18.573	1170.472	882.653
252.176	18.497	1170.210	881.986
253.190	18.683	1169.309	882.184
254.205	18.708	1168.507	881.633
255.220	18.716	1167.975	881.194
256.234	18.767	1167.262	880.837
257.249	18.630	1166.513	879.495
258.263	18.680	1166.112	879.367
259.278	18.714	1165.626	879.099
260.293	18.673	1164.768	878.166
261.307	18.779	1164.218	878.211
262.322	18.794	1163.823	877.915
263.336	18.876	1162.961	877.607
264.351	18.875	1162.385	877.086
265.366	18.897	1161.542	876.485
266.380	19.003	1160.553	876.200
267.395	18.819	1159.684	874.530
268.409	18.818	1158.424	873.501
269.424	18.745	1158.577	873.169
270.439	18.673	1157.727	872.082
271.453	18.666	1156.842	871.303
272.468	18.659	1155.952	870.521
273.482	18.567	1155.158	869.381
274.497	18.555	1155.110	869.208
275.512	18.605	1154.307	868.778
276.526	18.567	1153.745	868.084
277.541	18.618	1152.524	867.349
278.555	18.824	1151.971	867.896
279.570	18.779	1151.335	867.113
280.585	18.951	1150.433	867.224
281.599	18.921	1149.605	866.370
282.614	18.836	1148.837	865.287
283.628	18.792	1147.493	863.977
284.643	18.865	1146.137	863.248
285.657	18.826	1145.441	862.452
286.672	18.837	1144.979	862.082
287.687	18.832	1143.844	861.126
288.701	18.807	1143.333	860.542
289.716	18.945	1142.115	860.239
290.730	18.851	1141.361	859.124
291.745	18.868	1140.943	858.816
292.760	18.954	1140.101	858.538
293.774	18.970	1139.719	858.254
294.789	19.077	1139.501	858.550
295.803	18.970	1138.680	857.321
296.818	18.930	1137.448	856.118
297.833	18.961	1137.011	855.866
298.847	18.908	1136.071	854.821
299.862	19.066	1135.324	854.967
300.876	19.001	1134.987	854.315
301.891	19.099	1134.086	854.049
302.906	19.164	1133.730	854.028
303.920	19.207	1132.982	853.599
304.935	19.347	1132.346	853.739
305.949	19.371	1131.773	853.347
306.964	19.416	1130.982	852.903
307.979	19.395	1129.777	851.814
308.993	19.168	1129.386	850.321
310.008	19.411	1128.548	850.815
311.022	19.418	1127.565	850.031
312.037	19.380	1126.605	849.047
313.052	19.149	1125.979	847.365
314.066	19.124	1125.097	846.500
315.081	19.047	1124.315	845.461
316.095	18.990	1123.439	844.446
317.110	19.061	1122.797	844.239
318.125	19.097	1122.038	843.768
319.139	18.986	1121.507	842.750
320.154	19.032	1120.691	842.286
321.168	19.109	1120.018	842.083
322.183	19.112	1119.584	841.697
323.197	19.175	1118.835	841.368
324.212	19.176	1118.358	840.941
325.227	19.273	1117.628	840.788
326.241	19.148	1117.308	839.865
327.256	19.265	1116.195	839.525
328.270	19.153	1115.482	838.369
329.285	19.137	1114.737	837.656
330.300	19.196	1113.452	836.904
331.314	19.198	1112.596	836.196
332.329	19.165	1111.589	835.203
333.343	19.214	1111.246	835.108
334.358	19.366	1110.167	834.961
335.373	19.389	1109.655	834.614
336.387	19.444	1108.643	834.047
337.402	19.382	1107.913	833.121
338.416	19.478	1107.253	833.017
339.431	19.609	1106.483	832.994
340.446	19.731	1106.238	833.327
341.460	19.729	1105.642	832.792
342.475	19.802	1104.738	832.389
343.489	19.884	1103.494	831.771
344.504	19.818	1102.998	831.009
345.519	19.908	1102.615	831.081
346.533	19.882	1101.694	830.185
347.548	19.891	1101.277	829.843
348.562	20.077	1099.659	829.439
349.577	19.743	1098.746	827.081
350.592	19.763	1097.962	826.512
351.606	19.605	1097.436	825.286
352.621	19.620	1096.841	824.842
353.635	19.511	1096.340	823.867
354.650	19.530	1095.589	823.322
355.665	19.665	1094.582	823.138
356.679	19.667	1093.820	822.498
357.694	19.773	1093.326	822.559
358.708	19.851	1092.342	822.119
359.723	19.755	1092.187	821.473
360.738	19.895	1091.432	821.497
361.752	19.727	1091.399	820.601
362.767	19.819	1090.616	820.377
363.781	19.847	1090.101	820.047
364.796	19.883	1089.392	819.611
365.810	20.041	1088.864	819.889
366.825	20.068	1088.495	819.669
367.840	20.295	1087.684	820.060
368.854	20.377	1087.144	819.967
369.869	20.314	1086.522	819.127
370.883	20.213	1085.202	817.583
371.898	20.199	1084.636	817.017
372.913	20.252	1083.689	816.481
373.927	20.161	1083.780	816.052
374.942	20.186	1083.325	815.753
375.956	20.354	1082.558	815.895
376.971	20.186	1081.842	814.493
377.986	20.242	1081.520	814.439
379.000	20.393	1080.719	814.475
380.015	20.496	1080.560	814.765
381.029	20.475	1079.803	814.023
382.044	20.367	1079.248	813.026
383.059	20.378	1078.402	812.368
384.073	20.363	1077.723	811.718
385.088	20.427	1076.487	811.011
386.102	20.421	1075.547	810.205
387.117	20.309	1074.570	808.875
388.132	20.212	1073.287	807.384
389.146	20.139	1072.742	806.567
390.161	20.116	1072.013	805.840
391.175	20.204	1071.306	805.642
392.190	20.349	1070.998	806.012
393.205	20.447	1070.140	805.750
394.219	20.385	1069.353	804.800
395.234	20.238	1068.515	803.418
396.248	20.336	1067.486	803.027
397.263	20.357	1066.473	802.292
398.278	20.159	1065.722	800.741
399.292	20.079	1064.633	799.481
400.307	20.066	1064.145	798.987
401.321	20.063	1063.742	798.599
402.336	20.205	1063.014	798.634
403.350	20.248	1062.393	798.296
404.365	20.284	1061.583	797.783
405.380	20.403	1060.857	797.711
406.394	20.354	1060.024	796.789
407.409	20.478	1059.598	796.968
408.423	20.558	1058.683	796.574
409.438	20.677	1058.262	796.732
410.453	20.741	1057.430	796.331
411.467	20.704	1056.671	795.519
412.482	20.778	1056.277	795.492
413.496	20.798	1055.498	794.923
414.511	20.812	1054.980	794.527
415.526	20.940	1054.555	794.723
416.540	20.917	1054.383	794.415
417.555	20.996	1053.531	794.063
418.569	20.948	1052.825	793.243
419.584	20.871	1052.485	792.565
420.599	20.952	1051.891	792.419
421.613	155.457	1404.891	1796.968
422.628	142.608	1456.288	1797.078
