DTS Sentinel unit serial number:	SN413079Multiplexer serial number:	ORYXHardware model number:	OX4-SRSoftware version number:	ORYX F/W v4.00 Oryx Data Collector v3.7.2.0data status	okinstallation	princeton_trtdifferential loss correction	single-endedforward channel	channel 2reverse channel	N/Adate	2019/09/13time	08:39:34forward acquisition time	60.00reverse acquisition time	0.00gamma	496.2192k internal	0.2332k external	0.2332temperature offset calibration	1.0192default loss term (dB/km)	0.3790temperature slope calibration	1.0000multiplexer offset coefficient	1.0000multiplexer slope coefficient	1.0000fibre end	0.00T internal ref (°C)	27.75T ext. ref 1 (°C)	4.29T ext. ref 2 (°C)	24.71length (m)	temperature (°C)	Stokes	anti-Stokes-747.200	-93.814	0.275	0.076
-746.185	800.000	-0.050	0.146
-745.171	336.664	0.086	0.168
-744.156	38.729	0.223	0.200
-743.142	800.000	-0.005	-0.017
-742.127	-113.086	-0.204	0.041
-741.112	-73.978	0.187	0.068
-740.098	29.968	-0.226	0.194
-739.083	-200.000	-0.022	0.162
-738.069	-56.856	0.052	0.023
-737.054	93.183	-0.096	0.109
-736.039	203.924	-0.174	0.271
-735.025	480.748	0.149	0.340
-734.010	-22.799	-0.353	-0.215
-732.996	-26.679	0.123	0.072
-731.981	705.291	0.052	0.139
-730.966	-189.610	-0.215	-0.002
-729.952	-200.000	-0.073	-0.334
-728.937	-200.000	-0.101	-0.473
-727.923	119.507	-0.340	0.423
-726.908	46.878	-0.120	-0.112
-725.894	-200.000	-0.010	-0.262
-724.879	-113.981	0.207	-0.040
-723.864	-132.917	-0.300	-0.038
-722.850	66.939	0.217	-0.223
-721.835	-25.268	-0.234	-0.139
-720.821	116.367	-0.041	-0.050
-719.806	507.432	0.055	-0.129
-718.791	-156.768	0.194	0.012
-717.777	-20.879	0.403	-0.248
-716.762	-80.271	-0.051	0.017
-715.748	382.387	-0.058	-0.120
-714.733	-139.472	-0.151	-0.016
-713.718	487.050	0.130	0.299
-712.704	800.000	0.113	-0.374
-711.689	800.000	0.070	-0.221
-710.675	-140.432	-0.197	-0.021
-709.660	-84.927	-0.138	0.043
-708.645	-182.835	-0.133	0.002
-707.631	496.638	-0.056	-0.129
-706.616	-95.642	0.224	-0.060
-705.602	26.114	-0.325	0.272
-704.587	-94.418	0.211	0.058
-703.572	0.032	0.107	-0.076
-702.558	142.636	-0.092	0.123
-701.543	800.000	-0.051	-0.172
-700.529	49.130	-0.109	0.103
-699.514	560.541	0.130	0.314
-698.499	-200.000	-0.035	0.317
-697.485	-200.000	-0.009	-0.150
-696.470	69.579	0.083	0.086
-695.456	-200.000	-0.044	-0.221
-694.441	238.050	0.059	-0.099
-693.426	38.671	0.079	-0.071
-692.412	371.267	0.085	0.173
-691.397	-51.951	-0.171	0.080
-690.383	800.000	-0.039	0.155
-689.368	800.000	-0.059	-0.178
-688.354	298.317	-0.134	0.247
-687.339	-200.000	-0.023	-0.181
-686.324	2.402	-0.128	0.093
-685.310	-49.484	0.109	0.052
-684.295	-200.000	-0.040	-0.251
-683.281	-61.439	0.090	0.038
-682.266	-200.000	0.040	0.220
-681.251	-5.152	-0.274	-0.189
-680.237	-147.147	-0.103	-0.009
-679.222	18.776	-0.409	0.328
-678.208	772.456	-0.095	0.259
-677.193	-200.000	-0.502	-0.001
-676.178	800.000	-0.155	-0.484
-675.164	38.782	-0.170	-0.152
-674.149	50.668	0.138	0.131
-673.135	715.594	-0.094	0.249
-672.120	-94.010	-0.167	-0.046
-671.105	389.559	-0.147	-0.305
-670.091	-108.071	0.133	-0.029
-669.076	-200.000	0.068	-0.300
-668.062	-85.855	-0.563	-0.175
-667.047	-60.346	-0.199	0.085
-666.032	48.822	0.040	0.038
-665.018	43.635	0.073	0.067
-664.003	-81.641	0.102	0.034
-662.989	9.567	-0.215	0.164
-661.974	79.996	0.119	-0.129
-660.959	-112.329	-0.064	0.013
-659.945	-119.969	-0.126	-0.022
-658.930	-200.000	0.035	-0.231
-657.916	-194.819	0.176	0.001
-656.901	583.413	0.071	-0.174
-655.886	-200.000	-0.010	0.162
-654.872	-200.000	0.015	0.199
-653.857	-6.459	0.128	-0.088
-652.843	800.000	0.030	-0.114
-651.828	-200.000	0.011	0.345
-650.814	-39.904	-0.272	0.142
-649.799	-113.629	-0.199	0.039
-648.784	0.032	-0.108	-0.077
-647.770	5.985	0.039	-0.029
-646.755	-200.000	0.053	0.236
-645.741	287.755	0.059	0.106
-644.726	199.935	-0.203	0.313
-643.711	158.260	0.141	0.196
-642.697	-13.429	-0.118	-0.077
-641.682	-42.972	-0.413	0.210
-640.668	-17.205	-0.233	0.147
-639.653	-141.562	-0.376	0.038
-638.638	203.753	0.035	0.055
-637.624	144.913	0.114	-0.153
-636.609	19.116	-0.199	-0.160
-635.595	54.269	0.091	0.087
-634.580	-37.558	0.264	0.141
-633.565	105.638	-0.143	-0.170
-632.551	-124.172	0.276	0.043
-631.536	-200.000	0.013	-0.404
-630.522	-21.502	0.136	-0.083
-629.507	-200.000	0.020	0.383
-628.492	19.593	-0.140	0.113
-627.478	-148.232	0.150	-0.012
-626.463	-93.919	-0.117	-0.032
-625.449	308.435	-0.040	0.075
-624.434	640.016	-0.067	-0.171
-623.419	45.062	0.179	0.165
-622.405	102.881	0.079	-0.092
-621.390	202.548	-0.082	-0.126
-620.376	-51.512	0.098	-0.046
-619.361	700.672	-0.108	-0.284
-618.346	342.152	0.037	0.073
-617.332	-200.000	0.045	-0.201
-616.317	800.000	-0.115	0.364
-615.303	-109.009	0.106	-0.023
-614.288	117.088	-0.201	-0.247
-613.273	291.500	0.032	0.059
-612.259	-51.456	0.151	-0.071
-611.244	120.097	-0.087	0.109
-610.230	800.000	-0.059	0.184
-609.215	-200.000	-0.037	-0.213
-608.201	-48.685	0.099	0.048
-607.186	-200.000	-0.034	0.167
-606.171	-200.000	-0.022	0.219
-605.157	-64.218	-0.466	-0.190
-604.142	77.111	0.197	0.209
-603.128	471.304	-0.154	-0.346
-602.113	-79.951	-0.237	0.080
-601.098	45.956	-0.257	-0.238
-600.084	800.000	0.123	-0.348
-599.069	48.614	-0.064	-0.060
-598.055	800.000	0.022	0.088
-597.040	209.225	-0.097	0.152
-596.025	31.344	0.095	0.082
-595.011	294.480	-0.121	0.221
-593.996	21.039	0.059	-0.048
-592.982	-200.000	-0.034	-0.247
-591.967	-3.821	0.206	0.143
-590.952	-68.364	0.154	-0.060
-589.938	174.136	-0.064	-0.093
-588.923	331.788	-0.035	-0.068
-587.909	-106.777	0.179	0.040
-586.894	345.519	-0.120	-0.235
-585.879	-60.579	0.208	-0.088
-584.865	634.084	-0.043	0.109
-583.850	-9.417	0.107	-0.071
-582.836	25.363	0.092	0.076
-581.821	-95.948	-0.224	0.060
-580.806	-49.407	0.063	0.030
-579.792	342.674	0.029	0.057
-578.777	8.993	-0.306	-0.231
-577.763	113.098	0.140	-0.169
-576.748	-200.000	-0.023	0.326
-575.733	-120.965	-0.232	0.039
-574.719	703.311	-0.157	-0.415
-573.704	1.125	-0.221	0.159
-572.690	-103.197	-0.322	0.076
-571.675	-119.161	-0.044	-0.008
-570.661	-30.863	0.088	-0.049
-569.646	-108.704	0.203	0.043
-568.631	-200.000	0.008	0.286
-567.617	-151.784	0.314	-0.023
-566.602	-166.430	0.295	0.012
-565.588	-124.019	0.142	-0.022
-564.573	-69.171	-0.417	0.160
-563.558	-106.444	-0.320	0.071
-562.544	0.170	0.218	-0.155
-561.529	10.243	0.156	-0.119
-560.515	-13.340	0.042	-0.027
-559.500	-153.678	-0.424	0.029
-558.485	121.211	0.125	0.155
-557.471	194.004	0.042	0.063
-556.456	-200.000	0.019	0.300
-555.442	13.465	0.440	0.341
-554.427	-140.985	-0.184	-0.019
-553.412	213.066	-0.169	-0.266
-552.398	800.000	-0.033	0.125
-551.383	-123.918	0.137	0.022
-550.369	-197.582	0.222	0.001
-549.354	7.130	0.146	0.109
-548.339	-63.695	0.140	-0.057
-547.325	464.201	-0.127	-0.283
-546.310	-121.747	-0.212	0.035
-545.296	800.000	-0.046	0.129
-544.281	-64.906	-0.243	-0.098
-543.266	-65.667	-0.364	-0.146
-542.252	-43.951	0.182	0.092
-541.237	-160.753	-0.217	0.011
-540.223	-137.462	0.199	0.022
-539.208	188.368	-0.099	0.148
-538.193	-123.732	-0.395	-0.062
-537.179	190.774	-0.088	0.132
-536.164	-200.000	-0.006	-0.305
-535.150	800.000	-0.029	-0.121
-534.135	-48.751	-0.110	0.053
-533.121	-182.872	0.161	-0.003
-532.106	136.996	0.195	-0.254
-531.091	149.741	-0.132	-0.178
-530.077	-74.539	0.362	-0.130
-529.062	-66.042	-0.148	-0.059
-528.048	48.223	-0.173	-0.161
-527.033	800.000	0.052	-0.177
-526.018	-200.000	-0.041	-0.197
-525.004	394.722	0.029	-0.060
-523.989	-120.582	-0.142	0.024
-522.975	-151.151	0.302	-0.023
-521.960	191.943	0.071	-0.106
-520.945	-180.022	-0.080	-0.002
-519.931	72.712	-0.089	0.093
-518.916	40.285	0.057	-0.051
-517.902	-200.000	-0.004	-0.027
-516.887	289.937	0.075	0.136
-515.872	86.885	-0.208	0.229
-514.858	691.805	0.012	-0.033
-513.843	7.638	-0.109	0.081
-512.829	81.532	-0.094	0.102
-511.814	-200.000	0.006	-0.148
-510.799	14.627	0.180	0.140
-509.785	-34.540	0.148	0.081
-508.770	-15.658	0.202	0.128
-507.756	130.950	0.088	-0.112
-506.741	-99.124	-0.236	0.060
-505.726	-6.169	0.019	0.013
-504.712	96.941	-0.128	0.146
-503.697	-91.772	0.062	0.018
-502.683	-24.327	-0.089	0.053
-501.668	-200.000	-0.004	0.154
-500.653	437.360	0.020	0.044
-499.639	-41.019	-0.279	-0.144
-498.624	104.646	0.094	0.111
-497.610	-27.847	0.178	-0.103
-496.595	-23.481	0.363	-0.217
-495.581	-54.378	0.082	-0.037
-494.566	594.639	-0.047	-0.115
-493.551	-90.527	0.352	-0.102
-492.537	587.949	-0.070	-0.172
-491.522	-10.181	0.225	0.149
-490.508	-86.232	-0.227	-0.070
-489.493	-77.674	0.145	-0.050
-488.478	-200.000	-0.040	-0.209
-487.464	14.228	0.039	0.030
-486.449	-25.005	0.068	0.040
-485.435	-40.602	0.263	-0.136
-484.420	580.999	-0.122	-0.297
-483.405	-200.000	-0.014	-0.223
-482.391	800.000	0.024	0.080
-481.376	12.519	-0.032	0.024
-480.362	210.463	0.099	0.155
-479.347	-200.000	-0.084	0.543
-478.332	-200.000	0.012	0.084
-477.318	800.000	0.095	-0.265
-476.303	277.071	-0.114	-0.201
-475.289	-70.378	0.075	-0.028
-474.274	800.000	0.015	-0.060
-473.259	-61.099	-0.218	0.092
-472.245	800.000	0.061	0.241
-471.230	39.552	0.248	0.222
-470.216	800.000	0.116	0.345
-469.201	-53.570	0.156	-0.071
-468.186	-120.214	-0.331	0.056
-467.172	6.014	-0.250	-0.185
-466.157	-118.554	0.233	-0.041
-465.143	581.048	-0.036	0.088
-464.128	584.203	-0.059	0.144
-463.113	601.792	0.051	0.127
-462.099	-200.000	-0.048	0.224
-461.084	251.961	0.047	0.079
-460.070	800.000	0.078	0.314
-459.055	-183.150	0.285	-0.005
-458.040	-70.441	0.171	0.064
-457.026	-63.780	0.256	-0.104
-456.011	38.059	0.232	-0.205
-454.997	-43.917	0.110	0.055
-453.982	-29.639	0.339	-0.192
-452.968	30.185	-0.135	0.115
-451.953	-133.300	0.060	0.007
-450.938	155.777	0.055	-0.075
-449.924	800.000	0.118	-0.369
-448.909	-158.038	0.126	-0.007
-447.895	124.070	-0.199	0.248
-446.880	-200.000	-0.033	-0.146
-445.865	117.264	-0.073	-0.089
-444.851	346.989	0.084	-0.165
-443.836	219.661	-0.114	0.181
-442.822	30.456	-0.081	-0.069
-441.807	-200.000	-0.068	0.321
-440.792	102.494	0.163	0.189
-439.778	800.000	-0.053	-0.163
-438.763	-115.913	0.230	-0.043
-437.749	211.700	-0.248	-0.388
-436.734	-36.634	0.323	-0.173
-435.719	-136.918	-0.295	-0.034
-434.705	115.420	0.121	-0.147
-433.690	-200.000	0.039	-0.208
-432.676	-200.000	-0.031	-0.137
-431.661	-101.880	-0.359	0.086
-430.646	-83.088	-0.148	0.047
-429.632	-112.222	-0.351	0.070
-428.617	351.035	0.048	0.094
-427.603	-4.865	0.026	0.018
-426.588	626.598	0.056	0.140
-425.573	8.721	-0.120	0.090
-424.559	-58.961	-0.033	-0.014
-423.544	-36.546	-0.379	-0.202
-422.530	-106.824	0.054	0.012
-421.515	83.672	0.125	-0.136
-420.500	-120.536	0.179	0.030
-419.486	800.000	0.061	0.261
-418.471	374.405	0.126	0.255
-417.457	-200.000	-0.042	-0.222
-416.442	-200.000	-0.020	0.135
-415.428	53.542	-0.161	0.153
-414.413	-200.000	-0.015	0.092
-413.398	30.973	0.152	-0.129
-412.384	131.586	-0.270	-0.344
-411.369	-137.627	-0.180	-0.020
-410.355	-0.137	0.138	-0.097
-409.340	-125.993	-0.408	0.061
-408.325	-42.731	0.173	-0.087
-407.311	91.759	0.076	-0.084
-406.296	-200.000	0.007	0.447
-405.282	-79.999	0.200	-0.067
-404.267	-200.000	-0.004	-0.210
-403.252	13.039	-0.184	0.141
-402.238	265.371	0.044	0.076
-401.223	572.083	-0.020	-0.048
-400.209	-132.778	-0.155	0.020
-399.194	-43.978	0.312	0.155
-398.179	-50.629	-0.211	-0.099
-397.165	268.779	0.145	0.252
-396.150	611.570	-0.225	0.558
-395.136	-142.908	-0.093	-0.009
-394.121	-11.803	-0.210	-0.137
-393.106	-200.000	-0.005	-0.162
-392.092	132.844	-0.131	-0.168
-391.077	109.513	-0.047	0.056
-390.063	88.382	0.097	-0.107
-389.048	26.686	-0.314	0.261
-388.033	618.096	-0.054	0.135
-387.019	-200.000	-0.005	-0.034
-386.004	137.106	0.296	0.383
-384.990	49.091	-0.060	-0.056
-383.975	-180.671	-0.276	-0.006
-382.960	145.197	0.148	-0.196
-381.946	-74.729	-0.340	-0.121
-380.931	-2.900	0.308	0.213
-379.917	-175.228	-0.148	0.004
-378.902	-200.000	0.054	-0.259
-377.888	-200.000	0.032	-0.422
-376.873	-53.110	0.214	-0.097
-375.858	8.453	0.198	-0.148
-374.844	-42.995	0.247	-0.124
-373.829	800.000	-0.038	0.136
-372.815	175.668	-0.281	-0.404
-371.800	309.498	-0.117	-0.217
-370.785	48.563	0.180	-0.168
-369.771	-139.714	0.394	0.042
-368.756	79.280	-0.179	0.191
-367.742	-15.967	0.333	-0.210
-366.727	-147.703	0.163	-0.014
-365.712	-119.818	0.301	0.051
-364.698	-105.177	-0.280	0.063
-363.683	500.174	0.091	0.207
-362.669	-83.055	0.333	0.106
-361.654	0.678	0.186	0.132
-360.639	-85.445	0.234	0.072
-359.625	-149.584	0.677	0.053
-358.610	-54.699	-0.294	-0.132
-357.596	444.449	0.128	-0.279
-356.581	-72.514	-0.344	-0.126
-355.566	-200.000	0.062	0.346
-354.552	-55.748	-0.112	-0.049
-353.537	23.737	0.172	-0.140
-352.523	198.507	-0.138	0.209
-351.508	63.485	-0.233	0.231
-350.493	-24.602	0.057	0.034
-349.479	-142.776	0.211	0.020
-348.464	800.000	0.099	0.351
-347.450	-67.489	-0.279	-0.109
-346.435	-102.534	0.297	0.070
-345.420	-26.773	0.259	0.150
-344.406	117.608	0.317	-0.386
-343.391	-58.993	-0.227	-0.097
-342.377	-200.000	-0.017	-0.313
-341.362	-84.010	-0.230	-0.072
-340.348	-99.369	0.190	-0.048
-339.333	297.889	-0.188	0.343
-338.318	-147.048	-0.193	-0.016
-337.304	-12.025	0.179	0.116
-336.289	-143.367	0.045	0.004
-335.275	-53.671	0.041	-0.019
-334.260	680.161	0.085	0.220
-333.245	800.000	-0.072	-0.224
-332.231	-200.000	-0.021	0.198
-331.216	-30.873	-0.117	-0.066
-330.202	800.000	-0.066	-0.239
-329.187	-15.869	-0.098	0.062
-328.172	31.491	0.122	-0.103
-327.158	24.192	0.130	-0.106
-326.143	71.980	-0.063	0.065
-325.129	-134.761	-0.104	0.012
-324.114	81.322	0.299	0.320
-323.099	89.543	0.092	0.101
-322.085	-90.831	-0.157	-0.045
-321.070	-68.992	-0.301	0.115
-320.056	309.104	0.197	0.365
-319.041	-125.365	0.230	-0.035
-318.026	-117.421	-0.233	0.042
-317.012	433.187	0.059	-0.127
-315.997	109.621	0.095	0.112
-314.983	450.986	-0.129	0.282
-313.968	800.000	-0.070	-0.289
-312.953	800.000	-0.052	-0.157
-311.939	-200.000	-0.013	-0.128
-310.924	258.956	-0.122	0.208
-309.910	800.000	0.059	0.191
-308.895	-54.157	-0.379	0.170
-307.880	450.586	0.097	0.212
-306.866	73.592	0.154	0.160
-305.851	-200.000	-0.043	-0.312
-304.837	-179.804	0.159	-0.003
-303.822	-122.288	-0.255	-0.041
-302.807	-200.000	-0.089	-0.458
-301.793	-159.473	0.246	-0.014
-300.778	49.234	-0.254	-0.236
-299.764	-46.981	-0.224	-0.108
-298.749	-136.823	0.246	-0.028
-297.735	322.296	0.101	-0.191
-296.720	-116.299	-0.278	-0.051
-295.705	171.963	-0.233	-0.330
-294.691	800.000	0.117	0.457
-293.676	-200.000	0.004	0.276
-292.662	800.000	0.052	0.216
-291.647	-200.000	0.017	0.319
-290.632	-31.950	0.311	-0.172
-289.618	-200.000	0.001	-0.135
-288.603	-200.000	-0.003	0.271
-287.589	58.198	-0.199	-0.193
-286.574	138.267	-0.074	-0.096
-285.559	-100.504	0.147	-0.036
-284.545	114.447	-0.089	-0.107
-283.530	-163.122	0.170	-0.008
-282.516	-200.000	0.010	-0.044
-281.501	76.733	0.079	0.083
-280.486	-200.000	-0.035	-0.285
-279.472	697.853	-0.026	-0.066
-278.457	-71.977	-0.247	0.091
-277.443	0.134	-0.124	0.087
-276.428	28.824	0.232	0.194
-275.413	-71.096	0.345	-0.128
-274.399	13.717	-0.078	-0.060
-273.384	-24.724	0.309	-0.181
-272.370	158.575	-0.224	0.308
-271.355	-200.000	0.026	-0.182
-270.340	-132.732	0.273	-0.035
-269.326	-83.143	-0.168	0.053
-268.311	33.698	-0.218	0.187
-267.297	-200.000	-0.030	-0.173
-266.282	-23.206	-0.072	0.043
-265.267	62.862	-0.054	0.053
-264.253	725.136	0.128	-0.336
-263.238	133.420	0.323	-0.412
-262.224	-13.213	-0.373	0.239
-261.209	1.668	0.040	0.028
-260.195	-74.155	0.108	-0.039
-259.180	-125.952	0.248	0.037
-258.165	800.000	0.033	0.101
-257.151	645.172	-0.032	-0.080
-256.136	52.185	-0.057	0.053
-255.122	170.959	-0.154	-0.218
-254.107	108.667	-0.328	0.387
-253.092	-200.000	-0.007	0.281
-252.078	-200.000	0.029	0.510
-251.063	252.858	0.113	-0.189
-250.049	-200.000	-0.006	-0.088
-249.034	394.156	-0.080	-0.164
-248.019	64.661	0.128	-0.127
-247.005	102.760	-0.188	-0.218
-245.990	-21.675	-0.203	0.122
-244.976	-65.194	0.029	0.011
-243.961	800.000	0.115	-0.374
-242.946	-71.116	0.230	0.085
-241.932	152.207	-0.282	0.379
-240.917	-200.000	0.019	0.297
-239.903	800.000	-0.069	0.192
-238.888	174.812	0.171	0.244
-237.873	800.000	0.060	0.224
-236.859	-143.095	-0.192	0.018
-235.844	238.767	-0.101	-0.166
-234.830	114.291	-0.051	-0.062
-233.815	160.926	-0.152	-0.209
-232.800	-200.000	-0.038	-0.175
-231.786	-200.000	0.009	-0.122
-230.771	-200.000	-0.036	0.206
-229.757	-200.000	0.004	0.153
-228.742	-200.000	0.032	0.167
-227.727	14.869	-0.388	-0.299
-226.713	-105.394	-0.266	0.060
-225.698	97.654	0.107	0.121
-224.684	800.000	-0.106	-0.299
-223.669	83.451	-0.154	-0.166
-222.655	-66.443	0.296	-0.116
-221.640	800.000	0.055	-0.181
-220.625	225.560	-0.200	0.319
-219.611	-95.269	-0.320	0.085
-218.596	-200.000	0.021	0.109
-217.582	41.718	0.148	0.132
-216.567	416.428	0.070	0.148
-215.552	-149.931	0.354	-0.027
-214.538	-200.000	0.013	0.353
-213.523	-200.000	-0.016	0.350
-212.509	2.543	-0.353	-0.252
-211.494	-119.968	-0.237	-0.040
-210.479	-107.181	0.168	0.036
-209.465	-200.000	-0.030	0.171
-208.450	555.318	-0.114	0.270
-207.436	466.289	-0.052	-0.114
-206.421	324.205	0.050	0.095
-205.406	800.000	-0.113	-0.360
-204.392	226.049	-0.148	0.236
-203.377	-200.000	0.011	0.185
-202.363	-73.832	-0.178	0.064
-201.348	-137.370	-0.131	-0.015
-200.333	408.080	0.118	-0.245
-199.319	0.766	-0.265	0.187
-198.304	-137.354	-0.276	-0.031
-197.290	-166.695	-0.065	-0.003
-196.275	92.950	-0.150	-0.167
-195.260	-38.779	0.129	0.067
-194.246	-9.905	0.115	0.076
-193.231	-93.821	0.267	-0.072
-192.217	-16.622	-0.204	0.127
-191.202	268.882	0.026	0.044
-190.187	-38.198	0.105	-0.055
-189.173	95.685	0.298	-0.335
-188.158	174.208	0.083	0.118
-187.144	-81.354	0.124	0.040
-186.129	800.000	0.078	0.225
-185.114	-35.182	-0.247	0.132
-184.100	471.497	0.105	-0.233
-183.085	197.499	-0.062	0.093
-182.071	-195.227	-0.291	0.002
-181.056	238.117	-0.140	-0.228
-180.042	-46.866	0.216	-0.104
-179.027	129.752	0.154	0.193
-178.012	-168.165	0.219	-0.008
-176.998	-107.335	-0.141	0.031
-175.983	-200.000	0.017	-0.153
-174.969	-10.462	0.143	-0.093
-173.954	-174.776	0.083	0.002
-172.939	-128.208	0.326	0.046
-171.925	-88.861	0.400	0.117
-170.910	800.000	0.108	-0.335
-169.896	-200.000	0.036	-0.380
-168.881	-95.142	-0.093	-0.025
-167.866	800.000	-0.069	-0.248
-166.852	-29.596	0.297	-0.167
-165.837	378.876	0.178	0.358
-164.823	-45.847	0.131	-0.064
-163.808	-59.550	-0.299	-0.126
-162.793	49.814	0.124	-0.115
-161.779	154.275	0.107	-0.144
-160.764	62.673	0.273	-0.268
-159.750	-200.000	-0.032	0.230
-158.735	-123.581	0.222	0.035
-157.720	261.796	0.022	-0.037
-156.706	-200.000	0.017	-0.128
-155.691	-116.399	0.324	-0.059
-154.677	-12.476	-0.183	0.118
-153.662	-77.203	-0.347	-0.119
-152.647	102.068	0.106	0.121
-151.633	95.594	0.061	-0.068
-150.618	226.124	-0.172	0.274
-149.604	-90.340	0.060	0.017
-148.589	297.913	0.039	-0.070
-147.574	-64.000	0.168	-0.067
-146.560	800.000	0.090	0.323
-145.545	-14.124	0.164	-0.104
-144.531	122.575	0.053	-0.065
-143.516	-54.871	-0.114	0.050
-142.502	220.876	0.069	-0.109
-141.487	-25.723	0.093	0.054
-140.472	162.660	-0.083	-0.114
-139.458	-135.564	0.280	-0.033
-138.443	-46.820	-0.256	-0.123
-137.429	-156.188	0.236	-0.015
-136.414	266.428	-0.064	0.110
-135.399	15.710	0.145	0.112
-134.385	423.456	0.088	0.186
-133.370	108.474	-0.253	-0.297
-132.356	47.352	0.125	0.115
-131.341	800.000	0.015	-0.055
-130.326	-172.616	-0.284	0.009
-129.312	73.640	0.142	0.146
-128.297	-200.000	-0.028	0.195
-127.283	-173.323	0.201	0.006
-126.268	-27.104	-0.042	0.024
-125.253	348.933	-0.084	0.163
-124.239	82.787	0.282	-0.301
-123.224	-181.075	0.404	0.008
-122.210	-104.402	0.313	0.071
-121.195	-162.872	0.166	0.008
-120.180	-104.391	0.237	-0.054
-119.166	-58.471	-0.275	-0.117
-118.151	80.910	-0.129	0.137
-117.137	194.653	-0.171	0.255
-116.122	279.480	-0.165	0.290
-115.107	800.000	-0.087	0.242
-114.093	39.010	0.095	-0.083
-113.078	30.333	0.121	-0.101
-112.064	102.063	-0.228	0.262
-111.049	-134.928	0.052	0.006
-110.034	-150.079	-0.274	-0.021
-109.020	-195.800	-0.348	0.002
-108.005	537.903	-0.065	0.151
-106.991	367.446	-0.090	0.178
-105.976	-91.248	-0.510	0.143
-104.962	-105.314	0.228	0.051
-103.947	262.436	-0.224	0.381
-102.932	170.704	-0.181	0.255
-101.918	-46.006	0.111	-0.054
-100.903	228.173	0.273	0.436
-99.889	55.678	0.102	-0.097
-98.874	800.000	-0.028	-0.080
-97.859	-49.889	0.219	0.102
-96.845	-131.961	-0.130	0.017
-95.830	-144.394	-0.210	0.019
-94.816	252.649	0.201	-0.336
-93.801	-64.151	0.178	-0.071
-92.786	-81.687	0.139	0.045
-91.772	-200.000	0.007	0.296
-90.757	800.000	0.035	0.148
-89.743	-200.000	0.008	-0.199
-88.728	697.945	0.089	0.228
-87.713	27.765	-0.217	-0.179
-86.699	70.425	-0.073	0.074
-85.684	800.000	0.059	0.231
-84.670	141.212	0.070	0.090
-83.655	-154.851	0.216	0.014
-82.640	-111.297	-0.216	-0.043
-81.626	-116.057	-0.239	0.044
-80.611	545.738	-0.166	-0.389
-79.597	-148.536	0.180	0.014
-78.582	-40.459	0.280	0.143
-77.567	74.771	-0.252	0.260
-76.553	-107.296	0.265	-0.057
-75.538	800.000	0.059	-0.193
-74.524	-126.220	0.519	-0.076
-73.509	449.844	-0.090	0.194
-72.494	-36.115	-0.130	-0.069
-71.480	-191.673	0.308	0.003
-70.465	57.050	-0.160	0.153
-69.451	-200.000	-0.091	0.395
-68.436	-148.178	-0.169	0.014
-67.422	-80.088	0.320	-0.105
-66.407	212.710	-0.150	-0.231
-65.392	-97.094	0.292	0.075
-64.378	-76.435	-0.180	-0.062
-63.363	575.876	-0.151	-0.361
-62.349	277.296	0.028	0.050
-61.334	-15.927	-1.520	-0.948
-60.319	16.826	0.591	0.458
-59.305	-200.000	-0.018	-0.885
-58.290	412.108	0.508	1.057
-57.276	264.404	0.678	1.156
-56.261	-200.000	111.887	615.499
-55.246	505.338	1530.344	3470.770
-54.232	173.846	2717.648	3841.660
-53.217	101.634	2305.642	2631.523
-52.203	37.092	1908.218	1653.497
-51.188	31.052	1694.968	1422.743
-50.173	28.479	1652.793	1368.118
-49.159	48.206	1708.501	1564.450
-48.144	47.940	1722.614	1575.298
-47.130	30.515	1679.527	1405.500
-46.115	27.929	1664.822	1373.717
-45.100	27.725	1659.645	1367.866
-44.086	27.600	1657.659	1365.236
-43.071	27.634	1654.829	1363.107
-42.057	27.620	1652.172	1360.761
-41.042	27.740	1649.915	1359.739
-40.027	27.662	1648.239	1357.725
-39.013	27.589	1646.022	1355.303
-37.998	27.627	1644.783	1354.508
-36.984	27.634	1643.612	1353.548
-35.969	27.674	1642.126	1352.561
-34.954	27.767	1640.347	1351.734
-33.940	27.769	1638.589	1350.245
-32.925	27.720	1637.302	1348.768
-31.911	27.769	1635.092	1347.256
-30.896	27.712	1633.635	1345.584
-29.881	27.849	1631.382	1344.682
-28.867	27.674	1630.521	1342.628
-27.852	27.701	1628.760	1341.326
-26.838	27.669	1627.372	1339.897
-25.823	27.826	1625.498	1339.453
-24.809	27.719	1625.271	1338.425
-23.794	27.807	1623.268	1337.366
-22.779	27.807	1621.674	1336.006
-21.765	27.736	1620.067	1334.105
-20.750	27.752	1618.849	1333.169
-19.736	27.782	1617.673	1332.362
-18.721	27.821	1616.213	1331.393
-17.706	27.787	1614.871	1329.985
-16.692	27.830	1612.961	1328.674
-15.677	27.806	1611.716	1327.422
-14.663	27.862	1610.164	1326.495
-13.648	27.790	1609.277	1325.192
-12.633	27.847	1607.155	1323.804
-11.619	27.807	1605.548	1322.140
-10.604	27.819	1604.008	1320.902
-9.590	27.768	1602.968	1319.630
-8.575	27.740	1601.807	1318.421
-7.560	27.775	1600.853	1317.833
-6.546	27.683	1599.927	1316.357
-5.531	27.833	1598.278	1316.025
-4.517	27.796	1597.528	1315.090
-3.502	27.846	1596.341	1314.423
-2.487	27.917	1594.283	1313.183
-1.473	27.759	1582.999	1302.709
-0.458	25.245	1564.828	1269.938
0.556	23.990	1566.287	1240.325
1.571	21.797	1591.313	1244.483
2.586	21.162	1604.441	1250.092
3.600	18.879	1549.422	1191.311
4.615	11.704	1441.554	1061.839
5.629	5.296	1381.278	977.373
6.644	4.210	1373.097	964.741
7.659	4.197	1372.826	964.388
8.673	4.330	1371.396	964.123
9.688	4.423	1369.212	963.082
10.702	4.299	1366.363	960.221
11.717	7.281	1371.691	982.391
12.731	15.045	1385.750	1040.825
13.746	21.113	1396.037	1086.350
14.761	22.537	1397.214	1096.033
15.775	21.869	1395.548	1090.480
16.790	20.992	1393.108	1083.031
17.804	20.255	1390.364	1076.231
18.819	19.903	1389.673	1073.421
19.834	19.870	1388.442	1072.170
20.848	19.701	1387.634	1070.406
21.863	19.479	1386.622	1068.153
22.877	19.389	1385.425	1066.584
23.892	19.435	1384.360	1065.949
24.907	19.229	1383.968	1064.282
25.921	19.347	1382.501	1063.786
26.936	19.274	1381.724	1062.648
27.950	19.447	1380.615	1062.763
28.965	19.498	1379.791	1062.348
29.980	19.587	1378.724	1061.980
30.994	19.756	1377.939	1062.323
32.009	19.759	1376.812	1061.378
33.023	19.912	1374.844	1060.707
34.038	19.642	1374.472	1058.669
35.053	19.542	1372.964	1056.800
36.067	19.575	1372.129	1056.269
37.082	19.486	1371.556	1055.190
38.096	19.653	1370.001	1054.919
39.111	19.725	1369.106	1054.574
40.126	19.485	1368.561	1052.602
41.140	19.264	1367.064	1050.007
42.155	19.135	1366.368	1048.596
43.169	19.079	1366.332	1048.135
44.184	19.006	1365.875	1047.246
45.199	19.064	1365.791	1047.439
46.213	19.234	1365.392	1048.077
47.228	19.503	1364.694	1049.082
48.242	19.604	1363.288	1048.526
49.257	19.419	1362.297	1046.544
50.271	19.549	1360.521	1045.879
51.286	19.511	1359.387	1044.686
52.301	19.349	1358.318	1042.787
53.315	19.303	1356.973	1041.384
54.330	19.274	1355.735	1040.170
55.344	19.094	1355.300	1038.656
56.359	19.150	1353.707	1037.681
57.374	19.155	1352.626	1036.793
58.388	19.040	1352.724	1036.079
59.403	18.989	1351.635	1034.847
60.417	19.010	1350.674	1034.151
61.432	18.911	1349.934	1032.894
62.447	18.827	1348.872	1031.488
63.461	18.804	1347.690	1030.357
64.476	18.834	1346.514	1029.545
65.490	18.843	1345.093	1028.422
66.505	18.794	1343.919	1027.139
67.520	18.793	1343.015	1026.353
68.534	18.857	1341.913	1025.800
69.549	18.896	1340.448	1024.825
70.563	18.741	1340.220	1023.635
71.578	18.602	1338.784	1021.615
72.593	18.601	1337.596	1020.612
73.607	18.494	1337.523	1019.835
74.622	18.499	1336.650	1019.103
75.636	18.635	1335.662	1019.069
76.651	18.610	1335.085	1018.392
77.666	18.738	1334.103	1018.309
78.680	18.870	1334.110	1019.009
79.695	18.820	1333.743	1018.345
80.709	18.904	1332.979	1018.167
81.724	19.023	1332.257	1018.229
82.739	19.274	1330.986	1018.653
83.753	19.287	1330.642	1018.378
84.768	19.613	1329.645	1019.447
85.782	19.559	1328.882	1018.454
86.797	19.586	1327.430	1017.411
87.812	19.527	1326.335	1016.131
88.826	19.543	1324.918	1015.052
89.841	19.549	1323.671	1014.043
90.855	19.616	1323.489	1014.205
91.870	19.762	1322.564	1014.264
92.884	19.688	1321.725	1013.098
93.899	19.712	1321.154	1012.711
94.914	19.742	1320.446	1012.253
95.928	19.780	1319.494	1011.654
96.943	19.705	1318.373	1010.266
97.957	19.643	1317.424	1009.091
98.972	19.684	1316.626	1008.626
99.987	19.666	1315.392	1007.490
101.001	19.631	1314.498	1006.511
102.016	19.692	1313.927	1006.342
103.030	19.593	1312.818	1004.824
104.045	19.577	1312.341	1004.277
105.060	19.391	1311.047	1002.119
106.074	19.229	1309.050	999.567
107.089	18.813	1307.462	995.855
108.103	18.841	1305.847	994.694
109.118	18.966	1304.039	993.953
110.133	18.870	1303.106	992.599
111.147	18.910	1302.046	991.935
112.162	18.982	1300.803	991.316
113.176	18.967	1299.588	990.217
114.191	19.050	1299.133	990.259
115.206	19.029	1297.833	989.060
116.220	19.084	1296.296	988.118
117.235	18.994	1295.750	987.100
118.249	18.896	1294.757	985.691
119.264	18.808	1293.167	983.889
120.279	18.728	1292.192	982.603
121.293	18.784	1291.109	982.012
122.308	18.711	1289.802	980.512
123.322	18.682	1288.634	979.372
124.337	18.532	1287.409	977.502
125.352	18.555	1286.496	976.855
126.366	18.618	1285.440	976.321
127.381	18.565	1284.262	975.043
128.395	18.681	1282.827	974.526
129.410	18.625	1282.484	973.860
130.424	18.711	1281.641	973.618
131.439	18.726	1281.325	973.379
132.454	18.903	1280.294	973.514
133.468	18.998	1279.362	973.253
134.483	18.971	1278.738	972.545
135.497	19.114	1277.503	972.322
136.512	19.093	1276.630	971.457
137.527	18.985	1275.326	969.770
138.541	19.101	1273.729	969.120
139.556	19.154	1273.069	968.834
140.570	19.312	1271.747	968.630
141.585	19.422	1270.737	968.392
142.600	19.380	1270.007	967.513
143.614	19.578	1268.970	967.746
144.629	19.600	1268.133	967.149
145.643	19.555	1266.991	965.936
146.658	19.443	1265.552	964.128
147.673	19.240	1264.054	961.770
148.687	19.065	1262.552	959.567
149.702	19.100	1261.125	958.589
150.716	18.991	1259.992	957.042
151.731	19.026	1258.792	956.241
152.746	19.143	1257.407	955.749
153.760	19.136	1256.080	954.617
154.775	19.322	1255.317	954.984
155.789	19.290	1254.859	954.377
156.804	19.297	1253.928	953.622
157.819	19.443	1252.639	953.363
158.833	19.487	1252.154	953.154
159.848	19.830	1250.825	953.946
160.862	19.629	1250.552	952.548
161.877	19.293	1248.761	949.249
162.892	18.957	1247.841	946.616
163.906	19.052	1246.718	946.202
164.921	18.985	1245.632	944.930
165.935	19.077	1244.997	944.866
166.950	19.313	1244.266	945.526
167.964	19.124	1244.021	944.215
168.979	19.231	1243.078	944.005
169.994	19.206	1242.300	943.194
171.008	19.251	1241.386	942.662
172.023	19.289	1241.276	942.705
173.037	19.535	1240.479	943.358
174.052	19.613	1238.974	942.557
175.067	19.272	1238.007	939.878
176.081	19.110	1236.768	937.969
177.096	19.102	1235.802	937.114
178.110	19.246	1234.669	936.952
179.125	19.198	1234.032	936.128
180.140	19.248	1232.976	935.512
181.154	19.322	1231.872	934.997
182.169	19.581	1230.555	935.313
183.183	19.562	1229.884	934.619
184.198	19.702	1228.593	934.314
185.213	19.608	1227.564	932.941
186.227	19.603	1226.594	932.094
187.242	19.647	1225.764	931.619
188.256	19.702	1224.909	931.181
189.271	19.848	1223.747	930.998
190.286	19.634	1222.258	928.637
191.300	19.187	1221.382	925.488
192.315	19.084	1220.845	924.443
193.329	19.159	1219.818	923.986
194.344	19.260	1219.332	924.078
195.359	19.237	1219.385	923.913
196.373	19.453	1217.929	923.889
197.388	19.575	1218.236	924.692
198.402	19.823	1217.748	925.568
199.417	19.930	1217.016	925.502
200.432	20.040	1216.783	925.829
201.446	20.213	1215.936	926.026
202.461	20.143	1215.439	925.190
203.475	20.162	1214.266	924.320
204.490	19.971	1212.930	922.201
205.504	19.726	1211.436	919.680
206.519	19.696	1210.213	918.511
207.534	19.640	1209.351	917.478
208.548	19.658	1208.031	916.492
209.563	19.728	1207.121	916.091
210.577	19.761	1206.086	915.398
211.592	19.810	1205.643	915.244
212.607	20.068	1204.693	915.804
213.621	19.908	1204.242	914.535
214.636	19.975	1202.736	913.661
215.650	19.880	1202.510	912.908
216.665	19.987	1201.943	912.963
217.680	20.124	1201.301	913.113
218.694	20.116	1200.261	912.205
219.709	20.124	1199.188	911.348
220.723	20.041	1198.540	910.340
221.738	20.027	1197.994	909.773
222.753	20.023	1196.884	908.825
223.767	20.115	1196.303	908.787
224.782	20.252	1196.025	909.215
225.796	20.389	1195.329	909.319
226.811	20.293	1194.211	907.887
227.826	20.196	1193.520	906.777
228.840	19.983	1193.037	905.212
229.855	19.994	1192.440	904.741
230.869	19.977	1191.353	903.744
231.884	19.882	1190.403	902.449
232.899	19.836	1189.562	901.491
233.913	19.781	1188.722	900.490
234.928	19.790	1187.828	899.781
235.942	19.633	1187.446	898.592
236.957	19.660	1186.478	897.920
237.972	19.657	1185.776	897.296
238.986	19.777	1184.794	897.097
240.001	19.802	1184.342	896.805
241.015	19.742	1183.802	896.007
242.030	19.859	1182.876	895.832
243.045	20.120	1181.853	896.328
244.059	20.007	1181.267	895.220
245.074	20.037	1180.400	894.637
246.088	20.161	1179.464	894.487
247.103	20.258	1179.176	894.691
248.117	20.351	1178.615	894.663
249.132	20.584	1177.837	895.195
250.147	20.791	1177.708	896.084
251.161	20.870	1177.026	895.891
252.176	20.945	1176.149	895.533
253.190	20.977	1175.610	895.206
254.205	21.014	1175.024	894.869
255.220	21.140	1174.288	894.876
256.234	21.036	1173.784	893.878
257.249	21.047	1173.126	893.355
258.263	21.023	1172.392	892.594
259.278	20.979	1171.720	891.779
260.293	21.000	1171.449	891.603
261.307	21.115	1170.987	891.758
262.322	21.183	1169.910	891.208
263.336	21.155	1169.702	890.829
264.351	21.146	1169.093	890.239
265.366	21.097	1168.674	889.589
266.380	21.159	1167.828	889.185
267.395	21.023	1166.682	887.539
268.409	20.947	1165.651	886.291
269.424	20.963	1164.955	885.765
270.439	20.871	1164.383	884.785
271.453	20.926	1163.646	884.425
272.468	20.729	1162.527	882.497
273.482	20.669	1161.693	881.483
274.497	20.659	1161.372	881.112
275.512	20.744	1160.609	880.881
276.526	20.754	1159.827	880.262
277.541	20.772	1158.812	879.507
278.555	20.832	1158.491	879.485
279.570	21.059	1157.866	880.082
280.585	21.175	1157.440	880.265
281.599	21.297	1156.242	879.888
282.614	20.964	1154.973	877.171
283.628	20.951	1153.662	876.034
284.643	20.824	1153.167	874.940
285.657	20.941	1152.166	874.692
286.672	20.868	1151.243	873.546
287.687	20.920	1150.170	872.913
288.701	21.036	1149.798	873.138
289.716	21.021	1148.810	872.231
290.730	21.007	1147.988	871.463
291.745	21.029	1147.659	871.243
292.760	21.086	1146.891	870.870
293.774	21.150	1146.272	870.643
294.789	21.319	1146.049	871.240
295.803	21.243	1145.528	870.386
296.818	21.084	1144.167	868.486
297.833	21.044	1143.181	867.462
298.847	21.003	1142.756	866.857
299.862	20.959	1142.200	866.142
300.876	21.114	1141.363	866.197
301.891	21.214	1141.036	866.371
302.906	21.217	1140.576	865.960
303.920	21.487	1140.153	866.896
304.935	21.584	1139.287	866.645
305.949	21.703	1138.645	866.665
306.964	21.517	1138.301	865.411
307.979	21.437	1137.048	863.986
308.993	21.359	1136.485	863.092
310.008	21.499	1135.643	863.072
311.022	21.547	1135.017	862.753
312.037	21.489	1133.908	861.549
313.052	21.322	1133.178	860.096
314.066	21.262	1131.655	858.570
315.081	21.040	1130.688	856.668
316.095	20.978	1130.515	856.158
317.110	21.093	1129.632	855.978
318.125	21.073	1128.626	855.042
319.139	21.013	1128.129	854.296
320.154	21.027	1127.421	853.754
321.168	21.103	1126.797	853.574
322.183	21.034	1126.414	852.873
323.197	21.222	1125.590	853.092
324.212	21.121	1125.245	852.261
325.227	21.234	1125.081	852.613
326.241	21.233	1124.122	851.807
327.256	21.132	1123.000	850.390
328.270	21.103	1122.078	849.473
329.285	21.038	1121.315	848.507
330.300	21.167	1119.936	848.013
331.314	21.172	1119.195	847.402
332.329	21.143	1118.288	846.498
333.343	21.190	1117.713	846.216
334.358	21.434	1116.953	846.749
335.373	21.529	1116.318	846.653
336.387	21.507	1115.768	846.052
337.402	21.522	1115.061	845.515
338.416	21.532	1114.564	845.110
339.431	21.664	1113.958	845.213
340.446	21.859	1113.130	845.453
341.460	21.800	1112.844	844.875
342.475	22.060	1111.946	845.372
343.489	22.104	1111.107	844.869
344.504	22.045	1110.324	843.916
345.519	22.055	1109.762	843.460
346.533	22.090	1108.962	842.947
347.548	22.258	1107.903	842.876
348.562	22.123	1107.156	841.584
349.577	21.907	1106.473	839.956
350.592	21.785	1105.039	838.212
351.606	21.547	1104.464	836.563
352.621	21.510	1103.695	835.728
353.635	21.394	1102.941	834.528
354.650	21.556	1102.006	834.520
355.665	21.621	1101.632	834.474
356.679	21.671	1101.361	834.436
357.694	21.812	1100.452	834.341
358.708	21.922	1099.936	834.400
359.723	22.032	1099.058	834.181
360.738	21.821	1098.333	832.558
361.752	21.897	1098.117	832.679
362.767	21.817	1097.662	831.879
363.781	21.865	1097.266	831.734
364.796	22.038	1096.886	832.192
365.810	22.267	1095.896	832.455
366.825	22.324	1095.541	832.380
367.840	22.425	1095.184	832.512
368.854	22.645	1094.545	832.992
369.869	22.496	1093.767	831.621
370.883	22.365	1092.676	830.103
371.898	22.276	1092.177	829.228
372.913	22.127	1091.194	827.708
373.927	22.294	1091.056	828.318
374.942	22.414	1090.476	828.368
375.956	22.414	1089.939	827.887
376.971	22.375	1088.940	826.870
377.986	22.552	1088.593	827.367
379.000	22.535	1088.173	826.894
380.015	22.531	1087.754	826.483
381.029	22.649	1087.285	826.609
382.044	22.708	1086.593	826.284
383.059	22.537	1085.795	824.804
384.073	22.691	1084.428	824.414
385.088	22.609	1083.710	823.410
386.102	22.508	1082.931	822.273
387.117	22.408	1081.757	820.844
388.132	22.288	1080.185	819.021
389.146	22.221	1079.776	818.325
390.161	22.231	1079.073	817.766
391.175	22.150	1078.679	817.020
392.190	22.325	1078.225	817.415
393.205	22.437	1077.550	817.351
394.219	22.510	1076.531	816.845
395.234	22.392	1075.386	815.359
396.248	22.385	1074.111	814.289
397.263	22.438	1072.968	813.593
398.278	22.265	1072.481	812.351
399.292	22.047	1071.514	810.542
400.307	22.065	1071.094	810.235
401.321	22.062	1070.255	809.518
402.336	22.094	1069.461	808.991
403.350	22.027	1068.870	808.164
404.365	22.087	1068.337	807.967
405.380	22.358	1067.641	808.611
406.394	22.335	1067.005	807.953
407.409	22.522	1066.119	808.071
408.423	22.691	1065.953	808.647
409.438	22.775	1065.042	808.269
410.453	22.807	1064.934	808.261
411.467	22.818	1064.364	807.807
412.482	22.873	1063.376	807.240
413.496	22.992	1062.816	807.285
414.511	22.995	1062.155	806.724
415.526	23.154	1062.007	807.267
416.540	23.193	1061.578	807.050
417.555	22.969	1061.087	805.580
418.569	22.997	1059.888	804.727
419.584	22.935	1059.610	804.161
420.599	22.973	1059.385	804.093
421.613	157.051	1403.363	1795.562
422.628	144.406	1453.461	1795.663
