DTS Sentinel unit serial number:	SN413079Multiplexer serial number:	ORYXHardware model number:	OX4-SRSoftware version number:	ORYX F/W v4.00 Oryx Data Collector v3.7.2.0data status	okinstallation	princeton_trtdifferential loss correction	single-endedforward channel	channel 2reverse channel	N/Adate	2019/09/12time	07:41:11forward acquisition time	60.00reverse acquisition time	0.00gamma	496.2192k internal	0.2321k external	0.2321temperature offset calibration	1.0061default loss term (dB/km)	0.3790temperature slope calibration	1.0000multiplexer offset coefficient	1.0000multiplexer slope coefficient	1.0000fibre end	0.00T internal ref (°C)	32.72T ext. ref 1 (°C)	1.63T ext. ref 2 (°C)	29.08length (m)	temperature (°C)	Stokes	anti-Stokes-747.200	247.569	-0.075	0.128
-746.185	-111.306	-0.154	0.032
-745.171	186.395	0.041	0.062
-744.156	285.259	0.272	0.496
-743.142	-70.679	-0.045	0.017
-742.127	255.327	0.098	0.170
-741.112	257.270	0.193	0.335
-740.098	-63.826	-0.628	-0.260
-739.083	403.053	-0.053	0.112
-738.069	800.000	0.071	0.277
-737.054	580.315	-0.059	0.147
-736.039	-79.856	-0.466	-0.158
-735.025	-44.733	0.389	-0.196
-734.010	673.021	-0.048	0.127
-732.996	136.014	-0.130	0.171
-731.981	778.268	-0.065	0.180
-730.966	-41.882	-0.195	-0.101
-729.952	107.139	0.116	0.140
-728.937	81.170	-0.153	-0.167
-727.923	148.870	-0.209	-0.285
-726.908	-200.000	-0.010	-0.179
-725.894	-95.482	-0.103	0.028
-724.879	800.000	-0.042	-0.152
-723.864	-90.015	-0.193	0.057
-722.850	800.000	0.044	0.185
-721.835	-95.747	-0.350	-0.095
-720.821	46.196	0.165	0.155
-719.806	221.469	-0.106	0.172
-718.791	-200.000	-0.010	-0.100
-717.777	14.886	0.088	0.070
-716.762	-17.924	0.254	-0.161
-715.748	116.274	0.064	0.079
-714.733	-107.247	-0.164	-0.037
-713.718	800.000	0.049	-0.212
-712.704	-84.302	-0.188	0.060
-711.689	130.815	0.170	0.220
-710.675	800.000	-0.053	0.174
-709.660	-133.524	0.142	-0.018
-708.645	202.621	0.223	-0.347
-707.631	-176.567	-0.227	0.006
-706.616	-59.721	0.239	0.104
-705.602	331.322	0.142	0.277
-704.587	-83.781	-0.095	-0.030
-703.572	-197.939	-0.156	-0.001
-702.558	439.668	-0.040	0.088
-701.543	-138.696	0.335	0.037
-700.529	262.016	-0.175	0.306
-699.514	-200.000	-0.007	-0.226
-698.499	50.875	-0.303	0.290
-697.485	-69.903	0.023	-0.009
-696.470	-175.924	-0.210	-0.006
-695.456	47.077	0.216	-0.203
-694.441	688.796	0.125	-0.330
-693.426	-89.871	-0.278	0.082
-692.412	11.552	-0.239	-0.185
-691.397	333.729	-0.073	-0.142
-690.383	9.989	-0.211	-0.161
-689.368	-200.000	-0.057	-0.288
-688.354	114.456	-0.133	0.164
-687.339	489.283	-0.110	-0.254
-686.324	76.590	0.165	-0.177
-685.310	-38.029	0.222	-0.119
-684.295	-150.238	0.185	0.014
-683.281	-77.354	0.149	0.052
-682.266	142.290	-0.226	0.302
-681.251	800.000	0.053	-0.182
-680.237	137.545	-0.056	0.074
-679.222	-90.545	-0.079	0.023
-678.208	-84.619	-0.276	-0.088
-677.193	-200.000	0.028	0.181
-676.178	-46.747	0.213	-0.105
-675.164	122.248	0.071	-0.089
-674.149	-54.174	-0.262	0.120
-673.135	21.319	0.149	-0.122
-672.120	-9.557	0.111	-0.075
-671.105	-116.948	0.223	0.041
-670.091	276.225	0.047	-0.084
-669.076	-101.247	-0.186	-0.046
-668.062	628.181	-0.080	-0.203
-667.047	-200.000	-0.036	0.216
-666.032	206.367	-0.220	0.346
-665.018	438.883	0.217	0.477
-664.003	-9.137	0.308	-0.208
-662.989	-153.278	-0.265	0.019
-661.974	-109.573	0.309	-0.066
-660.959	37.616	0.256	-0.229
-659.945	800.000	-0.049	-0.190
-658.930	18.895	-0.066	0.053
-657.916	-200.000	0.038	-0.221
-656.901	-2.973	0.286	0.201
-655.886	673.249	0.035	-0.093
-654.872	326.376	0.046	0.088
-653.857	800.000	-0.069	-0.299
-652.843	24.895	-0.126	0.106
-651.828	-60.393	0.234	0.100
-650.814	-25.983	-0.201	-0.119
-649.799	-94.933	-0.082	-0.022
-648.784	11.095	0.295	0.227
-647.770	-200.000	0.020	-0.142
-646.755	42.282	0.057	-0.052
-645.741	-131.722	0.087	0.011
-644.726	-200.000	-0.065	-0.319
-643.711	-144.555	-0.481	-0.045
-642.697	11.394	-0.194	-0.150
-641.682	11.877	-0.126	0.097
-640.668	326.672	0.135	0.260
-639.653	-59.602	0.164	0.071
-638.638	-96.753	0.222	0.059
-637.624	142.415	0.098	-0.131
-636.609	-19.267	-0.385	0.241
-635.595	92.456	-0.209	0.237
-634.580	-21.332	0.112	0.069
-633.565	-5.600	-0.215	-0.149
-632.551	-43.022	0.163	-0.083
-631.536	-45.947	-0.271	0.135
-630.522	-200.000	-0.067	0.000
-629.507	-89.688	0.301	0.089
-628.492	637.041	-0.039	0.100
-627.478	22.719	0.099	0.081
-626.463	265.908	0.101	-0.177
-625.449	-200.000	-0.018	0.141
-624.434	-200.000	0.052	0.342
-623.419	800.000	-0.119	-0.341
-622.405	-23.658	-0.159	0.096
-621.390	100.419	-0.242	0.282
-620.376	190.511	0.203	0.306
-619.361	136.493	0.058	-0.076
-618.346	206.136	0.232	-0.362
-617.332	-85.713	-0.129	0.040
-616.317	192.526	0.243	-0.369
-615.303	-161.312	-0.165	0.009
-614.288	-122.204	-0.096	0.016
-613.273	-42.411	0.127	-0.065
-612.259	-200.000	0.018	-0.382
-611.244	56.455	-0.041	-0.040
-610.230	83.308	0.169	0.185
-609.215	131.206	0.216	0.279
-608.201	192.940	-0.081	0.123
-607.186	-200.000	0.046	0.251
-606.171	-200.000	-0.008	-0.065
-605.157	109.877	-0.120	-0.145
-604.142	107.567	-0.134	0.160
-603.128	-2.541	-0.138	0.097
-602.113	-151.460	0.184	0.014
-601.098	800.000	0.039	-0.124
-600.084	-159.339	0.093	-0.005
-599.069	12.934	0.109	0.084
-598.055	135.887	0.230	-0.301
-597.040	246.641	-0.071	-0.120
-596.025	55.376	0.168	-0.164
-595.011	-103.016	0.145	0.035
-593.996	-79.505	0.090	0.031
-592.982	-134.013	-0.472	0.059
-591.967	504.057	0.067	0.156
-590.952	159.839	0.201	0.281
-589.938	800.000	0.066	0.199
-588.923	206.105	-0.119	-0.186
-587.909	-184.790	0.124	-0.002
-586.894	5.624	-0.174	-0.129
-585.879	-200.000	0.011	-0.097
-584.865	-59.300	0.150	-0.065
-583.850	543.263	-0.075	0.180
-582.836	73.278	-0.170	-0.179
-581.821	136.511	-0.193	0.252
-580.806	130.056	-0.165	0.213
-579.792	74.122	0.192	0.202
-578.777	-200.000	-0.016	0.250
-577.763	-115.757	-0.294	-0.055
-576.748	171.922	-0.120	0.173
-575.733	490.863	0.150	0.345
-574.719	150.322	0.120	0.163
-573.704	254.030	-0.054	-0.093
-572.690	106.610	-0.058	0.069
-571.675	-15.785	-0.175	-0.112
-570.661	-29.931	0.148	-0.085
-569.646	791.491	-0.067	0.184
-568.631	130.740	-0.167	-0.216
-567.617	-168.723	-0.222	0.008
-566.602	131.890	0.127	0.164
-565.588	800.000	-0.044	-0.148
-564.573	800.000	-0.078	-0.304
-563.558	-86.350	0.283	0.087
-562.544	800.000	-0.130	0.398
-561.529	104.558	-0.123	-0.145
-560.515	-164.073	0.134	0.006
-559.500	391.374	-0.095	0.197
-558.485	-200.000	-0.045	-0.431
-557.471	800.000	-0.021	-0.068
-556.456	-200.000	-0.011	-0.181
-555.442	-172.307	0.096	0.003
-554.427	800.000	0.055	-0.202
-553.412	42.379	0.080	0.073
-552.398	153.015	-0.168	-0.230
-551.383	97.046	0.198	0.228
-550.369	800.000	0.024	0.075
-549.354	187.966	0.075	-0.112
-548.339	-111.052	-0.235	-0.048
-547.325	155.003	-0.079	0.109
-546.310	650.010	-0.042	0.109
-545.296	-200.000	0.004	-0.043
-544.281	-77.079	0.103	-0.036
-543.266	-200.000	-0.033	-0.157
-542.252	-154.518	0.244	0.016
-541.237	-200.000	-0.041	-0.196
-540.223	193.910	-0.079	-0.120
-539.208	-200.000	-0.003	0.017
-538.193	-82.535	-0.220	-0.072
-537.179	-9.521	0.079	-0.053
-536.164	126.061	0.175	-0.222
-535.150	-164.150	-0.252	0.012
-534.135	800.000	-0.061	-0.173
-533.121	58.130	-0.430	-0.422
-532.106	-200.000	-0.047	0.239
-531.091	-60.644	0.097	0.041
-530.077	-200.000	-0.024	-0.121
-529.062	-200.000	0.030	0.224
-528.048	4.103	-0.170	-0.125
-527.033	379.056	0.101	0.206
-526.018	-200.000	0.011	0.173
-525.004	147.740	-0.139	0.187
-523.989	-84.961	0.216	-0.068
-522.975	-58.890	0.222	0.096
-521.960	52.117	-0.086	0.082
-520.945	359.853	0.166	0.333
-519.931	-200.000	-0.012	0.219
-518.916	-60.258	0.186	-0.079
-517.902	-52.396	0.130	-0.060
-516.887	25.438	-0.300	-0.250
-515.872	-200.000	0.003	0.266
-514.858	-68.444	-0.270	-0.105
-513.843	-141.807	0.327	0.033
-512.829	30.137	0.150	0.128
-511.814	405.532	0.205	-0.434
-510.799	-74.533	-0.115	-0.041
-509.785	-64.172	-0.464	0.190
-508.770	194.649	-0.112	0.170
-507.756	14.639	0.159	-0.124
-506.741	-11.554	0.187	-0.123
-505.726	-110.016	-0.084	-0.018
-504.712	222.609	-0.160	-0.258
-503.697	-90.185	0.187	0.055
-502.683	-113.162	-0.039	-0.008
-501.668	639.604	-0.118	-0.299
-500.653	519.339	0.068	0.161
-499.639	646.761	0.091	-0.233
-498.624	-92.925	-0.224	-0.063
-497.610	-79.956	-0.205	0.069
-496.595	176.068	0.121	0.175
-495.581	344.730	0.078	-0.154
-494.566	60.118	0.170	0.168
-493.551	-200.000	-0.040	0.217
-492.537	-200.000	0.041	0.248
-491.522	800.000	-0.085	0.362
-490.508	-47.899	0.072	-0.035
-489.493	24.828	0.105	-0.087
-488.478	-200.000	-0.004	0.213
-487.464	-18.563	-0.068	-0.042
-486.449	14.659	0.199	0.155
-485.435	-102.154	0.289	0.070
-484.420	800.000	0.032	0.134
-483.405	-163.898	-0.035	0.002
-482.391	21.184	-0.085	-0.069
-481.376	107.391	-0.198	0.235
-480.362	-49.899	0.198	-0.094
-479.347	-161.023	0.331	-0.017
-478.332	-9.535	-0.258	0.172
-477.318	352.897	-0.058	0.114
-476.303	0.794	0.226	-0.162
-475.289	800.000	0.121	-0.384
-474.274	-96.561	0.098	-0.026
-473.259	-200.000	-0.023	0.104
-472.245	109.238	-0.065	0.078
-471.230	-200.000	0.010	-0.259
-470.216	800.000	-0.089	0.314
-469.201	51.034	0.117	-0.111
-468.186	-137.534	-0.104	0.012
-467.172	123.301	0.071	-0.088
-466.157	-148.929	-0.150	-0.012
-465.143	113.678	-0.203	0.246
-464.128	110.079	-0.228	-0.274
-463.113	800.000	-0.038	-0.164
-462.099	7.714	-0.335	0.250
-461.084	80.658	-0.113	0.122
-460.070	-130.727	0.293	0.039
-459.055	172.005	0.068	-0.098
-458.040	-124.407	-0.319	0.050
-457.026	-82.689	-0.308	-0.100
-456.011	-52.301	-0.172	0.080
-454.997	-102.031	-0.128	-0.031
-453.982	-200.000	0.072	-0.358
-452.968	-85.129	0.389	0.121
-451.953	470.915	0.116	0.261
-450.938	-194.989	-0.543	0.004
-449.924	156.554	0.187	-0.258
-448.909	664.035	-0.034	0.087
-447.895	-127.142	0.012	0.002
-446.880	-58.167	0.384	-0.167
-445.865	-200.000	0.010	-0.111
-444.851	-146.497	0.181	0.016
-443.836	-173.787	-0.032	-0.001
-442.822	-166.231	-0.194	-0.008
-441.807	-200.000	0.011	0.183
-440.792	114.594	-0.135	-0.164
-439.778	96.716	-0.144	-0.164
-438.763	-83.952	0.205	-0.065
-437.749	-165.987	0.193	-0.008
-436.734	-67.283	-0.258	-0.101
-435.719	-116.986	0.112	0.020
-434.705	-101.032	-0.275	-0.067
-433.690	-13.839	-0.095	-0.061
-432.676	38.147	0.149	0.132
-431.661	126.138	-0.063	-0.080
-430.646	-31.029	0.328	-0.185
-429.632	22.405	0.103	0.084
-428.617	-200.000	0.007	-0.041
-427.603	-96.445	-0.415	0.110
-426.588	-118.154	0.220	0.039
-425.573	-200.000	-0.062	-0.407
-424.559	-200.000	0.079	-0.354
-423.544	47.613	-0.165	0.153
-422.530	-200.000	-0.022	0.224
-421.515	-93.828	-0.262	-0.072
-420.500	-177.954	0.337	-0.008
-419.486	494.170	-0.138	0.317
-418.471	-116.636	-0.307	-0.056
-417.457	-200.000	0.024	0.199
-416.442	442.642	0.066	-0.144
-415.428	-200.000	-0.043	0.306
-414.413	-200.000	-0.010	-0.292
-413.398	313.381	-0.054	-0.101
-412.384	-152.616	0.173	0.012
-411.369	372.412	0.149	-0.302
-410.355	294.223	-0.036	-0.066
-409.340	-74.517	-0.390	0.140
-408.325	7.761	0.109	-0.082
-407.311	108.622	-0.143	-0.170
-406.296	-200.000	-0.005	0.057
-405.282	-200.000	0.019	0.135
-404.267	-200.000	0.000	-0.028
-403.252	-51.016	0.345	0.162
-402.238	-200.000	0.006	-0.129
-401.223	-77.124	0.077	-0.027
-400.209	341.684	-0.057	0.110
-399.194	-200.000	-0.068	0.319
-398.179	-132.504	0.346	0.044
-397.165	188.667	0.025	-0.037
-396.150	-200.000	0.026	0.463
-395.136	-172.538	-0.204	-0.006
-394.121	-200.000	-0.010	-0.139
-393.106	-200.000	-0.036	0.183
-392.092	142.668	-0.030	-0.040
-391.077	-69.659	0.247	-0.094
-390.063	13.946	-0.277	-0.215
-389.048	27.841	0.403	0.338
-388.033	149.425	-0.132	-0.178
-387.019	359.923	-0.019	0.037
-386.004	328.440	0.151	-0.290
-384.990	65.733	0.175	-0.177
-383.975	-90.310	0.330	0.096
-382.960	-25.534	0.067	-0.039
-381.946	350.303	0.058	0.114
-380.931	-72.683	-0.177	0.065
-379.917	800.000	0.022	-0.073
-378.902	7.415	0.219	0.163
-377.888	5.699	-0.481	0.354
-376.873	-200.000	-0.073	0.333
-375.858	-172.000	-0.340	0.011
-374.844	-19.267	0.286	-0.177
-373.829	715.308	0.100	-0.265
-372.815	306.666	0.057	0.106
-371.800	800.000	0.013	0.040
-370.785	58.085	-0.176	-0.172
-369.771	-29.818	0.147	0.083
-368.756	72.660	0.048	-0.049
-367.742	437.129	0.095	0.207
-366.727	5.421	0.248	0.182
-365.712	800.000	0.055	0.188
-364.698	-87.806	-0.161	-0.048
-363.683	-102.873	-0.151	0.036
-362.669	800.000	-0.036	0.157
-361.654	-117.777	0.337	-0.060
-360.639	-142.544	0.133	0.013
-359.625	-1.909	-0.198	-0.138
-358.610	213.550	-0.171	-0.270
-357.596	800.000	-0.075	0.259
-356.581	-40.722	-0.115	-0.059
-355.566	250.827	-0.068	-0.114
-354.552	151.148	-0.088	0.119
-353.537	772.340	0.113	0.306
-352.523	473.560	0.078	-0.175
-351.508	269.738	-0.085	-0.149
-350.493	-145.462	-0.303	-0.027
-349.479	139.285	-0.112	0.147
-348.464	-200.000	-0.026	0.161
-347.450	-97.296	0.228	0.059
-346.435	-106.110	0.079	-0.018
-345.420	-91.047	0.033	0.010
-344.406	-42.883	-0.267	0.135
-343.391	800.000	-0.075	0.279
-342.377	-104.926	-0.235	-0.054
-341.362	-200.000	-0.015	-0.078
-340.348	-160.894	-0.214	0.011
-339.333	-176.134	0.108	0.003
-338.318	21.340	0.073	-0.059
-337.304	-23.544	-0.103	0.062
-336.289	-200.000	0.052	-0.237
-335.275	-200.000	0.022	-0.216
-334.260	-200.000	-0.013	-0.116
-333.245	-132.702	-0.564	-0.072
-332.231	-158.255	-0.345	0.020
-331.216	-166.293	0.326	0.014
-330.202	-200.000	0.010	0.058
-329.187	-136.416	0.245	-0.028
-328.172	28.729	0.240	-0.202
-327.158	-106.603	0.154	-0.034
-326.143	123.199	0.194	0.242
-325.129	17.558	-0.057	-0.045
-324.114	-12.682	0.072	-0.046
-323.099	747.630	-0.071	0.191
-322.085	375.527	0.055	0.112
-321.070	347.413	-0.068	0.133
-320.056	-128.386	0.058	0.008
-319.041	56.075	-0.119	-0.115
-318.026	138.872	0.215	-0.280
-317.012	-90.759	-0.055	0.016
-315.997	58.954	0.264	0.258
-314.983	-200.000	0.068	-0.503
-313.968	-200.000	-0.017	-0.378
-312.953	-178.243	0.229	-0.005
-311.939	-94.380	-0.123	0.033
-310.924	-70.975	-0.112	0.042
-309.910	360.394	0.125	0.248
-308.895	-78.624	0.182	-0.062
-307.880	142.243	0.123	0.162
-306.866	2.544	0.039	-0.028
-305.851	-200.000	0.075	-0.369
-304.837	-200.000	0.020	0.284
-303.822	-11.449	0.210	-0.137
-302.807	116.322	-0.159	0.194
-301.793	93.503	-0.167	-0.188
-300.778	800.000	0.044	-0.120
-299.764	82.248	-0.114	-0.122
-298.749	-130.478	0.227	0.030
-297.735	-112.212	0.202	0.040
-296.720	-19.198	-0.267	0.164
-295.705	114.843	0.135	-0.164
-294.691	427.345	-0.148	-0.316
-293.676	552.827	0.030	0.073
-292.662	-200.000	-0.018	0.187
-291.647	134.503	0.144	0.186
-290.632	-57.611	-0.331	-0.144
-289.618	111.648	-0.055	-0.066
-288.603	34.385	-0.242	-0.209
-287.589	-95.460	0.115	0.031
-286.574	291.745	0.088	0.160
-285.559	-12.100	0.377	0.245
-284.545	-24.218	0.285	-0.169
-283.530	-173.025	0.322	-0.010
-282.516	-100.337	0.177	0.044
-281.501	79.621	0.038	-0.040
-280.486	421.849	-0.189	0.402
-279.472	-57.601	0.236	0.103
-278.457	-200.000	-0.019	-0.224
-277.443	97.522	-0.105	0.120
-276.428	184.744	-0.081	0.119
-275.413	433.457	0.101	-0.217
-274.399	-52.725	-0.606	0.277
-273.384	126.373	0.171	0.214
-272.370	38.234	-0.261	0.231
-271.355	25.996	0.220	-0.182
-270.340	-200.000	0.007	0.272
-269.326	-111.874	-0.245	-0.049
-268.311	-200.000	-0.023	-0.230
-267.297	-43.629	-0.301	0.151
-266.282	203.996	0.138	-0.212
-265.267	-106.620	0.137	-0.030
-264.253	-65.459	0.180	0.072
-263.238	89.544	-0.296	-0.328
-262.224	757.711	0.042	0.114
-261.209	-69.408	-0.251	0.095
-260.195	-76.138	-0.254	-0.089
-259.180	32.596	-0.008	-0.007
-258.165	-36.611	0.264	-0.141
-257.151	-200.000	-0.032	-0.441
-256.136	97.452	0.016	0.018
-255.122	-34.417	0.228	-0.124
-254.107	-145.434	0.175	-0.016
-253.092	52.603	-0.092	-0.087
-252.078	64.278	0.070	-0.070
-251.063	582.779	0.133	0.324
-250.049	800.000	0.189	0.541
-249.034	-6.145	-0.228	0.155
-248.019	-45.987	-0.346	-0.169
-247.005	-200.000	-0.053	-0.231
-245.990	-73.054	0.261	-0.095
-244.976	-94.743	-0.371	-0.100
-243.961	-65.520	-0.338	0.134
-242.946	5.441	-0.353	-0.258
-241.932	-98.695	0.204	-0.052
-240.917	125.710	-0.124	0.156
-239.903	265.907	-0.070	0.122
-238.888	388.818	0.051	-0.104
-237.873	800.000	0.077	0.298
-236.859	-49.589	0.370	-0.175
-235.844	153.896	0.067	-0.091
-234.830	-91.120	0.222	-0.063
-233.815	433.959	0.125	-0.270
-232.800	312.663	0.011	-0.020
-231.786	-200.000	0.008	-0.039
-230.771	-197.662	0.326	-0.002
-229.757	-64.061	-0.233	0.094
-228.742	-107.813	-0.181	-0.039
-227.727	170.912	0.082	-0.116
-226.713	236.435	-0.094	0.155
-225.698	-46.984	0.305	0.147
-224.684	197.586	-0.193	0.291
-223.669	-11.789	0.242	0.157
-222.655	244.650	-0.238	-0.396
-221.640	-135.647	-0.174	0.020
-220.625	33.563	0.240	-0.207
-219.611	2.261	-0.124	-0.089
-218.596	-97.929	-0.347	0.089
-217.582	-92.195	0.159	-0.044
-216.567	-103.457	-0.329	-0.077
-215.552	23.304	0.050	-0.041
-214.538	-68.172	0.211	-0.081
-213.523	-172.641	-0.129	-0.004
-212.509	-150.478	-0.394	-0.030
-211.494	-26.844	-0.104	0.060
-210.479	-200.000	0.048	-0.291
-209.465	-113.189	0.305	-0.059
-208.450	-200.000	-0.007	-0.329
-207.436	-103.011	0.272	0.064
-206.421	787.531	0.073	-0.198
-205.406	-200.000	-0.040	0.181
-204.392	-9.905	0.181	-0.119
-203.377	-200.000	-0.009	0.283
-202.363	312.753	-0.035	-0.065
-201.348	-145.709	0.276	0.024
-200.333	505.757	-0.219	0.503
-199.319	50.673	-0.173	0.162
-198.304	8.441	0.077	-0.057
-197.290	70.689	0.239	-0.244
-196.275	329.711	-0.153	-0.292
-195.260	87.922	0.191	0.209
-194.246	38.301	0.118	-0.104
-193.231	-82.737	0.100	0.032
-192.217	59.290	-0.158	0.154
-191.202	-96.220	-0.105	-0.028
-190.187	143.046	0.163	0.214
-189.173	-170.287	0.243	-0.008
-188.158	-60.692	-0.226	-0.095
-187.144	53.157	-0.213	-0.202
-186.129	-128.025	-0.061	-0.009
-185.114	-119.117	-0.103	0.018
-184.100	-200.000	0.063	0.353
-183.085	-200.000	-0.255	-0.000
-182.071	-22.464	0.266	-0.159
-181.056	800.000	0.035	0.131
-180.042	-155.100	-0.298	0.019
-179.027	78.859	0.149	-0.158
-178.012	-154.949	0.124	-0.008
-176.998	-200.000	-0.001	-0.071
-175.983	-154.177	-0.144	0.010
-174.969	-116.239	0.256	0.047
-173.954	88.267	0.212	0.233
-172.939	140.945	0.093	-0.122
-171.925	681.026	0.135	-0.349
-170.910	800.000	0.029	0.094
-169.896	307.568	-0.068	0.125
-168.881	190.711	0.245	0.364
-167.866	-10.039	0.207	0.136
-166.852	-48.445	-0.077	0.037
-165.837	-185.406	0.183	0.003
-164.823	-14.333	-0.457	-0.291
-163.808	160.056	-0.268	-0.369
-162.793	0.492	0.165	-0.117
-161.779	-118.824	0.106	0.018
-160.764	46.037	0.224	0.205
-159.750	430.659	0.056	0.119
-158.735	535.844	-0.086	-0.201
-157.720	-200.000	-0.058	-0.340
-156.706	-136.961	0.231	-0.026
-155.691	668.253	-0.141	-0.360
-154.677	-200.000	0.003	-0.206
-153.662	-85.915	-0.194	-0.059
-152.647	691.620	0.045	0.116
-151.633	447.236	-0.070	0.152
-150.618	152.887	-0.097	-0.131
-149.604	-47.224	0.309	0.149
-148.589	602.537	-0.062	-0.152
-147.574	115.184	0.100	0.121
-146.560	11.055	-0.066	0.050
-145.545	-200.000	-0.013	0.483
-144.531	89.717	0.297	0.328
-143.516	800.000	0.053	0.192
-142.502	-131.918	0.309	-0.040
-141.487	800.000	0.043	-0.140
-140.472	800.000	0.090	-0.264
-139.458	-178.342	0.086	-0.002
-138.443	156.516	0.053	-0.073
-137.429	44.836	0.276	-0.251
-136.414	-140.221	0.032	-0.003
-135.399	-200.000	0.030	0.264
-134.385	10.578	-0.160	0.120
-133.370	-30.192	0.149	-0.083
-132.356	483.492	0.130	-0.291
-131.341	112.903	-0.205	0.245
-130.326	-200.000	-0.034	0.218
-129.312	800.000	0.098	-0.417
-128.297	-200.000	-0.018	-0.185
-127.283	-10.147	-0.209	-0.137
-126.268	-200.000	0.000	-0.072
-125.253	800.000	0.006	0.027
-124.239	438.284	-0.131	-0.282
-123.224	84.523	-0.081	-0.087
-122.210	534.507	-0.157	0.367
-121.195	-128.658	0.281	0.039
-120.180	-84.569	-0.225	-0.070
-119.166	132.847	0.163	0.207
-118.151	-29.725	-0.082	-0.046
-117.137	-10.105	0.187	0.122
-116.122	-110.230	-0.236	0.049
-115.107	-200.000	-0.063	0.275
-114.093	-82.642	0.291	-0.093
-113.078	541.560	-0.044	0.104
-112.064	-200.000	0.020	-0.290
-111.049	800.000	-0.083	-0.296
-110.034	-49.151	-0.195	-0.092
-109.020	392.694	-0.044	-0.091
-108.005	-200.000	0.007	-0.231
-106.991	705.799	-0.092	0.240
-105.976	164.866	0.360	-0.500
-104.962	-200.000	-0.004	-0.082
-103.947	447.909	0.053	0.116
-102.932	98.518	0.066	-0.075
-101.918	800.000	-0.068	0.260
-100.903	238.273	-0.115	0.188
-99.889	157.616	0.064	0.087
-98.874	6.167	0.158	-0.115
-97.859	35.957	-0.228	-0.198
-96.845	-85.094	0.255	0.079
-95.830	-182.953	0.186	-0.003
-94.816	-183.086	0.275	-0.005
-93.801	-200.000	-0.021	-0.333
-92.786	22.664	0.113	0.091
-91.772	389.995	0.071	-0.144
-90.757	106.267	-0.116	0.135
-89.743	-149.151	0.171	0.014
-88.728	800.000	0.087	0.254
-87.713	56.135	-0.256	-0.245
-86.699	-94.393	-0.014	-0.004
-85.684	-176.818	-0.261	0.007
-84.670	251.072	-0.196	-0.328
-83.655	-56.069	0.297	-0.130
-82.640	44.785	-0.175	0.158
-81.626	-177.012	-0.132	-0.003
-80.611	225.339	-0.029	0.046
-79.597	-49.025	0.122	0.057
-78.582	97.861	0.038	-0.043
-77.567	-107.881	0.171	-0.037
-76.553	800.000	-0.086	0.259
-75.538	10.938	-0.167	-0.126
-74.524	287.856	0.128	-0.228
-73.509	705.397	0.016	-0.043
-72.494	-160.365	-0.333	0.018
-71.480	-16.215	0.243	0.152
-70.465	-111.439	0.278	-0.056
-69.451	9.021	-0.067	0.050
-68.436	-200.000	-0.028	0.306
-67.422	-200.000	-0.024	-0.258
-66.407	43.206	-0.105	-0.095
-65.392	-100.668	-0.254	0.062
-64.378	94.392	0.146	-0.163
-63.363	29.179	-0.079	-0.066
-62.349	-200.000	-0.019	-0.192
-61.334	156.462	-0.806	-1.094
-60.319	123.636	0.591	0.730
-59.305	-200.000	-0.173	-0.959
-58.290	100.147	0.920	1.050
-57.276	675.547	0.690	1.763
-56.261	-200.000	97.107	589.477
-55.246	546.597	1402.225	3299.666
-54.232	154.020	2596.215	3502.461
-53.217	106.048	2287.360	2663.946
-52.203	42.140	1905.941	1702.503
-51.188	36.015	1695.358	1467.848
-50.173	33.148	1651.588	1408.577
-49.159	50.947	1698.186	1583.019
-48.144	52.703	1713.656	1610.613
-47.130	35.673	1674.031	1446.577
-46.115	32.853	1659.549	1412.927
-45.100	32.658	1654.620	1407.224
-44.086	32.573	1652.249	1404.516
-43.071	32.586	1649.767	1402.450
-42.057	32.635	1646.919	1400.332
-41.042	32.596	1644.904	1398.278
-40.027	32.625	1642.965	1396.787
-39.013	32.525	1641.367	1394.633
-37.998	32.565	1639.231	1393.059
-36.984	32.624	1638.282	1392.635
-35.969	32.743	1636.993	1392.360
-34.954	32.782	1635.193	1391.062
-33.940	32.744	1632.912	1388.784
-32.925	32.712	1631.308	1387.130
-31.911	32.692	1629.624	1385.501
-30.896	32.728	1628.149	1384.456
-29.881	32.663	1626.607	1382.609
-28.867	32.711	1624.512	1381.125
-27.852	32.678	1623.048	1379.589
-26.838	32.728	1621.716	1378.768
-25.823	32.728	1620.404	1377.598
-24.809	32.856	1618.785	1377.097
-23.794	32.800	1616.972	1375.091
-22.779	32.773	1615.594	1373.670
-21.765	32.661	1614.408	1371.788
-20.750	32.662	1613.261	1370.773
-19.736	32.779	1611.331	1369.927
-18.721	32.713	1609.955	1368.218
-17.706	32.717	1608.332	1366.814
-16.692	32.631	1606.906	1364.927
-15.677	32.711	1605.401	1364.177
-14.663	32.827	1603.405	1363.260
-13.648	32.802	1602.808	1362.519
-12.633	32.795	1601.027	1360.898
-11.619	32.683	1599.869	1359.057
-10.604	32.758	1598.188	1358.113
-9.590	32.620	1596.890	1355.960
-8.575	32.827	1595.177	1355.944
-7.560	32.804	1594.533	1355.177
-6.546	32.832	1592.998	1354.017
-5.531	32.811	1591.912	1352.895
-4.517	32.708	1591.079	1351.395
-3.502	32.766	1589.691	1350.573
-2.487	32.742	1588.350	1349.210
-1.473	32.662	1576.637	1338.643
-0.458	30.151	1558.060	1305.160
0.556	26.798	1558.768	1276.171
1.571	24.496	1583.452	1279.785
2.586	24.016	1597.130	1287.255
3.600	20.998	1541.464	1221.176
4.615	11.282	1428.785	1068.430
5.629	3.103	1362.920	967.788
6.644	1.798	1354.647	953.659
7.659	1.614	1353.378	951.532
8.673	1.622	1352.066	950.574
9.688	1.507	1350.088	948.388
10.702	1.247	1347.480	944.847
11.717	4.777	1353.893	971.318
12.731	14.983	1373.544	1049.658
13.746	23.644	1388.361	1115.567
14.761	25.931	1391.484	1132.360
15.775	26.387	1391.491	1135.130
16.790	26.448	1391.098	1135.093
17.804	26.431	1390.108	1134.078
18.819	26.589	1390.573	1135.347
19.834	26.835	1389.518	1135.925
20.848	26.794	1388.419	1134.668
21.863	26.861	1387.691	1134.392
22.877	26.805	1386.972	1133.358
23.892	26.807	1386.781	1133.112
24.907	26.760	1385.571	1131.727
25.921	26.918	1384.430	1131.680
26.936	26.838	1383.660	1130.451
27.950	26.785	1382.430	1129.020
28.965	26.750	1380.965	1127.506
29.980	26.753	1380.048	1126.675
30.994	26.806	1378.575	1125.700
32.009	26.847	1377.556	1125.023
33.023	26.807	1376.473	1123.795
34.038	26.789	1375.144	1122.496
35.053	26.788	1374.521	1121.883
36.067	26.822	1373.325	1121.015
37.082	26.725	1372.715	1119.820
38.096	26.853	1371.434	1119.467
39.111	26.774	1371.019	1118.545
40.126	26.806	1369.898	1117.724
41.140	26.784	1369.694	1117.321
42.155	26.868	1369.280	1117.408
43.169	26.818	1369.357	1117.061
44.184	26.800	1368.833	1116.424
45.199	26.811	1368.724	1116.303
46.213	26.932	1367.753	1116.161
47.228	26.802	1367.161	1114.776
48.242	26.835	1365.990	1113.928
49.257	26.731	1365.024	1112.403
50.271	26.839	1363.216	1111.493
51.286	26.751	1361.932	1109.805
52.301	26.730	1360.962	1108.790
53.315	26.718	1359.868	1107.725
54.330	26.817	1358.891	1107.436
55.344	26.825	1357.876	1106.559
56.359	26.736	1356.943	1105.161
57.374	26.825	1356.354	1105.123
58.388	26.765	1355.479	1103.951
59.403	26.739	1355.233	1103.495
60.417	26.825	1354.213	1103.085
61.432	26.794	1353.594	1102.296
62.447	26.827	1352.919	1101.853
63.461	26.873	1351.507	1100.883
64.476	26.870	1350.472	1099.921
65.490	26.770	1349.364	1098.318
66.505	26.796	1347.863	1097.159
67.520	26.806	1346.490	1096.004
68.534	26.805	1346.025	1095.523
69.549	26.824	1344.731	1094.488
70.563	26.779	1343.690	1093.271
71.578	26.785	1342.955	1092.615
72.593	26.926	1341.800	1092.425
73.607	26.837	1341.492	1091.540
74.622	26.707	1340.777	1090.082
75.636	26.731	1340.229	1089.681
76.651	26.787	1339.358	1089.218
77.666	26.826	1338.560	1088.704
78.680	26.808	1338.483	1088.437
79.695	26.797	1337.676	1087.619
80.709	26.835	1336.062	1086.437
81.724	26.779	1335.995	1085.950
82.739	26.826	1334.430	1084.862
83.753	26.857	1334.162	1084.735
84.768	26.833	1333.100	1083.635
85.782	26.918	1331.738	1082.935
86.797	26.926	1330.282	1081.704
87.812	26.839	1329.531	1080.482
88.826	26.886	1328.328	1079.690
89.841	26.895	1327.393	1078.884
90.855	26.940	1325.940	1077.875
91.870	26.892	1325.419	1077.072
92.884	26.932	1324.737	1076.660
93.899	26.870	1324.351	1075.883
94.914	26.889	1322.953	1074.763
95.928	26.836	1322.636	1074.101
96.943	26.825	1321.991	1073.418
97.957	26.910	1321.044	1073.054
98.972	26.818	1320.734	1072.164
99.987	26.935	1319.042	1071.387
101.001	26.919	1318.218	1070.528
102.016	26.871	1317.903	1069.894
103.030	26.781	1316.946	1068.493
104.045	26.805	1316.203	1067.933
105.060	26.845	1314.908	1067.027
106.074	26.889	1314.057	1066.496
107.089	26.970	1313.232	1066.210
108.103	26.969	1311.650	1064.825
109.118	26.985	1310.683	1064.038
110.133	26.994	1309.852	1063.325
111.147	26.952	1308.890	1062.201
112.162	26.899	1307.462	1060.643
113.176	26.880	1306.770	1059.876
114.191	26.904	1306.240	1059.493
115.206	26.905	1304.799	1058.235
116.220	26.952	1303.383	1057.267
117.235	26.898	1303.000	1056.545
118.249	26.922	1301.926	1055.725
119.264	26.914	1301.515	1055.250
120.279	27.027	1300.127	1054.687
121.293	26.926	1299.569	1053.558
122.308	26.944	1299.280	1053.331
123.322	27.028	1298.093	1052.766
124.337	26.967	1297.472	1051.815
125.352	27.069	1296.373	1051.421
126.366	27.050	1295.348	1050.388
127.381	26.968	1294.413	1049.060
128.395	27.121	1293.350	1048.991
129.410	27.064	1292.763	1048.094
130.424	27.077	1292.232	1047.644
131.439	27.112	1291.271	1046.975
132.454	26.954	1290.711	1045.516
133.468	27.047	1290.043	1045.419
134.483	27.061	1289.201	1044.726
135.497	26.953	1288.447	1043.401
136.512	26.955	1287.544	1042.590
137.527	26.960	1286.607	1041.767
138.541	27.032	1285.000	1040.783
139.556	26.974	1283.729	1039.330
140.570	26.956	1283.121	1038.643
141.585	26.908	1282.091	1037.443
142.600	27.070	1280.500	1036.991
143.614	26.965	1280.115	1035.987
144.629	27.002	1278.705	1034.967
145.643	26.919	1278.341	1034.108
146.658	26.767	1277.584	1032.539
147.673	26.854	1276.219	1031.838
148.687	26.910	1275.131	1031.182
149.702	26.925	1273.915	1030.195
150.716	26.964	1273.328	1029.850
151.731	26.868	1272.722	1028.721
152.746	26.896	1271.122	1027.499
153.760	27.038	1269.707	1027.066
154.775	27.016	1269.272	1026.497
155.789	27.008	1268.277	1025.557
156.804	26.905	1267.294	1024.090
157.819	27.082	1266.674	1024.499
158.833	27.051	1265.886	1023.599
159.848	27.066	1265.632	1023.385
160.862	26.988	1264.828	1022.205
161.877	27.054	1263.813	1021.667
162.892	26.998	1262.747	1020.401
163.906	27.092	1262.233	1020.421
164.921	27.204	1261.274	1020.182
165.935	27.088	1260.987	1019.214
166.950	26.989	1260.555	1018.218
167.964	27.009	1259.535	1017.412
168.979	27.111	1258.929	1017.408
169.994	27.072	1258.234	1016.533
171.008	27.135	1257.610	1016.293
172.023	27.114	1256.728	1015.376
173.037	27.143	1256.354	1015.144
174.052	27.187	1255.362	1014.497
175.067	27.116	1254.669	1013.455
176.081	27.149	1253.783	1012.831
177.096	27.105	1253.105	1011.951
178.110	27.241	1251.590	1011.394
179.125	27.184	1250.978	1010.493
180.140	27.160	1249.994	1009.476
181.154	27.200	1248.983	1008.792
182.169	27.173	1247.743	1007.547
183.183	27.061	1247.568	1006.699
184.198	27.126	1246.123	1005.801
185.213	27.137	1245.271	1005.087
186.227	27.182	1244.010	1004.231
187.242	27.203	1243.175	1003.583
188.256	27.247	1242.308	1003.038
189.271	27.258	1241.806	1002.605
190.286	27.248	1240.787	1001.636
191.300	27.244	1240.325	1001.155
192.315	27.126	1240.549	1000.594
193.329	27.129	1239.910	1000.010
194.344	27.218	1238.942	999.625
195.359	27.313	1238.462	999.675
196.373	27.233	1238.023	998.791
197.388	27.132	1238.010	998.140
198.402	27.189	1236.895	997.466
199.417	27.222	1236.950	997.603
200.432	27.282	1236.265	997.291
201.446	27.284	1235.447	996.553
202.461	27.261	1234.937	995.928
203.475	27.181	1233.996	994.643
204.490	27.159	1232.857	993.517
205.504	27.177	1232.139	992.947
206.519	27.312	1231.261	992.889
207.534	27.281	1230.165	991.750
208.548	27.196	1229.596	990.737
209.563	27.208	1228.671	989.969
210.577	27.408	1227.725	990.208
211.592	27.213	1227.593	988.952
212.607	27.256	1226.327	988.081
213.621	27.321	1225.981	988.066
214.636	27.341	1225.038	987.327
215.650	27.408	1223.826	986.627
216.665	27.278	1223.114	985.263
217.680	27.358	1222.351	984.993
218.694	27.348	1221.618	984.262
219.709	27.446	1220.589	983.877
220.723	27.327	1220.003	982.671
221.738	27.293	1219.569	982.052
222.753	27.321	1218.491	981.250
223.767	27.406	1218.284	981.453
224.782	27.278	1217.707	980.212
225.796	27.457	1216.672	980.255
226.811	27.411	1216.318	979.636
227.826	27.409	1215.419	978.817
228.840	27.448	1215.329	978.865
229.855	27.427	1214.460	977.963
230.869	27.421	1214.104	977.558
231.884	27.390	1213.419	976.755
232.899	27.379	1212.619	975.968
233.913	27.350	1211.985	975.217
234.928	27.675	1211.076	976.140
235.942	27.550	1211.051	975.363
236.957	27.442	1209.984	973.840
237.972	27.430	1209.671	973.437
238.986	27.396	1208.960	972.597
240.001	27.500	1208.014	972.302
241.015	27.610	1207.190	972.142
242.030	27.601	1206.443	971.406
243.045	27.667	1205.646	971.027
244.059	27.563	1205.093	969.943
245.074	27.609	1204.295	969.460
246.088	27.665	1203.410	968.959
247.103	27.620	1202.761	968.110
248.117	27.589	1202.056	967.293
249.132	27.569	1201.287	966.487
250.147	27.660	1200.448	966.207
251.161	27.639	1199.607	965.331
252.176	27.772	1198.770	965.276
253.190	27.755	1198.422	964.823
254.205	27.724	1197.664	963.965
255.220	27.700	1196.965	963.187
256.234	27.665	1197.009	962.955
257.249	27.647	1195.938	961.911
258.263	27.755	1195.438	961.992
259.278	27.729	1195.169	961.555
260.293	27.740	1194.485	960.976
261.307	27.779	1194.216	960.881
262.322	27.760	1193.135	959.825
263.336	27.717	1192.478	958.990
264.351	27.748	1192.328	958.943
265.366	27.627	1191.515	957.571
266.380	27.670	1190.887	957.208
267.395	27.693	1190.291	956.765
268.409	27.813	1189.476	956.654
269.424	27.752	1188.963	955.837
270.439	27.819	1188.507	955.738
271.453	27.823	1187.675	955.004
272.468	27.755	1187.104	954.104
273.482	27.722	1186.264	953.172
274.497	27.887	1185.952	953.696
275.512	27.758	1185.713	952.750
276.526	27.910	1184.503	952.483
277.541	27.755	1184.130	951.291
278.555	27.840	1183.310	950.992
279.570	27.935	1182.660	950.879
280.585	27.964	1181.755	950.219
281.599	27.901	1181.009	949.209
282.614	27.780	1180.190	947.839
283.628	27.872	1179.415	947.606
284.643	27.819	1178.499	946.516
285.657	27.874	1177.487	945.900
286.672	27.937	1176.508	945.359
287.687	27.913	1176.087	944.811
288.701	27.947	1175.508	944.441
289.716	27.997	1174.395	943.718
290.730	27.924	1174.177	943.084
291.745	27.887	1173.583	942.330
292.760	27.913	1172.988	941.906
293.774	28.069	1172.276	942.052
294.789	28.091	1171.621	941.556
295.803	28.131	1171.002	941.182
296.818	28.063	1170.473	940.325
297.833	28.061	1169.529	939.472
298.847	28.067	1169.101	939.075
299.862	28.033	1168.117	938.028
300.876	27.977	1167.997	937.560
301.891	28.226	1167.010	937.964
302.906	28.145	1166.578	937.119
303.920	28.247	1165.909	937.020
304.935	28.095	1165.454	935.792
305.949	28.081	1164.545	934.906
306.964	28.253	1163.862	935.158
307.979	28.207	1163.351	934.426
308.993	28.131	1163.191	933.828
310.008	28.153	1162.396	933.221
311.022	28.199	1161.622	932.749
312.037	28.111	1160.843	931.596
313.052	28.268	1159.781	931.458
314.066	28.021	1159.346	929.770
315.081	28.221	1158.072	929.685
316.095	28.286	1157.437	929.421
317.110	28.147	1157.302	928.525
318.125	28.299	1156.087	928.239
319.139	28.366	1155.795	928.259
320.154	28.283	1155.500	927.521
321.168	28.185	1154.958	926.508
322.183	28.277	1154.186	926.273
323.197	28.198	1153.683	925.387
324.212	28.327	1152.592	925.083
325.227	28.224	1152.523	924.427
326.241	28.413	1151.781	924.702
327.256	28.282	1151.199	923.494
328.270	28.322	1150.487	923.039
329.285	28.300	1150.122	922.556
330.300	28.412	1148.521	921.752
331.314	28.331	1147.879	920.747
332.329	28.367	1147.197	920.299
333.343	28.539	1146.282	920.351
334.358	28.527	1145.602	919.659
335.373	28.385	1145.408	918.712
336.387	28.518	1144.366	918.459
337.402	28.550	1143.423	917.784
338.416	28.599	1142.760	917.414
339.431	28.450	1142.071	916.034
340.446	28.637	1141.457	916.396
341.460	28.599	1141.039	915.791
342.475	28.736	1140.013	915.568
343.489	28.511	1139.482	913.939
344.504	28.449	1138.813	913.012
345.519	28.527	1137.850	912.550
346.533	28.498	1137.319	911.898
347.548	28.601	1136.403	911.595
348.562	28.721	1135.240	911.176
349.577	28.648	1134.846	910.419
350.592	28.486	1134.386	909.166
351.606	28.506	1133.394	908.390
352.621	28.580	1133.233	908.544
353.635	28.566	1132.837	908.080
354.650	28.721	1131.493	907.686
355.665	28.584	1131.495	906.928
356.679	28.753	1130.386	906.797
357.694	28.678	1129.901	905.956
358.708	28.586	1129.752	905.303
359.723	28.605	1128.832	904.578
360.738	28.777	1127.586	904.346
361.752	28.798	1127.103	903.982
362.767	28.629	1127.076	903.051
363.781	28.718	1126.314	902.798
364.796	28.795	1125.657	902.572
365.810	28.753	1125.071	901.815
366.825	28.795	1124.806	901.725
367.840	28.879	1123.934	901.362
368.854	28.929	1123.123	900.877
369.869	28.822	1122.969	900.149
370.883	28.866	1122.236	899.698
371.898	28.712	1121.593	898.348
372.913	28.872	1120.788	898.406
373.927	28.993	1120.270	898.503
374.942	29.029	1119.809	898.227
375.956	29.065	1118.968	897.651
376.971	28.987	1118.520	896.831
377.986	28.960	1117.947	896.160
379.000	28.972	1118.062	896.234
380.015	28.966	1117.227	895.453
381.029	28.997	1116.441	894.898
382.044	28.868	1116.288	894.068
383.059	28.985	1115.438	893.876
384.073	29.004	1114.789	893.369
385.088	28.909	1113.592	891.868
386.102	29.009	1112.626	891.500
387.117	28.984	1112.249	890.999
388.132	28.885	1111.552	889.883
389.146	29.041	1110.545	889.754
390.161	29.058	1109.906	889.241
391.175	29.064	1109.177	888.611
392.190	29.071	1108.887	888.332
393.205	29.002	1107.970	887.189
394.219	29.209	1107.002	887.327
395.234	29.088	1106.564	886.317
396.248	29.145	1105.801	885.904
397.263	29.101	1104.997	884.967
398.278	29.197	1104.755	885.155
399.292	29.288	1103.528	884.532
400.307	29.312	1102.953	884.110
401.321	29.235	1102.610	883.387
402.336	29.238	1101.881	882.738
403.350	29.171	1101.130	881.738
404.365	29.134	1100.798	881.218
405.380	29.161	1099.856	880.513
406.394	29.320	1099.235	880.698
407.409	29.313	1098.342	879.872
408.423	29.350	1097.519	879.309
409.438	29.376	1096.933	878.889
410.453	29.353	1096.570	878.407
411.467	29.330	1095.806	877.609
412.482	29.317	1094.951	876.784
413.496	29.400	1094.213	876.512
414.511	29.470	1093.760	876.405
415.526	29.473	1093.129	875.836
416.540	29.388	1092.925	875.191
417.555	29.466	1092.600	875.222
418.569	29.438	1091.931	874.478
419.584	29.491	1091.750	874.504
420.599	29.569	1090.912	874.125
421.613	102.275	1321.559	1454.460
422.628	95.327	1355.154	1454.590
