DTS Sentinel unit serial number:	SN413079Multiplexer serial number:	ORYXHardware model number:	OX4-SRSoftware version number:	ORYX F/W v4.00 Oryx Data Collector v3.7.2.0data status	okinstallation	princeton_trtdifferential loss correction	single-endedforward channel	channel 2reverse channel	N/Adate	2019/09/17time	15:11:35forward acquisition time	60.00reverse acquisition time	0.00gamma	496.2192k internal	0.2307k external	0.2307temperature offset calibration	0.9989default loss term (dB/km)	0.3790temperature slope calibration	1.0000multiplexer offset coefficient	1.0000multiplexer slope coefficient	1.0000fibre end	0.00T internal ref (°C)	37.69T ext. ref 1 (°C)	0.39T ext. ref 2 (°C)	34.47length (m)	temperature (°C)	Stokes	anti-Stokes-747.200	-13.672	-0.146	-0.096
-746.185	192.343	-0.143	0.219
-745.171	-200.000	0.017	0.080
-744.156	-111.834	0.417	-0.086
-743.142	5.326	0.378	-0.283
-742.127	83.111	0.111	0.123
-741.112	-200.000	0.012	-0.140
-740.098	48.958	0.186	0.177
-739.083	419.888	-0.220	-0.479
-738.069	-163.720	0.381	-0.018
-737.054	-114.831	-0.335	-0.065
-736.039	686.720	-0.086	-0.229
-735.025	100.436	-0.140	0.165
-734.010	-47.934	-0.192	-0.094
-732.996	416.137	-0.143	-0.311
-731.981	-28.691	-0.022	0.013
-730.966	-133.166	-0.174	-0.022
-729.952	-163.457	-0.360	0.017
-728.937	98.817	-0.082	-0.096
-727.923	-200.000	-0.495	0.000
-726.908	59.773	-0.283	-0.283
-725.894	-160.097	-0.331	0.018
-724.879	27.990	0.083	-0.071
-723.864	-134.781	-0.179	0.022
-722.850	630.936	-0.135	0.348
-721.835	563.127	-0.163	0.401
-720.821	-152.284	-0.321	-0.024
-719.806	-33.608	-0.130	0.073
-718.791	19.646	0.051	-0.042
-717.777	269.664	-0.059	-0.105
-716.762	335.208	0.054	0.107
-715.748	-53.887	0.161	-0.074
-714.733	800.000	-0.051	0.172
-713.718	-200.000	0.004	-0.115
-712.704	511.307	-0.070	0.165
-711.689	-200.000	-0.000	-0.270
-710.675	-7.293	0.098	0.068
-709.660	107.067	-0.166	-0.200
-708.645	51.443	-0.105	0.101
-707.631	-104.811	-0.070	-0.016
-706.616	-1.426	0.180	-0.129
-705.602	66.222	0.120	0.124
-704.587	800.000	-0.042	-0.132
-703.572	489.852	-0.215	-0.498
-702.558	-9.185	0.280	-0.190
-701.543	-200.000	0.004	0.378
-700.529	330.081	0.115	-0.225
-699.514	-103.845	-0.228	-0.054
-698.499	-168.416	-0.316	-0.012
-697.485	205.316	0.038	-0.060
-696.470	-78.718	-0.073	-0.025
-695.456	541.918	0.024	-0.057
-694.441	662.038	-0.118	-0.308
-693.426	800.000	-0.092	0.327
-692.412	-200.000	0.036	0.180
-691.397	19.934	-0.192	-0.157
-690.383	-157.199	0.262	-0.016
-689.368	413.550	-0.156	-0.338
-688.354	24.082	0.136	-0.114
-687.339	30.729	-0.265	0.230
-686.324	146.456	-0.154	-0.210
-685.310	-109.804	-0.235	0.050
-684.295	-119.142	-0.327	-0.058
-683.281	800.000	-0.074	-0.254
-682.266	-135.898	-0.238	-0.028
-681.251	708.306	0.081	-0.216
-680.237	-139.188	0.151	0.016
-679.222	362.232	0.188	-0.383
-678.208	135.628	0.021	0.028
-677.193	71.148	-0.207	-0.218
-676.178	-42.981	-0.057	0.029
-675.164	-127.147	-0.180	0.027
-674.149	280.900	-0.105	0.190
-673.135	-200.000	-0.008	-0.271
-672.120	767.944	0.042	-0.115
-671.105	163.877	0.136	-0.195
-670.091	296.701	-0.166	-0.308
-669.076	195.299	0.043	-0.067
-668.062	-200.000	-0.012	-0.106
-667.047	-121.130	-0.092	0.016
-666.032	172.811	-0.159	-0.232
-665.018	58.143	0.180	-0.179
-664.003	-200.000	0.001	0.078
-662.989	-173.882	-0.173	-0.005
-661.974	294.865	-0.135	0.251
-660.959	-200.000	0.010	0.090
-659.945	-200.000	0.086	-0.000
-658.930	56.602	-0.128	-0.126
-657.916	10.833	-0.244	-0.189
-656.901	-200.000	0.054	-0.249
-655.886	-200.000	0.006	0.186
-654.872	276.374	-0.063	0.114
-653.857	-200.000	0.129	-0.000
-652.843	-139.160	0.153	-0.017
-651.828	140.674	-0.117	-0.156
-650.814	110.372	-0.156	-0.190
-649.799	800.000	0.037	0.153
-648.784	313.523	-0.003	-0.006
-647.770	-21.570	0.163	0.101
-646.755	-200.000	0.018	-0.439
-645.741	-64.982	-0.231	-0.094
-644.726	278.876	0.091	-0.164
-643.711	-0.073	-0.202	0.145
-642.697	800.000	-0.036	0.143
-641.682	163.129	0.178	-0.253
-640.668	-144.112	0.424	-0.040
-639.653	-125.893	-0.229	-0.035
-638.638	-42.129	-0.240	-0.124
-637.624	142.850	-0.124	-0.167
-636.609	800.000	0.091	0.311
-635.595	-102.622	0.243	0.059
-634.580	-200.000	-0.051	-0.371
-633.565	-17.144	0.217	-0.138
-632.551	308.411	0.051	0.097
-631.536	53.301	-0.305	-0.296
-630.522	206.663	-0.176	0.277
-629.507	54.340	-0.261	-0.254
-628.492	205.311	-0.102	0.161
-627.478	-200.000	0.013	0.120
-626.463	-15.774	0.217	0.140
-625.449	-128.431	-0.175	-0.025
-624.434	-200.000	-0.102	-0.581
-623.419	124.391	-0.292	-0.372
-622.405	-64.772	-0.141	-0.058
-621.390	-77.683	-0.233	0.081
-620.376	223.993	-0.087	0.142
-619.361	12.411	-0.010	-0.008
-618.346	630.189	-0.057	0.145
-617.332	800.000	0.128	-0.402
-616.317	170.290	0.004	-0.005
-615.303	-200.000	0.034	-0.255
-614.288	-200.000	0.025	-0.147
-613.273	-28.461	-0.196	0.114
-612.259	295.543	-0.078	0.145
-611.244	174.453	-0.257	0.377
-610.230	102.472	-0.227	0.268
-609.215	50.654	-0.188	0.180
-608.201	-83.901	-0.228	-0.073
-607.186	52.925	0.105	-0.101
-606.171	-200.000	0.010	0.322
-605.157	52.185	-0.141	0.136
-604.142	2.844	-0.257	-0.189
-603.128	424.363	-0.181	-0.393
-602.113	-75.190	0.214	0.077
-601.098	574.794	-0.049	-0.121
-600.084	549.321	0.051	-0.124
-599.069	-200.000	-0.006	-0.237
-598.055	225.551	-0.214	-0.351
-597.040	469.623	-0.057	-0.130
-596.025	-28.565	0.155	-0.090
-595.011	478.806	0.119	-0.272
-593.996	217.191	0.061	-0.098
-592.982	38.174	-0.063	-0.056
-591.967	-55.249	-0.211	-0.096
-590.952	172.921	-0.256	-0.373
-589.938	273.058	-0.177	0.317
-588.923	-113.302	0.045	0.009
-587.909	-114.556	0.363	-0.070
-586.894	800.000	0.029	-0.128
-585.879	-168.706	0.225	0.009
-584.865	-26.911	0.135	0.080
-583.850	195.983	-0.041	0.062
-582.836	108.857	0.077	-0.093
-581.821	291.483	-0.109	0.200
-580.806	-97.251	-0.260	0.069
-579.792	-103.782	-0.078	0.018
-578.777	-200.000	0.028	-0.219
-577.763	800.000	-0.015	0.047
-576.748	41.640	0.159	-0.145
-575.733	-25.428	-0.012	0.007
-574.719	-118.152	0.277	-0.050
-573.704	-69.618	-0.155	0.060
-572.690	95.023	0.081	0.093
-571.675	-32.094	0.388	0.219
-570.661	28.710	0.124	-0.106
-569.646	17.972	-0.080	0.065
-568.631	-33.417	-0.174	0.097
-567.617	437.740	-0.049	-0.107
-566.602	73.176	-0.169	-0.178
-565.588	-57.613	0.316	0.140
-564.573	-75.934	0.102	0.037
-563.558	63.556	0.144	0.146
-562.544	-145.972	0.217	-0.019
-561.529	-115.170	0.199	-0.038
-560.515	-99.282	-0.322	-0.082
-559.500	272.467	-0.182	-0.324
-558.485	55.021	-0.197	0.192
-557.471	228.515	0.120	-0.197
-556.456	-200.000	0.009	-0.187
-555.442	-17.049	0.300	-0.191
-554.427	-200.000	-0.021	-0.178
-553.412	-200.000	-0.036	-0.205
-552.398	-200.000	0.014	0.160
-551.383	800.000	-0.089	0.341
-550.369	194.482	0.229	-0.350
-549.354	-200.000	-0.001	-0.169
-548.339	-62.894	-0.252	0.105
-547.325	41.547	-0.216	-0.198
-546.310	-200.000	-0.009	0.101
-545.296	-113.445	-0.427	-0.084
-544.281	-103.987	0.190	-0.045
-543.266	163.672	-0.130	-0.184
-542.252	-43.612	0.418	-0.213
-541.237	-0.905	-0.157	-0.112
-540.223	800.000	-0.113	0.348
-539.208	800.000	0.061	0.234
-538.193	-34.767	0.205	-0.113
-537.179	660.042	-0.048	-0.124
-536.164	152.462	0.117	0.162
-535.150	-145.770	0.244	-0.022
-534.135	-34.845	-0.221	0.122
-533.121	43.771	-0.300	-0.277
-532.106	800.000	-0.093	-0.282
-531.091	727.043	0.169	-0.454
-530.077	-71.298	0.291	0.110
-529.062	39.765	0.072	0.065
-528.048	323.385	0.080	-0.155
-527.033	-200.000	0.033	-0.167
-526.018	276.191	0.155	0.278
-525.004	-139.528	0.435	-0.047
-523.989	800.000	-0.035	-0.102
-522.975	-139.037	0.158	0.017
-521.960	-109.746	0.106	0.023
-520.945	39.390	-0.124	-0.112
-519.931	-125.580	0.295	-0.045
-518.916	193.337	-0.067	-0.103
-517.902	234.598	0.048	0.080
-516.887	64.512	-0.086	0.088
-515.872	51.159	0.145	-0.139
-514.858	447.906	0.108	0.239
-513.843	-200.000	0.012	0.259
-512.829	-4.124	0.245	-0.171
-511.814	524.693	-0.100	0.237
-510.799	-27.040	0.137	-0.080
-509.785	113.781	-0.016	0.020
-508.770	800.000	-0.095	-0.313
-507.756	-143.003	-0.283	0.028
-506.741	-200.000	-0.003	0.154
-505.726	86.560	0.116	-0.129
-504.712	800.000	0.078	0.269
-503.697	-46.034	0.160	0.079
-502.683	150.285	0.204	0.279
-501.668	-193.691	0.141	0.001
-500.653	-1.600	-0.226	0.161
-499.639	20.249	-0.296	0.240
-498.624	-200.000	-0.009	0.121
-497.610	-95.283	-0.097	0.026
-496.595	800.000	-0.064	0.211
-495.581	87.234	-0.145	-0.161
-494.566	768.431	0.150	-0.412
-493.551	466.524	0.189	-0.427
-492.537	-200.000	0.026	-0.119
-491.522	-32.533	0.210	0.118
-490.508	-200.000	-0.024	-0.165
-489.493	614.635	0.191	-0.481
-488.478	580.591	-0.196	-0.482
-487.464	-200.000	0.030	0.263
-486.449	-200.000	-0.040	0.258
-485.435	800.000	0.021	0.059
-484.420	-126.313	0.047	0.007
-483.405	79.843	0.272	-0.294
-482.391	237.972	0.083	-0.138
-481.376	-200.000	0.063	-0.694
-480.362	13.004	-0.162	-0.126
-479.347	-77.296	-0.220	0.077
-478.332	7.491	0.126	-0.095
-477.318	310.884	0.236	0.445
-476.303	-1.793	0.286	0.202
-475.289	-200.000	0.013	-0.091
-474.274	-97.123	-0.093	-0.024
-473.259	-150.075	-0.167	-0.013
-472.245	800.000	0.031	-0.099
-471.230	-4.115	0.124	-0.086
-470.216	800.000	-0.058	-0.195
-469.201	-37.293	0.151	-0.081
-468.186	87.525	-0.145	-0.162
-467.172	800.000	0.099	-0.415
-466.157	-147.614	-0.281	0.024
-465.143	11.067	-0.129	0.099
-464.128	496.778	0.078	0.180
-463.113	30.105	0.206	-0.177
-462.099	800.000	0.067	0.203
-461.084	800.000	-0.029	0.125
-460.070	-200.000	-0.009	0.105
-459.055	-200.000	-0.058	-0.258
-458.040	56.481	0.102	-0.099
-457.026	-200.000	0.039	-0.289
-456.011	123.790	-0.061	0.077
-454.997	-145.712	0.142	-0.013
-453.982	92.644	-0.060	0.068
-452.968	109.308	-0.292	-0.351
-451.953	-52.829	-0.128	0.060
-450.938	-200.000	-0.023	0.360
-449.924	-1.169	-0.167	-0.119
-448.909	56.933	0.238	-0.233
-447.895	-125.340	-0.081	-0.012
-446.880	-200.000	-0.015	0.076
-445.865	-146.098	0.368	0.033
-444.851	-7.991	0.039	0.027
-443.836	649.756	0.059	0.153
-442.822	33.481	-0.124	0.108
-441.807	-200.000	0.062	-0.000
-440.792	185.107	-0.056	-0.084
-439.778	96.521	0.080	-0.092
-438.763	43.245	-0.076	0.069
-437.749	-103.553	0.671	-0.158
-436.734	34.136	0.202	0.177
-435.719	10.263	0.203	0.155
-434.705	-154.151	0.043	-0.003
-433.690	-127.141	-0.271	-0.040
-432.676	-64.599	0.238	0.097
-431.661	-93.345	0.074	-0.021
-430.646	-52.781	-0.180	-0.083
-429.632	-200.000	-0.064	-0.311
-428.617	-90.846	0.317	-0.092
-427.603	-200.000	0.081	-0.390
-426.588	-61.109	0.415	-0.176
-425.573	105.812	0.188	0.223
-424.559	733.046	0.077	0.208
-423.544	42.827	-0.233	0.214
-422.530	-200.000	0.000	-0.223
-421.515	800.000	0.094	-0.286
-420.500	-33.811	-0.201	-0.111
-419.486	22.452	0.182	-0.150
-418.471	54.519	0.245	0.237
-417.457	240.173	-0.215	0.359
-416.442	159.648	-0.082	0.115
-415.428	-3.596	-0.261	-0.182
-414.413	52.389	-0.050	-0.048
-413.398	56.751	-0.261	-0.255
-412.384	-200.000	-0.008	0.226
-411.369	-125.348	-0.169	-0.026
-410.355	4.266	0.040	0.029
-409.340	800.000	-0.043	0.122
-408.325	-150.442	-0.281	-0.022
-407.311	-43.603	0.104	-0.053
-406.296	9.863	0.126	0.096
-405.282	-78.870	-0.233	0.080
-404.267	-27.023	-0.244	-0.143
-403.252	207.757	-0.131	-0.206
-402.238	-176.800	0.100	0.003
-401.223	119.025	-0.220	0.273
-400.209	-121.844	-0.294	-0.049
-399.194	-17.343	0.200	0.126
-398.179	-113.258	0.428	-0.085
-397.165	481.648	-0.101	0.230
-396.150	-200.000	0.050	0.000
-395.136	-0.686	0.113	-0.080
-394.121	214.741	-0.054	-0.086
-393.106	800.000	-0.025	0.107
-392.092	-115.228	0.324	-0.062
-391.077	800.000	0.033	-0.128
-390.063	-178.087	0.113	0.003
-389.048	800.000	-0.028	-0.109
-388.033	-200.000	-0.052	0.251
-387.019	-200.000	-0.030	-0.205
-386.004	109.621	-0.107	-0.129
-384.990	-5.104	-0.400	-0.276
-383.975	-200.000	0.067	0.314
-382.960	-200.000	-0.035	0.419
-381.946	-48.150	0.222	0.107
-380.931	-199.514	-0.168	-0.001
-379.917	-79.738	0.363	-0.123
-378.902	-13.416	-0.123	-0.080
-377.888	-166.318	-0.197	0.008
-376.873	-102.734	0.142	0.034
-375.858	-12.924	-0.266	0.173
-374.844	800.000	-0.143	0.469
-373.829	800.000	-0.023	0.097
-372.815	168.089	-0.032	-0.046
-371.800	-200.000	-0.010	-0.126
-370.785	-115.682	-0.148	-0.028
-369.771	-67.499	0.154	-0.061
-368.756	37.550	-0.457	-0.406
-367.742	-38.672	0.219	0.116
-366.727	-200.000	-0.019	0.378
-365.712	147.514	0.194	0.261
-364.698	-82.428	-0.211	0.069
-363.683	-54.875	-0.219	-0.099
-362.669	-73.670	0.145	0.053
-361.654	-200.000	-0.038	-0.184
-360.639	-144.616	0.043	-0.004
-359.625	-94.258	-0.361	0.099
-358.610	-182.654	-0.416	0.008
-357.596	588.064	0.135	0.332
-356.581	478.798	-0.054	-0.122
-355.566	-200.000	-0.023	0.137
-354.552	-128.664	-0.267	0.038
-353.537	24.278	0.178	0.148
-352.523	-10.011	-0.273	0.182
-351.508	112.904	0.333	0.404
-350.493	800.000	-0.048	0.146
-349.479	-68.083	-0.094	-0.037
-348.464	235.134	0.077	-0.127
-347.450	-31.868	0.182	0.102
-346.435	-94.224	-0.003	-0.001
-345.420	-200.000	-0.009	-0.273
-344.406	40.390	0.164	-0.148
-343.391	114.450	0.095	-0.116
-342.377	-200.000	0.013	0.225
-341.362	-97.233	0.141	-0.037
-340.348	425.956	0.191	0.412
-339.333	-46.902	-0.113	-0.055
-338.318	-115.088	0.081	0.015
-337.304	293.661	0.071	-0.130
-336.289	-120.078	-0.102	0.018
-335.275	-106.011	-0.343	0.077
-334.260	-106.298	0.135	-0.030
-333.245	112.689	-0.153	-0.186
-332.231	-9.305	0.201	-0.135
-331.216	450.288	-0.102	-0.224
-330.202	-50.039	0.268	-0.127
-329.187	2.889	0.169	0.123
-328.172	182.726	-0.073	0.107
-327.158	-65.919	0.151	0.061
-326.143	-200.000	0.060	-0.307
-325.129	-34.615	0.281	0.154
-324.114	-59.925	-0.187	-0.080
-323.099	800.000	-0.069	0.256
-322.085	411.764	0.074	-0.157
-321.070	132.986	0.106	-0.137
-320.056	70.222	-0.081	-0.084
-319.041	3.638	0.011	-0.008
-318.026	-126.271	-0.176	-0.026
-317.012	11.517	0.176	-0.135
-315.997	96.628	-0.322	-0.369
-314.983	-200.000	0.028	-0.124
-313.968	25.769	0.135	0.112
-312.953	-82.457	-0.347	0.113
-311.939	-36.617	0.104	-0.056
-310.924	65.355	-0.261	0.264
-309.910	-54.241	-0.163	-0.074
-308.895	277.387	-0.147	0.262
-307.880	-200.000	0.028	0.613
-306.866	-200.000	-0.040	0.333
-305.851	800.000	-0.092	-0.368
-304.837	212.505	0.203	0.319
-303.822	-84.220	-0.163	0.052
-302.807	800.000	-0.033	-0.143
-301.793	89.403	0.244	0.272
-300.778	-36.933	-0.176	0.094
-299.764	55.515	0.164	0.159
-298.749	295.640	-0.250	0.457
-297.735	-77.209	-0.220	-0.077
-296.720	45.794	-0.068	0.063
-295.705	-44.020	0.295	0.148
-294.691	-130.583	-0.292	0.039
-293.676	771.415	0.049	-0.133
-292.662	-98.902	-0.287	-0.073
-291.647	110.095	-0.248	-0.297
-290.632	748.937	0.075	0.203
-289.618	-42.535	0.362	-0.184
-288.603	134.776	0.032	-0.042
-287.589	104.300	0.141	0.166
-286.574	110.520	0.130	0.156
-285.559	-9.860	-0.198	-0.131
-284.545	56.751	-0.145	0.141
-283.530	639.827	0.126	0.320
-282.516	-141.019	0.327	-0.034
-281.501	-120.940	-0.167	0.028
-280.486	800.000	-0.096	-0.291
-279.472	696.496	-0.156	-0.408
-278.457	202.992	-0.025	0.039
-277.443	190.277	0.070	-0.105
-276.428	-158.254	-0.283	0.016
-275.413	218.023	0.134	-0.213
-274.399	800.000	-0.028	0.112
-273.384	800.000	0.032	-0.118
-272.370	471.755	0.127	-0.285
-271.355	478.952	-0.035	-0.080
-270.340	-159.332	0.093	0.005
-269.326	252.209	0.049	0.084
-268.311	-200.000	-0.292	0.001
-267.297	800.000	-0.086	0.325
-266.282	-200.000	0.013	0.106
-265.267	-200.000	-0.004	-0.175
-264.253	-118.286	0.250	-0.044
-263.238	-124.037	0.137	0.022
-262.224	45.769	0.170	-0.157
-261.209	-200.000	-0.016	0.149
-260.195	241.931	-0.136	0.226
-259.180	-115.603	0.258	0.048
-258.165	800.000	0.042	-0.157
-257.151	304.718	-0.098	0.182
-256.136	800.000	0.197	-0.642
-255.122	-200.000	0.022	-0.099
-254.107	258.933	-0.062	0.106
-253.092	-76.868	0.422	0.147
-252.078	-200.000	0.054	0.261
-251.063	236.536	0.118	-0.194
-250.049	-61.551	-0.216	0.091
-249.034	150.642	0.075	0.101
-248.019	-200.000	0.015	-0.350
-247.005	800.000	0.058	-0.236
-245.990	-59.998	0.069	-0.030
-244.976	-200.000	0.019	0.139
-243.961	41.033	0.070	-0.063
-242.946	83.864	-0.111	0.121
-241.932	21.972	-0.111	0.090
-240.917	8.999	0.175	0.132
-239.903	694.530	-0.124	0.324
-238.888	105.329	-0.084	-0.098
-237.873	196.081	0.214	-0.324
-236.859	-200.000	0.006	0.343
-235.844	123.380	-0.320	0.400
-234.830	-49.118	0.161	-0.077
-233.815	726.428	-0.048	0.129
-232.800	-121.160	0.207	0.035
-231.786	85.928	-0.272	0.298
-230.771	-200.000	-0.009	-0.123
-229.757	-152.457	-0.172	0.012
-228.742	205.265	0.185	0.286
-227.727	68.275	-0.062	-0.063
-226.713	197.555	0.058	0.089
-225.698	479.711	0.144	0.326
-224.684	-132.677	-0.148	0.019
-223.669	-200.000	0.031	0.222
-222.655	446.187	0.070	-0.153
-221.640	800.000	0.101	0.308
-220.625	-200.000	0.053	0.284
-219.611	-32.393	-0.228	0.127
-218.596	-154.281	-0.325	-0.022
-217.582	-4.118	0.310	0.214
-216.567	-200.000	0.015	0.256
-215.552	-200.000	0.036	0.318
-214.538	800.000	0.020	-0.088
-213.523	-110.498	-0.215	-0.044
-212.509	-101.698	-0.254	-0.061
-211.494	27.289	-0.269	0.225
-210.479	-83.127	0.151	-0.048
-209.465	-159.219	-0.281	0.016
-208.450	-181.990	0.229	0.004
-207.436	151.900	-0.083	-0.113
-206.421	-200.000	0.020	0.165
-205.406	800.000	0.037	-0.148
-204.392	72.469	-0.157	0.163
-203.377	231.431	-0.030	0.049
-202.363	126.034	0.083	0.105
-201.348	447.292	0.072	0.158
-200.333	-200.000	-0.010	0.247
-199.319	350.758	0.042	-0.082
-198.304	-200.000	-0.049	0.514
-197.290	-200.000	-0.009	0.188
-196.275	644.456	0.086	0.219
-195.260	92.893	-0.106	-0.119
-194.246	249.188	0.150	0.252
-193.231	-130.544	0.200	-0.027
-192.217	-200.000	0.011	-0.092
-191.202	40.204	0.334	-0.299
-190.187	701.733	0.030	-0.079
-189.173	-72.888	-0.035	0.013
-188.158	-15.375	0.123	-0.078
-187.144	-140.099	-0.142	-0.015
-186.129	-131.537	0.221	0.029
-185.114	-27.536	0.325	-0.188
-184.100	-101.152	0.196	-0.048
-183.085	-200.000	0.042	0.220
-182.071	212.456	0.038	-0.060
-181.056	-118.606	-0.109	-0.019
-180.042	-35.985	0.132	0.071
-179.027	192.764	-0.155	0.233
-178.012	-112.982	-0.057	0.011
-176.998	-104.467	-0.138	0.032
-175.983	-62.420	-0.050	0.020
-174.969	-24.428	0.043	0.025
-173.954	-200.000	0.011	0.151
-172.939	-0.294	-0.153	-0.108
-171.925	800.000	0.093	-0.301
-170.910	-33.549	-0.218	-0.120
-169.896	53.320	0.120	0.114
-168.881	321.766	-0.063	0.120
-167.866	-200.000	0.016	0.119
-166.852	444.402	0.139	0.304
-165.837	-43.538	-0.139	0.070
-164.823	-13.890	-0.206	0.132
-163.808	-28.218	-0.088	0.051
-162.793	-133.245	0.520	-0.065
-161.779	-84.709	-0.220	-0.069
-160.764	-45.435	-0.060	0.030
-159.750	-42.985	-0.103	-0.052
-158.735	-200.000	-0.023	0.145
-157.720	244.112	0.051	0.084
-156.706	19.641	-0.148	0.118
-155.691	-23.807	-0.122	-0.073
-154.677	104.747	0.153	-0.179
-153.662	192.039	-0.064	0.096
-152.647	135.999	-0.123	-0.159
-151.633	-89.462	0.084	0.024
-150.618	435.056	-0.010	0.022
-149.604	5.195	-0.244	-0.179
-148.589	-200.000	-0.001	-0.026
-147.574	-169.364	0.179	0.007
-146.560	-61.665	-0.031	0.013
-145.545	98.454	-0.062	-0.071
-144.531	-200.000	0.031	0.137
-143.516	-61.086	-0.103	-0.043
-142.502	-200.000	0.014	0.169
-141.487	-80.850	0.296	-0.098
-140.472	60.655	-0.168	0.165
-139.458	-196.905	0.368	0.002
-138.443	-71.108	0.308	-0.115
-137.429	-83.671	-0.104	-0.033
-136.414	800.000	-0.051	0.153
-135.399	-200.000	0.010	0.058
-134.385	116.458	0.079	0.096
-133.370	-78.462	-0.208	0.071
-132.356	-104.434	0.048	0.011
-131.341	76.723	-0.173	-0.182
-130.326	75.841	0.321	-0.337
-129.312	86.527	-0.116	0.127
-128.297	12.370	-0.102	0.078
-127.283	-141.310	0.301	-0.030
-126.268	-180.091	0.133	-0.003
-125.253	100.539	0.145	-0.167
-124.239	-200.000	-0.017	-0.089
-123.224	-200.000	0.006	-0.034
-122.210	-53.528	-0.091	-0.041
-121.195	384.306	0.077	0.157
-120.180	405.088	-0.080	-0.167
-119.166	122.494	-0.201	-0.250
-118.151	377.210	-0.064	0.130
-117.137	222.484	-0.136	0.217
-116.122	-101.522	0.334	-0.081
-115.107	75.469	-0.148	0.155
-114.093	-58.309	0.270	0.116
-113.078	-58.703	-0.189	-0.081
-112.064	-200.000	0.001	-0.245
-111.049	-185.573	-0.514	0.008
-110.034	146.915	-0.086	-0.115
-109.020	50.900	-0.099	-0.093
-108.005	-200.000	0.025	0.176
-106.991	636.093	-0.072	-0.180
-105.976	64.356	0.130	-0.129
-104.962	-105.890	-0.326	-0.073
-103.947	173.104	-0.035	-0.051
-102.932	-111.373	0.296	0.060
-101.918	-55.483	0.074	-0.033
-100.903	77.130	-0.204	-0.215
-99.889	-69.350	0.295	0.112
-98.874	-190.325	0.315	0.003
-97.859	268.767	-0.168	-0.292
-96.845	-18.641	-0.091	-0.056
-95.830	440.231	0.222	-0.481
-94.816	198.200	0.185	-0.281
-93.801	10.435	0.167	0.126
-92.786	-66.162	0.359	-0.142
-91.772	50.835	0.340	-0.319
-90.757	270.032	0.043	0.075
-89.743	800.000	0.041	0.162
-88.728	23.178	-0.138	-0.112
-87.713	-0.866	-0.294	0.206
-86.699	-62.559	0.357	-0.147
-85.684	291.211	0.106	0.191
-84.670	-185.760	-0.299	-0.004
-83.655	199.743	0.088	-0.134
-82.640	26.925	0.192	0.159
-81.626	800.000	-0.070	0.284
-80.611	-146.192	-0.185	-0.016
-79.597	-109.366	0.209	0.044
-78.582	800.000	0.032	-0.103
-77.567	-129.799	-0.103	0.014
-76.553	-123.708	0.158	-0.025
-75.538	-51.303	0.231	0.107
-74.524	20.306	-0.298	-0.238
-73.509	66.780	-0.181	0.183
-72.494	-25.082	0.189	-0.111
-71.480	179.750	-0.090	-0.131
-70.465	109.992	0.144	-0.171
-69.451	-102.017	0.224	0.053
-68.436	-93.217	-0.254	-0.070
-67.422	-57.321	0.191	0.083
-66.407	-82.682	0.391	0.125
-65.392	309.783	0.078	-0.144
-64.378	119.179	-0.165	0.201
-63.363	330.437	0.131	0.250
-62.349	-54.558	-0.277	0.124
-61.334	214.172	-0.563	-0.882
-60.319	-41.000	0.224	0.114
-59.305	800.000	-0.316	-0.920
-58.290	427.000	0.395	0.843
-57.276	-200.000	0.351	1.596
-56.261	-200.000	85.310	509.121
-55.246	448.089	1405.706	3063.931
-54.232	142.559	2633.435	3461.656
-53.217	104.086	2377.096	2766.437
-52.203	46.332	1983.635	1819.896
-51.188	40.723	1768.628	1578.161
-50.173	38.122	1723.166	1517.353
-49.159	52.646	1764.538	1668.156
-48.144	56.214	1783.031	1713.617
-47.130	40.675	1743.303	1554.938
-46.115	37.710	1728.590	1518.673
-45.100	37.517	1723.617	1512.744
-44.086	37.624	1720.792	1511.037
-43.071	37.529	1718.003	1507.792
-42.057	37.523	1715.225	1505.242
-41.042	37.624	1713.687	1504.620
-40.027	37.465	1712.163	1501.994
-39.013	37.602	1709.225	1500.415
-37.998	37.581	1707.489	1498.667
-36.984	37.552	1706.662	1497.654
-35.969	37.669	1705.625	1497.586
-34.954	37.769	1703.014	1496.003
-33.940	37.695	1701.336	1493.903
-32.925	37.726	1699.779	1492.717
-31.911	37.714	1698.048	1491.046
-30.896	37.795	1695.713	1489.550
-29.881	37.746	1694.543	1488.093
-28.867	37.647	1693.231	1486.121
-27.852	37.747	1691.259	1485.095
-26.838	37.701	1690.284	1483.835
-25.823	37.726	1688.580	1482.464
-24.809	37.633	1687.578	1480.824
-23.794	37.654	1685.847	1479.403
-22.779	37.704	1683.915	1478.027
-21.765	37.649	1682.421	1476.244
-20.750	37.634	1680.940	1474.771
-19.736	37.751	1679.597	1474.417
-18.721	37.759	1677.759	1472.807
-17.706	37.692	1676.616	1471.239
-16.692	37.723	1674.815	1469.835
-15.677	37.683	1673.912	1468.680
-14.663	37.742	1672.378	1467.725
-13.648	37.744	1671.111	1466.565
-12.633	37.790	1669.078	1465.072
-11.619	37.614	1668.020	1462.760
-10.604	37.676	1666.229	1461.602
-9.590	37.773	1664.161	1460.454
-8.575	37.750	1663.216	1459.397
-7.560	37.688	1662.521	1458.265
-6.546	37.620	1661.352	1456.670
-5.531	37.666	1660.124	1455.878
-4.517	37.660	1658.706	1454.532
-3.502	37.744	1657.533	1454.070
-2.487	37.760	1656.422	1453.160
-1.473	37.756	1644.936	1442.999
-0.458	35.494	1624.764	1408.674
0.556	29.915	1623.356	1369.962
1.571	26.450	1646.122	1362.990
2.586	25.239	1659.123	1364.436
3.600	22.607	1605.217	1300.597
4.615	12.812	1486.147	1136.772
5.629	2.866	1412.083	1014.555
6.644	0.591	1402.617	992.725
7.659	0.344	1401.572	990.272
8.673	0.365	1399.834	989.093
9.688	0.261	1398.277	987.227
10.702	0.194	1395.164	984.505
11.717	4.204	1402.778	1016.111
12.731	13.736	1418.411	1090.264
13.746	18.456	1423.929	1125.481
14.761	17.528	1420.790	1116.822
15.775	16.514	1417.947	1107.843
16.790	15.507	1415.409	1099.175
17.804	14.723	1412.892	1092.003
18.819	14.301	1411.422	1088.013
19.834	14.014	1410.116	1085.034
20.848	13.732	1408.751	1082.048
21.863	13.467	1407.671	1079.394
22.877	13.286	1406.455	1077.187
23.892	13.283	1405.321	1076.208
24.907	13.264	1404.397	1075.278
25.921	13.181	1404.277	1074.552
26.936	13.287	1402.838	1074.046
27.950	13.294	1401.613	1073.057
28.965	13.359	1401.099	1072.987
29.980	13.458	1400.124	1072.790
30.994	13.510	1398.788	1072.006
32.009	13.439	1398.351	1071.118
33.023	13.593	1396.965	1070.958
34.038	13.496	1395.409	1069.045
35.053	13.438	1394.377	1067.782
36.067	13.367	1393.349	1066.446
37.082	13.364	1392.589	1065.751
38.096	13.463	1391.636	1065.565
39.111	13.396	1390.714	1064.334
40.126	13.408	1389.844	1063.650
41.140	13.322	1389.131	1062.456
42.155	13.202	1388.614	1061.200
43.169	13.311	1388.234	1061.515
44.184	13.177	1388.551	1060.803
45.199	13.221	1387.982	1060.557
46.213	13.227	1387.484	1060.121
47.228	13.412	1385.766	1059.895
48.242	13.407	1384.302	1058.653
49.257	13.420	1383.145	1057.755
50.271	13.459	1381.397	1056.572
51.286	13.472	1379.996	1055.490
52.301	13.347	1379.067	1053.895
53.315	13.310	1378.125	1052.843
54.330	13.428	1376.863	1052.535
55.344	13.323	1375.571	1050.791
56.359	13.358	1374.290	1049.937
57.374	13.286	1373.614	1048.871
58.388	13.290	1373.151	1048.450
59.403	13.236	1372.564	1047.569
60.417	13.196	1372.099	1046.871
61.432	13.236	1370.996	1046.187
62.447	13.215	1369.683	1044.960
63.461	13.089	1368.617	1043.260
64.476	13.117	1367.804	1042.720
65.490	13.176	1366.297	1041.855
66.505	13.256	1364.556	1040.936
67.520	13.243	1363.377	1039.867
68.534	13.265	1362.269	1039.068
69.549	13.269	1361.300	1038.259
70.563	13.189	1360.327	1036.924
71.578	13.249	1358.843	1036.078
72.593	13.110	1358.197	1034.622
73.607	13.105	1357.430	1033.915
74.622	13.184	1356.492	1033.603
75.636	13.182	1355.997	1033.124
76.651	13.098	1355.039	1031.779
77.666	13.046	1355.357	1031.602
78.680	13.176	1354.027	1031.311
79.695	13.160	1353.206	1030.494
80.709	13.210	1352.267	1029.998
81.724	13.213	1351.589	1029.412
82.739	13.321	1350.373	1029.068
83.753	13.360	1349.055	1028.214
84.768	13.412	1348.356	1027.910
85.782	13.428	1347.395	1027.184
86.797	13.460	1345.634	1025.953
87.812	13.272	1344.482	1023.819
88.826	13.379	1343.748	1023.831
89.841	13.356	1342.409	1022.578
90.855	13.338	1341.791	1021.907
91.870	13.452	1340.382	1021.444
92.884	13.376	1339.838	1020.476
93.899	13.446	1339.047	1020.209
94.914	13.464	1338.336	1019.691
95.928	13.401	1337.596	1018.648
96.943	13.422	1336.514	1017.863
97.957	13.447	1335.285	1016.992
98.972	13.420	1334.471	1016.118
99.987	13.406	1333.467	1015.173
101.001	13.379	1332.428	1014.130
102.016	13.537	1331.333	1014.170
103.030	13.479	1330.678	1013.226
104.045	13.409	1329.745	1012.000
105.060	13.431	1328.533	1011.122
106.074	13.375	1327.095	1009.600
107.089	13.253	1325.826	1007.801
108.103	13.236	1324.905	1006.905
109.118	13.265	1323.273	1005.752
110.133	13.271	1322.279	1004.946
111.147	13.289	1320.939	1003.950
112.162	13.379	1319.480	1003.298
113.176	13.329	1318.217	1001.946
114.191	13.400	1317.361	1001.632
115.206	13.381	1315.955	1000.360
116.220	13.293	1314.564	998.686
117.235	13.355	1313.210	997.942
118.249	13.332	1312.973	997.535
119.264	13.254	1311.512	995.869
120.279	13.214	1310.660	994.892
121.293	13.260	1309.276	994.027
122.308	13.204	1308.564	993.065
123.322	13.230	1307.259	992.139
124.337	13.262	1306.354	991.558
125.352	13.284	1305.081	990.634
126.366	13.257	1303.789	989.408
127.381	13.288	1302.592	988.598
128.395	13.260	1301.779	987.725
129.410	13.299	1300.915	987.212
130.424	13.294	1300.096	986.475
131.439	13.419	1298.648	986.033
132.454	13.404	1297.474	984.967
133.468	13.453	1296.968	984.789
134.483	13.404	1296.286	983.888
135.497	13.415	1294.641	982.622
136.512	13.372	1293.878	981.697
137.527	13.362	1292.109	980.210
138.541	13.332	1291.154	979.224
139.556	13.403	1289.691	978.447
140.570	13.388	1288.897	977.670
141.585	13.537	1287.050	977.061
142.600	13.500	1286.518	976.353
143.614	13.525	1285.608	975.718
144.629	13.555	1284.410	974.901
145.643	13.596	1282.874	973.891
146.658	13.384	1281.935	971.847
147.673	13.454	1280.633	971.184
148.687	13.390	1279.223	969.656
149.702	13.456	1278.409	969.339
150.716	13.419	1276.597	967.663
151.731	13.395	1275.974	966.962
152.746	13.449	1274.408	966.004
153.760	13.487	1273.567	965.505
154.775	13.521	1271.947	964.392
155.789	13.470	1270.955	963.256
156.804	13.485	1269.934	962.487
157.819	13.514	1268.920	961.796
158.833	13.555	1267.889	961.170
159.848	13.717	1266.517	960.985
160.862	13.644	1265.583	959.767
161.877	13.666	1264.292	958.830
162.892	13.507	1263.489	957.218
163.906	13.616	1262.391	956.930
164.921	13.611	1261.588	956.208
165.935	13.517	1261.075	955.192
166.950	13.673	1260.187	955.334
167.964	13.598	1259.961	954.647
168.979	13.611	1258.435	953.480
169.994	13.593	1257.861	952.856
171.008	13.608	1257.309	952.440
172.023	13.633	1256.147	951.623
173.037	13.562	1255.573	950.694
174.052	13.720	1254.448	950.666
175.067	13.757	1253.184	949.833
176.081	13.633	1252.657	948.641
177.096	13.696	1251.666	948.167
178.110	13.690	1250.423	947.107
179.125	13.752	1249.002	946.303
180.140	13.769	1247.760	945.375
181.154	13.749	1246.128	943.936
182.169	13.660	1245.193	942.641
183.183	13.808	1243.740	942.299
184.198	13.865	1242.684	941.739
185.213	13.784	1241.526	940.317
186.227	13.918	1240.335	940.093
187.242	13.937	1239.148	939.217
188.256	13.856	1239.066	938.610
189.271	13.848	1237.889	937.594
190.286	13.844	1236.286	936.271
191.300	13.767	1235.390	935.080
192.315	13.693	1235.099	934.361
193.329	13.734	1234.426	933.998
194.344	13.885	1233.009	933.692
195.359	13.932	1232.651	933.600
196.373	13.921	1232.124	933.057
197.388	13.912	1231.872	932.735
198.402	13.966	1231.286	932.510
199.417	13.987	1230.659	932.072
200.432	14.128	1229.432	931.851
201.446	14.034	1228.904	930.840
202.461	14.208	1227.927	930.991
203.475	14.215	1226.643	929.975
204.490	14.159	1225.268	928.539
205.504	14.089	1224.667	927.609
206.519	14.127	1223.190	926.623
207.534	14.064	1222.141	925.397
208.548	14.036	1221.550	924.707
209.563	14.113	1220.681	924.400
210.577	14.081	1219.523	923.259
211.592	14.164	1218.253	922.679
212.607	14.210	1217.750	922.470
213.621	14.228	1216.627	921.640
214.636	14.196	1216.217	921.068
215.650	14.180	1214.876	919.881
216.665	14.209	1213.810	919.155
217.680	14.169	1213.114	918.323
218.694	14.256	1212.191	918.028
219.709	14.356	1211.137	917.699
220.723	14.242	1211.109	916.969
221.738	14.369	1209.688	916.510
222.753	14.281	1209.507	915.805
223.767	14.435	1208.338	915.684
224.782	14.451	1208.112	915.520
225.796	14.525	1206.974	914.982
226.811	14.409	1206.373	913.812
227.826	14.428	1205.744	913.356
228.840	14.341	1205.078	912.297
229.855	14.510	1204.107	912.403
230.869	14.324	1203.631	910.944
231.884	14.464	1202.662	910.897
232.899	14.295	1201.800	909.243
233.913	14.410	1200.978	909.164
234.928	14.350	1200.246	908.206
235.942	14.440	1198.923	907.616
236.957	14.311	1198.891	906.804
237.972	14.500	1198.070	907.134
238.986	14.500	1197.465	906.597
240.001	14.367	1196.739	905.243
241.015	14.399	1195.721	904.565
242.030	14.431	1194.738	903.915
243.045	14.515	1194.151	903.848
244.059	14.543	1193.000	903.046
245.074	14.563	1192.384	902.609
246.088	14.672	1191.025	902.092
247.103	14.768	1190.341	902.012
248.117	14.665	1189.818	900.980
249.132	14.769	1189.203	900.995
250.147	14.775	1188.552	900.452
251.161	14.780	1187.806	899.834
252.176	14.782	1187.423	899.474
253.190	14.836	1186.423	898.930
254.205	14.808	1185.755	898.193
255.220	14.917	1185.239	898.312
256.234	14.941	1184.570	897.850
257.249	14.884	1183.795	896.877
258.263	15.028	1183.200	897.123
259.278	14.903	1182.459	895.812
260.293	14.960	1182.099	895.764
261.307	15.107	1181.130	895.735
262.322	15.024	1180.641	894.840
263.336	15.073	1179.876	894.442
264.351	15.089	1179.232	893.960
265.366	15.172	1178.666	893.895
266.380	15.051	1177.945	892.628
267.395	15.054	1177.141	891.953
268.409	15.074	1176.369	891.398
269.424	15.116	1175.517	890.898
270.439	15.109	1175.296	890.612
271.453	15.056	1174.501	889.650
272.468	14.976	1173.915	888.701
273.482	15.195	1172.421	888.656
274.497	15.097	1172.249	887.924
275.512	15.113	1171.540	887.393
276.526	15.152	1170.404	886.661
277.541	15.087	1169.730	885.728
278.555	15.183	1169.040	885.636
279.570	15.273	1168.280	885.459
280.585	15.205	1167.496	884.424
281.599	15.328	1166.741	884.425
282.614	15.281	1165.338	883.035
283.628	15.246	1164.420	882.076
284.643	15.261	1163.664	881.505
285.657	15.369	1162.893	881.407
286.672	15.305	1161.855	880.211
287.687	15.365	1160.743	879.605
288.701	15.305	1160.379	878.934
289.716	15.418	1159.107	878.487
290.730	15.300	1158.755	877.524
291.745	15.333	1158.259	877.243
292.760	15.394	1157.545	876.943
293.774	15.473	1156.596	876.558
294.789	15.427	1156.121	875.883
295.803	15.570	1155.410	876.012
296.818	15.550	1154.597	875.211
297.833	15.494	1153.811	874.246
298.847	15.550	1153.018	873.862
299.862	15.514	1152.206	872.984
300.876	15.479	1151.564	872.235
301.891	15.666	1150.806	872.556
302.906	15.488	1150.427	871.266
303.920	15.546	1149.691	870.936
304.935	15.628	1148.882	870.671
305.949	15.635	1148.129	870.060
306.964	15.771	1147.302	870.055
307.979	15.752	1146.817	869.516
308.993	15.595	1145.881	867.914
310.008	15.740	1145.075	867.979
311.022	15.784	1143.650	867.047
312.037	15.807	1143.148	866.709
313.052	15.700	1142.876	865.874
314.066	15.761	1141.136	864.795
315.081	15.794	1140.751	864.596
316.095	15.717	1140.139	863.661
317.110	15.695	1139.377	862.894
318.125	15.684	1138.570	862.150
319.139	15.730	1137.827	861.745
320.154	15.619	1137.286	860.693
321.168	15.725	1136.256	860.379
322.183	15.837	1135.829	860.549
323.197	15.757	1135.734	859.995
324.212	15.821	1134.669	859.439
325.227	15.822	1133.894	858.780
326.241	15.909	1133.142	858.579
327.256	15.852	1132.418	857.663
328.270	15.807	1131.839	856.920
329.285	15.864	1130.807	856.353
330.300	15.905	1129.467	855.472
331.314	16.006	1128.429	855.120
332.329	15.872	1127.495	853.657
333.343	15.943	1126.948	853.527
334.358	15.904	1126.074	852.593
335.373	16.002	1125.419	852.518
336.387	15.988	1124.784	851.893
337.402	15.991	1123.903	851.161
338.416	16.054	1123.286	850.941
339.431	15.966	1122.546	849.857
340.446	16.122	1122.232	850.330
341.460	16.236	1121.113	849.982
342.475	16.168	1120.254	848.915
343.489	16.312	1119.065	848.663
344.504	16.270	1118.415	847.884
345.519	16.169	1118.043	847.018
346.533	16.236	1116.858	846.380
347.548	16.303	1115.934	845.942
348.562	16.357	1115.181	845.565
349.577	16.329	1114.429	844.785
350.592	16.247	1113.723	843.764
351.606	16.139	1112.816	842.462
352.621	16.163	1112.044	841.925
353.635	16.172	1111.807	841.713
354.650	16.304	1110.518	841.323
355.665	16.147	1110.082	840.136
356.679	16.238	1109.297	839.921
357.694	16.320	1108.850	839.915
358.708	16.319	1108.035	839.216
359.723	16.378	1107.867	839.307
360.738	16.264	1107.165	838.136
361.752	16.349	1106.572	838.034
362.767	16.374	1106.063	837.700
363.781	16.354	1105.259	836.917
364.796	16.583	1104.232	837.199
365.810	16.537	1103.687	836.483
366.825	16.590	1103.245	836.336
367.840	16.483	1102.893	835.470
368.854	16.458	1102.310	834.830
369.869	16.629	1101.240	834.790
370.883	16.580	1100.234	833.709
371.898	16.695	1099.344	833.530
372.913	16.587	1099.121	832.753
373.927	16.574	1098.384	832.059
374.942	16.644	1098.154	832.154
375.956	16.636	1097.310	831.404
376.971	16.659	1096.773	831.035
377.986	16.762	1096.471	831.238
379.000	16.822	1095.455	830.688
380.015	16.727	1094.974	829.787
381.029	16.713	1094.467	829.259
382.044	16.978	1093.539	829.779
383.059	16.889	1092.880	828.771
384.073	16.835	1092.558	828.186
385.088	16.817	1091.489	827.217
386.102	16.935	1090.397	826.891
387.117	16.825	1089.505	825.605
388.132	16.796	1088.593	824.698
389.146	16.847	1087.693	824.194
390.161	16.967	1086.768	824.005
391.175	16.899	1086.104	823.095
392.190	16.925	1085.607	822.773
393.205	16.937	1084.808	822.155
394.219	16.878	1084.064	821.229
395.234	17.009	1082.829	820.856
396.248	16.905	1082.091	819.723
397.263	16.882	1081.185	818.851
398.278	16.856	1080.532	818.157
399.292	16.985	1079.651	818.043
400.307	16.870	1079.227	817.095
401.321	16.909	1078.213	816.443
402.336	16.938	1077.779	816.182
403.350	17.020	1077.157	816.032
404.365	16.944	1076.496	815.094
405.380	16.896	1075.966	814.389
406.394	17.114	1074.916	814.567
407.409	17.142	1073.876	813.842
408.423	17.129	1073.570	813.474
409.438	17.230	1072.782	813.291
410.453	17.260	1071.721	812.557
411.467	17.219	1071.268	811.948
412.482	17.176	1070.893	811.383
413.496	17.255	1069.801	810.862
414.511	17.335	1069.173	810.698
415.526	17.323	1068.955	810.402
416.540	17.307	1068.351	809.795
417.555	17.360	1067.766	809.536
418.569	17.312	1067.562	809.078
419.584	17.352	1067.029	808.792
420.599	17.453	1066.335	808.676
421.613	93.322	1309.098	1413.642
422.628	86.295	1344.457	1413.772
