DTS Sentinel unit serial number:	SN413079Multiplexer serial number:	ORYXHardware model number:	OX4-SRSoftware version number:	ORYX F/W v4.00 Oryx Data Collector v3.7.2.0data status	okinstallation	princeton_trtdifferential loss correction	single-endedforward channel	channel 2reverse channel	N/Adate	2019/09/13time	11:03:35forward acquisition time	60.00reverse acquisition time	0.00gamma	496.2192k internal	0.2322k external	0.2322temperature offset calibration	1.0192default loss term (dB/km)	0.3790temperature slope calibration	1.0000multiplexer offset coefficient	1.0000multiplexer slope coefficient	1.0000fibre end	0.00T internal ref (°C)	31.92T ext. ref 1 (°C)	4.66T ext. ref 2 (°C)	28.97length (m)	temperature (°C)	Stokes	anti-Stokes-747.200	-36.296	0.088	0.048
-746.185	-200.000	-0.025	0.264
-745.171	-200.000	0.037	0.339
-744.156	300.593	-0.064	0.119
-743.142	-40.612	-0.219	0.115
-742.127	800.000	0.064	0.192
-741.112	22.755	-0.086	0.071
-740.098	800.000	-0.029	0.086
-739.083	-152.878	0.277	-0.020
-738.069	-130.437	0.027	-0.004
-737.054	-174.300	0.267	0.008
-736.039	-157.618	-0.408	-0.025
-735.025	-200.000	0.011	0.217
-734.010	-63.703	-0.174	-0.072
-732.996	325.754	-0.027	0.051
-731.981	800.000	0.034	-0.147
-730.966	100.731	-0.154	0.181
-729.952	-137.254	-0.137	-0.016
-728.937	-200.000	0.430	-0.001
-727.923	-200.000	-0.056	-0.248
-726.908	-200.000	-0.037	-0.282
-725.894	89.814	0.108	0.121
-724.879	19.387	-0.285	-0.231
-723.864	-61.190	-0.125	-0.053
-722.850	224.599	0.017	-0.028
-721.835	-67.432	0.127	0.050
-720.821	177.372	-0.047	-0.069
-719.806	34.628	-0.208	0.183
-718.791	548.680	0.040	0.096
-717.777	-45.264	0.213	-0.107
-716.762	-44.486	-0.210	-0.106
-715.748	172.831	0.063	0.091
-714.733	-94.974	-0.244	0.067
-713.718	-42.539	-0.057	-0.029
-712.704	-126.119	-0.189	-0.029
-711.689	108.750	-0.074	0.089
-710.675	-200.000	0.033	-0.157
-709.660	-56.023	0.106	0.048
-708.645	-200.000	0.050	-0.328
-707.631	-200.000	0.025	0.187
-706.616	-103.039	-0.171	0.041
-705.602	-9.644	-0.173	0.116
-704.587	800.000	-0.049	-0.193
-703.572	46.318	0.084	-0.079
-702.558	-64.444	0.310	-0.127
-701.543	70.075	-0.206	0.214
-700.529	165.842	-0.152	0.217
-699.514	-200.000	-0.006	-0.190
-698.499	428.679	0.046	-0.100
-697.485	-200.000	-0.001	-0.125
-696.470	-200.000	-0.044	-0.238
-695.456	800.000	0.084	-0.325
-694.441	293.702	-0.069	-0.127
-693.426	228.449	-0.148	-0.244
-692.412	-200.000	-0.026	-0.143
-691.397	685.705	0.097	0.255
-690.383	800.000	0.090	-0.298
-689.368	-80.923	0.179	-0.060
-688.354	800.000	0.086	-0.251
-687.339	800.000	0.053	-0.195
-686.324	-2.428	-0.065	0.046
-685.310	51.310	0.044	0.042
-684.295	-50.936	0.406	0.192
-683.281	262.199	-0.150	0.263
-682.266	229.092	-0.232	-0.382
-681.251	261.336	0.173	0.302
-680.237	580.626	0.044	-0.109
-679.222	-80.475	0.255	0.086
-678.208	19.738	0.132	0.107
-677.193	9.911	0.219	-0.167
-676.178	-128.328	-0.438	-0.063
-675.164	-68.306	0.309	-0.121
-674.149	202.936	0.094	0.147
-673.135	-17.421	0.033	0.021
-672.120	30.218	0.119	-0.102
-671.105	800.000	-0.064	-0.251
-670.091	597.487	-0.091	-0.227
-669.076	-85.962	-0.096	-0.030
-668.062	348.088	-0.083	0.166
-667.047	1.164	0.093	-0.067
-666.032	-67.879	0.252	0.099
-665.018	-22.756	0.169	0.103
-664.003	-94.346	-0.042	-0.012
-662.989	-200.000	0.003	-0.026
-661.974	-56.813	0.213	0.095
-660.959	800.000	-0.149	-0.583
-659.945	-200.000	-0.034	0.358
-658.930	-16.447	0.055	-0.035
-657.916	-122.383	-0.102	-0.017
-656.901	18.124	0.308	-0.247
-655.886	-200.000	0.019	0.417
-654.872	-200.000	-0.044	-0.196
-653.857	-12.430	-0.131	0.086
-652.843	127.166	-0.072	-0.092
-651.828	24.973	0.207	-0.173
-650.814	-181.432	-0.188	0.004
-649.799	-200.000	-0.002	-0.312
-648.784	800.000	0.070	-0.296
-647.770	-122.570	-0.305	0.050
-646.755	-70.492	-0.283	0.108
-645.741	-200.000	0.043	-0.231
-644.726	41.874	-0.151	0.138
-643.711	-160.325	0.376	0.020
-642.697	240.617	-0.060	-0.100
-641.682	-200.000	0.056	0.260
-640.668	193.526	0.098	-0.150
-639.653	163.088	0.144	0.203
-638.638	-194.196	-0.307	0.003
-637.624	245.208	-0.154	-0.260
-636.609	-200.000	0.051	0.325
-635.595	357.405	0.142	0.285
-634.580	-200.000	0.039	0.175
-633.565	13.034	0.253	-0.197
-632.551	-9.177	0.287	0.193
-631.536	705.225	-0.059	0.155
-630.522	106.977	-0.093	-0.111
-629.507	-124.081	-0.236	0.037
-628.492	140.863	0.096	-0.128
-627.478	-200.000	0.005	0.045
-626.463	701.760	-0.075	0.199
-625.449	104.690	0.154	-0.183
-624.434	800.000	-0.064	0.189
-623.419	82.244	0.077	-0.084
-622.405	800.000	0.035	-0.133
-621.390	27.575	0.143	0.121
-620.376	131.670	0.270	0.349
-619.361	-200.000	-0.021	-0.241
-618.346	-200.000	0.026	-0.264
-617.332	461.263	-0.138	-0.309
-616.317	800.000	-0.077	0.237
-615.303	-52.884	0.385	-0.178
-614.288	280.767	0.181	-0.325
-613.273	-200.000	-0.027	0.285
-612.259	-200.000	-0.013	-0.121
-611.244	11.461	-0.097	0.075
-610.230	-88.657	-0.247	0.074
-609.215	207.467	-0.121	0.190
-608.201	-16.522	-0.587	0.374
-607.186	-82.450	0.093	0.030
-606.171	-60.479	0.293	-0.125
-605.157	-104.556	-0.091	0.021
-604.142	473.399	0.091	-0.205
-603.128	-200.000	0.011	0.128
-602.113	251.266	0.065	-0.110
-601.098	800.000	-0.017	0.056
-600.084	9.488	-0.265	-0.202
-599.069	72.154	0.106	-0.111
-598.055	144.628	0.137	-0.184
-597.040	64.837	-0.066	-0.067
-596.025	196.981	-0.104	-0.160
-595.011	-73.540	-0.305	-0.112
-593.996	-200.000	-0.049	-0.356
-592.982	14.788	0.241	-0.189
-591.967	95.689	-0.084	0.097
-590.952	1.708	-0.092	-0.067
-589.938	800.000	-0.058	-0.220
-588.923	30.564	0.171	0.147
-587.909	-130.514	0.124	-0.017
-586.894	50.859	-0.100	0.095
-585.879	64.632	-0.153	-0.155
-584.865	-200.000	0.042	0.231
-583.850	127.427	0.212	0.270
-582.836	583.691	-0.114	-0.280
-581.821	83.413	-0.153	-0.168
-580.806	-62.804	0.150	0.062
-579.792	-111.057	0.396	-0.082
-578.777	800.000	0.107	0.302
-577.763	200.498	-0.144	0.222
-576.748	62.399	-0.146	0.146
-575.733	-200.000	0.037	-0.268
-574.719	521.121	-0.109	0.257
-573.704	157.991	0.113	0.158
-572.690	-200.000	0.032	-0.153
-571.675	-200.000	0.022	-0.278
-570.661	646.448	0.076	0.195
-569.646	8.014	-0.214	0.161
-568.631	118.882	0.106	0.132
-567.617	566.476	0.148	-0.361
-566.602	-113.724	0.288	0.056
-565.588	-0.749	-0.195	-0.139
-564.573	12.289	-0.097	0.075
-563.558	-131.772	0.070	0.009
-562.544	42.349	0.229	0.209
-561.529	800.000	0.039	0.169
-560.515	-65.543	-0.327	-0.132
-559.500	8.623	-0.194	-0.146
-558.485	254.816	0.074	0.128
-557.471	800.000	-0.047	0.204
-556.456	11.416	-0.466	0.358
-555.442	27.670	-0.189	-0.159
-554.427	-200.000	-0.049	0.282
-553.412	-154.456	-0.175	0.012
-552.398	-57.210	0.173	-0.076
-551.383	-44.705	-0.116	-0.058
-550.369	130.411	0.171	-0.219
-549.354	-200.000	-0.074	-0.348
-548.339	40.228	0.074	0.067
-547.325	-126.695	0.179	0.027
-546.310	-200.000	0.069	-0.367
-545.296	-43.481	0.145	-0.074
-544.281	54.082	0.083	0.080
-543.266	58.002	-0.201	-0.198
-542.252	-174.379	-0.234	0.007
-541.237	-187.359	0.209	0.003
-540.223	-200.000	0.008	0.206
-539.208	-47.608	-0.292	0.142
-538.193	-200.000	-0.016	-0.108
-537.179	147.385	0.071	0.096
-536.164	265.333	0.070	0.122
-535.150	800.000	0.046	0.148
-534.135	-36.976	-0.160	-0.086
-533.121	256.947	0.074	0.127
-532.106	409.792	0.067	-0.142
-531.091	-200.000	0.034	-0.183
-530.077	-104.126	0.441	-0.103
-529.062	-200.000	-0.011	-0.246
-528.048	-51.467	-0.165	0.077
-527.033	59.282	-0.310	0.306
-526.018	103.805	0.190	0.223
-525.004	-22.260	-0.248	-0.150
-523.989	29.572	0.112	-0.096
-522.975	-53.317	-0.295	0.135
-521.960	-55.955	-0.052	0.023
-520.945	-49.058	0.085	0.041
-519.931	33.079	0.144	-0.125
-518.916	406.205	-0.023	0.049
-517.902	68.450	-0.186	0.191
-516.887	257.176	0.038	0.066
-515.872	-77.603	0.363	0.126
-514.858	-103.717	-0.231	0.054
-513.843	2.761	-0.056	-0.041
-512.829	-200.000	-0.017	-0.204
-511.814	-109.545	-0.050	-0.011
-510.799	-119.841	0.219	-0.038
-509.785	-49.801	-0.110	-0.052
-508.770	77.691	-0.346	0.368
-507.756	-62.437	0.088	-0.037
-506.741	-111.759	0.171	0.035
-505.726	169.387	-0.062	0.088
-504.712	-18.000	0.087	0.055
-503.697	392.241	-0.241	-0.500
-502.683	-200.000	-0.038	-0.340
-501.668	9.963	-0.030	0.023
-500.653	633.847	0.086	-0.219
-499.639	800.000	0.102	-0.406
-498.624	3.498	-0.361	-0.263
-497.610	-98.214	-0.168	0.043
-496.595	57.578	0.119	-0.116
-495.581	-59.156	-0.214	-0.092
-494.566	800.000	0.076	-0.290
-493.551	246.961	-0.034	0.057
-492.537	146.365	0.142	0.191
-491.522	85.810	-0.226	-0.248
-490.508	313.284	-0.110	-0.206
-489.493	-200.000	0.024	0.146
-488.478	24.050	-0.245	-0.202
-487.464	800.000	-0.098	-0.271
-486.449	800.000	0.044	-0.128
-485.435	800.000	-0.121	0.374
-484.420	-41.189	0.370	0.191
-483.405	119.909	0.218	0.271
-482.391	800.000	0.045	0.158
-481.376	-109.944	0.260	0.054
-480.362	139.381	-0.134	-0.177
-479.347	-46.857	-0.096	-0.047
-478.332	800.000	-0.068	-0.195
-477.318	-55.196	0.319	0.143
-476.303	636.474	0.102	0.259
-475.289	-157.274	-0.227	0.014
-474.274	-200.000	-0.061	-0.292
-473.259	-58.435	0.132	-0.057
-472.245	-200.000	-0.010	-0.238
-471.230	-46.260	-0.091	-0.045
-470.216	84.575	-0.227	0.249
-469.201	372.768	-0.133	-0.269
-468.186	-68.320	-0.162	0.063
-467.172	800.000	-0.068	0.204
-466.157	7.969	0.281	0.211
-465.143	-61.433	-0.355	-0.149
-464.128	-200.000	0.036	0.188
-463.113	-200.000	-0.021	0.213
-462.099	165.035	0.062	-0.087
-461.084	-101.051	-0.265	0.065
-460.070	-200.000	0.064	0.380
-459.055	179.457	0.138	0.202
-458.040	484.913	-0.044	-0.100
-457.026	-45.260	0.106	0.052
-456.011	-86.671	-0.171	0.052
-454.997	72.801	0.065	0.068
-453.982	516.736	0.041	0.096
-452.968	-200.000	0.040	-0.378
-451.953	530.577	0.153	-0.362
-450.938	37.480	-0.169	-0.149
-449.924	170.638	0.023	-0.033
-448.909	-200.000	-0.005	-0.267
-447.895	162.531	-0.098	-0.137
-446.880	-200.000	-0.262	-0.001
-445.865	-43.041	0.061	-0.031
-444.851	-66.323	-0.139	0.055
-443.836	-35.452	-0.234	-0.127
-442.822	241.509	-0.065	-0.108
-441.807	271.915	-0.153	-0.269
-440.792	-126.007	0.353	0.053
-439.778	-200.000	0.002	0.053
-438.763	800.000	0.134	0.417
-437.749	-200.000	-0.015	0.236
-436.734	-10.162	0.150	0.100
-435.719	-160.188	0.379	0.020
-434.705	-32.547	0.149	0.083
-433.690	-127.945	-0.290	-0.042
-432.676	172.976	0.246	-0.353
-431.661	-200.000	-0.017	-0.129
-430.646	-131.544	0.425	0.056
-429.632	-75.192	0.297	0.106
-428.617	36.142	0.079	-0.069
-427.603	63.878	-0.198	0.198
-426.588	-58.462	0.202	0.088
-425.573	-200.000	-0.004	0.181
-424.559	-1.108	-0.328	-0.231
-423.544	-200.000	-0.001	-0.324
-422.530	-134.433	0.366	0.045
-421.515	95.139	-0.049	-0.056
-420.500	251.282	0.092	-0.157
-419.486	81.104	-0.127	0.137
-418.471	334.238	0.132	-0.256
-417.457	231.333	-0.105	-0.172
-416.442	-57.308	-0.090	-0.039
-415.428	12.305	0.119	-0.091
-414.413	33.435	0.018	-0.016
-413.398	-41.483	0.245	0.126
-412.384	-163.496	0.046	0.002
-411.369	800.000	0.059	0.164
-410.355	618.254	-0.082	0.205
-409.340	18.977	-0.501	0.400
-408.325	-200.000	-0.022	-0.121
-407.311	800.000	0.058	0.224
-406.296	443.926	0.039	0.086
-405.282	-200.000	0.055	-0.249
-404.267	13.135	0.230	-0.177
-403.252	-10.009	-0.152	0.101
-402.238	177.273	-0.189	-0.275
-401.223	198.214	-0.078	-0.119
-400.209	-188.000	-0.213	-0.003
-399.194	800.000	0.036	0.139
-398.179	-46.599	-0.210	0.103
-397.165	-200.000	-0.011	0.076
-396.150	58.404	-0.098	0.096
-395.136	-9.846	0.137	0.091
-394.121	-200.000	-0.006	0.133
-393.106	7.075	0.222	-0.165
-392.092	44.267	-0.036	0.033
-391.077	-13.057	-0.175	0.113
-390.063	143.547	0.110	-0.146
-389.048	-200.000	0.013	-0.134
-388.033	-74.504	0.212	-0.076
-387.019	12.994	0.204	0.158
-386.004	-200.000	0.022	0.130
-384.990	-200.000	0.010	0.192
-383.975	-163.862	0.187	0.009
-382.960	-78.141	0.529	0.181
-381.946	17.003	-0.306	0.242
-380.931	-155.616	-0.169	-0.011
-379.917	-73.010	-0.062	0.022
-378.902	-93.915	0.155	0.042
-377.888	154.105	-0.172	-0.234
-376.873	-123.291	-0.073	0.012
-375.858	-59.070	-0.088	0.038
-374.844	-107.869	0.434	-0.094
-373.829	-200.000	-0.022	-0.334
-372.815	526.570	0.078	0.183
-371.800	441.022	-0.012	-0.027
-370.785	-127.850	-0.270	0.039
-369.771	24.904	-0.266	0.220
-368.756	-200.000	-0.031	-0.329
-367.742	-51.472	-0.194	0.090
-366.727	139.026	-0.239	0.313
-365.712	-148.769	-0.358	-0.029
-364.698	-200.000	0.017	-0.240
-363.683	-98.429	-0.059	-0.015
-362.669	272.075	0.140	-0.246
-361.654	119.212	-0.094	-0.116
-360.639	174.905	0.058	0.084
-359.625	253.745	0.139	0.236
-358.610	-74.101	-0.226	0.082
-357.596	-109.523	0.226	-0.047
-356.581	-81.426	-0.403	0.132
-355.566	202.628	0.035	0.054
-354.552	-101.757	0.206	0.050
-353.537	-20.084	-0.240	0.148
-352.523	-118.482	0.086	-0.015
-351.508	800.000	0.132	-0.366
-350.493	-200.000	-0.026	-0.218
-349.479	-200.000	0.000	0.354
-348.464	72.355	-0.146	0.151
-347.450	-80.950	0.097	-0.032
-346.435	-84.863	0.328	0.103
-345.420	-28.746	0.116	0.066
-344.406	13.217	0.079	0.061
-343.391	-4.054	0.092	-0.064
-342.377	-186.015	0.132	-0.002
-341.362	36.572	0.116	0.101
-340.348	43.597	0.183	-0.167
-339.333	-200.000	0.003	-0.041
-338.318	-124.671	0.222	0.034
-337.304	-138.402	0.254	-0.028
-336.289	800.000	0.010	0.031
-335.275	64.273	-0.175	-0.176
-334.260	184.400	0.104	0.153
-333.245	65.165	0.243	-0.245
-332.231	-200.000	0.046	0.353
-331.216	12.654	-0.226	-0.174
-330.202	-47.496	0.065	-0.031
-329.187	-149.386	-0.027	-0.002
-328.172	-100.454	-0.097	0.024
-327.158	95.080	-0.186	-0.211
-326.143	-119.656	0.311	-0.053
-325.129	8.121	0.157	0.117
-324.114	800.000	-0.042	0.134
-323.099	-73.743	-0.219	-0.079
-322.085	268.464	-0.132	-0.230
-321.070	-122.655	0.309	0.050
-320.056	800.000	0.036	0.131
-319.041	220.503	-0.102	-0.162
-318.026	-200.000	-0.016	-0.479
-317.012	-10.209	0.328	0.217
-315.997	233.042	0.137	0.224
-314.983	62.471	0.023	-0.022
-313.968	64.554	0.131	0.132
-312.953	800.000	-0.044	0.181
-311.939	-200.000	0.069	0.394
-310.924	94.687	-0.168	0.190
-309.910	33.583	0.237	0.205
-308.895	399.366	0.133	-0.276
-307.880	800.000	0.040	0.131
-306.866	-53.586	-0.091	-0.041
-305.851	-77.025	0.442	-0.153
-304.837	-59.872	0.085	0.036
-303.822	42.009	-0.044	-0.039
-302.807	-200.000	-0.013	0.107
-301.793	-40.546	0.152	-0.078
-300.778	-125.709	0.117	0.018
-299.764	-138.625	-0.199	-0.022
-298.749	-200.000	-0.012	-0.118
-297.735	-67.250	-0.386	-0.151
-296.720	-95.962	-0.209	0.055
-295.705	-70.447	-0.353	-0.133
-294.691	66.266	-0.095	0.096
-293.676	-200.000	0.034	-0.167
-292.662	9.349	0.233	-0.175
-291.647	-67.208	-0.288	-0.112
-290.632	58.466	-0.322	0.314
-289.618	-82.211	-0.417	0.135
-288.603	-200.000	-0.015	0.093
-287.589	800.000	-0.087	-0.314
-286.574	148.851	0.132	-0.177
-285.559	-188.381	0.428	-0.005
-284.545	114.626	-0.053	0.065
-283.530	-116.074	-0.197	0.036
-282.516	95.880	0.098	0.111
-281.501	-200.000	-0.008	-0.291
-280.486	800.000	-0.054	0.222
-279.472	-200.000	-0.079	0.378
-278.457	113.368	-0.296	0.356
-277.443	-20.633	0.319	0.194
-276.428	-39.415	0.127	0.066
-275.413	-25.096	-0.026	-0.015
-274.399	800.000	-0.050	0.184
-273.384	-44.500	0.110	-0.054
-272.370	-45.298	-0.148	-0.073
-271.355	110.673	0.175	-0.209
-270.340	-200.000	-0.119	-0.569
-269.326	-175.056	0.097	-0.003
-268.311	106.277	-0.122	-0.144
-267.297	-24.450	-0.124	-0.073
-266.282	316.655	0.025	0.048
-265.267	366.421	-0.173	-0.347
-264.253	-56.619	0.135	-0.059
-263.238	-155.917	0.297	0.019
-262.224	75.927	-0.105	-0.110
-261.209	800.000	0.067	-0.272
-260.195	-200.000	-0.039	-0.205
-259.180	-22.832	0.108	0.065
-258.165	-21.093	-0.103	-0.062
-257.151	34.731	-0.164	0.142
-256.136	800.000	-0.067	-0.250
-255.122	21.108	0.288	0.232
-254.107	407.388	0.036	-0.076
-253.092	23.344	-0.122	-0.099
-252.078	-60.382	0.158	0.066
-251.063	134.346	0.137	-0.176
-250.049	-145.572	0.066	-0.006
-249.034	277.042	-0.100	-0.176
-248.019	29.885	-0.003	-0.002
-247.005	19.819	0.092	0.074
-245.990	170.571	0.076	-0.108
-244.976	-117.920	0.294	0.052
-243.961	281.236	-0.077	-0.136
-242.946	-103.239	0.148	0.035
-241.932	-96.515	0.227	0.059
-240.917	800.000	0.027	-0.104
-239.903	-58.158	-0.505	-0.218
-238.888	-31.849	-0.143	-0.079
-237.873	-200.000	0.016	-0.112
-236.859	-200.000	-0.004	0.102
-235.844	-40.686	-0.311	-0.160
-234.830	-91.677	0.383	0.108
-233.815	-94.966	0.190	0.051
-232.800	-80.818	-0.327	-0.107
-231.786	-55.703	0.167	0.074
-230.771	-133.542	0.236	0.029
-229.757	-34.780	-0.106	-0.057
-228.742	175.158	-0.127	0.182
-227.727	-62.528	-0.275	0.113
-226.713	57.202	0.234	0.226
-225.698	-59.842	-0.108	0.046
-224.684	-6.979	0.065	-0.043
-223.669	-200.000	0.003	-0.013
-222.655	23.673	-0.121	-0.099
-221.640	109.297	0.290	-0.343
-220.625	800.000	-0.109	-0.410
-219.611	661.376	0.072	-0.185
-218.596	-94.825	0.175	0.047
-217.582	-200.000	0.028	-0.399
-216.567	-174.106	0.098	-0.003
-215.552	-200.000	-0.049	0.392
-214.538	-128.776	-0.168	0.023
-213.523	306.552	-0.092	-0.170
-212.509	15.628	-0.279	0.217
-211.494	-94.999	0.251	0.067
-210.479	137.016	-0.234	-0.302
-209.465	487.148	0.081	-0.183
-208.450	105.365	0.062	0.072
-207.436	85.432	-0.100	0.109
-206.421	194.315	0.046	0.069
-205.406	-42.072	0.149	0.075
-204.392	-169.089	-0.222	-0.008
-203.377	301.743	0.095	0.173
-202.363	-91.612	0.212	0.060
-201.348	518.212	-0.151	0.350
-200.333	100.140	0.180	0.207
-199.319	-200.000	-0.014	-0.124
-198.304	55.266	-0.102	0.098
-197.290	107.059	0.228	-0.267
-196.275	149.536	0.048	0.064
-195.260	99.899	-0.045	0.052
-194.246	-18.636	0.055	0.034
-193.231	-200.000	0.004	-0.142
-192.217	-63.783	0.353	-0.143
-191.202	800.000	0.066	0.203
-190.187	-200.000	-0.000	-0.139
-189.173	-200.000	-0.094	0.427
-188.158	-200.000	-0.005	0.285
-187.144	-151.094	-0.129	0.010
-186.129	-38.942	0.211	0.110
-185.114	10.645	-0.071	0.054
-184.100	800.000	-0.092	0.281
-183.085	-183.674	0.189	0.003
-182.071	-200.000	0.053	0.309
-181.056	584.957	-0.082	0.198
-180.042	-200.000	0.021	0.238
-179.027	4.412	-0.243	-0.176
-178.012	-88.580	-0.213	-0.063
-176.998	-12.845	-0.139	-0.089
-175.983	6.874	-0.156	0.115
-174.969	-179.169	0.253	0.006
-173.954	439.226	0.149	0.321
-172.939	-46.061	0.144	0.070
-171.925	17.450	-0.233	0.183
-170.910	49.397	0.318	0.295
-169.896	-57.114	-0.316	0.137
-168.881	-89.306	-0.322	0.094
-167.866	-36.442	0.059	-0.031
-166.852	-200.000	-0.034	0.218
-165.837	-200.000	-0.018	-0.424
-164.823	-94.438	-0.134	0.036
-163.808	-116.447	0.453	-0.083
-162.793	-200.000	0.034	0.261
-161.779	-0.088	0.127	0.090
-160.764	520.283	-0.045	0.105
-159.750	244.951	-0.107	-0.178
-158.735	126.472	0.049	-0.062
-157.720	800.000	-0.139	0.457
-156.706	109.588	-0.131	-0.155
-155.691	-200.000	-0.024	-0.252
-154.677	-67.115	0.122	-0.048
-153.662	52.078	-0.073	-0.069
-152.647	372.005	-0.098	0.196
-151.633	294.011	-0.237	0.427
-150.618	-149.468	-0.435	-0.034
-149.604	180.509	0.208	0.301
-148.589	8.771	-0.268	-0.199
-147.574	-126.022	-0.521	-0.077
-146.560	-97.491	0.191	0.049
-145.545	-200.000	0.030	0.230
-144.531	-200.000	0.003	0.152
-143.516	520.666	0.032	-0.075
-142.502	57.309	-0.108	-0.104
-141.487	-200.000	-0.005	0.040
-140.472	-62.560	-0.309	0.127
-139.458	-200.000	-0.054	-0.282
-138.443	551.679	0.119	-0.283
-137.429	-36.551	-0.393	-0.209
-136.414	800.000	-0.129	0.355
-135.399	-200.000	-0.009	0.184
-134.385	-99.392	-0.344	-0.086
-133.370	-43.397	0.191	-0.095
-132.356	130.563	0.119	0.150
-131.341	-200.000	0.005	0.102
-130.326	6.170	0.180	0.132
-129.312	-160.725	0.304	-0.016
-128.297	330.215	-0.034	0.064
-127.283	800.000	0.085	-0.361
-126.268	143.390	0.123	-0.161
-125.253	36.026	-0.264	0.230
-124.239	119.400	-0.247	-0.302
-123.224	-200.000	0.041	-0.192
-122.210	-105.483	-0.283	-0.063
-121.195	-200.000	0.020	-0.149
-120.180	496.886	0.080	-0.181
-119.166	183.762	-0.104	-0.151
-118.151	178.324	0.116	0.166
-117.137	-121.562	-0.274	0.045
-116.122	-8.742	-0.173	0.114
-115.107	-76.029	0.148	-0.052
-114.093	136.105	-0.125	-0.160
-113.078	-200.000	0.031	-0.151
-112.064	-58.380	0.057	0.024
-111.049	103.436	-0.152	0.176
-110.034	-70.364	-0.289	0.108
-109.020	800.000	-0.028	-0.090
-108.005	800.000	-0.043	0.166
-106.991	-71.222	-0.274	0.101
-105.976	64.689	0.076	0.075
-104.962	800.000	0.031	-0.103
-103.947	513.296	0.087	-0.200
-102.932	-63.031	0.160	-0.065
-101.918	800.000	-0.036	0.101
-100.903	-101.227	-0.089	-0.022
-99.889	260.858	0.185	0.315
-98.874	-55.526	0.335	-0.148
-97.859	800.000	-0.065	-0.219
-96.845	621.096	0.073	-0.182
-95.830	-200.000	-0.034	0.315
-94.816	-7.779	0.184	-0.122
-93.801	-90.254	0.096	0.027
-92.786	-170.261	0.257	0.009
-91.772	15.055	0.490	-0.378
-90.757	-166.141	0.160	-0.007
-89.743	111.075	0.243	0.288
-88.728	18.887	-0.164	-0.129
-87.713	167.666	0.162	0.227
-86.699	10.013	0.282	0.211
-85.684	-175.575	0.253	0.007
-84.670	-116.799	-0.211	-0.038
-83.655	-87.853	0.228	-0.067
-82.640	35.127	-0.055	0.048
-81.626	204.587	0.275	0.420
-80.611	156.959	-0.180	0.245
-79.597	-29.232	-0.326	-0.184
-78.582	800.000	0.110	-0.354
-77.567	-69.040	-0.220	0.084
-76.553	-10.074	-0.351	-0.230
-75.538	-65.096	0.090	-0.036
-74.524	-171.882	-0.129	0.004
-73.509	-95.976	-0.330	0.086
-72.494	12.711	-0.246	0.187
-71.480	-73.243	-0.043	0.015
-70.465	-200.000	-0.019	-0.124
-69.451	-7.546	-0.147	-0.098
-68.436	-200.000	0.003	-0.110
-67.422	-200.000	-0.015	0.189
-66.407	567.081	-0.083	0.198
-65.392	127.085	-0.088	-0.110
-64.378	-150.909	0.297	-0.022
-63.363	-13.367	-0.091	-0.058
-62.349	-200.000	-0.009	0.081
-61.334	10.851	-1.142	-0.858
-60.319	14.142	0.478	0.366
-59.305	-200.000	0.032	-0.942
-58.290	254.024	0.658	1.106
-57.276	746.275	0.572	1.514
-56.261	-200.000	95.745	589.780
-55.246	634.141	1400.606	3492.439
-54.232	190.435	2600.720	3841.923
-53.217	112.810	2299.540	2738.947
-52.203	41.612	1918.602	1708.481
-51.188	35.184	1706.732	1470.618
-50.173	32.442	1662.850	1412.214
-49.159	50.268	1708.740	1586.994
-48.144	51.681	1724.852	1612.622
-47.130	34.821	1686.569	1450.263
-46.115	32.085	1671.770	1416.867
-45.100	31.850	1666.861	1410.887
-44.086	31.873	1663.670	1408.297
-43.071	31.817	1661.289	1405.805
-42.057	31.777	1659.263	1403.736
-41.042	31.865	1656.573	1402.063
-40.027	31.780	1655.693	1400.632
-39.013	31.758	1653.777	1398.791
-37.998	31.783	1652.185	1397.574
-36.984	31.921	1649.923	1396.631
-35.969	31.940	1648.913	1395.866
-34.954	31.926	1647.391	1394.412
-33.940	31.861	1645.654	1392.406
-32.925	31.951	1644.104	1391.709
-31.911	31.878	1642.126	1389.440
-30.896	31.864	1640.586	1387.978
-29.881	31.952	1638.349	1386.680
-28.867	31.888	1636.786	1384.830
-27.852	31.913	1634.991	1383.440
-26.838	31.930	1633.704	1382.419
-25.823	31.932	1632.201	1381.109
-24.809	31.978	1630.716	1380.137
-23.794	32.015	1628.942	1378.849
-22.779	31.930	1628.619	1377.899
-21.765	31.901	1626.563	1375.895
-20.750	31.862	1625.130	1374.341
-19.736	31.952	1623.538	1373.600
-18.721	31.978	1621.543	1372.046
-17.706	32.042	1620.234	1371.352
-16.692	31.923	1619.385	1369.707
-15.677	31.905	1617.740	1368.130
-14.663	31.980	1616.502	1367.575
-13.648	31.995	1614.633	1366.054
-12.633	31.889	1613.580	1364.330
-11.619	31.999	1611.255	1363.112
-10.604	31.935	1610.025	1361.551
-9.590	31.875	1609.203	1360.371
-8.575	31.921	1607.931	1359.572
-7.560	31.981	1606.836	1359.030
-6.546	32.024	1605.235	1357.930
-5.531	32.000	1604.038	1356.693
-4.517	31.938	1602.770	1355.116
-3.502	31.906	1601.934	1354.124
-2.487	32.030	1600.217	1353.514
-1.473	31.850	1588.986	1342.674
-0.458	29.348	1569.127	1308.119
0.556	27.908	1569.080	1275.338
1.571	25.562	1593.289	1278.245
2.586	24.771	1605.339	1282.126
3.600	21.666	1551.158	1217.204
4.615	13.299	1440.877	1076.329
5.629	6.008	1376.315	982.536
6.644	4.604	1367.887	967.699
7.659	4.538	1367.302	966.786
8.673	4.762	1365.727	966.980
9.688	4.717	1364.278	965.588
10.702	4.621	1361.721	963.099
11.717	7.944	1368.179	988.233
12.731	16.410	1383.850	1052.403
13.746	22.080	1392.063	1093.976
14.761	22.448	1391.809	1095.971
15.775	21.829	1389.672	1090.344
16.790	20.755	1387.113	1081.570
17.804	19.952	1385.150	1074.963
18.819	19.699	1383.956	1072.371
19.834	19.521	1382.819	1070.289
20.848	19.385	1381.882	1068.624
21.863	19.278	1380.628	1066.899
22.877	19.170	1379.549	1065.302
23.892	19.125	1378.089	1063.803
24.907	19.075	1377.853	1063.220
25.921	19.051	1376.832	1062.187
26.936	19.146	1376.046	1062.073
27.950	19.083	1375.219	1060.951
28.965	19.281	1373.684	1060.895
29.980	19.322	1373.460	1060.877
30.994	19.314	1372.548	1060.030
32.009	19.576	1370.916	1060.284
33.023	19.426	1369.871	1058.467
34.038	19.341	1368.402	1056.715
35.053	19.182	1367.269	1054.775
36.067	19.249	1365.995	1054.108
37.082	19.318	1365.107	1053.749
38.096	19.462	1364.021	1053.698
39.111	19.424	1363.628	1053.067
40.126	19.166	1362.486	1050.519
41.140	18.895	1361.527	1048.035
42.155	18.921	1360.294	1047.149
43.169	18.757	1361.159	1046.724
44.184	18.884	1360.254	1046.710
45.199	18.855	1359.766	1046.067
46.213	19.026	1359.130	1046.522
47.228	19.195	1359.044	1047.396
48.242	19.248	1357.572	1046.488
49.257	19.161	1356.183	1044.797
50.271	19.228	1354.679	1043.952
51.286	19.245	1353.434	1043.006
52.301	19.211	1352.258	1041.800
53.315	19.096	1350.883	1039.955
54.330	18.972	1350.019	1038.444
55.344	18.812	1349.165	1036.734
56.359	18.848	1348.292	1036.188
57.374	18.872	1347.185	1035.390
58.388	18.778	1346.179	1033.961
59.403	18.739	1345.950	1033.454
60.417	18.697	1345.206	1032.540
61.432	18.716	1343.813	1031.495
62.447	18.485	1343.222	1029.560
63.461	18.543	1341.705	1028.655
64.476	18.564	1340.723	1027.938
65.490	18.516	1339.553	1026.665
66.505	18.564	1338.081	1025.733
67.520	18.575	1336.937	1024.831
68.534	18.625	1335.682	1024.078
69.549	18.574	1334.704	1022.931
70.563	18.531	1333.824	1021.906
71.578	18.398	1332.483	1019.997
72.593	18.362	1331.681	1019.081
73.607	18.337	1331.426	1018.647
74.622	18.415	1330.239	1018.112
75.636	18.467	1329.528	1017.784
76.651	18.498	1328.723	1017.264
77.666	18.519	1328.385	1017.041
78.680	18.686	1327.917	1017.583
79.695	18.583	1327.552	1016.602
80.709	18.750	1326.431	1016.640
81.724	18.877	1325.859	1016.864
82.739	18.954	1325.121	1016.666
83.753	19.050	1324.524	1016.685
84.768	19.224	1323.594	1016.907
85.782	19.365	1322.665	1016.938
86.797	19.356	1321.274	1015.725
87.812	19.246	1320.453	1014.355
88.826	19.202	1318.471	1012.482
89.841	19.218	1318.052	1012.169
90.855	19.312	1317.092	1011.890
91.870	19.407	1316.421	1011.846
92.884	19.468	1315.669	1011.533
93.899	19.397	1314.744	1010.315
94.914	19.514	1314.009	1010.345
95.928	19.420	1313.104	1009.013
96.943	19.353	1312.239	1007.865
97.957	19.392	1310.972	1007.035
98.972	19.268	1310.335	1005.733
99.987	19.264	1309.347	1004.862
101.001	19.345	1308.216	1004.373
102.016	19.304	1307.688	1003.644
103.030	19.326	1306.732	1002.946
104.045	19.334	1305.691	1002.106
105.060	19.206	1304.008	999.984
106.074	18.929	1302.503	997.133
107.089	18.783	1300.955	995.013
108.103	18.491	1300.101	992.584
109.118	18.557	1298.957	992.003
110.133	18.550	1297.487	990.752
111.147	18.665	1296.151	990.310
112.162	18.650	1294.923	989.198
113.176	18.782	1293.970	989.138
114.191	18.750	1293.443	988.463
115.206	18.781	1291.973	987.431
116.220	18.742	1290.747	986.183
117.235	18.756	1289.283	985.060
118.249	18.705	1288.282	983.914
119.264	18.601	1287.301	982.484
120.279	18.526	1286.356	981.244
121.293	18.525	1285.197	980.270
122.308	18.482	1284.094	979.095
123.322	18.351	1282.987	977.418
124.337	18.349	1282.104	976.646
125.352	18.434	1280.243	975.630
126.366	18.387	1279.253	974.522
127.381	18.395	1278.161	973.644
128.395	18.278	1277.327	972.258
129.410	18.545	1276.355	972.947
130.424	18.568	1276.051	972.764
131.439	18.683	1275.081	972.589
132.454	18.712	1274.390	972.139
133.468	18.738	1273.807	971.757
134.483	18.740	1272.816	970.925
135.497	18.726	1272.134	970.239
136.512	18.810	1270.693	969.530
137.527	18.871	1269.167	968.625
138.541	18.814	1268.252	967.519
139.556	18.854	1266.887	966.616
140.570	18.933	1266.269	966.504
141.585	19.047	1264.964	966.064
142.600	19.185	1263.649	965.748
143.614	19.291	1262.812	965.615
144.629	19.356	1261.963	965.242
145.643	19.349	1260.729	964.175
146.658	19.159	1259.868	962.369
147.673	19.090	1257.792	960.314
148.687	18.840	1257.274	958.439
149.702	18.821	1255.143	956.626
150.716	18.746	1253.957	955.218
151.731	18.815	1252.701	954.559
152.746	18.883	1251.940	954.276
153.760	18.981	1250.930	953.966
154.775	18.942	1249.804	952.803
155.789	18.996	1248.957	952.372
156.804	19.158	1247.589	952.142
157.819	19.107	1247.079	951.384
158.833	19.303	1246.153	951.678
159.848	19.406	1245.270	951.489
160.862	19.332	1244.257	950.219
161.877	19.062	1242.759	947.508
162.892	18.851	1241.453	945.268
163.906	18.709	1240.691	943.825
164.921	18.798	1239.950	943.662
165.935	18.910	1238.670	943.224
166.950	18.935	1238.563	943.195
167.964	18.995	1237.711	942.791
168.979	18.929	1236.647	941.534
169.994	18.954	1235.990	941.088
171.008	19.015	1235.061	940.631
172.023	19.119	1234.594	940.762
173.037	19.380	1233.427	941.213
174.052	19.185	1232.549	939.396
175.067	19.102	1231.141	937.787
176.081	18.922	1229.873	935.757
177.096	18.861	1229.204	934.834
178.110	18.891	1228.370	934.280
179.125	19.110	1226.885	934.258
180.140	19.071	1225.758	933.108
181.154	19.106	1225.144	932.743
182.169	19.287	1224.152	932.888
183.183	19.276	1223.060	931.914
184.198	19.349	1221.468	931.012
185.213	19.335	1220.759	930.314
186.227	19.427	1219.525	929.788
187.242	19.438	1218.975	929.345
188.256	19.596	1217.682	929.127
189.271	19.552	1216.688	928.049
190.286	19.378	1215.713	926.290
191.300	18.888	1214.879	922.942
192.315	18.833	1213.514	921.525
193.329	18.790	1213.565	921.256
194.344	18.957	1212.654	921.376
195.359	19.005	1212.644	921.545
196.373	19.160	1211.912	921.734
197.388	19.296	1211.377	921.974
198.402	19.551	1211.334	923.225
199.417	19.649	1210.621	923.122
200.432	19.772	1210.015	923.237
201.446	19.815	1209.469	922.970
202.461	19.838	1208.892	922.569
203.475	19.829	1207.915	921.694
204.490	19.704	1205.868	919.387
205.504	19.466	1204.717	917.163
206.519	19.451	1203.293	915.918
207.534	19.499	1202.184	915.247
208.548	19.394	1201.638	914.190
209.563	19.324	1201.473	913.613
210.577	19.363	1200.068	912.670
211.592	19.533	1199.436	913.012
212.607	19.694	1198.121	912.777
213.621	19.725	1197.643	912.494
214.636	19.610	1196.882	911.230
215.650	19.655	1195.772	910.542
216.665	19.798	1194.946	910.583
217.680	19.879	1194.211	910.372
218.694	19.960	1193.455	910.140
219.709	19.931	1192.283	909.011
220.723	19.866	1191.717	908.160
221.738	19.829	1190.919	907.276
222.753	19.887	1190.179	906.936
223.767	19.790	1189.487	905.821
224.782	20.054	1188.749	906.562
225.796	20.069	1188.596	906.441
226.811	20.036	1187.922	905.678
227.826	19.882	1186.537	903.737
228.840	19.694	1186.089	902.334
229.855	19.692	1185.547	901.831
230.869	19.823	1184.474	901.618
231.884	19.669	1183.761	900.194
232.899	19.617	1182.704	899.037
233.913	19.550	1181.936	898.025
234.928	19.494	1180.944	896.900
235.942	19.545	1180.165	896.495
236.957	19.549	1179.352	895.820
237.972	19.493	1179.097	895.256
238.986	19.639	1178.192	895.245
240.001	19.544	1177.609	894.234
241.015	19.586	1176.388	893.443
242.030	19.661	1175.945	893.415
243.045	19.686	1175.357	893.020
244.059	19.785	1174.634	892.899
245.074	19.957	1173.576	892.904
246.088	19.926	1173.196	892.376
247.103	19.926	1172.761	891.968
248.117	20.052	1172.287	892.177
249.132	20.293	1171.332	892.613
250.147	20.510	1170.818	893.256
251.161	20.642	1170.026	893.249
252.176	20.648	1169.528	892.820
253.190	20.730	1168.829	892.631
254.205	20.752	1168.337	892.289
255.220	20.766	1167.891	891.939
256.234	20.831	1167.233	891.693
257.249	20.810	1166.128	890.664
258.263	20.783	1165.403	889.889
259.278	20.740	1164.632	889.004
260.293	20.710	1164.564	888.722
261.307	20.843	1164.117	888.976
262.322	20.956	1163.141	888.732
263.336	20.839	1162.734	887.743
264.351	20.741	1162.326	886.856
265.366	20.903	1161.405	886.899
266.380	20.874	1160.733	886.159
267.395	20.860	1159.808	885.305
268.409	20.675	1158.818	883.531
269.424	20.687	1157.981	882.874
270.439	20.618	1157.634	882.181
271.453	20.620	1156.771	881.456
272.468	20.613	1155.526	880.396
273.482	20.465	1154.757	878.984
274.497	20.446	1154.625	878.707
275.512	20.463	1153.888	878.158
276.526	20.558	1152.905	877.811
277.541	20.516	1152.135	876.934
278.555	20.588	1151.616	876.821
279.570	20.847	1150.918	877.521
280.585	20.892	1150.462	877.323
281.599	20.856	1149.549	876.368
282.614	20.817	1148.033	874.938
283.628	20.730	1146.742	873.439
284.643	20.680	1145.998	872.546
285.657	20.708	1145.214	872.011
286.672	20.707	1144.376	871.290
287.687	20.828	1143.422	871.091
288.701	20.778	1142.931	870.392
289.716	20.738	1142.202	869.558
290.730	20.809	1141.311	869.161
291.745	20.782	1140.740	868.513
292.760	20.740	1140.354	867.934
293.774	20.852	1139.769	867.966
294.789	20.960	1139.491	868.217
295.803	21.128	1138.335	868.097
296.818	20.906	1137.150	866.013
297.833	20.766	1136.695	864.893
298.847	20.840	1135.828	864.523
299.862	20.814	1135.169	863.815
300.876	20.810	1134.536	863.240
301.891	20.824	1134.581	863.266
302.906	21.072	1133.569	863.649
303.920	21.138	1133.066	863.515
304.935	21.183	1132.769	863.434
305.949	21.293	1131.974	863.296
306.964	21.371	1131.013	862.873
307.979	21.191	1130.250	861.325
308.993	21.276	1129.130	860.815
310.008	21.279	1128.633	860.376
311.022	21.308	1128.234	860.136
312.037	21.231	1127.494	859.117
313.052	21.085	1126.154	857.306
314.066	21.052	1124.772	856.012
315.081	20.835	1124.410	854.596
316.095	20.758	1123.444	853.411
317.110	20.724	1122.643	852.561
318.125	20.813	1122.000	852.430
319.139	20.897	1120.900	851.929
320.154	20.837	1120.612	851.343
321.168	20.736	1119.892	850.228
322.183	20.798	1119.510	850.164
323.197	20.780	1119.030	849.638
324.212	21.033	1118.010	850.020
325.227	20.991	1117.676	849.490
326.241	21.009	1116.955	848.953
327.256	20.918	1115.871	847.612
328.270	20.940	1114.778	846.812
329.285	20.960	1114.184	846.382
330.300	20.862	1113.434	845.264
331.314	20.921	1112.236	844.562
332.329	20.988	1111.217	844.041
333.343	20.909	1110.995	843.416
334.358	21.205	1110.070	844.071
335.373	21.246	1109.075	843.434
336.387	21.155	1108.554	842.525
337.402	21.377	1107.818	842.965
338.416	21.353	1107.138	842.256
339.431	21.508	1106.748	842.628
340.446	21.389	1106.240	841.595
341.460	21.637	1105.810	842.386
342.475	21.665	1104.756	841.645
343.489	21.699	1104.046	841.192
344.504	21.925	1102.755	841.220
345.519	21.752	1102.570	840.173
346.533	21.840	1101.991	840.078
347.548	21.920	1101.029	839.653
348.562	21.950	1099.698	838.708
349.577	21.628	1099.312	836.804
350.592	21.454	1098.161	835.020
351.606	21.404	1097.365	834.102
352.621	21.138	1097.014	832.493
353.635	21.290	1096.056	832.418
354.650	21.201	1095.439	831.454
355.665	21.313	1094.711	831.360
356.679	21.473	1093.954	831.470
357.694	21.518	1093.691	831.410
358.708	21.627	1093.016	831.344
359.723	21.503	1092.451	830.250
360.738	21.573	1091.766	829.989
361.752	21.560	1091.273	829.476
362.767	21.649	1090.787	829.456
363.781	21.750	1089.916	829.201
364.796	21.837	1089.794	829.445
365.810	21.987	1088.903	829.403
366.825	22.035	1088.626	829.344
367.840	22.195	1088.239	829.731
368.854	22.282	1087.900	829.808
369.869	22.190	1087.093	828.688
370.883	22.120	1085.339	826.949
371.898	21.997	1085.066	826.086
372.913	22.075	1084.433	825.898
373.927	21.962	1084.031	824.990
374.942	22.216	1083.555	825.745
375.956	22.129	1082.963	824.813
376.971	22.031	1082.808	824.160
377.986	22.086	1082.053	823.775
379.000	22.281	1081.470	824.170
380.015	22.422	1080.550	824.056
381.029	22.487	1080.219	824.034
382.044	22.283	1079.788	822.681
383.059	22.254	1078.625	821.586
384.073	22.361	1077.742	821.337
385.088	22.312	1076.911	820.404
386.102	22.370	1076.195	820.056
387.117	22.114	1074.832	817.752
388.132	21.970	1074.099	816.456
389.146	21.837	1073.694	815.457
390.161	21.811	1072.980	814.722
391.175	21.993	1072.016	814.763
392.190	22.067	1071.468	814.617
393.205	22.277	1070.668	814.906
394.219	22.253	1069.701	813.990
395.234	22.177	1068.780	812.865
396.248	22.059	1067.826	811.520
397.263	22.177	1066.294	810.831
398.278	22.024	1065.826	809.696
399.292	21.875	1064.852	808.199
400.307	21.750	1064.291	807.127
401.321	21.808	1064.026	807.120
402.336	21.829	1063.313	806.607
403.350	21.725	1062.833	805.693
404.365	21.990	1061.844	806.086
405.380	21.948	1061.791	805.782
406.394	22.040	1060.757	805.350
407.409	22.139	1060.187	805.301
408.423	22.312	1059.249	805.310
409.438	22.499	1058.595	805.595
410.453	22.555	1058.250	805.516
411.467	22.626	1057.202	804.971
412.482	22.650	1056.760	804.673
413.496	22.697	1056.214	804.399
414.511	22.737	1055.476	803.950
415.526	22.973	1054.892	804.508
416.540	22.914	1055.050	804.291
417.555	22.869	1054.358	803.487
418.569	22.727	1053.556	802.157
419.584	22.877	1052.864	802.241
420.599	22.690	1052.775	801.254
421.613	155.815	1401.222	1794.614
422.628	143.064	1451.971	1794.703
