DTS Sentinel unit serial number:	SN413079Multiplexer serial number:	ORYXHardware model number:	OX4-SRSoftware version number:	ORYX F/W v4.00 Oryx Data Collector v3.7.2.0data status	okinstallation	princeton_trtdifferential loss correction	single-endedforward channel	channel 2reverse channel	N/Adate	2019/09/12time	18:53:49forward acquisition time	15.00reverse acquisition time	0.00gamma	496.2192k internal	0.2325k external	0.2325temperature offset calibration	1.0135default loss term (dB/km)	0.3790temperature slope calibration	1.0000multiplexer offset coefficient	1.0000multiplexer slope coefficient	1.0000fibre end	0.00T internal ref (°C)	32.87T ext. ref 1 (°C)	3.02T ext. ref 2 (°C)	27.34length (m)	temperature (°C)	Stokes	anti-Stokes-747.200	-47.797	1.077	-0.526
-746.185	29.067	0.129	0.111
-745.171	-200.000	0.121	0.589
-744.156	-129.267	-0.990	-0.139
-743.142	188.351	0.144	-0.217
-742.127	-200.000	-0.040	0.497
-741.112	-200.000	-0.063	0.726
-740.098	458.089	-0.292	-0.655
-739.083	-91.944	-0.386	0.110
-738.069	0.347	0.776	0.559
-737.054	-200.000	0.047	-1.105
-736.039	800.000	-0.049	0.197
-735.025	74.233	-0.261	0.276
-734.010	-103.759	0.691	0.163
-732.996	718.677	-0.168	0.451
-731.981	608.336	-0.246	0.620
-730.966	-13.532	-0.149	-0.097
-729.952	-200.000	-0.054	-0.395
-728.937	-100.628	-0.472	-0.118
-727.923	126.159	-0.200	0.255
-726.908	-170.484	0.657	0.023
-725.894	-88.616	-0.739	-0.222
-724.879	800.000	-0.187	-0.552
-723.864	-200.000	0.052	0.459
-722.850	-200.000	0.141	-0.627
-721.835	-48.895	0.646	0.312
-720.821	88.502	-0.394	0.441
-719.806	540.920	-0.330	-0.792
-718.791	126.859	0.419	0.536
-717.777	398.556	-0.316	-0.668
-716.762	51.211	-0.561	0.537
-715.748	-25.563	-0.333	0.198
-714.733	800.000	0.145	0.406
-713.718	-99.326	0.899	0.229
-712.704	-200.000	-0.107	-0.927
-711.689	-200.000	-0.060	-0.534
-710.675	-200.000	-0.020	-0.166
-709.660	-200.000	-0.064	-0.664
-708.645	133.315	0.185	0.241
-707.631	-68.032	-0.484	-0.190
-706.616	236.490	0.226	-0.376
-705.602	138.472	0.210	0.278
-704.587	-200.000	-0.078	-0.368
-703.572	397.895	-0.332	-0.699
-702.558	332.490	0.559	-1.087
-701.543	-200.000	0.111	-0.644
-700.529	-200.000	0.040	-0.184
-699.514	-88.142	-0.331	0.100
-698.499	-154.348	-0.507	0.034
-697.485	-6.829	0.257	-0.176
-696.470	800.000	-0.082	0.283
-695.456	6.747	-0.198	-0.148
-694.441	-20.655	0.808	0.500
-693.426	47.129	0.169	-0.159
-692.412	-14.977	0.174	-0.113
-691.397	36.171	0.273	-0.242
-690.383	-200.000	-0.115	-0.761
-689.368	371.501	0.437	0.893
-688.354	537.850	0.075	-0.179
-687.339	-138.515	0.403	-0.045
-686.324	25.841	-0.206	0.173
-685.310	-61.953	-0.025	0.011
-684.295	-188.476	-0.584	0.007
-683.281	20.558	0.527	-0.429
-682.266	800.000	0.081	-0.311
-681.251	-46.775	1.207	-0.595
-680.237	-93.081	0.401	-0.113
-679.222	-31.898	0.146	0.082
-678.208	-92.623	-0.614	-0.173
-677.193	52.025	-0.235	0.225
-676.178	-11.150	-0.539	0.358
-675.164	-200.000	0.006	0.569
-674.149	553.001	0.120	-0.290
-673.135	91.954	-0.247	-0.280
-672.120	399.499	0.174	-0.367
-671.105	-135.313	-0.804	-0.097
-670.091	-39.244	0.200	-0.106
-669.076	-200.000	0.010	0.235
-668.062	68.833	-0.212	-0.219
-667.047	800.000	0.241	0.780
-666.032	-79.520	0.687	0.233
-665.018	552.724	0.152	0.367
-664.003	800.000	0.142	-0.463
-662.989	-45.908	-0.345	0.171
-661.974	-200.000	0.040	-0.208
-660.959	-162.303	-0.615	-0.031
-659.945	-113.181	1.247	-0.247
-658.930	39.346	-0.108	0.097
-657.916	-77.243	0.597	-0.209
-656.901	48.689	1.126	1.062
-655.886	-84.497	-0.421	-0.134
-654.872	94.510	0.610	0.697
-653.857	-33.404	0.753	0.418
-652.843	-200.000	0.074	-0.411
-651.828	-64.856	-0.861	0.350
-650.814	-164.910	0.404	-0.018
-649.799	48.288	-0.433	0.407
-648.784	800.000	-0.060	-0.192
-647.770	550.347	0.186	-0.448
-646.755	-166.978	-1.228	-0.050
-645.741	214.493	-0.386	0.615
-644.726	-20.876	0.665	0.410
-643.711	25.597	0.254	0.213
-642.697	-83.332	0.646	-0.208
-641.682	-200.000	0.006	-0.598
-640.668	-200.000	-0.051	0.461
-639.653	570.531	0.220	0.538
-638.638	-200.000	0.056	0.432
-637.624	800.000	0.077	-0.310
-636.609	116.225	-0.214	-0.264
-635.595	542.629	0.190	-0.455
-634.580	31.832	0.510	0.441
-633.565	-107.877	0.312	-0.068
-632.551	216.031	-0.142	0.227
-631.536	192.272	0.567	-0.860
-630.522	-33.860	-0.571	0.316
-629.507	-200.000	0.027	0.509
-628.492	99.412	-0.349	0.406
-627.478	-179.725	-0.214	-0.005
-626.463	-186.754	0.448	-0.006
-625.449	91.901	0.321	0.363
-624.434	-200.000	0.066	-0.806
-623.419	800.000	-0.108	0.341
-622.405	-124.852	0.459	0.071
-621.390	-90.287	0.706	-0.206
-620.376	567.618	0.233	0.569
-619.361	-23.281	0.555	0.335
-618.346	-88.601	-0.274	-0.082
-617.332	-136.790	1.015	0.117
-616.317	203.781	0.086	-0.133
-615.303	-200.000	0.024	0.473
-614.288	134.027	-0.033	-0.043
-613.273	353.101	0.079	-0.158
-612.259	-5.159	0.829	-0.573
-611.244	-102.893	0.276	-0.066
-610.230	-56.300	0.187	-0.083
-609.215	7.663	0.287	-0.216
-608.201	800.000	0.244	-0.777
-607.186	170.969	0.176	0.253
-606.171	-61.055	0.525	-0.223
-605.157	65.028	0.389	-0.394
-604.142	-73.127	-0.156	0.057
-603.128	800.000	0.092	-0.351
-602.113	-113.374	-0.549	-0.108
-601.098	353.665	-0.308	-0.613
-600.084	-200.000	0.051	-0.239
-599.069	800.000	0.050	0.139
-598.055	-160.191	0.488	-0.027
-597.040	74.204	0.129	-0.136
-596.025	-48.015	-0.403	0.196
-595.011	61.584	-0.352	0.352
-593.996	-169.998	0.531	0.019
-592.982	800.000	0.297	-1.118
-591.967	76.922	0.679	0.724
-590.952	-83.809	0.308	0.098
-589.938	-28.200	-0.293	-0.170
-588.923	800.000	-0.134	-0.563
-587.909	119.473	-0.361	-0.449
-586.894	-35.167	-0.588	0.321
-585.879	-122.897	0.261	-0.042
-584.865	-50.853	0.627	-0.296
-583.850	800.000	0.078	-0.240
-582.836	48.532	-0.293	-0.276
-581.821	-200.000	0.123	1.266
-580.806	63.384	-0.398	-0.400
-579.792	-200.000	-0.095	-0.543
-578.777	548.310	-0.210	-0.504
-577.763	-200.000	-0.174	-1.043
-576.748	800.000	0.292	1.251
-575.733	-82.935	0.938	0.303
-574.719	-56.823	-0.782	-0.347
-573.704	78.821	-0.301	-0.322
-572.690	28.413	0.236	-0.200
-571.675	-70.941	-0.417	0.158
-570.661	43.048	-0.351	-0.321
-569.646	292.877	0.498	0.910
-568.631	219.599	-0.295	0.473
-567.617	123.862	0.440	0.553
-566.602	-200.000	0.022	0.242
-565.588	115.579	0.152	0.186
-564.573	-200.000	0.002	-0.328
-563.558	-22.748	-0.394	-0.238
-562.544	-8.839	-0.284	-0.190
-561.529	-180.882	0.570	0.012
-560.515	800.000	-0.055	-0.172
-559.500	-142.814	0.635	-0.062
-558.485	-18.905	-0.668	0.416
-557.471	599.159	0.178	0.443
-556.456	-87.901	-0.603	0.182
-555.442	800.000	0.157	0.554
-554.427	78.965	-0.583	-0.626
-553.412	-143.165	-0.283	0.027
-552.398	-200.000	0.106	0.493
-551.383	-83.673	-0.834	-0.267
-550.369	0.453	0.415	0.297
-549.354	171.023	-0.110	-0.158
-548.339	338.055	-0.233	0.453
-547.325	115.982	-0.278	-0.341
-546.310	-72.616	0.223	0.082
-545.296	-125.268	-1.130	0.173
-544.281	-200.000	0.164	-0.830
-543.266	-37.480	-0.122	-0.065
-542.252	496.551	0.164	0.377
-541.237	3.720	1.150	0.840
-540.223	-39.162	0.623	-0.328
-539.208	-75.905	-0.561	0.199
-538.193	-99.526	-0.457	0.115
-537.179	288.372	0.356	0.645
-536.164	-200.000	-0.143	0.742
-535.150	45.813	-0.144	-0.133
-534.135	-200.000	0.057	-0.442
-533.121	-158.495	-0.443	-0.026
-532.106	416.508	0.284	-0.607
-531.091	100.434	-0.512	0.595
-530.077	-93.200	0.581	0.162
-529.062	-200.000	0.002	-0.378
-528.048	-184.863	1.208	-0.019
-527.033	471.953	0.128	0.288
-526.018	-71.668	-1.124	0.420
-525.004	294.173	0.149	0.273
-523.989	800.000	-0.224	-0.795
-522.975	800.000	0.133	0.538
-521.960	-61.982	0.315	-0.132
-520.945	83.616	-0.525	0.573
-519.931	31.487	0.458	0.393
-518.916	103.001	0.254	0.298
-517.902	-200.000	-0.074	0.589
-516.887	-41.082	0.346	-0.179
-515.872	410.077	-0.275	0.583
-514.858	58.973	-0.383	-0.377
-513.843	2.723	0.309	-0.224
-512.829	16.204	0.577	-0.455
-511.814	225.740	-0.573	-0.929
-510.799	82.706	0.298	-0.324
-509.785	21.651	-0.193	-0.157
-508.770	-200.000	-0.012	-0.498
-507.756	34.048	0.924	-0.805
-506.741	-0.304	0.519	-0.369
-505.726	-200.000	0.072	0.621
-504.712	93.861	0.184	-0.209
-503.697	800.000	0.202	-0.727
-502.683	17.416	-0.705	0.560
-501.668	135.238	-0.409	0.531
-500.653	-106.463	0.181	-0.040
-499.639	800.000	-0.051	-0.173
-498.624	35.677	0.501	-0.440
-497.610	-200.000	-0.063	-0.776
-496.595	33.315	0.392	0.340
-495.581	-200.000	0.138	-0.775
-494.566	-57.598	-1.062	-0.465
-493.551	-28.115	0.615	-0.356
-492.537	-54.705	0.814	0.367
-491.522	308.879	-0.186	0.346
-490.508	236.103	0.448	0.740
-489.493	-57.051	-0.330	-0.145
-488.478	-103.902	-0.725	0.169
-487.464	-22.476	0.395	-0.239
-486.449	209.789	-0.455	0.712
-485.435	-172.276	-1.018	0.033
-484.420	-200.000	0.106	0.535
-483.405	-166.399	-0.317	-0.013
-482.391	35.455	-0.357	0.313
-481.376	19.616	0.391	-0.314
-480.362	-34.468	-0.401	-0.219
-479.347	-133.407	0.633	0.079
-478.332	-200.000	-0.009	-0.804
-477.318	183.972	0.446	-0.659
-476.303	800.000	0.236	-0.695
-475.289	-72.094	-0.215	0.080
-474.274	-200.000	-0.112	-0.805
-473.259	422.410	-0.286	-0.614
-472.245	-200.000	0.080	-0.650
-471.230	-78.875	-0.553	-0.188
-470.216	125.061	-0.190	-0.239
-469.201	7.615	0.251	-0.187
-468.186	150.044	0.109	0.148
-467.172	-90.874	-0.488	-0.140
-466.157	-67.889	0.856	0.334
-465.143	4.258	0.229	0.167
-464.128	-70.862	0.676	0.254
-463.113	-200.000	-0.027	0.151
-462.099	298.460	-0.301	-0.552
-461.084	284.575	0.360	-0.646
-460.070	19.011	0.254	-0.203
-459.055	-42.558	-0.366	-0.186
-458.040	-54.949	-0.862	-0.388
-457.026	16.593	-0.190	-0.150
-456.011	-76.719	0.918	-0.321
-454.997	-200.000	0.029	0.450
-453.982	-200.000	-0.032	-0.574
-452.968	-200.000	0.207	0.000
-451.953	-200.000	0.027	-0.191
-450.938	800.000	-0.257	0.859
-449.924	-200.000	0.062	-0.616
-448.909	-37.239	0.095	-0.051
-447.895	-200.000	-0.048	0.851
-446.880	8.048	-0.451	-0.337
-445.865	279.033	-0.217	0.385
-444.851	-172.559	0.789	-0.025
-443.836	0.967	-0.415	-0.296
-442.822	-149.286	0.385	0.031
-441.807	399.579	-0.419	0.876
-440.792	-138.669	0.754	0.082
-439.778	-200.000	0.018	-0.160
-438.763	143.096	-0.208	0.276
-437.749	-200.000	0.006	0.116
-436.734	105.736	0.218	-0.258
-435.719	166.633	-0.260	-0.367
-434.705	-200.000	-0.049	0.242
-433.690	-200.000	-0.050	0.281
-432.676	-200.000	0.116	0.514
-431.661	21.382	-0.282	-0.228
-430.646	-92.731	-1.073	-0.299
-429.632	-29.521	-1.204	-0.686
-428.617	220.496	0.191	0.305
-427.603	-200.000	-0.058	1.214
-426.588	800.000	0.087	-0.339
-425.573	800.000	-0.179	-0.780
-424.559	-118.689	-0.128	0.023
-423.544	-144.541	1.025	-0.094
-422.530	-38.632	0.210	-0.111
-421.515	19.846	0.448	0.359
-420.500	-143.836	-0.395	0.037
-419.486	-200.000	0.021	0.173
-418.471	-116.493	0.959	0.176
-417.457	55.182	-0.308	0.296
-416.442	-81.978	-0.266	0.086
-415.428	-200.000	-0.165	-1.217
-414.413	800.000	-0.156	0.532
-413.398	-31.742	-0.338	-0.189
-412.384	-200.000	0.078	0.893
-411.369	12.969	0.459	-0.353
-410.355	23.912	0.150	0.123
-409.340	-200.000	0.035	0.592
-408.325	18.835	-0.787	-0.627
-407.311	257.683	-0.235	0.402
-406.296	-200.000	0.016	-0.593
-405.282	185.850	-0.404	0.598
-404.267	-2.648	-0.671	-0.468
-403.252	-89.401	-0.543	-0.159
-402.238	-200.000	0.113	1.238
-401.223	0.008	0.447	-0.317
-400.209	-158.653	-0.340	0.019
-399.194	208.200	0.411	0.639
-398.179	-200.000	-0.067	-0.568
-397.165	-25.894	-0.150	0.088
-396.150	226.657	0.371	0.599
-395.136	-169.792	-0.486	0.017
-394.121	48.629	-0.323	-0.301
-393.106	44.145	-0.362	0.331
-392.092	164.647	-0.219	0.308
-391.077	-67.396	0.363	-0.142
-390.063	-200.000	0.130	-0.672
-389.048	104.421	-0.313	0.367
-388.033	-200.000	0.035	0.721
-387.019	-200.000	0.001	0.820
-386.004	-58.178	-0.777	0.337
-384.990	-115.926	-0.203	0.038
-383.975	-200.000	0.022	0.344
-382.960	-101.491	0.268	-0.065
-381.946	-5.441	-0.073	0.050
-380.931	24.200	0.378	-0.311
-379.917	-61.488	-0.386	0.162
-378.902	3.799	0.161	-0.117
-377.888	-83.529	0.678	0.216
-376.873	-23.887	-0.705	0.420
-375.858	9.827	0.677	0.511
-374.844	-8.742	-0.914	0.610
-373.829	392.280	-0.319	0.659
-372.815	617.581	0.135	0.337
-371.800	-95.573	0.352	0.094
-370.785	-68.324	0.196	0.076
-369.771	4.751	-0.218	-0.159
-368.756	-104.840	0.379	-0.087
-367.742	-139.926	-0.964	0.101
-366.727	-31.576	-0.384	0.214
-365.712	-141.540	0.491	-0.049
-364.698	108.711	0.467	-0.555
-363.683	-101.273	-0.785	0.191
-362.669	126.301	0.252	-0.317
-361.654	186.251	-0.170	-0.252
-360.639	257.409	0.139	0.238
-359.625	29.737	-0.273	-0.231
-358.610	-111.713	0.222	0.045
-357.596	33.665	-0.458	-0.395
-356.581	43.894	0.118	0.108
-355.566	-25.424	0.396	-0.233
-354.552	378.117	0.247	-0.502
-353.537	131.739	0.301	-0.385
-352.523	-69.865	-0.310	0.118
-351.508	800.000	0.125	0.447
-350.493	-102.437	0.916	-0.218
-349.479	-155.553	0.487	-0.031
-348.464	179.302	-0.197	-0.287
-347.450	78.454	0.149	0.159
-346.435	800.000	-0.209	0.738
-345.420	65.280	0.751	0.754
-344.406	-92.296	0.224	-0.063
-343.391	157.666	-0.229	0.315
-342.377	-102.757	-0.574	-0.136
-341.362	-102.488	-1.171	-0.278
-340.348	-30.048	-0.467	0.264
-339.333	-135.937	0.921	-0.108
-338.318	78.245	-0.099	0.105
-337.304	-2.837	-0.418	-0.290
-336.289	-83.348	0.314	0.100
-335.275	800.000	-0.101	-0.316
-334.260	118.911	0.298	-0.365
-333.245	-69.984	-0.459	0.174
-332.231	-104.388	-0.549	0.126
-331.216	800.000	0.181	0.661
-330.202	-159.583	-0.260	-0.014
-329.187	-96.814	0.100	-0.026
-328.172	21.328	0.489	-0.394
-327.158	-159.494	0.695	-0.038
-326.143	-200.000	-0.140	-0.808
-325.129	13.832	0.420	-0.324
-324.114	-200.000	-0.034	0.273
-323.099	459.719	-0.156	0.345
-322.085	247.855	-0.194	0.325
-321.070	-25.139	0.518	0.305
-320.056	-15.071	-0.363	-0.231
-319.041	62.284	0.251	0.248
-318.026	517.384	0.399	-0.927
-317.012	82.229	0.084	0.090
-315.997	205.525	-0.574	-0.886
-314.983	800.000	-0.074	-0.245
-313.968	-35.493	-0.554	-0.299
-312.953	-200.000	0.152	0.821
-311.939	-200.000	0.145	-0.745
-310.924	243.077	-0.123	0.204
-309.910	800.000	-0.334	1.226
-308.895	-4.456	0.747	0.512
-307.880	507.686	-0.162	0.374
-306.866	-0.308	-0.832	0.587
-305.851	-200.000	0.046	-0.260
-304.837	-200.000	-0.044	-0.580
-303.822	-83.769	1.021	-0.323
-302.807	-88.268	0.361	-0.107
-301.793	-2.716	-0.609	0.423
-300.778	705.435	-0.242	-0.633
-299.764	-71.742	0.932	-0.345
-298.749	743.058	0.190	0.506
-297.735	-25.530	-0.672	-0.394
-296.720	-109.283	-0.957	-0.201
-295.705	194.055	0.368	-0.553
-294.691	-45.217	0.438	-0.216
-293.676	149.076	-0.170	-0.228
-292.662	-200.000	-0.009	-0.106
-291.647	165.676	-0.383	0.537
-290.632	83.537	0.025	-0.028
-289.618	-28.617	-0.484	0.276
-288.603	-119.172	-0.563	0.097
-287.589	-128.392	-0.030	-0.004
-286.574	9.394	0.311	-0.233
-285.559	-200.000	-0.068	-0.652
-284.545	-200.000	0.022	0.594
-283.530	-137.810	0.755	-0.084
-282.516	670.045	-0.215	-0.551
-281.501	-142.829	0.419	0.040
-280.486	41.602	0.137	0.123
-279.472	-200.000	0.018	-0.151
-278.457	800.000	0.136	0.375
-277.443	-93.771	0.138	-0.038
-276.428	276.553	0.027	0.047
-275.413	800.000	-0.060	0.240
-274.399	147.288	-0.652	-0.869
-273.384	-56.199	0.257	-0.113
-272.370	201.155	-0.222	0.339
-271.355	251.476	-0.106	-0.178
-270.340	13.011	-0.438	-0.336
-269.326	147.658	0.193	-0.257
-268.311	-34.243	-0.779	-0.424
-267.297	-182.390	0.667	0.012
-266.282	-34.245	0.166	0.090
-265.267	-99.798	0.489	0.121
-264.253	-72.084	0.353	0.130
-263.238	-94.090	-0.119	0.032
-262.224	171.952	-0.255	0.363
-261.209	271.906	-0.482	0.841
-260.195	-11.988	0.338	-0.219
-259.180	19.731	0.484	0.386
-258.165	-200.000	0.097	-0.503
-257.151	-200.000	-0.058	0.388
-256.136	800.000	-0.244	-0.847
-255.122	4.977	0.223	0.163
-254.107	-8.754	-0.305	0.203
-253.092	61.364	0.248	-0.244
-252.078	577.915	-0.349	0.844
-251.063	-200.000	-0.038	0.238
-250.049	-93.550	0.513	0.140
-249.034	-200.000	-0.140	0.819
-248.019	215.080	0.164	0.257
-247.005	-97.936	0.355	-0.091
-245.990	188.303	-0.129	0.191
-244.976	24.755	0.369	0.302
-243.961	-200.000	0.054	1.310
-242.946	-7.319	-0.239	-0.160
-241.932	47.412	0.414	-0.382
-240.917	716.255	-0.201	-0.527
-239.903	-120.049	-1.083	-0.184
-238.888	-23.208	-0.410	0.244
-237.873	151.135	-0.110	0.148
-236.859	-90.232	0.167	0.048
-235.844	-46.479	-0.431	0.209
-234.830	800.000	0.357	-1.033
-233.815	-6.384	0.198	0.134
-232.800	-95.913	-0.688	-0.181
-231.786	-120.430	-0.798	0.134
-230.771	-200.000	0.055	-0.536
-229.757	227.995	-0.437	0.704
-228.742	6.997	0.771	0.568
-227.727	-91.414	1.311	0.370
-226.713	-49.168	-0.310	0.147
-225.698	800.000	0.018	0.058
-224.684	-26.797	0.927	0.536
-223.669	-106.644	-0.277	-0.061
-222.655	-4.041	-0.251	-0.172
-221.640	782.337	-0.141	0.381
-220.625	242.428	0.142	0.236
-219.611	-2.700	-0.184	0.128
-218.596	117.040	0.495	0.602
-217.582	800.000	-0.103	0.374
-216.567	17.748	0.518	-0.408
-215.552	-35.540	0.214	-0.115
-214.538	17.183	-0.175	0.137
-213.523	247.330	0.399	-0.665
-212.509	-144.627	0.402	-0.037
-211.494	-129.963	-0.435	-0.059
-210.479	-126.989	-0.491	0.071
-209.465	-200.000	0.058	-0.944
-208.450	-200.000	-0.007	-0.045
-207.436	-200.000	-0.049	-0.240
-206.421	91.146	-0.083	0.092
-205.406	-6.671	0.276	-0.186
-204.392	800.000	-0.088	-0.299
-203.377	71.795	-0.393	-0.404
-202.363	-82.299	0.545	0.175
-201.348	-48.210	-0.515	0.245
-200.333	341.513	0.189	0.365
-199.319	800.000	0.030	-0.125
-198.304	-137.193	-0.640	0.072
-197.290	-92.132	0.557	0.155
-196.275	31.102	-0.203	-0.172
-195.260	3.758	-0.176	-0.127
-194.246	-60.152	0.525	0.221
-193.231	-92.538	-0.361	0.100
-192.217	701.873	-0.229	0.595
-191.202	-200.000	-0.101	0.836
-190.187	163.209	-0.164	-0.228
-189.173	27.192	-0.277	-0.230
-188.158	800.000	-0.302	-0.914
-187.144	-200.000	-0.048	0.587
-186.129	-3.080	-0.354	0.244
-185.114	198.907	0.247	-0.374
-184.100	-60.177	0.599	0.252
-183.085	-21.350	-0.396	-0.239
-182.071	-200.000	0.004	0.411
-181.056	-137.611	0.621	-0.069
-180.042	800.000	-0.329	-0.950
-179.027	91.946	0.538	-0.597
-178.012	75.444	0.190	-0.198
-176.998	3.189	-0.481	-0.345
-175.983	-32.926	-0.395	0.216
-174.969	-42.325	0.462	0.233
-173.954	444.402	-0.127	-0.276
-172.939	-145.075	-0.524	-0.047
-171.925	-27.509	-0.821	-0.471
-170.910	172.029	0.037	0.052
-169.896	-88.483	-0.247	-0.073
-168.881	-46.409	0.612	0.297
-167.866	800.000	0.143	0.504
-166.852	16.593	0.214	0.167
-165.837	-177.865	-0.643	0.015
-164.823	-200.000	0.087	0.415
-163.808	800.000	0.233	-0.712
-162.793	218.426	-0.155	0.244
-161.779	-200.000	0.005	-0.476
-160.764	185.247	-0.883	-1.292
-159.750	-200.000	-0.044	-0.209
-158.735	-200.000	0.016	-0.189
-157.720	59.479	-0.457	-0.444
-156.706	3.325	0.849	-0.610
-155.691	-152.194	-1.052	0.075
-154.677	80.546	0.384	0.408
-153.662	-200.000	0.052	0.375
-152.647	691.777	0.381	0.984
-151.633	89.779	-0.125	-0.137
-150.618	253.794	0.257	0.433
-149.604	-150.894	0.509	0.038
-148.589	-116.480	-0.511	0.093
-147.574	-5.815	0.488	-0.330
-146.560	-200.000	0.032	0.627
-145.545	236.450	0.277	0.452
-144.531	-200.000	-0.065	-0.440
-143.516	-200.000	-0.005	0.162
-142.502	-46.686	0.840	-0.406
-141.487	-24.258	-1.419	0.835
-140.472	800.000	-0.048	0.145
-139.458	-200.000	-0.105	-0.592
-138.443	800.000	0.117	-0.330
-137.429	800.000	0.248	0.895
-136.414	-156.075	0.474	-0.030
-135.399	-18.611	-0.779	0.479
-134.385	-141.851	0.833	-0.082
-133.370	-68.514	0.961	0.367
-132.356	-73.261	-0.800	-0.288
-131.341	8.393	-0.616	-0.456
-130.326	-14.813	0.635	-0.402
-129.312	217.424	-0.381	0.598
-128.297	-114.273	0.870	0.165
-127.283	23.185	0.642	-0.519
-126.268	-53.884	-0.270	0.121
-125.253	-4.521	-0.430	0.292
-124.239	-70.256	0.697	0.261
-123.224	58.137	-0.518	0.500
-122.210	800.000	0.353	0.981
-121.195	-49.272	-0.320	0.151
-120.180	-146.569	0.433	0.037
-119.166	-39.076	-0.606	-0.314
-118.151	800.000	-0.100	0.364
-117.137	800.000	-0.247	-0.900
-116.122	800.000	-0.241	-0.877
-115.107	-200.000	-0.128	-1.262
-114.093	-33.383	-0.168	0.091
-113.078	-200.000	0.117	0.566
-112.064	-200.000	0.052	-0.374
-111.049	7.167	1.179	0.866
-110.034	-30.595	-0.234	0.130
-109.020	-63.598	-0.262	-0.106
-108.005	193.230	0.776	-1.155
-106.991	-200.000	0.022	0.810
-105.976	-10.239	0.174	0.114
-104.962	-136.420	-0.596	0.068
-103.947	59.978	0.914	0.889
-102.932	181.149	-0.463	0.669
-101.918	245.379	-0.325	-0.538
-100.903	44.018	0.490	0.442
-99.889	80.046	0.422	-0.447
-98.874	-152.241	0.260	-0.019
-97.859	365.742	0.257	0.509
-96.845	-56.174	-0.610	0.267
-95.830	324.087	0.441	-0.828
-94.816	364.505	-0.060	-0.119
-93.801	581.446	-0.214	0.517
-92.786	48.089	-0.307	0.283
-91.772	-45.343	-0.309	0.151
-90.757	-97.620	0.342	0.087
-89.743	-112.313	-0.316	0.062
-88.728	-200.000	0.021	-0.267
-87.713	21.167	-0.181	-0.145
-86.699	-200.000	0.095	-0.718
-85.684	-89.718	-1.054	0.304
-84.670	-200.000	0.154	0.783
-83.655	-55.091	0.404	0.179
-82.640	437.755	-0.032	-0.069
-81.626	-200.000	-0.057	0.524
-80.611	-29.579	0.809	0.454
-79.597	800.000	0.098	0.364
-78.582	-168.926	-0.847	0.031
-77.567	475.459	-0.135	0.300
-76.553	309.905	-0.259	-0.476
-75.538	-87.845	0.387	-0.115
-74.524	-19.891	0.500	-0.304
-73.509	30.457	-0.659	-0.554
-72.494	381.313	0.608	-1.227
-71.480	-92.259	0.929	-0.258
-70.465	-200.000	-0.077	0.707
-69.451	-36.407	-0.372	0.197
-68.436	366.469	0.414	0.821
-67.422	181.567	-0.095	-0.137
-66.407	-4.417	-0.251	0.171
-65.392	-107.974	0.273	-0.058
-64.378	75.875	-0.235	-0.244
-63.363	68.190	0.333	-0.336
-62.349	-114.375	0.523	0.099
-61.334	-28.541	-1.043	-0.591
-60.319	-78.465	0.602	-0.202
-59.305	800.000	0.333	-0.973
-58.290	1.785	0.732	0.518
-57.276	182.478	0.432	0.626
-56.261	-200.000	94.526	580.197
-55.246	667.530	1358.220	3449.493
-54.232	202.401	2532.580	3839.337
-53.217	112.497	2251.302	2675.871
-52.203	42.198	1881.195	1678.313
-51.188	36.113	1674.237	1448.082
-50.173	33.565	1629.196	1390.408
-49.159	51.790	1679.116	1569.065
-48.144	52.811	1694.330	1590.818
-47.130	35.683	1655.205	1428.200
-46.115	33.061	1641.051	1396.580
-45.100	32.728	1635.531	1389.375
-44.086	32.742	1633.132	1387.388
-43.071	32.757	1630.660	1385.340
-42.057	32.682	1628.427	1382.840
-41.042	32.645	1627.350	1381.601
-40.027	32.655	1624.484	1379.181
-39.013	32.947	1621.477	1378.712
-37.998	32.963	1619.562	1377.140
-36.984	32.601	1619.686	1374.556
-35.969	32.898	1617.463	1374.778
-34.954	33.008	1615.908	1374.199
-33.940	32.964	1614.208	1372.383
-32.925	32.872	1612.779	1370.441
-31.911	33.031	1610.745	1369.813
-30.896	32.901	1608.663	1367.049
-29.881	32.853	1607.513	1365.670
-28.867	32.934	1605.275	1364.296
-27.852	32.898	1604.731	1363.521
-26.838	32.833	1603.691	1362.110
-25.823	32.987	1601.566	1361.364
-24.809	32.777	1600.042	1358.502
-23.794	32.849	1598.251	1357.449
-22.779	32.767	1597.559	1356.218
-21.765	32.782	1595.881	1354.845
-20.750	32.758	1595.259	1354.094
-19.736	33.022	1592.576	1353.651
-18.721	33.034	1590.725	1352.108
-17.706	32.884	1590.133	1350.480
-16.692	32.889	1588.872	1349.391
-15.677	32.806	1587.455	1347.545
-14.663	32.913	1586.515	1347.451
-13.648	32.957	1584.781	1346.240
-12.633	32.877	1583.854	1344.828
-11.619	32.768	1581.917	1342.355
-10.604	32.883	1580.434	1341.865
-9.590	32.736	1578.851	1339.423
-8.575	33.096	1576.558	1339.973
-7.560	32.970	1576.260	1338.778
-6.546	32.771	1575.072	1336.303
-5.531	32.765	1574.642	1335.846
-4.517	32.850	1572.381	1334.473
-3.502	32.756	1572.359	1333.737
-2.487	32.837	1571.196	1333.273
-1.473	32.519	1558.822	1320.487
-0.458	29.689	1539.351	1284.312
0.556	27.371	1539.272	1253.096
1.571	24.826	1561.283	1253.104
2.586	23.963	1574.607	1257.593
3.600	21.389	1521.915	1197.789
4.615	12.548	1412.722	1055.276
5.629	4.506	1349.370	958.415
6.644	3.025	1341.014	943.314
7.659	3.194	1338.007	942.151
8.673	2.935	1337.329	940.007
9.688	2.926	1336.213	939.079
10.702	2.739	1333.584	936.011
11.717	6.222	1340.069	961.803
12.731	15.838	1357.001	1033.166
13.746	23.513	1369.063	1089.600
14.761	24.991	1371.145	1100.245
15.775	25.073	1369.041	1098.963
16.790	25.170	1368.688	1099.177
17.804	25.001	1368.171	1097.632
18.819	25.074	1368.451	1098.203
19.834	25.146	1366.218	1096.754
20.848	25.207	1366.815	1097.512
21.863	25.047	1366.822	1096.438
22.877	25.385	1364.701	1096.709
23.892	25.186	1364.462	1095.203
24.907	25.367	1363.396	1095.355
25.921	25.464	1361.923	1094.666
26.936	25.446	1360.460	1093.286
27.950	25.282	1359.886	1091.725
28.965	25.314	1358.886	1091.022
29.980	25.206	1358.013	1089.568
30.994	25.629	1357.434	1091.575
32.009	25.603	1356.083	1090.232
33.023	25.482	1355.674	1089.074
34.038	25.390	1354.247	1087.276
35.053	25.617	1353.452	1087.916
36.067	25.327	1352.063	1084.952
37.082	25.242	1351.169	1083.624
38.096	25.432	1350.483	1084.127
39.111	25.479	1349.821	1083.782
40.126	25.038	1349.692	1080.923
41.140	25.196	1348.229	1080.607
42.155	25.359	1348.019	1081.323
43.169	25.095	1349.545	1080.860
44.184	25.217	1347.140	1079.572
45.199	25.335	1347.604	1080.561
46.213	24.966	1346.947	1077.718
47.228	25.213	1346.389	1078.660
48.242	25.272	1344.967	1077.779
49.257	25.522	1343.867	1078.302
50.271	25.328	1343.175	1076.489
51.286	25.457	1341.638	1075.932
52.301	25.287	1340.920	1074.245
53.315	25.231	1339.545	1072.712
54.330	25.310	1338.460	1072.222
55.344	25.435	1336.884	1071.612
56.359	25.081	1336.695	1069.253
57.374	25.400	1334.760	1069.510
58.388	25.376	1335.808	1070.111
59.403	25.425	1333.670	1068.596
60.417	25.078	1333.563	1066.350
61.432	25.345	1333.478	1067.777
62.447	25.157	1333.055	1066.230
63.461	25.201	1331.576	1065.208
64.476	25.131	1330.672	1063.979
65.490	25.132	1329.557	1062.999
66.505	25.303	1326.803	1061.713
67.520	25.203	1325.909	1060.316
68.534	25.330	1325.092	1060.317
69.549	25.051	1324.733	1058.286
70.563	25.283	1323.546	1058.613
71.578	25.228	1323.578	1058.220
72.593	25.246	1321.363	1056.461
73.607	25.206	1321.888	1056.552
74.622	25.084	1321.033	1055.059
75.636	25.397	1319.891	1055.897
76.651	25.124	1319.180	1053.630
77.666	25.327	1319.166	1054.715
78.680	25.201	1318.911	1053.678
79.695	25.284	1317.652	1053.064
80.709	25.059	1318.097	1052.008
81.724	25.484	1315.968	1052.709
82.739	25.281	1315.257	1050.857
83.753	25.559	1313.760	1051.195
84.768	25.377	1313.133	1049.537
85.782	25.578	1312.375	1050.010
86.797	25.575	1311.152	1048.923
87.812	25.585	1309.732	1047.749
88.826	25.417	1308.900	1046.013
89.841	25.590	1308.096	1046.285
90.855	25.437	1306.509	1044.037
91.870	25.542	1306.101	1044.227
92.884	25.611	1305.349	1043.931
93.899	25.536	1304.926	1043.068
94.914	25.588	1304.223	1042.716
95.928	25.553	1303.315	1041.695
96.943	25.536	1302.086	1040.520
97.957	25.595	1300.809	1039.746
98.972	25.412	1302.004	1039.553
99.987	25.551	1298.851	1037.746
101.001	25.436	1298.795	1036.947
102.016	25.274	1298.991	1036.074
103.030	25.409	1297.404	1035.498
104.045	25.289	1297.587	1034.857
105.060	25.483	1295.421	1034.155
106.074	25.319	1293.967	1031.963
107.089	25.403	1294.092	1032.453
108.103	25.119	1292.586	1029.529
109.118	25.030	1291.239	1027.857
110.133	25.209	1289.553	1027.447
111.147	25.425	1288.775	1027.974
112.162	25.567	1287.699	1027.832
113.176	25.430	1287.174	1026.541
114.191	25.302	1286.454	1025.148
115.206	25.304	1284.991	1023.903
116.220	25.487	1283.903	1023.988
117.235	25.246	1283.253	1022.003
118.249	25.176	1281.979	1020.503
119.264	25.145	1281.198	1019.611
120.279	25.261	1280.415	1019.561
121.293	25.129	1281.294	1019.419
122.308	25.375	1278.600	1018.581
123.322	25.329	1278.561	1018.198
124.337	25.278	1277.218	1016.751
125.352	25.242	1276.938	1016.234
126.366	25.467	1274.942	1015.825
127.381	25.220	1274.843	1014.262
128.395	25.171	1273.887	1013.132
129.410	25.115	1272.652	1011.748
130.424	25.283	1271.489	1011.681
131.439	25.377	1270.893	1011.647
132.454	25.290	1271.393	1011.463
133.468	25.472	1269.432	1010.839
134.483	25.568	1268.792	1010.780
135.497	25.165	1269.312	1008.836
136.512	25.403	1267.879	1008.943
137.527	25.350	1266.006	1007.071
138.541	25.174	1265.746	1005.782
139.556	25.666	1263.113	1006.356
140.570	25.394	1263.638	1005.162
141.585	25.602	1262.249	1005.133
142.600	25.547	1260.625	1003.444
143.614	25.799	1260.783	1004.889
144.629	25.473	1259.733	1002.144
145.643	25.550	1259.065	1001.950
146.658	25.234	1258.266	999.469
147.673	25.427	1257.280	999.669
148.687	25.447	1255.752	998.476
149.702	25.359	1254.793	997.137
150.716	25.168	1253.064	994.616
151.731	24.913	1251.583	991.939
152.746	25.183	1251.420	993.219
153.760	25.624	1249.639	994.155
154.775	25.462	1250.667	993.992
155.789	25.540	1249.554	993.451
156.804	25.516	1247.804	991.837
157.819	25.324	1246.345	989.533
158.833	25.157	1246.424	988.587
159.848	25.246	1246.339	988.921
160.862	25.252	1246.004	988.600
161.877	25.608	1243.894	988.798
162.892	25.433	1242.287	986.470
163.906	25.319	1241.371	985.029
164.921	25.269	1241.276	984.594
165.935	25.340	1240.427	984.224
166.950	25.785	1238.821	985.298
167.964	25.564	1239.036	984.173
168.979	25.262	1240.005	983.197
169.994	25.472	1238.348	982.945
171.008	25.461	1237.163	981.860
172.023	25.571	1236.049	981.491
173.037	25.526	1235.264	980.532
174.052	25.405	1234.710	979.345
175.067	25.420	1234.364	979.068
176.081	25.210	1234.021	977.566
177.096	25.355	1231.894	976.581
178.110	25.151	1231.536	975.105
179.125	25.319	1230.152	974.832
180.140	25.620	1229.191	975.618
181.154	25.323	1227.784	972.808
182.169	25.380	1226.540	972.041
183.183	25.218	1225.800	970.495
184.198	25.593	1224.140	971.120
185.213	25.657	1224.025	971.286
186.227	25.599	1224.405	971.188
187.242	25.735	1222.000	969.926
188.256	25.545	1221.847	968.700
189.271	25.745	1220.277	968.447
190.286	25.539	1220.013	967.042
191.300	25.087	1220.733	965.091
192.315	25.448	1218.452	965.141
193.329	25.629	1217.585	965.343
194.344	25.393	1218.140	964.431
195.359	25.205	1217.495	962.824
196.373	25.195	1216.068	961.557
197.388	25.298	1215.477	961.555
198.402	25.384	1215.768	962.162
199.417	25.452	1215.100	961.916
200.432	25.509	1214.918	961.992
201.446	25.479	1214.575	961.475
202.461	25.455	1213.454	960.370
203.475	25.752	1211.795	960.558
204.490	24.948	1211.346	955.827
205.504	25.296	1210.121	956.634
206.519	25.440	1209.137	956.534
207.534	25.089	1208.611	954.170
208.548	25.124	1207.100	953.078
209.563	25.276	1206.700	953.483
210.577	25.170	1205.534	951.913
211.592	25.263	1205.543	952.334
212.607	25.450	1205.097	952.885
213.621	25.434	1204.861	952.533
214.636	25.358	1203.049	950.613
215.650	25.392	1201.681	949.630
216.665	25.255	1201.940	949.025
217.680	25.526	1201.781	950.248
218.694	25.465	1199.781	948.259
219.709	25.318	1198.680	946.529
220.723	25.446	1197.403	946.110
221.738	25.450	1197.464	946.096
222.753	25.330	1196.084	944.293
223.767	25.174	1195.753	943.129
224.782	25.368	1195.479	943.844
225.796	25.557	1195.612	944.860
226.811	25.689	1193.934	944.143
227.826	25.571	1192.484	942.294
228.840	25.097	1193.700	940.689
229.855	25.280	1192.036	940.252
230.869	25.575	1191.646	941.406
231.884	25.630	1190.187	940.455
232.899	25.228	1189.728	937.909
233.913	25.355	1189.278	938.136
234.928	25.372	1188.575	937.589
235.942	25.299	1187.332	936.144
236.957	25.076	1187.362	934.920
237.972	25.111	1185.748	933.748
238.986	25.171	1185.711	933.949
240.001	25.168	1185.382	933.593
241.015	25.026	1184.634	932.183
242.030	25.311	1184.442	933.431
243.045	25.597	1182.736	933.487
244.059	25.394	1182.580	932.228
245.074	25.502	1181.704	932.015
246.088	25.791	1181.002	932.878
247.103	25.729	1179.362	931.180
248.117	25.607	1179.276	930.396
249.132	25.865	1177.970	930.616
250.147	25.957	1178.161	931.158
251.161	26.129	1177.936	931.787
252.176	25.851	1176.313	928.991
253.190	26.047	1175.785	929.500
254.205	26.024	1176.660	929.990
255.220	25.961	1175.567	928.718
256.234	26.138	1175.370	929.392
257.249	25.993	1174.610	927.966
258.263	25.996	1173.480	927.003
259.278	26.221	1171.689	926.664
260.293	26.024	1172.135	925.922
261.307	26.194	1171.608	926.297
262.322	25.960	1171.017	924.547
263.336	26.307	1170.129	925.541
264.351	25.903	1169.856	923.175
265.366	26.013	1169.588	923.445
266.380	26.036	1167.972	922.206
267.395	25.969	1167.942	921.759
268.409	25.644	1167.865	919.953
269.424	25.626	1167.730	919.670
270.439	25.949	1165.928	919.820
271.453	25.967	1165.243	919.294
272.468	25.946	1163.263	917.541
273.482	25.705	1164.156	916.936
274.497	25.763	1162.687	915.993
275.512	25.827	1162.005	915.699
276.526	25.981	1161.198	915.765
277.541	25.757	1160.561	914.047
278.555	26.230	1159.458	915.492
279.570	25.828	1159.413	913.338
280.585	26.312	1158.590	915.059
281.599	26.215	1158.139	914.132
282.614	26.044	1157.181	912.432
283.628	26.009	1155.513	910.857
284.643	25.857	1156.270	910.605
285.657	25.926	1155.091	909.946
286.672	25.794	1153.691	908.096
287.687	25.904	1153.007	908.033
288.701	25.838	1152.690	907.370
289.716	26.003	1152.094	907.653
290.730	25.608	1152.430	905.848
291.745	25.849	1150.692	905.614
292.760	25.791	1150.452	905.054
293.774	25.975	1149.975	905.520
294.789	26.245	1148.297	905.471
295.803	26.387	1147.620	905.570
296.818	26.310	1146.952	904.579
297.833	26.180	1145.771	902.917
298.847	25.928	1145.763	901.570
299.862	26.183	1144.834	902.032
300.876	25.964	1144.094	900.279
301.891	25.876	1144.641	900.190
302.906	26.191	1143.531	900.808
303.920	26.257	1143.184	900.785
304.935	26.183	1142.471	899.772
305.949	26.242	1141.875	899.515
306.964	26.099	1141.291	898.263
307.979	26.373	1139.566	898.189
308.993	26.040	1140.322	897.050
310.008	25.989	1139.076	895.739
311.022	26.108	1138.538	895.829
312.037	26.404	1137.256	896.207
313.052	26.055	1136.971	894.172
314.066	26.045	1135.164	892.622
315.081	25.823	1133.922	890.472
316.095	25.619	1133.466	889.027
317.110	26.017	1132.996	890.545
318.125	25.717	1132.470	888.572
319.139	25.480	1131.867	886.849
320.154	25.726	1131.997	888.085
321.168	25.739	1131.127	887.387
322.183	25.740	1130.690	886.971
323.197	25.781	1130.710	887.110
324.212	26.119	1128.546	886.996
325.227	25.947	1129.565	886.872
326.241	26.048	1128.956	886.815
327.256	25.893	1127.180	884.580
328.270	25.909	1126.877	884.342
329.285	25.882	1125.762	883.254
330.300	25.709	1124.574	881.398
331.314	26.100	1123.515	882.400
332.329	25.441	1124.125	879.578
333.343	26.024	1122.197	880.841
334.358	26.295	1120.357	880.642
335.373	26.605	1119.807	881.641
336.387	26.535	1119.813	881.225
337.402	26.569	1119.041	880.705
338.416	26.336	1118.840	879.336
339.431	26.346	1118.664	879.168
340.446	26.449	1118.342	879.337
341.460	26.568	1117.299	879.018
342.475	26.710	1116.130	878.711
343.489	26.464	1115.749	877.138
344.504	26.426	1114.983	876.274
345.519	26.533	1114.056	875.984
346.533	26.615	1112.625	875.179
347.548	26.741	1112.819	875.864
348.562	26.595	1111.421	873.984
349.577	26.552	1110.422	872.910
350.592	26.136	1110.654	871.010
351.606	25.932	1110.475	869.807
352.621	26.116	1108.856	869.349
353.635	25.843	1108.813	867.921
354.650	25.767	1106.945	866.021
355.665	26.028	1106.775	867.065
356.679	26.301	1106.131	867.792
357.694	26.103	1106.283	866.884
358.708	26.369	1103.985	866.284
359.723	26.329	1104.200	866.182
360.738	26.206	1103.566	865.022
361.752	26.194	1101.891	863.573
362.767	26.614	1101.697	865.352
363.781	26.358	1102.087	864.356
364.796	26.466	1101.787	864.561
365.810	26.296	1101.979	863.826
366.825	26.361	1101.325	863.544
367.840	26.926	1099.971	865.103
368.854	26.691	1099.867	863.825
369.869	26.706	1098.991	863.128
370.883	26.487	1098.076	861.295
371.898	26.464	1097.390	860.568
372.913	26.820	1095.868	860.990
373.927	26.462	1095.709	859.088
374.942	26.564	1096.196	859.877
375.956	26.451	1096.010	859.119
376.971	26.346	1094.519	857.377
377.986	26.877	1093.456	858.984
379.000	26.781	1093.393	858.405
380.015	26.717	1093.085	857.784
381.029	26.919	1092.859	858.489
382.044	26.601	1092.496	856.623
383.059	26.606	1091.276	855.611
384.073	26.565	1090.425	854.675
385.088	26.564	1089.816	854.119
386.102	26.723	1088.473	853.741
387.117	26.651	1087.619	852.655
388.132	26.536	1085.799	850.611
389.146	26.379	1086.020	849.972
390.161	26.029	1085.249	847.652
391.175	26.203	1084.049	847.455
392.190	26.452	1084.305	848.747
393.205	26.758	1083.403	849.401
394.219	26.856	1082.392	848.989
395.234	26.523	1081.645	846.770
396.248	26.225	1080.292	844.247
397.263	26.213	1080.901	844.593
398.278	26.196	1080.798	844.353
399.292	26.395	1078.996	843.801
400.307	26.658	1077.349	843.663
401.321	26.753	1076.465	843.342
402.336	26.142	1075.952	840.019
403.350	26.119	1075.607	839.571
404.365	26.469	1074.806	840.496
405.380	26.687	1073.980	840.788
406.394	26.417	1073.664	839.213
407.409	26.501	1073.543	839.435
408.423	26.839	1072.823	840.367
409.438	26.526	1072.036	838.225
410.453	26.978	1071.468	839.796
411.467	27.122	1070.709	839.796
412.482	26.816	1069.295	837.197
413.496	26.720	1069.149	836.567
414.511	26.922	1069.142	837.421
415.526	26.785	1068.745	836.404
416.540	27.130	1067.626	837.040
417.555	27.211	1067.476	837.222
418.569	27.072	1066.766	835.951
419.584	26.604	1066.698	833.670
420.599	27.046	1065.767	834.905
421.613	152.828	1404.895	1792.890
422.628	140.605	1454.291	1792.985
