DTS Sentinel unit serial number:	SN413079Multiplexer serial number:	ORYXHardware model number:	OX4-SRSoftware version number:	ORYX F/W v4.00 Oryx Data Collector v3.7.2.0data status	okinstallation	princeton_trtdifferential loss correction	single-endedforward channel	channel 2reverse channel	N/Adate	2019/09/15time	03:43:35forward acquisition time	60.00reverse acquisition time	0.00gamma	496.2192k internal	0.2326k external	0.2326temperature offset calibration	1.0033default loss term (dB/km)	0.3790temperature slope calibration	1.0000multiplexer offset coefficient	1.0000multiplexer slope coefficient	1.0000fibre end	0.00T internal ref (°C)	31.00T ext. ref 1 (°C)	4.61T ext. ref 2 (°C)	25.91length (m)	temperature (°C)	Stokes	anti-Stokes-747.200	61.091	0.320	0.321
-746.185	-200.000	0.037	0.199
-745.171	-12.442	0.105	0.069
-744.156	-200.000	-0.017	0.251
-743.142	157.405	0.166	-0.231
-742.127	73.634	-0.080	0.084
-741.112	384.095	0.080	0.166
-740.098	85.918	-0.163	0.181
-739.083	-200.000	0.011	0.197
-738.069	10.707	-0.066	-0.051
-737.054	-63.248	-0.111	0.046
-736.039	146.739	-0.074	-0.101
-735.025	-148.420	0.144	0.012
-734.010	145.896	-0.090	-0.122
-732.996	-115.018	-0.243	0.047
-731.981	695.465	-0.039	0.104
-730.966	-54.706	-0.112	0.051
-729.952	-129.216	-0.056	-0.008
-728.937	-69.164	-0.193	0.075
-727.923	261.797	-0.099	-0.173
-726.908	718.275	-0.038	0.101
-725.894	-158.665	0.161	0.009
-724.879	-70.573	-0.444	-0.169
-723.864	-111.106	-0.236	0.049
-722.850	342.139	-0.108	0.214
-721.835	222.931	-0.216	0.351
-720.821	-23.518	-0.109	-0.066
-719.806	-44.738	-0.076	-0.038
-718.791	307.986	-0.032	-0.060
-717.777	412.316	0.093	-0.198
-716.762	219.590	0.184	-0.296
-715.748	-200.000	0.014	0.071
-714.733	-44.371	-0.222	0.112
-713.718	-91.022	-0.206	0.060
-712.704	-146.240	-0.299	0.026
-711.689	-9.509	0.201	0.135
-710.675	515.401	-0.051	-0.119
-709.660	-128.719	0.306	-0.043
-708.645	-5.867	-0.147	0.102
-707.631	203.868	-0.214	-0.334
-706.616	-96.423	0.125	0.033
-705.602	28.865	-0.144	0.123
-704.587	800.000	-0.052	-0.171
-703.572	-99.920	0.084	0.021
-702.558	-37.650	-0.174	0.093
-701.543	91.012	-0.202	0.228
-700.529	-200.000	-0.004	-0.018
-699.514	576.025	0.088	-0.216
-698.499	800.000	-0.119	0.518
-697.485	295.212	0.091	-0.167
-696.470	-115.891	-0.286	-0.054
-695.456	-69.546	0.361	0.139
-694.441	-47.327	0.075	0.037
-693.426	-200.000	0.016	-0.134
-692.412	-35.658	-0.331	-0.181
-691.397	-3.640	-0.137	-0.096
-690.383	335.272	-0.063	0.123
-689.368	-88.898	-0.394	0.118
-688.354	246.406	-0.163	-0.276
-687.339	-50.799	0.301	0.143
-686.324	127.112	-0.143	0.182
-685.310	40.210	0.051	-0.046
-684.295	75.108	-0.274	0.291
-683.281	-66.859	0.058	0.023
-682.266	-200.000	-0.083	0.407
-681.251	281.882	-0.216	0.390
-680.237	111.563	0.059	-0.071
-679.222	-68.637	0.052	0.020
-678.208	26.929	-0.056	0.047
-677.193	800.000	-0.057	0.203
-676.178	-87.095	0.215	-0.066
-675.164	-141.795	-0.293	-0.030
-674.149	-200.000	0.022	0.205
-673.135	69.409	0.363	-0.375
-672.120	292.023	0.209	-0.383
-671.105	-12.743	-0.201	-0.132
-670.091	-119.008	0.245	0.043
-669.076	131.461	-0.152	-0.197
-668.062	800.000	0.040	-0.149
-667.047	-149.402	0.217	0.017
-666.032	92.360	0.104	0.118
-665.018	726.139	-0.053	0.143
-664.003	-79.859	0.151	-0.051
-662.989	-106.268	-0.095	0.021
-661.974	800.000	0.052	0.163
-660.959	-45.890	0.060	0.030
-659.945	312.402	-0.078	-0.146
-658.930	-200.000	-0.021	-0.331
-657.916	96.119	-0.147	0.168
-656.901	394.584	-0.106	0.222
-655.886	377.839	-0.097	-0.200
-654.872	74.746	0.337	-0.356
-653.857	-82.457	0.075	0.025
-652.843	65.755	0.061	-0.062
-651.828	458.048	0.130	0.290
-650.814	-64.606	-0.149	-0.061
-649.799	800.000	0.104	-0.298
-648.784	-92.307	0.141	0.040
-647.770	800.000	-0.098	-0.289
-646.755	71.926	-0.039	-0.040
-645.741	-9.413	-0.146	-0.098
-644.726	192.873	0.129	-0.196
-643.711	134.413	-0.102	-0.134
-642.697	-200.000	-0.035	-0.167
-641.682	-157.911	-0.034	-0.002
-640.668	-200.000	0.006	-0.187
-639.653	62.186	-0.022	0.022
-638.638	83.719	-0.169	0.185
-637.624	-84.587	-0.208	0.066
-636.609	800.000	-0.045	0.129
-635.595	243.255	-0.092	0.155
-634.580	-107.957	0.165	-0.036
-633.565	244.828	-0.100	-0.169
-632.551	-34.374	0.107	0.059
-631.536	-109.919	0.073	-0.015
-630.522	36.866	-0.103	-0.092
-629.507	303.248	0.154	-0.287
-628.492	173.541	0.105	-0.152
-627.478	442.038	-0.126	-0.277
-626.463	-200.000	-0.011	-0.094
-625.449	-200.000	0.052	0.253
-624.434	29.408	-0.083	-0.071
-623.419	-200.000	0.010	-0.632
-622.405	10.274	0.111	0.085
-621.390	-107.702	0.279	0.061
-620.376	-200.000	0.001	0.260
-619.361	800.000	-0.093	-0.290
-618.346	108.609	-0.143	0.171
-617.332	26.967	-0.376	-0.317
-616.317	-59.459	-0.189	-0.081
-615.303	-77.913	0.148	-0.051
-614.288	-120.607	0.300	-0.051
-613.273	671.142	-0.101	-0.263
-612.259	12.031	0.019	0.015
-611.244	-200.000	-0.004	0.079
-610.230	800.000	-0.008	0.030
-609.215	-200.000	-0.006	0.100
-608.201	-200.000	-0.016	0.121
-607.186	147.555	-0.036	-0.048
-606.171	138.167	0.030	-0.040
-605.157	-37.371	0.075	-0.040
-604.142	8.422	0.220	-0.166
-603.128	-69.566	0.170	-0.065
-602.113	-200.000	-0.036	-0.163
-601.098	-52.931	-0.123	0.057
-600.084	-200.000	0.006	-0.036
-599.069	800.000	0.020	0.078
-598.055	-12.884	0.141	0.092
-597.040	21.866	0.331	-0.270
-596.025	-102.361	-0.168	0.040
-595.011	-200.000	-0.030	0.142
-593.996	67.868	-0.214	-0.220
-592.982	-84.170	0.428	-0.136
-591.967	-17.374	0.098	-0.062
-590.952	-31.740	-0.217	0.122
-589.938	167.064	0.080	0.114
-588.923	-200.000	-0.061	-0.333
-587.909	-23.223	-0.317	-0.191
-586.894	-43.897	0.277	-0.140
-585.879	-76.783	-0.062	-0.022
-584.865	-76.479	-0.185	0.065
-583.850	-200.000	0.052	0.352
-582.836	68.114	-0.110	-0.113
-581.821	61.972	-0.095	0.094
-580.806	-200.000	0.076	-0.408
-579.792	-38.764	-0.026	-0.014
-578.777	447.599	0.093	-0.206
-577.763	8.631	0.112	0.085
-576.748	1.426	-0.105	0.076
-575.733	81.031	-0.146	0.158
-574.719	199.586	-0.176	-0.270
-573.704	635.071	0.125	0.318
-572.690	-67.583	0.521	0.205
-571.675	278.870	-0.053	-0.095
-570.661	68.851	0.276	-0.284
-569.646	-76.766	0.177	0.062
-568.631	-0.243	0.120	0.086
-567.617	152.833	0.202	-0.276
-566.602	-87.063	-0.104	-0.032
-565.588	37.099	-0.231	0.205
-564.573	-200.000	-0.002	0.206
-563.558	-72.362	-0.164	0.061
-562.544	-200.000	0.010	0.132
-561.529	127.868	0.080	0.102
-560.515	88.034	-0.239	-0.265
-559.500	-114.160	0.137	-0.026
-558.485	318.425	-0.056	0.106
-557.471	-92.618	0.131	-0.037
-556.456	-4.517	-0.319	-0.221
-555.442	59.676	0.115	-0.114
-554.427	-21.226	-0.163	0.100
-553.412	232.301	0.072	-0.118
-552.398	-49.425	-0.099	-0.047
-551.383	99.399	-0.019	-0.022
-550.369	106.585	0.102	0.121
-549.354	-200.000	-0.016	-0.078
-548.339	-200.000	-0.293	-0.001
-547.325	-89.114	0.304	0.090
-546.310	12.455	0.182	0.141
-545.296	-119.223	-0.115	-0.020
-544.281	-24.841	-0.331	-0.197
-543.266	51.530	0.177	-0.169
-542.252	-200.000	0.053	0.245
-541.237	-94.961	0.149	0.040
-540.223	-74.313	-0.213	-0.077
-539.208	60.641	0.102	0.101
-538.193	-128.483	-0.154	-0.022
-537.179	12.540	-0.070	-0.054
-536.164	-43.928	-0.278	-0.140
-535.150	40.442	-0.283	-0.255
-534.135	800.000	-0.069	-0.194
-533.121	-200.000	0.002	0.066
-532.106	-200.000	0.018	-0.227
-531.091	-87.229	-0.137	-0.042
-530.077	-200.000	0.007	0.231
-529.062	190.387	0.044	-0.066
-528.048	240.356	0.109	0.182
-527.033	414.512	0.069	0.147
-526.018	800.000	0.021	0.064
-525.004	-40.325	0.228	-0.119
-523.989	-200.000	-0.020	-0.197
-522.975	-67.321	0.053	0.021
-521.960	-161.458	0.303	0.016
-520.945	21.012	-0.187	0.152
-519.931	-105.238	-0.019	0.004
-518.916	-146.012	-0.272	-0.024
-517.902	99.432	0.159	-0.184
-516.887	10.167	0.284	-0.216
-515.872	261.285	-0.182	0.315
-514.858	-103.846	-0.279	-0.065
-513.843	123.248	0.115	0.144
-512.829	-184.847	-0.064	0.001
-511.814	198.015	-0.121	0.185
-510.799	-156.416	0.293	-0.018
-509.785	-78.922	-0.138	-0.047
-508.770	268.398	0.185	0.325
-507.756	-200.000	0.017	-0.158
-506.741	-88.294	0.167	-0.050
-505.726	98.790	-0.157	-0.181
-504.712	800.000	-0.046	-0.191
-503.697	-6.464	0.034	-0.023
-502.683	-111.040	-0.074	0.015
-501.668	-200.000	-0.049	0.398
-500.653	20.516	-0.171	-0.138
-499.639	172.341	0.033	0.047
-498.624	634.508	0.114	-0.288
-497.610	-150.120	-0.487	0.038
-496.595	-28.400	-0.102	-0.059
-495.581	116.098	0.234	-0.286
-494.566	-200.000	0.001	0.026
-493.551	800.000	-0.093	-0.297
-492.537	474.995	0.057	-0.129
-491.522	95.203	-0.311	0.354
-490.508	-200.000	0.009	-0.107
-489.493	800.000	-0.013	-0.051
-488.478	-124.411	0.202	0.031
-487.464	-69.853	0.256	0.098
-486.449	-27.665	-0.373	0.216
-485.435	-200.000	-0.027	-0.281
-484.420	-48.437	-0.204	0.098
-483.405	638.371	0.150	-0.380
-482.391	426.414	-0.097	-0.208
-481.376	-29.859	0.177	-0.101
-480.362	127.319	-0.176	0.223
-479.347	-174.637	-0.055	0.002
-478.332	-119.108	0.215	-0.038
-477.318	-39.175	0.239	-0.125
-476.303	-44.352	-0.192	-0.096
-475.289	-113.083	0.195	0.038
-474.274	-160.152	-0.241	-0.013
-473.259	67.817	-0.082	0.084
-472.245	-140.823	-0.050	0.005
-471.230	-182.620	0.395	-0.007
-470.216	-4.353	0.141	-0.097
-469.201	-200.000	-0.023	-0.154
-468.186	2.916	0.333	-0.241
-467.172	454.456	-0.108	0.238
-466.157	217.805	-0.194	0.309
-465.143	-200.000	-0.084	0.468
-464.128	93.176	-0.268	0.302
-463.113	-97.173	0.426	-0.111
-462.099	486.494	0.122	0.278
-461.084	32.339	0.099	-0.085
-460.070	86.822	0.344	0.379
-459.055	532.084	0.039	0.092
-458.040	-120.817	-0.310	0.052
-457.026	-200.000	0.002	0.139
-456.011	764.505	-0.112	0.303
-454.997	109.178	-0.198	-0.236
-453.982	90.284	-0.218	-0.243
-452.968	136.443	-0.128	0.166
-451.953	475.042	0.097	-0.219
-450.938	320.369	0.126	-0.239
-449.924	0.273	0.115	0.082
-448.909	-77.315	0.512	0.177
-447.895	106.114	-0.207	-0.245
-446.880	203.821	-0.098	0.151
-445.865	23.576	-0.031	0.025
-444.851	-17.492	-0.405	-0.254
-443.836	-20.693	0.080	0.049
-442.822	93.399	0.215	0.242
-441.807	-200.000	-0.033	0.211
-440.792	800.000	-0.074	-0.217
-439.778	-104.962	0.275	0.063
-438.763	-200.000	0.037	0.213
-437.749	-132.117	0.203	-0.026
-436.734	-200.000	0.071	-0.335
-435.719	-114.482	-0.253	-0.049
-434.705	-96.299	-0.224	0.059
-433.690	97.787	0.065	-0.074
-432.676	101.217	0.108	-0.125
-431.661	-200.000	-0.054	0.319
-430.646	99.440	0.136	-0.156
-429.632	127.954	-0.087	-0.110
-428.617	317.799	0.088	-0.166
-427.603	26.345	-0.158	0.132
-426.588	418.742	-0.086	-0.184
-425.573	58.365	-0.248	-0.242
-424.559	33.617	0.322	0.279
-423.544	-125.006	0.208	-0.032
-422.530	331.314	-0.059	-0.114
-421.515	-200.000	-0.322	-0.001
-420.500	-122.108	-0.212	0.035
-419.486	-200.000	0.028	-0.254
-418.471	8.974	-0.166	0.125
-417.457	-23.623	-0.191	-0.114
-416.442	237.906	0.014	0.023
-415.428	100.417	0.146	-0.169
-414.413	-200.000	-0.000	0.247
-413.398	-200.000	-0.115	0.503
-412.384	245.515	0.163	0.273
-411.369	75.803	0.034	0.036
-410.355	14.260	0.182	-0.142
-409.340	8.507	-0.345	-0.259
-408.325	-200.000	0.029	-0.365
-407.311	12.856	-0.073	-0.057
-406.296	800.000	-0.048	0.205
-405.282	-200.000	-0.002	0.056
-404.267	-10.184	-0.076	0.050
-403.252	40.689	0.114	0.102
-402.238	-200.000	0.005	0.392
-401.223	151.457	0.121	0.164
-400.209	197.853	0.116	-0.177
-399.194	303.979	-0.160	-0.295
-398.179	135.915	-0.239	0.310
-397.165	-53.263	0.309	-0.141
-396.150	-130.858	0.053	0.007
-395.136	424.472	-0.085	0.183
-394.121	-11.167	0.311	0.204
-393.106	228.082	0.186	-0.301
-392.092	584.638	0.053	-0.129
-391.077	572.341	0.088	-0.214
-390.063	63.629	0.044	-0.044
-389.048	-16.832	-0.185	0.117
-388.033	-116.256	-0.149	-0.028
-387.019	-200.000	-0.002	-0.044
-386.004	192.392	-0.100	0.150
-384.990	800.000	-0.019	-0.082
-383.975	-159.143	0.208	-0.012
-382.960	800.000	0.060	0.234
-381.946	-28.533	0.162	-0.093
-380.931	127.030	-0.043	-0.054
-379.917	-3.443	0.062	-0.043
-378.902	800.000	-0.097	-0.322
-377.888	-179.097	-0.376	0.008
-376.873	-123.874	-0.313	-0.049
-375.858	-107.127	-0.367	0.080
-374.844	-9.839	-0.316	0.209
-373.829	372.882	-0.129	0.261
-372.815	18.742	0.117	-0.093
-371.800	800.000	0.031	-0.089
-370.785	132.164	-0.162	0.207
-369.771	-28.534	-0.199	0.114
-368.756	-200.000	-0.023	-0.182
-367.742	800.000	0.027	0.083
-366.727	-3.494	-0.272	-0.188
-365.712	-156.953	-0.031	-0.002
-364.698	500.471	-0.151	-0.346
-363.683	169.574	0.035	0.049
-362.669	-123.215	-0.100	0.016
-361.654	116.371	-0.380	0.463
-360.639	188.616	0.164	-0.243
-359.625	-147.085	-0.322	-0.027
-358.610	548.697	0.099	0.235
-357.596	800.000	-0.019	-0.071
-356.581	262.027	0.049	-0.085
-355.566	-111.137	-0.097	-0.020
-354.552	-200.000	0.049	-0.223
-353.537	378.744	0.088	-0.179
-352.523	321.222	0.034	0.064
-351.508	10.187	0.333	0.252
-350.493	-200.000	0.012	0.114
-349.479	-75.049	0.144	0.051
-348.464	-6.940	-0.399	0.269
-347.450	-200.000	-0.001	-0.175
-346.435	106.395	0.130	0.153
-345.420	-200.000	-0.007	-0.092
-344.406	38.650	0.240	-0.213
-343.391	-15.476	0.142	-0.090
-342.377	-200.000	-0.013	0.245
-341.362	-164.508	-0.176	-0.008
-340.348	-200.000	0.014	-0.184
-339.333	-27.877	0.121	-0.070
-338.318	-46.118	-0.322	0.157
-337.304	56.127	0.055	0.053
-336.289	-200.000	0.040	0.179
-335.275	800.000	0.057	0.223
-334.260	-9.997	0.211	-0.139
-333.245	-58.533	0.302	-0.130
-332.231	-135.381	-0.290	-0.034
-331.216	-200.000	0.000	0.032
-330.202	-200.000	0.069	0.464
-329.187	-200.000	-0.045	0.288
-328.172	4.425	-0.149	-0.108
-327.158	800.000	0.051	-0.196
-326.143	-138.587	-0.459	0.050
-325.129	-56.785	0.160	-0.070
-324.114	1.242	-0.136	0.097
-323.099	109.570	-0.316	0.376
-322.085	-200.000	-0.004	-0.314
-321.070	-97.672	-0.181	0.046
-320.056	-27.373	0.257	-0.148
-319.041	-101.716	-0.152	-0.037
-318.026	19.746	0.129	-0.103
-317.012	-128.254	0.161	-0.023
-315.997	-40.524	-0.184	-0.095
-314.983	193.986	0.129	0.194
-313.968	-102.735	0.381	0.090
-312.953	-200.000	0.005	-0.279
-311.939	402.000	-0.143	0.298
-310.924	-67.558	-0.214	0.083
-309.910	480.927	0.028	-0.063
-308.895	-200.000	0.004	-0.218
-307.880	53.160	0.205	-0.194
-306.866	205.764	0.166	-0.256
-305.851	125.981	-0.185	0.232
-304.837	800.000	-0.038	0.131
-303.822	800.000	0.021	-0.086
-302.807	-98.358	0.307	0.078
-301.793	800.000	-0.054	0.233
-300.778	-67.651	-0.170	0.066
-299.764	98.105	0.084	0.096
-298.749	325.713	0.118	-0.224
-297.735	-16.751	0.384	0.241
-296.720	131.452	-0.137	-0.174
-295.705	800.000	0.068	-0.208
-294.691	-90.986	-0.314	-0.090
-293.676	-138.956	-0.083	-0.009
-292.662	800.000	0.061	0.229
-291.647	-89.290	-0.108	0.032
-290.632	55.244	0.225	-0.216
-289.618	-51.479	-0.182	-0.084
-288.603	-15.379	0.189	0.120
-287.589	800.000	0.083	0.262
-286.574	-55.862	0.184	0.081
-285.559	-12.194	-0.228	0.148
-284.545	-200.000	-0.046	0.289
-283.530	213.511	0.032	-0.050
-282.516	236.260	-0.076	-0.125
-281.501	-2.618	0.334	0.231
-280.486	-20.881	0.196	-0.119
-279.472	97.351	0.275	0.312
-278.457	250.948	0.218	0.367
-277.443	-114.610	-0.111	-0.021
-276.428	-11.414	-0.239	0.156
-275.413	-148.229	0.490	0.040
-274.399	313.878	-0.039	0.072
-273.384	-11.407	-0.021	-0.013
-272.370	-29.635	0.162	0.092
-271.355	-69.212	-0.331	0.126
-270.340	-40.828	-0.265	-0.136
-269.326	-200.000	-0.006	-0.043
-268.311	18.238	0.107	0.085
-267.297	32.849	0.447	0.383
-266.282	39.387	0.156	0.139
-265.267	-155.503	0.249	-0.016
-264.253	-114.536	0.233	-0.044
-263.238	435.115	-0.073	0.157
-262.224	187.891	0.205	0.304
-261.209	184.124	0.135	0.198
-260.195	52.557	0.115	0.109
-259.180	85.876	0.248	0.270
-258.165	-61.674	-0.309	0.128
-257.151	118.954	0.023	0.029
-256.136	-77.245	-0.141	-0.048
-255.122	-46.000	0.192	-0.094
-254.107	89.125	-0.072	0.079
-253.092	202.628	0.295	-0.451
-252.078	-9.341	0.211	0.139
-251.063	-178.158	-0.284	0.007
-250.049	-62.858	0.139	0.057
-249.034	-200.000	-0.012	0.193
-248.019	294.294	0.038	0.069
-247.005	-52.037	-0.304	0.140
-245.990	-37.414	-0.118	-0.063
-244.976	-4.747	0.164	0.112
-243.961	38.218	-0.128	0.112
-242.946	52.872	-0.158	0.150
-241.932	290.212	-0.139	0.249
-240.917	800.000	0.057	0.162
-239.903	-200.000	-0.014	-0.154
-238.888	768.419	-0.155	-0.416
-237.873	-200.000	0.023	0.349
-236.859	4.586	0.175	0.127
-235.844	3.389	0.062	-0.044
-234.830	64.352	0.198	-0.198
-233.815	9.105	-0.096	-0.072
-232.800	-113.258	-0.169	-0.033
-231.786	46.407	0.188	0.173
-230.771	22.920	-0.314	-0.255
-229.757	92.263	-0.125	-0.140
-228.742	-180.674	0.294	-0.006
-227.727	-200.000	-0.034	-0.346
-226.713	120.785	0.235	0.289
-225.698	34.409	-0.084	0.072
-224.684	-200.000	-0.009	0.160
-223.669	20.645	-0.093	0.075
-222.655	195.656	0.104	0.156
-221.640	52.937	0.072	0.068
-220.625	-138.292	0.380	0.041
-219.611	-143.963	0.073	-0.007
-218.596	-36.273	-0.369	0.197
-217.582	-42.872	-0.108	0.054
-216.567	800.000	-0.072	-0.250
-215.552	45.911	-0.150	0.137
-214.538	527.333	0.010	0.024
-213.523	-115.335	0.304	0.057
-212.509	800.000	-0.076	0.319
-211.494	-30.938	-0.083	-0.046
-210.479	74.322	0.103	0.106
-209.465	90.552	-0.255	0.282
-208.450	-100.764	0.213	0.052
-207.436	800.000	-0.019	0.074
-206.421	176.854	0.076	-0.109
-205.406	-93.446	-0.239	0.065
-204.392	-161.997	-0.105	-0.005
-203.377	800.000	-0.091	0.309
-202.363	762.529	0.077	-0.206
-201.348	-42.250	-0.276	0.139
-200.333	-200.000	-0.017	-0.308
-199.319	-127.307	0.052	-0.007
-198.304	365.823	0.051	0.102
-197.290	21.454	-0.191	-0.154
-196.275	11.620	0.179	-0.136
-195.260	-55.030	0.216	0.096
-194.246	74.404	0.168	-0.174
-193.231	-131.218	-0.206	-0.027
-192.217	-200.000	-0.063	0.378
-191.202	-31.125	0.438	0.244
-190.187	743.097	-0.051	0.135
-189.173	31.364	-0.054	-0.046
-188.158	125.172	-0.204	-0.254
-187.144	-55.097	0.225	0.100
-186.129	5.855	-0.389	-0.284
-185.114	56.763	-0.135	-0.130
-184.100	-200.000	-0.021	-0.287
-183.085	519.012	0.082	0.190
-182.071	90.366	0.086	-0.095
-181.056	197.121	0.120	-0.181
-180.042	178.897	-0.140	0.202
-179.027	-200.000	-0.001	0.012
-178.012	-56.399	0.367	-0.161
-176.998	318.818	-0.204	0.382
-175.983	14.658	-0.274	0.211
-174.969	-200.000	-0.000	0.103
-173.954	-155.175	-0.142	0.009
-172.939	-57.586	-0.310	-0.134
-171.925	-10.237	0.221	0.145
-170.910	-59.969	0.334	-0.141
-169.896	400.688	-0.187	-0.386
-168.881	-200.000	-0.028	-0.264
-167.866	-151.716	0.330	0.024
-166.852	-167.258	0.214	-0.009
-165.837	5.937	-0.162	0.119
-164.823	307.057	0.120	-0.220
-163.808	800.000	0.080	-0.227
-162.793	-134.653	0.110	0.013
-161.779	173.401	-0.043	0.062
-160.764	-200.000	-0.045	-0.199
-159.750	800.000	0.064	-0.234
-158.735	-200.000	-0.019	-0.196
-157.720	-200.000	0.053	-0.350
-156.706	-200.000	0.028	0.205
-155.691	117.525	0.223	-0.270
-154.677	10.561	-0.185	0.139
-153.662	105.841	-0.142	0.166
-152.647	-13.948	0.255	0.162
-151.633	-15.196	-0.062	-0.039
-150.618	-32.095	0.305	0.168
-149.604	-27.188	0.066	-0.038
-148.589	-6.321	-0.233	0.156
-147.574	-200.000	-0.035	0.192
-146.560	451.675	-0.030	0.066
-145.545	264.939	0.123	0.212
-144.531	-33.716	0.246	-0.134
-143.516	18.321	-0.317	-0.250
-142.502	-157.327	-0.034	0.002
-141.487	-84.391	0.471	-0.147
-140.472	243.747	0.072	0.119
-139.458	0.611	-0.146	-0.103
-138.443	800.000	-0.014	-0.047
-137.429	364.272	0.186	-0.368
-136.414	-130.688	0.326	0.043
-135.399	-126.715	-0.242	0.035
-134.385	692.342	0.120	0.309
-133.370	-185.035	-0.257	0.004
-132.356	82.851	0.249	-0.266
-131.341	-136.580	-0.106	0.012
-130.326	800.000	0.052	0.167
-129.312	-116.357	0.401	-0.073
-128.297	-64.056	-0.194	-0.078
-127.283	-200.000	0.012	-0.123
-126.268	800.000	0.047	0.145
-125.253	132.425	-0.300	-0.381
-124.239	68.713	0.037	0.037
-123.224	145.388	0.176	-0.231
-122.210	800.000	0.073	-0.292
-121.195	11.787	-0.097	-0.073
-120.180	800.000	0.100	0.321
-119.166	-200.000	-0.038	0.464
-118.151	100.790	-0.131	-0.150
-117.137	252.401	-0.083	0.139
-116.122	-4.966	-0.186	-0.126
-115.107	-200.000	0.004	-0.261
-114.093	81.161	0.235	0.250
-113.078	-200.000	-0.037	-0.189
-112.064	-200.000	0.023	0.195
-111.049	119.539	0.222	0.270
-110.034	471.848	0.091	-0.201
-109.020	706.224	-0.013	0.035
-108.005	-21.895	-0.173	0.103
-106.991	-200.000	-0.003	0.103
-105.976	204.980	-0.130	0.199
-104.962	22.468	-0.126	0.102
-103.947	21.260	-0.455	0.364
-102.932	110.454	0.087	-0.103
-101.918	100.174	0.046	-0.052
-100.903	800.000	0.080	-0.280
-99.889	269.503	0.133	-0.230
-98.874	-161.702	0.476	-0.024
-97.859	-200.000	0.019	0.194
-96.845	-159.160	-0.141	0.008
-95.830	800.000	0.033	-0.096
-94.816	-104.202	-0.078	0.018
-93.801	-88.336	-0.110	0.032
-92.786	-48.534	-0.272	-0.129
-91.772	177.130	-0.062	0.089
-90.757	-5.765	-0.192	0.130
-89.743	-117.309	0.146	-0.026
-88.728	-123.543	-0.298	0.047
-87.713	-58.679	0.405	0.173
-86.699	23.473	-0.161	-0.130
-85.684	-147.754	0.455	0.037
-84.670	-98.420	-0.097	-0.024
-83.655	-149.684	0.192	0.015
-82.640	15.352	-0.043	-0.033
-81.626	800.000	0.113	0.338
-80.611	473.988	0.116	0.257
-79.597	300.784	0.196	-0.356
-78.582	-200.000	-0.009	0.106
-77.567	180.711	0.087	-0.125
-76.553	4.507	-0.255	0.184
-75.538	-67.643	0.158	-0.061
-74.524	-200.000	0.009	-0.044
-73.509	-122.183	0.219	0.035
-72.494	205.233	0.080	0.121
-71.480	403.441	0.076	0.157
-70.465	312.764	-0.150	-0.276
-69.451	800.000	0.035	-0.108
-68.436	236.363	0.106	-0.172
-67.422	-181.277	0.118	0.002
-66.407	-101.405	0.152	0.036
-65.392	100.156	-0.167	0.190
-64.378	-121.384	0.248	-0.041
-63.363	-200.000	0.029	0.131
-62.349	484.693	0.120	0.268
-61.334	48.239	-1.067	-0.981
-60.319	158.979	0.202	0.276
-59.305	648.233	-0.300	-0.753
-58.290	205.547	0.659	1.006
-57.276	800.000	0.357	1.391
-56.261	-200.000	101.953	599.078
-55.246	574.716	1415.280	3391.437
-54.232	190.396	2607.421	3845.948
-53.217	111.037	2276.022	2691.032
-52.203	40.332	1895.568	1674.731
-51.188	34.187	1684.292	1441.655
-50.173	31.594	1640.961	1385.351
-49.159	49.253	1690.837	1560.556
-48.144	50.795	1706.831	1586.836
-47.130	33.907	1665.918	1423.605
-46.115	31.132	1652.056	1391.048
-45.100	30.950	1647.317	1385.651
-44.086	30.870	1644.842	1382.923
-43.071	30.892	1642.073	1380.702
-42.057	30.952	1639.581	1378.994
-41.042	30.951	1637.234	1376.959
-40.027	30.850	1635.877	1375.016
-39.013	30.825	1634.013	1373.215
-37.998	30.873	1632.307	1372.079
-36.984	30.898	1631.120	1371.208
-35.969	30.979	1629.493	1370.382
-34.954	31.042	1627.594	1369.194
-33.940	31.105	1625.836	1368.120
-32.925	31.043	1624.867	1366.795
-31.911	31.021	1622.824	1364.864
-30.896	30.928	1621.274	1362.830
-29.881	30.967	1619.499	1361.565
-28.867	30.966	1617.796	1360.074
-27.852	30.903	1616.436	1358.418
-26.838	30.995	1614.920	1357.761
-25.823	31.103	1613.263	1357.094
-24.809	31.054	1611.797	1355.450
-23.794	31.062	1610.608	1354.459
-22.779	30.982	1609.468	1352.866
-21.765	31.026	1607.839	1351.758
-20.750	31.023	1606.189	1350.299
-19.736	31.064	1604.774	1349.349
-18.721	31.012	1603.522	1347.867
-17.706	31.023	1601.522	1346.211
-16.692	30.956	1600.207	1344.572
-15.677	31.042	1598.727	1343.899
-14.663	31.115	1597.257	1343.130
-13.648	31.015	1596.305	1341.562
-12.633	31.055	1594.352	1340.151
-11.619	31.049	1593.018	1338.931
-10.604	31.023	1591.238	1337.197
-9.590	31.089	1590.527	1337.024
-8.575	31.055	1589.250	1335.648
-7.560	30.987	1588.237	1334.260
-6.546	30.970	1586.916	1332.973
-5.531	31.002	1585.880	1332.282
-4.517	31.065	1584.697	1331.681
-3.502	30.982	1583.444	1329.985
-2.487	31.083	1582.258	1329.660
-1.473	30.798	1570.388	1317.615
-0.458	28.018	1551.232	1282.024
0.556	23.854	1551.943	1251.062
1.571	21.602	1575.943	1254.185
2.586	21.113	1588.696	1260.692
3.600	18.886	1535.079	1202.470
4.615	11.619	1428.318	1071.268
5.629	5.557	1367.438	987.377
6.644	4.617	1360.157	976.132
7.659	4.684	1358.420	975.221
8.673	4.563	1357.755	973.900
9.688	4.576	1356.596	973.063
10.702	4.445	1353.594	970.003
11.717	7.362	1358.448	991.659
12.731	14.424	1371.065	1045.213
13.746	18.898	1378.112	1078.632
14.761	18.788	1376.390	1076.501
15.775	17.779	1373.435	1067.780
16.790	16.692	1371.133	1059.104
17.804	15.854	1369.002	1052.128
18.819	15.536	1367.450	1048.857
19.834	15.286	1366.358	1046.362
20.848	15.061	1365.387	1044.127
21.863	14.765	1364.346	1041.391
22.877	14.621	1363.311	1039.613
23.892	14.619	1362.086	1038.576
24.907	14.656	1361.146	1037.993
25.921	14.676	1360.039	1037.186
26.936	14.669	1359.463	1036.608
27.950	14.713	1358.056	1035.719
28.965	14.875	1356.838	1035.700
29.980	14.908	1356.182	1035.310
30.994	14.996	1354.939	1034.814
32.009	15.008	1353.561	1033.746
33.023	14.991	1352.332	1032.614
34.038	14.835	1351.639	1031.030
35.053	14.680	1350.718	1029.279
36.067	14.742	1349.265	1028.460
37.082	14.931	1347.539	1028.219
38.096	14.866	1346.885	1027.227
39.111	14.919	1345.986	1026.776
40.126	14.808	1345.655	1025.754
41.140	14.674	1344.686	1024.103
42.155	14.583	1344.073	1022.984
43.169	14.535	1343.717	1022.330
44.184	14.540	1343.552	1022.146
45.199	14.557	1342.938	1021.693
46.213	14.638	1342.738	1021.945
47.228	14.746	1342.023	1021.972
48.242	14.733	1340.651	1020.755
49.257	14.814	1338.799	1019.748
50.271	14.817	1337.660	1018.813
51.286	14.860	1335.924	1017.663
52.301	14.782	1334.804	1016.245
53.315	14.854	1333.805	1015.833
54.330	14.619	1332.940	1013.655
55.344	14.605	1331.658	1012.506
56.359	14.667	1330.907	1012.222
57.374	14.675	1329.464	1011.083
58.388	14.605	1329.121	1010.308
59.403	14.538	1328.582	1009.401
60.417	14.526	1328.006	1008.802
61.432	14.494	1326.826	1007.625
62.447	14.430	1325.915	1006.458
63.461	14.372	1325.242	1005.505
64.476	14.398	1324.017	1004.645
65.490	14.454	1322.631	1003.840
66.505	14.425	1320.997	1002.337
67.520	14.477	1319.607	1001.505
68.534	14.493	1318.076	1000.355
69.549	14.485	1317.505	999.781
70.563	14.473	1316.538	998.891
71.578	14.400	1315.447	997.538
72.593	14.300	1314.773	996.337
73.607	14.395	1314.076	996.290
74.622	14.286	1313.202	994.888
75.636	14.276	1312.780	994.422
76.651	14.404	1311.977	994.490
77.666	14.380	1311.980	994.261
78.680	14.350	1311.108	993.333
79.695	14.476	1310.174	993.288
80.709	14.498	1309.499	992.817
81.724	14.535	1308.587	992.256
82.739	14.571	1307.893	991.857
83.753	14.667	1306.875	991.571
84.768	14.793	1306.240	991.745
85.782	14.768	1304.883	990.482
86.797	14.945	1303.602	990.470
87.812	14.816	1302.009	988.407
88.826	14.787	1301.593	987.835
89.841	14.770	1300.526	986.836
90.855	14.838	1299.783	986.588
91.870	14.789	1298.639	985.340
92.884	14.852	1297.908	985.071
93.899	14.850	1296.501	983.907
94.914	14.915	1295.849	983.708
95.928	14.942	1295.407	983.439
96.943	14.851	1294.333	982.003
97.957	14.869	1293.451	981.357
98.972	14.839	1292.213	980.152
99.987	14.917	1291.147	979.712
101.001	14.924	1290.450	979.139
102.016	14.829	1289.612	977.861
103.030	14.886	1288.219	977.052
104.045	14.875	1287.516	976.366
105.060	14.814	1286.302	975.001
106.074	14.629	1285.032	972.875
107.089	14.516	1283.683	971.111
108.103	14.488	1282.248	969.779
109.118	14.551	1280.997	969.112
110.133	14.606	1279.646	968.325
111.147	14.563	1278.162	966.863
112.162	14.698	1277.053	966.722
113.176	14.677	1276.066	965.767
114.191	14.601	1275.537	964.842
115.206	14.583	1274.557	963.913
116.220	14.667	1272.954	963.101
117.235	14.545	1271.958	961.557
118.249	14.637	1271.173	961.410
119.264	14.550	1269.486	959.548
120.279	14.447	1268.679	958.259
121.293	14.541	1267.869	958.102
122.308	14.442	1266.484	956.405
123.322	14.449	1265.744	955.802
124.337	14.408	1264.577	954.604
125.352	14.412	1263.802	953.952
126.366	14.518	1262.356	953.384
127.381	14.552	1261.243	952.651
128.395	14.460	1260.238	951.286
129.410	14.538	1259.279	950.919
130.424	14.546	1258.654	950.411
131.439	14.518	1257.950	949.634
132.454	14.576	1256.935	949.117
133.468	14.612	1256.213	948.692
134.483	14.632	1255.167	947.932
135.497	14.592	1254.257	946.930
136.512	14.709	1252.619	946.275
137.527	14.767	1251.316	945.535
138.541	14.715	1250.173	944.295
139.556	14.744	1249.314	943.724
140.570	14.787	1248.083	942.953
141.585	14.853	1246.692	942.190
142.600	14.819	1246.181	941.533
143.614	14.925	1244.959	941.120
144.629	14.897	1243.774	939.984
145.643	14.933	1242.494	939.137
146.658	14.746	1241.938	937.584
147.673	14.782	1240.335	936.490
148.687	14.682	1239.091	934.913
149.702	14.659	1237.435	933.451
150.716	14.677	1236.363	932.658
151.731	14.747	1235.441	932.269
152.746	14.660	1234.375	930.902
153.760	14.721	1233.387	930.411
154.775	14.791	1231.989	929.667
155.789	14.995	1231.203	930.123
156.804	14.885	1229.953	928.486
157.819	14.915	1229.180	927.986
158.833	14.957	1228.494	927.621
159.848	15.079	1227.410	927.396
160.862	14.907	1227.093	926.119
161.877	14.882	1225.262	924.517
162.892	14.806	1224.216	923.231
163.906	14.843	1223.431	922.761
164.921	14.902	1222.205	922.079
165.935	14.917	1221.174	921.303
166.950	14.882	1221.016	920.905
167.964	14.855	1220.192	920.053
168.979	14.973	1219.326	919.969
169.994	14.878	1218.908	919.050
171.008	14.932	1218.064	918.630
172.023	14.967	1217.162	918.062
173.037	14.996	1216.404	917.568
174.052	15.079	1215.277	917.092
175.067	15.021	1214.198	915.879
176.081	14.981	1213.227	914.846
177.096	15.013	1211.868	913.912
178.110	14.979	1211.201	913.147
179.125	14.945	1210.234	912.151
180.140	14.936	1208.969	911.067
181.154	14.987	1207.636	910.258
182.169	15.098	1206.584	909.990
183.183	15.063	1205.781	909.111
184.198	15.226	1204.105	908.655
185.213	14.980	1203.446	906.743
186.227	15.191	1202.067	906.762
187.242	15.222	1201.164	906.169
188.256	15.236	1200.939	905.997
189.271	15.397	1199.385	905.612
190.286	15.113	1198.435	903.285
191.300	14.967	1197.366	901.610
192.315	14.902	1196.670	900.657
193.329	14.901	1196.226	900.238
194.344	14.985	1195.228	899.858
195.359	15.065	1194.981	900.024
196.373	15.200	1194.184	900.071
197.388	15.219	1194.563	900.379
198.402	15.447	1193.639	900.823
199.417	15.409	1193.119	900.146
200.432	15.436	1192.178	899.502
201.446	15.572	1191.232	899.442
202.461	15.639	1190.442	899.123
203.475	15.614	1189.352	898.084
204.490	15.433	1187.874	895.926
205.504	15.295	1186.967	894.422
206.519	15.401	1185.689	893.945
207.534	15.378	1184.570	892.899
208.548	15.398	1184.150	892.614
209.563	15.324	1183.320	891.513
210.577	15.505	1182.297	891.623
211.592	15.530	1181.273	890.906
212.607	15.596	1180.473	890.573
213.621	15.550	1179.859	889.792
214.636	15.390	1179.157	888.333
215.650	15.576	1178.069	888.422
216.665	15.581	1176.948	887.521
217.680	15.602	1176.059	886.881
218.694	15.760	1175.242	887.021
219.709	15.659	1174.618	885.941
220.723	15.708	1173.681	885.413
221.738	15.668	1172.991	884.606
222.753	15.707	1172.252	884.172
223.767	15.749	1171.518	883.761
224.782	15.776	1171.026	883.456
225.796	15.934	1170.283	883.643
226.811	15.764	1169.748	882.269
227.826	15.626	1169.378	881.189
228.840	15.817	1167.949	881.035
229.855	15.817	1167.379	880.526
230.869	15.834	1166.248	879.685
231.884	15.691	1166.027	878.695
232.899	15.716	1164.902	877.901
233.913	15.632	1164.488	877.072
234.928	15.637	1163.773	876.482
235.942	15.540	1162.767	875.138
236.957	15.677	1161.989	875.188
237.972	15.754	1161.122	874.861
238.986	15.673	1160.707	874.050
240.001	15.743	1159.975	873.786
241.015	15.796	1158.581	872.932
242.030	15.814	1158.145	872.620
243.045	15.914	1157.623	872.671
244.059	15.834	1156.699	871.482
245.074	15.904	1156.000	871.241
246.088	15.995	1154.911	870.809
247.103	15.941	1154.171	869.899
248.117	16.008	1153.813	869.894
249.132	16.109	1153.395	870.026
250.147	16.211	1152.684	869.937
251.161	16.266	1151.722	869.417
252.176	16.248	1151.207	868.858
253.190	16.412	1150.370	868.994
254.205	16.367	1149.818	868.270
255.220	16.358	1149.395	867.827
256.234	16.416	1148.825	867.619
257.249	16.330	1147.964	866.449
258.263	16.392	1146.921	865.903
259.278	16.384	1146.382	865.381
260.293	16.321	1146.422	865.009
261.307	16.415	1145.685	864.860
262.322	16.528	1144.941	864.800
263.336	16.622	1144.175	864.625
264.351	16.491	1143.956	863.712
265.366	16.478	1143.058	862.890
266.380	16.606	1142.255	862.861
267.395	16.593	1140.915	861.706
268.409	16.537	1140.486	861.021
269.424	16.467	1139.970	860.198
270.439	16.487	1139.205	859.647
271.453	16.473	1138.684	859.109
272.468	16.387	1137.273	857.532
273.482	16.394	1137.010	857.289
274.497	16.465	1135.794	856.657
275.512	16.529	1135.583	856.748
276.526	16.517	1134.682	855.931
277.541	16.499	1134.024	855.271
278.555	16.569	1133.364	855.047
279.570	16.706	1132.753	855.204
280.585	16.643	1132.172	854.372
281.599	16.679	1131.255	853.787
282.614	16.689	1129.876	852.721
283.628	16.629	1128.879	851.591
284.643	16.520	1128.274	850.510
285.657	16.554	1127.519	850.038
286.672	16.572	1126.671	849.414
287.687	16.654	1125.549	848.904
288.701	16.668	1124.657	848.227
289.716	16.765	1123.760	847.957
290.730	16.683	1123.356	847.167
291.745	16.678	1122.572	846.479
292.760	16.744	1122.155	846.416
293.774	16.800	1121.553	846.168
294.789	16.848	1120.805	845.769
295.803	16.902	1120.227	845.530
296.818	16.764	1119.814	844.454
297.833	16.816	1118.926	843.970
298.847	16.846	1117.884	843.255
299.862	16.856	1117.094	842.637
300.876	17.003	1116.482	842.830
301.891	16.948	1115.861	842.012
302.906	16.895	1115.652	841.518
303.920	17.069	1114.270	841.265
304.935	17.004	1114.346	840.922
305.949	17.047	1113.561	840.472
306.964	17.107	1112.648	840.003
307.979	17.132	1112.071	839.619
308.993	17.071	1110.901	838.359
310.008	17.151	1110.385	838.292
311.022	17.212	1109.448	837.811
312.037	17.176	1108.377	836.751
313.052	17.130	1107.810	836.019
314.066	16.978	1107.183	834.725
315.081	16.878	1106.355	833.537
316.095	16.976	1105.223	833.089
317.110	16.952	1104.605	832.433
318.125	16.944	1104.247	832.048
319.139	16.979	1103.150	831.322
320.154	16.904	1102.649	830.501
321.168	17.047	1101.985	830.628
322.183	17.050	1101.165	829.951
323.197	17.062	1100.628	829.535
324.212	17.155	1100.085	829.506
325.227	17.144	1099.394	828.858
326.241	17.199	1098.816	828.618
327.256	17.091	1098.181	827.538
328.270	17.106	1097.132	826.748
329.285	17.149	1096.387	826.320
330.300	17.098	1095.391	825.250
331.314	17.069	1094.570	824.418
332.329	17.053	1093.713	823.623
333.343	17.301	1092.610	823.919
334.358	17.242	1091.978	823.082
335.373	17.260	1091.422	822.681
336.387	17.355	1090.379	822.277
337.402	17.303	1089.837	821.547
338.416	17.456	1089.003	821.585
339.431	17.399	1088.700	821.006
340.446	17.419	1088.113	820.590
341.460	17.481	1087.302	820.203
342.475	17.518	1086.526	819.722
343.489	17.475	1086.113	819.133
344.504	17.692	1084.856	819.156
345.519	17.686	1083.739	818.212
346.533	17.642	1083.147	817.481
347.548	17.618	1082.613	816.888
348.562	17.588	1082.214	816.374
349.577	17.648	1081.129	815.771
350.592	17.527	1080.096	814.340
351.606	17.568	1079.554	814.052
352.621	17.463	1078.784	812.900
353.635	17.453	1078.055	812.231
354.650	17.533	1077.119	811.834
355.665	17.501	1076.786	811.358
356.679	17.589	1076.373	811.395
357.694	17.680	1075.429	811.047
358.708	17.734	1074.456	810.496
359.723	17.652	1073.870	809.594
360.738	17.622	1073.467	809.076
361.752	17.871	1072.697	809.606
362.767	17.780	1072.201	808.729
363.781	17.749	1071.532	808.002
364.796	17.759	1071.315	807.816
365.810	17.852	1070.685	807.712
366.825	17.898	1070.199	807.488
367.840	18.028	1069.483	807.493
368.854	17.943	1069.153	806.770
369.869	17.979	1068.255	806.193
370.883	18.077	1067.186	805.778
371.898	17.925	1066.462	804.442
372.913	17.810	1066.250	803.669
373.927	18.013	1065.404	803.914
374.942	18.119	1065.026	804.058
375.956	18.130	1064.290	803.483
376.971	18.107	1063.743	802.890
377.986	18.091	1063.333	802.436
379.000	18.117	1062.824	802.103
380.015	18.125	1062.218	801.613
381.029	18.217	1061.532	801.453
382.044	18.255	1060.758	800.978
383.059	18.242	1059.929	800.219
384.073	18.184	1059.104	799.255
385.088	18.266	1058.516	799.123
386.102	18.336	1057.604	798.689
387.117	18.132	1056.886	797.124
388.132	18.062	1055.802	795.911
389.146	18.137	1055.171	795.714
390.161	18.103	1054.558	795.023
391.175	18.153	1053.655	794.502
392.190	18.096	1053.415	793.988
393.205	18.291	1052.112	793.842
394.219	18.190	1051.592	792.909
395.234	18.261	1050.029	791.991
396.248	18.362	1049.031	791.633
397.263	18.112	1048.498	790.004
398.278	18.131	1047.544	789.306
399.292	18.095	1046.784	788.496
400.307	18.072	1046.588	788.176
401.321	18.185	1045.741	787.985
402.336	18.204	1044.935	787.395
403.350	18.190	1044.142	786.664
404.365	18.232	1043.670	786.433
405.380	18.264	1042.940	785.959
406.394	18.344	1042.318	785.792
407.409	18.439	1041.486	785.527
408.423	18.365	1041.318	784.992
409.438	18.531	1040.072	784.745
410.453	18.462	1040.060	784.350
411.467	18.529	1038.901	783.714
412.482	18.517	1038.449	783.248
413.496	18.607	1037.642	782.978
414.511	18.641	1036.819	782.443
415.526	18.667	1036.674	782.382
416.540	18.744	1036.323	782.400
417.555	18.818	1035.419	781.987
418.569	18.716	1035.166	781.263
419.584	18.706	1034.644	780.755
420.599	18.751	1034.216	780.566
421.613	151.144	1402.245	1798.668
422.628	138.001	1455.846	1798.736
