DTS Sentinel unit serial number:	SN413079Multiplexer serial number:	ORYXHardware model number:	OX4-SRSoftware version number:	ORYX F/W v4.00 Oryx Data Collector v3.7.2.0data status	okinstallation	princeton_trtdifferential loss correction	single-endedforward channel	channel 2reverse channel	N/Adate	2019/09/17time	23:19:34forward acquisition time	60.00reverse acquisition time	0.00gamma	496.2192k internal	0.2347k external	0.2347temperature offset calibration	0.9986default loss term (dB/km)	0.3790temperature slope calibration	1.0000multiplexer offset coefficient	1.0000multiplexer slope coefficient	1.0000fibre end	0.00T internal ref (°C)	24.44T ext. ref 1 (°C)	0.17T ext. ref 2 (°C)	17.68length (m)	temperature (°C)	Stokes	anti-Stokes-747.200	-168.860	0.202	-0.008
-746.185	-67.850	-0.411	0.160
-745.171	90.702	-0.282	0.316
-744.156	341.642	0.065	0.127
-743.142	47.018	-0.137	0.128
-742.127	-107.643	-0.380	-0.083
-741.112	-54.904	-0.197	0.089
-740.098	-151.200	-0.170	0.013
-739.083	800.000	0.006	-0.019
-738.069	-43.567	-0.173	0.087
-737.054	-124.581	-0.237	0.037
-736.039	-200.000	-0.027	-0.335
-735.025	110.670	-0.067	-0.080
-734.010	800.000	-0.062	-0.222
-732.996	34.594	-0.280	0.244
-731.981	222.384	0.087	-0.140
-730.966	-166.788	0.123	-0.005
-729.952	329.191	-0.026	0.050
-728.937	-2.452	-0.166	0.116
-727.923	-66.440	0.012	-0.005
-726.908	-71.090	0.208	0.078
-725.894	30.669	0.116	-0.099
-724.879	800.000	-0.055	0.202
-723.864	800.000	0.047	0.177
-722.850	472.146	-0.079	0.177
-721.835	84.806	0.406	0.444
-720.821	-200.000	-0.019	0.110
-719.806	-200.000	-0.009	0.185
-718.791	100.891	-0.109	0.126
-717.777	403.725	-0.028	-0.059
-716.762	800.000	-0.037	-0.115
-715.748	800.000	0.098	-0.412
-714.733	163.640	-0.072	0.101
-713.718	475.507	-0.114	0.256
-712.704	-200.000	-0.068	-0.303
-711.689	233.634	0.231	-0.380
-710.675	800.000	0.018	-0.056
-709.660	-90.010	-0.271	0.079
-708.645	-37.561	0.414	-0.220
-707.631	-40.831	0.245	0.126
-706.616	-200.000	-0.001	-0.211
-705.602	-200.000	-0.009	-0.081
-704.587	64.152	-0.100	0.100
-703.572	631.295	-0.034	0.087
-702.558	4.984	0.184	-0.135
-701.543	74.963	-0.064	0.067
-700.529	72.380	-0.186	0.193
-699.514	-1.781	0.208	0.146
-698.499	63.288	0.124	0.124
-697.485	-113.354	-0.373	-0.073
-696.470	129.309	0.170	-0.217
-695.456	-32.622	0.069	-0.038
-694.441	270.162	-0.018	0.032
-693.426	-129.327	0.168	-0.023
-692.412	-17.408	-0.230	0.144
-691.397	-100.010	-0.227	0.056
-690.383	83.480	-0.066	-0.072
-689.368	-165.653	0.219	0.009
-688.354	-21.972	-0.061	0.037
-687.339	-149.890	0.268	-0.021
-686.324	-19.257	0.086	-0.053
-685.310	194.542	0.058	0.088
-684.295	-53.604	0.339	0.154
-683.281	-200.000	-0.020	-0.092
-682.266	-73.566	-0.233	-0.085
-681.251	-200.000	-0.021	0.148
-680.237	324.020	-0.119	-0.227
-679.222	711.539	0.124	0.328
-678.208	800.000	-0.041	0.136
-677.193	-99.349	-0.020	-0.005
-676.178	-123.594	-0.151	0.024
-675.164	647.005	-0.154	0.392
-674.149	800.000	-0.061	0.206
-673.135	-200.000	0.006	0.036
-672.120	-200.000	0.012	-0.226
-671.105	293.585	0.064	-0.116
-670.091	-112.193	-0.438	-0.088
-669.076	-130.229	-0.091	0.012
-668.062	44.588	-0.178	-0.163
-667.047	30.811	0.176	0.150
-666.032	15.949	0.126	-0.099
-665.018	236.360	-0.076	-0.126
-664.003	-94.618	0.082	-0.022
-662.989	486.807	0.176	0.401
-661.974	-181.310	0.182	-0.004
-660.959	369.287	-0.147	0.297
-659.945	-142.714	0.288	-0.028
-658.930	207.147	-0.061	-0.094
-657.916	-103.186	-0.408	-0.096
-656.901	-110.025	0.487	0.102
-655.886	-200.000	-0.012	-0.092
-654.872	587.007	-0.095	-0.234
-653.857	51.987	-0.050	0.047
-652.843	691.054	0.172	0.448
-651.828	11.799	-0.189	-0.144
-650.814	-65.803	0.217	0.087
-649.799	-200.000	-0.060	-0.602
-648.784	-200.000	0.026	-0.182
-647.770	173.412	-0.250	0.358
-646.755	-183.629	-0.210	-0.004
-645.741	800.000	-0.028	0.085
-644.726	259.510	0.064	0.111
-643.711	-90.235	0.172	-0.050
-642.697	198.949	-0.074	-0.113
-641.682	84.810	0.117	-0.127
-640.668	-124.044	0.150	0.023
-639.653	32.852	-0.144	0.124
-638.638	-84.637	-0.156	0.049
-637.624	35.169	0.068	0.060
-636.609	179.069	-0.127	0.184
-635.595	-172.771	0.244	-0.008
-634.580	165.510	0.129	-0.181
-633.565	-200.000	-0.362	-0.001
-632.551	23.729	0.212	-0.174
-631.536	50.372	-0.214	-0.202
-630.522	-144.005	0.404	0.038
-629.507	142.906	-0.201	-0.266
-628.492	800.000	0.045	-0.191
-627.478	327.096	-0.130	0.247
-626.463	565.814	0.110	-0.266
-625.449	178.390	0.165	0.239
-624.434	660.482	-0.071	0.182
-623.419	-84.658	-0.363	-0.114
-622.405	20.910	-0.134	-0.108
-621.390	-87.034	-0.177	-0.054
-620.376	-200.000	-0.006	-0.293
-619.361	124.556	0.195	-0.245
-618.346	-4.552	-0.011	-0.008
-617.332	156.109	0.092	-0.126
-616.317	1.913	-0.126	0.091
-615.303	800.000	-0.048	-0.183
-614.288	387.455	-0.104	0.214
-613.273	638.769	-0.017	-0.042
-612.259	-27.031	0.189	0.110
-611.244	-105.081	0.334	0.076
-610.230	-131.719	0.175	-0.023
-609.215	-117.581	0.044	-0.008
-608.201	54.142	-0.177	0.169
-607.186	-74.389	0.268	0.096
-606.171	-176.862	-0.142	-0.004
-605.157	-1.416	-0.246	0.172
-604.142	-36.087	-0.110	0.059
-603.128	-95.750	0.146	-0.039
-602.113	-10.988	0.268	-0.176
-601.098	-200.000	0.011	0.125
-600.084	36.584	-0.317	0.278
-599.069	32.578	-0.164	-0.141
-598.055	-88.082	0.254	0.076
-597.040	-37.791	-0.358	0.189
-596.025	-61.088	0.194	-0.081
-595.011	42.920	0.176	-0.159
-593.996	-151.025	-0.451	0.034
-592.982	-100.411	-0.115	-0.028
-591.967	142.181	-0.020	-0.027
-590.952	20.625	-0.090	-0.072
-589.938	-180.798	-0.324	-0.007
-588.923	-31.295	0.315	-0.176
-587.909	-200.000	-0.052	-0.251
-586.894	119.443	-0.082	0.101
-585.879	352.756	0.049	-0.096
-584.865	224.458	0.174	-0.280
-583.850	-114.362	-0.286	-0.055
-582.836	-200.000	-0.027	-0.150
-581.821	-82.600	-0.269	0.086
-580.806	-197.998	0.476	0.003
-579.792	-200.000	-0.000	-0.130
-578.777	800.000	-0.044	0.141
-577.763	149.769	-0.174	-0.234
-576.748	-26.778	-0.149	-0.087
-575.733	-101.597	-0.514	0.124
-574.719	67.799	0.251	-0.255
-573.704	137.596	0.049	0.064
-572.690	63.309	-0.321	0.319
-571.675	-101.191	0.234	0.057
-570.661	-128.221	0.212	0.030
-569.646	-127.724	0.083	-0.012
-568.631	-142.023	-0.374	-0.037
-567.617	-60.103	0.353	-0.150
-566.602	-159.514	-0.056	0.003
-565.588	-85.428	-0.046	-0.014
-564.573	506.307	-0.007	-0.017
-563.558	-23.313	-0.226	0.135
-562.544	-13.562	0.275	-0.177
-561.529	92.210	-0.208	-0.232
-560.515	-101.352	0.221	-0.053
-559.500	-85.736	0.408	0.126
-558.485	219.245	0.335	0.531
-557.471	478.654	-0.054	-0.121
-556.456	-7.136	0.372	0.251
-555.442	87.246	-0.078	0.085
-554.427	486.307	0.090	-0.203
-553.412	-138.028	-0.317	0.035
-552.398	-22.309	-0.180	-0.108
-551.383	113.947	0.076	-0.091
-550.369	-93.581	0.103	0.028
-549.354	-123.930	-0.071	0.011
-548.339	272.555	-0.069	0.120
-547.325	-67.955	0.200	-0.077
-546.310	-150.672	-0.387	-0.029
-545.296	55.683	0.226	-0.218
-544.281	-117.049	0.109	0.020
-543.266	800.000	-0.129	-0.373
-542.252	-200.000	-0.010	0.070
-541.237	357.201	0.203	0.401
-540.223	226.416	0.080	0.129
-539.208	-200.000	0.019	0.170
-538.193	-117.264	0.259	-0.047
-537.179	249.025	0.079	0.132
-536.164	-111.820	-0.354	0.071
-535.150	-200.000	-0.037	0.319
-534.135	800.000	0.142	0.414
-533.121	-23.487	-0.167	0.100
-532.106	152.758	-0.047	0.064
-531.091	-200.000	0.111	-0.540
-530.077	-200.000	0.018	-0.261
-529.062	-200.000	-0.021	0.162
-528.048	-200.000	0.021	0.425
-527.033	20.191	0.097	-0.078
-526.018	-30.376	-0.277	0.156
-525.004	106.226	0.124	0.145
-523.989	-110.525	-0.424	-0.087
-522.975	-44.355	-0.321	0.159
-521.960	-200.000	0.009	-0.051
-520.945	159.303	0.060	-0.083
-519.931	259.762	-0.043	0.073
-518.916	206.022	-0.043	-0.066
-517.902	4.626	-0.145	0.105
-516.887	-155.444	0.310	0.020
-515.872	391.571	0.065	0.134
-514.858	-200.000	-0.017	0.339
-513.843	-200.000	-0.018	0.271
-512.829	800.000	-0.094	-0.310
-511.814	800.000	-0.042	-0.166
-510.799	758.293	0.125	-0.337
-509.785	571.675	-0.054	0.129
-508.770	569.809	0.187	0.451
-507.756	-200.000	0.012	0.117
-506.741	132.973	-0.279	-0.356
-505.726	-133.697	0.332	0.041
-504.712	800.000	0.071	0.197
-503.697	-145.436	-0.338	-0.030
-502.683	-123.769	0.139	0.022
-501.668	4.450	0.294	-0.213
-500.653	-200.000	-0.001	0.117
-499.639	-191.662	-0.288	-0.003
-498.624	8.299	0.192	0.143
-497.610	-120.454	0.365	0.061
-496.595	-47.422	-0.243	0.117
-495.581	-66.256	0.030	0.012
-494.566	-91.129	-0.125	-0.036
-493.551	-99.661	-0.254	-0.063
-492.537	6.372	-0.103	0.076
-491.522	708.755	0.037	0.097
-490.508	763.529	-0.032	-0.087
-489.493	800.000	-0.069	-0.217
-488.478	188.441	0.152	-0.225
-487.464	67.828	0.117	0.118
-486.449	-107.206	0.083	0.018
-485.435	-88.391	0.212	0.063
-484.420	-73.264	-0.243	-0.088
-483.405	-38.472	0.301	0.157
-482.391	72.143	-0.213	0.219
-481.376	-119.693	-0.186	-0.032
-480.362	-200.000	0.031	0.211
-479.347	-69.325	-0.398	-0.151
-478.332	63.239	-0.098	-0.098
-477.318	-200.000	-0.008	-0.149
-476.303	48.018	0.098	-0.090
-475.289	141.149	0.173	0.227
-474.274	800.000	0.078	0.302
-473.259	-27.917	-0.234	0.134
-472.245	278.802	-0.113	-0.198
-471.230	-100.297	-0.244	-0.060
-470.216	-20.149	0.276	-0.168
-469.201	374.679	-0.071	0.143
-468.186	206.705	0.137	0.212
-467.172	-106.605	-0.273	-0.060
-466.157	-200.000	0.065	-0.317
-465.143	-137.610	0.131	-0.015
-464.128	650.306	-0.147	-0.371
-463.113	-86.838	0.232	-0.070
-462.099	42.169	0.178	-0.160
-461.084	-200.000	-0.016	-0.186
-460.070	-200.000	0.011	0.212
-459.055	547.464	-0.045	-0.106
-458.040	-75.222	0.178	0.063
-457.026	175.490	0.047	0.067
-456.011	190.777	-0.127	-0.189
-454.997	223.126	0.213	-0.339
-453.982	800.000	-0.032	-0.097
-452.968	-200.000	-0.045	0.235
-451.953	-57.133	-0.076	0.033
-450.938	216.533	-0.207	-0.326
-449.924	-37.292	-0.099	-0.052
-448.909	21.186	0.137	0.110
-447.895	122.899	0.225	0.278
-446.880	135.580	0.096	0.123
-445.865	800.000	-0.061	-0.168
-444.851	106.390	-0.250	0.293
-443.836	800.000	0.062	-0.190
-442.822	-55.807	-0.349	0.154
-441.807	800.000	0.030	-0.124
-440.792	-115.751	0.028	0.005
-439.778	180.252	-0.085	0.123
-438.763	90.154	0.131	0.145
-437.749	-69.286	0.351	0.133
-436.734	-30.153	-0.021	0.012
-435.719	-156.829	-0.086	-0.005
-434.705	-200.000	-0.030	0.468
-433.690	-200.000	-0.017	0.266
-432.676	64.676	0.277	0.276
-431.661	-101.934	0.108	0.026
-430.646	-200.000	-0.004	0.142
-429.632	0.590	-0.113	-0.080
-428.617	800.000	0.046	-0.177
-427.603	773.700	0.206	-0.555
-426.588	-115.473	0.118	0.022
-425.573	800.000	0.142	0.521
-424.559	-200.000	-0.105	-0.000
-423.544	-58.552	0.132	-0.057
-422.530	-38.793	-0.268	0.139
-421.515	218.205	-0.186	0.292
-420.500	52.934	-0.244	0.231
-419.486	-103.102	-0.173	-0.040
-418.471	30.863	0.269	-0.227
-417.457	-200.000	0.024	-0.114
-416.442	800.000	0.077	0.275
-415.428	-141.303	0.433	-0.043
-414.413	-200.000	0.004	-0.045
-413.398	-68.080	-0.211	0.081
-412.384	-200.000	-0.002	-0.216
-411.369	274.963	0.056	0.098
-410.355	469.585	0.126	0.279
-409.340	577.349	0.143	0.345
-408.325	-198.163	0.152	0.001
-407.311	-42.527	-0.108	0.054
-406.296	-65.383	-0.245	-0.097
-405.282	-82.688	-0.223	-0.071
-404.267	2.565	0.037	-0.026
-403.252	-200.000	-0.044	0.237
-402.238	-200.000	-0.013	-0.253
-401.223	800.000	-0.071	-0.244
-400.209	-93.727	-0.273	-0.074
-399.194	-200.000	0.066	-0.534
-398.179	-160.247	0.559	0.030
-397.165	-8.803	-0.241	-0.159
-396.150	-119.925	-0.156	0.026
-395.136	27.381	0.164	0.136
-394.121	557.504	0.027	-0.063
-393.106	-108.208	-0.226	-0.048
-392.092	16.680	-0.252	-0.197
-391.077	-115.734	0.398	-0.074
-390.063	-12.331	-0.189	0.122
-389.048	230.132	0.078	-0.126
-388.033	-163.984	-0.217	0.010
-387.019	-200.000	0.004	0.060
-386.004	-200.000	0.002	-0.023
-384.990	800.000	-0.046	0.188
-383.975	-194.693	-0.116	-0.001
-382.960	172.389	0.085	-0.121
-381.946	115.205	-0.181	0.218
-380.931	-52.445	0.207	0.094
-379.917	544.284	-0.138	0.325
-378.902	-200.000	0.026	0.306
-377.888	226.257	0.067	0.107
-376.873	27.389	0.198	-0.164
-375.858	-41.522	-0.301	-0.152
-374.844	-99.349	0.285	-0.071
-373.829	-200.000	0.026	-0.244
-372.815	2.574	0.169	0.121
-371.800	-81.413	0.177	0.058
-370.785	62.098	-0.234	0.230
-369.771	-54.122	0.314	0.141
-368.756	369.519	0.077	0.154
-367.742	800.000	0.121	0.357
-366.727	-53.723	-0.105	0.047
-365.712	-118.824	0.124	0.021
-364.698	-200.000	-0.035	0.174
-363.683	604.559	-0.047	0.115
-362.669	-200.000	0.036	0.191
-361.654	238.321	0.084	-0.138
-360.639	81.135	-0.106	-0.113
-359.625	177.515	0.048	0.069
-358.610	-200.000	0.021	-0.203
-357.596	-200.000	-0.015	-0.169
-356.581	-113.328	0.314	-0.061
-355.566	-13.665	-0.155	0.099
-354.552	-128.780	0.397	0.055
-353.537	-71.242	-0.286	-0.106
-352.523	75.207	-0.027	0.028
-351.508	8.237	0.291	0.215
-350.493	93.730	0.029	0.033
-349.479	-200.000	0.050	-0.217
-348.464	-192.129	0.128	-0.001
-347.450	-76.377	-0.164	-0.057
-346.435	-200.000	-0.021	-0.193
-345.420	-113.658	0.131	0.025
-344.406	-72.094	0.194	-0.071
-343.391	312.402	-0.112	-0.207
-342.377	20.179	-0.377	0.299
-341.362	-200.000	0.039	-0.257
-340.348	800.000	0.061	0.198
-339.333	-121.497	0.026	-0.004
-338.318	-200.000	-0.040	-0.177
-337.304	475.884	0.089	-0.198
-336.289	94.338	0.220	-0.245
-335.275	-200.000	0.000	-0.118
-334.260	-200.000	0.031	-0.224
-333.245	549.659	0.072	-0.170
-332.231	-81.642	0.235	0.076
-331.216	-126.460	-0.366	-0.054
-330.202	242.547	-0.187	0.308
-329.187	-131.291	-0.291	0.038
-328.172	-40.307	-0.486	0.249
-327.158	-172.615	0.143	0.004
-326.143	675.604	0.052	0.133
-325.129	657.904	-0.051	-0.130
-324.114	-200.000	0.002	-0.117
-323.099	-200.000	-0.045	-0.275
-322.085	17.530	-0.188	0.147
-321.070	150.118	0.250	0.333
-320.056	-50.731	0.174	-0.081
-319.041	-90.768	-0.064	-0.018
-318.026	167.707	-0.151	-0.211
-317.012	0.365	0.321	0.225
-315.997	17.304	0.188	-0.147
-314.983	-200.000	-0.027	-0.157
-313.968	169.699	-0.158	-0.222
-312.953	658.436	0.061	0.154
-311.939	29.538	0.248	0.208
-310.924	-200.000	-0.006	-0.226
-309.910	-200.000	0.019	0.094
-308.895	800.000	0.100	0.328
-307.880	-24.409	0.170	0.100
-306.866	-37.377	-0.233	0.122
-305.851	-78.835	-0.309	-0.104
-304.837	-172.431	0.257	-0.008
-303.822	800.000	-0.027	-0.114
-302.807	800.000	-0.100	0.317
-301.793	37.473	-0.218	0.189
-300.778	545.463	0.118	-0.276
-299.764	-31.718	0.028	0.016
-298.749	-77.172	0.211	-0.072
-297.735	-1.351	-0.077	0.054
-296.720	-76.407	-0.192	-0.066
-295.705	800.000	-0.025	0.098
-294.691	-42.603	0.203	0.102
-293.676	158.585	0.032	-0.043
-292.662	-112.659	0.273	-0.053
-291.647	-200.000	0.004	-0.096
-290.632	-200.000	0.016	-0.167
-289.618	-200.000	-0.078	0.420
-288.603	-20.057	-0.114	0.069
-287.589	-200.000	-0.018	0.177
-286.574	-89.662	0.089	0.026
-285.559	60.258	-0.361	-0.351
-284.545	-86.198	-0.184	0.056
-283.530	-41.278	0.182	0.092
-282.516	223.244	0.074	-0.117
-281.501	800.000	0.037	-0.140
-280.486	-63.407	-0.165	0.067
-279.472	-157.559	-0.301	-0.018
-278.457	111.689	0.175	0.207
-277.443	432.287	0.121	0.258
-276.428	-104.363	-0.104	0.024
-275.413	-12.363	0.326	-0.209
-274.399	407.826	0.170	0.352
-273.384	-200.000	0.009	0.252
-272.370	-37.427	0.276	-0.144
-271.355	-34.923	0.310	-0.166
-270.340	235.842	0.166	-0.270
-269.326	290.529	-0.082	0.147
-268.311	-7.219	-0.080	0.053
-267.297	-200.000	-0.016	-0.105
-266.282	-200.000	-0.027	0.184
-265.267	-126.623	0.110	-0.016
-264.253	-200.000	-0.007	0.056
-263.238	75.081	-0.262	-0.271
-262.224	-137.138	-0.228	-0.026
-261.209	-200.000	-0.028	-0.369
-260.195	-200.000	0.054	-0.438
-259.180	33.377	0.246	-0.210
-258.165	-83.156	0.071	-0.022
-257.151	145.538	-0.176	0.231
-256.136	-200.000	-0.052	-0.309
-255.122	-200.000	0.029	-0.256
-254.107	176.898	0.126	-0.180
-253.092	-25.846	-0.104	0.060
-252.078	-132.071	-0.203	0.026
-251.063	-161.192	0.235	0.012
-250.049	-124.742	0.175	0.027
-249.034	124.424	-0.188	0.232
-248.019	536.571	-0.115	-0.267
-247.005	-60.814	0.131	0.054
-245.990	-165.517	0.198	-0.008
-244.976	95.504	0.090	0.101
-243.961	168.531	-0.260	0.363
-242.946	-118.141	0.352	0.062
-241.932	59.605	0.087	-0.085
-240.917	800.000	-0.062	-0.256
-239.903	-87.789	-0.172	0.051
-238.888	-105.943	-0.287	-0.063
-237.873	800.000	0.044	-0.147
-236.859	-200.000	-0.008	-0.071
-235.844	800.000	0.056	-0.202
-234.830	-107.086	-0.551	0.119
-233.815	-146.317	0.339	-0.029
-232.800	386.379	0.057	0.115
-231.786	-161.738	0.143	-0.007
-230.771	233.205	-0.059	-0.094
-229.757	-163.528	-0.122	-0.006
-228.742	800.000	-0.155	0.471
-227.727	73.698	0.079	0.082
-226.713	106.657	0.152	-0.177
-225.698	-148.152	-0.134	-0.011
-224.684	411.800	0.065	0.135
-223.669	800.000	-0.058	-0.186
-222.655	191.586	-0.144	-0.212
-221.640	-65.656	-0.123	-0.048
-220.625	800.000	-0.007	-0.024
-219.611	-200.000	0.015	0.127
-218.596	-200.000	0.031	0.225
-217.582	198.692	-0.031	0.047
-216.567	-63.090	-0.256	0.103
-215.552	66.090	0.107	-0.106
-214.538	154.155	-0.201	-0.270
-213.523	-200.000	-0.008	0.122
-212.509	69.240	0.083	0.084
-211.494	481.741	-0.095	0.211
-210.479	-13.434	-0.089	0.056
-209.465	-38.170	-0.350	0.182
-208.450	-147.635	-0.151	0.012
-207.436	214.012	-0.200	-0.310
-206.421	456.888	0.125	0.272
-205.406	-38.678	-0.081	-0.042
-204.392	45.264	-0.152	-0.137
-203.377	186.576	-0.159	0.232
-202.363	76.642	-0.149	0.155
-201.348	48.682	0.186	0.171
-200.333	-200.000	0.019	-0.131
-199.319	328.196	0.181	-0.340
-198.304	50.272	0.231	-0.213
-197.290	27.376	0.286	-0.235
-196.275	147.859	-0.069	0.091
-195.260	-98.698	0.082	-0.020
-194.246	-42.362	-0.142	-0.071
-193.231	42.542	0.250	-0.223
-192.217	-200.000	-0.023	-0.205
-191.202	577.399	0.176	-0.420
-190.187	-56.199	-0.214	-0.093
-189.173	-116.437	-0.163	-0.030
-188.158	-129.549	0.324	-0.044
-187.144	-96.071	-0.150	-0.039
-186.129	800.000	0.081	0.246
-185.114	135.669	-0.104	-0.132
-184.100	800.000	0.093	0.297
-183.085	440.595	-0.128	0.274
-182.071	78.436	0.113	0.118
-181.056	25.206	0.027	-0.022
-180.042	-200.000	-0.309	-0.001
-179.027	54.075	0.198	-0.186
-178.012	357.997	0.127	-0.249
-176.998	-156.312	-0.075	-0.005
-175.983	800.000	0.065	-0.232
-174.969	63.169	0.278	-0.272
-173.954	159.736	0.069	0.093
-172.939	394.865	-0.106	-0.217
-171.925	-24.568	-0.163	0.095
-170.910	159.531	0.186	0.253
-169.896	53.985	-0.367	0.345
-168.881	-200.000	-0.001	-0.539
-167.866	-3.786	-0.238	0.161
-166.852	581.845	0.051	-0.123
-165.837	800.000	0.087	-0.252
-164.823	-200.000	-0.063	0.394
-163.808	-56.193	-0.295	-0.128
-162.793	-200.000	-0.016	0.111
-161.779	-112.420	0.282	0.055
-160.764	10.633	0.213	0.159
-159.750	9.607	-0.176	-0.130
-158.735	-161.605	0.089	-0.004
-157.720	-134.450	0.480	0.057
-156.706	581.464	-0.087	0.208
-155.691	121.580	-0.053	-0.065
-154.677	-200.000	-0.013	0.206
-153.662	122.487	0.169	-0.207
-152.647	-122.106	-0.162	-0.026
-151.633	1.463	0.224	0.157
-150.618	800.000	-0.033	-0.106
-149.604	292.531	0.053	-0.094
-148.589	9.104	0.190	-0.140
-147.574	-200.000	-0.030	-0.145
-146.560	-200.000	0.056	0.402
-145.545	-96.449	-0.202	0.052
-144.531	-64.326	-0.355	0.141
-143.516	-200.000	-0.004	-0.181
-142.502	13.016	0.343	0.259
-141.487	-200.000	0.043	0.233
-140.472	729.074	0.061	0.159
-139.458	-200.000	0.014	-0.107
-138.443	-118.897	0.265	-0.045
-137.429	13.970	-0.259	-0.197
-136.414	753.324	-0.119	-0.315
-135.399	-18.505	-0.152	-0.093
-134.385	-52.166	-0.330	0.149
-133.370	-200.000	0.018	0.120
-132.356	800.000	-0.028	-0.088
-131.341	-130.047	-0.280	-0.037
-130.326	2.692	-0.349	0.247
-129.312	-200.000	0.040	0.214
-128.297	-12.771	0.120	-0.077
-127.283	-60.079	0.087	0.036
-126.268	252.402	0.192	0.319
-125.253	-29.181	0.314	-0.175
-124.239	-133.382	0.198	-0.024
-123.224	-120.166	0.219	0.036
-122.210	-60.535	0.206	-0.085
-121.195	800.000	-0.033	-0.102
-120.180	169.667	0.341	0.475
-119.166	-200.000	0.014	0.103
-118.151	800.000	-0.025	-0.088
-117.137	42.773	-0.084	0.074
-116.122	539.407	0.141	0.326
-115.107	-15.229	0.164	0.102
-114.093	-95.429	0.087	0.023
-113.078	-106.402	0.174	-0.038
-112.064	-79.980	0.198	0.065
-111.049	65.646	0.026	0.026
-110.034	22.906	-0.189	0.151
-109.020	-33.029	-0.193	-0.104
-108.005	-200.000	-0.059	-0.319
-106.991	-200.000	-0.002	-0.216
-105.976	-200.000	-0.042	0.282
-104.962	-200.000	-0.024	0.116
-103.947	105.851	0.136	-0.157
-102.932	-200.000	-0.033	-0.149
-101.918	-31.219	0.076	-0.042
-100.903	-107.695	0.211	-0.045
-99.889	-67.030	0.115	-0.044
-98.874	-101.979	0.217	0.051
-97.859	-143.131	0.395	-0.037
-96.845	-46.492	0.320	0.153
-95.830	-94.541	0.134	-0.036
-94.816	129.625	-0.079	-0.099
-93.801	800.000	0.094	-0.311
-92.786	145.085	-0.074	0.097
-91.772	-22.671	0.050	-0.030
-90.757	8.420	-0.308	0.226
-89.743	-200.000	-0.002	-0.063
-88.728	-200.000	0.011	0.106
-87.713	-160.631	-0.049	-0.003
-86.699	160.767	0.193	-0.263
-85.684	40.248	0.099	-0.087
-84.670	-16.684	-0.205	0.126
-83.655	-95.511	-0.209	-0.055
-82.640	-200.000	0.001	0.026
-81.626	-200.000	0.021	0.202
-80.611	-97.015	-0.212	-0.054
-79.597	-101.988	0.439	0.103
-78.582	-59.106	-0.184	-0.077
-77.567	-200.000	0.012	-0.150
-76.553	69.688	0.185	-0.186
-75.538	800.000	-0.038	-0.128
-74.524	-23.290	-0.220	-0.129
-73.509	800.000	0.087	0.237
-72.494	741.882	0.039	-0.102
-71.480	-6.726	-0.137	-0.090
-70.465	800.000	0.104	-0.422
-69.451	480.267	-0.149	-0.330
-68.436	-200.000	0.003	0.211
-67.422	196.497	0.172	0.256
-66.407	-200.000	-0.024	0.234
-65.392	-17.169	-0.371	0.228
-64.378	-87.924	0.187	-0.055
-63.363	54.342	-0.078	-0.073
-62.349	28.908	-0.166	0.137
-61.334	223.151	-0.673	-1.056
-60.319	120.151	0.494	0.596
-59.305	413.860	-0.636	-1.317
-58.290	188.688	0.944	1.374
-57.276	362.400	0.881	1.720
-56.261	-200.000	120.832	633.901
-55.246	436.515	1526.023	3232.543
-54.232	149.738	2679.318	3532.307
-53.217	92.674	2267.073	2488.806
-52.203	33.267	1886.203	1591.786
-51.188	27.510	1683.959	1377.663
-50.173	25.241	1644.889	1328.868
-49.159	45.395	1711.482	1536.008
-48.144	43.671	1724.144	1534.253
-47.130	27.017	1676.344	1367.505
-46.115	24.527	1661.135	1336.436
-45.100	24.462	1655.824	1331.625
-44.086	24.358	1653.747	1329.129
-43.071	24.301	1651.348	1326.720
-42.057	24.255	1649.297	1324.684
-41.042	24.355	1647.223	1323.703
-40.027	24.349	1645.264	1322.033
-39.013	24.297	1643.410	1320.105
-37.998	24.285	1641.754	1318.637
-36.984	24.397	1640.251	1318.204
-35.969	24.369	1639.376	1317.240
-34.954	24.436	1637.825	1316.438
-33.940	24.435	1635.787	1314.741
-32.925	24.443	1633.889	1313.221
-31.911	24.470	1632.577	1312.311
-30.896	24.380	1630.963	1310.297
-29.881	24.473	1629.487	1309.749
-28.867	24.428	1627.952	1308.129
-27.852	24.388	1626.915	1306.950
-26.838	24.419	1625.081	1305.655
-25.823	24.402	1623.904	1304.529
-24.809	24.463	1622.562	1303.847
-23.794	24.501	1621.034	1302.848
-22.779	24.417	1619.920	1301.284
-21.765	24.496	1617.870	1300.165
-20.750	24.473	1616.151	1298.559
-19.736	24.479	1615.171	1297.766
-18.721	24.439	1614.074	1296.546
-17.706	24.470	1612.491	1295.447
-16.692	24.468	1610.614	1293.869
-15.677	24.560	1609.009	1293.200
-14.663	24.462	1608.119	1291.722
-13.648	24.474	1606.796	1290.695
-12.633	24.423	1605.351	1289.110
-11.619	24.561	1603.824	1288.833
-10.604	24.409	1602.200	1286.381
-9.590	24.441	1600.762	1285.404
-8.575	24.487	1599.375	1284.572
-7.560	24.485	1598.266	1283.618
-6.546	24.471	1597.364	1282.738
-5.531	24.496	1596.307	1282.017
-4.517	24.450	1595.313	1280.842
-3.502	24.398	1594.185	1279.512
-2.487	24.521	1592.053	1278.631
-1.473	24.081	1580.297	1266.008
-0.458	20.931	1560.747	1228.135
0.556	15.681	1562.258	1195.689
1.571	13.355	1585.966	1196.919
2.586	12.994	1597.915	1203.200
3.600	11.854	1543.886	1154.378
4.615	6.660	1438.806	1041.499
5.629	1.251	1380.598	964.949
6.644	0.271	1373.432	953.654
7.659	0.134	1372.014	951.720
8.673	0.144	1371.439	951.302
9.688	0.151	1368.953	949.534
10.702	0.095	1365.387	946.622
11.717	2.684	1369.201	965.506
12.731	9.578	1379.619	1016.384
13.746	15.257	1388.494	1058.801
14.761	16.950	1389.446	1070.126
15.775	16.169	1388.212	1064.153
16.790	15.194	1385.177	1055.593
17.804	14.508	1383.079	1049.584
18.819	14.051	1382.055	1045.841
19.834	13.887	1380.594	1043.609
20.848	13.626	1379.573	1041.108
21.863	13.370	1377.873	1038.128
22.877	13.271	1376.284	1036.217
23.892	13.278	1375.135	1035.303
24.907	13.180	1374.825	1034.363
25.921	13.182	1373.761	1033.484
26.936	13.236	1372.730	1032.956
27.950	13.258	1372.294	1032.677
28.965	13.307	1371.335	1032.168
29.980	13.419	1370.197	1031.916
30.994	13.425	1369.097	1031.034
32.009	13.394	1367.994	1029.918
33.023	13.443	1367.056	1029.427
34.038	13.332	1366.215	1028.015
35.053	13.396	1364.447	1026.989
36.067	13.293	1363.580	1025.609
37.082	13.316	1362.600	1024.923
38.096	13.376	1361.591	1024.442
39.111	13.367	1360.976	1023.833
40.126	13.308	1360.118	1022.734
41.140	13.279	1359.162	1021.748
42.155	13.193	1358.876	1020.905
43.169	13.208	1358.599	1020.703
44.184	13.161	1358.384	1020.158
45.199	13.209	1357.679	1019.835
46.213	13.274	1357.108	1019.718
47.228	13.326	1356.228	1019.288
48.242	13.319	1355.177	1018.367
49.257	13.232	1353.408	1016.410
50.271	13.298	1352.133	1015.769
51.286	13.256	1350.828	1014.441
52.301	13.332	1349.232	1013.620
53.315	13.322	1348.525	1012.938
54.330	13.240	1347.714	1011.733
55.344	13.330	1346.040	1010.938
56.359	13.276	1345.196	1009.888
57.374	13.222	1344.175	1008.702
58.388	13.191	1343.426	1007.860
59.403	13.105	1343.229	1007.096
60.417	13.200	1342.239	1006.848
61.432	13.108	1340.971	1005.248
62.447	13.130	1340.398	1004.863
63.461	13.106	1339.249	1003.767
64.476	13.082	1338.150	1002.706
65.490	13.151	1336.957	1002.144
66.505	13.087	1334.780	1000.036
67.520	13.052	1334.108	999.231
68.534	13.140	1332.916	998.779
69.549	13.142	1331.694	997.793
70.563	13.096	1330.814	996.766
71.578	13.065	1329.854	995.772
72.593	13.076	1329.055	995.153
73.607	13.139	1327.910	994.583
74.622	13.098	1326.855	993.461
75.636	13.007	1326.598	992.630
76.651	13.067	1325.767	992.281
77.666	13.060	1325.234	991.753
78.680	13.126	1324.299	991.364
79.695	13.137	1323.476	990.724
80.709	13.123	1322.724	989.991
81.724	13.137	1321.890	989.363
82.739	13.210	1320.802	988.896
83.753	13.269	1320.027	988.583
84.768	13.277	1319.057	987.819
85.782	13.246	1317.596	986.452
86.797	13.435	1315.970	986.270
87.812	13.285	1315.034	984.592
88.826	13.226	1314.187	983.517
89.841	13.202	1313.450	982.736
90.855	13.328	1312.233	982.486
91.870	13.396	1311.229	982.050
92.884	13.357	1310.553	981.228
93.899	13.368	1309.499	980.415
94.914	13.436	1308.463	979.956
95.928	13.395	1307.792	979.123
96.943	13.338	1307.108	978.190
97.957	13.325	1306.034	977.224
98.972	13.388	1305.227	976.906
99.987	13.367	1303.881	975.684
101.001	13.335	1303.008	974.759
102.016	13.283	1302.230	973.785
103.030	13.334	1301.225	973.248
104.045	13.382	1300.364	972.797
105.060	13.247	1299.476	971.257
106.074	13.289	1298.086	970.377
107.089	13.227	1296.924	969.060
108.103	13.217	1295.226	967.645
109.118	13.258	1294.277	967.090
110.133	13.222	1292.785	965.678
111.147	13.300	1291.557	965.130
112.162	13.243	1290.446	963.886
113.176	13.251	1289.381	963.052
114.191	13.200	1288.475	961.991
115.206	13.229	1287.001	960.974
116.220	13.236	1285.960	960.155
117.235	13.251	1284.468	959.043
118.249	13.183	1283.956	958.179
119.264	13.305	1282.286	957.557
120.279	13.271	1281.416	956.625
121.293	13.260	1280.113	955.505
122.308	13.213	1279.746	954.873
123.322	13.238	1278.738	954.181
124.337	13.310	1277.460	953.557
125.352	13.341	1275.692	952.333
126.366	13.271	1275.133	951.431
127.381	13.173	1274.399	950.230
128.395	13.198	1272.808	949.106
129.410	13.308	1271.690	948.821
130.424	13.237	1271.620	948.276
131.439	13.315	1270.472	947.784
132.454	13.251	1269.681	946.745
133.468	13.313	1268.401	946.060
134.483	13.195	1268.219	945.163
135.497	13.172	1267.080	944.103
136.512	13.331	1265.389	943.666
137.527	13.294	1264.294	942.556
138.541	13.347	1262.708	941.591
139.556	13.349	1261.224	940.408
140.570	13.386	1260.449	939.958
141.585	13.486	1258.799	939.211
142.600	13.391	1258.240	938.175
143.614	13.430	1257.498	937.759
144.629	13.442	1256.174	936.756
145.643	13.525	1254.762	936.090
146.658	13.518	1253.339	934.903
147.673	13.454	1252.284	933.677
148.687	13.385	1251.338	932.501
149.702	13.381	1250.177	931.530
150.716	13.353	1248.806	930.265
151.731	13.406	1247.687	929.647
152.746	13.391	1246.441	928.554
153.760	13.462	1245.442	928.127
154.775	13.559	1244.160	927.629
155.789	13.569	1243.052	926.781
156.804	13.583	1241.862	925.887
157.819	13.598	1241.331	925.493
158.833	13.685	1240.143	925.010
159.848	13.706	1238.980	924.181
160.862	13.607	1238.061	922.864
161.877	13.542	1236.914	921.561
162.892	13.528	1236.148	920.834
163.906	13.633	1234.934	920.431
164.921	13.533	1234.530	919.492
165.935	13.626	1233.603	919.240
166.950	13.705	1232.568	918.823
167.964	13.501	1232.747	917.742
168.979	13.617	1230.757	916.824
169.994	13.636	1229.921	916.223
171.008	13.628	1229.752	915.975
172.023	13.821	1228.355	915.918
173.037	13.740	1227.801	914.974
174.052	13.771	1226.849	914.357
175.067	13.684	1226.155	913.279
176.081	13.560	1225.138	911.759
177.096	13.638	1223.861	911.156
178.110	13.697	1223.351	911.018
179.125	13.730	1221.927	910.060
180.140	13.689	1220.478	908.677
181.154	13.805	1219.070	908.181
182.169	13.731	1218.239	907.077
183.183	13.918	1216.539	906.754
184.198	13.832	1215.634	905.528
185.213	13.692	1214.945	904.172
186.227	13.917	1213.230	904.040
187.242	13.971	1212.443	903.667
188.256	13.941	1211.853	902.986
189.271	13.896	1210.637	901.757
190.286	13.805	1209.481	900.319
191.300	13.674	1209.164	899.294
192.315	13.723	1208.279	898.824
193.329	13.775	1207.837	898.693
194.344	13.851	1207.300	898.627
195.359	13.826	1206.527	897.835
196.373	13.897	1205.853	897.641
197.388	13.853	1205.690	897.202
198.402	14.005	1204.857	897.322
199.417	14.027	1204.346	896.979
200.432	13.976	1203.299	895.850
201.446	14.090	1202.381	895.698
202.461	14.110	1201.306	894.927
203.475	14.101	1200.446	894.159
204.490	14.177	1198.587	893.104
205.504	14.151	1197.694	892.219
206.519	14.060	1196.868	891.036
207.534	14.034	1195.628	889.895
208.548	14.056	1194.606	889.175
209.563	14.058	1193.846	888.543
210.577	14.200	1193.068	888.642
211.592	14.173	1192.312	887.857
212.607	14.151	1191.280	886.889
213.621	14.168	1190.595	886.395
214.636	14.204	1189.873	885.968
215.650	14.127	1188.727	884.628
216.665	14.209	1187.764	884.271
217.680	14.292	1186.868	883.962
218.694	14.379	1185.881	883.612
219.709	14.205	1185.698	882.475
220.723	14.346	1184.654	882.369
221.738	14.393	1183.597	881.752
222.753	14.419	1182.862	881.260
223.767	14.435	1181.930	880.577
224.782	14.427	1181.638	880.236
225.796	14.441	1181.400	880.053
226.811	14.461	1180.256	879.232
227.826	14.471	1179.554	878.681
228.840	14.411	1178.778	877.710
229.855	14.515	1178.225	877.766
230.869	14.329	1177.341	876.055
231.884	14.312	1176.775	875.465
232.899	14.425	1175.565	875.084
233.913	14.319	1175.158	874.147
234.928	14.383	1174.306	873.769
235.942	14.420	1173.498	873.284
236.957	14.412	1172.710	872.577
237.972	14.367	1171.935	871.689
238.986	14.371	1171.507	871.315
240.001	14.424	1170.539	870.798
241.015	14.444	1169.639	870.151
242.030	14.487	1168.845	869.707
243.045	14.563	1168.056	869.441
244.059	14.537	1167.394	868.738
245.074	14.628	1166.104	868.176
246.088	14.566	1166.132	867.797
247.103	14.591	1165.133	867.103
248.117	14.726	1164.304	867.111
249.132	14.676	1163.507	866.180
250.147	14.724	1163.293	866.195
251.161	14.847	1161.841	865.675
252.176	14.926	1161.198	865.527
253.190	14.996	1160.350	865.181
254.205	14.829	1160.324	864.220
255.220	14.933	1159.835	864.321
256.234	14.928	1158.961	863.566
257.249	14.872	1158.483	862.843
258.263	14.869	1157.875	862.297
259.278	14.859	1157.136	861.620
260.293	14.940	1156.431	861.439
261.307	14.983	1156.103	861.337
262.322	15.133	1155.036	861.239
263.336	15.099	1154.091	860.283
264.351	15.069	1153.974	859.966
265.366	15.216	1153.346	860.176
266.380	15.059	1152.458	858.632
267.395	15.124	1151.575	858.229
268.409	15.113	1151.078	857.727
269.424	15.062	1150.417	856.898
270.439	15.028	1149.658	856.085
271.453	14.992	1149.193	855.479
272.468	15.141	1147.817	855.137
273.482	15.020	1147.523	854.227
274.497	15.113	1146.594	853.935
275.512	15.131	1146.044	853.538
276.526	15.163	1144.981	852.836
277.541	15.190	1144.612	852.624
278.555	15.182	1143.899	851.975
279.570	15.235	1143.267	851.697
280.585	15.237	1142.533	851.086
281.599	15.239	1141.606	850.332
282.614	15.278	1140.388	849.548
283.628	15.294	1139.400	848.817
284.643	15.326	1138.391	848.149
285.657	15.364	1137.174	847.361
286.672	15.350	1136.748	846.899
287.687	15.449	1135.643	846.497
288.701	15.414	1135.079	845.827
289.716	15.436	1134.178	845.194
290.730	15.369	1133.672	844.405
291.745	15.325	1133.011	843.615
292.760	15.433	1132.240	843.509
293.774	15.401	1131.814	842.955
294.789	15.563	1131.182	843.222
295.803	15.504	1130.547	842.382
296.818	15.452	1129.708	841.419
297.833	15.448	1129.096	840.867
298.847	15.473	1128.173	840.230
299.862	15.522	1127.658	840.020
300.876	15.480	1127.015	839.255
301.891	15.609	1125.886	838.987
302.906	15.608	1125.193	838.390
303.920	15.634	1124.705	838.079
304.935	15.654	1124.240	837.763
305.949	15.712	1123.159	837.168
306.964	15.805	1122.485	837.055
307.979	15.655	1121.918	835.813
308.993	15.730	1121.223	835.594
310.008	15.801	1120.137	835.065
311.022	15.863	1119.807	835.051
312.037	15.740	1118.691	833.536
313.052	15.764	1117.965	833.041
314.066	15.754	1117.104	832.276
315.081	15.731	1116.349	831.525
316.095	15.706	1115.505	830.701
317.110	15.799	1114.573	830.391
318.125	15.790	1114.584	830.279
319.139	15.853	1113.199	829.485
320.154	15.737	1112.763	828.516
321.168	15.826	1112.154	828.428
322.183	15.834	1111.333	827.784
323.197	15.779	1111.279	827.397
324.212	15.786	1110.755	826.971
325.227	15.934	1109.948	827.021
326.241	15.904	1109.000	826.094
327.256	15.852	1108.572	825.446
328.270	15.900	1107.453	824.778
329.285	15.705	1106.808	823.267
330.300	15.861	1105.787	823.202
331.314	15.975	1104.477	822.708
332.329	15.890	1103.771	821.694
333.343	15.873	1103.052	821.003
334.358	15.932	1102.078	820.493
335.373	16.048	1101.394	820.479
336.387	16.039	1100.692	819.838
337.402	15.988	1099.837	818.882
338.416	16.164	1098.899	818.966
339.431	16.157	1098.171	818.315
340.446	16.126	1097.907	817.896
341.460	16.204	1097.171	817.652
342.475	16.169	1096.186	816.678
343.489	16.213	1095.517	816.321
344.504	16.263	1094.766	815.929
345.519	16.192	1093.955	814.908
346.533	16.317	1092.954	814.697
347.548	16.317	1092.033	813.936
348.562	16.298	1091.176	813.136
349.577	16.296	1090.669	812.676
350.592	16.348	1089.727	812.151
351.606	16.232	1088.933	810.930
352.621	16.256	1088.467	810.625
353.635	16.284	1087.458	809.937
354.650	16.274	1086.993	809.472
355.665	16.283	1086.128	808.801
356.679	16.322	1085.568	808.499
357.694	16.287	1085.386	808.124
358.708	16.189	1084.980	807.281
359.723	16.350	1083.869	807.151
360.738	16.364	1083.250	806.685
361.752	16.345	1082.843	806.223
362.767	16.321	1082.269	805.609
363.781	16.477	1081.617	805.793
364.796	16.549	1080.582	805.296
365.810	16.428	1080.371	804.491
366.825	16.511	1079.621	804.257
367.840	16.472	1079.704	804.060
368.854	16.700	1078.448	804.137
369.869	16.597	1077.834	803.120
370.883	16.723	1076.593	802.721
371.898	16.550	1076.072	801.440
372.913	16.661	1075.553	801.509
373.927	16.586	1075.478	801.027
374.942	16.680	1074.874	800.951
375.956	16.693	1074.334	800.542
376.971	16.692	1073.749	800.027
377.986	16.749	1073.077	799.728
379.000	16.787	1072.317	799.271
380.015	16.741	1071.860	798.640
381.029	16.846	1071.248	798.610
382.044	16.869	1070.611	798.170
383.059	16.902	1069.376	797.336
384.073	16.910	1068.842	796.903
385.088	16.868	1068.176	796.139
386.102	16.903	1066.989	795.349
387.117	16.947	1066.339	795.000
388.132	16.932	1065.312	794.093
389.146	16.920	1064.370	793.265
390.161	16.843	1063.837	792.439
391.175	16.948	1062.772	792.067
392.190	16.887	1062.458	791.474
393.205	17.076	1061.587	791.640
394.219	16.942	1061.278	790.712
395.234	16.914	1060.350	789.820
396.248	16.925	1059.124	788.888
397.263	16.953	1058.391	788.406
398.278	16.923	1058.106	787.981
399.292	16.832	1057.156	786.784
400.307	16.932	1056.404	786.616
401.321	16.911	1055.868	786.053
402.336	17.016	1055.060	785.866
403.350	17.016	1054.418	785.320
404.365	16.969	1053.990	784.714
405.380	16.974	1052.879	783.839
406.394	17.083	1052.132	783.718
407.409	17.148	1051.292	783.322
408.423	17.139	1051.059	783.038
409.438	17.243	1049.784	782.500
410.453	17.215	1049.163	781.838
411.467	17.357	1048.252	781.741
412.482	17.347	1047.731	781.239
413.496	17.278	1047.151	780.418
414.511	17.399	1046.739	780.597
415.526	17.387	1046.304	780.149
416.540	17.469	1045.810	780.089
417.555	17.419	1044.983	779.175
418.569	17.452	1044.561	778.940
419.584	17.510	1043.920	778.661
420.599	17.516	1043.744	778.485
421.613	107.870	1328.318	1485.044
422.628	99.136	1369.727	1485.123
