DTS Sentinel unit serial number:	SN413079Multiplexer serial number:	ORYXHardware model number:	OX4-SRSoftware version number:	ORYX F/W v4.00 Oryx Data Collector v3.7.2.0data status	okinstallation	princeton_trtdifferential loss correction	single-endedforward channel	channel 2reverse channel	N/Adate	2019/09/12time	18:49:49forward acquisition time	15.00reverse acquisition time	0.00gamma	496.2192k internal	0.2324k external	0.2324temperature offset calibration	1.0139default loss term (dB/km)	0.3790temperature slope calibration	1.0000multiplexer offset coefficient	1.0000multiplexer slope coefficient	1.0000fibre end	0.00T internal ref (°C)	32.94T ext. ref 1 (°C)	3.01T ext. ref 2 (°C)	27.45length (m)	temperature (°C)	Stokes	anti-Stokes-747.200	-78.083	-0.269	-0.094
-746.185	478.863	-0.147	0.337
-745.171	350.804	-0.198	0.396
-744.156	-130.638	-0.293	0.040
-743.142	800.000	-0.059	0.216
-742.127	-29.334	0.554	0.320
-741.112	-114.352	0.690	0.134
-740.098	104.269	0.807	0.958
-739.083	-90.179	0.524	0.154
-738.069	-41.479	0.314	-0.163
-737.054	4.598	-0.278	0.206
-736.039	21.869	0.504	0.414
-735.025	-95.073	0.110	-0.030
-734.010	-94.343	-0.278	0.077
-732.996	164.806	-0.412	-0.587
-731.981	-200.000	-0.002	-0.243
-730.966	-125.955	1.547	0.235
-729.952	39.550	-0.196	0.177
-728.937	-42.183	0.155	-0.080
-727.923	51.967	-0.045	0.044
-726.908	311.089	0.358	0.677
-725.894	-27.507	-0.448	-0.263
-724.879	-67.225	0.585	-0.232
-723.864	-46.066	0.756	-0.376
-722.850	392.245	-0.254	-0.532
-721.835	423.908	-0.378	0.821
-720.821	-78.039	-0.262	-0.091
-719.806	206.283	-0.087	-0.137
-718.791	-2.091	-0.407	-0.288
-717.777	800.000	0.269	0.901
-716.762	143.600	0.489	-0.656
-715.748	388.681	0.323	0.675
-714.733	-134.018	-0.973	-0.121
-713.718	324.857	0.186	-0.359
-712.704	-200.000	-0.008	0.192
-711.689	-92.010	-0.459	0.131
-710.675	800.000	0.199	0.711
-709.660	181.742	-0.147	-0.218
-708.645	28.967	0.503	0.430
-707.631	-2.222	-0.729	0.516
-706.616	-6.516	0.296	0.203
-705.602	-200.000	-0.155	-0.971
-704.587	41.688	-0.667	0.609
-703.572	-98.903	0.725	0.186
-702.558	-60.130	-0.377	-0.162
-701.543	800.000	0.076	-0.319
-700.529	-184.684	-0.769	0.012
-699.514	-200.000	-0.216	1.174
-698.499	-143.958	0.206	0.019
-697.485	-200.000	-0.040	0.677
-696.470	800.000	-0.299	1.017
-695.456	617.863	0.132	-0.333
-694.441	-124.048	-0.141	-0.022
-693.426	317.505	-0.312	-0.594
-692.412	2.107	-0.447	-0.325
-691.397	225.892	0.251	-0.409
-690.383	-200.000	-0.119	-1.179
-689.368	-126.017	-0.066	-0.010
-688.354	-40.261	0.119	-0.063
-687.339	-46.885	0.592	-0.292
-686.324	103.911	0.231	-0.273
-685.310	-200.000	-0.099	0.726
-684.295	-86.167	-0.475	0.148
-683.281	800.000	-0.058	0.245
-682.266	-200.000	0.007	0.344
-681.251	-70.387	0.336	-0.128
-680.237	61.804	-0.630	0.632
-679.222	-200.000	-0.064	0.337
-678.208	136.511	0.359	0.472
-677.193	1.537	0.465	0.337
-676.178	-129.734	-1.178	-0.163
-675.164	1.905	-0.524	-0.380
-674.149	-4.234	0.148	-0.103
-673.135	-68.550	0.231	0.090
-672.120	134.193	0.787	1.027
-671.105	132.869	-0.520	0.675
-670.091	-200.000	-0.038	0.219
-669.076	419.486	-0.263	0.567
-668.062	-78.563	-0.454	0.156
-667.047	82.322	-0.118	-0.129
-666.032	-200.000	0.015	0.247
-665.018	681.587	0.241	-0.632
-664.003	615.026	-0.119	0.299
-662.989	-92.670	0.554	0.156
-661.974	426.983	0.432	-0.937
-660.959	-101.150	0.615	-0.152
-659.945	-78.110	0.340	-0.118
-658.930	-13.740	-0.802	-0.522
-657.916	749.499	0.295	-0.800
-656.901	-41.329	-0.646	-0.335
-655.886	-91.270	0.578	-0.166
-654.872	127.622	0.415	-0.530
-653.857	800.000	0.234	0.762
-652.843	17.593	0.600	0.480
-651.828	-152.174	0.206	0.015
-650.814	-200.000	0.117	0.632
-649.799	-91.454	0.567	-0.163
-648.784	754.624	0.377	-1.025
-647.770	4.402	0.753	0.555
-646.755	-200.000	0.072	-0.453
-645.741	346.368	-0.306	-0.605
-644.726	-0.804	0.565	0.403
-643.711	-64.641	-0.287	0.117
-642.697	159.502	-0.491	-0.687
-641.682	49.277	-0.545	0.515
-640.668	147.967	0.395	0.535
-639.653	-158.250	-0.519	-0.030
-638.638	29.157	0.882	-0.753
-637.624	-200.000	-0.027	-0.423
-636.609	-200.000	-0.043	-0.642
-635.595	-127.583	0.404	0.059
-634.580	-200.000	-0.027	0.537
-633.565	735.875	-0.153	-0.413
-632.551	181.930	-0.297	0.440
-631.536	-7.876	-0.527	0.358
-630.522	142.614	-0.057	0.075
-629.507	-200.000	-0.009	-0.178
-628.492	-110.374	-0.404	-0.084
-627.478	137.955	0.289	0.380
-626.463	-200.000	0.155	-1.003
-625.449	16.363	-0.252	-0.200
-624.434	-54.357	-0.776	0.354
-623.419	77.564	0.483	0.517
-622.405	-36.113	0.296	-0.161
-621.390	-200.000	-0.049	-0.346
-620.376	800.000	0.064	-0.276
-619.361	-67.387	-0.282	0.111
-618.346	800.000	-0.333	0.963
-617.332	-79.520	-0.288	0.098
-616.317	141.919	0.214	0.284
-615.303	119.231	0.656	-0.815
-614.288	21.509	0.399	-0.326
-613.273	34.082	0.390	0.341
-612.259	767.323	-0.109	0.299
-611.244	759.064	-0.094	-0.255
-610.230	60.095	-0.445	0.442
-609.215	-141.253	-0.940	0.096
-608.201	278.902	-0.396	-0.709
-607.186	154.404	0.269	0.371
-606.171	247.999	0.372	-0.632
-605.157	-21.483	0.709	-0.434
-604.142	800.000	0.267	-0.884
-603.128	-53.717	0.303	0.139
-602.113	356.212	0.144	0.287
-601.098	773.312	0.250	-0.683
-600.084	800.000	-0.050	0.152
-599.069	11.892	-0.203	0.157
-598.055	650.787	-0.263	0.676
-597.040	161.129	0.410	-0.575
-596.025	-72.047	-0.568	0.212
-595.011	-200.000	-0.013	0.124
-593.996	18.661	-0.431	-0.346
-592.982	-102.013	-0.309	0.075
-591.967	75.754	0.301	0.319
-590.952	50.221	-0.478	-0.453
-589.938	42.505	0.452	-0.412
-588.923	-69.633	0.427	0.164
-587.909	29.418	-0.518	0.442
-586.894	-200.000	0.043	0.616
-585.879	5.062	0.602	0.444
-584.865	-200.000	0.141	0.961
-583.850	51.846	-0.304	0.290
-582.836	-132.768	-0.413	-0.053
-581.821	165.537	0.609	0.863
-580.806	96.602	-0.534	-0.613
-579.792	69.730	-0.583	0.602
-578.777	8.958	-0.381	0.288
-577.763	-82.630	0.776	-0.252
-576.748	-120.837	-0.317	0.054
-575.733	-63.837	-0.479	-0.197
-574.719	530.453	0.107	-0.254
-573.704	164.096	0.230	0.325
-572.690	-200.000	0.068	0.303
-571.675	-12.112	0.444	0.292
-570.661	-140.706	-0.268	0.028
-569.646	-49.775	-1.244	-0.592
-568.631	-200.000	0.029	-0.224
-567.617	303.595	-0.358	-0.666
-566.602	-73.347	-0.545	0.200
-565.588	59.073	0.641	-0.633
-564.573	117.709	-0.522	0.644
-563.558	-200.000	-0.075	0.577
-562.544	-157.453	-0.469	0.028
-561.529	-200.000	0.012	0.069
-560.515	-32.914	-0.797	0.443
-559.500	-200.000	0.167	-1.156
-558.485	167.108	0.311	-0.442
-557.471	51.752	0.079	0.075
-556.456	100.261	-0.281	-0.327
-555.442	-200.000	0.144	-0.641
-554.427	-200.000	-0.009	0.282
-553.412	-200.000	-0.026	0.601
-552.398	-60.957	0.834	0.353
-551.383	-200.000	-0.048	0.609
-550.369	-160.259	0.648	0.035
-549.354	-200.000	-0.013	0.763
-548.339	42.677	-0.347	0.316
-547.325	-133.046	0.912	-0.116
-546.310	-200.000	-0.036	0.324
-545.296	-3.126	-0.238	0.166
-544.281	800.000	0.284	0.919
-543.266	81.619	0.182	0.198
-542.252	14.372	0.288	0.225
-541.237	-38.586	-0.216	-0.114
-540.223	-65.192	0.411	0.166
-539.208	-200.000	-0.018	-0.186
-538.193	-34.156	-0.533	0.293
-537.179	-116.872	-0.288	-0.053
-536.164	-44.464	0.281	0.141
-535.150	-129.831	-0.340	0.047
-534.135	-128.561	0.776	0.110
-533.121	227.355	-0.185	-0.300
-532.106	-147.552	-1.013	0.085
-531.091	83.129	0.110	-0.120
-530.077	-66.458	-1.085	-0.431
-529.062	-200.000	0.058	-0.480
-528.048	20.112	0.124	-0.100
-527.033	26.090	-0.404	-0.337
-526.018	800.000	-0.264	0.881
-525.004	424.971	0.340	-0.733
-523.989	-152.811	-0.546	-0.039
-522.975	-46.397	0.461	0.227
-521.960	-66.201	-0.186	0.074
-520.945	-200.000	0.061	-0.294
-519.931	-125.511	-1.182	0.180
-518.916	-200.000	-0.039	-0.246
-517.902	40.336	0.210	-0.189
-516.887	151.373	0.819	1.116
-515.872	18.149	0.625	0.499
-514.858	-33.089	0.048	-0.027
-513.843	-66.907	-0.435	0.172
-512.829	-28.604	-0.637	-0.367
-511.814	-200.000	0.024	0.681
-510.799	800.000	0.079	-0.261
-509.785	128.585	0.451	-0.575
-508.770	-200.000	0.079	-0.800
-507.756	-107.609	0.895	-0.196
-506.741	800.000	0.163	0.658
-505.726	-41.850	-0.723	0.371
-504.712	-200.000	0.181	1.050
-503.697	-32.627	0.879	0.489
-502.683	14.180	-0.396	0.308
-501.668	-58.669	-0.397	0.172
-500.653	-184.544	0.526	-0.009
-499.639	14.181	-0.278	-0.216
-498.624	-140.576	-0.410	0.043
-497.610	18.616	-0.079	0.063
-496.595	-116.123	-0.682	-0.127
-495.581	800.000	0.056	0.194
-494.566	366.495	0.152	-0.306
-493.551	32.843	-0.371	0.321
-492.537	-2.599	0.476	0.333
-491.522	-151.545	-0.283	0.021
-490.508	-69.681	0.677	-0.259
-489.493	-200.000	0.023	0.332
-488.478	540.951	0.118	0.282
-487.464	230.809	-0.339	-0.555
-486.449	800.000	0.026	0.079
-485.435	37.022	-0.795	-0.702
-484.420	-170.765	0.615	0.021
-483.405	54.718	0.455	0.439
-482.391	80.668	-0.363	-0.391
-481.376	-23.913	0.355	-0.212
-480.362	-45.308	-0.739	-0.367
-479.347	-200.000	-0.031	0.196
-478.332	60.906	0.223	0.221
-477.318	126.497	-0.333	0.421
-476.303	71.553	0.332	0.345
-475.289	50.847	-0.357	-0.338
-474.274	-77.165	0.560	-0.195
-473.259	-27.359	0.515	0.299
-472.245	-114.352	-0.946	0.182
-471.230	-98.113	0.600	0.154
-470.216	800.000	0.279	-0.774
-469.201	141.370	-0.521	-0.689
-468.186	-127.378	0.412	0.060
-467.172	404.292	-0.291	-0.612
-466.157	-200.000	0.047	0.301
-465.143	-93.185	-0.203	-0.056
-464.128	-128.612	0.373	0.053
-463.113	455.489	0.466	-1.032
-462.099	-29.964	-0.621	-0.353
-461.084	-117.229	1.011	0.183
-460.070	-151.404	0.736	0.055
-459.055	69.352	-0.444	0.456
-458.040	800.000	-0.060	-0.256
-457.026	-24.399	-0.281	0.167
-456.011	-200.000	0.101	-0.483
-454.997	0.405	0.526	0.375
-453.982	184.908	-0.333	0.493
-452.968	-200.000	0.023	0.271
-451.953	-90.478	-0.495	0.143
-450.938	158.935	0.317	0.439
-449.924	619.849	-0.271	-0.679
-448.909	-91.382	0.408	-0.116
-447.895	127.427	-0.022	0.028
-446.880	74.334	-0.238	-0.249
-445.865	-50.738	-0.400	-0.188
-444.851	-138.364	-1.058	-0.116
-443.836	-200.000	0.017	0.167
-442.822	317.069	-0.230	0.433
-441.807	-200.000	0.006	0.493
-440.792	-165.808	-0.464	0.020
-439.778	-107.018	-0.400	0.088
-438.763	-200.000	-0.036	0.656
-437.749	-200.000	0.061	0.534
-436.734	-109.354	-0.199	0.042
-435.719	28.970	0.157	-0.133
-434.705	800.000	0.092	-0.319
-433.690	19.838	0.129	0.104
-432.676	-96.689	-0.224	-0.059
-431.661	606.834	0.254	0.630
-430.646	-98.518	0.426	0.109
-429.632	73.875	0.475	0.497
-428.617	-156.023	-0.257	-0.016
-427.603	105.604	-0.376	-0.443
-426.588	-101.430	0.918	0.223
-425.573	-102.940	-0.307	0.073
-424.559	321.680	-0.211	0.400
-423.544	-108.585	-0.201	0.043
-422.530	-86.561	-0.248	0.076
-421.515	-37.204	0.401	-0.214
-420.500	-200.000	-0.055	0.633
-419.486	-200.000	0.018	-0.197
-418.471	-200.000	0.111	-0.531
-417.457	-200.000	0.015	0.119
-416.442	216.485	0.457	0.725
-415.428	-196.494	-0.797	0.005
-414.413	-91.439	0.708	0.201
-413.398	346.548	-0.478	-0.937
-412.384	-35.089	-0.449	-0.244
-411.369	72.598	0.311	-0.323
-410.355	-4.622	0.331	0.228
-409.340	800.000	-0.269	-0.970
-408.325	-200.000	-0.014	0.307
-407.311	254.013	0.070	-0.119
-406.296	49.940	0.466	-0.438
-405.282	81.364	-0.470	-0.506
-404.267	-108.299	0.824	-0.177
-403.252	153.202	-0.339	-0.462
-402.238	-67.104	-0.577	-0.227
-401.223	276.773	0.162	0.287
-400.209	-44.891	1.007	0.500
-399.194	712.661	0.113	0.299
-398.179	-42.410	-0.291	-0.148
-397.165	50.309	0.415	0.390
-396.150	258.302	-0.333	-0.571
-395.136	-2.390	-0.515	-0.359
-394.121	183.513	-0.147	0.216
-393.106	-24.245	-0.244	0.145
-392.092	-91.303	-0.480	0.137
-391.077	-117.144	-0.864	-0.157
-390.063	-174.531	0.197	0.006
-389.048	-32.524	0.300	0.166
-388.033	126.155	0.499	-0.628
-387.019	-200.000	0.046	-0.292
-386.004	190.833	-0.245	-0.367
-384.990	-81.497	-0.524	-0.172
-383.975	-165.217	0.227	0.010
-382.960	-141.921	0.659	0.066
-381.946	78.464	-0.359	0.382
-380.931	-200.000	-0.024	0.442
-379.917	66.484	-0.335	-0.339
-378.902	67.445	-0.423	-0.430
-377.888	-88.532	-0.722	0.214
-376.873	800.000	-0.238	0.724
-375.858	-80.760	0.328	0.108
-374.844	800.000	0.076	0.238
-373.829	-115.374	-0.601	0.113
-372.815	-77.926	0.148	-0.051
-371.800	3.510	-0.490	0.355
-370.785	-200.000	0.017	0.771
-369.771	-89.978	-0.326	0.095
-368.756	-179.447	1.138	-0.025
-367.742	42.252	-0.439	0.396
-366.727	-200.000	0.141	-0.627
-365.712	126.265	0.551	-0.693
-364.698	-95.834	0.404	-0.107
-363.683	-12.741	-0.465	-0.301
-362.669	-200.000	-0.000	-0.776
-361.654	-13.373	0.487	0.314
-360.639	-200.000	0.035	-0.205
-359.625	-200.000	0.018	-0.854
-358.610	109.934	-0.401	0.478
-357.596	208.630	-0.337	-0.524
-356.581	-117.238	-0.272	-0.049
-355.566	375.083	0.095	-0.192
-354.552	-84.348	-0.866	0.272
-353.537	-200.000	0.040	0.525
-352.523	-200.000	0.005	0.099
-351.508	147.476	-0.122	0.164
-350.493	800.000	-0.245	0.827
-349.479	-48.633	0.730	0.348
-348.464	82.912	0.300	-0.324
-347.450	171.985	0.490	0.700
-346.435	113.899	-0.294	0.356
-345.420	-200.000	0.019	-0.680
-344.406	-101.492	-0.225	-0.054
-343.391	114.903	0.271	0.328
-342.377	-131.006	0.501	0.066
-341.362	135.073	-0.316	-0.408
-340.348	-193.546	0.485	0.004
-339.333	169.791	-0.240	-0.340
-338.318	-57.343	0.264	-0.115
-337.304	-194.019	0.600	0.005
-336.289	46.013	0.601	-0.552
-335.275	-200.000	-0.039	-0.216
-334.260	604.311	-0.244	0.604
-333.245	709.866	0.098	0.257
-332.231	136.182	-0.061	0.079
-331.216	75.149	-0.554	-0.581
-330.202	-5.500	0.883	0.602
-329.187	-86.079	-0.305	-0.093
-328.172	-80.867	-0.698	0.230
-327.158	136.341	0.270	0.350
-326.143	-115.541	0.414	0.077
-325.129	-200.000	-0.018	-0.252
-324.114	-200.000	0.097	0.633
-323.099	166.888	0.125	-0.177
-322.085	-29.415	0.241	0.137
-321.070	195.136	0.437	-0.659
-320.056	800.000	-0.230	-0.797
-319.041	91.973	-0.405	0.452
-318.026	10.482	0.447	-0.338
-317.012	-200.000	-0.070	-0.415
-315.997	211.552	-0.209	-0.327
-314.983	169.592	-0.280	-0.397
-313.968	-46.652	-0.576	0.280
-312.953	238.262	-0.343	-0.566
-311.939	534.198	0.357	-0.840
-310.924	388.524	0.136	-0.280
-309.910	166.568	-0.403	-0.567
-308.895	-54.219	0.587	0.265
-307.880	24.682	0.131	0.108
-306.866	172.787	-0.298	0.425
-305.851	20.109	0.524	0.419
-304.837	-39.121	0.917	-0.478
-303.822	-99.421	-0.216	0.054
-302.807	800.000	0.083	-0.266
-301.793	-114.571	-0.790	-0.150
-300.778	-81.587	0.274	0.089
-299.764	-24.742	0.348	-0.205
-298.749	-42.753	-0.685	-0.345
-297.735	-48.616	-0.248	0.118
-296.720	132.280	0.232	-0.297
-295.705	146.199	-0.074	0.099
-294.691	9.055	0.533	0.399
-293.676	41.059	1.067	0.956
-292.662	-137.170	0.582	-0.066
-291.647	800.000	0.267	0.857
-290.632	-200.000	0.001	-0.309
-289.618	42.506	0.173	-0.156
-288.603	-35.170	0.554	-0.299
-287.589	800.000	-0.248	0.829
-286.574	-200.000	0.026	-0.367
-285.559	394.845	0.200	0.413
-284.545	701.081	0.190	-0.497
-283.530	228.743	0.236	-0.382
-282.516	364.492	-0.205	0.410
-281.501	280.700	-0.355	0.629
-280.486	58.107	-0.361	0.350
-279.472	79.497	-0.267	0.284
-278.457	-200.000	0.040	-0.223
-277.443	161.359	0.393	0.545
-276.428	-66.544	-0.508	0.200
-275.413	14.578	0.458	0.354
-274.399	-34.695	-0.717	0.388
-273.384	-200.000	-0.122	-0.560
-272.370	-80.312	-0.578	-0.191
-271.355	-75.531	-0.848	0.299
-270.340	-95.437	-0.176	0.047
-269.326	467.642	-0.182	0.404
-268.311	800.000	0.360	-1.093
-267.297	-39.968	-0.023	-0.012
-266.282	-137.161	-0.378	0.043
-265.267	297.610	-0.557	-1.013
-264.253	154.534	0.345	0.470
-263.238	-14.354	0.243	-0.155
-262.224	-200.000	0.132	0.850
-261.209	30.614	-0.307	-0.260
-260.195	-180.438	0.583	0.012
-259.180	97.808	0.277	0.316
-258.165	800.000	0.194	0.658
-257.151	26.006	0.415	-0.343
-256.136	-107.625	0.705	-0.153
-255.122	281.533	-0.375	-0.665
-254.107	-29.998	0.151	-0.085
-253.092	-200.000	0.057	0.782
-252.078	-22.208	0.475	-0.285
-251.063	-26.656	-0.932	-0.540
-250.049	442.620	0.248	-0.538
-249.034	800.000	0.165	-0.454
-248.019	61.254	0.214	0.210
-247.005	800.000	0.102	0.390
-245.990	118.571	-0.315	0.384
-244.976	-200.000	-0.023	1.416
-243.961	23.655	0.445	-0.363
-242.946	229.631	-0.637	-1.029
-241.932	-166.895	-0.119	0.005
-240.917	61.656	-0.030	-0.029
-239.903	159.246	-0.168	0.231
-238.888	35.338	-0.865	-0.751
-237.873	268.679	-0.462	0.801
-236.859	440.772	0.210	0.454
-235.844	229.786	0.427	-0.691
-234.830	-111.538	-0.387	0.078
-233.815	388.989	0.263	-0.538
-232.800	66.288	0.346	0.348
-231.786	-82.636	0.404	0.129
-230.771	37.880	0.314	0.276
-229.757	-75.453	0.864	0.304
-228.742	-200.000	0.044	0.723
-227.727	-200.000	-0.096	0.886
-226.713	-57.117	0.359	-0.156
-225.698	-117.746	-0.951	-0.169
-224.684	800.000	0.101	0.310
-223.669	800.000	0.154	-0.652
-222.655	-3.516	-0.391	-0.269
-221.640	-91.342	-0.727	0.205
-220.625	26.726	0.473	0.391
-219.611	175.170	-0.241	0.346
-218.596	-200.000	0.025	-0.182
-217.582	-200.000	0.156	-0.973
-216.567	30.573	-0.209	0.177
-215.552	577.434	0.269	-0.649
-214.538	-74.236	0.363	0.130
-213.523	41.922	0.600	-0.538
-212.509	111.234	0.187	0.223
-211.494	68.900	-0.252	-0.256
-210.479	51.845	0.068	-0.064
-209.465	-85.765	-0.044	0.013
-208.450	316.644	0.117	-0.219
-207.436	84.963	0.074	-0.081
-206.421	-55.643	0.148	-0.065
-205.406	438.408	0.174	0.375
-204.392	101.959	0.761	0.878
-203.377	-140.594	0.079	-0.008
-202.363	-200.000	-0.058	-0.493
-201.348	289.178	-0.350	0.626
-200.333	-69.828	0.110	-0.041
-199.319	-163.491	0.561	0.026
-198.304	-123.465	-0.813	0.128
-197.290	45.957	-0.384	-0.352
-196.275	-153.623	-0.270	0.018
-195.260	800.000	0.266	-0.890
-194.246	800.000	-0.082	-0.260
-193.231	10.238	-0.720	-0.541
-192.217	800.000	0.301	-0.835
-191.202	-140.034	0.287	-0.030
-190.187	-102.055	-0.650	-0.155
-189.173	-73.032	0.769	0.279
-188.158	28.973	-0.089	0.074
-187.144	153.624	-0.596	0.806
-186.129	-200.000	0.079	-0.664
-185.114	-200.000	0.111	-0.704
-184.100	281.589	-0.135	-0.238
-183.085	-200.000	-0.039	-0.199
-182.071	-200.000	-0.117	0.647
-181.056	-200.000	-0.033	-0.270
-180.042	-4.489	0.853	-0.582
-179.027	-67.987	0.508	-0.196
-178.012	1.171	0.667	0.473
-176.998	252.535	-0.519	-0.874
-175.983	176.952	-0.477	-0.685
-174.969	-200.000	-0.012	0.181
-173.954	117.890	0.289	0.352
-172.939	78.786	0.410	0.433
-171.925	800.000	-0.087	-0.276
-170.910	-200.000	-0.077	-0.406
-169.896	-200.000	-0.011	-0.223
-168.881	7.636	0.835	0.617
-167.866	-200.000	-0.130	0.604
-166.852	186.080	0.072	-0.106
-165.837	392.495	-0.337	-0.691
-164.823	43.583	0.161	0.145
-163.808	-200.000	-0.066	0.286
-162.793	800.000	-0.198	0.556
-161.779	-15.151	0.708	0.447
-160.764	-76.082	-0.278	0.097
-159.750	-54.809	-0.653	-0.291
-158.735	-35.726	-0.143	-0.076
-157.720	-92.609	0.443	-0.123
-156.706	270.189	-0.293	-0.507
-155.691	-137.273	0.597	-0.067
-154.677	-150.984	0.343	0.026
-153.662	21.167	-0.417	-0.334
-152.647	-162.298	-0.096	0.005
-151.633	234.196	-0.479	0.779
-150.618	54.470	0.608	0.577
-149.604	800.000	-0.457	1.328
-148.589	204.730	-0.099	-0.151
-147.574	-115.993	-0.189	-0.035
-146.560	-48.704	0.756	0.358
-145.545	115.606	0.580	-0.700
-144.531	597.244	0.374	0.914
-143.516	800.000	0.147	-0.448
-142.502	800.000	-0.132	0.483
-141.487	7.806	-0.700	0.517
-140.472	310.684	0.082	0.152
-139.458	-114.908	-0.892	0.168
-138.443	-47.293	-0.071	0.034
-137.429	-124.083	0.845	-0.131
-136.414	-45.999	-0.345	0.167
-135.399	-128.290	0.230	0.032
-134.385	20.022	-0.676	-0.537
-133.370	-200.000	0.121	0.899
-132.356	326.906	-0.140	0.264
-131.341	-59.161	1.223	-0.520
-130.326	20.694	0.171	-0.136
-129.312	497.787	-0.217	0.492
-128.297	-116.921	0.361	0.065
-127.283	654.297	-0.240	0.607
-126.268	-200.000	0.039	0.850
-125.253	-200.000	0.011	0.678
-124.239	-200.000	0.037	0.598
-123.224	452.155	0.349	-0.760
-122.210	-144.719	-0.544	-0.049
-121.195	-5.043	0.098	0.066
-120.180	800.000	0.140	-0.592
-119.166	187.753	0.044	-0.065
-118.151	321.121	-0.444	0.831
-117.137	-200.000	-0.013	0.186
-116.122	553.449	-0.381	0.903
-115.107	131.620	0.247	0.313
-114.093	66.702	0.650	-0.651
-113.078	-19.523	-0.319	-0.195
-112.064	169.023	-0.443	0.622
-111.049	-70.867	0.921	0.342
-110.034	-76.005	0.205	-0.071
-109.020	-10.044	-0.759	0.497
-108.005	-200.000	-0.074	-1.231
-106.991	368.412	-0.162	0.323
-105.976	-200.000	-0.003	0.128
-104.962	-200.000	0.087	0.475
-103.947	-200.000	0.011	-0.252
-102.932	401.940	-0.242	0.501
-101.918	183.440	-0.283	-0.411
-100.903	-50.912	-0.529	-0.245
-99.889	800.000	0.145	-0.498
-98.874	-71.700	0.629	0.231
-97.859	-200.000	0.007	-0.166
-96.845	-132.046	0.761	-0.097
-95.830	154.689	-0.482	-0.651
-94.816	67.017	0.697	0.699
-93.801	-138.621	-0.380	0.041
-92.786	45.406	0.157	0.143
-91.772	-200.000	-0.696	-0.003
-90.757	800.000	0.177	0.642
-89.743	159.459	-0.332	0.455
-88.728	-84.982	0.490	0.151
-87.713	-129.562	-0.255	0.035
-86.699	-22.018	0.466	-0.278
-85.684	-81.664	0.558	0.180
-84.670	61.653	-0.416	-0.407
-83.655	-200.000	-0.109	0.552
-82.640	-200.000	0.014	-0.234
-81.626	-42.680	0.168	-0.084
-80.611	-200.000	-0.065	-0.331
-79.597	49.955	-0.456	-0.423
-78.582	-200.000	0.039	0.408
-77.567	340.555	0.338	-0.649
-76.553	-66.358	-0.633	-0.247
-75.538	46.770	-0.345	-0.315
-74.524	-200.000	0.086	0.595
-73.509	800.000	0.064	-0.217
-72.494	800.000	-0.089	0.326
-71.480	-200.000	-0.058	0.308
-70.465	-161.245	-0.412	0.021
-69.451	-200.000	0.068	-0.373
-68.436	17.683	0.123	-0.096
-67.422	382.554	0.416	0.841
-66.407	-147.052	0.448	-0.038
-65.392	-77.040	-1.486	-0.510
-64.378	800.000	-0.143	-0.491
-63.363	118.277	-0.360	0.436
-62.349	-104.765	0.345	0.078
-61.334	31.759	-0.630	-0.533
-60.319	-200.000	0.080	0.616
-59.305	800.000	0.454	-1.256
-58.290	-200.000	0.154	2.159
-57.276	-200.000	-0.071	0.662
-56.261	-200.000	95.080	578.254
-55.246	666.604	1361.468	3456.629
-54.232	201.908	2535.068	3839.709
-53.217	112.920	2251.352	2680.230
-52.203	42.404	1882.215	1681.281
-51.188	36.130	1674.308	1448.555
-50.173	33.687	1629.524	1391.864
-49.159	52.028	1679.279	1571.290
-48.144	52.922	1695.611	1593.153
-47.130	35.836	1655.838	1430.163
-46.115	33.047	1641.593	1397.213
-45.100	32.925	1636.033	1391.527
-44.086	33.015	1632.734	1389.330
-43.071	32.843	1630.048	1385.728
-42.057	32.917	1627.978	1384.452
-41.042	32.910	1627.279	1383.754
-40.027	32.777	1625.282	1381.031
-39.013	32.737	1623.200	1378.912
-37.998	32.689	1621.809	1377.322
-36.984	32.664	1621.196	1376.570
-35.969	33.101	1619.164	1377.974
-34.954	33.019	1617.996	1376.328
-33.940	32.960	1615.973	1374.124
-32.925	32.934	1613.441	1371.726
-31.911	32.949	1612.269	1370.785
-30.896	32.726	1610.888	1367.937
-29.881	32.752	1608.858	1366.350
-28.867	32.811	1607.048	1365.186
-27.852	32.887	1605.257	1364.160
-26.838	32.763	1604.367	1362.452
-25.823	33.017	1602.265	1362.448
-24.809	33.061	1600.783	1361.449
-23.794	32.866	1600.209	1359.502
-22.779	33.015	1598.573	1359.127
-21.765	33.027	1597.113	1357.919
-20.750	32.712	1595.575	1354.300
-19.736	32.846	1593.628	1353.548
-18.721	32.952	1592.539	1353.333
-17.706	33.075	1590.832	1352.711
-16.692	33.149	1588.805	1351.459
-15.677	33.109	1587.590	1350.088
-14.663	32.800	1587.281	1347.560
-13.648	33.049	1584.012	1346.512
-12.633	32.944	1583.449	1345.229
-11.619	33.130	1581.745	1345.050
-10.604	32.994	1580.098	1342.631
-9.590	33.043	1579.153	1342.120
-8.575	33.151	1577.003	1341.009
-7.560	32.997	1577.505	1340.293
-6.546	33.105	1575.414	1339.226
-5.531	33.089	1574.396	1338.193
-4.517	33.134	1572.661	1336.986
-3.502	32.909	1571.798	1334.608
-2.487	33.240	1569.417	1334.871
-1.473	32.623	1558.595	1321.285
-0.458	29.766	1539.338	1285.091
0.556	27.176	1539.642	1251.819
1.571	24.711	1561.319	1252.097
2.586	24.212	1575.206	1259.592
3.600	21.438	1522.525	1198.383
4.615	12.704	1412.295	1055.758
5.629	4.539	1348.676	957.946
6.644	3.150	1339.518	942.852
7.659	3.212	1338.134	942.172
8.673	2.904	1337.566	939.803
9.688	2.776	1336.250	938.013
10.702	2.687	1333.400	935.388
11.717	6.381	1339.604	962.265
12.731	15.776	1356.782	1032.427
13.746	23.445	1369.049	1088.970
14.761	24.929	1370.530	1099.165
15.775	25.061	1370.019	1099.468
16.790	24.976	1370.182	1098.981
17.804	25.269	1368.689	1099.479
18.819	25.041	1369.413	1098.571
19.834	25.188	1367.704	1098.004
20.848	25.297	1367.111	1098.095
21.863	25.554	1365.645	1098.392
22.877	25.473	1365.508	1097.687
23.892	25.380	1364.188	1095.960
24.907	25.430	1364.103	1096.099
25.921	25.361	1363.280	1094.922
26.936	25.233	1363.222	1093.999
27.950	25.437	1360.305	1092.803
28.965	25.347	1360.512	1092.324
29.980	25.490	1359.598	1092.364
30.994	25.527	1356.679	1090.143
32.009	25.641	1357.035	1091.026
33.023	25.452	1356.300	1089.196
34.038	25.504	1354.303	1087.808
35.053	25.461	1354.511	1087.621
36.067	25.569	1352.611	1086.649
37.082	25.522	1352.730	1086.367
38.096	25.495	1351.249	1084.919
39.111	25.301	1350.705	1083.213
40.126	25.596	1349.143	1083.641
41.140	25.471	1349.297	1082.915
42.155	25.496	1349.071	1082.789
43.169	25.591	1348.816	1083.060
44.184	25.328	1348.752	1081.332
45.199	25.374	1348.997	1081.711
46.213	25.488	1347.537	1081.129
47.228	25.557	1346.624	1080.717
48.242	25.659	1345.309	1080.179
49.257	25.503	1344.458	1078.462
50.271	25.516	1343.298	1077.516
51.286	25.449	1341.796	1075.811
52.301	25.578	1340.214	1075.218
53.315	25.645	1339.451	1074.916
54.330	25.578	1339.069	1074.112
55.344	25.493	1338.248	1072.849
56.359	25.678	1336.782	1072.680
57.374	25.553	1335.316	1070.667
58.388	25.431	1336.071	1070.451
59.403	25.564	1335.013	1070.302
60.417	25.555	1334.054	1069.384
61.432	25.437	1334.435	1068.893
62.447	25.447	1333.745	1068.301
63.461	25.259	1332.239	1065.884
64.476	25.430	1332.318	1066.869
65.490	25.548	1329.808	1065.468
66.505	25.522	1328.251	1063.968
67.520	25.402	1327.371	1062.464
68.534	25.528	1325.456	1061.580
69.549	25.649	1325.129	1061.936
70.563	25.551	1324.685	1060.908
71.578	25.922	1321.924	1060.789
72.593	25.431	1323.229	1058.848
73.607	25.501	1322.080	1058.250
74.622	25.609	1321.170	1058.063
75.636	25.509	1321.517	1057.656
76.651	25.528	1320.023	1056.477
77.666	25.481	1319.766	1055.904
78.680	25.723	1319.479	1057.004
79.695	25.306	1318.787	1053.907
80.709	25.527	1317.331	1053.945
81.724	25.490	1316.897	1053.285
82.739	25.924	1315.258	1054.423
83.753	25.579	1315.109	1052.193
84.768	25.505	1315.136	1051.685
85.782	25.964	1312.812	1052.414
86.797	25.570	1312.095	1049.449
87.812	25.650	1310.974	1048.929
88.826	25.655	1309.716	1047.859
89.841	25.589	1308.823	1046.668
90.855	25.555	1308.019	1045.735
91.870	25.577	1307.292	1045.186
92.884	25.531	1306.451	1044.151
93.899	25.867	1304.954	1044.814
94.914	25.835	1304.470	1044.146
95.928	25.492	1305.369	1042.786
96.943	25.626	1303.316	1041.830
97.957	25.866	1303.000	1042.873
98.972	25.809	1301.691	1041.407
99.987	25.486	1302.380	1039.996
101.001	25.725	1299.903	1039.307
102.016	25.873	1298.537	1038.977
103.030	25.650	1298.526	1037.586
104.045	25.824	1297.499	1037.676
105.060	25.588	1296.127	1035.131
106.074	25.594	1295.084	1034.242
107.089	25.727	1294.204	1034.209
108.103	25.658	1293.192	1032.915
109.118	25.721	1291.820	1032.087
110.133	25.693	1291.161	1031.308
111.147	25.772	1289.211	1030.115
112.162	25.985	1288.330	1030.537
113.176	25.990	1287.986	1030.200
114.191	25.709	1287.102	1027.795
115.206	25.796	1285.112	1026.611
116.220	25.557	1284.022	1024.290
117.235	25.628	1283.332	1024.050
118.249	25.381	1282.865	1022.184
119.264	25.556	1283.048	1023.234
120.279	25.800	1281.289	1023.126
121.293	25.714	1280.515	1021.929
122.308	25.814	1279.245	1021.391
123.322	25.487	1279.093	1019.324
124.337	25.703	1278.007	1019.596
125.352	25.477	1277.666	1017.954
126.366	25.729	1276.825	1018.616
127.381	25.642	1275.380	1016.886
128.395	25.578	1275.088	1016.200
129.410	25.754	1273.843	1016.111
130.424	25.551	1273.788	1014.834
131.439	25.502	1271.871	1012.937
132.454	25.735	1271.639	1013.978
133.468	25.733	1270.976	1013.346
134.483	25.703	1271.312	1013.358
135.497	25.822	1269.870	1012.786
136.512	25.705	1268.999	1011.346
137.527	25.788	1267.025	1010.149
138.541	25.526	1266.999	1008.571
139.556	25.562	1265.425	1007.430
140.570	25.644	1264.860	1007.348
141.585	25.883	1262.196	1006.470
142.600	25.793	1261.954	1005.685
143.614	25.618	1262.041	1004.692
144.629	25.798	1260.463	1004.348
145.643	25.694	1258.963	1002.487
146.658	25.474	1258.802	1001.043
147.673	25.331	1258.344	999.795
148.687	25.509	1256.569	999.287
149.702	25.517	1255.532	998.415
150.716	25.616	1252.675	996.607
151.731	25.234	1252.783	994.485
152.746	25.480	1251.564	994.795
153.760	25.824	1250.362	995.652
154.775	25.727	1249.668	994.475
155.789	25.955	1248.393	994.631
156.804	25.956	1247.163	993.567
157.819	25.711	1246.578	991.661
158.833	25.501	1246.308	990.204
159.848	25.769	1245.472	990.926
160.862	25.697	1246.050	990.904
161.877	25.576	1244.515	988.929
162.892	25.938	1243.647	990.142
163.906	25.745	1243.964	989.247
164.921	25.621	1242.214	987.087
165.935	25.685	1240.434	985.933
166.950	25.837	1239.765	986.148
167.964	25.913	1240.172	986.801
168.979	25.826	1239.922	986.036
169.994	25.737	1238.641	984.448
171.008	25.783	1237.201	983.465
172.023	25.862	1237.549	984.087
173.037	25.932	1236.891	983.856
174.052	25.915	1235.302	982.413
175.067	25.968	1234.319	981.832
176.081	25.516	1233.891	978.946
177.096	25.765	1233.211	979.673
178.110	25.855	1231.429	978.660
179.125	25.748	1231.790	978.282
180.140	25.947	1230.500	978.249
181.154	25.902	1228.296	976.165
182.169	25.668	1227.272	974.000
183.183	25.807	1225.811	973.506
184.198	25.852	1225.707	973.582
185.213	26.092	1225.014	974.239
186.227	25.787	1223.507	971.311
187.242	25.994	1223.066	971.992
188.256	25.846	1221.834	970.130
189.271	25.844	1221.993	970.159
190.286	25.830	1221.670	969.739
191.300	25.554	1219.989	966.834
192.315	25.724	1220.230	967.856
193.329	25.836	1219.006	967.401
194.344	25.949	1218.956	967.884
195.359	25.760	1218.044	966.061
196.373	25.588	1217.102	964.302
197.388	25.153	1216.925	961.744
198.402	25.599	1216.638	963.825
199.417	25.932	1215.704	964.781
200.432	26.149	1215.186	965.444
201.446	25.872	1215.996	964.519
202.461	25.860	1213.752	962.592
203.475	25.714	1213.639	961.637
204.490	25.331	1212.586	958.673
205.504	25.628	1211.776	959.532
206.519	25.671	1209.070	957.535
207.534	25.510	1208.518	956.155
208.548	25.419	1208.646	955.690
209.563	25.585	1207.477	955.561
210.577	25.254	1206.289	952.782
211.592	25.459	1205.014	952.775
212.607	25.913	1205.593	955.558
213.621	26.101	1203.823	955.066
214.636	25.596	1203.350	951.930
215.650	25.551	1202.811	951.184
216.665	25.696	1201.779	951.049
217.680	25.818	1201.391	951.300
218.694	25.778	1200.263	950.113
219.709	25.865	1199.163	949.620
220.723	25.479	1199.713	947.936
221.738	25.619	1198.356	947.515
222.753	25.626	1196.785	946.226
223.767	25.401	1197.079	945.191
224.782	25.802	1195.704	946.128
225.796	25.947	1196.344	947.314
226.811	25.749	1195.168	945.259
227.826	25.804	1195.130	945.436
228.840	25.710	1194.074	944.020
229.855	25.578	1193.070	942.451
230.869	25.829	1192.675	943.371
231.884	25.619	1190.926	940.809
232.899	25.570	1189.723	939.516
233.913	25.755	1189.815	940.474
234.928	25.746	1189.221	939.871
235.942	25.774	1188.740	939.559
236.957	25.370	1188.550	937.213
237.972	25.520	1187.273	936.910
238.986	25.407	1186.826	935.882
240.001	25.753	1185.707	936.721
241.015	25.537	1185.289	935.180
242.030	25.881	1184.036	935.898
243.045	25.780	1183.843	935.138
244.059	25.719	1183.503	934.469
245.074	25.757	1183.294	934.417
246.088	26.104	1182.265	935.322
247.103	25.937	1181.181	933.517
248.117	25.983	1180.248	932.936
249.132	26.011	1180.081	932.867
250.147	26.245	1178.268	932.560
251.161	26.063	1178.328	931.583
252.176	25.987	1178.020	930.867
253.190	26.309	1177.035	931.664
254.205	26.050	1177.975	930.989
255.220	26.341	1176.668	931.375
256.234	26.183	1176.364	930.239
257.249	26.177	1174.723	928.829
258.263	26.120	1174.213	928.046
259.278	26.191	1173.706	927.928
260.293	26.353	1173.247	928.318
261.307	26.464	1171.965	927.791
262.322	26.246	1172.482	927.000
263.336	26.069	1171.145	924.952
264.351	26.051	1171.651	925.177
265.366	26.397	1170.356	925.846
266.380	26.278	1169.503	924.478
267.395	26.044	1169.597	923.274
268.409	26.139	1167.875	922.320
269.424	26.058	1167.300	921.371
270.439	26.617	1165.876	923.014
271.453	26.132	1165.827	920.422
272.468	25.879	1165.830	919.054
273.482	26.055	1165.186	919.359
274.497	25.939	1164.563	918.198
275.512	25.993	1162.739	916.954
276.526	26.108	1162.115	916.963
277.541	25.867	1162.806	916.204
278.555	25.990	1162.616	916.598
279.570	26.293	1160.538	916.412
280.585	26.289	1160.034	915.916
281.599	26.225	1159.220	914.867
282.614	26.075	1157.928	913.006
283.628	26.123	1157.125	912.538
284.643	26.287	1156.168	912.530
285.657	26.120	1155.483	911.062
286.672	26.273	1154.847	911.253
287.687	26.287	1153.079	909.848
288.701	26.535	1151.761	909.973
289.716	26.335	1151.382	908.591
290.730	26.195	1151.572	907.954
291.745	26.402	1150.310	907.922
292.760	26.168	1150.059	906.465
293.774	26.058	1151.195	906.728
294.789	26.252	1150.233	906.867
295.803	26.475	1148.323	906.394
296.818	26.372	1147.698	905.308
297.833	26.171	1147.757	904.268
298.847	26.468	1145.957	904.251
299.862	26.058	1146.046	902.195
300.876	25.895	1145.989	901.253
301.891	26.122	1144.588	901.206
302.906	26.338	1144.206	901.901
303.920	26.427	1144.114	902.194
304.935	26.199	1143.510	900.501
305.949	26.162	1142.744	899.634
306.964	26.563	1141.277	900.396
307.979	26.360	1140.860	898.979
308.993	26.172	1140.260	897.488
310.008	26.361	1139.702	897.911
311.022	26.579	1139.143	898.472
312.037	26.679	1137.920	897.926
313.052	26.024	1138.069	894.713
314.066	26.510	1135.934	895.364
315.081	26.125	1135.569	893.093
316.095	25.892	1133.841	890.501
317.110	26.358	1133.807	892.700
318.125	26.371	1132.316	891.512
319.139	26.092	1132.225	889.983
320.154	26.178	1131.538	889.786
321.168	25.899	1131.859	888.585
322.183	26.052	1131.569	889.033
323.197	25.875	1131.507	888.033
324.212	26.051	1131.057	888.470
325.227	26.083	1130.537	888.139
326.241	26.283	1129.472	888.208
327.256	26.134	1128.350	886.515
328.270	26.044	1126.391	884.455
329.285	26.280	1125.328	884.698
330.300	26.451	1124.307	884.657
331.314	26.209	1124.182	883.295
332.329	26.227	1124.224	883.336
333.343	26.343	1123.089	882.933
334.358	26.410	1122.338	882.590
335.373	26.502	1121.753	882.502
336.387	26.591	1121.153	882.388
337.402	26.438	1121.563	881.886
338.416	26.505	1120.314	881.152
339.431	26.496	1119.249	880.193
340.446	26.458	1118.863	879.626
341.460	26.626	1118.574	880.136
342.475	26.638	1117.642	879.383
343.489	26.971	1115.373	879.134
344.504	26.696	1115.491	877.819
345.519	26.799	1114.357	877.348
346.533	26.817	1114.094	877.151
347.548	26.759	1113.254	876.128
348.562	26.760	1112.580	875.525
349.577	26.451	1112.272	873.714
350.592	26.253	1111.809	872.319
351.606	26.471	1109.987	871.860
352.621	26.246	1109.945	870.669
353.635	26.240	1109.976	870.585
354.650	26.436	1108.081	869.966
355.665	26.327	1107.680	869.049
356.679	26.495	1106.112	868.548
357.694	26.570	1106.508	869.145
358.708	26.694	1105.683	869.010
359.723	26.730	1105.416	868.896
360.738	26.607	1104.194	867.272
361.752	26.631	1103.593	866.839
362.767	26.760	1103.039	866.945
363.781	26.485	1102.308	864.980
364.796	26.673	1101.767	865.375
365.810	26.804	1101.434	865.663
366.825	26.450	1102.605	864.816
367.840	26.774	1101.401	865.337
368.854	26.987	1100.985	865.954
369.869	27.099	1098.763	864.662
370.883	26.655	1099.003	862.660
371.898	26.858	1097.596	862.445
372.913	26.651	1097.410	861.235
373.927	26.646	1097.274	861.029
374.942	26.510	1097.280	860.313
375.956	26.801	1096.839	861.271
376.971	26.669	1095.803	859.758
377.986	26.789	1095.228	859.801
379.000	27.016	1093.097	859.122
380.015	26.514	1094.391	857.689
381.029	26.986	1093.447	859.105
382.044	27.054	1093.080	859.061
383.059	26.858	1091.441	856.771
384.073	26.908	1090.818	856.442
385.088	26.840	1090.638	855.905
386.102	26.734	1089.276	854.264
387.117	26.653	1088.579	853.257
388.132	26.547	1087.747	852.031
389.146	26.510	1086.649	850.921
390.161	26.714	1085.921	851.234
391.175	26.372	1085.574	849.280
392.190	26.608	1084.888	849.777
393.205	26.840	1084.683	850.628
394.219	27.120	1082.854	850.431
395.234	26.783	1081.916	848.044
396.248	26.245	1082.188	845.665
397.263	26.430	1080.423	845.072
398.278	26.588	1079.728	845.193
399.292	26.723	1079.498	845.568
400.307	26.736	1080.479	846.322
401.321	26.766	1078.852	845.112
402.336	26.401	1076.565	841.547
403.350	26.234	1076.261	840.458
404.365	26.634	1077.117	842.916
405.380	26.901	1075.219	842.595
406.394	26.846	1074.707	841.866
407.409	27.005	1074.027	841.996
408.423	26.939	1073.314	841.057
409.438	26.686	1073.219	839.736
410.453	26.975	1071.868	839.939
411.467	26.893	1071.068	838.860
412.482	26.741	1070.577	837.699
413.496	26.890	1070.102	837.939
414.511	26.963	1069.590	837.804
415.526	26.996	1069.320	837.668
416.540	27.255	1068.337	838.019
417.555	27.125	1067.728	836.870
418.569	26.960	1067.792	836.083
419.584	26.838	1067.754	835.418
420.599	26.944	1067.153	835.361
421.613	152.982	1404.817	1793.210
422.628	140.794	1454.013	1793.291
