DTS Sentinel unit serial number:	SN413079Multiplexer serial number:	ORYXHardware model number:	OX4-SRSoftware version number:	ORYX F/W v4.00 Oryx Data Collector v3.7.2.0data status	okinstallation	princeton_trtdifferential loss correction	single-endedforward channel	channel 2reverse channel	N/Adate	2019/09/17time	06:55:35forward acquisition time	60.00reverse acquisition time	0.00gamma	496.2192k internal	0.2333k external	0.2333temperature offset calibration	0.9978default loss term (dB/km)	0.3790temperature slope calibration	1.0000multiplexer offset coefficient	1.0000multiplexer slope coefficient	1.0000fibre end	0.00T internal ref (°C)	27.62T ext. ref 1 (°C)	0.12T ext. ref 2 (°C)	21.02length (m)	temperature (°C)	Stokes	anti-Stokes-747.200	-200.000	0.001	-0.157
-746.185	-94.016	-0.030	0.008
-745.171	-101.679	0.117	-0.029
-744.156	90.692	-0.418	0.471
-743.142	-92.216	-0.250	0.071
-742.127	47.734	-0.123	-0.115
-741.112	100.583	0.124	-0.144
-740.098	-200.000	-0.042	-0.252
-739.083	-101.301	-0.246	0.060
-738.069	387.668	-0.107	0.223
-737.054	-145.644	-0.176	-0.016
-736.039	18.422	-0.179	-0.144
-735.025	-94.812	0.053	0.014
-734.010	-50.975	-0.375	0.177
-732.996	-79.411	-0.374	-0.127
-731.981	-80.082	0.270	-0.091
-730.966	46.974	-0.202	-0.189
-729.952	800.000	0.008	0.029
-728.937	178.985	-0.089	0.131
-727.923	-54.763	-0.216	0.098
-726.908	195.736	0.152	-0.233
-725.894	471.520	-0.142	-0.322
-724.879	800.000	-0.087	0.287
-723.864	800.000	-0.020	0.081
-722.850	660.900	-0.106	-0.274
-721.835	-200.000	-0.061	0.287
-720.821	-57.843	-0.294	0.129
-719.806	-59.270	0.088	-0.038
-718.791	29.892	-0.071	0.060
-717.777	-50.711	-0.273	0.129
-716.762	-0.374	-0.210	-0.150
-715.748	-177.452	0.154	0.004
-714.733	-43.031	0.202	-0.103
-713.718	-127.692	-0.145	0.021
-712.704	6.091	0.474	-0.353
-711.689	499.664	-0.109	0.252
-710.675	-60.962	0.279	0.118
-709.660	-170.413	-0.323	0.011
-708.645	74.311	-0.186	-0.197
-707.631	-200.000	-0.017	-0.297
-706.616	61.337	-0.150	-0.150
-705.602	-96.436	0.218	-0.058
-704.587	-26.326	0.111	-0.065
-703.572	-200.000	-0.030	0.215
-702.558	101.818	-0.124	0.146
-701.543	547.402	-0.141	-0.340
-700.529	-200.000	0.033	0.200
-699.514	-116.526	0.501	0.093
-698.499	-200.000	-0.019	0.153
-697.485	-14.796	0.100	0.064
-696.470	-151.610	-0.061	-0.005
-695.456	-1.355	0.132	-0.093
-694.441	-200.000	0.017	-0.188
-693.426	-117.390	0.248	-0.045
-692.412	-200.000	0.029	-0.385
-691.397	530.882	-0.123	-0.291
-690.383	800.000	0.100	-0.335
-689.368	-86.050	0.196	0.061
-688.354	713.307	-0.173	-0.459
-687.339	630.695	-0.090	-0.228
-686.324	-93.769	-0.148	0.041
-685.310	17.164	-0.508	-0.404
-684.295	-157.440	0.166	-0.010
-683.281	286.483	-0.052	-0.094
-682.266	800.000	0.047	0.150
-681.251	-9.313	0.306	0.205
-680.237	-60.097	-0.162	-0.069
-679.222	158.990	0.131	-0.183
-678.208	430.253	-0.125	-0.272
-677.193	653.143	-0.115	0.296
-676.178	139.816	0.103	-0.136
-675.164	218.270	-0.139	0.222
-674.149	-141.299	-0.377	0.038
-673.135	-44.103	-0.228	-0.115
-672.120	-200.000	0.064	0.453
-671.105	-128.781	-0.200	0.028
-670.091	-148.750	-0.132	0.011
-669.076	800.000	-0.078	-0.230
-668.062	446.422	-0.072	-0.158
-667.047	-200.000	0.026	-0.196
-666.032	-200.000	-0.037	-0.216
-665.018	-200.000	0.027	0.220
-664.003	-200.000	-0.009	-0.043
-662.989	-166.615	0.176	-0.007
-661.974	-39.969	0.215	-0.113
-660.959	-200.000	0.021	-0.135
-659.945	376.708	-0.054	-0.111
-658.930	-10.219	0.092	-0.061
-657.916	800.000	-0.064	-0.199
-656.901	79.683	0.167	0.179
-655.886	193.916	-0.111	0.169
-654.872	-200.000	0.010	0.094
-653.857	-200.000	0.081	-0.361
-652.843	603.708	-0.075	-0.186
-651.828	-200.000	0.020	0.174
-650.814	193.844	-0.035	0.053
-649.799	139.926	-0.086	0.113
-648.784	4.356	-0.203	0.149
-647.770	800.000	-0.084	0.321
-646.755	800.000	0.029	-0.121
-645.741	-175.196	-0.052	-0.001
-644.726	800.000	0.139	0.422
-643.711	113.828	0.181	0.220
-642.697	23.056	-0.218	-0.179
-641.682	45.572	0.013	-0.012
-640.668	413.182	-0.054	0.114
-639.653	-48.804	-0.164	0.079
-638.638	81.106	-0.168	-0.182
-637.624	-10.105	-0.122	0.081
-636.609	-200.000	-0.025	-0.182
-635.595	-88.784	-0.066	-0.020
-634.580	-33.378	-0.044	0.024
-633.565	258.908	0.021	-0.037
-632.551	-31.335	-0.394	-0.222
-631.536	-188.733	-0.209	0.003
-630.522	238.728	-0.033	-0.055
-629.507	244.883	0.082	0.138
-628.492	-16.352	0.269	-0.171
-627.478	-12.848	-0.165	-0.107
-626.463	-200.000	-0.046	-0.213
-625.449	623.943	-0.026	-0.067
-624.434	-119.705	-0.254	-0.044
-623.419	-91.328	-0.175	-0.050
-622.405	-145.354	0.167	0.015
-621.390	-16.927	-0.146	0.092
-620.376	-48.155	-0.466	0.225
-619.361	-200.000	0.001	-0.117
-618.346	-120.011	0.200	0.034
-617.332	271.922	0.029	0.051
-616.317	-182.656	0.176	0.003
-615.303	609.630	-0.089	0.222
-614.288	-75.161	0.310	-0.111
-613.273	469.328	0.103	-0.232
-612.259	-149.368	-0.132	0.010
-611.244	-90.962	-0.055	-0.016
-610.230	408.769	-0.067	0.142
-609.215	800.000	-0.032	-0.102
-608.201	-145.717	0.042	-0.004
-607.186	800.000	0.063	0.228
-606.171	-200.000	0.001	0.013
-605.157	165.935	-0.100	-0.141
-604.142	45.735	-0.364	-0.337
-603.128	800.000	-0.072	0.228
-602.113	-105.108	0.290	0.066
-601.098	800.000	-0.028	-0.111
-600.084	-1.647	-0.196	0.138
-599.069	-115.069	-0.245	-0.047
-598.055	-123.471	-0.290	0.046
-597.040	18.105	0.218	-0.174
-596.025	-41.192	-0.174	0.090
-595.011	24.320	-0.137	0.113
-593.996	112.228	0.098	0.119
-592.982	230.689	0.101	-0.165
-591.967	214.990	0.098	-0.156
-590.952	367.351	-0.264	-0.533
-589.938	57.755	0.013	0.012
-588.923	32.630	-0.188	0.163
-587.909	315.636	-0.030	-0.057
-586.894	131.244	0.169	-0.217
-585.879	-44.768	-0.257	0.128
-584.865	103.105	-0.026	0.031
-583.850	577.308	-0.109	-0.266
-582.836	124.450	-0.037	0.047
-581.821	-200.000	0.038	-0.197
-580.806	-200.000	-0.025	0.201
-579.792	-86.833	0.171	-0.052
-578.777	39.319	0.108	0.096
-577.763	-48.646	0.064	0.031
-576.748	-126.399	0.338	-0.050
-575.733	-0.510	-0.192	-0.136
-574.719	800.000	-0.008	0.035
-573.704	-200.000	0.099	-0.516
-572.690	-158.592	0.298	-0.017
-571.675	-16.393	0.253	0.160
-570.661	4.292	-0.308	-0.225
-569.646	-59.474	-0.149	0.064
-568.631	146.066	-0.278	0.373
-567.617	350.231	0.020	0.038
-566.602	-81.104	0.145	0.048
-565.588	696.376	-0.114	0.299
-564.573	-94.542	-0.295	-0.080
-563.558	671.726	0.106	0.274
-562.544	535.416	0.101	-0.239
-561.529	-123.360	0.056	0.009
-560.515	-57.654	0.029	0.013
-559.500	-95.065	0.117	-0.032
-558.485	171.952	0.118	-0.170
-557.471	-24.189	-0.112	-0.066
-556.456	122.946	0.071	0.089
-555.442	-200.000	-0.007	-0.292
-554.427	-63.870	-0.330	-0.135
-553.412	169.254	0.224	0.319
-552.398	272.946	0.172	-0.304
-551.383	800.000	0.051	-0.148
-550.369	-8.258	0.159	-0.107
-549.354	135.763	-0.210	-0.273
-548.339	57.278	0.083	0.081
-547.325	800.000	0.040	-0.116
-546.310	3.985	0.049	0.035
-545.296	-200.000	0.030	-0.142
-544.281	33.068	-0.096	0.083
-543.266	-150.881	-0.037	0.003
-542.252	800.000	-0.080	0.221
-541.237	64.474	0.147	0.148
-540.223	800.000	0.084	0.262
-539.208	-40.788	-0.385	-0.199
-538.193	-100.050	0.114	-0.028
-537.179	-94.215	-0.120	-0.033
-536.164	-62.672	0.134	0.056
-535.150	-200.000	0.050	0.331
-534.135	413.845	0.051	0.109
-533.121	41.040	0.070	0.063
-532.106	-196.695	0.231	0.002
-531.091	-200.000	0.026	0.166
-530.077	49.721	-0.030	-0.028
-529.062	0.501	-0.400	-0.285
-528.048	-90.508	0.258	-0.074
-527.033	-200.000	0.028	0.134
-526.018	-30.485	0.390	0.220
-525.004	-200.000	-0.033	0.204
-523.989	-55.432	0.128	0.057
-522.975	60.581	-0.185	0.183
-521.960	-10.853	0.165	-0.109
-520.945	90.706	0.130	0.145
-519.931	119.435	0.212	0.262
-518.916	800.000	0.103	-0.357
-517.902	222.991	-0.231	-0.371
-516.887	328.673	-0.065	0.124
-515.872	688.368	-0.119	0.310
-514.858	-200.000	0.020	0.299
-513.843	-152.960	-0.088	-0.006
-512.829	121.735	-0.147	-0.182
-511.814	269.659	-0.157	-0.275
-510.799	-200.000	0.008	-0.075
-509.785	800.000	0.096	-0.269
-508.770	7.436	-0.177	-0.131
-507.756	800.000	-0.032	-0.106
-506.741	-67.698	-0.123	0.048
-505.726	-200.000	0.029	-0.510
-504.712	-200.000	0.026	-0.119
-503.697	-200.000	-0.002	-0.027
-502.683	-200.000	0.515	0.002
-501.668	33.216	0.164	0.142
-500.653	226.987	-0.034	0.055
-499.639	735.844	0.107	-0.286
-498.624	233.632	0.117	0.192
-497.610	215.012	0.175	0.276
-496.595	100.576	-0.248	0.286
-495.581	259.282	0.136	-0.233
-494.566	5.053	0.162	0.118
-493.551	23.881	0.128	0.105
-492.537	-200.000	-0.067	0.377
-491.522	-200.000	0.036	0.228
-490.508	308.093	0.145	0.269
-489.493	-166.226	0.213	0.009
-488.478	250.118	-0.125	-0.211
-487.464	47.615	0.136	0.127
-486.449	800.000	0.056	0.203
-485.435	-119.420	0.406	-0.070
-484.420	391.470	-0.070	0.145
-483.405	-21.711	-0.138	0.084
-482.391	54.825	-0.100	0.096
-481.376	-52.336	-0.023	0.011
-480.362	-125.003	0.439	-0.067
-479.347	-200.000	-0.030	-0.335
-478.332	24.235	0.221	0.182
-477.318	-200.000	0.001	-0.007
-476.303	269.402	0.069	-0.120
-475.289	113.602	0.197	0.238
-474.274	-117.952	0.211	0.038
-473.259	-20.035	-0.062	0.038
-472.245	297.843	0.139	0.254
-471.230	194.127	-0.195	-0.294
-470.216	90.318	-0.180	0.201
-469.201	639.999	-0.165	0.418
-468.186	-134.863	0.153	-0.018
-467.172	800.000	0.035	-0.139
-466.157	26.615	0.027	0.023
-465.143	-35.360	0.223	-0.121
-464.128	84.037	-0.190	0.206
-463.113	64.200	0.105	-0.106
-462.099	46.607	-0.266	0.245
-461.084	-149.282	0.285	-0.023
-460.070	727.598	0.072	0.192
-459.055	-117.640	-0.249	0.045
-458.040	400.865	0.138	0.289
-457.026	24.402	0.010	0.008
-456.011	-112.200	0.104	0.021
-454.997	800.000	-0.042	-0.149
-453.982	374.966	0.258	-0.523
-452.968	-59.787	-0.070	-0.030
-451.953	-9.313	0.167	-0.111
-450.938	-117.755	-0.080	0.014
-449.924	38.275	-0.057	0.050
-448.909	-105.676	-0.161	0.036
-447.895	800.000	-0.022	-0.081
-446.880	-200.000	0.056	0.267
-445.865	-89.004	0.305	-0.090
-444.851	120.398	-0.092	-0.113
-443.836	147.839	0.188	0.252
-442.822	153.926	-0.049	-0.066
-441.807	77.841	-0.111	-0.117
-440.792	-200.000	-0.049	0.288
-439.778	-86.757	-0.158	0.048
-438.763	-84.157	-0.054	0.017
-437.749	-172.531	0.182	0.006
-436.734	597.326	-0.077	-0.190
-435.719	-169.527	0.244	0.009
-434.705	91.713	-0.180	0.202
-433.690	-107.027	0.203	-0.045
-432.676	242.263	0.084	0.140
-431.661	82.274	-0.152	0.164
-430.646	197.039	0.129	0.195
-429.632	800.000	0.049	-0.187
-428.617	-89.699	-0.154	0.045
-427.603	800.000	-0.036	0.111
-426.588	-178.294	0.212	0.005
-425.573	-200.000	-0.069	-0.479
-424.559	-200.000	-0.013	-0.239
-423.544	59.256	0.141	-0.137
-422.530	235.386	0.119	-0.195
-421.515	-95.670	0.111	0.030
-420.500	-43.682	0.055	-0.028
-419.486	800.000	0.033	-0.115
-418.471	800.000	0.086	-0.318
-417.457	-15.875	0.349	0.221
-416.442	171.246	-0.037	-0.053
-415.428	-20.024	-0.311	-0.190
-414.413	-98.729	-0.096	0.024
-413.398	-179.973	0.264	0.006
-412.384	-129.960	0.357	0.049
-411.369	-200.000	0.060	0.317
-410.355	-200.000	0.028	0.365
-409.340	291.229	0.094	0.169
-408.325	13.131	0.156	-0.120
-407.311	-163.152	-0.067	0.003
-406.296	-70.569	-0.151	0.057
-405.282	364.938	-0.088	-0.175
-404.267	-147.771	0.169	-0.014
-403.252	-51.145	0.396	-0.184
-402.238	-172.011	-0.214	0.007
-401.223	77.460	0.307	-0.324
-400.209	586.205	0.041	-0.099
-399.194	-120.607	-0.345	-0.058
-398.179	-6.160	0.099	0.067
-397.165	-55.936	0.305	-0.135
-396.150	83.895	-0.105	0.113
-395.136	-200.000	0.009	0.324
-394.121	-145.981	-0.070	-0.006
-393.106	138.642	0.042	0.054
-392.092	-167.345	0.352	-0.014
-391.077	-200.000	-0.078	0.394
-390.063	339.501	0.181	0.349
-389.048	-184.440	0.233	-0.004
-388.033	800.000	-0.026	-0.096
-387.019	-200.000	-0.021	0.110
-386.004	800.000	0.030	0.127
-384.990	17.976	0.287	0.227
-383.975	800.000	-0.062	0.212
-382.960	-46.211	0.071	-0.035
-381.946	386.104	0.162	0.330
-380.931	-7.786	-0.017	0.011
-379.917	800.000	-0.071	-0.217
-378.902	482.720	0.118	-0.266
-377.888	-200.000	-0.036	-0.304
-376.873	-143.690	0.327	-0.031
-375.858	21.198	-0.214	0.172
-374.844	-200.000	-0.018	0.300
-373.829	-127.741	0.101	0.014
-372.815	651.525	0.108	-0.274
-371.800	-200.000	-0.021	-0.161
-370.785	-76.687	-0.129	0.045
-369.771	63.878	-0.339	0.338
-368.756	800.000	0.088	-0.370
-367.742	-60.657	-0.243	0.102
-366.727	-197.752	-0.182	-0.001
-365.712	-147.933	-0.219	-0.018
-364.698	-200.000	-0.017	0.122
-363.683	37.802	-0.384	0.338
-362.669	-30.130	-0.334	-0.188
-361.654	5.010	0.253	-0.184
-360.639	-164.733	0.231	-0.010
-359.625	10.805	-0.084	0.064
-358.610	-117.508	0.241	-0.043
-357.596	800.000	-0.093	-0.295
-356.581	-92.845	0.256	0.071
-355.566	-36.283	-0.147	-0.079
-354.552	-35.575	-0.244	0.131
-353.537	-117.380	-0.248	0.045
-352.523	-200.000	-0.007	-0.222
-351.508	-200.000	-0.001	0.172
-350.493	-200.000	0.128	-0.001
-349.479	270.275	-0.111	0.193
-348.464	-97.456	0.165	-0.042
-347.450	-200.000	-0.112	0.573
-346.435	264.887	0.120	0.207
-345.420	159.233	-0.290	-0.399
-344.406	74.052	-0.173	0.180
-343.391	143.137	0.264	-0.348
-342.377	288.209	-0.103	-0.184
-341.362	682.167	0.030	-0.077
-340.348	229.161	-0.100	-0.161
-339.333	-107.262	0.153	0.033
-338.318	-200.000	-0.017	0.169
-337.304	125.906	0.106	0.133
-336.289	-59.111	0.203	0.087
-335.275	800.000	-0.089	0.280
-334.260	800.000	-0.045	-0.175
-333.245	11.861	0.057	-0.043
-332.231	32.525	-0.083	0.071
-331.216	133.007	-0.093	0.118
-330.202	-4.984	-0.215	-0.146
-329.187	-160.663	0.057	0.003
-328.172	318.894	-0.080	0.149
-327.158	255.924	-0.011	0.018
-326.143	-200.000	-0.018	0.156
-325.129	-96.387	0.256	0.067
-324.114	800.000	0.029	-0.100
-323.099	63.208	-0.060	0.059
-322.085	283.404	0.056	-0.099
-321.070	13.603	0.070	-0.054
-320.056	743.220	-0.096	0.255
-319.041	59.246	0.106	0.103
-318.026	800.000	-0.010	0.043
-317.012	-200.000	-0.008	0.146
-315.997	800.000	0.017	0.055
-314.983	97.832	0.115	-0.131
-313.968	-133.300	0.296	0.037
-312.953	800.000	0.058	-0.194
-311.939	111.839	-0.197	0.235
-310.924	-120.526	-0.145	-0.024
-309.910	-166.941	-0.144	-0.006
-308.895	800.000	-0.067	0.266
-307.880	30.611	0.247	0.208
-306.866	190.037	-0.064	-0.095
-305.851	-11.350	0.157	-0.102
-304.837	13.154	-0.322	-0.246
-303.822	-104.150	-0.176	-0.040
-302.807	-161.599	-0.204	-0.010
-301.793	-200.000	-0.021	-0.181
-300.778	45.446	0.082	-0.074
-299.764	127.841	-0.281	-0.353
-298.749	134.178	0.098	-0.126
-297.735	195.676	-0.134	0.201
-296.720	183.556	-0.100	0.146
-295.705	800.000	0.018	-0.053
-294.691	800.000	-0.011	0.040
-293.676	-59.757	-0.131	0.056
-292.662	800.000	0.076	0.273
-291.647	-84.478	0.096	0.030
-290.632	64.742	-0.094	-0.093
-289.618	800.000	-0.073	-0.243
-288.603	-29.460	0.241	-0.136
-287.589	-33.128	-0.128	0.070
-286.574	-200.000	-0.003	-0.101
-285.559	-108.731	-0.250	-0.053
-284.545	-96.131	0.195	-0.051
-283.530	280.470	0.121	0.214
-282.516	81.220	-0.172	0.184
-281.501	-62.763	-0.230	-0.094
-280.486	800.000	0.082	0.266
-279.472	-40.939	0.354	-0.181
-278.457	-66.221	-0.254	-0.100
-277.443	800.000	-0.056	-0.231
-276.428	800.000	-0.071	0.301
-275.413	61.789	-0.088	-0.087
-274.399	85.526	-0.205	0.222
-273.384	-46.332	0.181	0.088
-272.370	-43.252	-0.547	-0.273
-271.355	-190.151	-0.171	0.002
-270.340	800.000	-0.044	-0.131
-269.326	-132.708	-0.077	0.010
-268.311	70.825	-0.139	0.142
-267.297	-43.101	0.140	-0.070
-266.282	-22.238	-0.111	0.067
-265.267	609.158	-0.100	0.246
-264.253	-52.635	0.109	0.050
-263.238	-44.623	-0.426	-0.210
-262.224	194.661	0.166	0.249
-261.209	-100.322	-0.321	0.079
-260.195	-200.000	0.002	-0.141
-259.180	-42.078	0.275	0.139
-258.165	31.528	0.138	-0.117
-257.151	513.999	0.070	-0.160
-256.136	43.156	-0.123	0.111
-255.122	87.822	-0.030	-0.033
-254.107	-200.000	-0.012	0.123
-253.092	-175.605	-0.342	0.009
-252.078	87.067	-0.209	0.228
-251.063	-114.375	-0.042	0.008
-250.049	21.196	-0.037	-0.030
-249.034	4.169	-0.329	-0.237
-248.019	378.266	0.092	-0.185
-247.005	-200.000	0.057	0.276
-245.990	-153.363	0.089	0.006
-244.976	669.916	0.102	-0.260
-243.961	-200.000	0.013	0.128
-242.946	142.750	0.131	-0.172
-241.932	800.000	0.127	0.358
-240.917	-110.483	0.323	0.066
-239.903	-63.102	-0.120	-0.049
-238.888	69.040	0.170	-0.172
-237.873	800.000	0.047	-0.169
-236.859	-54.849	-0.081	-0.036
-235.844	563.542	-0.133	0.316
-234.830	800.000	-0.051	-0.201
-233.815	304.807	0.062	-0.114
-232.800	-200.000	0.013	-0.096
-231.786	-48.145	0.259	0.123
-230.771	-57.133	-0.257	-0.112
-229.757	-200.000	0.017	-0.117
-228.742	-200.000	-0.027	0.153
-227.727	-67.245	-0.190	-0.074
-226.713	-200.000	-0.073	0.322
-225.698	-8.080	-0.306	-0.203
-224.684	800.000	0.087	-0.284
-223.669	10.970	0.165	0.124
-222.655	-18.346	-0.147	-0.091
-221.640	-74.536	0.409	-0.145
-220.625	800.000	0.088	0.300
-219.611	33.597	0.168	-0.144
-218.596	-29.538	-0.154	-0.087
-217.582	-85.316	0.324	-0.100
-216.567	11.110	0.201	-0.151
-215.552	-200.000	-0.000	0.237
-214.538	65.962	0.232	0.232
-213.523	288.346	-0.059	-0.105
-212.509	158.343	-0.171	-0.233
-211.494	-97.510	-0.209	-0.053
-210.479	800.000	-0.059	-0.226
-209.465	-200.000	0.012	0.424
-208.450	-41.602	0.219	0.111
-207.436	23.430	-0.193	-0.156
-206.421	-91.428	0.055	0.015
-205.406	800.000	0.106	-0.342
-204.392	-4.420	0.145	0.099
-203.377	622.204	-0.162	-0.401
-202.363	356.393	0.097	-0.191
-201.348	-150.354	0.247	0.019
-200.333	800.000	0.039	0.165
-199.319	432.419	-0.095	-0.202
-198.304	-62.704	0.215	-0.088
-197.290	174.172	0.219	-0.312
-196.275	497.066	0.058	0.130
-195.260	107.250	0.152	0.178
-194.246	-120.440	-0.160	-0.027
-193.231	-83.266	-0.057	0.018
-192.217	-67.762	-0.163	-0.063
-191.202	22.487	0.192	-0.154
-190.187	9.296	-0.392	-0.292
-189.173	-83.115	-0.141	-0.045
-188.158	-77.164	0.051	-0.017
-187.144	241.550	-0.207	-0.340
-186.129	163.965	-0.125	0.173
-185.114	-200.000	0.073	0.352
-184.100	259.248	0.040	-0.068
-183.085	160.372	0.134	-0.184
-182.071	36.638	0.152	-0.132
-181.056	800.000	-0.039	-0.142
-180.042	296.555	-0.103	0.185
-179.027	-200.000	-0.030	-0.202
-178.012	-142.414	-0.300	0.029
-176.998	44.018	-0.231	0.208
-175.983	800.000	-0.088	0.371
-174.969	-78.719	-0.319	0.107
-173.954	-200.000	0.031	-0.342
-172.939	-200.000	-0.087	-0.416
-171.925	-109.160	-0.249	-0.052
-170.910	105.435	0.058	-0.068
-169.896	584.193	0.197	0.475
-168.881	-61.203	-0.096	0.040
-167.866	800.000	-0.107	-0.324
-166.852	-200.000	0.078	-0.401
-165.837	-128.410	-0.139	-0.019
-164.823	115.436	0.276	-0.332
-163.808	75.816	0.050	0.052
-162.793	238.290	-0.148	0.241
-161.779	-200.000	-0.042	-0.233
-160.764	119.556	0.229	0.279
-159.750	-200.000	0.046	-0.380
-158.735	374.257	0.044	0.088
-157.720	329.785	-0.038	0.072
-156.706	-18.691	0.220	-0.135
-155.691	800.000	-0.049	0.203
-154.677	-87.170	0.171	-0.051
-153.662	-20.041	-0.175	0.106
-152.647	-114.507	-0.097	0.018
-151.633	86.957	0.140	0.152
-150.618	137.223	0.027	0.034
-149.604	-200.000	0.185	0.001
-148.589	-135.997	-0.274	0.032
-147.574	448.629	0.076	0.165
-146.560	623.439	-0.093	-0.230
-145.545	6.974	0.062	0.045
-144.531	238.331	-0.017	-0.028
-143.516	-79.961	0.229	-0.075
-142.502	-80.236	0.105	0.035
-141.487	150.615	0.139	-0.185
-140.472	165.302	-0.185	0.257
-139.458	-200.000	0.034	-0.329
-138.443	-95.577	-0.122	-0.032
-137.429	800.000	0.165	-0.599
-136.414	29.721	0.088	-0.074
-135.399	68.851	0.144	-0.146
-134.385	800.000	0.132	-0.464
-133.370	147.605	-0.044	-0.058
-132.356	39.933	0.094	0.082
-131.341	-200.000	-0.081	-0.373
-130.326	800.000	-0.065	-0.218
-129.312	13.763	-0.093	0.071
-128.297	-66.134	-0.120	-0.047
-127.283	135.272	-0.132	0.168
-126.268	65.549	0.041	0.040
-125.253	-91.987	-0.121	0.034
-124.239	-71.835	0.121	0.044
-123.224	-200.000	-0.002	-0.070
-122.210	-13.005	-0.358	0.229
-121.195	-28.660	0.292	0.165
-120.180	503.457	0.134	-0.303
-119.166	-200.000	0.007	-0.039
-118.151	-63.686	0.202	-0.081
-117.137	-200.000	-0.034	-0.182
-116.122	-200.000	0.011	-0.122
-115.107	323.066	-0.083	-0.155
-114.093	-200.000	0.075	-0.343
-113.078	-168.331	-0.111	-0.004
-112.064	418.704	-0.053	-0.111
-111.049	255.506	0.261	-0.439
-110.034	-200.000	-0.004	0.142
-109.020	66.467	-0.143	-0.142
-108.005	177.707	0.109	0.156
-106.991	7.067	0.066	0.048
-105.976	-55.971	0.272	-0.119
-104.962	34.521	0.150	-0.128
-103.947	257.417	-0.181	0.305
-102.932	45.429	0.042	-0.038
-101.918	-43.438	0.170	-0.084
-100.903	751.051	-0.049	-0.131
-99.889	-87.046	0.104	0.031
-98.874	-200.000	0.022	-0.118
-97.859	40.638	0.105	-0.093
-96.845	270.874	-0.067	-0.115
-95.830	-67.153	-0.207	-0.080
-94.816	-200.000	0.021	-0.162
-93.801	192.340	0.111	0.165
-92.786	153.543	0.042	0.057
-91.772	-15.235	0.244	0.153
-90.757	-69.758	-0.133	0.050
-89.743	-114.975	0.217	-0.040
-88.728	563.994	0.005	0.012
-87.713	-20.944	-0.084	-0.050
-86.699	1.502	-0.026	-0.018
-85.684	-77.688	0.312	0.106
-84.670	543.201	-0.077	0.179
-83.655	233.369	-0.026	-0.041
-82.640	800.000	0.060	0.238
-81.626	85.742	0.182	-0.196
-80.611	164.122	-0.061	-0.084
-79.597	-116.150	0.108	0.020
-78.582	617.852	-0.065	0.161
-77.567	127.840	-0.105	-0.130
-76.553	-200.000	0.033	0.590
-75.538	800.000	0.028	0.088
-74.524	-200.000	0.022	0.132
-73.509	538.724	-0.004	-0.009
-72.494	-200.000	-0.026	0.213
-71.480	322.302	0.054	0.100
-70.465	-200.000	-0.002	-0.071
-69.451	-46.625	0.098	-0.047
-68.436	-60.545	-0.198	-0.082
-67.422	565.004	0.022	-0.051
-66.407	256.732	-0.071	0.119
-65.392	-106.593	0.469	-0.102
-64.378	-94.936	0.518	0.137
-63.363	-8.324	0.136	-0.089
-62.349	800.000	0.093	0.324
-61.334	113.291	-0.899	-1.068
-60.319	470.060	0.236	0.519
-59.305	-200.000	-0.179	-1.429
-58.290	453.337	0.566	1.226
-57.276	471.962	0.636	1.400
-56.261	-200.000	113.843	650.836
-55.246	476.596	1504.535	3328.276
-54.232	147.362	2674.831	3524.124
-53.217	97.362	2284.678	2566.871
-52.203	36.693	1897.168	1639.753
-51.188	30.681	1689.144	1414.356
-50.173	28.295	1647.199	1361.469
-49.159	49.893	1701.431	1569.839
-48.144	48.781	1716.012	1574.855
-47.130	30.409	1674.695	1399.984
-46.115	27.714	1660.094	1367.552
-45.100	27.533	1655.383	1362.263
-44.086	27.548	1653.108	1360.452
-43.071	27.526	1650.100	1357.760
-42.057	27.454	1647.659	1355.158
-41.042	27.508	1645.751	1353.939
-40.027	27.466	1644.096	1352.210
-39.013	27.561	1641.679	1350.875
-37.998	27.528	1640.307	1349.446
-36.984	27.545	1639.008	1348.447
-35.969	27.595	1637.825	1347.790
-34.954	27.689	1635.923	1346.870
-33.940	27.606	1634.159	1344.751
-32.925	27.664	1632.475	1343.741
-31.911	27.623	1630.752	1341.968
-30.896	27.613	1628.980	1340.384
-29.881	27.652	1627.203	1339.148
-28.867	27.596	1625.735	1337.480
-27.852	27.653	1624.075	1336.476
-26.838	27.480	1623.192	1334.431
-25.823	27.570	1622.126	1334.161
-24.809	27.649	1620.187	1333.092
-23.794	27.577	1619.138	1331.647
-22.779	27.671	1617.495	1330.931
-21.765	27.633	1615.826	1329.230
-20.750	27.607	1614.400	1327.810
-19.736	27.610	1613.283	1326.860
-18.721	27.717	1611.548	1326.159
-17.706	27.687	1609.936	1324.567
-16.692	27.664	1608.475	1323.142
-15.677	27.621	1607.257	1321.780
-14.663	27.650	1605.876	1320.798
-13.648	27.694	1604.845	1320.215
-12.633	27.656	1602.743	1318.159
-11.619	27.618	1601.306	1316.653
-10.604	27.639	1599.933	1315.620
-9.590	27.644	1598.492	1314.421
-8.575	27.679	1597.243	1313.595
-7.560	27.700	1595.981	1312.652
-6.546	27.728	1595.291	1312.236
-5.531	27.677	1594.642	1311.280
-4.517	27.634	1593.107	1309.661
-3.502	27.656	1592.030	1308.884
-2.487	27.713	1590.233	1307.764
-1.473	27.352	1577.896	1294.998
-0.458	24.052	1558.183	1255.533
0.556	18.595	1558.491	1221.683
1.571	15.872	1581.522	1219.921
2.586	15.456	1593.955	1226.368
3.600	14.314	1540.630	1177.162
4.615	7.997	1433.645	1053.654
5.629	1.647	1371.544	967.641
6.644	0.276	1363.736	953.377
7.659	0.037	1363.056	951.305
8.673	0.081	1361.658	950.525
9.688	0.086	1359.681	949.091
10.702	-0.069	1356.501	945.815
11.717	3.082	1361.778	969.290
12.731	10.756	1373.794	1026.407
13.746	16.428	1381.010	1067.638
14.761	17.123	1381.176	1072.061
15.775	16.256	1379.160	1064.935
16.790	15.168	1376.462	1055.900
17.804	14.445	1373.985	1049.357
18.819	14.090	1372.527	1045.920
19.834	13.916	1371.228	1043.745
20.848	13.617	1370.314	1041.075
21.863	13.300	1368.920	1037.939
22.877	13.107	1367.590	1035.626
23.892	13.149	1366.903	1035.279
24.907	13.175	1365.541	1034.318
25.921	13.183	1364.697	1033.636
26.936	13.269	1364.111	1033.636
27.950	13.337	1362.879	1033.040
28.965	13.341	1362.209	1032.467
29.980	13.373	1361.230	1031.833
30.994	13.407	1360.350	1031.287
32.009	13.349	1359.603	1030.266
33.023	13.502	1358.098	1029.985
34.038	13.441	1356.945	1028.638
35.053	13.417	1355.832	1027.558
36.067	13.371	1354.791	1026.394
37.082	13.412	1353.797	1025.801
38.096	13.439	1352.834	1025.149
39.111	13.398	1352.154	1024.289
40.126	13.331	1351.403	1023.218
41.140	13.210	1350.592	1021.763
42.155	13.125	1350.259	1020.893
43.169	13.161	1349.972	1020.809
44.184	13.248	1349.466	1020.873
45.199	13.142	1349.096	1019.850
46.213	13.204	1348.410	1019.624
47.228	13.216	1347.517	1018.930
48.242	13.270	1346.652	1018.522
49.257	13.298	1345.032	1017.377
50.271	13.334	1343.321	1016.213
51.286	13.363	1341.910	1015.236
52.301	13.330	1340.977	1014.234
53.315	13.276	1339.520	1012.712
54.330	13.267	1338.462	1011.772
55.344	13.145	1337.589	1010.277
56.359	13.163	1336.419	1009.409
57.374	13.134	1335.903	1008.754
58.388	13.117	1334.913	1007.816
59.403	13.187	1333.917	1007.402
60.417	13.123	1333.842	1006.864
61.432	13.036	1332.602	1005.310
62.447	13.140	1331.951	1005.362
63.461	13.059	1330.823	1003.930
64.476	13.108	1329.739	1003.323
65.490	13.131	1328.494	1002.431
66.505	13.115	1326.985	1001.110
67.520	13.203	1325.654	1000.545
68.534	13.225	1324.358	999.614
69.549	13.126	1323.643	998.385
70.563	13.137	1322.099	997.203
71.578	13.150	1321.310	996.598
72.593	13.046	1320.282	995.107
73.607	13.077	1319.598	994.689
74.622	12.991	1318.891	993.547
75.636	12.972	1318.171	992.803
76.651	13.011	1317.365	992.346
77.666	12.994	1316.925	991.826
78.680	13.024	1316.395	991.517
79.695	13.069	1315.062	990.695
80.709	13.052	1314.359	989.974
81.724	13.196	1313.928	990.424
82.739	13.176	1312.701	989.295
83.753	13.241	1311.946	989.025
84.768	13.185	1311.286	988.108
85.782	13.247	1310.210	987.579
86.797	13.229	1308.741	986.277
87.812	13.245	1307.205	985.130
88.826	13.166	1306.511	984.045
89.841	13.309	1305.469	984.026
90.855	13.273	1304.433	982.945
91.870	13.348	1303.526	982.622
92.884	13.317	1302.045	981.231
93.899	13.443	1301.803	981.710
94.914	13.574	1300.652	981.532
95.928	13.464	1300.353	980.566
96.943	13.372	1299.460	979.261
97.957	13.410	1298.901	978.981
98.972	13.355	1297.690	977.655
99.987	13.359	1296.658	976.814
101.001	13.267	1295.849	975.575
102.016	13.320	1294.545	974.819
103.030	13.394	1293.881	974.673
104.045	13.375	1292.700	973.583
105.060	13.347	1291.395	972.352
106.074	13.201	1290.553	970.773
107.089	13.236	1289.100	969.799
108.103	13.154	1287.913	968.340
109.118	13.063	1286.703	966.808
110.133	13.227	1285.441	966.734
111.147	13.200	1283.957	965.376
112.162	13.259	1282.750	964.728
113.176	13.202	1281.867	963.645
114.191	13.266	1280.979	963.266
115.206	13.304	1279.705	962.441
116.220	13.210	1279.186	961.422
117.235	13.222	1277.629	960.233
118.249	13.271	1276.604	959.667
119.264	13.227	1275.325	958.362
120.279	13.206	1274.687	957.680
121.293	13.216	1273.309	956.619
122.308	13.181	1272.501	955.722
123.322	13.188	1271.337	954.802
124.337	13.123	1270.603	953.792
125.352	13.189	1269.550	953.299
126.366	13.258	1268.290	952.667
127.381	13.216	1267.223	951.540
128.395	13.189	1266.664	950.880
129.410	13.195	1265.531	949.977
130.424	13.244	1264.505	949.409
131.439	13.267	1263.471	948.675
132.454	13.175	1262.691	947.479
133.468	13.231	1262.232	947.370
134.483	13.310	1260.923	946.757
135.497	13.240	1260.050	945.620
136.512	13.272	1258.381	944.468
137.527	13.210	1257.333	943.244
138.541	13.257	1255.922	942.367
139.556	13.297	1254.507	941.449
140.570	13.346	1253.756	941.083
141.585	13.314	1252.543	939.906
142.600	13.491	1250.825	939.539
143.614	13.511	1250.393	939.245
144.629	13.405	1249.592	937.960
145.643	13.508	1248.154	937.382
146.658	13.440	1247.107	936.127
147.673	13.429	1245.667	934.903
148.687	13.405	1244.194	933.575
149.702	13.456	1242.950	932.850
150.716	13.337	1241.937	931.335
151.731	13.417	1240.185	930.391
152.746	13.448	1239.604	930.045
153.760	13.391	1238.022	928.454
154.775	13.462	1237.325	928.251
155.789	13.552	1236.137	927.782
156.804	13.382	1235.629	926.365
157.819	13.532	1234.178	926.033
158.833	13.547	1233.601	925.602
159.848	13.632	1231.982	924.782
160.862	13.570	1231.310	923.847
161.877	13.530	1230.159	922.683
162.892	13.476	1228.795	921.274
163.906	13.430	1228.468	920.693
164.921	13.498	1227.554	920.303
165.935	13.568	1226.026	919.464
166.950	13.499	1225.952	918.947
167.964	13.641	1224.888	918.852
168.979	13.593	1224.449	918.177
169.994	13.456	1224.144	917.110
171.008	13.647	1222.388	916.767
172.023	13.564	1222.054	915.977
173.037	13.793	1221.068	916.425
174.052	13.686	1220.411	915.256
175.067	13.584	1219.139	913.663
176.081	13.545	1218.309	912.741
177.096	13.530	1217.570	912.025
178.110	13.631	1215.875	911.232
179.125	13.698	1215.074	910.918
180.140	13.825	1213.422	910.296
181.154	13.572	1212.702	908.290
182.169	13.705	1211.363	907.934
183.183	13.814	1210.201	907.576
184.198	13.834	1208.777	906.542
185.213	13.738	1207.911	905.285
186.227	13.818	1206.817	904.824
187.242	13.940	1206.030	904.817
188.256	13.926	1205.040	903.915
189.271	13.909	1203.925	902.907
190.286	13.875	1202.362	901.471
191.300	13.668	1202.115	900.086
192.315	13.535	1201.834	899.071
193.329	13.639	1200.806	898.786
194.344	13.691	1200.455	898.728
195.359	13.644	1200.027	898.070
196.373	13.836	1199.304	898.487
197.388	13.838	1198.626	897.913
198.402	13.956	1197.878	897.911
199.417	14.043	1197.432	897.970
200.432	14.084	1196.637	897.513
201.446	14.024	1195.612	896.344
202.461	13.988	1194.854	895.499
203.475	14.149	1193.495	895.269
204.490	14.124	1192.158	894.054
205.504	14.046	1191.028	892.707
206.519	14.040	1190.136	891.926
207.534	14.043	1188.814	890.875
208.548	14.005	1188.039	890.011
209.563	14.143	1187.229	890.061
210.577	14.140	1186.542	889.452
211.592	14.291	1184.939	888.980
212.607	14.243	1184.650	888.426
213.621	14.240	1183.452	887.433
214.636	14.201	1182.900	886.736
215.650	14.202	1182.164	886.111
216.665	14.174	1181.354	885.277
217.680	14.238	1180.172	884.653
218.694	14.297	1179.227	884.178
219.709	14.406	1178.444	884.090
220.723	14.257	1178.114	882.974
221.738	14.328	1177.055	882.478
222.753	14.290	1176.407	881.716
223.767	14.383	1175.800	881.676
224.782	14.458	1175.120	881.480
225.796	14.471	1174.536	881.035
226.811	14.463	1173.775	880.345
227.826	14.356	1173.284	879.334
228.840	14.422	1172.245	878.825
229.855	14.411	1171.590	878.198
230.869	14.326	1171.064	877.277
231.884	14.429	1169.882	876.858
232.899	14.394	1169.228	876.107
233.913	14.366	1168.407	875.263
234.928	14.328	1167.584	874.370
235.942	14.307	1166.863	873.642
236.957	14.349	1166.358	873.411
237.972	14.278	1165.843	872.573
238.986	14.411	1164.674	872.318
240.001	14.472	1163.878	871.966
241.015	14.339	1163.465	870.882
242.030	14.448	1162.567	870.704
243.045	14.391	1162.045	869.939
244.059	14.436	1160.880	869.224
245.074	14.498	1159.927	868.755
246.088	14.567	1159.104	868.421
247.103	14.624	1158.480	868.171
248.117	14.595	1157.761	867.407
249.132	14.719	1157.209	867.559
250.147	14.736	1156.301	866.890
251.161	14.702	1155.578	866.095
252.176	14.725	1155.056	865.747
253.190	14.851	1154.390	865.824
254.205	14.889	1154.091	865.718
255.220	14.946	1152.932	865.070
256.234	14.809	1152.776	864.168
257.249	14.859	1151.863	863.665
258.263	14.885	1151.137	863.176
259.278	14.944	1150.659	863.049
260.293	15.012	1150.095	862.900
261.307	14.951	1149.349	861.948
262.322	15.040	1148.987	862.056
263.336	15.066	1147.587	861.066
264.351	15.018	1147.291	860.523
265.366	15.105	1146.723	860.464
266.380	15.044	1145.982	859.518
267.395	15.024	1145.065	858.654
268.409	15.073	1144.194	858.176
269.424	15.056	1143.636	857.594
270.439	14.983	1143.444	856.999
271.453	15.032	1142.394	856.390
272.468	15.033	1141.363	855.547
273.482	15.075	1140.819	855.276
274.497	15.136	1139.938	854.852
275.512	15.033	1139.827	854.166
276.526	15.141	1138.582	853.711
277.541	15.103	1137.826	852.873
278.555	15.132	1137.323	852.566
279.570	15.261	1136.089	852.225
280.585	15.275	1135.488	851.766
281.599	15.357	1134.328	851.238
282.614	15.237	1133.857	850.201
283.628	15.264	1132.716	849.409
284.643	15.213	1131.768	848.365
285.657	15.290	1130.718	847.892
286.672	15.200	1130.083	846.883
287.687	15.261	1129.135	846.408
288.701	15.235	1128.712	845.883
289.716	15.258	1127.524	845.034
290.730	15.435	1126.811	845.318
291.745	15.302	1126.406	844.271
292.760	15.493	1125.728	844.645
293.774	15.446	1125.180	843.925
294.789	15.455	1124.832	843.636
295.803	15.422	1124.127	842.865
296.818	15.498	1123.026	842.346
297.833	15.452	1122.482	841.636
298.847	15.569	1121.262	841.229
299.862	15.511	1120.751	840.482
300.876	15.472	1120.164	839.773
301.891	15.637	1119.359	839.920
302.906	15.573	1118.913	839.188
303.920	15.582	1118.261	838.673
304.935	15.481	1118.283	838.108
305.949	15.626	1117.188	837.940
306.964	15.591	1116.220	836.963
307.979	15.638	1115.652	836.699
308.993	15.659	1114.959	836.210
310.008	15.703	1113.944	835.594
311.022	15.741	1112.959	834.968
312.037	15.745	1111.827	834.063
313.052	15.664	1111.327	833.212
314.066	15.730	1110.253	832.660
315.081	15.726	1109.255	831.818
316.095	15.535	1109.497	830.985
317.110	15.725	1108.404	831.028
318.125	15.662	1107.693	830.110
319.139	15.790	1106.566	829.824
320.154	15.606	1106.241	828.600
321.168	15.727	1105.617	828.659
322.183	15.760	1105.127	828.376
323.197	15.667	1104.228	827.172
324.212	15.814	1103.278	827.113
325.227	15.801	1102.886	826.683
326.241	15.701	1102.495	825.822
327.256	15.801	1101.517	825.507
328.270	15.720	1100.997	824.648
329.285	15.748	1100.081	824.028
330.300	15.819	1098.777	823.325
331.314	15.770	1098.160	822.550
332.329	15.824	1096.996	821.867
333.343	15.861	1095.998	821.230
334.358	15.931	1095.358	821.020
335.373	15.949	1094.984	820.750
336.387	15.928	1094.408	820.147
337.402	15.970	1093.115	819.309
338.416	15.937	1092.727	818.784
339.431	16.037	1091.983	818.638
340.446	16.061	1091.507	818.327
341.460	16.072	1090.803	817.781
342.475	16.053	1089.749	816.825
343.489	16.153	1089.023	816.694
344.504	16.289	1087.594	816.210
345.519	16.168	1087.372	815.387
346.533	16.169	1086.561	814.709
347.548	16.279	1085.271	814.202
348.562	16.282	1084.567	813.612
349.577	16.327	1083.837	813.212
350.592	16.150	1083.168	811.786
351.606	16.179	1082.747	811.539
352.621	16.119	1082.019	810.633
353.635	16.138	1081.381	810.173
354.650	16.229	1080.473	809.858
355.665	16.204	1079.970	809.288
356.679	16.216	1079.634	809.023
357.694	16.231	1078.786	808.390
358.708	16.264	1078.016	807.896
359.723	16.332	1077.440	807.718
360.738	16.412	1076.751	807.514
361.752	16.391	1076.298	807.003
362.767	16.298	1075.735	806.066
363.781	16.326	1075.327	805.821
364.796	16.452	1074.594	805.801
365.810	16.371	1074.187	805.037
366.825	16.531	1073.099	804.915
367.840	16.504	1073.219	804.807
368.854	16.495	1072.362	804.046
369.869	16.594	1071.440	803.758
370.883	16.673	1070.155	803.098
371.898	16.608	1069.584	802.288
372.913	16.547	1069.067	801.539
373.927	16.585	1068.718	801.389
374.942	16.752	1067.905	801.500
375.956	16.681	1067.774	800.992
376.971	16.619	1067.289	800.265
377.986	16.730	1066.546	800.162
379.000	16.787	1066.021	799.967
380.015	16.745	1065.677	799.441
381.029	16.810	1064.800	799.017
382.044	16.907	1064.037	798.829
383.059	16.835	1063.140	797.746
384.073	16.865	1062.321	797.204
385.088	16.913	1061.435	796.695
386.102	16.948	1060.451	796.048
387.117	16.867	1059.636	794.984
388.132	16.824	1058.730	794.033
389.146	16.848	1058.148	793.642
390.161	16.807	1057.438	792.845
391.175	16.852	1056.823	792.524
392.190	16.867	1055.882	791.821
393.205	16.924	1055.038	791.380
394.219	17.018	1054.329	791.218
395.234	16.939	1053.618	790.247
396.248	16.875	1052.614	789.128
397.263	16.932	1051.811	788.721
398.278	16.855	1051.273	787.888
399.292	16.803	1050.669	787.125
400.307	16.832	1049.766	786.512
401.321	16.920	1049.261	786.474
402.336	16.844	1048.903	785.783
403.350	16.906	1048.145	785.431
404.365	16.901	1047.316	784.717
405.380	16.958	1046.521	784.315
406.394	16.965	1045.915	783.826
407.409	17.043	1044.921	783.370
408.423	17.058	1044.218	782.843
409.438	17.152	1043.496	782.667
410.453	17.232	1042.648	782.332
411.467	17.191	1042.065	781.636
412.482	17.271	1041.378	781.418
413.496	17.291	1040.732	780.957
414.511	17.273	1040.128	780.350
415.526	17.326	1039.794	780.274
416.540	17.265	1039.643	779.812
417.555	17.340	1039.051	779.644
418.569	17.281	1038.393	778.810
419.584	17.419	1037.920	779.018
420.599	17.329	1037.616	778.310
421.613	104.927	1324.985	1476.322
422.628	96.229	1366.811	1476.445
