DTS Sentinel unit serial number:	SN413079Multiplexer serial number:	ORYXHardware model number:	OX4-SRSoftware version number:	ORYX F/W v4.00 Oryx Data Collector v3.7.2.0data status	okinstallation	princeton_trtdifferential loss correction	single-endedforward channel	channel 2reverse channel	N/Adate	2019/09/16time	19:31:34forward acquisition time	60.00reverse acquisition time	0.00gamma	496.2192k internal	0.2323k external	0.2323temperature offset calibration	0.9971default loss term (dB/km)	0.3790temperature slope calibration	1.0000multiplexer offset coefficient	1.0000multiplexer slope coefficient	1.0000fibre end	0.00T internal ref (°C)	34.44T ext. ref 1 (°C)	0.11T ext. ref 2 (°C)	27.30length (m)	temperature (°C)	Stokes	anti-Stokes-747.200	383.274	-0.095	-0.198
-746.185	3.230	-0.382	-0.281
-745.171	135.829	0.129	0.169
-744.156	-200.000	0.039	0.250
-743.142	-39.281	0.233	0.124
-742.127	166.878	0.156	0.224
-741.112	9.972	0.315	0.242
-740.098	3.015	-0.166	-0.122
-739.083	-14.148	0.259	-0.168
-738.069	-110.141	-0.159	-0.033
-737.054	-160.142	-0.328	0.018
-736.039	-200.000	-0.001	0.124
-735.025	-165.339	0.691	-0.031
-734.010	-18.514	-0.251	0.158
-732.996	-41.759	-0.106	0.055
-731.981	381.721	-0.047	-0.098
-730.966	3.125	0.409	-0.300
-729.952	-66.294	-0.079	-0.032
-728.937	800.000	-0.062	-0.214
-727.923	47.511	0.063	-0.059
-726.908	39.405	-0.205	0.185
-725.894	-200.000	-0.008	-0.069
-724.879	175.144	-0.192	0.280
-723.864	800.000	-0.119	-0.413
-722.850	106.416	-0.161	-0.192
-721.835	800.000	0.121	-0.350
-720.821	-200.000	-0.007	-0.100
-719.806	-92.478	-0.235	-0.067
-718.791	800.000	0.053	-0.154
-717.777	-50.518	-0.190	0.091
-716.762	-88.251	0.196	-0.059
-715.748	-56.523	0.353	0.158
-714.733	-200.000	0.025	0.571
-713.718	-200.000	0.058	0.547
-712.704	-80.091	-0.176	0.059
-711.689	-200.000	0.001	-0.337
-710.675	-17.620	-0.306	-0.194
-709.660	-200.000	0.013	0.227
-708.645	-136.313	-0.226	0.027
-707.631	0.280	0.108	0.078
-706.616	-110.589	0.326	0.068
-705.602	-125.264	-0.281	-0.043
-704.587	-132.052	-0.324	-0.043
-703.572	-23.280	-0.098	-0.059
-702.558	-98.567	-0.278	0.072
-701.543	242.925	0.125	-0.211
-700.529	54.141	-0.164	-0.159
-699.514	-108.318	-0.295	-0.064
-698.499	42.190	-0.335	-0.307
-697.485	66.561	0.078	0.080
-696.470	-64.971	-0.219	0.089
-695.456	156.636	-0.167	0.233
-694.441	231.195	-0.124	-0.205
-693.426	19.315	-0.303	0.245
-692.412	-113.412	0.048	0.009
-691.397	-68.725	-0.349	-0.136
-690.383	800.000	-0.007	-0.031
-689.368	800.000	0.042	0.132
-688.354	315.228	0.039	0.074
-687.339	94.769	-0.087	0.100
-686.324	-167.648	0.227	0.009
-685.310	65.080	0.187	-0.190
-684.295	-200.000	-0.003	-0.249
-683.281	-200.000	-0.030	-0.234
-682.266	-200.000	-0.042	-0.359
-681.251	66.546	-0.115	0.118
-680.237	190.891	0.151	-0.229
-679.222	418.484	0.105	-0.226
-678.208	800.000	0.078	0.235
-677.193	-200.000	-0.002	-0.117
-676.178	-173.821	0.192	-0.006
-675.164	-91.272	-0.313	-0.090
-674.149	800.000	-0.049	0.201
-673.135	481.786	-0.190	0.434
-672.120	-42.495	0.177	-0.091
-671.105	-104.576	-0.176	0.041
-670.091	1.066	-0.235	-0.170
-669.076	100.931	-0.126	0.147
-668.062	-200.000	-0.002	0.076
-667.047	-200.000	-0.025	-0.144
-666.032	-200.000	0.028	-0.158
-665.018	-200.000	-0.010	0.055
-664.003	-24.551	0.268	-0.160
-662.989	-46.482	-0.096	-0.048
-661.974	800.000	0.049	0.169
-660.959	800.000	-0.034	-0.125
-659.945	800.000	-0.066	0.261
-658.930	1.114	-0.010	-0.007
-657.916	-200.000	-0.028	-0.135
-656.901	-88.412	-0.090	0.027
-655.886	210.647	0.159	0.251
-654.872	101.517	-0.127	-0.149
-653.857	61.576	-0.102	-0.102
-652.843	4.112	-0.130	-0.096
-651.828	-36.321	-0.444	0.241
-650.814	800.000	-0.084	-0.271
-649.799	-200.000	0.069	0.313
-648.784	-35.939	-0.213	-0.116
-647.770	292.815	-0.265	-0.485
-646.755	479.154	0.054	0.123
-645.741	22.146	-0.219	0.180
-644.726	-24.118	0.121	0.073
-643.711	-129.841	-0.324	0.045
-642.697	-200.000	-0.045	-0.282
-641.682	-135.884	-0.134	0.016
-640.668	-75.881	0.191	0.068
-639.653	-106.253	-0.282	-0.064
-638.638	154.537	-0.253	-0.349
-637.624	-22.676	0.170	-0.104
-636.609	-128.027	-0.125	-0.018
-635.595	-59.169	0.296	-0.128
-634.580	-114.535	0.151	-0.029
-633.565	-19.553	-0.363	0.226
-632.551	191.838	0.080	-0.121
-631.536	410.249	-0.094	-0.200
-630.522	-43.390	0.239	-0.121
-629.507	-89.423	-0.127	0.038
-628.492	-117.770	0.094	0.017
-627.478	293.839	0.109	-0.200
-626.463	521.644	0.037	0.087
-625.449	-200.000	-0.003	-0.136
-624.434	-14.080	-0.221	0.143
-623.419	-68.074	-0.152	-0.060
-622.405	-48.306	0.161	-0.078
-621.390	-200.000	-0.021	-0.199
-620.376	-200.000	-0.027	-0.357
-619.361	800.000	0.067	-0.293
-618.346	-166.046	-0.243	0.010
-617.332	-91.707	-0.229	-0.065
-616.317	-46.754	0.159	-0.078
-615.303	-186.351	-0.167	0.002
-614.288	-127.134	0.213	-0.031
-613.273	142.792	-0.143	0.190
-612.259	-171.306	0.025	-0.001
-611.244	253.739	0.117	-0.201
-610.230	-36.761	0.263	-0.142
-609.215	96.029	0.206	-0.236
-608.201	-75.222	0.187	-0.067
-607.186	-200.000	-0.010	-0.138
-606.171	142.819	0.106	0.141
-605.157	238.996	-0.126	0.210
-604.142	-200.000	-0.015	0.220
-603.128	53.813	-0.207	-0.200
-602.113	-200.000	0.002	0.431
-601.098	100.385	-0.073	0.085
-600.084	322.245	-0.069	-0.131
-599.069	-121.202	-0.157	-0.026
-598.055	-51.085	-0.291	-0.137
-597.040	-189.597	-0.136	-0.002
-596.025	-16.499	-0.147	-0.094
-595.011	800.000	-0.039	-0.167
-593.996	1.709	-0.118	-0.085
-592.982	-93.116	0.260	-0.073
-591.967	208.247	-0.155	0.243
-590.952	14.317	-0.101	0.079
-589.938	-126.783	-0.135	-0.020
-588.923	-184.890	-0.040	0.001
-587.909	19.029	0.351	-0.282
-586.894	407.501	-0.133	-0.282
-585.879	208.255	0.063	0.099
-584.865	-160.011	-0.069	0.004
-583.850	190.320	-0.156	-0.235
-582.836	294.530	-0.118	0.216
-581.821	131.545	0.026	0.034
-580.806	800.000	-0.009	-0.025
-579.792	67.499	-0.118	-0.121
-578.777	3.707	-0.022	0.016
-577.763	328.080	-0.131	0.253
-576.748	-87.633	0.046	-0.014
-575.733	-200.000	-0.010	0.104
-574.719	193.917	-0.082	0.125
-573.704	-200.000	0.013	-0.095
-572.690	208.516	0.025	0.040
-571.675	1.231	-0.396	0.285
-570.661	-200.000	-0.014	-0.072
-569.646	800.000	0.124	-0.434
-568.631	-21.166	-0.098	-0.060
-567.617	-200.000	-0.083	-0.370
-566.602	-45.058	0.165	-0.082
-565.588	-55.631	0.130	-0.058
-564.573	-166.653	-0.116	-0.005
-563.558	-59.794	-0.384	-0.165
-562.544	-115.412	0.331	0.063
-561.529	97.644	-0.223	-0.257
-560.515	-200.000	-0.007	-0.404
-559.500	-200.000	-0.038	0.201
-558.485	64.802	0.099	0.100
-557.471	-55.416	-0.233	-0.105
-556.456	-68.358	-0.171	0.067
-555.442	-84.766	0.155	0.049
-554.427	428.873	0.097	0.211
-553.412	-27.155	-0.143	0.084
-552.398	31.151	0.354	-0.304
-551.383	424.535	0.091	0.197
-550.369	-102.418	-0.276	0.066
-549.354	-30.606	0.133	0.076
-548.339	79.628	-0.158	-0.170
-547.325	-147.867	-0.354	-0.030
-546.310	85.287	-0.136	0.150
-545.296	15.987	0.152	0.120
-544.281	800.000	-0.075	-0.307
-543.266	800.000	-0.040	-0.131
-542.252	75.629	0.294	0.311
-541.237	276.452	-0.075	-0.134
-540.223	-60.901	-0.279	-0.118
-539.208	-200.000	0.006	-0.173
-538.193	-64.365	-0.120	-0.049
-537.179	800.000	-0.055	0.198
-536.164	-29.024	0.198	0.114
-535.150	-200.000	0.009	-0.299
-534.135	104.535	-0.298	0.352
-533.121	473.228	0.106	0.238
-532.106	146.577	-0.269	0.362
-531.091	-67.477	-0.019	0.007
-530.077	-97.369	0.106	0.028
-529.062	6.999	0.205	0.153
-528.048	-200.000	0.026	0.275
-527.033	16.664	-0.213	0.169
-526.018	-172.854	0.113	-0.004
-525.004	-64.023	-0.153	0.063
-523.989	46.108	0.091	-0.085
-522.975	61.917	-0.136	0.136
-521.960	83.121	-0.118	0.129
-520.945	-8.127	0.079	-0.053
-519.931	447.524	-0.066	-0.145
-518.916	194.698	0.218	0.332
-517.902	5.090	-0.138	-0.102
-516.887	12.967	0.100	-0.077
-515.872	241.778	0.074	0.124
-514.858	-130.336	-0.299	-0.041
-513.843	-200.000	0.079	0.405
-512.829	554.192	-0.074	0.179
-511.814	55.375	0.151	0.146
-510.799	-112.426	0.071	0.014
-509.785	-7.383	-0.303	-0.206
-508.770	49.020	0.180	-0.169
-507.756	-16.591	0.282	0.178
-506.741	-156.660	0.424	0.026
-505.726	-41.931	-0.169	0.087
-504.712	-0.030	-0.240	0.171
-503.697	-135.892	-0.101	-0.012
-502.683	314.709	-0.091	-0.171
-501.668	-200.000	0.028	-0.220
-500.653	-33.198	0.203	0.112
-499.639	499.915	-0.107	0.246
-498.624	162.041	0.055	-0.077
-497.610	368.585	0.064	-0.129
-496.595	-125.838	0.028	0.004
-495.581	800.000	0.049	-0.149
-494.566	774.138	-0.079	0.215
-493.551	-200.000	-0.038	-0.178
-492.537	-200.000	-0.007	0.146
-491.522	170.810	-0.065	0.093
-490.508	30.798	0.043	-0.037
-489.493	-31.041	0.159	0.090
-488.478	87.340	0.073	0.081
-487.464	208.522	-0.084	0.132
-486.449	-120.534	0.028	0.005
-485.435	349.320	-0.121	0.238
-484.420	-66.811	0.230	0.091
-483.405	-113.492	-0.256	-0.050
-482.391	615.331	-0.143	-0.358
-481.376	800.000	0.103	-0.316
-480.362	-4.293	-0.087	-0.060
-479.347	-83.821	-0.146	-0.047
-478.332	6.795	0.055	0.041
-477.318	-28.964	0.155	0.089
-476.303	-151.942	0.174	-0.013
-475.289	-154.496	-0.365	-0.024
-474.274	-200.000	0.025	-0.299
-473.259	125.154	-0.210	0.264
-472.245	800.000	0.041	-0.164
-471.230	53.978	0.150	-0.144
-470.216	-18.779	-0.164	0.102
-469.201	-200.000	0.264	0.000
-468.186	-156.324	-0.127	-0.008
-467.172	-39.180	-0.212	-0.111
-466.157	-200.000	-0.256	0.001
-465.143	-144.048	-0.254	-0.024
-464.128	359.293	0.090	0.179
-463.113	311.108	-0.070	-0.132
-462.099	-131.538	-0.353	0.046
-461.084	-78.582	0.152	-0.052
-460.070	-200.000	-0.003	-0.270
-459.055	-8.862	0.075	0.050
-458.040	63.894	0.197	0.198
-457.026	-200.000	0.013	0.276
-456.011	800.000	0.139	0.396
-454.997	800.000	-0.041	0.116
-453.982	800.000	0.034	0.147
-452.968	516.440	0.090	0.210
-451.953	10.039	-0.080	-0.061
-450.938	-77.353	-0.157	0.054
-449.924	800.000	0.029	-0.105
-448.909	-148.751	-0.170	-0.014
-447.895	-200.000	0.030	0.310
-446.880	800.000	-0.049	0.181
-445.865	76.850	0.031	0.033
-444.851	-17.945	0.310	-0.194
-443.836	-200.000	-0.005	0.037
-442.822	115.239	-0.072	-0.088
-441.807	-106.380	0.199	-0.044
-440.792	48.249	0.091	-0.085
-439.778	440.979	0.077	0.169
-438.763	199.444	-0.192	0.294
-437.749	294.268	0.030	-0.055
-436.734	75.925	-0.177	-0.187
-435.719	155.002	-0.176	-0.242
-434.705	-200.000	0.012	0.207
-433.690	169.745	-0.137	0.196
-432.676	-200.000	-0.038	0.375
-431.661	91.306	-0.248	-0.278
-430.646	739.875	0.086	-0.229
-429.632	800.000	0.063	0.268
-428.617	554.832	0.114	0.273
-427.603	-85.018	0.192	0.060
-426.588	-200.000	-0.013	0.080
-425.573	-200.000	0.046	-0.291
-424.559	92.695	0.079	-0.089
-423.544	279.166	-0.127	-0.226
-422.530	-37.394	-0.204	-0.109
-421.515	800.000	-0.028	-0.090
-420.500	-32.746	-0.024	-0.013
-419.486	-130.530	-0.296	-0.040
-418.471	145.104	0.257	-0.342
-417.457	13.914	-0.164	-0.127
-416.442	-154.466	-0.201	-0.013
-415.428	-82.354	0.356	0.115
-414.413	800.000	0.024	0.089
-413.398	-200.000	0.033	-0.146
-412.384	68.969	0.032	-0.033
-411.369	51.449	-0.126	0.120
-410.355	-104.931	0.261	0.060
-409.340	144.614	-0.270	0.360
-408.325	440.582	0.012	0.026
-407.311	298.330	-0.143	0.262
-406.296	-14.622	0.135	-0.086
-405.282	13.327	0.189	-0.146
-404.267	-106.427	0.583	0.130
-403.252	298.411	0.043	-0.078
-402.238	633.168	-0.056	0.141
-401.223	800.000	0.034	0.140
-400.209	-82.605	0.216	0.070
-399.194	-101.283	0.262	0.064
-398.179	97.895	0.198	-0.227
-397.165	-41.677	-0.223	-0.114
-396.150	800.000	0.056	0.161
-395.136	36.075	-0.251	-0.220
-394.121	-90.321	-0.131	0.038
-393.106	98.191	-0.162	-0.185
-392.092	-67.973	-0.100	-0.039
-391.077	-35.551	-0.128	0.069
-390.063	89.426	-0.108	-0.121
-389.048	-16.944	0.240	-0.151
-388.033	5.018	0.300	0.220
-387.019	-112.828	-0.295	0.058
-386.004	-36.796	0.235	-0.126
-384.990	-143.734	0.340	0.032
-383.975	-200.000	0.027	0.163
-382.960	-200.000	-0.019	0.341
-381.946	-200.000	-0.009	-0.184
-380.931	-23.817	-0.085	0.051
-379.917	38.953	0.068	-0.061
-378.902	-115.096	0.370	-0.070
-377.888	300.039	0.165	-0.303
-376.873	-58.214	-0.071	0.031
-375.858	-63.981	-0.246	-0.100
-374.844	-138.531	-0.163	0.018
-373.829	-118.343	0.276	-0.049
-372.815	390.386	-0.092	-0.191
-371.800	-184.006	-0.024	-0.000
-370.785	61.104	-0.234	-0.232
-369.771	394.150	0.014	-0.029
-368.756	103.093	-0.076	0.088
-367.742	-200.000	0.008	0.055
-366.727	541.514	0.150	-0.356
-365.712	67.877	0.103	-0.104
-364.698	-200.000	-0.018	0.108
-363.683	460.550	-0.029	0.064
-362.669	696.959	0.053	-0.140
-361.654	70.026	0.154	0.158
-360.639	119.825	-0.062	0.077
-359.625	-200.000	0.038	0.217
-358.610	-66.010	-0.252	0.100
-357.596	222.190	-0.135	-0.217
-356.581	63.521	-0.222	-0.221
-355.566	800.000	0.100	0.420
-354.552	-200.000	0.007	-0.118
-353.537	237.152	0.165	-0.271
-352.523	-200.000	-0.003	0.199
-351.508	137.778	-0.090	-0.117
-350.493	629.327	0.120	0.302
-349.479	-95.607	-0.115	0.031
-348.464	650.660	0.097	-0.247
-347.450	-200.000	-0.003	0.246
-346.435	-118.784	-0.142	0.025
-345.420	-50.654	-0.143	0.067
-344.406	-74.939	0.122	0.043
-343.391	341.001	-0.159	0.309
-342.377	-90.977	0.089	0.025
-341.362	-39.559	0.227	0.118
-340.348	507.309	-0.066	0.153
-339.333	51.890	0.293	-0.277
-338.318	-131.399	0.309	0.041
-337.304	7.821	-0.164	0.122
-336.289	32.014	-0.404	0.346
-335.275	116.251	-0.104	0.127
-334.260	-200.000	0.024	-0.258
-333.245	-135.030	0.183	0.022
-332.231	302.223	0.096	0.176
-331.216	5.098	0.136	-0.100
-330.202	121.709	-0.115	0.142
-329.187	475.563	-0.102	-0.228
-328.172	-200.000	-0.004	-0.058
-327.158	75.140	-0.071	0.074
-326.143	293.386	0.065	0.117
-325.129	-29.158	0.473	-0.270
-324.114	-200.000	0.009	0.086
-323.099	800.000	-0.050	-0.192
-322.085	130.963	-0.054	-0.068
-321.070	-200.000	0.001	-0.131
-320.056	-164.493	0.134	-0.006
-319.041	-16.836	0.203	-0.128
-318.026	709.927	-0.061	0.161
-317.012	800.000	0.065	0.238
-315.997	-42.203	0.306	-0.156
-314.983	11.017	0.124	-0.094
-313.968	-122.124	-0.222	-0.036
-312.953	-73.357	0.096	0.035
-311.939	-131.704	0.051	0.007
-310.924	405.273	-0.112	0.235
-309.910	103.415	-0.223	0.260
-308.895	-157.057	-0.160	0.010
-307.880	-188.006	0.171	-0.002
-306.866	4.477	0.301	0.219
-305.851	-141.653	0.167	0.017
-304.837	-200.000	-0.020	0.108
-303.822	-200.000	0.085	0.442
-302.807	-108.699	-0.360	0.077
-301.793	779.537	0.131	0.355
-300.778	-18.801	0.286	-0.177
-299.764	141.910	-0.154	-0.203
-298.749	-200.000	-0.019	-0.182
-297.735	-85.482	0.035	0.011
-296.720	-200.000	0.006	-0.151
-295.705	800.000	-0.063	0.232
-294.691	226.594	-0.143	0.230
-293.676	-80.647	0.233	-0.077
-292.662	-62.881	-0.331	0.136
-291.647	-140.723	-0.249	0.026
-290.632	-16.838	0.051	-0.032
-289.618	56.853	-0.104	-0.100
-288.603	-10.419	0.125	-0.082
-287.589	-200.000	0.030	0.163
-286.574	145.621	-0.080	0.106
-285.559	-200.000	0.010	0.070
-284.545	330.491	0.133	-0.254
-283.530	-200.000	-0.041	0.221
-282.516	172.342	-0.277	0.396
-281.501	-31.115	0.134	0.075
-280.486	299.655	0.083	0.152
-279.472	68.417	0.053	-0.054
-278.457	111.747	-0.055	0.066
-277.443	584.402	0.070	-0.170
-276.428	6.253	0.278	-0.204
-275.413	-102.332	0.316	0.075
-274.399	-155.393	-0.220	0.014
-273.384	255.829	-0.083	0.141
-272.370	-9.724	-0.236	-0.156
-271.355	73.849	-0.111	-0.115
-270.340	800.000	0.074	-0.213
-269.326	-133.261	0.244	0.031
-268.311	422.065	0.082	0.174
-267.297	-94.337	0.215	0.058
-266.282	1.853	-0.299	-0.214
-265.267	47.834	0.256	-0.237
-264.253	255.651	-0.096	0.163
-263.238	-109.582	0.223	0.047
-262.224	-200.000	0.021	-0.224
-261.209	-124.783	0.276	-0.042
-260.195	125.278	0.129	-0.161
-259.180	-148.898	0.062	0.005
-258.165	79.298	0.067	-0.071
-257.151	181.107	-0.322	-0.469
-256.136	4.705	0.035	0.025
-255.122	800.000	-0.058	-0.239
-254.107	-200.000	-0.039	-0.247
-253.092	62.124	0.292	-0.289
-252.078	13.235	-0.132	-0.101
-251.063	-40.923	0.105	0.054
-250.049	-200.000	0.055	-0.275
-249.034	40.544	0.188	0.168
-248.019	-200.000	0.042	-0.247
-247.005	206.802	0.116	-0.179
-245.990	-200.000	0.043	0.386
-244.976	-48.326	0.081	0.038
-243.961	-170.929	-0.085	0.003
-242.946	-75.310	0.377	-0.133
-241.932	148.204	0.173	0.231
-240.917	-71.753	-0.198	0.073
-239.903	332.099	-0.080	0.154
-238.888	75.569	-0.339	-0.355
-237.873	-55.088	-0.239	0.107
-236.859	730.328	0.068	0.180
-235.844	-66.809	0.268	0.105
-234.830	114.057	0.099	-0.120
-233.815	-2.496	-0.071	-0.049
-232.800	-137.338	-0.305	0.034
-231.786	800.000	0.079	0.228
-230.771	469.302	-0.052	0.116
-229.757	-104.423	0.147	-0.034
-228.742	-59.012	-0.165	-0.071
-227.727	-101.924	0.317	0.076
-226.713	-158.917	-0.163	-0.009
-225.698	758.208	-0.162	-0.435
-224.684	-15.591	0.350	-0.221
-223.669	-131.712	-0.126	0.016
-222.655	583.026	-0.081	0.196
-221.640	-40.610	-0.251	0.129
-220.625	-169.442	0.290	-0.010
-219.611	37.410	-0.268	-0.235
-218.596	665.731	0.021	0.055
-217.582	-49.915	0.077	0.036
-216.567	-97.809	-0.152	-0.039
-215.552	-29.884	0.226	0.127
-214.538	149.337	0.140	0.187
-213.523	0.074	0.056	-0.039
-212.509	-133.620	-0.124	0.015
-211.494	86.357	0.108	0.118
-210.479	104.020	0.081	-0.094
-209.465	456.296	0.120	0.264
-208.450	132.327	-0.048	0.061
-207.436	-200.000	0.031	-0.205
-206.421	-200.000	-0.009	-0.278
-205.406	385.987	0.074	0.151
-204.392	-200.000	-0.002	-0.026
-203.377	-149.235	-0.059	0.005
-202.363	-200.000	0.018	-0.279
-201.348	-194.512	0.289	0.002
-200.333	-5.538	-0.225	0.153
-199.319	514.538	-0.037	-0.086
-198.304	800.000	-0.065	0.229
-197.290	-95.512	0.323	-0.086
-196.275	-137.865	0.031	0.003
-195.260	26.822	0.186	0.154
-194.246	31.310	0.262	-0.222
-193.231	-113.277	0.196	-0.038
-192.217	-35.218	0.143	0.077
-191.202	-56.770	0.173	0.076
-190.187	-34.362	-0.179	-0.097
-189.173	800.000	-0.058	0.162
-188.158	191.011	-0.102	0.151
-187.144	95.187	0.046	-0.052
-186.129	3.577	0.156	-0.113
-185.114	-200.000	0.023	-0.144
-184.100	-51.352	-0.203	-0.094
-183.085	464.522	0.025	-0.056
-182.071	144.260	0.060	0.079
-181.056	800.000	0.041	-0.161
-180.042	-160.776	-0.152	-0.008
-179.027	121.962	-0.123	-0.152
-178.012	-56.775	-0.284	0.124
-176.998	292.844	-0.042	0.075
-175.983	-102.455	-0.259	0.061
-174.969	-58.902	-0.114	-0.049
-173.954	3.121	0.339	0.244
-172.939	33.380	0.118	0.101
-171.925	164.415	0.082	-0.114
-170.910	-200.000	0.013	-0.131
-169.896	-109.264	0.448	-0.094
-168.881	98.586	0.160	0.182
-167.866	-46.148	0.126	0.061
-166.852	91.826	-0.088	-0.098
-165.837	-200.000	-0.016	-0.188
-164.823	-200.000	-0.048	0.220
-163.808	267.720	0.046	-0.080
-162.793	92.837	-0.179	0.199
-161.779	-200.000	-0.048	0.255
-160.764	-200.000	-0.012	0.220
-159.750	-200.000	-0.035	0.166
-158.735	-37.319	0.308	0.162
-157.720	-143.243	-0.261	-0.025
-156.706	-15.668	0.034	-0.022
-155.691	-186.584	0.104	-0.001
-154.677	417.362	0.110	-0.231
-153.662	800.000	0.073	0.290
-152.647	800.000	-0.092	-0.273
-151.633	327.070	-0.102	-0.193
-150.618	-200.000	-0.005	0.033
-149.604	-200.000	-0.035	-0.162
-148.589	215.954	-0.067	0.104
-147.574	-104.279	0.232	-0.053
-146.560	30.353	-0.250	0.210
-145.545	-108.508	0.619	-0.131
-144.531	364.681	0.067	0.133
-143.516	240.656	0.035	-0.058
-142.502	207.446	0.198	-0.304
-141.487	-200.000	-0.027	0.218
-140.472	-200.000	0.016	-0.196
-139.458	-200.000	0.024	-0.411
-138.443	3.104	-0.225	-0.161
-137.429	-68.677	0.405	-0.155
-136.414	35.962	-0.052	0.045
-135.399	13.008	0.194	0.148
-134.385	-200.000	0.000	0.059
-133.370	-141.599	-0.053	0.005
-132.356	-67.092	0.207	0.081
-131.341	107.946	-0.179	-0.211
-130.326	-200.000	-0.022	0.139
-129.312	101.210	0.172	0.197
-128.297	261.542	0.058	0.098
-127.283	-114.925	0.135	-0.025
-126.268	-200.000	0.022	0.245
-125.253	-70.590	0.245	0.091
-124.239	800.000	-0.079	-0.297
-123.224	56.230	0.268	0.257
-122.210	800.000	-0.013	-0.048
-121.195	236.341	-0.057	-0.093
-120.180	-200.000	-0.044	-0.308
-119.166	-63.886	-0.263	0.106
-118.151	226.947	-0.141	0.226
-117.137	-0.879	-0.155	-0.108
-116.122	-149.814	0.196	0.015
-115.107	-200.000	-0.018	-0.205
-114.093	-61.519	-0.093	-0.039
-113.078	358.755	-0.222	-0.438
-112.064	800.000	0.082	0.288
-111.049	800.000	0.041	0.139
-110.034	-200.000	0.008	0.249
-109.020	160.937	0.108	0.149
-108.005	465.295	-0.092	0.203
-106.991	93.723	0.092	-0.102
-105.976	664.581	0.107	0.271
-104.962	-134.652	0.149	0.018
-103.947	-100.898	-0.288	0.070
-102.932	530.312	-0.074	-0.171
-101.918	-64.579	-0.142	-0.057
-100.903	800.000	0.065	0.204
-99.889	82.595	0.101	-0.108
-98.874	43.897	0.243	-0.219
-97.859	-200.000	0.038	0.246
-96.845	40.711	0.269	-0.239
-95.830	-35.090	0.150	0.081
-94.816	-72.694	0.211	0.077
-93.801	-70.946	-0.176	-0.065
-92.786	-200.000	-0.002	0.100
-91.772	-38.201	-0.442	0.231
-90.757	-43.703	-0.210	0.104
-89.743	-200.000	-0.011	-0.247
-88.728	230.233	0.040	0.065
-87.713	-116.778	-0.274	-0.049
-86.699	-200.000	-0.001	0.189
-85.684	658.492	-0.061	0.155
-84.670	-6.008	-0.378	0.254
-83.655	-200.000	0.015	-0.254
-82.640	-77.000	-0.308	-0.106
-81.626	-96.875	-0.230	0.059
-80.611	21.324	0.284	-0.227
-79.597	800.000	0.106	-0.382
-78.582	-200.000	-0.024	-0.182
-77.567	775.387	-0.012	-0.033
-76.553	-33.615	-0.346	-0.188
-75.538	-53.783	0.367	0.165
-74.524	-200.000	0.009	0.139
-73.509	124.762	-0.042	-0.052
-72.494	76.040	-0.191	-0.198
-71.480	28.534	0.260	-0.217
-70.465	44.719	-0.157	0.142
-69.451	-14.267	-0.196	-0.124
-68.436	-91.275	0.273	-0.077
-67.422	115.942	-0.051	0.061
-66.407	-78.543	0.281	-0.095
-65.392	146.444	-0.117	0.155
-64.378	-200.000	0.012	-0.211
-63.363	4.492	-0.198	-0.143
-62.349	65.530	0.158	0.158
-61.334	1.502	-0.997	-0.706
-60.319	19.025	0.717	0.565
-59.305	-200.000	0.000	-1.072
-58.290	800.000	0.329	0.893
-57.276	321.645	0.791	1.480
-56.261	-200.000	94.217	558.140
-55.246	549.505	1371.058	3231.394
-54.232	157.946	2564.378	3494.302
-53.217	106.706	2285.016	2665.737
-52.203	43.520	1906.958	1714.156
-51.188	37.719	1697.726	1482.040
-50.173	34.940	1654.034	1423.206
-49.159	51.775	1699.175	1589.223
-48.144	54.707	1715.862	1626.840
-47.130	37.313	1675.832	1459.650
-46.115	34.492	1661.464	1426.026
-45.100	34.372	1656.609	1420.902
-44.086	34.324	1653.714	1418.003
-43.071	34.375	1651.493	1416.422
-42.057	34.329	1649.279	1414.130
-41.042	34.370	1646.807	1412.256
-40.027	34.356	1644.854	1410.422
-39.013	34.287	1643.194	1408.433
-37.998	34.290	1641.748	1407.162
-36.984	34.329	1640.365	1406.210
-35.969	34.445	1638.681	1405.560
-34.954	34.485	1636.837	1404.216
-33.940	34.402	1634.695	1401.716
-32.925	34.379	1633.201	1400.212
-31.911	34.343	1631.793	1398.684
-30.896	34.472	1630.028	1398.062
-29.881	34.409	1628.584	1396.302
-28.867	34.359	1626.650	1394.225
-27.852	34.384	1625.235	1393.140
-26.838	34.401	1623.851	1392.026
-25.823	34.382	1622.642	1390.791
-24.809	34.553	1620.431	1390.088
-23.794	34.524	1619.627	1389.131
-22.779	34.552	1617.822	1387.729
-21.765	34.473	1616.989	1386.387
-20.750	34.424	1615.100	1384.357
-19.736	34.501	1613.787	1383.736
-18.721	34.500	1612.476	1382.549
-17.706	34.444	1610.837	1380.681
-16.692	34.445	1609.188	1379.225
-15.677	34.372	1608.141	1377.741
-14.663	34.499	1606.306	1377.035
-13.648	34.423	1605.087	1375.384
-12.633	34.434	1603.458	1374.017
-11.619	34.408	1601.949	1372.484
-10.604	34.495	1600.397	1371.725
-9.590	34.586	1599.119	1371.226
-8.575	34.558	1597.602	1369.669
-7.560	34.459	1597.182	1368.541
-6.546	34.534	1595.677	1367.736
-5.531	34.570	1594.353	1366.811
-4.517	34.559	1593.503	1365.943
-3.502	34.449	1592.366	1364.127
-2.487	34.594	1590.813	1363.778
-1.473	34.021	1579.074	1349.599
-0.458	30.735	1558.003	1308.477
0.556	24.672	1557.037	1270.469
1.571	21.882	1579.249	1268.334
2.586	21.243	1592.181	1273.948
3.600	19.240	1540.041	1217.975
4.615	10.818	1429.632	1075.058
5.629	2.127	1361.519	968.794
6.644	0.305	1352.195	950.591
7.659	0.098	1350.764	948.195
8.673	0.041	1350.042	947.249
9.688	-0.004	1348.267	945.636
10.702	-0.033	1344.961	943.048
11.717	3.822	1351.580	971.873
12.731	12.809	1366.340	1039.301
13.746	17.957	1372.202	1076.197
14.761	17.369	1370.088	1070.743
15.775	16.397	1367.040	1062.155
16.790	15.287	1364.872	1053.410
17.804	14.409	1362.327	1045.843
18.819	14.006	1361.376	1042.492
19.834	13.827	1359.779	1040.052
20.848	13.437	1358.671	1036.672
21.863	13.421	1357.049	1035.242
22.877	13.155	1356.089	1032.756
23.892	13.127	1355.223	1031.833
24.907	13.141	1354.070	1030.949
25.921	13.127	1353.293	1030.182
26.936	13.172	1352.320	1029.629
27.950	13.274	1351.386	1029.460
28.965	13.267	1350.393	1028.567
29.980	13.272	1349.780	1028.044
30.994	13.273	1349.049	1027.401
32.009	13.398	1347.962	1027.257
33.023	13.419	1346.877	1026.469
34.038	13.364	1345.803	1025.222
35.053	13.240	1344.737	1023.551
36.067	13.243	1343.551	1022.573
37.082	13.303	1342.831	1022.306
38.096	13.354	1341.940	1021.854
39.111	13.316	1341.325	1021.060
40.126	13.211	1340.158	1019.434
41.140	13.168	1339.352	1018.468
42.155	13.175	1338.754	1017.965
43.169	13.092	1338.549	1017.208
44.184	13.103	1338.193	1016.917
45.199	13.162	1337.825	1016.909
46.213	13.201	1337.313	1016.666
47.228	13.189	1336.586	1015.954
48.242	13.251	1335.190	1015.180
49.257	13.300	1333.856	1014.380
50.271	13.254	1332.678	1013.109
51.286	13.253	1331.276	1011.948
52.301	13.181	1330.029	1010.471
53.315	13.237	1328.736	1009.742
54.330	13.276	1327.480	1008.937
55.344	13.200	1326.953	1007.981
56.359	13.147	1325.456	1006.435
57.374	13.159	1324.739	1005.871
58.388	13.135	1324.081	1005.141
59.403	13.046	1323.471	1004.044
60.417	13.163	1322.313	1003.788
61.432	12.977	1321.557	1001.997
62.447	13.056	1320.474	1001.566
63.461	13.045	1319.440	1000.625
64.476	12.943	1318.318	999.073
65.490	12.992	1316.948	998.239
66.505	13.045	1315.490	997.365
67.520	13.051	1314.850	996.829
68.534	13.069	1313.808	996.057
69.549	13.033	1312.325	994.630
70.563	13.089	1311.150	993.987
71.578	13.065	1310.213	993.046
72.593	12.965	1309.478	991.802
73.607	12.957	1308.728	991.093
74.622	12.986	1307.660	990.376
75.636	13.066	1306.287	989.726
76.651	13.014	1305.699	988.882
77.666	12.884	1305.476	987.846
78.680	13.068	1304.856	988.391
79.695	12.992	1304.054	987.245
80.709	13.055	1303.020	986.749
81.724	13.093	1302.167	986.243
82.739	13.099	1301.494	985.679
83.753	13.115	1300.760	985.136
84.768	13.252	1299.415	984.841
85.782	13.274	1298.030	983.840
86.797	13.271	1297.116	983.043
87.812	13.145	1295.763	981.178
88.826	13.265	1294.596	980.920
89.841	13.194	1293.687	979.723
90.855	13.278	1292.900	979.541
91.870	13.331	1291.697	978.854
92.884	13.329	1291.040	978.257
93.899	13.405	1290.141	977.942
94.914	13.370	1289.642	977.270
95.928	13.441	1288.221	976.523
96.943	13.446	1287.462	975.890
97.957	13.340	1286.744	974.634
98.972	13.365	1285.781	973.971
99.987	13.401	1284.669	973.250
101.001	13.354	1283.746	972.189
102.016	13.139	1283.296	970.501
103.030	13.316	1282.117	970.564
104.045	13.356	1281.397	970.164
105.060	13.327	1279.400	968.399
106.074	13.221	1278.743	967.192
107.089	13.139	1277.503	965.689
108.103	13.245	1276.440	965.422
109.118	13.093	1275.047	963.393
110.133	13.092	1273.665	962.261
111.147	13.121	1272.697	961.611
112.162	13.177	1271.320	960.810
113.176	13.243	1270.245	960.298
114.191	13.286	1269.397	959.823
115.206	13.204	1268.404	958.514
116.220	13.174	1266.859	957.087
117.235	13.200	1265.671	956.253
118.249	13.114	1265.200	955.315
119.264	13.158	1263.691	954.345
120.279	13.058	1262.724	952.954
121.293	13.198	1261.797	952.979
122.308	13.032	1261.075	951.388
123.322	13.062	1260.243	950.853
124.337	13.080	1258.812	949.793
125.352	13.031	1258.121	948.903
126.366	13.081	1256.534	947.913
127.381	13.163	1255.517	947.528
128.395	13.165	1254.562	946.736
129.410	13.115	1253.903	945.870
130.424	13.183	1252.897	945.413
131.439	13.231	1251.832	944.804
132.454	13.126	1251.393	943.790
133.468	13.205	1250.143	943.215
134.483	13.402	1249.074	943.444
135.497	13.249	1248.530	942.078
136.512	13.269	1247.290	941.177
137.527	13.369	1245.284	940.146
138.541	13.260	1244.775	939.060
139.556	13.199	1243.168	937.418
140.570	13.288	1242.335	937.211
141.585	13.327	1240.877	936.249
142.600	13.338	1239.645	935.300
143.614	13.445	1238.705	935.109
144.629	13.441	1237.674	934.226
145.643	13.525	1236.572	933.790
146.658	13.404	1235.164	931.959
147.673	13.314	1233.973	930.472
148.687	13.293	1232.693	929.306
149.702	13.278	1231.446	928.200
150.716	13.209	1230.653	927.135
151.731	13.304	1229.201	926.490
152.746	13.166	1228.512	925.116
153.760	13.423	1226.524	924.971
154.775	13.409	1225.924	924.361
155.789	13.377	1224.807	923.260
156.804	13.334	1223.688	922.096
157.819	13.571	1222.397	922.358
158.833	13.505	1221.790	921.455
159.848	13.553	1221.044	921.073
160.862	13.481	1220.515	920.193
161.877	13.498	1218.473	918.669
162.892	13.387	1217.517	917.252
163.906	13.466	1216.084	916.528
164.921	13.433	1215.986	916.191
165.935	13.440	1215.352	915.672
166.950	13.502	1214.357	915.180
167.964	13.449	1213.712	914.321
168.979	13.468	1212.759	913.629
169.994	13.496	1212.133	913.228
171.008	13.569	1210.900	912.624
172.023	13.502	1210.583	911.933
173.037	13.652	1209.605	911.943
174.052	13.603	1208.678	910.894
175.067	13.504	1207.818	909.619
176.081	13.488	1206.747	908.643
177.096	13.474	1206.057	907.966
178.110	13.555	1204.629	907.257
179.125	13.545	1203.417	906.209
180.140	13.559	1202.248	905.328
181.154	13.620	1201.083	904.702
182.169	13.596	1200.207	903.829
183.183	13.609	1199.287	903.126
184.198	13.711	1197.465	902.232
185.213	13.640	1196.814	901.277
186.227	13.801	1195.349	900.966
187.242	13.862	1194.772	900.780
188.256	13.800	1193.560	899.454
189.271	13.784	1192.819	898.727
190.286	13.661	1191.544	897.021
191.300	13.645	1190.770	896.275
192.315	13.568	1190.182	895.334
193.329	13.655	1189.307	895.069
194.344	13.611	1188.606	894.221
195.359	13.636	1188.060	893.867
196.373	13.672	1187.937	893.890
197.388	13.818	1187.123	893.984
198.402	13.861	1186.965	894.019
199.417	13.994	1186.120	894.022
200.432	13.980	1185.337	893.277
201.446	13.995	1184.291	892.487
202.461	13.990	1183.493	891.784
203.475	14.088	1182.321	891.345
204.490	14.135	1181.041	890.555
205.504	14.071	1179.466	888.946
206.519	14.061	1178.544	888.116
207.534	14.039	1177.750	887.321
208.548	13.929	1176.916	886.030
209.563	14.027	1176.042	885.814
210.577	14.062	1174.861	885.034
211.592	14.028	1174.375	884.405
212.607	14.143	1173.536	884.306
213.621	14.288	1172.351	884.111
214.636	14.153	1171.747	882.858
215.650	14.135	1170.562	881.790
216.665	14.139	1169.870	881.214
217.680	14.223	1169.502	881.304
218.694	14.171	1168.557	880.240
219.709	14.180	1167.629	879.506
220.723	14.049	1166.930	878.213
221.738	14.220	1166.340	878.591
222.753	14.217	1165.439	877.822
223.767	14.280	1164.709	877.527
224.782	14.335	1163.779	877.039
225.796	14.332	1163.440	876.687
226.811	14.244	1162.970	875.792
227.826	14.269	1162.347	875.377
228.840	14.238	1161.750	874.690
229.855	14.346	1160.349	874.122
230.869	14.302	1159.947	873.512
231.884	14.310	1158.643	872.494
232.899	14.256	1158.318	871.891
233.913	14.260	1157.307	871.070
234.928	14.219	1156.558	870.217
235.942	14.239	1155.721	869.614
236.957	14.353	1154.916	869.527
237.972	14.307	1154.410	868.827
238.986	14.449	1153.416	868.744
240.001	14.375	1153.154	868.084
241.015	14.366	1152.116	867.177
242.030	14.317	1151.549	866.423
243.045	14.374	1150.702	866.002
244.059	14.456	1149.837	865.700
245.074	14.477	1149.094	865.176
246.088	14.588	1148.038	864.876
247.103	14.547	1147.277	864.015
248.117	14.648	1146.428	863.824
249.132	14.617	1146.097	863.335
250.147	14.574	1145.637	862.694
251.161	14.788	1144.866	863.138
252.176	14.666	1144.082	861.845
253.190	14.770	1143.598	861.942
254.205	14.824	1142.801	861.538
255.220	14.875	1141.903	861.048
256.234	14.873	1141.577	860.718
257.249	14.944	1140.317	860.056
258.263	14.928	1139.930	859.608
259.278	14.850	1139.559	858.847
260.293	14.855	1139.254	858.572
261.307	15.040	1138.336	858.750
262.322	14.968	1137.900	857.976
263.336	14.897	1137.531	857.260
264.351	15.000	1136.256	856.752
265.366	14.998	1135.838	856.349
266.380	15.036	1134.940	855.791
267.395	14.999	1134.552	855.231
268.409	14.900	1133.557	853.902
269.424	14.914	1132.968	853.453
270.439	14.956	1132.605	853.321
271.453	15.006	1131.391	852.586
272.468	15.011	1130.616	851.949
273.482	14.964	1129.713	850.956
274.497	15.059	1129.084	850.889
275.512	14.934	1128.946	850.076
276.526	15.146	1127.568	850.034
277.541	15.067	1127.252	849.320
278.555	15.023	1126.806	848.688
279.570	15.094	1125.706	848.144
280.585	15.251	1124.523	847.974
281.599	15.240	1124.144	847.556
282.614	15.167	1122.778	846.084
283.628	15.136	1122.014	845.275
284.643	15.090	1121.285	844.421
285.657	15.056	1120.718	843.749
286.672	15.170	1119.496	843.325
287.687	15.221	1118.412	842.693
288.701	15.315	1117.678	842.535
289.716	15.310	1116.881	841.837
290.730	15.313	1116.069	841.165
291.745	15.271	1116.014	840.837
292.760	15.296	1114.876	840.032
293.774	15.322	1114.518	839.818
294.789	15.344	1114.299	839.688
295.803	15.368	1113.509	839.139
296.818	15.303	1112.356	837.869
297.833	15.402	1111.317	837.507
298.847	15.280	1111.105	836.663
299.862	15.379	1110.599	836.704
300.876	15.370	1109.587	835.822
301.891	15.410	1109.070	835.559
302.906	15.466	1108.626	835.430
303.920	15.454	1107.677	834.578
304.935	15.554	1106.830	834.366
305.949	15.661	1106.131	834.296
306.964	15.536	1105.746	833.311
307.979	15.606	1104.683	832.783
308.993	15.665	1104.235	832.662
310.008	15.611	1103.644	831.875
311.022	15.650	1102.486	831.124
312.037	15.664	1101.856	830.644
313.052	15.635	1101.111	829.866
314.066	15.599	1100.102	828.854
315.081	15.589	1099.747	828.461
316.095	15.606	1098.582	827.598
317.110	15.551	1097.791	826.657
318.125	15.520	1097.172	825.964
319.139	15.543	1096.272	825.327
320.154	15.611	1096.059	825.427
321.168	15.532	1095.480	824.530
322.183	15.539	1095.068	824.184
323.197	15.618	1094.467	824.043
324.212	15.678	1093.635	823.638
325.227	15.699	1092.999	823.192
326.241	15.744	1092.307	822.818
327.256	15.791	1091.299	822.213
328.270	15.793	1090.111	821.254
329.285	15.689	1089.652	820.332
330.300	15.713	1089.031	819.908
331.314	15.802	1087.620	819.207
332.329	15.797	1086.601	818.342
333.343	15.836	1085.895	817.925
334.358	15.855	1085.344	817.529
335.373	15.864	1084.627	816.961
336.387	15.854	1084.167	816.494
337.402	15.834	1083.461	815.794
338.416	15.921	1082.498	815.420
339.431	15.989	1081.724	815.091
340.446	15.971	1081.246	814.571
341.460	16.095	1080.694	814.686
342.475	16.210	1079.384	814.181
343.489	16.131	1078.818	813.300
344.504	16.254	1077.704	812.981
345.519	16.069	1077.189	811.631
346.533	16.163	1076.356	811.383
347.548	16.275	1075.313	811.064
348.562	16.278	1074.579	810.452
349.577	16.168	1074.458	809.759
350.592	16.091	1073.639	808.704
351.606	16.097	1072.673	807.932
352.621	16.106	1072.156	807.514
353.635	16.137	1071.377	807.002
354.650	16.106	1070.899	806.425
355.665	16.159	1069.635	805.653
356.679	16.137	1069.260	805.197
357.694	16.160	1069.035	805.065
358.708	16.128	1068.459	804.407
359.723	16.277	1067.400	804.246
360.738	16.414	1066.889	804.443
361.752	16.243	1066.485	803.252
362.767	16.227	1065.752	802.556
363.781	16.242	1065.363	802.262
364.796	16.248	1064.731	801.743
365.810	16.434	1063.906	801.936
366.825	16.406	1063.299	801.276
367.840	16.547	1062.602	801.344
368.854	16.645	1062.269	801.485
369.869	16.488	1061.673	800.222
370.883	16.527	1060.467	799.429
371.898	16.493	1060.224	799.014
372.913	16.481	1059.089	798.033
373.927	16.515	1058.688	797.817
374.942	16.675	1058.290	798.205
375.956	16.478	1057.967	796.962
376.971	16.449	1057.517	796.412
377.986	16.730	1056.629	796.998
379.000	16.660	1056.148	796.233
380.015	16.655	1055.645	795.763
381.029	16.618	1054.910	794.965
382.044	16.725	1054.040	794.740
383.059	16.859	1053.454	794.857
384.073	16.728	1052.978	793.813
385.088	16.709	1052.138	793.022
386.102	16.913	1050.578	792.728
387.117	16.702	1050.153	791.350
388.132	16.734	1049.250	790.749
389.146	16.840	1048.402	790.537
390.161	16.731	1047.696	789.426
391.175	16.744	1047.010	788.900
392.190	16.752	1046.591	788.550
393.205	16.920	1045.709	788.599
394.219	16.839	1044.877	787.526
395.234	16.817	1044.101	786.767
396.248	16.771	1043.257	785.850
397.263	16.717	1042.407	784.890
398.278	16.853	1041.352	784.654
399.292	16.749	1040.563	783.507
400.307	16.743	1040.209	783.148
401.321	16.742	1039.594	782.610
402.336	16.732	1039.194	782.191
403.350	16.802	1038.011	781.554
404.365	16.818	1037.617	781.264
405.380	16.720	1037.054	780.316
406.394	16.776	1036.257	779.908
407.409	16.917	1035.301	779.769
408.423	16.917	1034.584	779.158
409.438	17.079	1034.106	779.473
410.453	17.120	1033.258	778.954
411.467	17.148	1032.737	778.621
412.482	17.076	1031.884	777.577
413.496	17.201	1031.218	777.581
414.511	17.204	1030.914	777.296
415.526	17.221	1030.816	777.231
416.540	17.193	1030.127	776.514
417.555	17.254	1029.545	776.286
418.569	17.176	1028.894	775.368
419.584	17.260	1028.356	775.277
420.599	17.392	1027.698	775.316
421.613	99.760	1314.822	1446.355
422.628	91.225	1356.652	1446.447
