DTS Sentinel unit serial number:	SN413079Multiplexer serial number:	ORYXHardware model number:	OX4-SRSoftware version number:	ORYX F/W v4.00 Oryx Data Collector v3.7.2.0data status	okinstallation	princeton_trtdifferential loss correction	single-endedforward channel	channel 2reverse channel	N/Adate	2019/09/17time	16:39:35forward acquisition time	60.00reverse acquisition time	0.00gamma	496.2192k internal	0.2292k external	0.2292temperature offset calibration	0.9980default loss term (dB/km)	0.3790temperature slope calibration	1.0000multiplexer offset coefficient	1.0000multiplexer slope coefficient	1.0000fibre end	0.00T internal ref (°C)	41.94T ext. ref 1 (°C)	0.35T ext. ref 2 (°C)	38.74length (m)	temperature (°C)	Stokes	anti-Stokes-747.200	-51.467	0.300	-0.143
-746.185	394.528	0.105	0.224
-745.171	800.000	0.054	0.224
-744.156	125.238	0.296	0.382
-743.142	-200.000	0.030	0.399
-742.127	-63.804	0.229	0.096
-741.112	-45.545	0.090	0.046
-740.098	502.428	-0.199	0.470
-739.083	30.190	0.299	0.261
-738.069	-200.000	0.030	0.195
-737.054	-85.367	-0.149	-0.048
-736.039	-0.676	-0.432	0.313
-735.025	-134.868	0.228	0.028
-734.010	22.398	-0.193	0.162
-732.996	173.066	-0.148	-0.218
-731.981	127.881	-0.163	0.212
-730.966	-200.000	0.008	0.062
-729.952	-165.917	-0.176	0.008
-728.937	15.809	-0.177	0.143
-727.923	-200.000	-0.024	-0.217
-726.908	-74.019	0.161	-0.060
-725.894	-45.353	-0.186	0.094
-724.879	-33.852	-0.186	0.105
-723.864	-200.000	-0.002	-0.039
-722.850	-200.000	-0.030	0.288
-721.835	-96.712	-0.088	0.024
-720.821	267.922	-0.060	-0.108
-719.806	-200.000	0.040	0.220
-718.791	177.905	-0.120	-0.179
-717.777	153.678	0.157	-0.220
-716.762	-57.551	0.135	0.060
-715.748	-9.559	-0.124	-0.084
-714.733	593.817	-0.025	-0.064
-713.718	800.000	0.029	0.127
-712.704	-200.000	-0.013	-0.138
-711.689	-140.887	-0.045	-0.005
-710.675	800.000	-0.061	0.258
-709.660	96.746	0.047	0.055
-708.645	-82.441	0.056	-0.019
-707.631	-200.000	-0.001	0.047
-706.616	-75.897	0.051	-0.018
-705.602	4.802	-0.312	-0.235
-704.587	800.000	0.069	0.234
-703.572	-200.000	-0.019	-0.352
-702.558	175.867	-0.074	0.110
-701.543	88.663	-0.179	-0.203
-700.529	-200.000	0.018	0.304
-699.514	225.029	0.138	0.228
-698.499	216.471	-0.076	-0.123
-697.485	564.255	-0.133	-0.330
-696.470	542.028	-0.172	0.419
-695.456	-20.304	-0.244	0.154
-694.441	265.079	0.127	-0.226
-693.426	-116.967	0.336	0.063
-692.412	7.244	0.080	-0.061
-691.397	-11.138	-0.147	0.099
-690.383	-160.742	-0.160	-0.009
-689.368	11.158	0.107	-0.083
-688.354	59.342	-0.085	0.085
-687.339	-128.677	0.147	0.021
-686.324	-200.000	-0.016	-0.093
-685.310	-131.467	0.027	0.004
-684.295	-200.000	-0.014	0.223
-683.281	-44.289	-0.174	0.089
-682.266	124.374	0.072	0.092
-681.251	-200.000	-0.079	0.376
-680.237	465.628	0.091	0.208
-679.222	800.000	-0.082	-0.334
-678.208	-48.741	0.118	0.058
-677.193	-200.000	-0.022	-0.277
-676.178	800.000	-0.066	-0.223
-675.164	286.505	0.160	-0.294
-674.149	86.558	-0.068	0.076
-673.135	800.000	-0.051	0.156
-672.120	800.000	-0.102	0.354
-671.105	-35.892	0.161	-0.089
-670.091	-18.712	-0.181	0.115
-669.076	-38.184	0.224	0.121
-668.062	194.544	0.150	0.233
-667.047	-97.344	-0.343	0.091
-666.032	-200.000	-0.033	0.258
-665.018	-200.000	0.043	0.307
-664.003	635.655	-0.064	0.166
-662.989	54.694	-0.094	-0.092
-661.974	-3.646	0.338	0.240
-660.959	220.194	-0.124	-0.203
-659.945	-106.007	0.263	0.060
-658.930	124.787	0.186	-0.239
-657.916	35.668	0.448	-0.401
-656.901	-200.000	0.011	-0.265
-655.886	800.000	-0.150	-0.458
-654.872	225.914	-0.054	0.089
-653.857	208.066	0.169	0.270
-652.843	-200.000	-0.051	0.244
-651.828	800.000	-0.047	0.184
-650.814	-200.000	0.038	0.257
-649.799	-200.000	-0.035	0.399
-648.784	-171.347	-0.191	0.007
-647.770	-72.383	-0.131	0.049
-646.755	-72.141	0.235	0.089
-645.741	-148.921	0.037	0.003
-644.726	-69.642	0.125	0.049
-643.711	-103.219	0.145	0.035
-642.697	-13.331	0.335	0.221
-641.682	-200.000	-0.015	-0.554
-640.668	-200.000	-0.031	-0.227
-639.653	-117.329	0.360	-0.067
-638.638	408.853	-0.033	0.072
-637.624	-177.232	0.402	0.010
-636.609	800.000	0.036	0.109
-635.595	16.033	0.100	-0.080
-634.580	-78.690	0.205	0.071
-633.565	89.345	0.079	0.090
-632.551	-200.000	-0.041	0.311
-631.536	383.031	0.080	0.168
-630.522	74.226	-0.143	0.153
-629.507	103.874	-0.133	-0.159
-628.492	-90.806	-0.194	-0.057
-627.478	82.501	0.248	-0.275
-626.463	780.614	0.090	0.252
-625.449	244.369	-0.189	0.324
-624.434	159.725	-0.283	-0.402
-623.419	-82.088	-0.192	0.064
-622.405	-200.000	-0.009	-0.073
-621.390	58.522	0.227	-0.227
-620.376	3.881	-0.084	0.062
-619.361	622.758	-0.095	-0.245
-618.346	800.000	-0.028	0.114
-617.332	-85.432	-0.060	0.019
-616.317	800.000	0.051	0.198
-615.303	-43.851	-0.159	-0.081
-614.288	-139.930	-0.315	0.034
-613.273	-200.000	-0.002	-0.195
-612.259	195.921	0.065	-0.101
-611.244	-18.109	-0.240	-0.153
-610.230	598.957	-0.102	-0.258
-609.215	89.499	-0.217	0.247
-608.201	51.212	0.100	0.097
-607.186	-101.679	-0.361	0.089
-606.171	-200.000	0.034	-0.160
-605.157	-200.000	-0.022	0.105
-604.142	76.693	-0.193	-0.208
-603.128	800.000	-0.009	0.033
-602.113	523.515	0.109	0.260
-601.098	-5.981	0.135	-0.094
-600.084	-184.171	0.149	0.003
-599.069	-119.874	-0.075	-0.013
-598.055	211.550	-0.059	-0.095
-597.040	374.006	-0.053	0.109
-596.025	242.383	0.119	-0.203
-595.011	-200.000	-0.035	-0.317
-593.996	107.130	-0.046	-0.056
-592.982	-111.115	0.163	0.034
-591.967	-44.072	-0.183	-0.093
-590.952	-153.376	0.274	0.019
-589.938	-95.537	-0.315	-0.086
-588.923	-200.000	-0.008	0.132
-587.909	38.341	0.178	0.162
-586.894	-119.312	-0.101	-0.018
-585.879	-200.000	-0.048	-0.217
-584.865	-158.191	-0.071	-0.004
-583.850	243.914	0.246	0.419
-582.836	81.417	0.164	0.180
-581.821	-200.000	0.028	-0.228
-580.806	-116.885	-0.315	0.059
-579.792	123.027	-0.162	-0.206
-578.777	-93.587	0.383	0.108
-577.763	-200.000	0.022	0.383
-576.748	-200.000	-0.009	-0.077
-575.733	-119.333	0.310	-0.055
-574.719	97.620	-0.139	-0.163
-573.704	-32.719	-0.222	-0.125
-572.690	800.000	0.056	-0.228
-571.675	8.629	-0.076	0.058
-570.661	-7.910	0.215	0.148
-569.646	143.817	-0.104	-0.141
-568.631	371.529	-0.010	-0.021
-567.617	89.386	0.069	0.078
-566.602	800.000	0.037	0.125
-565.588	29.749	0.141	0.122
-564.573	502.274	-0.122	0.287
-563.558	800.000	0.117	-0.416
-562.544	-66.954	0.055	-0.022
-561.529	-200.000	-0.019	-0.099
-560.515	-88.002	0.152	-0.046
-559.500	168.969	0.080	0.115
-558.485	-47.597	-0.144	0.071
-557.471	119.607	0.282	-0.355
-556.456	74.419	-0.121	-0.129
-555.442	219.290	-0.058	0.094
-554.427	326.234	-0.086	-0.167
-553.412	-200.000	-0.012	-0.101
-552.398	-94.331	0.144	-0.040
-551.383	-200.000	0.010	0.197
-550.369	-31.517	-0.370	0.211
-549.354	-53.100	-0.393	0.183
-548.339	-156.846	0.409	-0.026
-547.325	99.953	-0.105	-0.124
-546.310	-155.058	0.043	-0.003
-545.296	116.146	0.181	0.225
-544.281	-37.831	0.138	-0.075
-543.266	-100.651	-0.132	-0.033
-542.252	327.541	0.046	0.089
-541.237	-14.012	0.138	0.090
-540.223	150.177	-0.123	0.169
-539.208	-76.357	-0.261	-0.093
-538.193	-27.026	-0.135	0.080
-537.179	-164.733	-0.130	-0.006
-536.164	-200.000	0.033	0.313
-535.150	-112.383	-0.358	-0.073
-534.135	-69.040	0.283	-0.111
-533.121	-104.408	-0.271	-0.064
-532.106	-200.000	-0.012	-0.080
-531.091	-200.000	-0.011	-0.181
-530.077	206.841	0.061	-0.097
-529.062	717.614	0.060	0.163
-528.048	-23.565	-0.112	-0.068
-527.033	-22.640	0.197	-0.121
-526.018	57.573	-0.155	-0.154
-525.004	266.803	-0.139	-0.247
-523.989	-135.490	-0.316	0.038
-522.975	120.671	0.113	0.143
-521.960	51.591	-0.036	0.034
-520.945	-155.359	-0.126	-0.008
-519.931	800.000	-0.047	0.198
-518.916	-29.997	-0.403	0.233
-517.902	800.000	-0.067	0.214
-516.887	116.089	0.292	-0.363
-515.872	315.338	-0.049	0.093
-514.858	-200.000	-0.251	-0.000
-513.843	-63.936	-0.190	-0.079
-512.829	-200.000	0.013	-0.273
-511.814	743.030	-0.069	0.189
-510.799	675.242	0.111	0.291
-509.785	-31.064	0.266	0.152
-508.770	11.743	-0.094	-0.074
-507.756	800.000	-0.058	0.186
-506.741	-92.323	-0.123	0.035
-505.726	53.557	-0.139	0.136
-504.712	-200.000	0.036	0.217
-503.697	118.926	-0.051	-0.063
-502.683	88.558	-0.171	-0.192
-501.668	367.281	-0.039	0.080
-500.653	-66.011	-0.238	0.096
-499.639	-32.526	-0.172	-0.097
-498.624	-155.883	0.358	0.023
-497.610	800.000	-0.083	-0.258
-496.595	-73.300	0.178	0.066
-495.581	42.281	0.288	0.265
-494.566	-79.713	-0.297	-0.101
-493.551	240.343	-0.104	0.176
-492.537	-32.126	-0.189	0.107
-491.522	272.733	-0.138	-0.248
-490.508	-200.000	-0.014	-0.128
-489.493	398.967	0.053	0.113
-488.478	-35.356	-0.061	0.033
-487.464	86.032	-0.300	0.335
-486.449	317.640	0.088	-0.169
-485.435	1.731	-0.109	-0.079
-484.420	-200.000	0.003	0.181
-483.405	183.080	0.047	0.070
-482.391	70.949	-0.113	-0.119
-481.376	-200.000	0.082	-0.630
-480.362	282.276	0.161	-0.293
-479.347	423.033	-0.087	0.189
-478.332	800.000	0.071	0.259
-477.318	-104.681	0.343	-0.080
-476.303	94.094	0.118	-0.135
-475.289	-44.843	0.211	-0.107
-474.274	179.561	0.136	0.202
-473.259	50.035	0.135	0.129
-472.245	267.008	0.115	0.204
-471.230	-101.624	0.216	-0.053
-470.216	-14.735	-0.179	-0.116
-469.201	-30.123	-0.104	0.060
-468.186	553.556	0.180	0.438
-467.172	152.546	-0.186	-0.257
-466.157	63.259	-0.059	-0.060
-465.143	-40.070	0.335	0.177
-464.128	-15.003	0.103	-0.067
-463.113	136.751	0.152	-0.201
-462.099	86.775	0.132	0.147
-461.084	-200.000	-0.017	-0.263
-460.070	-39.422	-0.151	0.080
-459.055	111.387	0.212	-0.259
-458.040	93.105	-0.174	-0.199
-457.026	-200.000	0.027	-0.206
-456.011	-67.971	0.192	-0.076
-454.997	800.000	-0.079	0.304
-453.982	158.083	0.142	0.200
-452.968	-18.439	0.243	-0.153
-451.953	-171.511	-0.233	0.008
-450.938	80.288	-0.312	-0.340
-449.924	173.689	-0.150	-0.219
-448.909	-200.000	0.027	0.201
-447.895	197.278	0.048	0.075
-446.880	-63.696	-0.076	0.031
-445.865	-67.089	-0.051	-0.020
-444.851	33.751	0.130	0.114
-443.836	106.270	-0.131	0.157
-442.822	-122.160	0.115	0.019
-441.807	-111.263	-0.156	-0.032
-440.792	43.077	-0.222	0.205
-439.778	43.695	-0.237	-0.219
-438.763	5.688	-0.124	0.092
-437.749	344.187	-0.093	-0.184
-436.734	-200.000	-0.411	-0.001
-435.719	414.276	0.167	-0.359
-434.705	297.522	0.083	-0.155
-433.690	-200.000	-0.057	-0.430
-432.676	52.067	-0.237	0.228
-431.661	800.000	-0.008	0.033
-430.646	-53.742	0.296	0.137
-429.632	142.881	0.026	0.035
-428.617	-129.809	-0.120	-0.017
-427.603	-116.905	-0.295	0.055
-426.588	84.910	0.059	-0.065
-425.573	800.000	0.056	-0.213
-424.559	-60.361	0.393	-0.169
-423.544	-89.653	0.181	-0.054
-422.530	193.884	0.082	0.125
-421.515	-110.674	-0.225	-0.047
-420.500	-125.981	-0.090	-0.014
-419.486	91.095	0.046	-0.052
-418.471	-145.156	-0.184	0.017
-417.457	-42.631	-0.111	0.057
-416.442	231.529	0.053	-0.087
-415.428	112.335	0.184	0.225
-414.413	111.494	-0.113	-0.138
-413.398	39.998	-0.185	-0.168
-412.384	78.122	-0.096	-0.103
-411.369	110.076	0.059	0.071
-410.355	-145.348	0.160	-0.015
-409.340	-127.186	-0.298	0.044
-408.325	-200.000	-0.017	0.196
-407.311	431.310	-0.082	0.180
-406.296	-200.000	-0.053	-0.386
-405.282	-93.736	0.234	-0.065
-404.267	-49.082	0.304	0.147
-403.252	364.215	0.106	0.214
-402.238	800.000	-0.057	0.182
-401.223	800.000	-0.027	-0.101
-400.209	419.290	0.103	-0.222
-399.194	800.000	0.018	-0.061
-398.179	6.746	-0.115	-0.086
-397.165	-10.287	0.120	-0.081
-396.150	418.140	-0.111	-0.239
-395.136	3.440	-0.124	0.091
-394.121	143.270	0.224	0.301
-393.106	355.545	0.106	0.212
-392.092	575.781	0.120	0.297
-391.077	-27.951	-0.290	0.169
-390.063	39.528	0.213	0.193
-389.048	-176.155	-0.252	-0.007
-388.033	-49.163	-0.187	0.090
-387.019	-200.000	-0.034	0.267
-386.004	1.644	-0.079	-0.057
-384.990	532.184	-0.101	0.240
-383.975	-130.307	-0.388	0.053
-382.960	-82.719	-0.257	0.084
-381.946	-200.000	0.010	0.156
-380.931	297.198	-0.079	-0.146
-379.917	31.235	-0.132	-0.115
-378.902	-172.106	-0.278	-0.009
-377.888	-11.617	-0.207	0.137
-376.873	119.292	0.100	-0.125
-375.858	-144.649	-0.105	0.010
-374.844	-14.366	-0.105	-0.068
-373.829	215.640	-0.218	0.348
-372.815	44.301	0.123	-0.114
-371.800	345.401	0.034	0.067
-370.785	109.337	0.213	-0.257
-369.771	-149.484	-0.021	-0.002
-368.756	-103.880	0.121	0.029
-367.742	73.353	-0.125	0.131
-366.727	80.996	-0.184	-0.201
-365.712	-79.628	-0.298	-0.101
-364.698	-38.575	-0.154	-0.082
-363.683	363.615	0.020	-0.041
-362.669	-8.082	-0.255	0.173
-361.654	-200.000	-0.084	-0.444
-360.639	-200.000	-0.013	-0.277
-359.625	421.853	-0.085	-0.183
-358.610	800.000	0.021	0.065
-357.596	548.347	0.027	0.065
-356.581	-23.177	0.304	-0.184
-355.566	-22.301	0.145	-0.089
-354.552	800.000	0.077	0.224
-353.537	-72.864	-0.082	-0.030
-352.523	-67.386	0.387	0.153
-351.508	110.009	-0.066	0.080
-350.493	-151.625	-0.401	-0.030
-349.479	473.143	0.108	0.244
-348.464	-200.000	-0.027	0.267
-347.450	-200.000	0.056	-0.282
-346.435	-58.600	0.287	-0.125
-345.420	704.902	0.104	-0.277
-344.406	-200.000	-0.009	-0.096
-343.391	-9.424	0.289	-0.194
-342.377	335.521	0.062	-0.121
-341.362	800.000	-0.126	0.388
-340.348	-41.433	0.465	-0.241
-339.333	-134.658	-0.132	0.016
-338.318	-200.000	-0.012	-0.167
-337.304	-83.032	-0.263	-0.085
-336.289	561.446	0.072	0.176
-335.275	-16.241	0.350	-0.224
-334.260	-71.363	-0.212	-0.080
-333.245	41.247	-0.291	0.265
-332.231	-53.171	0.193	0.089
-331.216	-67.318	0.363	0.144
-330.202	464.017	0.067	-0.151
-329.187	25.652	0.157	0.132
-328.172	-186.449	-0.207	-0.003
-327.158	-200.000	0.031	0.160
-326.143	81.048	0.154	-0.168
-325.129	108.842	0.119	-0.143
-324.114	-120.314	-0.151	0.026
-323.099	137.819	0.244	0.322
-322.085	-200.000	0.027	0.316
-321.070	330.439	0.143	0.277
-320.056	426.562	-0.086	0.186
-319.041	7.611	0.053	0.040
-318.026	-88.785	0.017	0.005
-317.012	-200.000	-0.014	0.280
-315.997	368.723	-0.156	0.318
-314.983	347.037	0.097	-0.193
-313.968	424.881	0.099	-0.214
-312.953	49.821	0.238	-0.226
-311.939	-200.000	0.058	-0.262
-310.924	58.152	0.025	0.024
-309.910	59.639	0.153	-0.152
-308.895	209.553	-0.089	-0.140
-307.880	-75.210	-0.225	0.081
-306.866	-0.217	0.136	-0.097
-305.851	-65.857	0.149	0.060
-304.837	697.338	0.021	-0.055
-303.822	89.316	0.215	-0.240
-302.807	-57.331	0.162	-0.072
-301.793	-198.434	-0.075	0.000
-300.778	-46.411	0.207	0.102
-299.764	10.705	0.131	-0.101
-298.749	83.564	0.124	-0.136
-297.735	-16.682	-0.289	0.184
-296.720	-200.000	-0.007	-0.079
-295.705	-101.393	-0.050	0.012
-294.691	8.444	0.050	0.037
-293.676	-49.912	0.304	-0.145
-292.662	143.544	-0.124	-0.166
-291.647	55.931	-0.379	-0.370
-290.632	-200.000	0.060	-0.684
-289.618	-27.602	0.186	0.108
-288.603	-9.588	-0.135	-0.091
-287.589	800.000	-0.067	-0.223
-286.574	-173.466	0.184	0.006
-285.559	543.851	0.134	0.321
-284.545	784.740	-0.058	-0.160
-283.530	-146.552	-0.047	0.004
-282.516	-23.936	0.179	0.108
-281.501	145.446	-0.156	0.210
-280.486	18.140	-0.243	-0.195
-279.472	800.000	-0.028	0.123
-278.457	31.312	-0.185	-0.159
-277.443	800.000	0.063	0.233
-276.428	289.594	0.177	0.323
-275.413	140.002	-0.136	-0.180
-274.399	71.216	-0.219	-0.229
-273.384	75.025	0.170	-0.180
-272.370	-200.000	-0.019	0.115
-271.355	-0.054	0.259	-0.185
-270.340	37.214	-0.216	-0.192
-269.326	7.294	0.204	0.153
-268.311	65.541	-0.152	0.154
-267.297	26.960	0.116	-0.098
-266.282	-28.287	0.248	0.144
-265.267	-200.000	0.048	0.447
-264.253	81.392	0.115	0.125
-263.238	-200.000	-0.012	-0.109
-262.224	-200.000	0.009	-0.078
-261.209	-36.506	0.117	0.063
-260.195	-115.444	0.217	-0.041
-259.180	-74.002	0.263	0.096
-258.165	-55.283	-0.078	-0.035
-257.151	-134.061	0.045	-0.006
-256.136	-174.819	0.133	-0.004
-255.122	-68.960	0.054	-0.021
-254.107	-5.659	-0.202	-0.139
-253.092	416.433	0.097	0.209
-252.078	-131.156	-0.101	0.013
-251.063	232.771	0.224	-0.369
-250.049	-115.424	0.344	0.065
-249.034	-110.420	0.224	0.047
-248.019	39.421	-0.282	-0.253
-247.005	21.088	-0.129	-0.105
-245.990	374.500	0.059	-0.121
-244.976	-72.058	0.213	-0.079
-243.961	-157.458	-0.043	-0.003
-242.946	-151.265	-0.407	0.031
-241.932	-51.773	-0.037	-0.017
-240.917	-56.133	0.123	-0.055
-239.903	800.000	0.066	0.263
-238.888	-74.063	0.118	-0.043
-237.873	-83.016	0.278	0.090
-236.859	-16.024	0.085	0.054
-235.844	800.000	0.024	-0.080
-234.830	-200.000	0.012	-0.209
-233.815	38.495	-0.174	-0.155
-232.800	160.629	0.116	-0.163
-231.786	-88.588	-0.372	0.111
-230.771	800.000	0.072	-0.267
-229.757	800.000	0.074	0.291
-228.742	-200.000	0.024	0.114
-227.727	-200.000	-0.004	0.233
-226.713	236.488	0.059	0.097
-225.698	133.921	-0.054	0.070
-224.684	-200.000	-0.003	0.085
-223.669	-200.000	0.018	0.168
-222.655	73.521	0.169	0.178
-221.640	654.241	0.079	-0.202
-220.625	800.000	-0.008	-0.030
-219.611	-200.000	0.006	-0.031
-218.596	-7.730	0.319	0.216
-217.582	-169.572	-0.100	0.004
-216.567	241.430	-0.148	-0.248
-215.552	-200.000	-0.006	-0.102
-214.538	-200.000	-0.016	0.236
-213.523	-50.462	-0.507	0.240
-212.509	642.275	-0.125	0.320
-211.494	800.000	0.156	-0.476
-210.479	-175.487	0.391	0.011
-209.465	344.109	0.134	0.264
-208.450	-200.000	0.002	0.142
-207.436	-182.750	0.118	-0.002
-206.421	614.928	0.130	0.327
-205.406	-120.224	-0.235	-0.040
-204.392	241.204	0.037	0.061
-203.377	484.157	-0.098	0.222
-202.363	139.664	-0.252	-0.332
-201.348	-29.331	0.268	-0.154
-200.333	-200.000	0.040	-0.450
-199.319	7.393	0.094	0.070
-198.304	-200.000	-0.048	0.227
-197.290	-132.642	-0.402	-0.052
-196.275	-7.263	0.313	0.212
-195.260	101.535	-0.121	0.141
-194.246	160.074	0.152	-0.212
-193.231	800.000	-0.079	-0.317
-192.217	-200.000	-0.011	0.281
-191.202	310.121	0.046	-0.087
-190.187	550.652	-0.097	0.233
-189.173	73.941	0.178	0.187
-188.158	163.876	-0.070	0.098
-187.144	-68.261	-0.427	-0.166
-186.129	40.118	-0.107	-0.096
-185.114	1.540	-0.221	-0.159
-184.100	87.822	0.110	-0.122
-183.085	800.000	-0.021	-0.058
-182.071	800.000	-0.051	-0.177
-181.056	120.326	0.082	-0.102
-180.042	-62.353	0.180	0.075
-179.027	-60.458	-0.098	-0.042
-178.012	-23.954	-0.204	-0.122
-176.998	-4.854	0.256	-0.176
-175.983	800.000	0.049	0.181
-174.969	-200.000	0.017	-0.081
-173.954	-134.081	0.108	0.013
-172.939	-38.902	-0.018	-0.010
-171.925	-11.238	0.142	0.094
-170.910	123.529	0.164	0.206
-169.896	535.083	-0.044	-0.105
-168.881	296.638	-0.079	-0.145
-167.866	-200.000	-0.045	0.223
-166.852	267.292	-0.128	0.224
-165.837	-17.105	0.112	-0.071
-164.823	-16.807	0.227	-0.144
-163.808	136.631	0.077	0.100
-162.793	59.639	-0.075	-0.074
-161.779	-54.742	0.015	-0.007
-160.764	-118.443	0.429	0.076
-159.750	800.000	0.039	0.127
-158.735	-48.241	-0.443	0.214
-157.720	800.000	-0.094	0.331
-156.706	-200.000	-0.002	0.144
-155.691	307.988	-0.191	0.356
-154.677	734.807	0.220	0.589
-153.662	800.000	-0.102	-0.320
-152.647	-58.480	0.176	-0.076
-151.633	12.214	-0.081	-0.063
-150.618	-8.617	-0.278	0.187
-149.604	275.660	0.137	0.243
-148.589	112.850	0.191	0.232
-147.574	800.000	0.129	-0.398
-146.560	800.000	-0.040	0.113
-145.545	-200.000	-0.043	-0.291
-144.531	-47.394	0.244	-0.119
-143.516	489.773	0.155	-0.354
-142.502	-70.332	-0.144	-0.055
-141.487	-99.757	0.254	-0.064
-140.472	800.000	0.003	0.011
-139.458	-200.000	-0.047	-0.508
-138.443	-104.847	-0.384	-0.088
-137.429	-200.000	0.034	0.183
-136.414	800.000	0.090	-0.334
-135.399	-200.000	0.002	0.163
-134.385	-145.845	-0.161	0.014
-133.370	345.303	0.133	-0.262
-132.356	-122.943	-0.458	0.074
-131.341	-60.862	-0.231	-0.098
-130.326	-109.661	0.074	0.016
-129.312	-96.283	-0.155	0.041
-128.297	254.983	-0.098	-0.168
-127.283	800.000	-0.046	-0.171
-126.268	-39.593	-0.187	0.098
-125.253	26.328	0.112	-0.093
-124.239	800.000	0.062	0.222
-123.224	47.574	0.143	0.133
-122.210	160.124	-0.130	-0.182
-121.195	194.894	-0.239	-0.363
-120.180	-200.000	-0.034	0.427
-119.166	401.183	-0.102	0.214
-118.151	-200.000	-0.017	-0.157
-117.137	-28.926	-0.033	0.019
-116.122	-29.051	0.113	-0.065
-115.107	218.059	-0.107	0.171
-114.093	135.756	-0.181	0.235
-113.078	-200.000	-0.056	0.589
-112.064	432.331	-0.035	0.076
-111.049	-9.838	0.273	0.181
-110.034	-144.412	0.252	-0.023
-109.020	-158.823	-0.273	0.016
-108.005	514.269	0.071	-0.165
-106.991	385.127	-0.134	-0.276
-105.976	-200.000	0.013	-0.618
-104.962	634.515	-0.100	0.252
-103.947	-200.000	0.014	-0.108
-102.932	-200.000	0.034	0.392
-101.918	220.391	-0.094	-0.150
-100.903	-138.473	0.415	-0.046
-99.889	-200.000	0.162	0.001
-98.874	-200.000	-0.054	0.332
-97.859	-129.387	-0.164	0.023
-96.845	48.729	-0.344	-0.322
-95.830	468.278	-0.108	-0.241
-94.816	32.500	-0.043	-0.037
-93.801	-35.056	-0.206	0.112
-92.786	-101.337	-0.628	0.153
-91.772	146.116	0.218	-0.292
-90.757	-200.000	-0.004	0.181
-89.743	4.638	-0.194	-0.142
-88.728	151.694	0.064	0.087
-87.713	800.000	-0.020	-0.073
-86.699	70.973	0.173	0.179
-85.684	328.029	-0.131	-0.252
-84.670	-109.703	0.164	-0.034
-83.655	125.796	-0.145	-0.182
-82.640	-200.000	0.006	0.127
-81.626	-178.045	-0.303	-0.007
-80.611	5.231	-0.324	0.238
-79.597	-200.000	0.253	-0.001
-78.582	175.043	-0.042	-0.060
-77.567	-127.170	-0.109	0.016
-76.553	-88.722	0.264	0.078
-75.538	178.326	-0.189	0.275
-74.524	-200.000	-0.029	0.214
-73.509	434.866	0.204	0.443
-72.494	800.000	0.042	-0.129
-71.480	31.323	-0.161	-0.138
-70.465	-31.448	-0.085	0.048
-69.451	-69.865	-0.175	0.067
-68.436	-67.616	-0.091	0.036
-67.422	39.666	-0.208	0.186
-66.407	-37.575	-0.181	0.096
-65.392	91.605	0.309	-0.346
-64.378	92.489	0.225	-0.253
-63.363	-173.567	0.364	-0.011
-62.349	139.200	-0.164	0.215
-61.334	36.671	-0.829	-0.730
-60.319	90.701	-0.058	-0.065
-59.305	-200.000	0.200	-1.115
-58.290	219.185	0.296	0.472
-57.276	782.523	0.646	1.762
-56.261	-200.000	76.217	546.144
-55.246	507.446	1362.499	3149.640
-54.232	134.500	2624.005	3390.760
-53.217	110.301	2390.259	2860.209
-52.203	51.375	1995.358	1887.587
-51.188	45.278	1781.841	1636.905
-50.173	42.440	1735.841	1572.392
-49.159	56.731	1770.033	1716.324
-48.144	62.624	1788.736	1780.785
-47.130	45.324	1751.285	1608.940
-46.115	41.980	1737.851	1570.360
-45.100	41.811	1733.563	1565.094
-44.086	41.848	1730.763	1562.797
-43.071	41.776	1727.791	1559.492
-42.057	41.777	1725.404	1557.281
-41.042	41.821	1723.245	1555.611
-40.027	41.836	1721.369	1553.972
-39.013	41.753	1719.263	1551.369
-37.998	41.893	1717.011	1550.358
-36.984	41.890	1716.255	1549.590
-35.969	41.930	1714.832	1548.556
-34.954	42.158	1712.234	1547.910
-33.940	41.973	1711.053	1545.353
-32.925	41.880	1709.321	1543.004
-31.911	42.041	1707.139	1542.218
-30.896	41.912	1705.280	1539.481
-29.881	41.887	1703.721	1537.825
-28.867	41.972	1701.349	1536.275
-27.852	41.982	1700.324	1535.361
-26.838	41.854	1698.958	1533.085
-25.823	41.852	1697.293	1531.507
-24.809	41.975	1695.996	1531.217
-23.794	41.950	1694.640	1529.740
-22.779	41.968	1692.690	1528.060
-21.765	41.988	1691.050	1526.670
-20.750	41.926	1689.670	1524.891
-19.736	41.985	1687.768	1523.566
-18.721	42.020	1685.882	1522.068
-17.706	41.943	1684.509	1520.182
-16.692	41.974	1682.901	1518.904
-15.677	41.963	1681.002	1517.047
-14.663	41.933	1679.876	1515.744
-13.648	41.952	1678.888	1514.939
-12.633	41.904	1677.488	1513.250
-11.619	41.896	1675.635	1511.459
-10.604	41.943	1673.450	1509.786
-9.590	41.969	1672.519	1509.082
-8.575	41.889	1671.433	1507.439
-7.560	41.972	1669.989	1506.698
-6.546	42.076	1668.650	1506.212
-5.531	41.919	1667.956	1504.349
-4.517	41.898	1666.606	1502.908
-3.502	41.953	1665.216	1502.014
-2.487	41.996	1663.810	1501.008
-1.473	42.028	1653.499	1491.885
-0.458	40.012	1633.002	1458.471
0.556	33.773	1630.032	1414.630
1.571	29.817	1650.732	1402.544
2.586	27.965	1664.032	1399.547
3.600	24.433	1609.499	1327.348
4.615	13.556	1487.273	1151.253
5.629	2.948	1411.217	1022.012
6.644	0.543	1400.172	998.035
7.659	0.395	1398.923	996.079
8.673	0.278	1397.573	994.260
9.688	0.185	1396.516	992.806
10.702	0.080	1393.434	989.834
11.717	4.007	1400.087	1020.399
12.731	13.321	1415.563	1093.419
13.746	18.245	1421.369	1130.410
14.761	17.493	1418.696	1123.227
15.775	16.510	1415.885	1114.425
16.790	15.431	1413.342	1105.225
17.804	14.502	1411.027	1097.208
18.819	14.154	1408.954	1093.207
19.834	13.855	1407.816	1090.270
20.848	13.558	1406.673	1087.338
21.863	13.369	1405.123	1084.805
22.877	13.224	1404.136	1082.994
23.892	13.107	1403.098	1081.334
24.907	13.170	1402.317	1081.043
25.921	13.049	1401.498	1079.527
26.936	13.118	1400.049	1078.767
27.950	13.246	1399.153	1078.818
28.965	13.299	1398.394	1078.484
29.980	13.449	1397.294	1078.516
30.994	13.396	1396.473	1077.444
32.009	13.436	1395.357	1076.743
33.023	13.344	1394.631	1075.488
34.038	13.378	1393.036	1074.384
35.053	13.329	1391.908	1073.107
36.067	13.296	1391.137	1072.198
37.082	13.376	1389.816	1071.607
38.096	13.433	1388.768	1071.070
39.111	13.354	1388.161	1070.001
40.126	13.304	1387.625	1069.164
41.140	13.225	1386.559	1067.741
42.155	13.200	1386.391	1067.356
43.169	13.197	1386.273	1067.152
44.184	13.136	1385.460	1066.035
45.199	13.168	1385.591	1066.248
46.213	13.165	1384.350	1065.180
47.228	13.280	1383.469	1065.153
48.242	13.292	1381.944	1063.959
49.257	13.335	1380.393	1062.944
50.271	13.164	1379.688	1061.208
51.286	13.312	1378.017	1060.781
52.301	13.249	1376.395	1059.036
53.315	13.229	1375.181	1057.880
54.330	13.253	1374.261	1057.234
55.344	13.226	1373.162	1056.123
56.359	13.200	1372.175	1055.105
57.374	13.157	1371.467	1054.189
58.388	13.132	1370.762	1053.392
59.403	13.047	1370.324	1052.426
60.417	13.082	1369.803	1052.152
61.432	13.058	1368.669	1051.036
62.447	13.098	1367.276	1050.125
63.461	13.119	1366.260	1049.390
64.476	13.083	1364.726	1047.886
65.490	13.067	1363.211	1046.531
66.505	13.064	1362.284	1045.707
67.520	13.146	1360.639	1044.874
68.534	13.156	1359.601	1044.045
69.549	13.051	1358.462	1042.417
70.563	13.150	1357.367	1042.110
71.578	13.042	1356.314	1040.523
72.593	13.018	1355.211	1039.437
73.607	12.986	1354.940	1038.934
74.622	13.022	1353.501	1037.968
75.636	13.024	1353.012	1037.514
76.651	12.996	1352.127	1036.563
77.666	12.970	1351.830	1036.080
78.680	12.990	1351.041	1035.510
79.695	13.031	1350.313	1035.117
80.709	13.163	1348.697	1034.617
81.724	13.104	1348.323	1033.871
82.739	13.242	1346.769	1033.447
83.753	13.248	1346.563	1033.233
84.768	13.242	1345.563	1032.341
85.782	13.292	1343.937	1031.313
86.797	13.253	1342.876	1030.164
87.812	13.282	1341.815	1029.442
88.826	13.134	1340.372	1027.321
89.841	13.176	1339.526	1026.841
90.855	13.279	1338.033	1026.246
91.870	13.288	1337.319	1025.665
92.884	13.267	1336.770	1025.025
93.899	13.251	1335.781	1024.075
94.914	13.382	1334.577	1023.869
95.928	13.387	1333.828	1023.234
96.943	13.335	1332.969	1022.166
97.957	13.333	1332.437	1021.655
98.972	13.398	1330.892	1020.779
99.987	13.275	1329.886	1019.159
101.001	13.305	1328.847	1018.462
102.016	13.244	1328.119	1017.435
103.030	13.297	1326.633	1016.536
104.045	13.298	1326.167	1016.093
105.060	13.360	1324.383	1015.013
106.074	13.244	1323.216	1013.320
107.089	13.109	1322.336	1011.729
108.103	13.132	1320.696	1010.525
109.118	13.159	1319.799	1009.919
110.133	13.131	1318.197	1008.430
111.147	13.169	1316.788	1007.496
112.162	13.162	1315.331	1006.246
113.176	13.179	1314.804	1005.857
114.191	13.258	1313.544	1005.287
115.206	13.236	1312.270	1004.091
116.220	13.275	1310.776	1003.094
117.235	13.270	1309.576	1002.055
118.249	13.279	1308.669	1001.332
119.264	13.194	1308.026	1000.234
120.279	13.173	1307.056	999.276
121.293	13.338	1305.537	999.026
122.308	13.164	1304.527	997.112
123.322	13.117	1303.638	996.062
124.337	13.116	1302.623	995.190
125.352	13.164	1301.386	994.444
126.366	13.201	1299.804	993.371
127.381	13.253	1298.608	992.684
128.395	13.213	1298.054	991.934
129.410	13.243	1296.671	990.965
130.424	13.206	1296.383	990.435
131.439	13.328	1295.102	990.100
132.454	13.345	1294.292	989.494
133.468	13.287	1293.419	988.394
134.483	13.322	1292.832	988.070
135.497	13.289	1291.772	986.973
136.512	13.306	1290.225	985.803
137.527	13.348	1288.845	984.915
138.541	13.258	1287.510	983.273
139.556	13.353	1285.846	982.475
140.570	13.412	1284.819	981.954
141.585	13.503	1283.276	981.231
142.600	13.509	1282.126	980.296
143.614	13.471	1281.490	979.503
144.629	13.408	1280.303	978.133
145.643	13.282	1279.490	976.681
146.658	13.444	1277.866	976.314
147.673	13.259	1276.716	974.254
148.687	13.350	1275.277	973.605
149.702	13.417	1273.910	972.874
150.716	13.262	1272.544	970.832
151.731	13.245	1271.362	969.745
152.746	13.328	1269.988	969.096
153.760	13.422	1268.636	968.528
154.775	13.466	1267.417	967.772
155.789	13.386	1266.755	966.715
156.804	13.429	1265.641	966.027
157.819	13.453	1264.523	965.228
158.833	13.517	1263.734	964.916
159.848	13.463	1262.862	963.851
160.862	13.458	1261.945	963.034
161.877	13.424	1260.691	961.796
162.892	13.440	1259.651	961.010
163.906	13.433	1258.818	960.246
164.921	13.445	1257.495	959.226
165.935	13.475	1256.649	958.669
166.950	13.572	1256.013	958.661
167.964	13.569	1254.907	957.711
168.979	13.602	1254.223	957.296
169.994	13.564	1253.946	956.778
171.008	13.650	1253.185	956.609
172.023	13.563	1252.235	955.302
173.037	13.641	1251.510	955.110
174.052	13.573	1250.565	953.915
175.067	13.547	1249.039	952.519
176.081	13.553	1248.198	951.827
177.096	13.557	1247.225	951.020
178.110	13.582	1246.139	950.255
179.125	13.597	1244.911	949.318
180.140	13.587	1243.772	948.310
181.154	13.638	1242.378	947.454
182.169	13.671	1241.205	946.666
183.183	13.612	1240.128	945.421
184.198	13.760	1238.717	945.107
185.213	13.726	1237.420	943.840
186.227	13.748	1236.509	943.185
187.242	13.835	1235.097	942.519
188.256	13.830	1234.162	941.694
189.271	13.825	1233.155	940.817
190.286	13.820	1232.235	939.999
191.300	13.610	1231.550	938.207
192.315	13.715	1230.785	938.136
193.329	13.692	1229.886	937.239
194.344	13.663	1229.501	936.695
195.359	13.697	1228.921	936.365
196.373	13.824	1228.324	936.545
197.388	13.782	1228.011	935.985
198.402	13.864	1227.762	936.174
199.417	13.946	1226.553	935.633
200.432	13.982	1225.860	935.224
201.446	13.975	1225.137	934.551
202.461	14.076	1223.752	933.978
203.475	14.056	1222.967	933.180
204.490	14.030	1221.545	931.869
205.504	14.009	1220.075	930.548
206.519	14.003	1219.444	929.950
207.534	13.968	1218.034	928.596
208.548	14.045	1216.727	927.949
209.563	13.984	1216.340	927.234
210.577	14.030	1215.118	926.475
211.592	14.046	1214.499	926.009
212.607	14.236	1213.064	925.892
213.621	14.043	1212.800	924.534
214.636	14.181	1211.509	924.237
215.650	14.137	1210.461	923.109
216.665	14.191	1209.700	922.746
217.680	14.189	1208.865	922.018
218.694	14.223	1207.736	921.264
219.709	14.149	1207.593	920.661
220.723	14.243	1206.764	920.471
221.738	14.230	1206.043	919.767
222.753	14.204	1205.120	918.837
223.767	14.245	1204.501	918.508
224.782	14.290	1203.796	918.141
225.796	14.346	1202.983	917.745
226.811	14.391	1202.120	917.253
227.826	14.350	1201.436	916.427
228.840	14.242	1200.719	915.202
229.855	14.262	1199.989	914.676
230.869	14.328	1199.108	914.288
231.884	14.289	1198.254	913.341
232.899	14.323	1197.161	912.614
233.913	14.414	1196.539	912.556
234.928	14.230	1196.320	911.299
235.942	14.247	1194.942	910.266
236.957	14.236	1194.352	909.672
237.972	14.364	1193.639	909.749
238.986	14.367	1192.936	909.151
240.001	14.340	1192.333	908.462
241.015	14.409	1190.992	907.737
242.030	14.464	1190.238	907.382
243.045	14.461	1189.592	906.794
244.059	14.507	1188.696	906.277
245.074	14.469	1188.083	905.523
246.088	14.462	1187.327	904.830
247.103	14.548	1186.258	904.402
248.117	14.469	1185.982	903.680
249.132	14.580	1185.238	903.637
250.147	14.584	1184.232	902.811
251.161	14.720	1183.319	902.770
252.176	14.818	1182.780	902.808
253.190	14.806	1182.383	902.363
254.205	14.749	1181.732	901.480
255.220	14.812	1180.990	901.173
256.234	14.861	1180.277	900.811
257.249	14.899	1179.336	900.217
258.263	14.889	1178.883	899.740
259.278	14.860	1178.186	898.972
260.293	14.985	1177.628	899.136
261.307	14.934	1177.034	898.333
262.322	14.896	1176.548	897.675
263.336	14.929	1175.625	897.068
264.351	14.894	1175.316	896.566
265.366	15.080	1173.982	896.466
266.380	15.081	1173.262	895.842
267.395	14.882	1172.992	894.494
268.409	14.911	1172.310	894.051
269.424	14.967	1171.423	893.591
270.439	14.884	1171.073	892.804
271.453	14.972	1170.205	892.529
272.468	15.021	1169.120	891.884
273.482	14.957	1168.255	890.804
274.497	15.041	1167.754	890.792
275.512	15.012	1167.081	890.043
276.526	14.977	1166.390	889.253
277.541	15.011	1165.721	888.849
278.555	15.037	1165.260	888.552
279.570	15.147	1163.937	888.052
280.585	15.199	1163.269	887.735
281.599	15.174	1162.323	886.803
282.614	15.164	1161.040	885.692
283.628	15.202	1160.050	885.062
284.643	15.192	1159.282	884.344
285.657	15.196	1158.331	883.559
286.672	15.349	1157.288	883.495
287.687	15.343	1156.763	882.982
288.701	15.257	1155.811	881.728
289.716	15.202	1155.170	880.871
290.730	15.342	1154.383	880.930
291.745	15.245	1153.594	879.736
292.760	15.397	1153.112	880.089
293.774	15.410	1152.396	879.534
294.789	15.383	1151.807	878.867
295.803	15.392	1151.153	878.333
296.818	15.378	1150.276	877.513
297.833	15.372	1149.640	876.923
298.847	15.360	1148.918	876.230
299.862	15.338	1147.825	875.202
300.876	15.455	1147.554	875.531
301.891	15.383	1147.152	874.772
302.906	15.426	1146.103	874.115
303.920	15.546	1145.319	874.066
304.935	15.589	1144.415	873.524
305.949	15.683	1143.728	873.408
306.964	15.595	1143.345	872.581
307.979	15.532	1142.699	871.684
308.993	15.606	1141.885	871.373
310.008	15.631	1140.704	870.524
311.022	15.637	1140.018	869.952
312.037	15.665	1139.219	869.409
313.052	15.522	1138.264	867.865
314.066	15.599	1137.598	867.678
315.081	15.520	1136.670	866.485
316.095	15.627	1135.882	866.363
317.110	15.534	1135.000	865.132
318.125	15.631	1134.241	864.976
319.139	15.582	1133.563	864.129
320.154	15.684	1132.411	863.703
321.168	15.599	1132.618	863.345
322.183	15.681	1131.227	862.629
323.197	15.605	1130.942	861.948
324.212	15.655	1130.116	861.497
325.227	15.775	1129.773	861.774
326.241	15.767	1128.819	860.931
327.256	15.687	1128.555	860.243
328.270	15.681	1127.284	859.164
329.285	15.725	1126.132	858.439
330.300	15.665	1125.608	857.656
331.314	15.785	1124.533	857.370
332.329	15.740	1123.981	856.645
333.343	15.832	1122.528	855.933
334.358	15.853	1121.579	855.238
335.373	15.807	1121.273	854.697
336.387	15.794	1120.903	854.273
337.402	15.906	1119.584	853.760
338.416	15.922	1119.207	853.476
339.431	15.918	1118.644	852.952
340.446	16.024	1118.007	852.930
341.460	16.021	1116.991	852.063
342.475	16.167	1116.017	851.980
343.489	16.019	1115.599	850.838
344.504	16.046	1114.433	850.012
345.519	16.141	1113.856	849.977
346.533	16.190	1112.946	849.452
347.548	16.212	1111.975	848.746
348.562	16.297	1110.895	848.275
349.577	16.156	1109.998	846.805
350.592	16.163	1109.179	846.140
351.606	16.121	1108.542	845.369
352.621	16.097	1108.126	844.859
353.635	16.028	1107.375	843.863
354.650	16.225	1106.407	844.038
355.665	16.252	1105.680	843.541
356.679	16.118	1105.405	842.589
357.694	16.205	1104.710	842.419
358.708	16.265	1104.157	842.220
359.723	16.188	1103.267	841.084
360.738	16.192	1102.698	840.595
361.752	16.245	1102.033	840.282
362.767	16.248	1101.557	839.857
363.781	16.287	1100.901	839.476
364.796	16.306	1100.462	839.163
365.810	16.386	1099.810	838.989
366.825	16.400	1099.185	838.505
367.840	16.484	1098.878	838.614
368.854	16.525	1097.936	838.025
369.869	16.504	1097.256	837.325
370.883	16.507	1096.160	836.433
371.898	16.408	1095.880	835.656
372.913	16.460	1094.866	835.064
373.927	16.411	1094.542	834.503
374.942	16.505	1094.055	834.519
375.956	16.491	1093.514	833.966
376.971	16.548	1092.958	833.747
377.986	16.585	1092.295	833.352
379.000	16.615	1091.597	832.891
380.015	16.729	1090.737	832.724
381.029	16.701	1090.403	832.255
382.044	16.619	1089.574	831.147
383.059	16.778	1088.935	831.367
384.073	16.762	1088.124	830.597
385.088	16.744	1087.100	829.652
386.102	16.760	1086.523	829.217
387.117	16.808	1084.972	828.194
388.132	16.703	1084.242	827.051
389.146	16.653	1083.485	826.158
390.161	16.582	1083.227	825.538
391.175	16.744	1082.271	825.528
392.190	16.824	1081.783	825.473
393.205	16.869	1080.653	824.755
394.219	17.015	1079.496	824.509
395.234	16.825	1078.928	823.078
396.248	16.764	1078.164	822.128
397.263	16.816	1077.030	821.442
398.278	16.721	1076.368	820.406
399.292	16.689	1075.335	819.390
400.307	16.722	1075.144	819.331
401.321	16.850	1074.168	819.135
402.336	16.864	1073.399	818.544
403.350	16.837	1072.569	817.708
404.365	16.817	1071.706	816.879
405.380	16.977	1071.041	817.071
406.394	17.064	1070.478	816.988
407.409	17.039	1069.536	816.080
408.423	17.076	1068.903	815.702
409.438	17.091	1068.156	815.128
410.453	17.010	1068.134	814.655
411.467	17.165	1066.898	814.382
412.482	17.071	1066.404	813.481
413.496	17.216	1065.949	813.756
414.511	17.267	1065.226	813.376
415.526	17.289	1064.400	812.779
416.540	17.415	1063.538	812.649
417.555	17.279	1063.592	811.972
418.569	17.170	1062.952	810.889
419.584	17.276	1062.690	811.125
420.599	17.132	1062.245	810.027
421.613	81.796	1289.683	1342.670
422.628	75.510	1322.850	1342.800
