DTS Sentinel unit serial number:	SN413079Multiplexer serial number:	ORYXHardware model number:	OX4-SRSoftware version number:	ORYX F/W v4.00 Oryx Data Collector v3.7.2.0data status	okinstallation	princeton_trtdifferential loss correction	single-endedforward channel	channel 2reverse channel	N/Adate	2019/09/16time	03:31:35forward acquisition time	60.00reverse acquisition time	0.00gamma	496.2192k internal	0.2334k external	0.2334temperature offset calibration	0.9970default loss term (dB/km)	0.3790temperature slope calibration	1.0000multiplexer offset coefficient	1.0000multiplexer slope coefficient	1.0000fibre end	0.00T internal ref (°C)	27.67T ext. ref 1 (°C)	10.56T ext. ref 2 (°C)	21.61length (m)	temperature (°C)	Stokes	anti-Stokes-747.200	-38.188	-0.118	-0.063
-746.185	251.811	0.106	0.182
-745.171	800.000	0.077	0.244
-744.156	800.000	0.041	0.117
-743.142	-57.132	-0.181	-0.080
-742.127	-200.000	0.032	0.158
-741.112	-200.000	-0.001	0.073
-740.098	800.000	0.051	0.180
-739.083	8.227	-0.274	0.207
-738.069	-134.755	-0.184	0.022
-737.054	-200.000	-0.101	0.588
-736.039	-153.306	-0.479	0.034
-735.025	-39.358	0.245	-0.129
-734.010	-133.339	-0.261	-0.033
-732.996	-200.000	-0.022	-0.457
-731.981	800.000	-0.055	0.166
-730.966	-60.406	-0.159	0.068
-729.952	200.789	-0.080	0.123
-728.937	9.098	-0.211	-0.160
-727.923	15.358	-0.277	-0.219
-726.908	-196.989	0.411	-0.003
-725.894	140.666	-0.124	0.165
-724.879	70.120	0.043	-0.044
-723.864	197.423	-0.140	-0.214
-722.850	-200.000	-0.002	0.191
-721.835	-111.655	0.126	-0.026
-720.821	-167.506	-0.403	0.016
-719.806	70.045	-0.147	0.153
-718.791	800.000	0.043	-0.152
-717.777	20.042	-0.476	-0.385
-716.762	-200.000	0.017	-0.215
-715.748	-200.000	0.004	-0.573
-714.733	800.000	-0.038	-0.150
-713.718	105.971	0.113	-0.134
-712.704	658.009	0.121	-0.312
-711.689	333.549	0.229	0.444
-710.675	800.000	-0.036	0.125
-709.660	8.011	-0.070	0.053
-708.645	-87.188	-0.368	0.112
-707.631	-14.715	-0.118	0.076
-706.616	-14.610	0.306	0.197
-705.602	-200.000	-0.071	-0.375
-704.587	-81.984	-0.189	-0.062
-703.572	-74.160	0.042	-0.015
-702.558	-68.547	0.075	0.029
-701.543	107.468	-0.084	0.100
-700.529	-26.600	-0.271	0.159
-699.514	-143.993	0.053	-0.005
-698.499	553.183	0.029	-0.071
-697.485	-152.749	-0.239	-0.017
-696.470	-200.000	-0.035	-0.224
-695.456	-200.000	0.016	0.283
-694.441	-3.715	-0.080	0.055
-693.426	152.151	-0.033	0.045
-692.412	-7.460	0.374	-0.254
-691.397	-2.271	-0.248	0.174
-690.383	-163.816	-0.139	-0.007
-689.368	-89.931	-0.338	0.099
-688.354	800.000	0.086	0.248
-687.339	-121.746	-0.515	0.085
-686.324	-65.641	-0.071	-0.028
-685.310	-200.000	0.020	-0.160
-684.295	-94.216	0.245	-0.067
-683.281	397.329	-0.059	-0.125
-682.266	-200.000	-0.064	-0.363
-681.251	149.947	0.140	-0.191
-680.237	87.884	0.219	0.243
-679.222	127.821	-0.039	-0.049
-678.208	-200.000	0.016	-0.420
-677.193	-13.557	0.091	-0.059
-676.178	-200.000	-0.054	-0.405
-675.164	800.000	0.020	0.059
-674.149	282.050	-0.099	0.179
-673.135	-20.701	0.308	0.190
-672.120	-99.010	0.525	-0.133
-671.105	12.220	-0.028	0.022
-670.091	-29.147	0.249	-0.143
-669.076	214.609	-0.063	-0.100
-668.062	800.000	0.022	-0.096
-667.047	54.952	-0.245	-0.237
-666.032	-200.000	0.003	-0.465
-665.018	-124.749	0.138	-0.021
-664.003	-24.801	-0.291	0.173
-662.989	-81.141	0.364	-0.121
-661.974	-200.000	0.021	-0.213
-660.959	244.688	-0.102	0.171
-659.945	-147.590	-0.193	0.016
-658.930	13.409	0.151	0.117
-657.916	-110.639	-0.042	0.009
-656.901	-151.773	0.457	-0.034
-655.886	7.426	0.248	-0.186
-654.872	158.188	0.159	-0.220
-653.857	141.963	0.069	-0.091
-652.843	-8.295	0.122	0.082
-651.828	-200.000	-0.010	-0.072
-650.814	149.874	-0.056	-0.076
-649.799	-200.000	-0.039	-0.368
-648.784	453.585	-0.179	-0.397
-647.770	-200.000	0.013	-0.214
-646.755	58.373	-0.148	0.145
-645.741	72.325	-0.036	-0.037
-644.726	-79.370	0.172	-0.058
-643.711	-15.329	0.270	-0.173
-642.697	-141.495	-0.017	-0.002
-641.682	-3.474	0.185	0.129
-640.668	800.000	0.031	-0.104
-639.653	-95.613	0.086	-0.023
-638.638	-200.000	0.050	0.238
-637.624	-128.414	0.061	0.009
-636.609	-87.795	0.199	-0.060
-635.595	-70.633	0.212	-0.080
-634.580	-200.000	0.025	-0.258
-633.565	20.652	0.096	0.077
-632.551	134.728	0.147	-0.191
-631.536	167.549	-0.067	0.095
-630.522	45.899	0.022	-0.021
-629.507	-200.000	-0.004	-0.221
-628.492	97.619	0.094	-0.108
-627.478	51.389	-0.309	-0.293
-626.463	-200.000	0.012	-0.072
-625.449	-102.524	0.149	-0.036
-624.434	15.059	0.220	-0.172
-623.419	-200.000	0.047	0.315
-622.405	-101.866	0.137	-0.033
-621.390	-77.135	0.228	0.079
-620.376	-165.365	0.415	-0.018
-619.361	140.027	-0.083	0.109
-618.346	-11.662	0.197	-0.130
-617.332	196.088	0.053	-0.081
-616.317	267.767	-0.085	-0.150
-615.303	45.710	0.110	-0.102
-614.288	-169.771	-0.275	-0.010
-613.273	6.240	0.308	-0.229
-612.259	62.310	-0.069	0.069
-611.244	-151.899	-0.152	0.011
-610.230	-34.361	0.409	-0.224
-609.215	438.298	-0.160	-0.348
-608.201	-106.929	0.066	0.015
-607.186	258.102	-0.016	-0.027
-606.171	-123.297	-0.095	0.015
-605.157	-170.586	-0.333	0.012
-604.142	800.000	-0.083	0.239
-603.128	-109.935	-0.176	0.037
-602.113	-198.238	-0.185	0.001
-601.098	223.728	-0.076	0.123
-600.084	-76.203	0.094	-0.033
-599.069	98.037	0.114	-0.131
-598.055	-200.000	-0.001	0.080
-597.040	-200.000	0.013	-0.108
-596.025	-200.000	0.027	0.232
-595.011	540.939	0.135	-0.322
-593.996	406.282	-0.116	-0.245
-592.982	1.277	-0.252	0.181
-591.967	-119.144	0.237	-0.041
-590.952	442.525	0.054	-0.119
-589.938	-74.073	-0.233	-0.084
-588.923	-111.869	0.296	0.060
-587.909	-200.000	0.096	0.446
-586.894	-200.000	-0.040	0.562
-585.879	-66.659	-0.039	-0.015
-584.865	-90.660	-0.376	0.109
-583.850	-52.994	-0.113	0.052
-582.836	-52.132	-0.133	-0.062
-581.821	-141.492	0.282	-0.028
-580.806	-68.926	-0.227	0.088
-579.792	-10.463	-0.315	0.208
-578.777	-161.443	0.288	-0.015
-577.763	800.000	0.028	-0.095
-576.748	-82.129	-0.042	-0.014
-575.733	77.069	0.303	0.322
-574.719	203.026	-0.038	-0.059
-573.704	-69.791	-0.108	-0.041
-572.690	567.149	-0.051	-0.125
-571.675	104.261	-0.049	0.057
-570.661	239.367	0.099	-0.164
-569.646	314.151	0.179	-0.337
-568.631	800.000	0.011	-0.047
-567.617	-200.000	-0.014	-0.128
-566.602	104.547	-0.159	0.187
-565.588	-175.050	-0.343	0.010
-564.573	-200.000	-0.003	0.034
-563.558	800.000	-0.108	-0.308
-562.544	-134.418	0.162	0.020
-561.529	22.779	-0.378	0.309
-560.515	-97.300	-0.077	0.020
-559.500	120.175	-0.204	-0.253
-558.485	743.799	-0.145	0.390
-557.471	420.301	0.078	0.167
-556.456	-44.121	0.145	-0.073
-555.442	281.092	-0.194	-0.347
-554.427	-7.170	0.236	0.160
-553.412	-112.312	-0.187	0.037
-552.398	-27.262	0.143	-0.083
-551.383	718.160	0.171	-0.453
-550.369	178.561	0.289	0.421
-549.354	221.147	0.012	-0.019
-548.339	655.079	0.140	-0.360
-547.325	-110.300	0.313	-0.065
-546.310	-136.703	0.285	-0.033
-545.296	79.578	-0.115	-0.123
-544.281	-28.698	-0.092	-0.053
-543.266	474.453	-0.122	0.274
-542.252	-171.976	0.229	0.007
-541.237	800.000	0.047	0.157
-540.223	-200.000	-0.021	-0.185
-539.208	-181.953	0.213	0.004
-538.193	377.565	-0.070	-0.143
-537.179	800.000	-0.070	0.194
-536.164	-102.369	0.326	0.078
-535.150	40.455	-0.029	0.026
-534.135	800.000	-0.087	0.247
-533.121	300.451	0.140	-0.257
-532.106	800.000	0.086	0.365
-531.091	-193.336	-0.260	0.002
-530.077	12.153	-0.235	-0.180
-529.062	66.966	-0.045	-0.046
-528.048	-63.249	-0.170	-0.070
-527.033	-200.000	0.009	0.118
-526.018	-200.000	0.003	-0.101
-525.004	-200.000	-0.050	-0.223
-523.989	-125.670	-0.093	-0.014
-522.975	19.428	0.118	-0.095
-521.960	180.013	0.049	-0.072
-520.945	89.879	-0.163	0.182
-519.931	-154.287	-0.327	0.022
-518.916	-107.772	-0.493	-0.107
-517.902	800.000	0.119	-0.400
-516.887	24.650	0.072	-0.059
-515.872	3.806	-0.089	0.065
-514.858	-190.408	-0.489	-0.005
-513.843	800.000	-0.047	0.181
-512.829	-98.731	0.399	0.101
-511.814	-200.000	-0.041	0.214
-510.799	532.237	0.076	-0.179
-509.785	106.366	0.247	-0.292
-508.770	357.182	-0.153	-0.303
-507.756	-73.233	-0.377	-0.137
-506.741	-135.280	-0.386	0.046
-505.726	-200.000	0.051	-0.240
-504.712	348.233	0.228	0.448
-503.697	83.645	0.094	0.102
-502.683	56.748	0.129	0.125
-501.668	800.000	-0.025	0.083
-500.653	-38.721	0.069	-0.036
-499.639	-200.000	-0.008	0.190
-498.624	-100.976	-0.152	-0.037
-497.610	697.369	-0.099	0.259
-496.595	126.548	0.329	0.415
-495.581	132.534	0.148	0.190
-494.566	-82.354	-0.217	0.070
-493.551	-45.272	-0.290	0.143
-492.537	519.826	-0.058	0.135
-491.522	150.720	0.215	-0.291
-490.508	-79.500	0.511	-0.172
-489.493	-111.831	-0.311	-0.063
-488.478	-169.964	-0.107	-0.004
-487.464	-161.478	-0.168	-0.009
-486.449	-144.081	-0.151	0.014
-485.435	292.889	0.070	0.127
-484.420	-200.000	0.025	0.131
-483.405	-200.000	-0.001	0.421
-482.391	800.000	0.036	-0.144
-481.376	-126.417	0.253	0.038
-480.362	-112.864	0.228	0.045
-479.347	-21.837	-0.159	-0.096
-478.332	-41.323	0.139	-0.071
-477.318	222.022	0.024	-0.038
-476.303	100.404	0.176	-0.204
-475.289	104.891	0.082	-0.096
-474.274	131.231	-0.078	0.099
-473.259	-80.169	0.051	-0.017
-472.245	241.419	-0.184	-0.306
-471.230	547.970	0.058	0.138
-470.216	675.802	-0.066	0.171
-469.201	286.817	0.072	-0.129
-468.186	539.872	0.145	0.344
-467.172	61.631	0.191	0.189
-466.157	99.268	0.128	0.148
-465.143	-200.000	-0.092	-0.414
-464.128	800.000	-0.094	-0.379
-463.113	-200.000	-0.045	0.266
-462.099	431.677	-0.042	-0.090
-461.084	-51.695	0.151	0.070
-460.070	90.914	-0.148	-0.165
-459.055	800.000	-0.026	-0.113
-458.040	459.877	0.072	-0.160
-457.026	-54.986	-0.288	0.129
-456.011	-14.517	-0.112	-0.072
-454.997	-59.249	-0.152	0.065
-453.982	800.000	0.073	-0.254
-452.968	122.297	-0.043	-0.053
-451.953	127.033	-0.135	-0.170
-450.938	696.207	-0.052	-0.135
-449.924	72.990	-0.193	-0.200
-448.909	63.265	0.161	-0.160
-447.895	-91.679	0.313	0.089
-446.880	221.277	-0.020	0.032
-445.865	-188.259	0.038	0.000
-444.851	-59.161	0.121	-0.052
-443.836	506.109	0.100	0.231
-442.822	-26.626	0.226	-0.132
-441.807	-58.570	-0.058	0.025
-440.792	43.128	0.113	0.103
-439.778	-107.113	-0.370	0.081
-438.763	207.766	0.173	0.269
-437.749	-77.854	-0.481	-0.165
-436.734	162.994	-0.057	-0.079
-435.719	427.824	-0.060	-0.129
-434.705	16.090	-0.132	0.103
-433.690	-73.100	0.248	0.090
-432.676	-21.623	-0.324	0.196
-431.661	208.324	0.112	-0.174
-430.646	-89.813	-0.077	-0.022
-429.632	438.781	-0.020	0.042
-428.617	-100.440	-0.094	-0.023
-427.603	381.456	-0.012	0.024
-426.588	-14.272	-0.301	-0.193
-425.573	-200.000	0.056	-0.606
-424.559	404.948	-0.098	0.204
-423.544	333.154	-0.010	-0.019
-422.530	117.029	0.114	-0.139
-421.515	-152.233	-0.183	-0.013
-420.500	800.000	-0.069	0.239
-419.486	353.631	0.035	-0.069
-418.471	-200.000	-0.002	-0.313
-417.457	-200.000	-0.011	-0.375
-416.442	16.640	0.286	0.224
-415.428	236.242	-0.172	0.282
-414.413	-157.464	-0.286	-0.017
-413.398	26.904	-0.065	0.054
-412.384	-200.000	0.003	0.130
-411.369	-156.240	0.248	0.015
-410.355	479.903	0.103	-0.231
-409.340	-162.789	-0.039	-0.002
-408.325	-115.244	-0.197	0.037
-407.311	-84.295	0.104	-0.033
-406.296	-200.000	-0.013	0.252
-405.282	-200.000	0.021	0.098
-404.267	800.000	-0.077	-0.235
-403.252	-33.791	0.177	-0.097
-402.238	-0.744	-0.082	-0.057
-401.223	800.000	-0.115	-0.442
-400.209	27.575	-0.275	-0.230
-399.194	221.927	-0.219	0.350
-398.179	65.423	0.159	-0.160
-397.165	-200.000	0.005	-0.106
-396.150	-174.001	-0.112	0.003
-395.136	-23.831	0.185	0.110
-394.121	89.976	0.086	-0.096
-393.106	-126.712	0.092	-0.013
-392.092	800.000	-0.036	-0.100
-391.077	-72.735	-0.355	-0.130
-390.063	712.423	0.127	0.334
-389.048	-124.322	0.224	-0.035
-388.033	17.633	0.120	-0.095
-387.019	602.087	0.106	0.260
-386.004	115.295	-0.081	-0.098
-384.990	265.624	0.121	-0.210
-383.975	-200.000	-0.001	-0.045
-382.960	800.000	0.123	0.441
-381.946	-18.505	0.161	-0.100
-380.931	-132.205	0.459	-0.059
-379.917	263.680	0.084	0.145
-378.902	-112.007	0.186	-0.037
-377.888	218.791	0.059	-0.093
-376.873	564.787	-0.096	0.231
-375.858	-34.290	0.038	-0.021
-374.844	18.914	-0.269	0.213
-373.829	-106.015	0.202	-0.045
-372.815	-200.000	-0.006	-0.246
-371.800	587.664	0.095	0.231
-370.785	-184.139	0.223	-0.004
-369.771	299.364	-0.062	0.113
-368.756	-114.793	0.163	-0.031
-367.742	800.000	-0.084	0.359
-366.727	-200.000	-0.002	0.138
-365.712	502.372	-0.091	-0.209
-364.698	12.604	0.146	0.112
-363.683	-66.689	0.309	-0.121
-362.669	-140.997	-0.071	-0.007
-361.654	87.291	-0.168	-0.183
-360.639	271.619	0.102	-0.177
-359.625	800.000	0.075	0.223
-358.610	800.000	-0.102	-0.313
-357.596	14.320	-0.162	-0.125
-356.581	31.963	-0.190	0.162
-355.566	164.875	0.362	0.505
-354.552	-200.000	0.047	0.382
-353.537	-0.885	-0.533	0.374
-352.523	300.444	-0.170	-0.310
-351.508	-64.796	-0.305	0.122
-350.493	800.000	0.035	-0.125
-349.479	47.479	0.254	0.234
-348.464	-159.121	0.172	-0.010
-347.450	-200.000	-0.029	0.368
-346.435	-77.184	0.392	0.135
-345.420	-31.543	-0.154	0.086
-344.406	800.000	-0.086	0.283
-343.391	-97.831	-0.517	0.132
-342.377	800.000	-0.109	0.304
-341.362	-200.000	0.013	-0.116
-340.348	23.888	-0.166	-0.135
-339.333	72.150	-0.263	0.271
-338.318	-163.930	0.437	-0.020
-337.304	55.239	-0.111	0.106
-336.289	149.197	-0.077	0.103
-335.275	433.341	-0.067	0.144
-334.260	186.198	0.226	-0.333
-333.245	18.986	-0.293	0.232
-332.231	5.041	-0.072	-0.052
-331.216	-200.000	-0.058	0.344
-330.202	800.000	-0.113	0.350
-329.187	-200.000	0.019	0.223
-328.172	-49.419	0.212	0.100
-327.158	-111.826	0.369	0.074
-326.143	-109.046	-0.240	0.051
-325.129	-109.089	0.090	-0.019
-324.114	-112.794	-0.382	-0.075
-323.099	-109.376	-0.069	-0.014
-322.085	36.054	0.089	-0.078
-321.070	-129.025	-0.248	-0.034
-320.056	131.204	-0.238	-0.303
-319.041	-61.130	0.365	0.152
-318.026	280.374	0.099	-0.175
-317.012	800.000	-0.051	-0.219
-315.997	-200.000	0.158	0.767
-314.983	-200.000	-0.040	0.198
-313.968	-46.659	0.124	0.060
-312.953	31.724	0.237	0.202
-311.939	-138.343	0.360	0.039
-310.924	-179.105	0.087	0.002
-309.910	302.151	-0.120	0.218
-308.895	-200.000	0.039	-0.291
-307.880	76.071	0.087	-0.091
-306.866	572.884	-0.028	0.066
-305.851	-200.000	-0.040	0.225
-304.837	-58.083	-0.381	-0.164
-303.822	-144.412	0.244	-0.022
-302.807	175.524	0.069	-0.099
-301.793	104.376	0.107	0.124
-300.778	541.520	-0.098	-0.232
-299.764	-101.584	0.133	0.032
-298.749	335.372	0.130	-0.249
-297.735	800.000	0.067	-0.218
-296.720	-26.193	-0.303	-0.176
-295.705	-113.061	0.293	-0.057
-294.691	179.631	-0.096	0.140
-293.676	-200.000	0.041	-0.181
-292.662	271.711	0.092	-0.160
-291.647	-200.000	0.005	0.145
-290.632	-200.000	-0.065	-0.291
-289.618	-152.261	-0.100	0.007
-288.603	-160.097	-0.152	0.008
-287.589	117.171	-0.048	0.058
-286.574	-116.300	-0.185	0.034
-285.559	800.000	-0.075	0.216
-284.545	-200.000	0.015	0.123
-283.530	443.263	0.044	0.095
-282.516	-147.611	0.266	0.022
-281.501	-66.497	-0.307	0.120
-280.486	33.280	-0.190	-0.162
-279.472	-200.000	0.020	0.290
-278.457	-21.389	0.066	0.040
-277.443	-31.279	-0.140	-0.078
-276.428	800.000	0.089	-0.285
-275.413	-200.000	-0.010	0.162
-274.399	-139.582	0.224	-0.024
-273.384	-91.280	-0.055	0.015
-272.370	162.298	-0.046	-0.064
-271.355	-200.000	0.012	-0.223
-270.340	208.069	-0.282	-0.435
-269.326	-114.125	-0.264	0.050
-268.311	-200.000	0.006	0.269
-267.297	800.000	0.042	0.155
-266.282	800.000	0.059	-0.253
-265.267	-200.000	-0.018	-0.078
-264.253	-79.198	-0.134	-0.045
-263.238	-16.409	-0.138	0.086
-262.224	42.593	0.156	0.140
-261.209	-47.245	0.074	-0.035
-260.195	-200.000	-0.017	0.239
-259.180	-159.312	0.069	-0.004
-258.165	159.581	-0.162	0.223
-257.151	-134.716	-0.353	-0.042
-256.136	-200.000	0.012	-0.118
-255.122	-14.137	0.198	-0.126
-254.107	150.179	-0.270	0.361
-253.092	19.650	-0.028	0.022
-252.078	800.000	-0.029	-0.097
-251.063	-200.000	-0.018	0.380
-250.049	590.400	-0.135	0.327
-249.034	156.970	-0.035	-0.048
-248.019	602.766	0.035	-0.086
-247.005	-3.971	0.140	0.096
-245.990	122.021	0.123	0.152
-244.976	237.243	0.098	0.160
-243.961	-200.000	0.050	-0.283
-242.946	-86.762	-0.388	-0.117
-241.932	681.596	-0.002	-0.006
-240.917	800.000	-0.061	-0.247
-239.903	-200.000	-0.061	0.276
-238.888	301.126	0.157	0.285
-237.873	126.396	-0.102	0.127
-236.859	429.895	-0.163	0.348
-235.844	-68.627	0.415	-0.158
-234.830	258.055	-0.163	-0.276
-233.815	4.180	0.090	0.065
-232.800	272.114	-0.202	0.350
-231.786	152.045	0.163	0.219
-230.771	149.615	-0.103	-0.137
-229.757	-163.219	0.263	0.012
-228.742	-146.367	0.263	-0.023
-227.727	-57.690	-0.184	-0.079
-226.713	-1.689	0.070	-0.049
-225.698	354.713	0.197	-0.385
-224.684	228.129	-0.193	-0.309
-223.669	122.696	-0.173	0.213
-222.655	-200.000	0.050	0.437
-221.640	-94.721	0.141	0.038
-220.625	162.011	0.185	0.256
-219.611	-200.000	0.062	-0.428
-218.596	258.873	-0.182	0.309
-217.582	-139.056	0.281	0.030
-216.567	800.000	-0.096	-0.372
-215.552	-200.000	-0.008	-0.084
-214.538	-77.954	0.156	-0.053
-213.523	-6.607	-0.066	-0.044
-212.509	-200.000	0.003	-0.107
-211.494	116.118	0.148	-0.179
-210.479	325.784	0.080	0.150
-209.465	-200.000	-0.004	0.024
-208.450	800.000	-0.062	-0.179
-207.436	10.181	-0.174	-0.130
-206.421	32.226	0.076	0.065
-205.406	184.031	0.155	-0.226
-204.392	317.647	0.070	0.131
-203.377	20.031	-0.091	0.072
-202.363	-166.170	-0.148	-0.006
-201.348	-77.482	0.598	0.204
-200.333	41.459	0.236	-0.210
-199.319	-200.000	0.008	0.104
-198.304	202.588	-0.133	0.201
-197.290	-200.000	-0.025	-0.353
-196.275	107.344	-0.187	0.219
-195.260	-175.702	0.179	0.005
-194.246	-29.396	-0.334	-0.188
-193.231	-200.000	0.031	0.179
-192.217	362.204	-0.107	0.211
-191.202	-30.654	-0.303	-0.169
-190.187	222.634	-0.156	-0.248
-189.173	23.319	-0.166	-0.134
-188.158	800.000	0.072	-0.201
-187.144	-39.106	0.110	0.057
-186.129	670.272	-0.054	-0.138
-185.114	204.449	-0.192	-0.292
-184.100	-106.962	-0.256	-0.056
-183.085	-6.194	0.105	-0.071
-182.071	101.286	0.206	0.236
-181.056	-200.000	-0.032	0.185
-180.042	-28.517	0.111	0.063
-179.027	57.314	-0.352	0.338
-178.012	661.848	0.119	0.302
-176.998	211.970	-0.111	-0.173
-175.983	-78.923	-0.151	-0.050
-174.969	-18.033	0.141	-0.087
-173.954	-8.830	0.106	-0.070
-172.939	163.419	-0.018	-0.025
-171.925	-40.764	0.029	0.015
-170.910	58.892	0.155	-0.150
-169.896	-200.000	-0.008	-0.096
-168.881	-200.000	0.025	0.250
-167.866	423.372	0.110	-0.232
-166.852	-88.298	0.138	-0.041
-165.837	270.464	-0.124	0.214
-164.823	535.478	0.033	-0.078
-163.808	567.515	0.043	0.102
-162.793	-97.314	-0.071	-0.018
-161.779	-30.556	-0.125	0.069
-160.764	-68.883	-0.277	-0.105
-159.750	744.421	0.067	-0.178
-158.735	-200.000	0.013	0.158
-157.720	-91.763	0.068	0.019
-156.706	-28.324	0.218	0.124
-155.691	-38.675	0.111	-0.057
-154.677	785.094	0.142	-0.382
-153.662	-4.503	-0.167	0.114
-152.647	-28.364	0.422	-0.239
-151.633	-180.560	0.141	0.003
-150.618	80.086	0.110	0.116
-149.604	321.247	-0.097	-0.180
-148.589	50.472	0.126	0.117
-147.574	455.419	0.023	0.050
-146.560	-35.035	-0.124	0.067
-145.545	74.676	0.202	-0.208
-144.531	14.700	0.058	-0.044
-143.516	800.000	0.074	-0.302
-142.502	269.481	-0.057	0.098
-141.487	81.446	0.140	-0.148
-140.472	162.377	0.157	-0.217
-139.458	-200.000	0.010	-0.110
-138.443	139.452	0.186	0.241
-137.429	33.295	0.128	0.109
-136.414	800.000	-0.025	-0.073
-135.399	67.883	0.075	-0.075
-134.385	353.712	-0.081	0.159
-133.370	108.702	0.137	0.161
-132.356	274.594	-0.086	-0.149
-131.341	345.232	0.061	-0.118
-130.326	47.672	-0.113	-0.104
-129.312	204.164	-0.125	0.190
-128.297	-70.034	0.204	0.076
-127.283	-119.385	0.278	0.047
-126.268	36.794	-0.265	0.230
-125.253	-200.000	-0.020	-0.147
-124.239	36.767	-0.093	-0.081
-123.224	-61.150	0.353	-0.146
-122.210	-98.062	0.333	0.084
-121.195	-200.000	-0.021	0.092
-120.180	-149.839	-0.164	0.013
-119.166	-64.243	0.314	-0.126
-118.151	-105.619	-0.197	0.044
-117.137	-200.000	0.028	0.284
-116.122	55.608	-0.135	0.128
-115.107	-200.000	0.003	0.031
-114.093	9.341	-0.129	-0.096
-113.078	-95.648	0.111	-0.029
-112.064	29.323	0.195	-0.162
-111.049	-200.000	0.019	0.214
-110.034	800.000	0.021	-0.060
-109.020	-141.343	0.246	0.025
-108.005	-138.078	0.133	0.015
-106.991	-107.573	0.167	-0.036
-105.976	-200.000	-0.019	0.104
-104.962	800.000	0.046	0.147
-103.947	-200.000	0.005	0.189
-102.932	205.520	0.156	-0.238
-101.918	-171.367	0.249	0.008
-100.903	20.319	-0.297	-0.235
-99.889	-200.000	0.001	-0.043
-98.874	534.093	-0.063	0.146
-97.859	212.737	-0.125	0.193
-96.845	61.963	-0.171	0.167
-95.830	-103.808	-0.045	-0.010
-94.816	-179.093	-0.299	0.007
-93.801	-107.922	0.170	-0.036
-92.786	588.870	0.112	-0.271
-91.772	-97.847	0.125	-0.032
-90.757	-148.796	0.608	0.048
-89.743	110.473	0.178	-0.210
-88.728	-200.000	0.009	0.241
-87.713	-141.749	0.106	-0.010
-86.699	-45.170	0.109	0.053
-85.684	-130.060	0.134	-0.018
-84.670	-13.027	-0.098	0.062
-83.655	-200.000	0.001	0.065
-82.640	800.000	-0.033	-0.091
-81.626	-200.000	0.016	-0.178
-80.611	178.061	-0.122	-0.174
-79.597	0.287	0.127	0.089
-78.582	-63.480	0.235	0.095
-77.567	68.349	-0.016	0.016
-76.553	-77.578	0.458	-0.156
-75.538	462.142	0.081	0.177
-74.524	800.000	0.075	-0.212
-73.509	-200.000	-0.025	-0.312
-72.494	20.316	-0.176	0.139
-71.480	-6.249	-0.378	0.252
-70.465	68.573	0.341	0.342
-69.451	800.000	0.067	0.183
-68.436	-200.000	-0.019	0.102
-67.422	375.604	0.070	0.139
-66.407	739.209	0.067	-0.176
-65.392	-36.185	-0.347	0.183
-64.378	-33.104	0.230	0.125
-63.363	21.454	-0.060	0.048
-62.349	-135.895	-0.158	0.018
-61.334	16.994	-1.241	-0.962
-60.319	11.927	0.621	0.467
-59.305	151.782	-0.739	-0.985
-58.290	625.973	0.518	1.280
-57.276	419.530	0.588	1.231
-56.261	-200.000	113.203	641.721
-55.246	471.422	1504.852	3312.887
-54.232	146.935	2678.019	3523.222
-53.217	97.093	2289.196	2568.815
-52.203	36.651	1902.001	1643.167
-51.188	30.809	1694.608	1419.563
-50.173	28.362	1652.785	1366.250
-49.159	50.247	1707.580	1577.777
-48.144	49.077	1721.782	1581.997
-47.130	30.535	1680.229	1405.223
-46.115	27.806	1665.850	1372.648
-45.100	27.545	1662.016	1367.475
-44.086	27.635	1658.122	1364.895
-43.071	27.530	1655.976	1362.284
-42.057	27.476	1653.440	1359.745
-41.042	27.535	1651.484	1358.521
-40.027	27.528	1649.751	1356.989
-39.013	27.605	1646.934	1355.188
-37.998	27.538	1646.073	1353.928
-36.984	27.488	1645.405	1352.954
-35.969	27.694	1643.157	1352.583
-34.954	27.676	1641.575	1351.095
-33.940	27.668	1639.752	1349.478
-32.925	27.680	1637.976	1348.051
-31.911	27.670	1636.390	1346.618
-30.896	27.646	1634.555	1344.877
-29.881	27.594	1632.978	1343.143
-28.867	27.657	1631.296	1342.175
-27.852	27.623	1629.946	1340.761
-26.838	27.608	1628.827	1339.678
-25.823	27.697	1626.988	1338.764
-24.809	27.749	1625.650	1337.987
-23.794	27.767	1624.187	1336.867
-22.779	27.727	1623.108	1335.630
-21.765	27.682	1621.507	1333.931
-20.750	27.760	1619.351	1332.675
-19.736	27.654	1618.641	1331.265
-18.721	27.684	1617.179	1330.227
-17.706	27.610	1615.819	1328.514
-16.692	27.729	1614.341	1328.118
-15.677	27.685	1612.962	1326.605
-14.663	27.720	1611.663	1325.738
-13.648	27.744	1609.964	1324.467
-12.633	27.721	1608.537	1323.072
-11.619	27.734	1607.113	1321.941
-10.604	27.741	1605.499	1320.611
-9.590	27.672	1604.586	1319.311
-8.575	27.805	1602.684	1318.654
-7.560	27.724	1602.125	1317.558
-6.546	27.637	1600.889	1315.863
-5.531	27.691	1599.846	1315.342
-4.517	27.682	1598.592	1314.192
-3.502	27.746	1597.398	1313.620
-2.487	27.834	1595.195	1312.385
-1.473	27.454	1583.540	1300.037
-0.458	24.488	1564.275	1263.219
0.556	19.197	1565.420	1232.144
1.571	16.853	1589.410	1233.871
2.586	16.617	1601.662	1241.545
3.600	16.070	1550.881	1198.189
4.615	13.591	1453.661	1106.442
5.629	11.095	1399.530	1049.086
6.644	10.621	1392.137	1040.411
7.659	10.558	1391.152	1039.179
8.673	10.560	1390.353	1038.500
9.688	10.522	1388.204	1036.562
10.702	10.318	1385.177	1032.911
11.717	11.607	1385.933	1041.605
12.731	14.457	1391.487	1063.899
13.746	17.087	1395.200	1083.454
14.761	17.319	1395.524	1085.088
15.775	16.562	1392.201	1077.585
16.790	15.527	1389.831	1069.069
17.804	14.737	1387.438	1062.115
18.819	14.262	1385.438	1057.476
19.834	13.970	1384.275	1054.641
20.848	13.730	1383.271	1052.260
21.863	13.491	1381.840	1049.560
22.877	13.429	1380.288	1047.894
23.892	13.315	1379.750	1046.672
24.907	13.258	1378.772	1045.476
25.921	13.267	1377.963	1044.827
26.936	13.422	1376.841	1044.865
27.950	13.455	1375.983	1044.329
28.965	13.434	1374.876	1043.267
29.980	13.521	1373.725	1042.848
30.994	13.654	1372.210	1042.439
32.009	13.557	1371.362	1041.096
33.023	13.582	1370.086	1040.191
34.038	13.520	1368.911	1038.818
35.053	13.524	1367.464	1037.657
36.067	13.418	1366.639	1036.273
37.082	13.445	1365.372	1035.390
38.096	13.429	1364.875	1034.823
39.111	13.518	1363.827	1034.489
40.126	13.441	1362.882	1033.200
41.140	13.298	1361.983	1031.536
42.155	13.249	1361.389	1030.692
43.169	13.256	1361.234	1030.527
44.184	13.235	1361.186	1030.264
45.199	13.245	1360.669	1029.844
46.213	13.264	1360.063	1029.416
47.228	13.382	1358.981	1029.237
48.242	13.390	1357.896	1028.374
49.257	13.314	1356.472	1026.735
50.271	13.352	1355.150	1025.879
51.286	13.484	1353.333	1025.232
52.301	13.479	1351.895	1024.019
53.315	13.295	1351.190	1022.256
54.330	13.260	1350.618	1021.517
55.344	13.316	1348.976	1020.533
56.359	13.286	1348.152	1019.629
57.374	13.279	1347.381	1018.918
58.388	13.116	1346.970	1017.510
59.403	13.275	1345.640	1017.392
60.417	13.188	1345.365	1016.559
61.432	13.190	1344.409	1015.764
62.447	13.103	1343.474	1014.430
63.461	13.161	1342.090	1013.650
64.476	13.021	1341.089	1011.950
65.490	13.177	1339.570	1011.668
66.505	13.247	1338.055	1010.864
67.520	13.233	1337.330	1010.138
68.534	13.249	1336.052	1009.183
69.549	13.202	1335.296	1008.233
70.563	13.112	1334.210	1006.779
71.578	13.205	1332.757	1006.155
72.593	13.152	1331.875	1005.082
73.607	13.124	1331.158	1004.277
74.622	13.069	1330.522	1003.377
75.636	13.149	1329.446	1002.961
76.651	13.167	1328.789	1002.487
77.666	13.118	1328.532	1001.909
78.680	13.101	1327.946	1001.276
79.695	13.108	1327.148	1000.626
80.709	13.060	1326.645	999.869
81.724	13.228	1325.633	1000.034
82.739	13.263	1324.812	999.536
83.753	13.346	1323.936	999.288
84.768	13.427	1322.647	998.714
85.782	13.369	1321.575	997.471
86.797	13.474	1319.692	996.592
87.812	13.395	1318.780	995.340
88.826	13.325	1318.006	994.247
89.841	13.420	1316.728	993.764
90.855	13.559	1315.313	993.440
91.870	13.393	1315.156	992.239
92.884	13.437	1314.394	991.839
93.899	13.484	1313.081	991.044
94.914	13.500	1312.404	990.540
95.928	13.533	1311.571	990.025
96.943	13.501	1310.606	989.013
97.957	13.509	1309.568	988.194
98.972	13.539	1308.086	987.164
99.987	13.436	1307.513	986.034
101.001	13.526	1306.462	985.685
102.016	13.406	1305.842	984.418
103.030	13.514	1304.376	983.870
104.045	13.469	1303.902	983.157
105.060	13.373	1302.770	981.647
106.074	13.273	1300.962	979.607
107.089	13.293	1299.414	978.468
108.103	13.232	1298.383	977.245
109.118	13.229	1296.901	976.030
110.133	13.246	1296.082	975.425
111.147	13.314	1294.246	974.357
112.162	13.330	1292.932	973.377
113.176	13.292	1292.239	972.548
114.191	13.287	1291.621	971.965
115.206	13.327	1290.303	971.120
116.220	13.295	1288.715	969.650
117.235	13.266	1287.793	968.702
118.249	13.260	1286.947	967.944
119.264	13.310	1285.721	967.231
120.279	13.166	1284.784	965.601
121.293	13.171	1283.451	964.538
122.308	13.227	1282.436	964.022
123.322	13.224	1281.519	963.226
124.337	13.189	1280.294	962.017
125.352	13.304	1279.128	961.725
126.366	13.323	1278.032	960.929
127.381	13.202	1277.110	959.447
128.395	13.286	1276.154	959.130
129.410	13.259	1275.159	958.144
130.424	13.323	1274.010	957.564
131.439	13.335	1273.203	956.941
132.454	13.389	1271.961	956.233
133.468	13.403	1271.268	955.712
134.483	13.296	1270.993	954.800
135.497	13.372	1269.536	954.061
136.512	13.312	1268.382	952.761
137.527	13.329	1267.298	951.960
138.541	13.384	1265.340	950.722
139.556	13.501	1263.894	950.224
140.570	13.449	1263.189	949.311
141.585	13.426	1261.851	948.089
142.600	13.404	1261.365	947.516
143.614	13.576	1259.810	947.246
144.629	13.613	1258.794	946.613
145.643	13.582	1257.684	945.519
146.658	13.530	1256.774	944.451
147.673	13.409	1255.057	942.388
148.687	13.401	1254.032	941.489
149.702	13.393	1252.565	940.262
150.716	13.432	1251.338	939.480
151.731	13.396	1249.873	938.093
152.746	13.430	1248.951	937.510
153.760	13.485	1247.661	936.767
154.775	13.457	1246.881	935.943
155.789	13.587	1245.473	935.534
156.804	13.525	1244.190	934.138
157.819	13.520	1243.709	933.665
158.833	13.660	1242.762	933.660
159.848	13.640	1241.967	932.872
160.862	13.690	1240.931	932.289
161.877	13.623	1239.489	930.747
162.892	13.502	1238.352	929.136
163.906	13.500	1237.647	928.511
164.921	13.659	1236.757	928.652
165.935	13.690	1235.586	927.862
166.950	13.632	1234.985	927.008
167.964	13.660	1234.197	926.491
168.979	13.642	1233.297	925.633
169.994	13.654	1233.021	925.408
171.008	13.620	1232.135	924.472
172.023	13.742	1231.308	924.448
173.037	13.673	1230.715	923.540
174.052	13.667	1229.614	922.596
175.067	13.659	1228.635	921.738
176.081	13.575	1227.493	920.334
177.096	13.532	1226.819	919.508
178.110	13.664	1225.473	919.149
179.125	13.630	1224.158	917.894
180.140	13.563	1223.596	917.019
181.154	13.725	1221.861	916.534
182.169	13.718	1220.640	915.498
183.183	13.673	1219.867	914.585
184.198	13.868	1217.976	914.161
185.213	13.775	1217.365	913.109
186.227	13.961	1215.987	913.018
187.242	13.971	1214.884	912.165
188.256	13.890	1214.057	911.020
189.271	14.051	1213.092	911.096
190.286	13.794	1212.256	908.982
191.300	13.667	1210.949	907.227
192.315	13.680	1210.196	906.654
193.329	13.677	1210.143	906.516
194.344	13.613	1209.209	905.388
195.359	13.790	1208.586	905.808
196.373	13.979	1207.698	906.091
197.388	13.894	1207.630	905.499
198.402	13.985	1207.146	905.548
199.417	14.119	1206.582	905.778
200.432	14.083	1205.438	904.643
201.446	14.138	1204.976	904.515
202.461	14.198	1203.497	903.650
203.475	14.209	1202.843	903.139
204.490	14.103	1201.647	901.585
205.504	14.126	1200.209	900.551
206.519	13.993	1199.481	899.207
207.534	14.121	1197.508	898.337
208.548	14.078	1196.995	897.643
209.563	14.112	1196.022	897.015
210.577	14.064	1195.385	896.203
211.592	14.219	1194.597	896.366
212.607	14.255	1193.582	895.720
213.621	14.169	1193.003	894.744
214.636	14.248	1191.703	894.115
215.650	14.167	1190.761	892.893
216.665	14.285	1190.011	892.882
217.680	14.404	1189.134	892.784
218.694	14.303	1188.489	891.680
219.709	14.321	1187.729	891.127
220.723	14.360	1186.980	890.696
221.738	14.303	1186.170	889.704
222.753	14.384	1185.287	889.393
223.767	14.385	1184.732	888.905
224.782	14.478	1184.066	888.821
225.796	14.463	1183.429	888.185
226.811	14.520	1182.767	887.916
227.826	14.428	1182.147	886.878
228.840	14.408	1181.399	886.135
229.855	14.348	1181.109	885.521
230.869	14.577	1179.651	885.565
231.884	14.496	1178.476	884.176
232.899	14.394	1178.046	883.233
233.913	14.377	1177.476	882.636
234.928	14.418	1176.193	881.813
235.942	14.331	1175.887	881.047
236.957	14.341	1175.223	880.522
237.972	14.407	1174.517	880.265
238.986	14.478	1173.482	879.785
240.001	14.393	1173.107	878.982
241.015	14.507	1171.820	878.537
242.030	14.543	1171.270	878.240
243.045	14.531	1170.682	877.657
244.059	14.597	1169.634	877.142
245.074	14.560	1168.806	876.246
246.088	14.701	1167.832	876.179
247.103	14.708	1167.098	875.586
248.117	14.698	1166.942	875.340
249.132	14.891	1165.844	875.452
250.147	14.913	1165.527	875.251
251.161	15.057	1164.022	874.796
252.176	14.916	1163.984	873.951
253.190	14.974	1163.195	873.587
254.205	14.973	1162.955	873.323
255.220	14.859	1162.132	872.033
256.234	14.941	1161.545	871.943
257.249	14.883	1161.480	871.512
258.263	15.042	1160.074	871.212
259.278	15.091	1159.084	870.644
260.293	15.133	1158.707	870.499
261.307	15.088	1158.637	870.135
262.322	15.094	1157.586	869.304
263.336	15.076	1157.144	868.803
264.351	15.197	1156.222	868.658
265.366	15.139	1156.124	868.210
266.380	15.196	1155.041	867.611
267.395	15.239	1153.969	866.955
268.409	15.132	1153.352	865.860
269.424	15.160	1152.634	865.390
270.439	15.208	1151.986	865.072
271.453	15.206	1151.001	864.246
272.468	15.154	1150.136	863.253
273.482	15.191	1149.593	862.957
274.497	15.129	1149.466	862.468
275.512	15.218	1148.468	862.103
276.526	15.210	1147.670	861.387
277.541	15.131	1147.328	860.646
278.555	15.216	1146.234	860.188
279.570	15.213	1146.045	859.953
280.585	15.294	1144.839	859.385
281.599	15.398	1143.630	858.937
282.614	15.386	1142.707	858.104
283.628	15.302	1141.521	856.708
284.643	15.168	1140.878	855.467
285.657	15.177	1140.222	854.944
286.672	15.436	1138.676	855.030
287.687	15.301	1138.398	854.056
288.701	15.355	1137.830	853.829
289.716	15.323	1136.845	852.854
290.730	15.527	1135.684	852.943
291.745	15.398	1135.291	851.915
292.760	15.481	1134.639	851.776
293.774	15.496	1134.138	851.398
294.789	15.607	1133.092	851.100
295.803	15.503	1132.776	850.262
296.818	15.567	1131.809	849.784
297.833	15.469	1131.142	848.714
298.847	15.541	1130.275	848.348
299.862	15.548	1129.024	847.374
300.876	15.628	1129.002	847.684
301.891	15.685	1128.186	847.281
302.906	15.566	1127.787	846.310
303.920	15.774	1126.659	846.434
304.935	15.726	1126.243	845.803
305.949	15.723	1125.827	845.405
306.964	15.822	1125.309	845.438
307.979	15.730	1124.373	844.196
308.993	15.769	1123.373	843.566
310.008	15.755	1122.974	843.121
311.022	15.871	1121.974	842.877
312.037	15.753	1121.180	841.618
313.052	15.641	1120.245	840.279
314.066	15.632	1119.249	839.413
315.081	15.770	1118.246	839.276
316.095	15.565	1117.765	837.819
317.110	15.778	1116.654	837.974
318.125	15.694	1116.179	837.124
319.139	15.823	1115.483	837.172
320.154	15.768	1114.611	836.169
321.168	15.719	1114.321	835.633
322.183	15.722	1113.732	835.131
323.197	15.880	1112.773	835.124
324.212	15.869	1111.945	834.375
325.227	15.757	1111.886	833.698
326.241	15.761	1111.301	833.209
327.256	15.837	1110.296	832.754
328.270	15.753	1109.580	831.732
329.285	15.800	1108.627	831.172
330.300	15.824	1107.844	830.630
331.314	15.865	1106.403	829.682
332.329	15.900	1105.546	829.137
333.343	15.949	1104.981	828.879
334.358	15.971	1104.014	828.192
335.373	15.933	1103.581	827.605
336.387	15.980	1102.713	827.112
337.402	15.968	1102.180	826.582
338.416	16.056	1101.306	826.284
339.431	16.138	1100.133	825.730
340.446	16.283	1099.676	826.025
341.460	16.183	1099.065	825.006
342.475	16.254	1098.391	824.770
343.489	16.189	1097.481	823.699
344.504	16.329	1096.469	823.549
345.519	16.286	1095.919	822.855
346.533	16.273	1094.875	821.933
347.548	16.367	1093.917	821.597
348.562	16.488	1093.119	821.517
349.577	16.207	1092.613	819.695
350.592	16.232	1091.940	819.240
351.606	16.304	1090.967	818.786
352.621	16.201	1090.739	818.045
353.635	16.151	1089.910	817.108
354.650	16.245	1088.973	816.786
355.665	16.303	1088.384	816.556
356.679	16.251	1088.056	815.984
357.694	16.337	1087.210	815.694
358.708	16.411	1086.378	815.352
359.723	16.421	1085.684	814.810
360.738	16.425	1085.343	814.503
361.752	16.419	1084.562	813.812
362.767	16.502	1083.939	813.672
363.781	16.358	1083.600	812.654
364.796	16.392	1083.259	812.490
365.810	16.481	1082.558	812.319
366.825	16.570	1082.114	812.341
367.840	16.663	1081.528	812.275
368.854	16.664	1080.761	811.633
369.869	16.690	1079.900	811.040
370.883	16.609	1078.918	809.841
371.898	16.685	1078.361	809.716
372.913	16.676	1077.719	809.121
373.927	16.568	1077.803	808.597
374.942	16.707	1076.872	808.490
375.956	16.708	1076.261	807.962
376.971	16.710	1075.876	807.610
377.986	16.820	1075.139	807.511
379.000	16.822	1074.853	807.235
380.015	16.915	1073.986	806.953
381.029	16.935	1072.836	806.115
382.044	16.940	1072.701	805.967
383.059	16.795	1072.138	804.782
384.073	16.881	1071.111	804.348
385.088	16.998	1070.150	804.111
386.102	16.988	1069.251	803.315
387.117	16.892	1068.085	801.914
388.132	16.855	1067.374	801.137
389.146	16.862	1066.299	800.291
390.161	16.760	1065.862	799.411
391.175	16.874	1065.177	799.365
392.190	16.827	1064.485	798.551
393.205	17.064	1063.727	799.029
394.219	16.989	1062.994	798.056
395.234	16.947	1062.288	797.256
396.248	16.896	1061.134	796.082
397.263	16.819	1060.289	795.016
398.278	16.903	1059.724	794.917
399.292	16.969	1058.555	794.279
400.307	16.780	1058.581	793.340
401.321	16.882	1057.661	793.058
402.336	16.794	1056.799	791.929
403.350	16.936	1056.070	791.979
404.365	17.006	1055.244	791.613
405.380	16.935	1054.911	790.963
406.394	16.975	1053.983	790.385
407.409	17.130	1052.989	790.293
408.423	17.204	1052.482	790.183
409.438	17.259	1051.791	789.849
410.453	17.283	1051.260	789.494
411.467	17.253	1050.272	788.542
412.482	17.234	1050.008	788.187
413.496	17.308	1049.151	787.815
414.511	17.305	1048.769	787.445
415.526	17.480	1047.937	787.562
416.540	17.333	1047.974	786.838
417.555	17.348	1047.549	786.519
418.569	17.456	1047.138	786.643
419.584	17.506	1046.137	786.048
420.599	17.341	1045.982	785.101
421.613	104.557	1325.126	1475.451
422.628	96.111	1365.759	1475.547
