DTS Sentinel unit serial number:	SN413079Multiplexer serial number:	ORYXHardware model number:	OX4-SRSoftware version number:	ORYX F/W v4.00 Oryx Data Collector v3.7.2.0data status	okinstallation	princeton_trtdifferential loss correction	single-endedforward channel	channel 2reverse channel	N/Adate	2019/09/17time	08:03:35forward acquisition time	60.00reverse acquisition time	0.00gamma	496.2192k internal	0.2334k external	0.2334temperature offset calibration	0.9974default loss term (dB/km)	0.3790temperature slope calibration	1.0000multiplexer offset coefficient	1.0000multiplexer slope coefficient	1.0000fibre end	0.00T internal ref (°C)	27.28T ext. ref 1 (°C)	0.12T ext. ref 2 (°C)	22.32length (m)	temperature (°C)	Stokes	anti-Stokes-747.200	257.096	-0.180	-0.312
-746.185	-200.000	0.007	0.273
-745.171	162.987	0.049	-0.070
-744.156	-52.784	0.113	-0.052
-743.142	-59.056	0.034	0.015
-742.127	161.191	-0.077	0.108
-741.112	-167.014	0.048	0.002
-740.098	-200.000	-0.072	0.336
-739.083	197.059	0.205	0.314
-738.069	800.000	0.026	0.083
-737.054	209.521	-0.215	0.339
-736.039	-74.181	-0.310	-0.113
-735.025	-200.000	-0.023	-0.181
-734.010	-53.077	0.392	-0.181
-732.996	0.613	-0.195	-0.140
-731.981	-200.000	0.001	0.035
-730.966	-165.710	0.343	0.015
-729.952	-200.000	0.034	0.241
-728.937	146.268	-0.132	0.178
-727.923	-34.767	0.181	0.099
-726.908	800.000	0.056	-0.201
-725.894	800.000	-0.096	0.275
-724.879	-46.427	0.150	0.074
-723.864	715.397	0.081	0.215
-722.850	304.424	0.094	0.175
-721.835	394.896	-0.058	-0.121
-720.821	-200.000	0.011	-0.091
-719.806	-23.572	-0.213	-0.128
-718.791	-88.701	-0.143	0.043
-717.777	442.282	0.135	-0.296
-716.762	-200.000	-0.014	0.169
-715.748	-200.000	-0.023	0.265
-714.733	667.970	0.020	-0.051
-713.718	-200.000	0.016	-0.142
-712.704	81.288	-0.197	0.214
-711.689	-200.000	0.004	-0.106
-710.675	48.501	0.239	0.225
-709.660	800.000	0.024	-0.070
-708.645	430.229	0.085	-0.185
-707.631	-190.178	-0.270	0.003
-706.616	-28.238	-0.220	0.128
-705.602	-200.000	-0.044	0.245
-704.587	-164.233	-0.304	-0.014
-703.572	800.000	0.046	-0.176
-702.558	-113.428	-0.215	-0.042
-701.543	-173.453	0.089	0.003
-700.529	494.562	0.125	-0.288
-699.514	50.127	0.020	-0.019
-698.499	69.553	-0.158	0.163
-697.485	450.526	-0.081	-0.180
-696.470	237.331	-0.074	0.124
-695.456	290.990	0.066	0.120
-694.441	-19.652	-0.247	-0.153
-693.426	-181.700	0.144	-0.003
-692.412	-175.895	0.168	0.005
-691.397	-32.328	0.171	-0.096
-690.383	-144.466	-0.285	-0.026
-689.368	-75.946	0.188	-0.067
-688.354	450.420	-0.167	0.370
-687.339	-68.055	-0.318	-0.124
-686.324	-24.825	-0.086	0.051
-685.310	-200.000	0.058	-0.438
-684.295	-49.763	-0.128	-0.061
-683.281	499.203	0.159	-0.366
-682.266	800.000	-0.131	0.507
-681.251	137.929	0.030	-0.040
-680.237	205.260	0.020	-0.031
-679.222	-73.846	-0.303	0.110
-678.208	43.791	0.174	0.159
-677.193	-79.341	0.050	-0.017
-676.178	800.000	-0.065	0.256
-675.164	-47.693	-0.094	0.046
-674.149	31.575	-0.015	0.013
-673.135	279.014	-0.072	-0.128
-672.120	-34.128	-0.218	-0.120
-671.105	-43.456	0.251	-0.127
-670.091	95.134	-0.029	0.033
-669.076	788.039	-0.019	-0.051
-668.062	323.836	0.163	0.313
-667.047	11.452	-0.084	-0.064
-666.032	405.362	-0.182	0.384
-665.018	-139.795	-0.081	-0.009
-664.003	-200.000	0.004	-0.243
-662.989	-200.000	0.050	-0.415
-661.974	113.944	0.101	0.123
-660.959	-33.876	-0.061	-0.033
-659.945	14.975	-0.176	0.138
-658.930	111.997	0.211	-0.255
-657.916	33.503	0.030	0.026
-656.901	-158.448	-0.407	0.024
-655.886	-63.055	0.378	0.156
-654.872	1.096	-0.174	0.125
-653.857	-200.000	0.060	0.408
-652.843	140.685	-0.218	-0.288
-651.828	59.929	0.065	-0.064
-650.814	349.248	-0.142	0.281
-649.799	800.000	0.085	-0.274
-648.784	-127.279	0.038	0.006
-647.770	220.277	0.135	-0.216
-646.755	147.644	-0.121	-0.163
-645.741	-200.000	-0.018	-0.374
-644.726	-7.275	0.135	0.092
-643.711	-200.000	-0.014	0.237
-642.697	-82.497	0.278	0.091
-641.682	-49.607	-0.519	0.247
-640.668	-79.357	-0.051	0.017
-639.653	-6.888	-0.100	0.068
-638.638	-111.609	0.049	0.010
-637.624	800.000	0.075	-0.214
-636.609	-159.375	-0.218	0.012
-635.595	214.030	-0.208	0.330
-634.580	377.653	0.127	0.259
-633.565	800.000	0.091	0.328
-632.551	-200.000	0.024	-0.179
-631.536	-166.926	0.482	0.020
-630.522	4.391	-0.234	0.171
-629.507	-116.666	0.139	-0.026
-628.492	-126.677	0.152	0.023
-627.478	-79.830	-0.407	-0.137
-626.463	800.000	0.105	0.292
-625.449	-185.866	-0.226	-0.003
-624.434	-200.000	0.054	-0.241
-623.419	24.087	0.073	0.060
-622.405	67.943	-0.157	-0.160
-621.390	-200.000	0.071	-0.368
-620.376	-13.832	-0.048	0.031
-619.361	-111.433	0.155	-0.032
-618.346	261.074	-0.223	-0.385
-617.332	-200.000	-0.001	-0.266
-616.317	49.249	0.183	0.172
-615.303	139.912	0.233	0.308
-614.288	-200.000	-0.118	-0.552
-613.273	800.000	0.029	-0.127
-612.259	422.150	0.061	-0.130
-611.244	-200.000	-0.003	0.248
-610.230	22.218	0.146	-0.119
-609.215	-91.794	-0.257	-0.073
-608.201	191.180	-0.238	-0.358
-607.186	132.190	0.346	0.446
-606.171	737.133	-0.087	0.233
-605.157	331.422	-0.047	0.091
-604.142	-11.578	-0.172	0.113
-603.128	247.559	0.200	0.337
-602.113	-123.633	-0.212	-0.034
-601.098	103.648	0.098	0.115
-600.084	-200.000	-0.044	-0.299
-599.069	10.139	0.085	-0.065
-598.055	301.217	0.244	0.451
-597.040	-71.401	0.130	-0.049
-596.025	146.323	0.067	-0.090
-595.011	-8.867	0.322	0.216
-593.996	219.680	0.094	0.150
-592.982	649.873	-0.074	0.188
-591.967	-98.095	0.073	0.019
-590.952	342.619	0.087	-0.171
-589.938	-200.000	0.068	-0.367
-588.923	-46.597	-0.178	-0.087
-587.909	92.401	-0.260	-0.293
-586.894	152.965	0.048	0.065
-585.879	-200.000	0.038	0.234
-584.865	443.655	-0.153	0.334
-583.850	-9.864	-0.135	0.090
-582.836	800.000	0.058	0.238
-581.821	-9.149	0.144	-0.096
-580.806	-87.242	-0.060	0.018
-579.792	341.976	0.118	-0.231
-578.777	-101.324	-0.249	-0.061
-577.763	-145.792	-0.054	0.005
-576.748	57.942	-0.135	0.132
-575.733	-200.000	0.013	-0.116
-574.719	-200.000	0.004	-0.141
-573.704	-59.827	0.105	0.045
-572.690	-89.136	-0.314	0.093
-571.675	-85.325	0.232	-0.072
-570.661	800.000	-0.070	-0.269
-569.646	-105.939	-0.141	0.032
-568.631	-118.619	0.073	-0.013
-567.617	-74.359	0.324	0.117
-566.602	-196.423	-0.379	0.003
-565.588	-73.522	-0.309	0.112
-564.573	-200.000	-0.058	0.284
-563.558	402.863	0.082	-0.172
-562.544	-159.236	0.152	0.009
-561.529	-49.640	-0.152	0.072
-560.515	259.424	-0.040	-0.070
-559.500	-124.208	0.360	-0.056
-558.485	-118.706	-0.320	-0.056
-557.471	25.259	-0.168	0.139
-556.456	201.158	-0.125	-0.191
-555.442	82.203	-0.083	-0.089
-554.427	-50.517	-0.079	-0.037
-553.412	153.053	-0.087	-0.119
-552.398	-135.242	0.321	-0.038
-551.383	133.730	0.035	0.046
-550.369	-76.611	0.150	0.053
-549.354	443.068	-0.062	0.136
-548.339	-65.240	0.363	-0.146
-547.325	-59.444	0.192	-0.082
-546.310	44.330	-0.139	0.128
-545.296	-200.000	-0.037	0.204
-544.281	211.628	0.094	-0.148
-543.266	517.390	-0.031	0.072
-542.252	3.488	0.195	-0.142
-541.237	-38.205	0.285	-0.151
-540.223	18.448	-0.284	0.227
-539.208	-45.139	0.200	0.099
-538.193	800.000	0.108	0.330
-537.179	-115.049	0.177	-0.033
-536.164	-104.191	0.146	0.034
-535.150	-200.000	0.041	-0.240
-534.135	356.620	-0.075	-0.149
-533.121	-85.513	-0.028	-0.009
-532.106	-128.049	0.053	0.008
-531.091	280.164	-0.066	0.117
-530.077	-116.463	0.301	-0.055
-529.062	-200.000	0.025	0.325
-528.048	-40.779	-0.101	0.052
-527.033	73.301	-0.141	-0.147
-526.018	14.136	0.181	-0.140
-525.004	671.029	-0.088	0.228
-523.989	-57.007	0.190	0.084
-522.975	800.000	-0.095	0.279
-521.960	351.303	-0.133	-0.263
-520.945	-15.552	-0.256	0.163
-519.931	-11.861	0.075	-0.049
-518.916	-156.504	-0.262	-0.016
-517.902	-48.501	0.114	0.055
-516.887	440.049	0.134	-0.291
-515.872	93.903	0.048	0.054
-514.858	17.334	0.132	0.105
-513.843	-169.663	-0.318	0.011
-512.829	682.965	-0.033	-0.086
-511.814	239.571	0.291	0.482
-510.799	-48.294	0.262	0.126
-509.785	-97.824	-0.420	-0.108
-508.770	-49.392	-0.300	-0.142
-507.756	-200.000	-0.011	-0.217
-506.741	-200.000	0.012	-0.086
-505.726	412.712	-0.069	-0.146
-504.712	-70.728	-0.415	-0.156
-503.697	-200.000	0.008	0.197
-502.683	-100.270	0.054	0.013
-501.668	146.518	-0.113	0.151
-500.653	-104.025	-0.085	-0.020
-499.639	612.747	0.146	-0.364
-498.624	-94.255	0.101	-0.028
-497.610	-83.704	0.227	0.072
-496.595	57.297	-0.308	0.299
-495.581	-200.000	-0.017	0.096
-494.566	-120.836	0.139	-0.023
-493.551	192.336	-0.047	-0.071
-492.537	-200.000	0.031	-0.174
-491.522	-76.133	0.413	0.145
-490.508	405.394	-0.078	0.164
-489.493	129.248	-0.047	-0.060
-488.478	-8.408	0.135	0.090
-487.464	-200.000	0.017	0.119
-486.449	242.661	0.121	0.201
-485.435	-52.383	-0.216	0.100
-484.420	629.549	-0.120	0.303
-483.405	60.638	0.400	0.395
-482.391	312.951	0.070	-0.130
-481.376	-200.000	0.038	-0.282
-480.362	175.625	0.137	-0.197
-479.347	-131.909	-0.118	0.015
-478.332	-200.000	-0.030	0.132
-477.318	-87.517	0.234	0.070
-476.303	-81.772	-0.443	0.144
-475.289	164.123	-0.078	0.109
-474.274	-66.693	0.384	0.151
-473.259	288.917	0.222	-0.399
-472.245	158.405	0.110	0.151
-471.230	-42.095	-0.143	0.073
-470.216	5.962	-0.110	-0.081
-469.201	-200.000	0.005	0.125
-468.186	36.556	0.167	-0.146
-467.172	93.808	-0.128	0.144
-466.157	622.643	-0.122	-0.306
-465.143	153.521	0.127	0.173
-464.128	-199.622	0.108	-0.001
-463.113	47.225	-0.142	0.132
-462.099	143.219	-0.096	0.127
-461.084	113.863	-0.196	-0.236
-460.070	-200.000	-0.019	-0.129
-459.055	-56.965	0.070	0.031
-458.040	-200.000	0.020	0.325
-457.026	13.842	-0.187	0.144
-456.011	800.000	0.043	-0.127
-454.997	409.900	-0.184	0.388
-453.982	-23.727	0.180	0.107
-452.968	-200.000	0.019	0.267
-451.953	-110.907	-0.327	0.067
-450.938	-54.946	0.059	0.027
-449.924	166.811	-0.153	0.216
-448.909	-49.411	-0.099	0.047
-447.895	-119.023	0.073	0.013
-446.880	-52.796	0.095	0.043
-445.865	101.071	0.282	-0.326
-444.851	-200.000	-0.035	0.261
-443.836	800.000	0.139	0.428
-442.822	19.184	-0.204	0.163
-441.807	728.861	-0.058	0.154
-440.792	39.096	-0.045	-0.040
-439.778	161.889	-0.190	0.264
-438.763	98.362	0.195	0.223
-437.749	-123.149	-0.245	-0.039
-436.734	-72.793	-0.276	-0.101
-435.719	-140.141	-0.259	0.027
-434.705	800.000	-0.028	0.093
-433.690	-48.517	0.299	-0.143
-432.676	205.613	0.098	-0.151
-431.661	-13.871	-0.243	0.156
-430.646	61.330	-0.060	0.059
-429.632	30.324	-0.115	0.097
-428.617	-79.875	-0.125	-0.042
-427.603	800.000	0.052	-0.183
-426.588	267.590	0.187	0.325
-425.573	-66.410	0.415	-0.164
-424.559	8.603	-0.302	-0.226
-423.544	561.797	0.030	-0.073
-422.530	142.434	-0.130	0.171
-421.515	-113.526	-0.312	0.061
-420.500	-59.066	0.128	0.055
-419.486	-200.000	-0.004	-0.216
-418.471	29.897	0.213	-0.180
-417.457	-82.456	-0.308	-0.099
-416.442	223.330	0.109	0.174
-415.428	-200.000	-0.018	-0.269
-414.413	780.123	0.081	0.220
-413.398	800.000	-0.063	-0.224
-412.384	46.936	0.190	0.175
-411.369	-200.000	0.069	-0.421
-410.355	26.881	0.178	-0.148
-409.340	34.155	-0.285	0.247
-408.325	-97.942	-0.173	-0.044
-407.311	720.863	0.150	0.396
-406.296	-128.249	0.241	-0.034
-405.282	-15.932	0.079	0.050
-404.267	-18.641	0.100	0.062
-403.252	-153.941	-0.208	-0.014
-402.238	448.037	-0.175	0.382
-401.223	397.540	0.145	0.301
-400.209	84.028	-0.086	-0.093
-399.194	-123.777	-0.207	-0.032
-398.179	-200.000	0.043	-0.321
-397.165	111.805	-0.114	-0.137
-396.150	25.484	-0.065	-0.054
-395.136	220.484	0.191	-0.304
-394.121	-53.072	-0.163	-0.074
-393.106	-75.013	-0.444	-0.158
-392.092	-200.000	0.073	0.466
-391.077	-22.540	0.206	0.124
-390.063	-200.000	-0.018	-0.117
-389.048	37.980	-0.220	0.194
-388.033	800.000	0.010	0.033
-387.019	-200.000	-0.014	0.096
-386.004	317.447	-0.048	-0.090
-384.990	-200.000	-0.066	-0.300
-383.975	-18.443	0.376	-0.233
-382.960	50.025	-0.128	0.119
-381.946	-141.787	-0.285	-0.028
-380.931	274.749	-0.079	-0.139
-379.917	92.643	0.119	-0.134
-378.902	-57.255	0.171	-0.075
-377.888	182.132	0.056	0.082
-376.873	344.853	0.075	0.146
-375.858	800.000	0.090	-0.262
-374.844	342.617	0.170	0.330
-373.829	11.596	0.155	-0.118
-372.815	800.000	-0.014	0.057
-371.800	106.551	0.220	0.259
-370.785	228.773	0.054	-0.088
-369.771	-37.541	0.132	0.070
-368.756	479.163	0.089	0.199
-367.742	-48.409	-0.225	-0.107
-366.727	-30.849	-0.277	0.155
-365.712	-125.794	-0.313	0.047
-364.698	-200.000	-0.015	0.162
-363.683	753.803	0.090	-0.241
-362.669	469.744	-0.054	0.119
-361.654	-129.321	0.107	0.015
-360.639	-69.667	-0.215	0.082
-359.625	-108.452	-0.204	0.044
-358.610	-108.344	-0.355	-0.076
-357.596	-104.376	0.100	-0.023
-356.581	350.960	0.154	0.302
-355.566	226.580	-0.035	0.056
-354.552	-105.767	0.156	-0.035
-353.537	2.480	0.266	-0.191
-352.523	-200.000	0.039	-0.325
-351.508	-21.597	0.447	0.270
-350.493	-200.000	-0.016	-0.070
-349.479	-85.598	0.107	0.033
-348.464	800.000	-0.154	0.422
-347.450	230.330	0.061	-0.099
-346.435	-188.484	-0.357	-0.004
-345.420	800.000	-0.033	0.094
-344.406	-79.598	0.331	-0.110
-343.391	-46.429	-0.368	0.179
-342.377	269.983	0.236	-0.410
-341.362	-2.035	0.240	-0.167
-340.348	-180.811	0.290	0.006
-339.333	152.260	-0.173	0.233
-338.318	6.869	0.240	0.177
-337.304	-140.654	-0.054	0.006
-336.289	-88.054	-0.070	0.021
-335.275	-76.060	-0.354	-0.124
-334.260	75.765	-0.138	0.144
-333.245	-19.825	-0.242	0.148
-332.231	281.180	0.242	0.429
-331.216	392.701	-0.180	-0.371
-330.202	-36.099	-0.230	0.123
-329.187	-200.000	0.018	0.124
-328.172	-60.646	0.322	0.135
-327.158	343.959	0.030	0.058
-326.143	-99.106	-0.109	0.027
-325.129	12.778	-0.322	-0.246
-324.114	-99.538	0.133	-0.033
-323.099	-200.000	-0.012	0.168
-322.085	420.808	-0.059	0.124
-321.070	-107.787	-0.197	0.042
-320.056	-200.000	-0.042	0.376
-319.041	-27.600	0.225	-0.129
-318.026	161.785	0.199	-0.275
-317.012	35.494	-0.120	0.104
-315.997	-63.790	-0.063	0.026
-314.983	391.815	0.188	-0.386
-313.968	800.000	0.111	-0.391
-312.953	800.000	-0.105	0.421
-311.939	-91.234	0.217	-0.062
-310.924	14.093	-0.082	0.063
-309.910	417.093	-0.048	-0.101
-308.895	-88.644	-0.162	0.048
-307.880	106.436	0.073	-0.086
-306.866	-147.858	-0.272	0.022
-305.851	-62.452	0.235	-0.096
-304.837	6.692	0.335	-0.246
-303.822	277.849	-0.020	0.035
-302.807	-80.934	-0.124	0.041
-301.793	-200.000	0.006	-0.278
-300.778	-104.475	-0.250	0.057
-299.764	11.565	0.346	-0.262
-298.749	73.028	0.089	-0.091
-297.735	-74.752	0.156	0.055
-296.720	28.865	-0.150	-0.126
-295.705	-200.000	0.041	0.309
-294.691	-174.958	0.186	-0.005
-293.676	8.304	-0.182	0.135
-292.662	-5.548	-0.153	-0.104
-291.647	578.278	0.059	-0.142
-290.632	87.106	-0.150	0.164
-289.618	-200.000	-0.004	-0.058
-288.603	478.666	-0.079	-0.177
-287.589	698.377	0.078	-0.203
-286.574	800.000	0.027	-0.104
-285.559	-72.400	0.108	0.039
-284.545	-19.453	0.493	0.302
-283.530	-200.000	0.047	0.342
-282.516	78.433	-0.290	-0.306
-281.501	-111.849	0.226	0.045
-280.486	-70.168	-0.204	0.077
-279.472	-73.589	-0.199	0.072
-278.457	-200.000	0.032	0.162
-277.443	241.002	0.135	0.222
-276.428	-200.000	0.022	-0.333
-275.413	-127.814	-0.442	0.063
-274.399	-154.592	0.270	-0.018
-273.384	-200.000	0.048	-0.244
-272.370	599.758	0.065	-0.158
-271.355	-103.923	-0.353	-0.081
-270.340	-53.682	-0.040	-0.018
-269.326	120.652	-0.328	0.403
-268.311	-142.862	-0.351	-0.034
-267.297	-77.187	-0.374	0.128
-266.282	-200.000	0.009	0.062
-265.267	-200.000	0.010	-0.134
-264.253	174.060	0.136	0.194
-263.238	110.570	-0.287	0.341
-262.224	462.841	-0.047	-0.104
-261.209	-200.000	-0.050	-0.288
-260.195	-63.048	-0.248	0.101
-259.180	18.067	-0.041	0.032
-258.165	-200.000	-0.090	-0.483
-257.151	217.565	0.211	-0.332
-256.136	57.474	0.072	-0.069
-255.122	-122.049	0.290	0.047
-254.107	267.882	-0.151	-0.260
-253.092	-1.887	0.121	0.084
-252.078	-40.333	-0.172	-0.088
-251.063	12.115	0.141	0.107
-250.049	-7.324	0.080	-0.054
-249.034	-200.000	0.028	0.166
-248.019	-200.000	0.026	0.189
-247.005	-109.119	0.246	-0.052
-245.990	-8.818	0.257	-0.170
-244.976	-28.980	-0.165	0.093
-243.961	800.000	0.052	0.176
-242.946	-18.148	0.062	0.038
-241.932	-66.212	0.219	-0.086
-240.917	800.000	-0.081	-0.308
-239.903	691.684	0.029	-0.074
-238.888	-200.000	-0.292	-0.001
-237.873	-139.509	0.147	0.015
-236.859	-200.000	-0.005	0.046
-235.844	399.140	0.176	-0.363
-234.830	800.000	0.067	0.200
-233.815	-41.378	-0.258	0.131
-232.800	172.603	0.121	0.172
-231.786	28.850	0.171	0.142
-230.771	34.070	-0.097	-0.083
-229.757	-123.260	-0.130	-0.020
-228.742	718.434	-0.121	-0.316
-227.727	-38.779	-0.219	-0.114
-226.713	257.267	0.247	0.419
-225.698	-54.351	0.113	-0.051
-224.684	-200.000	-0.002	0.029
-223.669	-86.921	-0.046	0.014
-222.655	-20.257	0.183	-0.111
-221.640	3.032	0.147	-0.106
-220.625	420.124	-0.105	0.221
-219.611	90.066	0.332	-0.365
-218.596	-127.856	-0.285	-0.040
-217.582	-29.979	-0.091	-0.051
-216.567	-29.284	0.221	0.125
-215.552	-68.977	-0.138	0.052
-214.538	451.352	-0.101	-0.221
-213.523	61.695	0.142	0.139
-212.509	-200.000	0.002	0.177
-211.494	800.000	-0.031	0.103
-210.479	-68.575	0.317	-0.121
-209.465	-9.872	0.076	-0.049
-208.450	-200.000	-0.025	-0.228
-207.436	-134.509	0.306	-0.037
-206.421	-59.942	0.027	-0.011
-205.406	66.765	-0.169	-0.169
-204.392	-98.925	-0.057	-0.014
-203.377	-60.534	0.278	-0.116
-202.363	-81.458	0.299	-0.097
-201.348	704.823	0.108	-0.282
-200.333	-163.640	-0.167	0.008
-199.319	-200.000	0.022	-0.147
-198.304	-69.222	0.186	0.070
-197.290	38.947	-0.020	-0.017
-196.275	782.722	-0.133	-0.358
-195.260	-200.000	-0.039	-0.193
-194.246	13.021	0.149	0.114
-193.231	-200.000	-0.010	-0.240
-192.217	-200.000	-0.022	-0.427
-191.202	-137.093	0.264	0.030
-190.187	-200.000	-0.022	-0.119
-189.173	69.231	-0.199	0.201
-188.158	-200.000	0.021	0.274
-187.144	93.271	0.122	-0.135
-186.129	69.080	0.200	-0.202
-185.114	-143.622	-0.345	-0.032
-184.100	-129.018	0.205	0.028
-183.085	-71.639	-0.035	-0.013
-182.071	800.000	0.025	-0.084
-181.056	285.101	0.070	0.123
-180.042	187.162	-0.202	-0.297
-179.027	386.236	0.039	-0.080
-178.012	12.885	-0.187	-0.142
-176.998	-50.787	0.075	-0.035
-175.983	-200.000	0.080	-0.362
-174.969	605.908	-0.134	-0.328
-173.954	-122.620	-0.344	-0.055
-172.939	-156.271	-0.146	-0.009
-171.925	-200.000	-0.053	0.243
-170.910	-72.217	-0.071	0.026
-169.896	-135.014	0.105	-0.012
-168.881	130.742	0.101	-0.128
-167.866	177.649	-0.232	-0.332
-166.852	-200.000	-0.048	0.264
-165.837	12.222	-0.195	0.147
-164.823	-73.297	-0.193	0.069
-163.808	32.651	0.165	0.140
-162.793	-39.847	0.196	-0.100
-161.779	-200.000	-0.006	-0.113
-160.764	800.000	0.036	-0.116
-159.750	-93.685	0.125	0.034
-158.735	-200.000	-0.019	-0.153
-157.720	-200.000	0.033	-0.215
-156.706	-92.080	-0.061	-0.017
-155.691	29.500	0.197	0.165
-154.677	128.183	-0.225	0.281
-153.662	-63.343	0.196	0.079
-152.647	800.000	0.026	-0.077
-151.633	43.010	0.185	-0.166
-150.618	-43.733	0.274	-0.135
-149.604	468.258	0.120	0.264
-148.589	-200.000	0.001	0.196
-147.574	-2.965	0.033	0.023
-146.560	800.000	0.137	0.377
-145.545	-111.453	-0.374	-0.075
-144.531	-4.136	0.107	-0.073
-143.516	-145.336	-0.113	0.010
-142.502	-20.804	0.171	-0.103
-141.487	-200.000	-0.016	0.199
-140.472	-200.000	-0.027	-0.187
-139.458	-200.000	0.007	0.235
-138.443	800.000	-0.024	0.090
-137.429	207.423	0.074	0.113
-136.414	-189.393	-0.111	-0.001
-135.399	-200.000	0.014	0.342
-134.385	63.032	-0.254	0.250
-133.370	172.976	0.087	0.124
-132.356	29.672	0.039	-0.033
-131.341	-109.598	0.271	0.056
-130.326	-10.724	0.134	0.087
-129.312	63.523	-0.198	-0.195
-128.297	229.990	0.097	0.156
-127.283	-200.000	0.035	-0.246
-126.268	-57.138	0.324	0.140
-125.253	3.854	-0.201	-0.144
-124.239	-69.314	0.203	0.077
-123.224	-25.346	-0.194	0.113
-122.210	730.465	0.025	0.065
-121.195	36.173	-0.054	-0.047
-120.180	32.053	-0.180	0.152
-119.166	800.000	-0.061	0.225
-118.151	800.000	-0.090	0.324
-117.137	-82.320	-0.404	0.129
-116.122	-81.490	-0.115	-0.037
-115.107	475.605	0.207	-0.459
-114.093	360.818	-0.170	-0.335
-113.078	261.147	0.171	-0.291
-112.064	338.958	-0.036	-0.068
-111.049	75.468	-0.113	-0.117
-110.034	461.896	0.088	0.192
-109.020	293.189	0.074	0.132
-108.005	91.443	0.225	0.248
-106.991	38.941	0.172	0.151
-105.976	800.000	-0.065	-0.231
-104.962	-200.000	0.004	-0.486
-103.947	-156.375	0.223	0.014
-102.932	-174.863	-0.235	-0.006
-101.918	-102.115	0.403	-0.095
-100.903	800.000	-0.073	0.290
-99.889	354.254	-0.121	-0.235
-98.874	-156.071	0.186	-0.012
-97.859	-200.000	0.010	-0.171
-96.845	-158.631	0.161	0.009
-95.830	-71.484	-0.029	-0.010
-94.816	-88.084	0.229	0.067
-93.801	-129.734	0.077	0.010
-92.786	391.772	0.117	0.239
-91.772	-31.942	0.196	-0.108
-90.757	410.157	-0.046	-0.095
-89.743	0.511	-0.036	-0.025
-88.728	-87.097	-0.165	0.049
-87.713	-59.946	-0.361	0.151
-86.699	186.507	0.104	0.152
-85.684	-126.556	0.125	-0.018
-84.670	133.445	0.040	-0.051
-83.655	-42.811	0.344	-0.171
-82.640	37.122	0.022	-0.019
-81.626	800.000	0.088	-0.256
-80.611	-75.541	0.145	-0.051
-79.597	-115.043	0.065	0.012
-78.582	-10.249	-0.095	0.062
-77.567	-63.764	0.088	-0.035
-76.553	-65.073	0.291	0.115
-75.538	128.582	0.132	0.165
-74.524	0.494	-0.158	-0.111
-73.509	-144.131	-0.169	-0.016
-72.494	-200.000	0.004	-0.125
-71.480	-10.614	-0.110	-0.071
-70.465	-48.197	-0.117	0.056
-69.451	-169.745	0.150	-0.005
-68.436	-200.000	-0.018	0.113
-67.422	-154.088	-0.254	-0.017
-66.407	34.125	-0.189	0.161
-65.392	-85.305	0.225	0.069
-64.378	-45.780	0.120	-0.058
-63.363	425.035	-0.058	0.123
-62.349	-200.000	-0.003	0.163
-61.334	91.018	-1.025	-1.125
-60.319	283.990	0.572	1.006
-59.305	-200.000	-0.254	-1.133
-58.290	800.000	0.424	1.349
-57.276	440.287	0.707	1.512
-56.261	-200.000	113.382	642.614
-55.246	471.786	1504.519	3313.634
-54.232	147.244	2678.201	3526.955
-53.217	97.107	2289.457	2569.547
-52.203	36.344	1898.784	1637.986
-51.188	30.421	1689.883	1412.827
-50.173	27.982	1647.478	1359.202
-49.159	49.862	1701.426	1569.410
-48.144	48.398	1716.321	1572.054
-47.130	30.020	1675.371	1397.442
-46.115	27.391	1660.868	1365.600
-45.100	27.243	1655.585	1360.095
-44.086	27.134	1653.481	1357.497
-43.071	27.126	1650.339	1354.804
-42.057	27.109	1648.211	1352.877
-41.042	27.179	1645.942	1351.484
-40.027	27.260	1643.713	1350.196
-39.013	27.102	1642.166	1347.699
-37.998	27.118	1641.068	1346.864
-36.984	27.208	1639.446	1346.151
-35.969	27.185	1638.420	1345.080
-34.954	27.347	1635.849	1344.112
-33.940	27.288	1634.287	1342.343
-32.925	27.239	1632.611	1340.550
-31.911	27.277	1630.974	1339.434
-30.896	27.248	1629.192	1337.706
-29.881	27.240	1628.070	1336.674
-28.867	27.269	1625.883	1335.032
-27.852	27.189	1624.618	1333.360
-26.838	27.287	1622.565	1332.336
-25.823	27.366	1621.449	1331.943
-24.809	27.247	1620.497	1330.243
-23.794	27.299	1618.918	1329.274
-22.779	27.286	1617.560	1328.012
-21.765	27.247	1616.043	1326.423
-20.750	27.272	1614.586	1325.357
-19.736	27.326	1612.901	1324.316
-18.721	27.377	1611.680	1323.630
-17.706	27.394	1610.100	1322.403
-16.692	27.282	1608.599	1320.308
-15.677	27.314	1607.263	1319.388
-14.663	27.369	1606.074	1318.758
-13.648	27.392	1604.609	1317.675
-12.633	27.302	1603.808	1316.308
-11.619	27.284	1601.979	1314.627
-10.604	27.302	1600.209	1313.252
-9.590	27.287	1598.958	1312.069
-8.575	27.419	1597.494	1311.765
-7.560	27.363	1596.416	1310.422
-6.546	27.397	1594.869	1309.345
-5.531	27.283	1594.301	1308.010
-4.517	27.335	1593.120	1307.358
-3.502	27.351	1591.801	1306.340
-2.487	27.390	1590.248	1305.295
-1.473	27.053	1578.896	1293.527
-0.458	24.424	1559.355	1258.947
0.556	19.198	1560.621	1227.979
1.571	16.816	1584.273	1229.219
2.586	16.404	1597.365	1236.253
3.600	15.097	1543.931	1185.542
4.615	8.459	1435.811	1058.588
5.629	1.566	1373.354	968.658
6.644	0.266	1365.472	954.778
7.659	0.207	1364.347	953.532
8.673	0.002	1363.657	951.669
9.688	-0.004	1361.467	950.023
10.702	-0.080	1358.019	947.052
11.717	3.221	1363.479	971.636
12.731	11.039	1375.954	1030.085
13.746	16.501	1382.769	1069.745
14.761	17.137	1382.385	1073.375
15.775	16.233	1380.371	1066.007
16.790	15.234	1377.360	1057.286
17.804	14.363	1375.115	1049.980
18.819	14.107	1373.981	1047.412
19.834	13.813	1372.307	1044.196
20.848	13.567	1371.267	1041.764
21.863	13.353	1370.043	1039.396
22.877	13.133	1368.954	1037.099
23.892	13.063	1367.868	1035.746
24.907	13.135	1367.438	1035.779
25.921	13.185	1366.211	1035.068
26.936	13.208	1365.752	1034.777
27.950	13.169	1365.251	1034.062
28.965	13.232	1364.046	1033.448
29.980	13.329	1362.745	1032.976
30.994	13.432	1361.879	1032.872
32.009	13.359	1361.082	1031.722
33.023	13.469	1359.704	1031.270
34.038	13.391	1358.109	1029.482
35.053	13.284	1357.817	1028.504
36.067	13.351	1356.070	1027.509
37.082	13.385	1355.427	1027.143
38.096	13.363	1354.482	1026.196
39.111	13.355	1353.676	1025.448
40.126	13.327	1352.864	1024.569
41.140	13.171	1351.847	1022.740
42.155	13.140	1351.550	1022.233
43.169	13.215	1351.601	1022.645
44.184	13.145	1351.087	1021.736
45.199	13.150	1350.740	1021.413
46.213	13.210	1350.061	1021.176
47.228	13.283	1349.025	1020.754
48.242	13.221	1347.954	1019.472
49.257	13.221	1346.587	1018.349
50.271	13.215	1344.930	1016.970
51.286	13.290	1343.800	1016.484
52.301	13.318	1342.511	1015.590
53.315	13.248	1341.557	1014.350
54.330	13.283	1340.468	1013.652
55.344	13.242	1339.364	1012.477
56.359	13.180	1338.324	1011.221
57.374	13.077	1337.885	1010.168
58.388	13.058	1336.979	1009.280
59.403	13.011	1336.400	1008.468
60.417	13.076	1335.876	1008.377
61.432	13.087	1334.508	1007.323
62.447	13.022	1333.678	1006.215
63.461	13.048	1332.716	1005.553
64.476	13.006	1331.315	1004.158
65.490	13.056	1330.038	1003.407
66.505	13.127	1328.335	1002.463
67.520	13.272	1326.798	1002.092
68.534	13.079	1326.024	1000.250
69.549	13.134	1325.165	999.847
70.563	13.078	1324.411	998.851
71.578	12.929	1323.437	997.130
72.593	13.030	1322.167	996.694
73.607	12.998	1321.233	995.708
74.622	13.067	1319.963	995.081
75.636	13.028	1319.267	994.229
76.651	12.965	1319.085	993.629
77.666	12.972	1318.284	992.978
78.680	13.088	1317.543	993.030
79.695	13.012	1317.251	992.263
80.709	12.978	1316.533	991.429
81.724	13.145	1314.973	991.173
82.739	13.150	1314.056	990.425
83.753	13.176	1313.167	989.822
84.768	13.339	1311.990	989.822
85.782	13.294	1311.443	989.054
86.797	13.264	1309.887	987.609
87.812	13.174	1309.003	986.321
88.826	13.202	1308.048	985.679
89.841	13.120	1307.141	984.420
90.855	13.284	1305.649	984.189
91.870	13.280	1304.994	983.583
92.884	13.264	1304.294	982.873
93.899	13.427	1303.009	982.784
94.914	13.415	1302.393	982.160
95.928	13.443	1301.233	981.365
96.943	13.330	1300.505	980.060
97.957	13.342	1299.781	979.498
98.972	13.336	1298.556	978.452
99.987	13.389	1297.382	977.794
101.001	13.346	1296.516	976.803
102.016	13.359	1295.480	976.011
103.030	13.385	1294.173	975.095
104.045	13.344	1293.635	974.361
105.060	13.251	1292.306	972.727
106.074	13.183	1291.302	971.487
107.089	13.123	1290.031	970.090
108.103	13.024	1288.842	968.533
109.118	13.168	1287.452	968.244
110.133	13.128	1286.117	966.922
111.147	13.160	1284.860	966.075
112.162	13.202	1283.983	965.576
113.176	13.261	1282.352	964.609
114.191	13.333	1281.689	964.445
115.206	13.207	1280.616	962.818
116.220	13.261	1279.208	961.991
117.235	13.243	1278.305	961.122
118.249	13.264	1277.558	960.598
119.264	13.271	1276.113	959.465
120.279	13.192	1275.419	958.403
121.293	13.095	1274.603	957.140
122.308	13.213	1273.287	956.752
123.322	13.081	1272.423	955.255
124.337	13.082	1271.689	954.623
125.352	13.057	1270.787	953.718
126.366	13.246	1268.895	953.300
127.381	13.193	1267.870	952.141
128.395	13.169	1266.709	951.048
129.410	13.192	1266.002	950.567
130.424	13.273	1264.974	950.176
131.439	13.274	1264.767	949.942
132.454	13.169	1263.799	948.528
133.468	13.245	1262.406	947.834
134.483	13.244	1261.940	947.395
135.497	13.178	1261.181	946.363
136.512	13.222	1259.819	945.508
137.527	13.208	1258.292	944.198
138.541	13.275	1256.734	943.330
139.556	13.293	1255.287	942.262
140.570	13.347	1254.580	941.954
141.585	13.387	1253.348	941.172
142.600	13.461	1251.575	940.180
143.614	13.404	1251.459	939.686
144.629	13.348	1250.445	938.527
145.643	13.458	1249.049	938.016
146.658	13.335	1248.014	936.461
147.673	13.307	1246.863	935.358
148.687	13.331	1245.676	934.520
149.702	13.352	1243.978	933.283
150.716	13.380	1242.616	932.332
151.731	13.299	1241.397	930.881
152.746	13.405	1240.295	930.567
153.760	13.503	1238.514	929.698
154.775	13.470	1237.855	928.938
155.789	13.490	1236.747	928.137
156.804	13.526	1235.826	927.565
157.819	13.556	1234.998	927.027
158.833	13.531	1233.856	925.950
159.848	13.576	1232.939	925.431
160.862	13.520	1232.151	924.442
161.877	13.515	1230.992	923.467
162.892	13.452	1230.113	922.376
163.906	13.572	1229.028	922.149
164.921	13.389	1228.199	920.424
165.935	13.544	1227.135	920.410
166.950	13.592	1226.219	919.904
167.964	13.639	1225.674	919.674
168.979	13.387	1225.138	917.795
169.994	13.596	1224.449	918.354
171.008	13.502	1223.486	917.029
172.023	13.625	1222.509	916.897
173.037	13.679	1222.019	916.749
174.052	13.706	1220.921	915.992
175.067	13.536	1219.886	914.195
176.081	13.539	1218.619	913.183
177.096	13.523	1218.430	912.876
178.110	13.610	1216.890	912.119
179.125	13.596	1215.619	911.005
180.140	13.667	1214.305	910.333
181.154	13.681	1213.397	909.648
182.169	13.617	1212.305	908.396
183.183	13.786	1211.384	908.554
184.198	13.692	1209.918	906.860
185.213	13.774	1208.416	906.100
186.227	13.821	1207.294	905.437
187.242	13.892	1206.307	905.002
188.256	13.793	1205.988	904.143
189.271	13.862	1204.842	903.578
190.286	13.781	1203.639	902.155
191.300	13.673	1202.849	900.896
192.315	13.653	1201.926	900.017
193.329	13.627	1201.712	899.640
194.344	13.655	1201.013	899.185
195.359	13.774	1200.706	899.523
196.373	13.782	1199.818	898.822
197.388	13.903	1199.161	898.904
198.402	13.948	1198.843	898.828
199.417	13.966	1198.430	898.539
200.432	14.064	1197.042	897.945
201.446	14.057	1196.777	897.630
202.461	14.050	1195.485	896.543
203.475	14.043	1194.283	895.525
204.490	14.043	1193.344	894.745
205.504	13.975	1191.789	893.131
206.519	13.968	1190.501	892.049
207.534	14.040	1189.678	891.741
208.548	14.026	1188.697	890.851
209.563	14.072	1188.274	890.705
210.577	13.966	1187.367	889.375
211.592	14.145	1186.203	889.382
212.607	14.119	1185.717	888.802
213.621	14.120	1184.797	888.035
214.636	14.167	1183.576	887.293
215.650	14.260	1182.515	886.917
216.665	14.153	1181.755	885.698
217.680	14.267	1180.744	885.469
218.694	14.285	1180.093	884.999
219.709	14.179	1179.335	883.788
220.723	14.140	1178.541	882.908
221.738	14.240	1177.924	882.897
222.753	14.204	1177.348	882.198
223.767	14.381	1176.373	882.324
224.782	14.389	1175.698	881.783
225.796	14.449	1175.146	881.609
226.811	14.414	1174.645	880.970
227.826	14.334	1173.914	879.919
228.840	14.376	1172.961	879.350
229.855	14.307	1172.423	878.507
230.869	14.392	1171.521	878.200
231.884	14.374	1170.903	877.564
232.899	14.285	1169.576	876.023
233.913	14.302	1168.827	875.473
234.928	14.399	1168.350	875.550
235.942	14.297	1167.639	874.403
236.957	14.289	1166.921	873.748
237.972	14.353	1166.167	873.443
238.986	14.452	1165.300	873.235
240.001	14.403	1164.528	872.321
241.015	14.353	1163.654	871.329
242.030	14.423	1162.936	871.077
243.045	14.476	1162.355	870.844
244.059	14.427	1162.059	870.286
245.074	14.580	1160.651	869.957
246.088	14.564	1160.004	869.309
247.103	14.515	1159.227	868.394
248.117	14.655	1158.271	868.330
249.132	14.740	1157.740	868.300
250.147	14.662	1157.165	867.384
251.161	14.725	1156.290	866.978
252.176	14.741	1155.749	866.578
253.190	14.665	1155.421	865.865
254.205	14.826	1154.644	866.040
255.220	14.873	1153.277	865.178
256.234	14.871	1153.021	864.900
257.249	14.937	1152.101	864.477
258.263	14.864	1151.848	863.829
259.278	14.991	1150.630	863.496
260.293	14.973	1150.389	863.149
261.307	14.944	1149.964	862.604
262.322	15.038	1149.422	862.601
263.336	15.071	1148.421	861.947
264.351	15.002	1148.312	861.431
265.366	15.008	1147.448	860.738
266.380	15.107	1146.420	860.400
267.395	15.004	1145.522	859.121
268.409	15.050	1145.009	858.896
269.424	15.022	1144.373	858.199
270.439	14.959	1144.093	857.594
271.453	14.976	1143.344	857.043
272.468	14.940	1142.463	856.118
273.482	15.067	1141.620	856.061
274.497	15.001	1141.082	855.247
275.512	15.180	1140.294	855.495
276.526	15.093	1139.329	854.252
277.541	15.147	1138.777	854.038
278.555	15.154	1137.721	853.203
279.570	15.299	1136.813	853.184
280.585	15.093	1136.738	852.003
281.599	15.315	1135.597	852.204
282.614	15.194	1134.465	850.665
283.628	15.176	1133.138	849.501
284.643	15.233	1132.814	849.475
285.657	15.300	1132.127	849.220
286.672	15.234	1130.597	847.667
287.687	15.257	1129.726	847.056
288.701	15.311	1129.106	846.789
289.716	15.297	1128.419	846.127
290.730	15.328	1127.452	845.484
291.745	15.357	1126.912	845.147
292.760	15.377	1126.391	844.785
293.774	15.347	1125.807	844.120
294.789	15.449	1125.379	844.240
295.803	15.616	1124.523	844.359
296.818	15.487	1123.918	843.183
297.833	15.455	1122.857	842.154
298.847	15.445	1122.410	841.690
299.862	15.502	1121.347	841.108
300.876	15.521	1120.631	840.589
301.891	15.487	1120.118	839.958
302.906	15.558	1119.291	839.620
303.920	15.510	1118.778	838.922
304.935	15.586	1117.887	838.561
305.949	15.784	1117.056	838.850
306.964	15.555	1117.173	837.722
307.979	15.630	1116.242	837.321
308.993	15.721	1115.216	836.932
310.008	15.722	1114.448	836.285
311.022	15.672	1113.977	835.610
312.037	15.598	1113.305	834.665
313.052	15.621	1111.826	833.595
314.066	15.642	1111.308	833.240
315.081	15.602	1110.698	832.507
316.095	15.582	1109.573	831.491
317.110	15.684	1109.094	831.563
318.125	15.580	1107.882	830.071
319.139	15.719	1107.362	830.293
320.154	15.737	1106.697	829.809
321.168	15.802	1105.795	829.380
322.183	15.705	1105.405	828.537
323.197	15.816	1104.882	828.615
324.212	15.779	1104.170	827.827
325.227	15.708	1103.680	827.038
326.241	15.793	1103.090	826.940
327.256	15.829	1101.947	826.184
328.270	15.785	1101.170	825.313
329.285	15.754	1100.347	824.471
330.300	15.833	1099.417	824.092
331.314	15.776	1098.412	822.986
332.329	15.788	1097.684	822.428
333.343	15.725	1096.866	821.433
334.358	16.011	1095.669	821.857
335.373	15.936	1095.096	820.991
336.387	15.850	1094.427	819.997
337.402	16.012	1093.427	819.966
338.416	15.972	1093.036	819.403
339.431	15.995	1092.443	819.000
340.446	16.023	1091.840	818.611
341.460	16.059	1091.292	818.300
342.475	16.031	1090.637	817.601
343.489	16.082	1089.669	817.052
344.504	16.208	1088.435	816.662
345.519	16.239	1087.162	815.787
346.533	16.273	1086.775	815.589
347.548	16.305	1086.428	815.409
348.562	16.321	1085.232	814.516
349.577	16.210	1084.362	813.255
350.592	16.146	1083.517	812.242
351.606	16.133	1083.241	811.902
352.621	16.092	1082.549	811.114
353.635	16.154	1082.033	810.951
354.650	16.131	1081.460	810.343
355.665	16.246	1080.544	810.138
356.679	16.205	1079.999	809.457
357.694	16.326	1079.277	809.425
358.708	16.327	1078.734	808.950
359.723	16.323	1078.032	808.335
360.738	16.243	1077.672	807.612
361.752	16.292	1076.862	807.168
362.767	16.366	1076.455	807.143
363.781	16.467	1075.392	806.757
364.796	16.377	1075.233	806.138
365.810	16.448	1074.755	806.043
366.825	16.483	1073.988	805.564
367.840	16.648	1073.406	805.842
368.854	16.570	1072.785	804.934
369.869	16.563	1072.039	804.270
370.883	16.586	1071.256	803.719
371.898	16.469	1070.772	802.730
372.913	16.485	1069.858	802.051
373.927	16.534	1069.579	802.006
374.942	16.719	1068.785	802.212
375.956	16.527	1068.183	800.782
376.971	16.693	1067.531	801.010
377.986	16.732	1067.277	800.931
379.000	16.759	1066.467	800.380
380.015	16.678	1066.266	799.777
381.029	16.812	1065.409	799.696
382.044	16.843	1064.427	799.031
383.059	16.849	1063.525	798.313
384.073	16.826	1062.823	797.605
385.088	16.861	1062.110	797.168
386.102	16.910	1061.087	796.556
387.117	16.862	1060.207	795.602
388.132	16.808	1059.341	794.626
389.146	16.757	1058.728	793.858
390.161	16.879	1057.740	793.621
391.175	16.807	1057.285	792.869
392.190	16.861	1056.716	792.625
393.205	16.974	1055.916	792.483
394.219	16.978	1054.944	791.703
395.234	16.921	1054.238	790.836
396.248	16.903	1053.019	789.771
397.263	16.905	1052.097	789.017
398.278	16.813	1052.103	788.524
399.292	16.709	1051.028	787.166
400.307	16.917	1050.427	787.611
401.321	16.854	1049.862	786.825
402.336	16.935	1048.755	786.302
403.350	16.842	1048.154	785.349
404.365	17.018	1047.535	785.634
405.380	17.033	1046.681	784.991
406.394	16.971	1046.326	784.368
407.409	17.091	1045.495	784.230
408.423	17.199	1044.385	783.828
409.438	17.151	1043.727	783.045
410.453	17.063	1043.461	782.370
411.467	17.206	1042.579	782.298
412.482	17.178	1042.238	781.845
413.496	17.244	1041.125	781.240
414.511	17.353	1040.630	781.302
415.526	17.322	1040.355	780.883
416.540	17.322	1040.215	780.712
417.555	17.303	1039.415	779.954
418.569	17.278	1038.635	779.183
419.584	17.383	1038.311	779.354
420.599	17.391	1037.788	778.928
421.613	105.493	1324.645	1479.230
422.628	96.776	1366.397	1479.327
