DTS Sentinel unit serial number:	SN413079Multiplexer serial number:	ORYXHardware model number:	OX4-SRSoftware version number:	ORYX F/W v4.00 Oryx Data Collector v3.7.2.0data status	okinstallation	princeton_trtdifferential loss correction	single-endedforward channel	channel 2reverse channel	N/Adate	2019/09/14time	00:43:35forward acquisition time	60.00reverse acquisition time	0.00gamma	496.2192k internal	0.2338k external	0.2338temperature offset calibration	1.0123default loss term (dB/km)	0.3790temperature slope calibration	1.0000multiplexer offset coefficient	1.0000multiplexer slope coefficient	1.0000fibre end	0.00T internal ref (°C)	26.44T ext. ref 1 (°C)	3.17T ext. ref 2 (°C)	21.03length (m)	temperature (°C)	Stokes	anti-Stokes-747.200	29.088	0.261	-0.222
-746.185	301.978	0.131	0.243
-745.171	-200.000	0.020	-0.285
-744.156	-200.000	0.017	0.106
-743.142	-70.020	0.144	-0.055
-742.127	-200.000	0.008	0.261
-741.112	800.000	0.011	-0.043
-740.098	15.615	-0.084	-0.066
-739.083	-200.000	0.027	0.126
-738.069	-200.000	-0.028	0.182
-737.054	200.948	-0.197	0.304
-736.039	-200.000	0.002	0.244
-735.025	125.242	0.181	-0.228
-734.010	105.323	-0.177	-0.209
-732.996	691.350	-0.118	-0.309
-731.981	-86.353	-0.252	-0.078
-730.966	169.814	-0.174	-0.249
-729.952	-54.035	0.334	-0.152
-728.937	176.822	-0.170	-0.247
-727.923	57.405	0.225	-0.221
-726.908	-200.000	0.005	-0.222
-725.894	750.046	0.055	-0.150
-724.879	62.571	0.110	-0.110
-723.864	-83.510	-0.106	0.034
-722.850	331.800	-0.028	0.055
-721.835	-200.000	0.004	0.062
-720.821	-62.014	-0.278	-0.116
-719.806	-24.931	-0.102	-0.061
-718.791	1.866	0.230	0.166
-717.777	-179.798	-0.262	-0.006
-716.762	-200.000	-0.010	-0.445
-715.748	747.290	-0.134	-0.362
-714.733	-200.000	0.092	0.406
-713.718	-56.774	-0.356	0.158
-712.704	-200.000	0.033	-0.291
-711.689	-200.000	-0.038	0.216
-710.675	-59.644	-0.188	0.081
-709.660	-170.694	0.125	-0.004
-708.645	26.990	0.306	-0.257
-707.631	19.172	0.203	0.164
-706.616	357.465	-0.180	0.360
-705.602	-200.000	0.028	0.160
-704.587	-59.045	0.242	-0.104
-703.572	800.000	0.005	0.019
-702.558	203.790	-0.041	-0.064
-701.543	-76.919	-0.199	0.070
-700.529	529.161	-0.033	0.078
-699.514	339.962	-0.091	-0.179
-698.499	65.220	0.206	-0.208
-697.485	-50.239	-0.322	-0.153
-696.470	398.550	-0.162	-0.339
-695.456	402.614	-0.121	0.255
-694.441	77.563	-0.093	0.099
-693.426	60.375	0.175	-0.174
-692.412	-75.072	0.060	-0.021
-691.397	-147.851	0.211	-0.018
-690.383	800.000	-0.075	-0.300
-689.368	-88.539	0.356	-0.106
-688.354	-200.000	-0.033	-0.207
-687.339	800.000	-0.085	0.321
-686.324	-200.000	0.007	-0.112
-685.310	-55.652	0.331	-0.148
-684.295	-200.000	-0.023	0.287
-683.281	-71.865	-0.522	0.195
-682.266	-134.324	0.515	-0.063
-681.251	-39.476	0.121	0.063
-680.237	12.011	0.239	-0.184
-679.222	211.714	0.083	0.130
-678.208	-200.000	0.042	-0.320
-677.193	-69.371	-0.216	-0.083
-676.178	34.415	0.053	-0.047
-675.164	272.918	-0.102	-0.180
-674.149	800.000	0.058	-0.223
-673.135	800.000	0.043	-0.187
-672.120	800.000	-0.076	-0.211
-671.105	-200.000	-0.039	-0.218
-670.091	-60.620	-0.180	0.077
-669.076	800.000	-0.114	-0.322
-668.062	223.855	-0.123	-0.198
-667.047	-162.126	-0.369	0.019
-666.032	3.575	-0.141	0.103
-665.018	800.000	-0.012	0.050
-664.003	114.964	0.171	-0.209
-662.989	62.565	0.182	-0.182
-661.974	311.016	-0.042	0.079
-660.959	-103.230	-0.262	0.062
-659.945	263.987	-0.106	-0.185
-658.930	422.276	-0.105	0.226
-657.916	-76.397	-0.197	-0.069
-656.901	-200.000	-0.006	-0.057
-655.886	-73.060	0.159	0.058
-654.872	-189.265	0.165	-0.002
-653.857	-122.009	0.199	-0.033
-652.843	115.440	0.054	0.066
-651.828	-200.000	0.007	-0.175
-650.814	207.691	-0.071	-0.111
-649.799	-200.000	0.007	-0.076
-648.784	-150.955	-0.228	-0.017
-647.770	-126.935	0.139	0.020
-646.755	491.460	-0.047	0.108
-645.741	-200.000	-0.163	-0.001
-644.726	-200.000	-0.005	-0.423
-643.711	-103.862	-0.074	-0.017
-642.697	-13.278	-0.302	-0.196
-641.682	-85.775	0.211	-0.065
-640.668	51.383	-0.152	-0.144
-639.653	800.000	0.132	-0.373
-638.638	-200.000	-0.058	0.399
-637.624	-84.675	-0.324	0.102
-636.609	153.386	-0.178	0.243
-635.595	-113.581	-0.246	0.048
-634.580	-129.606	-0.123	0.017
-633.565	-61.241	-0.295	0.124
-632.551	-200.000	0.008	0.186
-631.536	-141.172	0.319	-0.033
-630.522	800.000	0.133	-0.494
-629.507	-75.499	-0.209	0.074
-628.492	134.724	-0.158	-0.205
-627.478	238.959	-0.241	-0.400
-626.463	800.000	-0.078	0.252
-625.449	-200.000	-0.046	-0.270
-624.434	-200.000	-0.062	0.378
-623.419	77.823	0.330	0.351
-622.405	-48.300	0.172	0.083
-621.390	-200.000	0.031	-0.160
-620.376	800.000	-0.074	-0.246
-619.361	539.104	0.130	-0.310
-618.346	265.017	0.063	-0.110
-617.332	483.854	-0.026	-0.060
-616.317	-131.692	0.050	-0.007
-615.303	-13.177	-0.269	-0.174
-614.288	-79.474	0.249	-0.084
-613.273	303.235	0.157	0.291
-612.259	431.169	-0.033	0.072
-611.244	634.657	-0.046	-0.117
-610.230	-200.000	0.098	-0.436
-609.215	-110.522	-0.122	0.025
-608.201	-118.275	0.348	-0.062
-607.186	-83.345	-0.252	0.081
-606.171	-81.162	-0.224	-0.074
-605.157	520.375	0.077	-0.180
-604.142	96.981	0.088	-0.101
-603.128	-200.000	0.003	-0.194
-602.113	457.909	-0.127	-0.282
-601.098	-68.556	-0.402	-0.155
-600.084	-104.910	0.435	0.100
-599.069	145.705	0.168	0.225
-598.055	-146.591	0.137	0.012
-597.040	-200.000	0.004	0.051
-596.025	223.055	0.055	0.089
-595.011	583.608	0.055	-0.135
-593.996	-200.000	0.019	0.244
-592.982	410.904	0.132	0.279
-591.967	97.859	0.133	0.153
-590.952	-69.460	0.189	-0.072
-589.938	-147.044	0.342	-0.029
-588.923	-24.778	0.163	0.096
-587.909	-60.896	0.120	-0.051
-586.894	-103.802	0.159	-0.037
-585.879	-104.459	0.109	-0.025
-584.865	-35.881	0.183	-0.099
-583.850	-167.984	0.239	0.009
-582.836	-123.272	0.088	-0.014
-581.821	800.000	-0.042	-0.171
-580.806	-200.000	0.067	-0.330
-579.792	-83.701	-0.216	-0.069
-578.777	3.861	0.351	-0.256
-577.763	-200.000	-0.001	0.299
-576.748	21.683	-0.144	-0.117
-575.733	117.427	0.111	0.136
-574.719	-200.000	-0.020	0.241
-573.704	-55.496	-0.261	-0.116
-572.690	-43.524	0.161	-0.081
-571.675	-166.908	0.087	0.004
-570.661	191.299	-0.078	-0.117
-569.646	48.357	0.108	0.101
-568.631	-167.806	-0.318	-0.013
-567.617	122.260	0.177	0.220
-566.602	6.301	0.177	-0.131
-565.588	442.085	-0.082	-0.179
-564.573	162.409	0.259	0.361
-563.558	-61.295	-0.186	-0.078
-562.544	128.918	-0.124	0.157
-561.529	544.881	0.031	0.073
-560.515	-151.524	-0.270	-0.020
-559.500	2.168	0.209	0.151
-558.485	-90.245	-0.322	0.093
-557.471	-5.096	0.029	-0.020
-556.456	128.941	0.142	0.180
-555.442	-135.982	0.281	0.033
-554.427	-105.931	0.217	-0.049
-553.412	436.336	-0.015	0.033
-552.398	-2.883	0.153	-0.107
-551.383	-158.794	-0.300	-0.017
-550.369	155.707	-0.138	0.189
-549.354	-14.980	0.092	-0.059
-548.339	373.041	0.030	0.061
-547.325	108.905	-0.098	0.116
-546.310	-48.516	-0.141	0.068
-545.296	-25.713	0.066	0.039
-544.281	-151.889	-0.125	0.009
-543.266	800.000	0.067	-0.192
-542.252	800.000	-0.058	-0.246
-541.237	367.842	-0.135	0.272
-540.223	-38.537	0.174	0.092
-539.208	114.836	-0.259	0.314
-538.193	-1.217	0.184	0.129
-537.179	523.484	-0.195	0.456
-536.164	-95.074	-0.226	0.061
-535.150	800.000	0.060	-0.254
-534.135	-69.869	-0.090	0.034
-533.121	-74.325	-0.083	-0.030
-532.106	800.000	-0.023	-0.075
-531.091	57.863	-0.114	-0.111
-530.077	102.921	0.144	0.168
-529.062	210.766	-0.059	-0.092
-528.048	99.536	0.114	-0.131
-527.033	-200.000	-0.010	-0.256
-526.018	382.094	0.140	-0.286
-525.004	508.324	0.079	-0.183
-523.989	800.000	0.036	0.111
-522.975	24.600	0.370	-0.304
-521.960	-200.000	0.007	-0.231
-520.945	199.177	-0.099	-0.150
-519.931	-59.591	0.211	0.090
-518.916	-44.595	0.173	0.086
-517.902	-200.000	-0.045	-0.288
-516.887	222.164	-0.144	0.231
-515.872	-16.300	-0.221	0.139
-514.858	-62.252	0.160	-0.066
-513.843	-126.905	0.134	-0.020
-512.829	-117.109	0.183	0.033
-511.814	-200.000	-0.007	-0.034
-510.799	-79.603	-0.303	0.102
-509.785	-200.000	-0.005	0.264
-508.770	20.884	-0.219	-0.177
-507.756	64.290	-0.073	0.074
-506.741	750.413	0.066	0.178
-505.726	165.866	-0.155	-0.219
-504.712	121.132	0.207	-0.256
-503.697	-200.000	0.002	-0.107
-502.683	9.755	-0.113	-0.085
-501.668	800.000	-0.067	0.231
-500.653	-200.000	0.014	0.188
-499.639	-85.381	-0.123	0.038
-498.624	169.492	0.075	0.106
-497.610	800.000	0.015	-0.064
-496.595	-18.956	-0.273	0.169
-495.581	-200.000	-0.020	-0.096
-494.566	-95.621	-0.146	0.039
-493.551	75.920	0.146	0.153
-492.537	218.643	-0.090	-0.143
-491.522	-195.757	-0.242	0.002
-490.508	-200.000	-0.004	-0.064
-489.493	800.000	0.081	0.276
-488.478	-97.682	-0.317	-0.082
-487.464	17.511	-0.362	-0.286
-486.449	-107.575	0.052	0.011
-485.435	-152.870	0.503	-0.035
-484.420	-5.665	-0.199	0.136
-483.405	16.657	0.185	0.145
-482.391	-63.613	0.115	-0.047
-481.376	-42.254	-0.147	-0.074
-480.362	-80.116	-0.288	-0.096
-479.347	393.108	-0.066	0.136
-478.332	-105.719	-0.188	-0.042
-477.318	-200.000	0.016	-0.105
-476.303	-27.176	0.051	0.029
-475.289	204.460	-0.049	0.075
-474.274	-28.893	-0.182	0.104
-473.259	-200.000	0.035	0.214
-472.245	86.664	0.105	0.114
-471.230	800.000	0.039	-0.145
-470.216	708.363	-0.180	0.472
-469.201	800.000	0.061	0.259
-468.186	52.581	0.170	-0.161
-467.172	-200.000	-0.021	-0.203
-466.157	800.000	-0.078	0.312
-465.143	-98.369	-0.116	0.029
-464.128	-200.000	-0.019	0.089
-463.113	179.463	0.150	0.217
-462.099	-102.885	0.231	-0.054
-461.084	-135.147	0.225	-0.027
-460.070	-55.052	-0.435	-0.195
-459.055	-61.895	0.316	-0.131
-458.040	-106.579	-0.119	-0.026
-457.026	800.000	0.097	0.271
-456.011	-137.181	-0.098	0.011
-454.997	-15.678	0.260	0.165
-453.982	-60.463	0.125	0.053
-452.968	189.859	0.121	-0.180
-451.953	800.000	-0.086	0.279
-450.938	0.211	0.410	0.290
-449.924	-155.190	0.225	-0.015
-448.909	-155.268	-0.164	-0.011
-447.895	-117.005	0.183	0.033
-446.880	56.480	0.068	0.065
-445.865	104.598	-0.192	-0.224
-444.851	42.678	-0.295	-0.266
-443.836	-133.274	-0.106	-0.013
-442.822	347.091	0.084	0.164
-441.807	-122.068	0.044	-0.007
-440.792	-200.000	-0.001	-0.177
-439.778	-14.573	-0.209	0.133
-438.763	-187.043	-0.123	-0.002
-437.749	800.000	0.048	-0.154
-436.734	171.875	0.254	0.362
-435.719	317.203	0.052	0.098
-434.705	140.623	0.102	0.133
-433.690	-19.924	0.124	0.076
-432.676	-117.774	0.209	0.037
-431.661	-135.911	0.226	0.026
-430.646	-200.000	-0.036	0.203
-429.632	56.576	0.157	0.151
-428.617	-200.000	0.015	0.115
-427.603	98.670	0.040	0.045
-426.588	198.971	-0.181	0.275
-425.573	-200.000	0.016	0.121
-424.559	97.081	0.254	0.289
-423.544	-200.000	-0.039	0.173
-422.530	214.664	0.138	-0.217
-421.515	17.949	0.290	0.229
-420.500	800.000	-0.053	0.166
-419.486	-200.000	-0.110	0.478
-418.471	800.000	-0.044	0.158
-417.457	-1.363	-0.101	-0.071
-416.442	517.184	0.059	-0.137
-415.428	775.485	-0.057	-0.153
-414.413	214.599	0.047	-0.074
-413.398	-107.560	-0.475	-0.103
-412.384	-30.220	-0.300	0.169
-411.369	-176.859	0.277	0.007
-410.355	137.167	0.132	0.170
-409.340	-200.000	0.001	-0.186
-408.325	4.509	0.147	-0.107
-407.311	641.190	0.215	-0.542
-406.296	170.788	-0.128	0.182
-405.282	-200.000	-0.018	-0.118
-404.267	-145.313	0.286	-0.026
-403.252	-161.363	-0.110	0.006
-402.238	-157.536	-0.201	-0.012
-401.223	-126.722	-0.250	0.037
-400.209	-87.862	0.140	0.042
-399.194	54.956	0.089	-0.085
-398.179	75.058	-0.389	-0.406
-397.165	-48.926	0.027	-0.013
-396.150	-83.036	-0.213	0.068
-395.136	-200.000	0.002	0.030
-394.121	800.000	0.076	0.249
-393.106	10.617	0.182	-0.137
-392.092	-200.000	0.045	-0.339
-391.077	-40.618	-0.151	-0.077
-390.063	-19.845	-0.093	0.057
-389.048	-72.592	-0.402	-0.147
-388.033	40.042	-0.131	-0.116
-387.019	-86.200	0.201	0.061
-386.004	-17.459	0.314	0.195
-384.990	201.468	0.083	0.126
-383.975	108.269	-0.102	0.120
-382.960	74.125	-0.195	0.202
-381.946	-122.915	-0.279	-0.045
-380.931	21.416	-0.179	0.144
-379.917	-101.079	-0.163	0.040
-378.902	800.000	-0.017	0.064
-377.888	-181.736	-0.200	0.004
-376.873	222.873	0.038	0.060
-375.858	-200.000	-0.016	-0.096
-374.844	-15.035	0.203	-0.128
-373.829	97.967	0.135	0.154
-372.815	-151.734	0.112	-0.008
-371.800	255.815	0.149	-0.252
-370.785	46.631	0.092	0.084
-369.771	-113.240	-0.396	-0.077
-368.756	-113.288	0.148	-0.029
-367.742	800.000	0.065	0.202
-366.727	-83.755	0.047	0.015
-365.712	-200.000	0.026	0.314
-364.698	-187.781	-0.159	0.002
-363.683	196.916	0.185	-0.279
-362.669	30.349	-0.166	0.140
-361.654	178.772	-0.132	-0.191
-360.639	213.109	-0.162	-0.253
-359.625	-139.380	0.222	0.024
-358.610	41.104	-0.080	0.071
-357.596	-105.440	0.204	-0.046
-356.581	-185.628	-0.267	0.004
-355.566	-200.000	0.010	0.077
-354.552	-7.258	-0.350	-0.235
-353.537	204.789	-0.060	0.092
-352.523	498.051	0.074	-0.169
-351.508	22.296	-0.307	-0.248
-350.493	29.040	0.138	-0.116
-349.479	-200.000	0.008	0.162
-348.464	-200.000	0.013	-0.146
-347.450	-11.733	-0.129	-0.084
-346.435	6.747	0.229	-0.169
-345.420	93.120	-0.087	-0.097
-344.406	29.913	0.035	0.029
-343.391	95.286	0.032	-0.037
-342.377	-93.994	-0.142	0.038
-341.362	-95.503	0.118	0.031
-340.348	-59.595	0.141	-0.060
-339.333	-200.000	-0.024	-0.222
-338.318	-200.000	0.041	0.264
-337.304	-3.151	0.086	-0.059
-336.289	-129.207	-0.150	0.021
-335.275	-200.000	-0.024	0.360
-334.260	-200.000	0.020	-0.359
-333.245	83.523	-0.131	-0.141
-332.231	56.088	-0.037	0.036
-331.216	-52.439	0.085	0.039
-330.202	100.658	-0.262	-0.301
-329.187	-200.000	0.005	0.073
-328.172	196.425	0.131	-0.198
-327.158	800.000	0.067	0.214
-326.143	234.947	0.040	0.065
-325.129	-131.213	0.342	-0.045
-324.114	15.401	-0.162	0.125
-323.099	-200.000	0.003	0.214
-322.085	-200.000	-0.021	0.296
-321.070	-155.679	-0.306	0.019
-320.056	-17.013	0.061	-0.038
-319.041	-46.602	-0.260	0.126
-318.026	-200.000	-0.053	0.270
-317.012	-121.548	-0.218	0.036
-315.997	-27.704	-0.086	-0.049
-314.983	639.380	0.115	-0.290
-313.968	-4.927	-0.267	-0.182
-312.953	-9.198	-0.334	0.221
-311.939	738.029	-0.054	-0.143
-310.924	-59.063	0.299	-0.127
-309.910	313.745	0.047	-0.086
-308.895	91.493	-0.065	0.072
-307.880	-200.000	0.005	0.071
-306.866	-76.202	0.007	-0.003
-305.851	120.800	0.209	-0.256
-304.837	-72.952	0.046	0.017
-303.822	-200.000	0.002	-0.331
-302.807	271.338	0.038	0.067
-301.793	-105.746	0.055	0.012
-300.778	-200.000	-0.022	-0.374
-299.764	-89.880	0.211	-0.061
-298.749	93.243	0.101	0.113
-297.735	-200.000	-0.015	-0.222
-296.720	327.314	-0.070	0.132
-295.705	355.617	-0.155	-0.304
-294.691	252.528	0.069	0.116
-293.676	-64.712	0.109	-0.043
-292.662	461.270	0.150	-0.329
-291.647	-164.457	-0.122	0.005
-290.632	647.077	-0.104	0.262
-289.618	230.739	0.083	-0.134
-288.603	-200.000	-0.040	-0.194
-287.589	800.000	0.148	-0.543
-286.574	499.555	0.053	0.121
-285.559	-200.000	0.050	-0.260
-284.545	800.000	-0.016	0.046
-283.530	800.000	-0.062	0.223
-282.516	-52.783	0.160	0.073
-281.501	57.791	0.341	0.328
-280.486	-77.853	-0.229	-0.078
-279.472	319.165	0.016	0.030
-278.457	42.054	0.192	-0.171
-277.443	-85.335	0.101	0.031
-276.428	-96.468	-0.279	-0.073
-275.413	-200.000	0.008	-0.226
-274.399	-33.366	-0.059	-0.032
-273.384	43.115	-0.248	-0.223
-272.370	113.896	0.194	0.232
-271.355	122.107	-0.191	-0.236
-270.340	76.881	0.129	0.135
-269.326	-80.280	0.387	0.128
-268.311	33.443	0.364	0.311
-267.297	-32.399	0.225	-0.123
-266.282	-8.171	-0.253	0.168
-265.267	-200.000	0.072	0.332
-264.253	800.000	0.063	-0.235
-263.238	332.152	0.107	0.203
-262.224	-31.371	0.175	0.097
-261.209	156.116	-0.213	-0.290
-260.195	108.721	0.122	-0.144
-259.180	492.945	-0.096	0.216
-258.165	232.823	0.190	-0.307
-257.151	-149.509	-0.133	0.010
-256.136	-200.000	0.014	-0.159
-255.122	231.192	0.010	-0.016
-254.107	-60.201	0.261	-0.109
-253.092	12.057	0.096	0.073
-252.078	31.683	0.088	-0.074
-251.063	-151.541	0.161	-0.012
-250.049	469.785	-0.057	0.126
-249.034	800.000	-0.097	0.266
-248.019	-120.040	-0.240	-0.041
-247.005	-200.000	-0.042	-0.275
-245.990	64.529	0.119	-0.118
-244.976	-200.000	0.030	-0.307
-243.961	360.970	-0.134	-0.265
-242.946	-14.382	0.203	-0.129
-241.932	191.932	-0.065	-0.097
-240.917	-106.402	0.554	-0.122
-239.903	-37.786	-0.030	-0.016
-238.888	-96.737	0.105	0.027
-237.873	342.254	0.111	-0.213
-236.859	-200.000	-0.013	-0.078
-235.844	-168.099	-0.297	0.011
-234.830	-86.220	-0.224	0.068
-233.815	-168.801	0.165	-0.006
-232.800	-200.000	-0.041	0.177
-231.786	-200.000	0.019	-0.086
-230.771	324.278	0.064	0.120
-229.757	204.312	-0.041	-0.062
-228.742	18.544	-0.159	0.125
-227.727	-117.465	-0.340	-0.060
-226.713	-115.812	-0.160	0.029
-225.698	533.312	0.103	0.240
-224.684	24.309	0.152	0.123
-223.669	-200.000	0.004	0.104
-222.655	530.263	0.076	0.176
-221.640	645.226	-0.110	-0.276
-220.625	-93.730	0.462	-0.125
-219.611	800.000	0.053	0.169
-218.596	800.000	-0.026	0.091
-217.582	-31.100	0.264	0.146
-216.567	54.172	-0.096	-0.091
-215.552	-21.486	0.241	-0.145
-214.538	299.948	0.204	0.370
-213.523	17.964	-0.099	0.077
-212.509	178.576	0.105	0.151
-211.494	-143.110	-0.222	0.021
-210.479	685.014	0.089	0.229
-209.465	99.277	0.127	0.145
-208.450	-86.652	0.154	0.046
-207.436	219.035	-0.037	0.057
-206.421	-107.222	-0.129	0.028
-205.406	46.732	-0.322	-0.294
-204.392	-65.808	0.072	-0.028
-203.377	-123.357	-0.165	0.026
-202.363	-64.257	-0.293	0.117
-201.348	-78.209	0.222	-0.075
-200.333	-200.000	0.007	0.055
-199.319	71.947	-0.205	-0.210
-198.304	598.897	0.080	0.194
-197.290	-200.000	0.013	0.099
-196.275	-101.423	0.208	-0.050
-195.260	-172.024	-0.388	-0.012
-194.246	800.000	0.043	0.130
-193.231	800.000	0.044	-0.127
-192.217	390.036	-0.018	-0.038
-191.202	-143.555	-0.191	-0.018
-190.187	644.756	-0.107	0.268
-189.173	-25.594	0.217	0.126
-188.158	-120.592	-0.087	0.015
-187.144	800.000	-0.064	-0.219
-186.129	-200.000	0.025	0.348
-185.114	800.000	-0.042	-0.170
-184.100	-177.333	0.067	0.002
-183.085	79.472	0.290	-0.305
-182.071	-10.937	-0.060	-0.039
-181.056	126.902	-0.214	0.266
-180.042	198.806	0.098	0.148
-179.027	-200.000	0.027	0.249
-178.012	-200.000	-0.054	0.285
-176.998	-200.000	0.025	0.410
-175.983	77.203	0.026	-0.027
-174.969	-200.000	-0.040	-0.455
-173.954	-36.478	-0.136	-0.072
-172.939	-200.000	-0.028	0.121
-171.925	-200.000	0.022	-0.214
-170.910	-43.291	-0.337	-0.167
-169.896	800.000	0.066	0.202
-168.881	51.291	-0.252	0.234
-167.866	-200.000	-0.009	0.115
-166.852	-200.000	-0.026	0.244
-165.837	240.661	-0.078	-0.128
-164.823	-27.351	0.108	-0.061
-163.808	-54.055	0.384	-0.172
-162.793	-93.315	-0.108	0.029
-161.779	22.169	-0.294	0.235
-160.764	173.306	0.126	0.179
-159.750	749.436	-0.124	-0.328
-158.735	-31.072	-0.135	0.075
-157.720	-146.811	0.135	0.011
-156.706	-149.063	0.195	-0.015
-155.691	-124.696	-0.392	0.060
-154.677	-48.378	-0.152	-0.072
-153.662	302.616	-0.068	-0.124
-152.647	-200.000	0.054	-0.294
-151.633	-36.010	0.250	0.132
-150.618	64.437	-0.285	0.281
-149.604	-200.000	-0.013	0.191
-148.589	-114.768	0.128	-0.024
-147.574	-117.930	-0.229	0.040
-146.560	-63.974	0.202	-0.081
-145.545	-141.513	0.154	0.015
-144.531	269.935	-0.050	0.086
-143.516	16.780	0.159	-0.123
-142.502	113.535	0.142	-0.169
-141.487	-200.000	0.041	0.289
-140.472	-141.984	-0.338	0.033
-139.458	-67.050	-0.276	0.107
-138.443	457.891	0.022	0.047
-137.429	-92.504	0.195	-0.054
-136.414	541.514	-0.032	0.076
-135.399	-200.000	-0.031	0.192
-134.385	64.989	0.059	0.059
-133.370	-200.000	-0.045	0.266
-132.356	614.260	-0.047	-0.115
-131.341	187.369	-0.127	0.185
-130.326	150.867	-0.147	0.196
-129.312	83.682	0.209	-0.224
-128.297	-87.812	0.072	-0.021
-127.283	-93.029	0.064	-0.018
-126.268	800.000	0.054	-0.199
-125.253	-200.000	-0.029	-0.180
-124.239	-78.401	-0.142	-0.048
-123.224	-15.336	-0.088	-0.055
-122.210	-14.100	0.265	-0.168
-121.195	800.000	0.053	-0.218
-120.180	-90.984	-0.231	-0.065
-119.166	471.533	0.060	0.133
-118.151	-90.814	-0.378	0.107
-117.137	-85.750	-0.232	-0.070
-116.122	-135.560	0.253	0.029
-115.107	800.000	-0.081	0.330
-114.093	459.003	-0.050	0.110
-113.078	-84.394	-0.411	-0.127
-112.064	147.394	0.153	0.202
-111.049	-171.479	-0.324	-0.011
-110.034	-73.014	0.179	-0.064
-109.020	0.743	0.268	-0.188
-108.005	-11.030	0.206	0.133
-106.991	800.000	-0.004	-0.011
-105.976	-50.028	-0.262	-0.121
-104.962	511.441	-0.034	0.077
-103.947	104.436	0.022	-0.025
-102.932	-53.714	-0.129	0.058
-101.918	-105.831	0.223	0.049
-100.903	187.069	-0.151	0.220
-99.889	94.105	-0.086	-0.096
-98.874	800.000	0.043	0.179
-97.859	94.589	0.122	-0.136
-96.845	-200.000	0.007	-0.257
-95.830	143.807	0.039	-0.051
-94.816	21.989	-0.174	0.139
-93.801	-145.279	-0.253	0.022
-92.786	265.628	-0.074	0.126
-91.772	-108.140	0.297	0.063
-90.757	800.000	0.030	0.116
-89.743	40.444	0.123	0.109
-88.728	228.042	-0.107	0.170
-87.713	800.000	0.046	-0.164
-86.699	-39.638	-0.318	0.163
-85.684	-114.982	0.235	-0.044
-84.670	34.488	0.279	-0.238
-83.655	490.649	0.044	0.099
-82.640	110.106	0.116	-0.136
-81.626	-93.586	0.405	-0.109
-80.611	-200.000	-0.052	-0.331
-79.597	-27.297	0.349	0.199
-78.582	754.230	-0.088	0.234
-77.567	-200.000	-0.054	-0.271
-76.553	-200.000	0.013	-0.094
-75.538	313.397	0.153	-0.282
-74.524	-144.054	-0.276	0.025
-73.509	-200.000	-0.006	-0.104
-72.494	-114.161	-0.272	0.051
-71.480	-91.830	0.082	0.023
-70.465	800.000	-0.027	-0.093
-69.451	53.355	0.242	0.227
-68.436	-200.000	0.007	-0.036
-67.422	-134.097	-0.138	0.017
-66.407	-85.911	-0.206	0.062
-65.392	417.344	0.140	-0.291
-64.378	276.123	-0.132	0.230
-63.363	-200.000	-0.037	0.160
-62.349	-200.000	0.069	0.375
-61.334	85.409	-1.177	-1.263
-60.319	68.244	0.595	0.595
-59.305	320.266	-0.682	-1.266
-58.290	100.453	0.940	1.065
-57.276	433.714	0.588	1.247
-56.261	-200.000	115.931	642.514
-55.246	498.187	1539.209	3461.860
-54.232	174.896	2717.978	3842.757
-53.217	98.225	2291.882	2577.933
-52.203	35.384	1900.622	1628.420
-51.188	29.590	1694.600	1407.835
-50.173	27.152	1653.467	1355.455
-49.159	46.892	1711.454	1553.457
-48.144	45.685	1724.756	1556.307
-47.130	29.048	1681.835	1392.909
-46.115	26.457	1667.580	1361.579
-45.100	26.341	1662.621	1356.601
-44.086	26.295	1660.293	1354.301
-43.071	26.240	1657.630	1351.668
-42.057	26.230	1655.209	1349.561
-41.042	26.266	1652.775	1347.796
-40.027	26.263	1651.250	1346.474
-39.013	26.268	1649.261	1344.834
-37.998	26.267	1648.009	1343.754
-36.984	26.316	1646.611	1342.928
-35.969	26.380	1645.526	1342.465
-34.954	26.408	1643.504	1340.971
-33.940	26.358	1642.086	1339.389
-32.925	26.384	1640.297	1338.069
-31.911	26.379	1638.207	1336.275
-30.896	26.358	1636.512	1334.679
-29.881	26.459	1634.995	1334.139
-28.867	26.502	1633.327	1333.040
-27.852	26.456	1631.742	1331.354
-26.838	26.427	1630.503	1330.075
-25.823	26.406	1629.810	1329.308
-24.809	26.524	1628.032	1328.668
-23.794	26.542	1626.315	1327.343
-22.779	26.498	1624.942	1325.851
-21.765	26.408	1623.510	1323.974
-20.750	26.406	1622.006	1322.680
-19.736	26.493	1620.320	1321.888
-18.721	26.512	1619.167	1321.034
-17.706	26.479	1617.276	1319.198
-16.692	26.439	1616.404	1318.143
-15.677	26.492	1614.265	1316.730
-14.663	26.521	1612.956	1315.817
-13.648	26.539	1611.468	1314.685
-12.633	26.529	1610.257	1313.575
-11.619	26.472	1608.618	1311.768
-10.604	26.540	1606.876	1310.792
-9.590	26.455	1605.856	1309.287
-8.575	26.509	1604.408	1308.446
-7.560	26.475	1603.156	1307.129
-6.546	26.442	1602.170	1306.033
-5.531	26.462	1601.301	1305.422
-4.517	26.397	1600.020	1303.852
-3.502	26.440	1598.717	1303.051
-2.487	26.482	1597.219	1302.084
-1.473	26.107	1585.280	1289.618
-0.458	23.352	1565.942	1254.359
0.556	20.684	1567.683	1223.564
1.571	18.396	1591.854	1225.958
2.586	17.962	1603.668	1231.820
3.600	15.873	1548.995	1175.152
4.615	9.380	1441.737	1051.369
5.629	3.982	1383.111	974.611
6.644	3.219	1376.015	964.740
7.659	3.147	1374.925	963.445
8.673	3.167	1373.922	962.776
9.688	3.157	1371.793	961.142
10.702	3.226	1368.821	959.405
11.717	5.606	1373.573	977.519
12.731	12.788	1387.042	1032.148
13.746	18.927	1397.032	1078.106
14.761	20.335	1398.320	1087.837
15.775	19.803	1396.213	1082.771
16.790	18.748	1393.920	1074.298
17.804	17.853	1391.644	1066.860
18.819	17.502	1390.737	1063.876
19.834	17.443	1389.716	1062.631
20.848	17.247	1388.329	1060.257
21.863	17.045	1386.689	1057.652
22.877	16.891	1385.653	1055.810
23.892	16.880	1384.630	1054.863
24.907	16.848	1383.815	1053.950
25.921	16.966	1382.785	1053.808
26.936	16.945	1382.282	1053.199
27.950	17.055	1380.621	1052.524
28.965	17.057	1379.907	1051.901
29.980	17.099	1378.701	1051.146
30.994	17.228	1377.822	1051.185
32.009	17.253	1376.856	1050.506
33.023	17.259	1375.759	1049.611
34.038	17.236	1374.048	1048.072
35.053	17.076	1372.882	1046.108
36.067	17.003	1372.164	1045.019
37.082	17.125	1370.677	1044.541
38.096	17.160	1370.196	1044.296
39.111	17.148	1369.268	1043.423
40.126	17.138	1367.923	1042.246
41.140	16.877	1367.318	1040.090
42.155	16.813	1366.303	1038.835
43.169	16.594	1366.928	1037.877
44.184	16.801	1365.892	1038.267
45.199	16.679	1365.665	1037.256
46.213	16.900	1364.812	1037.869
47.228	16.987	1364.448	1038.029
48.242	17.004	1363.127	1037.037
49.257	17.064	1361.556	1036.116
50.271	17.056	1360.135	1034.894
51.286	17.042	1358.813	1033.715
52.301	16.943	1357.770	1032.227
53.315	16.988	1356.499	1031.441
54.330	16.766	1355.996	1029.621
55.344	16.690	1354.526	1027.948
56.359	16.874	1353.188	1027.961
57.374	16.742	1352.130	1026.265
58.388	16.663	1351.609	1025.301
59.403	16.741	1351.234	1025.397
60.417	16.732	1350.024	1024.334
61.432	16.593	1349.217	1022.792
62.447	16.576	1348.233	1021.852
63.461	16.543	1346.953	1020.591
64.476	16.595	1346.051	1020.130
65.490	16.530	1345.003	1018.858
66.505	16.582	1343.183	1017.697
67.520	16.571	1342.147	1016.758
68.534	16.556	1341.037	1015.739
69.549	16.582	1339.800	1014.868
70.563	16.451	1338.942	1013.341
71.578	16.486	1337.813	1012.607
72.593	16.450	1336.571	1011.359
73.607	16.345	1336.030	1010.234
74.622	16.398	1335.013	1009.695
75.636	16.395	1334.445	1009.156
76.651	16.435	1333.629	1008.687
77.666	16.445	1333.490	1008.555
78.680	16.521	1332.966	1008.524
79.695	16.553	1332.093	1007.963
80.709	16.569	1331.685	1007.659
81.724	16.708	1330.782	1007.716
82.739	16.771	1329.875	1007.314
83.753	16.896	1328.957	1007.269
84.768	17.098	1328.171	1007.786
85.782	17.136	1326.960	1007.002
86.797	17.152	1325.856	1006.171
87.812	17.018	1324.383	1004.172
88.826	16.979	1323.616	1003.272
89.841	17.045	1322.462	1002.700
90.855	17.096	1321.624	1002.276
91.870	17.125	1320.676	1001.637
92.884	17.209	1319.761	1001.351
93.899	17.206	1318.876	1000.569
94.914	17.171	1318.363	999.889
95.928	17.129	1317.810	999.134
96.943	17.105	1316.625	998.003
97.957	17.167	1315.302	997.277
98.972	17.066	1314.554	996.032
99.987	17.160	1313.366	995.591
101.001	17.118	1312.804	994.834
102.016	17.003	1311.571	993.136
103.030	17.112	1310.572	992.932
104.045	17.079	1309.857	992.109
105.060	16.962	1308.365	990.209
106.074	16.746	1306.757	987.642
107.089	16.621	1305.328	985.746
108.103	16.577	1303.847	984.287
109.118	16.638	1302.568	983.589
110.133	16.600	1301.584	982.540
111.147	16.627	1299.987	981.399
112.162	16.659	1299.077	980.811
113.176	16.859	1297.463	980.666
114.191	16.750	1297.013	979.610
115.206	16.816	1295.500	978.762
116.220	16.720	1294.659	977.481
117.235	16.826	1293.293	976.979
118.249	16.718	1292.525	975.691
119.264	16.730	1291.056	974.560
120.279	16.629	1289.973	973.077
121.293	16.638	1288.932	972.258
122.308	16.522	1288.064	970.850
123.322	16.457	1286.738	969.393
124.337	16.548	1285.424	968.837
125.352	16.488	1284.128	967.434
126.366	16.516	1283.325	966.902
127.381	16.505	1282.630	966.233
128.395	16.496	1281.660	965.361
129.410	16.557	1280.945	965.086
130.424	16.553	1280.259	964.459
131.439	16.544	1279.385	963.667
132.454	16.635	1278.202	963.207
133.468	16.685	1277.675	963.011
134.483	16.661	1277.093	962.349
135.497	16.691	1275.957	961.581
136.512	16.726	1274.619	960.686
137.527	16.700	1272.797	959.076
138.541	16.762	1271.672	958.497
139.556	16.875	1270.725	958.339
140.570	17.045	1269.653	958.405
141.585	16.968	1268.670	957.142
142.600	17.103	1267.844	957.195
143.614	17.115	1267.016	956.556
144.629	17.199	1265.868	956.076
145.643	17.137	1264.460	954.581
146.658	16.987	1263.194	952.699
147.673	17.032	1261.631	951.687
148.687	16.936	1260.254	950.027
149.702	16.837	1259.370	948.720
150.716	16.771	1258.069	947.287
151.731	16.769	1257.057	946.428
152.746	16.763	1255.994	945.511
153.760	16.900	1254.567	945.121
154.775	16.935	1253.717	944.588
155.789	17.094	1252.554	944.512
156.804	17.129	1251.290	943.673
157.819	17.157	1250.256	942.966
158.833	17.125	1249.786	942.352
159.848	17.192	1249.112	942.127
160.862	17.177	1248.052	941.163
161.877	17.072	1246.264	939.150
162.892	16.958	1245.414	937.798
163.906	16.835	1244.963	936.698
164.921	16.922	1243.826	936.235
165.935	16.975	1242.755	935.641
166.950	17.109	1241.684	935.491
167.964	17.022	1241.719	934.953
168.979	16.877	1240.795	933.375
169.994	16.925	1239.846	932.845
171.008	16.985	1238.941	932.413
172.023	17.149	1238.219	932.685
173.037	17.216	1237.824	932.674
174.052	17.203	1236.535	931.549
175.067	17.064	1234.970	929.525
176.081	16.820	1234.702	927.908
177.096	16.954	1233.344	927.538
178.110	16.974	1232.853	927.193
179.125	17.084	1231.487	926.684
180.140	17.055	1230.190	925.471
181.154	17.192	1228.626	924.956
182.169	17.283	1227.765	924.720
183.183	17.279	1227.017	924.057
184.198	17.242	1225.924	922.948
185.213	17.269	1224.688	922.085
186.227	17.366	1223.271	921.463
187.242	17.320	1222.924	920.868
188.256	17.396	1221.817	920.365
189.271	17.606	1220.541	920.454
190.286	17.211	1219.540	917.488
191.300	16.962	1218.401	915.204
192.315	16.819	1218.009	914.060
193.329	16.785	1217.292	913.257
194.344	17.005	1216.611	913.852
195.359	17.061	1216.789	914.203
196.373	17.284	1215.495	914.351
197.388	17.279	1215.073	913.926
198.402	17.544	1214.638	914.940
199.417	17.548	1214.377	914.684
200.432	17.607	1213.362	914.159
201.446	17.628	1212.654	913.656
202.461	17.824	1211.511	913.766
203.475	17.761	1210.833	912.833
204.490	17.610	1209.548	910.979
205.504	17.442	1207.949	908.795
206.519	17.437	1207.032	907.999
207.534	17.464	1205.519	906.925
208.548	17.466	1204.356	905.980
209.563	17.496	1204.296	906.013
210.577	17.450	1203.330	904.960
211.592	17.616	1202.228	904.934
212.607	17.695	1201.675	904.856
213.621	17.612	1200.813	903.687
214.636	17.663	1199.494	902.885
215.650	17.747	1198.643	902.612
216.665	17.708	1198.053	901.879
217.680	17.873	1197.130	901.975
218.694	17.875	1196.450	901.397
219.709	17.766	1195.784	900.240
220.723	17.837	1194.685	899.707
221.738	17.788	1194.329	899.102
222.753	17.840	1193.312	898.526
223.767	17.850	1192.421	897.833
224.782	18.066	1191.556	898.235
225.796	18.021	1191.389	897.796
226.811	17.993	1190.197	896.668
227.826	17.845	1190.040	895.697
228.840	17.772	1189.256	894.643
229.855	17.890	1188.204	894.390
230.869	17.752	1187.890	893.352
231.884	17.760	1186.577	892.326
232.899	17.654	1185.552	890.923
233.913	17.622	1185.311	890.495
234.928	17.710	1184.050	889.931
235.942	17.591	1183.834	889.066
236.957	17.487	1183.361	888.089
237.972	17.648	1182.246	888.014
238.986	17.683	1181.362	887.454
240.001	17.668	1180.699	886.799
241.015	17.666	1179.589	885.879
242.030	17.803	1178.980	886.051
243.045	17.912	1178.074	885.860
244.059	17.881	1177.574	885.245
245.074	17.919	1176.145	884.286
246.088	17.884	1176.229	884.094
247.103	18.095	1174.911	884.116
248.117	18.110	1174.361	883.698
249.132	18.289	1174.063	884.320
250.147	18.305	1173.784	884.116
251.161	18.404	1172.902	883.884
252.176	18.474	1172.205	883.640
253.190	18.500	1171.743	883.349
254.205	18.558	1171.392	883.308
255.220	18.571	1170.386	882.538
256.234	18.655	1169.692	882.368
257.249	18.614	1168.792	881.397
258.263	18.588	1168.155	880.707
259.278	18.587	1167.801	880.359
260.293	18.604	1167.129	879.859
261.307	18.706	1166.614	879.914
262.322	18.637	1165.987	879.012
263.336	18.758	1165.167	878.934
264.351	18.746	1164.563	878.339
265.366	18.755	1164.100	877.962
266.380	18.764	1163.135	877.200
267.395	18.764	1161.872	876.171
268.409	18.683	1161.187	875.165
269.424	18.670	1160.447	874.460
270.439	18.594	1160.050	873.698
271.453	18.511	1159.582	872.844
272.468	18.493	1158.159	871.604
273.482	18.553	1157.684	871.475
274.497	18.507	1156.718	870.439
275.512	18.580	1156.572	870.622
276.526	18.571	1155.518	869.708
277.541	18.621	1155.049	869.529
278.555	18.642	1154.170	868.898
279.570	18.710	1153.590	868.729
280.585	18.855	1152.956	868.905
281.599	18.866	1151.729	867.962
282.614	18.722	1151.000	866.608
283.628	18.595	1149.822	865.004
284.643	18.699	1148.971	864.811
285.657	18.655	1147.902	863.708
286.672	18.740	1147.096	863.454
287.687	18.745	1146.235	862.754
288.701	18.734	1145.558	862.110
289.716	18.711	1144.588	861.193
290.730	18.729	1143.949	860.726
291.745	18.839	1143.481	860.846
292.760	18.821	1142.670	860.068
293.774	18.811	1142.480	859.801
294.789	19.142	1141.530	860.664
295.803	18.911	1141.094	859.105
296.818	18.796	1140.543	858.042
297.833	18.832	1138.963	856.957
298.847	18.862	1138.766	856.879
299.862	18.792	1137.871	855.784
300.876	18.929	1137.193	855.881
301.891	18.935	1136.623	855.402
302.906	19.081	1135.540	855.239
303.920	19.062	1135.411	854.974
304.935	19.139	1134.821	854.836
305.949	19.310	1134.367	855.268
306.964	19.298	1133.024	854.119
307.979	19.294	1132.401	853.553
308.993	19.158	1131.837	852.378
310.008	19.103	1131.255	851.592
311.022	19.239	1130.526	851.643
312.037	19.293	1129.396	850.982
313.052	19.143	1128.074	849.170
314.066	19.105	1127.070	848.152
315.081	18.960	1126.323	846.800
316.095	18.875	1126.012	846.071
317.110	18.944	1125.091	845.648
318.125	18.934	1124.309	844.933
319.139	19.039	1123.158	844.510
320.154	18.835	1123.381	843.603
321.168	18.846	1122.802	843.147
322.183	18.968	1121.762	842.886
323.197	19.061	1120.693	842.463
324.212	18.983	1120.490	841.859
325.227	19.169	1119.624	842.040
326.241	19.142	1119.168	841.490
327.256	19.207	1117.889	840.770
328.270	19.063	1117.248	839.512
329.285	19.200	1116.157	839.290
330.300	19.148	1115.486	838.457
331.314	19.086	1114.645	837.446
332.329	19.133	1113.753	836.930
333.343	19.196	1112.851	836.486
334.358	19.338	1111.775	836.292
335.373	19.344	1111.183	835.802
336.387	19.340	1110.756	835.388
337.402	19.340	1109.773	834.575
338.416	19.439	1109.347	834.659
339.431	19.450	1108.604	834.080
340.446	19.569	1108.324	834.372
341.460	19.563	1107.547	833.685
342.475	19.775	1106.643	833.949
343.489	19.650	1105.903	832.717
344.504	19.691	1104.970	832.137
345.519	19.778	1104.114	831.838
346.533	19.791	1103.153	831.104
347.548	19.787	1103.000	830.897
348.562	19.863	1101.641	830.161
349.577	19.642	1100.871	828.449
350.592	19.549	1099.864	827.172
351.606	19.455	1099.378	826.282
352.621	19.493	1098.330	825.602
353.635	19.467	1097.635	824.883
354.650	19.504	1097.106	824.590
355.665	19.498	1096.504	824.036
356.679	19.517	1096.094	823.749
357.694	19.608	1095.514	823.672
358.708	19.684	1094.805	823.430
359.723	19.726	1094.191	823.091
360.738	19.786	1093.529	822.810
361.752	19.709	1093.172	822.101
362.767	19.821	1092.328	821.924
363.781	19.870	1091.659	821.583
364.796	19.837	1091.495	821.231
365.810	19.978	1090.884	821.364
366.825	19.997	1090.234	820.894
367.840	20.160	1089.837	821.292
368.854	20.175	1089.087	820.725
369.869	20.145	1088.344	819.955
370.883	20.040	1087.400	818.673
371.898	19.963	1086.717	817.722
372.913	20.033	1086.050	817.480
373.927	20.081	1085.765	817.417
374.942	20.222	1085.206	817.589
375.956	20.126	1084.412	816.465
376.971	20.024	1084.380	815.888
377.986	20.155	1083.442	815.728
379.000	20.144	1082.914	815.206
380.015	20.289	1082.757	815.697
381.029	20.429	1081.672	815.467
382.044	20.338	1080.732	814.258
383.059	20.342	1080.359	813.922
384.073	20.346	1079.188	812.988
385.088	20.397	1078.306	812.493
386.102	20.323	1077.538	811.494
387.117	20.288	1076.786	810.695
388.132	20.138	1075.631	809.050
389.146	20.047	1074.751	807.896
390.161	20.109	1073.960	807.516
391.175	20.106	1073.430	807.031
392.190	20.293	1072.445	807.091
393.205	20.355	1072.100	807.047
394.219	20.216	1071.269	805.703
395.234	20.146	1070.335	804.605
396.248	20.260	1068.886	803.973
397.263	20.177	1068.027	802.874
398.278	20.112	1067.609	802.187
399.292	20.134	1067.031	801.782
400.307	20.034	1066.148	800.587
401.321	20.216	1065.101	800.570
402.336	20.173	1064.294	799.695
403.350	20.028	1064.232	798.909
404.365	20.085	1063.410	798.482
405.380	20.257	1062.791	798.738
406.394	20.320	1061.763	798.185
407.409	20.373	1061.377	798.070
408.423	20.490	1060.813	798.111
409.438	20.682	1059.658	798.052
410.453	20.618	1059.418	797.506
411.467	20.699	1058.502	797.117
412.482	20.673	1058.168	796.678
413.496	20.804	1057.204	796.479
414.511	20.700	1056.858	795.676
415.526	20.867	1056.598	796.170
416.540	20.898	1056.334	796.043
417.555	20.807	1055.566	794.979
418.569	20.683	1055.295	794.136
419.584	20.679	1054.479	793.436
420.599	20.788	1053.898	793.427
421.613	155.459	1405.089	1797.783
422.628	142.675	1456.215	1797.885
