DTS Sentinel unit serial number:	SN413079Multiplexer serial number:	ORYXHardware model number:	OX4-SRSoftware version number:	ORYX F/W v4.00 Oryx Data Collector v3.7.2.0data status	okinstallation	princeton_trtdifferential loss correction	single-endedforward channel	channel 2reverse channel	N/Adate	2019/09/19time	01:55:35forward acquisition time	60.00reverse acquisition time	0.00gamma	496.2192k internal	0.2353k external	0.2353temperature offset calibration	1.0016default loss term (dB/km)	0.3790temperature slope calibration	1.0000multiplexer offset coefficient	1.0000multiplexer slope coefficient	1.0000fibre end	0.00T internal ref (°C)	21.31T ext. ref 1 (°C)	0.68T ext. ref 2 (°C)	14.81length (m)	temperature (°C)	Stokes	anti-Stokes-747.200	-173.334	0.066	0.002
-746.185	433.078	-0.206	0.446
-745.171	176.577	0.118	-0.171
-744.156	390.094	-0.191	-0.395
-743.142	74.740	-0.092	0.096
-742.127	-200.000	-0.054	0.331
-741.112	800.000	-0.044	0.137
-740.098	-128.338	-0.423	0.060
-739.083	-200.000	-0.051	0.444
-738.069	172.969	-0.185	0.266
-737.054	110.091	0.093	0.112
-736.039	-21.254	-0.145	-0.088
-735.025	-30.035	0.150	-0.085
-734.010	161.450	-0.090	0.126
-732.996	160.836	0.156	-0.217
-731.981	-66.289	0.128	-0.051
-730.966	-200.000	0.104	0.472
-729.952	0.036	-0.183	0.130
-728.937	-200.000	0.045	0.203
-727.923	221.328	0.108	-0.173
-726.908	-26.347	0.026	-0.015
-725.894	-200.000	-0.023	-0.124
-724.879	76.345	0.074	0.078
-723.864	377.775	0.080	-0.164
-722.850	5.501	-0.157	-0.115
-721.835	238.563	-0.134	-0.221
-720.821	396.749	0.075	-0.156
-719.806	-91.331	-0.059	0.017
-718.791	-124.390	0.190	-0.029
-717.777	88.529	0.062	0.069
-716.762	257.788	-0.291	0.499
-715.748	-63.884	0.439	0.179
-714.733	800.000	-0.092	0.276
-713.718	106.082	0.025	-0.029
-712.704	18.131	0.075	0.060
-711.689	-200.000	-0.036	0.243
-710.675	126.512	0.062	-0.079
-709.660	71.601	-0.126	0.130
-708.645	-200.000	-0.056	-0.323
-707.631	568.120	0.039	0.095
-706.616	-200.000	-0.013	0.114
-705.602	298.539	0.060	0.110
-704.587	-88.265	0.340	-0.101
-703.572	-200.000	-0.053	0.288
-702.558	-165.516	0.327	0.014
-701.543	-200.000	-0.023	-0.151
-700.529	58.417	-0.174	-0.169
-699.514	16.393	-0.168	0.132
-698.499	-63.351	0.099	0.041
-697.485	-200.000	0.023	-0.220
-696.470	-59.615	-0.075	-0.032
-695.456	-8.608	0.346	-0.231
-694.441	-43.554	0.250	0.126
-693.426	486.367	-0.102	0.231
-692.412	202.206	0.197	-0.302
-691.397	-155.340	-0.126	0.008
-690.383	149.771	0.050	0.067
-689.368	-200.000	-0.027	-0.169
-688.354	-52.113	0.052	-0.024
-687.339	-110.800	-0.156	-0.032
-686.324	-127.666	-0.302	0.043
-685.310	800.000	0.046	0.178
-684.295	12.902	-0.224	-0.172
-683.281	-44.800	-0.226	0.112
-682.266	-150.424	0.252	0.019
-681.251	395.557	0.091	-0.189
-680.237	-21.889	0.096	0.058
-679.222	107.638	-0.143	0.169
-678.208	177.995	-0.086	0.124
-677.193	264.136	-0.190	0.329
-676.178	-74.256	-0.345	-0.124
-675.164	85.732	-0.142	-0.156
-674.149	-200.000	-0.007	-0.169
-673.135	-129.492	-0.176	0.024
-672.120	-200.000	0.007	0.080
-671.105	-158.137	-0.197	-0.011
-670.091	226.609	0.163	-0.264
-669.076	71.666	-0.028	-0.029
-668.062	800.000	-0.082	0.309
-667.047	74.780	-0.142	-0.149
-666.032	-78.608	0.197	0.067
-665.018	-105.255	-0.194	0.044
-664.003	-87.455	-0.268	0.081
-662.989	-70.848	0.314	0.118
-661.974	-15.602	0.029	-0.019
-660.959	62.096	0.264	-0.262
-659.945	-36.594	-0.056	0.030
-658.930	800.000	-0.064	0.225
-657.916	-86.163	-0.148	-0.045
-656.901	91.824	0.263	-0.294
-655.886	39.876	-0.259	-0.231
-654.872	800.000	-0.061	-0.184
-653.857	-200.000	0.006	-0.182
-652.843	178.301	-0.145	0.210
-651.828	144.749	0.280	0.372
-650.814	305.705	0.091	0.167
-649.799	-200.000	0.008	0.224
-648.784	800.000	-0.016	0.054
-647.770	-132.984	0.133	-0.017
-646.755	-99.121	-0.072	-0.018
-645.741	-200.000	0.052	0.313
-644.726	-115.815	-0.269	0.050
-643.711	-65.540	-0.128	-0.051
-642.697	-50.982	0.354	0.165
-641.682	190.269	0.157	-0.234
-640.668	62.542	0.175	0.174
-639.653	264.128	-0.213	-0.368
-638.638	161.032	-0.250	-0.346
-637.624	800.000	-0.046	-0.192
-636.609	103.730	0.159	0.185
-635.595	87.114	-0.115	0.126
-634.580	356.144	-0.093	-0.184
-633.565	-200.000	-0.042	-0.220
-632.551	-200.000	-0.055	0.334
-631.536	-2.892	-0.061	-0.043
-630.522	-200.000	0.040	0.330
-629.507	256.864	-0.088	-0.151
-628.492	330.587	0.093	0.178
-627.478	-200.000	-0.021	-0.182
-626.463	200.100	0.163	0.248
-625.449	45.298	-0.124	0.113
-624.434	-200.000	0.010	-0.047
-623.419	367.495	0.223	-0.446
-622.405	-102.926	-0.287	0.068
-621.390	-200.000	0.065	0.354
-620.376	-200.000	0.022	-0.203
-619.361	-17.526	0.335	-0.209
-618.346	800.000	0.096	-0.303
-617.332	-20.148	-0.081	0.050
-616.317	-200.000	-0.023	-0.136
-615.303	203.536	0.228	-0.349
-614.288	151.197	-0.261	0.352
-613.273	214.318	0.165	0.259
-612.259	-56.859	-0.342	0.150
-611.244	92.524	0.142	0.159
-610.230	-9.384	-0.180	-0.120
-609.215	-200.000	0.004	0.333
-608.201	800.000	0.087	-0.245
-607.186	-83.169	-0.246	-0.078
-606.171	-76.447	-0.073	-0.025
-605.157	-43.929	-0.065	-0.032
-604.142	-95.132	-0.247	0.066
-603.128	800.000	0.012	0.049
-602.113	-7.917	0.175	-0.117
-601.098	-105.962	-0.256	0.057
-600.084	800.000	-0.008	0.033
-599.069	15.075	-0.048	-0.037
-598.055	49.854	-0.179	0.167
-597.040	-36.963	-0.291	0.155
-596.025	761.803	0.100	-0.270
-595.011	3.091	-0.159	-0.115
-593.996	108.215	0.061	0.072
-592.982	-200.000	0.025	-0.428
-591.967	-9.666	0.298	0.197
-590.952	88.934	0.173	-0.190
-589.938	104.410	-0.064	0.075
-588.923	-141.403	0.455	0.046
-587.909	-200.000	-0.021	0.260
-586.894	-45.355	0.167	-0.082
-585.879	-85.922	0.118	-0.036
-584.865	-17.776	0.278	-0.173
-583.850	-116.157	0.330	-0.061
-582.836	-40.649	0.022	-0.011
-581.821	170.500	-0.107	-0.151
-580.806	-75.873	0.089	-0.031
-579.792	341.938	-0.070	-0.135
-578.777	426.437	0.170	0.363
-577.763	800.000	0.085	0.253
-576.748	-42.869	-0.238	-0.120
-575.733	43.356	0.200	-0.181
-574.719	-28.355	-0.105	-0.060
-573.704	-69.694	-0.235	-0.089
-572.690	-57.383	0.177	-0.077
-571.675	800.000	-0.059	0.163
-570.661	-76.027	-0.102	-0.036
-569.646	535.987	-0.017	-0.040
-568.631	274.951	0.099	-0.174
-567.617	345.330	-0.015	0.030
-566.602	-150.353	-0.141	0.011
-565.588	56.916	-0.187	-0.181
-564.573	-200.000	0.005	-0.029
-563.558	113.505	0.380	-0.457
-562.544	-130.852	-0.165	0.022
-561.529	549.752	-0.092	-0.218
-560.515	130.859	-0.076	0.096
-559.500	-117.804	-0.189	-0.034
-558.485	-104.745	-0.327	0.074
-557.471	800.000	-0.053	0.198
-556.456	-61.822	0.327	-0.135
-555.442	-40.393	0.343	-0.176
-554.427	-52.067	0.029	-0.013
-553.412	800.000	0.074	-0.273
-552.398	800.000	-0.032	0.123
-551.383	-100.617	0.260	-0.063
-550.369	-153.883	0.302	0.020
-549.354	-36.937	0.128	0.068
-548.339	13.234	0.137	0.105
-547.325	303.789	0.106	0.194
-546.310	-94.308	-0.310	0.084
-545.296	4.671	0.038	-0.028
-544.281	126.169	-0.145	0.181
-543.266	-200.000	0.003	0.197
-542.252	-79.884	0.088	-0.029
-541.237	-16.754	-0.399	0.250
-540.223	800.000	-0.101	-0.298
-539.208	-57.421	0.448	-0.194
-538.193	-163.612	-0.084	0.004
-537.179	125.049	0.112	-0.139
-536.164	228.286	-0.052	0.084
-535.150	800.000	-0.040	0.113
-534.135	382.872	0.065	-0.133
-533.121	-200.000	-0.006	0.166
-532.106	209.914	-0.199	-0.309
-531.091	-33.808	0.118	0.065
-530.077	1.491	0.257	0.183
-529.062	106.979	0.040	0.047
-528.048	-39.953	0.296	-0.153
-527.033	81.693	0.172	-0.184
-526.018	-200.000	-0.017	0.352
-525.004	151.473	-0.110	-0.147
-523.989	-141.385	-0.140	0.014
-522.975	-200.000	-0.011	0.049
-521.960	-22.261	0.118	-0.071
-520.945	800.000	0.092	0.385
-519.931	-131.416	-0.034	0.004
-518.916	-200.000	-0.013	-0.244
-517.902	-200.000	-0.004	-0.322
-516.887	-31.811	0.072	-0.040
-515.872	-200.000	0.004	0.077
-514.858	4.374	-0.096	0.070
-513.843	346.707	0.038	0.073
-512.829	-60.492	0.188	0.079
-511.814	293.264	-0.049	-0.088
-510.799	80.153	-0.045	0.048
-509.785	-134.102	-0.111	0.014
-508.770	273.861	-0.132	0.231
-507.756	-182.525	0.160	0.003
-506.741	-111.816	-0.287	0.057
-505.726	50.006	0.173	0.161
-504.712	719.166	-0.131	-0.343
-503.697	258.435	0.164	0.279
-502.683	-86.119	0.211	-0.064
-501.668	-45.608	-0.126	0.061
-500.653	277.529	-0.066	0.117
-499.639	800.000	-0.092	-0.313
-498.624	12.524	-0.204	-0.155
-497.610	120.901	-0.155	-0.191
-496.595	2.870	0.108	0.077
-495.581	363.980	0.144	0.285
-494.566	-33.383	0.255	0.140
-493.551	-73.031	0.185	-0.067
-492.537	800.000	-0.107	0.411
-491.522	-28.900	0.075	-0.043
-490.508	49.110	-0.177	-0.164
-489.493	180.320	0.194	0.282
-488.478	-89.658	-0.370	-0.107
-487.464	800.000	0.118	0.331
-486.449	-61.397	0.222	0.092
-485.435	-44.029	0.138	0.069
-484.420	-101.414	-0.277	-0.067
-483.405	-123.402	-0.300	-0.047
-482.391	142.882	0.209	-0.275
-481.376	-200.000	-0.017	-0.125
-480.362	443.501	-0.057	-0.123
-479.347	-200.000	0.027	-0.454
-478.332	-104.310	-0.313	0.072
-477.318	181.277	-0.095	0.138
-476.303	-86.085	-0.422	0.129
-475.289	523.241	-0.183	0.423
-474.274	424.495	-0.150	0.317
-473.259	99.318	-0.185	0.211
-472.245	800.000	0.050	-0.200
-471.230	-91.580	-0.290	-0.082
-470.216	-183.565	-0.421	-0.007
-469.201	-91.310	0.313	-0.088
-468.186	-147.453	0.511	0.043
-467.172	-132.489	0.183	-0.023
-466.157	106.828	0.062	0.073
-465.143	-62.019	0.099	0.041
-464.128	-23.865	0.281	0.166
-463.113	134.205	-0.300	-0.383
-462.099	-200.000	0.000	-0.072
-461.084	-200.000	0.019	0.162
-460.070	-151.297	-0.324	0.024
-459.055	800.000	0.043	-0.181
-458.040	-113.869	0.400	0.077
-457.026	171.197	-0.197	-0.279
-456.011	-200.000	-0.017	-0.234
-454.997	800.000	0.065	-0.229
-453.982	-200.000	-0.007	0.076
-452.968	800.000	0.053	-0.151
-451.953	800.000	-0.087	-0.255
-450.938	57.939	0.153	-0.148
-449.924	-200.000	-0.018	-0.161
-448.909	293.975	-0.066	-0.119
-447.895	750.705	-0.046	0.123
-446.880	343.950	-0.109	0.210
-445.865	800.000	-0.090	0.342
-444.851	218.368	0.216	0.339
-443.836	-166.029	0.258	-0.011
-442.822	-151.500	0.271	-0.020
-441.807	-200.000	-0.032	-0.176
-440.792	138.504	-0.164	-0.212
-439.778	-71.314	0.443	-0.164
-438.763	-137.998	-0.241	0.027
-437.749	16.834	-0.123	0.096
-436.734	-75.166	-0.417	0.147
-435.719	211.408	0.198	0.307
-434.705	-67.603	-0.242	-0.093
-433.690	352.107	0.077	-0.151
-432.676	-52.543	0.130	0.059
-431.661	-119.035	-0.448	0.077
-430.646	-53.054	-0.219	-0.099
-429.632	69.595	-0.189	-0.192
-428.617	-5.957	0.142	0.096
-427.603	153.717	0.158	-0.213
-426.588	375.167	-0.048	-0.097
-425.573	619.097	-0.100	0.247
-424.559	-49.903	-0.359	-0.168
-423.544	-200.000	0.004	-0.375
-422.530	350.615	-0.100	-0.195
-421.515	440.277	0.145	0.313
-420.500	-40.484	0.419	-0.214
-419.486	654.520	-0.016	0.041
-418.471	-74.198	0.160	-0.057
-417.457	-132.738	0.358	0.045
-416.442	688.882	0.113	0.291
-415.428	-158.851	-0.412	0.023
-414.413	106.057	-0.234	-0.273
-413.398	-65.864	-0.333	0.131
-412.384	-22.265	-0.071	-0.042
-411.369	44.706	-0.151	-0.137
-410.355	-68.445	0.136	-0.052
-409.340	-200.000	0.096	0.421
-408.325	36.508	-0.271	0.235
-407.311	168.099	0.051	-0.071
-406.296	83.796	0.104	0.112
-405.282	373.678	0.071	-0.142
-404.267	59.429	0.104	0.101
-403.252	383.131	-0.085	-0.171
-402.238	38.081	0.118	-0.103
-401.223	701.068	0.078	-0.202
-400.209	-200.000	-0.014	0.101
-399.194	-68.536	0.117	-0.045
-398.179	-192.023	-0.149	0.001
-397.165	128.134	0.132	0.165
-396.150	92.890	0.079	-0.087
-395.136	162.369	0.259	-0.357
-394.121	800.000	0.088	-0.302
-393.106	-51.713	0.121	-0.055
-392.092	-28.715	0.395	0.223
-391.077	-23.146	0.155	-0.092
-390.063	-53.352	-0.271	0.122
-389.048	124.782	0.297	-0.368
-388.033	707.952	-0.031	-0.081
-387.019	-117.858	-0.173	-0.030
-386.004	-200.000	0.008	0.066
-384.990	-15.716	0.273	0.171
-383.975	-200.000	-0.002	0.091
-382.960	-81.184	-0.231	0.075
-381.946	-200.000	0.008	0.165
-380.931	-105.940	0.074	0.016
-379.917	17.454	0.028	-0.022
-378.902	-124.216	0.282	0.043
-377.888	173.998	0.236	-0.334
-376.873	-44.237	-0.297	0.146
-375.858	-96.563	-0.048	0.013
-374.844	-115.288	-0.263	0.049
-373.829	800.000	-0.122	0.445
-372.815	570.860	0.075	0.180
-371.800	151.187	0.195	0.261
-370.785	-185.666	-0.332	-0.005
-369.771	400.589	0.048	0.099
-368.756	62.138	-0.132	0.130
-367.742	37.940	0.301	0.263
-366.727	384.709	-0.046	-0.092
-365.712	-200.000	-0.035	0.270
-364.698	800.000	0.022	-0.083
-363.683	-70.329	0.215	0.080
-362.669	107.321	-0.082	-0.095
-361.654	800.000	-0.035	-0.118
-360.639	-113.616	-0.245	-0.047
-359.625	10.117	-0.068	-0.051
-358.610	-111.485	0.125	-0.025
-357.596	-200.000	0.024	0.172
-356.581	5.366	0.188	0.136
-355.566	134.286	0.131	0.167
-354.552	-156.775	0.056	0.003
-353.537	105.821	0.075	0.087
-352.523	-39.038	-0.184	0.095
-351.508	-200.000	0.000	0.130
-350.493	79.272	0.056	0.059
-349.479	197.094	-0.068	-0.102
-348.464	800.000	0.154	-0.444
-347.450	-44.080	-0.221	0.109
-346.435	178.476	-0.062	0.089
-345.420	6.763	0.093	-0.068
-344.406	800.000	-0.068	0.227
-343.391	-175.812	-0.138	-0.004
-342.377	68.877	0.222	0.224
-341.362	-200.000	0.055	0.275
-340.348	136.240	-0.080	-0.102
-339.333	800.000	-0.063	0.253
-338.318	348.703	0.174	-0.337
-337.304	40.824	0.158	0.140
-336.289	-43.973	-0.371	0.183
-335.275	-200.000	-0.009	-0.146
-334.260	-39.411	-0.115	-0.059
-333.245	800.000	-0.071	0.222
-332.231	-120.995	-0.319	-0.053
-331.216	-155.103	0.262	0.017
-330.202	800.000	-0.079	-0.242
-329.187	-121.625	0.088	0.014
-328.172	85.467	-0.214	-0.231
-327.158	42.354	-0.221	-0.197
-326.143	283.125	0.111	-0.195
-325.129	86.091	0.187	-0.202
-324.114	586.199	-0.058	0.141
-323.099	-42.353	0.311	-0.156
-322.085	-69.914	0.416	-0.156
-321.070	-200.000	0.001	0.103
-320.056	-168.599	-0.342	0.013
-319.041	364.767	0.091	-0.180
-318.026	-155.056	-0.134	-0.009
-317.012	-52.147	-0.247	-0.112
-315.997	800.000	0.078	0.229
-314.983	-10.455	-0.136	-0.088
-313.968	-43.828	-0.097	-0.048
-312.953	-200.000	-0.029	-0.224
-311.939	391.380	0.045	-0.092
-310.924	154.598	0.188	-0.253
-309.910	-65.715	-0.388	-0.152
-308.895	160.239	-0.208	0.285
-307.880	-182.551	0.059	-0.001
-306.866	-128.833	-0.235	-0.032
-305.851	-200.000	0.011	0.066
-304.837	-200.000	-0.033	0.165
-303.822	800.000	-0.082	0.249
-302.807	476.172	0.074	0.164
-301.793	-76.572	0.193	0.066
-300.778	800.000	-0.065	0.228
-299.764	13.893	0.157	0.120
-298.749	-37.678	-0.214	0.112
-297.735	107.798	0.227	-0.265
-296.720	-8.390	0.090	-0.059
-295.705	-200.000	0.028	0.147
-294.691	29.435	0.192	-0.160
-293.676	-155.332	0.478	0.030
-292.662	54.623	-0.098	-0.092
-291.647	166.271	-0.181	0.251
-290.632	800.000	-0.081	0.312
-289.618	-200.000	-0.015	0.193
-288.603	22.690	0.146	0.117
-287.589	116.929	0.245	0.294
-286.574	-112.653	-0.202	-0.039
-285.559	-200.000	0.023	0.185
-284.545	-62.682	-0.266	-0.108
-283.530	114.214	-0.051	-0.060
-282.516	96.345	-0.042	-0.048
-281.501	-200.000	0.020	-0.322
-280.486	-145.955	0.093	0.008
-279.472	117.444	-0.236	0.284
-278.457	-200.000	0.012	-0.107
-277.443	-200.000	-0.058	0.290
-276.428	-200.000	0.019	-0.228
-275.413	800.000	-0.060	0.210
-274.399	-200.000	0.004	0.108
-273.384	-164.427	0.093	-0.004
-272.370	49.548	0.237	0.218
-271.355	146.676	-0.237	0.312
-270.340	55.891	0.144	-0.137
-269.326	-23.457	0.222	-0.130
-268.311	415.790	0.048	-0.099
-267.297	-126.238	-0.211	0.031
-266.282	527.656	0.076	0.176
-265.267	-6.589	0.107	0.071
-264.253	-187.528	-0.210	-0.003
-263.238	-200.000	0.045	0.226
-262.224	-14.843	-0.071	0.044
-261.209	800.000	0.038	-0.142
-260.195	-65.886	-0.239	0.094
-259.180	-71.252	-0.173	-0.063
-258.165	202.009	0.040	0.060
-257.151	-0.028	-0.425	-0.296
-256.136	800.000	0.059	-0.232
-255.122	-128.342	-0.232	0.032
-254.107	-104.578	-0.179	-0.040
-253.092	-145.713	0.265	0.023
-252.078	107.086	0.051	0.059
-251.063	-200.000	-0.027	0.179
-250.049	62.257	-0.041	0.040
-249.034	-66.465	0.438	0.170
-248.019	-108.315	-0.365	-0.077
-247.005	-175.025	0.195	0.005
-245.990	-23.641	0.107	-0.063
-244.976	800.000	-0.091	-0.267
-243.961	-200.000	-0.018	-0.189
-242.946	258.867	-0.014	-0.023
-241.932	-43.485	-0.376	-0.186
-240.917	800.000	0.100	-0.274
-239.903	561.580	0.038	-0.090
-238.888	30.076	-0.185	-0.155
-237.873	800.000	0.091	-0.386
-236.859	-142.023	0.282	-0.027
-235.844	42.083	0.391	0.347
-234.830	79.366	-0.161	0.169
-233.815	-13.808	-0.085	0.054
-232.800	-200.000	-0.029	-0.312
-231.786	-43.549	-0.327	-0.161
-230.771	408.540	-0.118	-0.243
-229.757	-61.964	0.076	-0.031
-228.742	36.486	0.142	0.123
-227.727	-200.000	0.081	0.382
-226.713	-200.000	-0.032	0.336
-225.698	406.409	0.116	0.240
-224.684	-97.331	-0.161	0.041
-223.669	-200.000	-0.024	0.111
-222.655	-120.580	-0.203	-0.034
-221.640	-54.028	-0.502	0.223
-220.625	-200.000	0.038	0.199
-219.611	72.641	0.169	-0.172
-218.596	-80.129	0.069	0.023
-217.582	-178.952	-0.380	0.008
-216.567	-103.137	-0.191	0.044
-215.552	800.000	-0.136	-0.394
-214.538	329.984	0.192	-0.361
-213.523	14.162	0.140	-0.106
-212.509	-79.665	0.186	0.061
-211.494	-79.144	0.197	-0.065
-210.479	74.739	0.025	0.026
-209.465	213.788	-0.065	-0.100
-208.450	102.880	0.233	0.266
-207.436	-132.082	0.057	-0.007
-206.421	-200.000	0.061	0.344
-205.406	-143.833	0.500	-0.046
-204.392	-141.626	0.099	0.010
-203.377	207.504	-0.287	0.438
-202.363	-65.128	0.359	-0.141
-201.348	129.829	0.177	-0.221
-200.333	-200.000	-0.002	-0.139
-199.319	-200.000	-0.038	-0.184
-198.304	166.611	0.178	0.246
-197.290	-34.228	0.056	0.030
-196.275	-117.526	0.438	0.077
-195.260	659.024	0.165	-0.414
-194.246	29.014	-0.231	0.191
-193.231	38.658	0.120	0.104
-192.217	-91.974	0.074	-0.020
-191.202	-192.972	0.109	-0.001
-190.187	800.000	-0.037	-0.137
-189.173	43.725	0.147	-0.132
-188.158	-86.605	0.293	0.088
-187.144	-128.838	-0.224	0.031
-186.129	42.655	-0.306	-0.272
-185.114	-99.286	0.244	-0.060
-184.100	-200.000	0.001	0.037
-183.085	243.264	-0.121	0.198
-182.071	335.564	0.044	-0.083
-181.056	104.379	0.130	0.149
-180.042	1.134	-0.262	-0.183
-179.027	510.266	0.134	0.304
-178.012	-130.229	-0.425	-0.056
-176.998	-94.484	-0.285	0.076
-175.983	762.380	-0.120	-0.318
-174.969	800.000	-0.075	-0.240
-173.954	-56.355	0.239	0.103
-172.939	-200.000	0.039	-0.298
-171.925	-200.000	-0.017	0.210
-170.910	305.525	-0.071	0.128
-169.896	-200.000	0.027	0.128
-168.881	-108.320	-0.241	0.051
-167.866	-64.546	0.181	0.072
-166.852	655.974	0.037	0.094
-165.837	-156.607	-0.184	-0.011
-164.823	-161.583	0.064	0.003
-163.808	-200.000	-0.013	-0.182
-162.793	-200.000	0.002	0.157
-161.779	-39.411	0.243	-0.124
-160.764	516.796	0.056	0.127
-159.750	800.000	-0.174	-0.512
-158.735	-45.740	-0.202	0.097
-157.720	-144.284	-0.275	-0.025
-156.706	-200.000	0.036	-0.190
-155.691	-34.203	0.254	-0.136
-154.677	587.223	-0.169	0.405
-153.662	-149.129	-0.055	-0.004
-152.647	800.000	-0.045	0.133
-151.633	-200.000	-0.061	-0.349
-150.618	-133.423	-0.071	0.009
-149.604	800.000	0.062	0.209
-148.589	7.556	-0.129	-0.094
-147.574	294.322	-0.085	0.152
-146.560	319.983	0.176	-0.325
-145.545	-49.305	-0.303	0.141
-144.531	-146.176	-0.070	0.006
-143.516	102.549	0.260	-0.296
-142.502	-200.000	0.061	-0.307
-141.487	45.139	-0.145	0.130
-140.472	64.205	-0.138	0.135
-139.458	-28.295	-0.196	-0.110
-138.443	49.360	0.043	0.039
-137.429	-200.000	-0.010	0.232
-136.414	-50.896	-0.245	-0.112
-135.399	-50.917	0.210	-0.096
-134.385	216.761	0.150	-0.233
-133.370	-60.262	0.045	-0.019
-132.356	51.495	0.214	0.198
-131.341	19.332	-0.047	0.037
-130.326	-80.739	-0.098	0.032
-129.312	228.983	-0.068	-0.108
-128.297	12.553	0.286	-0.214
-127.283	-110.702	0.337	-0.068
-126.268	-200.000	-0.015	-0.174
-125.253	227.769	-0.204	0.324
-124.239	697.914	0.112	0.286
-123.224	113.680	0.161	-0.191
-122.210	800.000	0.013	-0.055
-121.195	-170.848	-0.138	-0.005
-120.180	-61.091	-0.457	0.188
-119.166	-98.223	-0.371	-0.093
-118.151	-134.958	0.324	-0.038
-117.137	-112.431	-0.140	-0.027
-116.122	-53.950	0.285	0.126
-115.107	-97.984	-0.456	0.114
-114.093	-150.508	0.316	-0.024
-113.078	21.900	-0.243	0.193
-112.064	3.569	0.225	-0.160
-111.049	-14.623	0.215	0.134
-110.034	-26.786	-0.231	-0.132
-109.020	-38.158	-0.153	-0.079
-108.005	-200.000	0.024	0.155
-106.991	-200.000	-0.044	0.309
-105.976	242.568	0.130	0.212
-104.962	260.116	-0.024	0.041
-103.947	-90.284	-0.104	-0.029
-102.932	8.920	0.256	-0.188
-101.918	-44.591	-0.283	0.138
-100.903	-200.000	0.032	0.336
-99.889	-124.499	-0.097	-0.015
-98.874	-105.462	-0.218	0.048
-97.859	-200.000	-0.001	-0.030
-96.845	-200.000	0.041	0.369
-95.830	-107.332	0.175	-0.037
-94.816	-33.102	-0.207	-0.111
-93.801	430.525	0.070	-0.147
-92.786	-121.033	-0.066	0.011
-91.772	-78.128	0.174	-0.058
-90.757	-12.428	-0.127	0.081
-89.743	7.525	-0.246	0.179
-88.728	-200.000	0.022	0.210
-87.713	800.000	0.107	-0.297
-86.699	-155.312	-0.136	0.009
-85.684	800.000	0.029	-0.089
-84.670	-59.837	-0.234	-0.097
-83.655	53.048	0.151	-0.140
-82.640	112.510	-0.102	0.119
-81.626	-200.000	0.043	-0.363
-80.611	202.889	-0.172	-0.258
-79.597	-200.000	-0.107	-0.492
-78.582	-43.426	0.152	-0.075
-77.567	59.014	0.138	-0.132
-76.553	245.279	0.038	0.063
-75.538	-133.335	0.350	-0.043
-74.524	-200.000	-0.023	-0.209
-73.509	-200.000	0.040	-0.190
-72.494	-153.293	0.097	-0.007
-71.480	800.000	-0.027	-0.104
-70.465	498.469	0.044	-0.099
-69.451	64.759	0.097	0.095
-68.436	47.031	0.192	0.173
-67.422	420.349	0.029	-0.061
-66.407	-4.731	-0.204	-0.137
-65.392	-115.633	0.078	-0.014
-64.378	-40.134	0.151	0.076
-63.363	-103.905	0.024	-0.005
-62.349	357.883	0.046	-0.088
-61.334	-8.009	-1.546	-1.012
-60.319	271.825	0.348	0.596
-59.305	543.893	-0.538	-1.247
-58.290	140.375	1.157	1.482
-57.276	800.000	0.403	1.419
-56.261	-200.000	134.965	686.089
-55.246	343.174	1676.050	3185.756
-54.232	133.922	2814.755	3536.784
-53.217	83.617	2310.956	2445.090
-52.203	30.092	1908.015	1579.239
-51.188	24.303	1703.513	1365.719
-50.173	22.409	1665.738	1321.183
-49.159	44.789	1738.910	1552.180
-48.144	41.560	1748.406	1535.801
-47.130	23.902	1699.053	1358.871
-46.115	21.376	1683.846	1327.493
-45.100	21.186	1679.261	1322.388
-44.086	21.185	1676.056	1319.805
-43.071	21.110	1674.336	1317.831
-42.057	21.049	1672.166	1315.612
-41.042	21.181	1669.612	1314.544
-40.027	21.246	1667.642	1313.431
-39.013	21.134	1666.349	1311.518
-37.998	21.084	1665.014	1310.038
-36.984	21.184	1663.859	1309.831
-35.969	21.345	1661.760	1309.331
-34.954	21.309	1660.314	1307.874
-33.940	21.295	1658.206	1306.050
-32.925	21.191	1657.331	1304.533
-31.911	21.297	1654.872	1303.339
-30.896	21.282	1653.310	1301.946
-29.881	21.249	1651.945	1300.576
-28.867	21.348	1650.544	1300.157
-27.852	21.324	1649.592	1299.173
-26.838	21.296	1647.961	1297.635
-25.823	21.296	1646.739	1296.618
-24.809	21.390	1645.200	1296.049
-23.794	21.323	1643.630	1294.267
-22.779	21.320	1642.423	1293.246
-21.765	21.288	1640.565	1291.491
-20.750	21.318	1638.910	1290.358
-19.736	21.355	1637.326	1289.336
-18.721	21.396	1636.237	1288.729
-17.706	21.336	1635.099	1287.336
-16.692	21.334	1633.223	1285.794
-15.677	21.342	1632.021	1284.856
-14.663	21.383	1630.535	1283.940
-13.648	21.340	1629.682	1282.897
-12.633	21.369	1628.548	1282.170
-11.619	21.337	1626.337	1280.141
-10.604	21.431	1624.422	1279.271
-9.590	21.469	1623.242	1278.568
-8.575	21.389	1621.906	1276.883
-7.560	21.411	1621.326	1276.533
-6.546	21.408	1620.032	1275.446
-5.531	21.276	1619.308	1273.862
-4.517	21.338	1617.599	1272.917
-3.502	21.345	1616.768	1272.264
-2.487	21.379	1614.584	1270.743
-1.473	20.934	1602.425	1257.915
-0.458	17.926	1582.312	1220.600
0.556	13.322	1584.718	1189.304
1.571	11.117	1609.146	1191.414
2.586	10.911	1620.644	1198.298
3.600	10.304	1566.153	1153.585
4.615	5.898	1461.034	1046.729
5.629	1.572	1404.779	978.545
6.644	0.741	1397.836	968.301
7.659	0.737	1397.273	967.798
8.673	0.656	1396.447	966.626
9.688	0.576	1393.894	964.264
10.702	0.588	1389.756	961.390
11.717	2.755	1392.790	977.219
12.731	8.993	1401.932	1023.443
13.746	14.831	1411.488	1067.723
14.761	17.115	1414.270	1084.336
15.775	16.633	1412.456	1079.777
16.790	15.696	1409.558	1071.500
17.804	14.863	1407.465	1064.507
18.819	14.582	1406.004	1061.525
19.834	14.315	1404.490	1058.591
20.848	14.056	1403.600	1056.181
21.863	13.884	1402.081	1053.852
22.877	13.630	1401.036	1051.358
23.892	13.517	1400.295	1049.995
24.907	13.619	1399.253	1049.767
25.921	13.618	1398.304	1048.955
26.936	13.648	1397.292	1048.292
27.950	13.645	1396.313	1047.449
28.965	13.625	1395.619	1046.710
29.980	13.751	1394.697	1046.721
30.994	13.732	1393.687	1045.747
32.009	13.846	1392.613	1045.569
33.023	13.848	1391.328	1044.524
34.038	13.726	1390.443	1043.001
35.053	13.688	1389.345	1041.847
36.067	13.860	1387.619	1041.539
37.082	13.754	1386.986	1040.307
38.096	13.835	1385.928	1039.928
39.111	13.793	1385.416	1039.189
40.126	13.726	1384.572	1038.042
41.140	13.696	1383.921	1037.274
42.155	13.649	1383.203	1036.354
43.169	13.611	1383.258	1036.061
44.184	13.661	1382.613	1035.800
45.199	13.590	1382.561	1035.227
46.213	13.737	1381.831	1035.509
47.228	13.704	1380.550	1034.250
48.242	13.685	1379.311	1033.114
49.257	13.673	1378.184	1032.099
50.271	13.708	1376.765	1031.167
51.286	13.703	1375.055	1029.765
52.301	13.860	1373.814	1029.715
53.315	13.774	1372.550	1028.144
54.330	13.675	1371.831	1026.900
55.344	13.645	1370.716	1025.791
56.359	13.625	1369.367	1024.564
57.374	13.590	1369.111	1024.071
58.388	13.534	1368.001	1022.802
59.403	13.633	1367.530	1022.968
60.417	13.677	1366.073	1022.062
61.432	13.702	1365.472	1021.674
62.447	13.522	1364.866	1020.020
63.461	13.525	1363.455	1018.896
64.476	13.503	1362.287	1017.800
65.490	13.616	1360.644	1017.172
66.505	13.630	1359.531	1016.335
67.520	13.598	1357.855	1014.798
68.534	13.646	1357.166	1014.486
69.549	13.604	1355.965	1013.246
70.563	13.565	1354.958	1012.164
71.578	13.552	1353.828	1011.150
72.593	13.568	1353.067	1010.593
73.607	13.554	1351.871	1009.523
74.622	13.521	1351.221	1008.745
75.636	13.501	1350.677	1008.131
76.651	13.610	1349.656	1007.941
77.666	13.582	1349.302	1007.415
78.680	13.605	1348.815	1007.102
79.695	13.562	1348.130	1006.242
80.709	13.487	1347.028	1004.878
81.724	13.595	1346.524	1005.068
82.739	13.530	1345.613	1003.903
83.753	13.660	1344.446	1003.731
84.768	13.691	1343.499	1003.125
85.782	13.842	1341.892	1002.746
86.797	13.849	1340.172	1001.416
87.812	13.623	1339.804	999.688
88.826	13.609	1338.465	998.516
89.841	13.635	1336.894	997.414
90.855	13.762	1335.883	997.333
91.870	13.748	1335.633	996.976
92.884	13.782	1334.216	996.032
93.899	13.763	1333.855	995.559
94.914	13.854	1332.811	995.239
95.928	13.899	1332.079	994.872
96.943	13.806	1330.852	993.312
97.957	13.773	1330.204	992.546
98.972	13.821	1329.058	991.890
99.987	13.790	1327.986	990.816
101.001	13.762	1326.993	989.820
102.016	13.773	1326.183	989.191
103.030	13.862	1324.771	988.583
104.045	13.815	1324.062	987.684
105.060	13.817	1322.645	986.555
106.074	13.642	1321.726	984.742
107.089	13.661	1320.311	983.710
108.103	13.597	1318.983	982.257
109.118	13.598	1317.912	981.380
110.133	13.692	1316.269	980.626
111.147	13.594	1315.055	979.051
112.162	13.854	1313.353	979.234
113.176	13.717	1312.685	977.842
114.191	13.765	1311.473	977.137
115.206	13.838	1310.456	976.720
116.220	13.736	1309.583	975.384
117.235	13.712	1308.354	974.238
118.249	13.697	1307.399	973.354
119.264	13.674	1306.484	972.455
120.279	13.753	1304.675	971.483
121.293	13.672	1304.337	970.670
122.308	13.641	1303.216	969.571
123.322	13.658	1301.820	968.543
124.337	13.709	1300.595	967.846
125.352	13.634	1299.660	966.626
126.366	13.712	1298.209	965.916
127.381	13.651	1297.421	964.893
128.395	13.720	1296.228	964.316
129.410	13.723	1295.074	963.390
130.424	13.741	1294.829	963.230
131.439	13.730	1293.437	962.047
132.454	13.749	1292.499	961.371
133.468	13.706	1291.801	960.519
134.483	13.618	1291.347	959.589
135.497	13.706	1289.927	958.954
136.512	13.736	1288.015	957.621
137.527	13.701	1286.925	956.526
138.541	13.728	1285.598	955.610
139.556	13.715	1283.714	954.051
140.570	13.795	1283.309	954.127
141.585	13.811	1281.914	953.094
142.600	13.743	1280.585	951.632
143.614	13.891	1279.809	951.817
144.629	13.893	1278.854	951.037
145.643	13.862	1277.552	949.808
146.658	13.798	1276.293	948.422
147.673	13.774	1275.058	947.285
148.687	13.892	1273.733	946.885
149.702	13.773	1272.283	945.048
150.716	13.825	1271.010	944.316
151.731	13.823	1270.176	943.601
152.746	13.959	1268.438	943.000
153.760	13.904	1267.491	941.899
154.775	14.077	1265.953	941.654
155.789	13.985	1265.063	940.387
156.804	13.990	1263.958	939.508
157.819	14.122	1262.606	939.167
158.833	14.084	1261.869	938.324
159.848	14.035	1261.269	937.513
160.862	14.018	1260.415	936.702
161.877	14.024	1258.890	935.518
162.892	14.015	1258.016	934.738
163.906	14.003	1257.097	933.903
164.921	14.040	1256.060	933.259
165.935	13.962	1255.636	932.422
166.950	14.031	1254.761	932.076
167.964	14.147	1253.466	931.686
168.979	14.134	1253.299	931.405
169.994	14.104	1251.993	930.182
171.008	14.098	1251.572	929.752
172.023	14.155	1250.809	929.423
173.037	14.168	1249.548	928.479
174.052	14.201	1248.655	927.917
175.067	14.137	1247.832	926.866
176.081	14.128	1246.949	926.079
177.096	14.172	1245.733	925.338
178.110	14.143	1244.629	924.271
179.125	14.158	1243.520	923.450
180.140	14.199	1242.028	922.487
181.154	14.125	1241.189	921.373
182.169	14.273	1239.888	921.149
183.183	14.254	1238.648	920.038
184.198	14.374	1237.119	919.483
185.213	14.336	1236.283	918.570
186.227	14.352	1234.722	917.422
187.242	14.387	1233.833	916.870
188.256	14.460	1233.064	916.617
189.271	14.324	1232.338	915.250
190.286	14.269	1231.273	914.078
191.300	14.226	1230.551	913.225
192.315	14.191	1229.822	912.408
193.329	14.246	1229.477	912.376
194.344	14.268	1228.502	911.694
195.359	14.385	1227.963	911.851
196.373	14.413	1227.428	911.528
197.388	14.429	1226.510	910.851
198.402	14.489	1226.500	911.092
199.417	14.448	1225.205	909.826
200.432	14.601	1224.104	909.759
201.446	14.546	1223.926	909.248
202.461	14.637	1222.558	908.646
203.475	14.542	1221.576	907.319
204.490	14.589	1220.272	906.525
205.504	14.563	1218.949	905.323
206.519	14.533	1218.154	904.488
207.534	14.596	1216.470	903.501
208.548	14.607	1215.343	902.644
209.563	14.549	1215.576	902.422
210.577	14.584	1214.248	901.546
211.592	14.507	1213.077	900.179
212.607	14.683	1212.378	900.531
213.621	14.676	1211.475	899.744
214.636	14.728	1210.399	899.144
215.650	14.726	1209.704	898.535
216.665	14.739	1208.424	897.578
217.680	14.883	1207.290	897.430
218.694	14.854	1206.465	896.583
219.709	14.767	1206.241	895.869
220.723	14.738	1205.869	895.357
221.738	14.860	1204.864	895.184
222.753	14.851	1203.931	894.363
223.767	14.799	1203.243	893.495
224.782	14.944	1202.050	893.307
225.796	14.968	1201.576	893.004
226.811	14.943	1201.431	892.685
227.826	14.962	1200.243	891.822
228.840	14.992	1199.436	891.301
229.855	14.883	1199.284	890.530
230.869	14.919	1198.642	890.169
231.884	14.948	1197.252	889.213
232.899	14.917	1196.231	888.209
233.913	14.884	1195.741	887.589
234.928	14.861	1194.993	886.835
235.942	14.859	1194.513	886.390
236.957	14.946	1193.717	886.181
237.972	14.932	1192.923	885.439
238.986	14.975	1191.766	884.733
240.001	14.946	1191.519	884.317
241.015	14.991	1190.365	883.616
242.030	15.002	1189.419	882.894
243.045	15.056	1188.940	882.748
244.059	15.089	1187.639	881.878
245.074	15.085	1187.203	881.453
246.088	15.163	1186.149	881.003
247.103	15.195	1185.519	880.628
248.117	15.058	1185.157	879.558
249.132	15.143	1184.654	879.554
250.147	15.159	1183.642	878.809
251.161	15.217	1182.402	878.114
252.176	15.167	1182.135	877.575
253.190	15.360	1181.702	878.191
254.205	15.369	1180.822	877.504
255.220	15.242	1180.614	876.607
256.234	15.340	1179.635	876.315
257.249	15.367	1178.907	875.839
258.263	15.401	1178.363	875.534
259.278	15.413	1177.907	875.181
260.293	15.417	1177.097	874.522
261.307	15.537	1176.277	874.458
262.322	15.541	1175.636	873.926
263.336	15.578	1174.729	873.365
264.351	15.657	1173.987	873.149
265.366	15.500	1173.575	871.952
266.380	15.659	1172.386	871.816
267.395	15.559	1172.392	871.220
268.409	15.487	1171.911	870.417
269.424	15.611	1170.929	870.251
270.439	15.625	1170.093	869.624
271.453	15.629	1169.688	869.267
272.468	15.584	1168.518	868.089
273.482	15.588	1167.814	867.510
274.497	15.590	1167.183	866.972
275.512	15.613	1166.881	866.791
276.526	15.681	1166.090	866.477
277.541	15.638	1165.228	865.538
278.555	15.673	1164.012	864.740
279.570	15.864	1163.262	865.088
280.585	15.687	1162.760	863.726
281.599	15.711	1161.748	863.023
282.614	15.801	1160.486	862.470
283.628	15.804	1159.517	861.689
284.643	15.840	1158.824	861.284
285.657	15.844	1157.778	860.450
286.672	15.779	1157.176	859.592
287.687	15.854	1155.910	858.962
288.701	15.944	1155.129	858.761
289.716	15.909	1154.332	857.918
290.730	15.994	1153.510	857.664
291.745	15.898	1153.066	856.767
292.760	15.977	1152.565	856.721
293.774	16.007	1152.185	856.514
294.789	15.993	1151.443	855.818
295.803	16.047	1150.723	855.482
296.818	16.108	1149.703	854.955
297.833	16.003	1149.125	853.919
298.847	16.000	1148.424	853.304
299.862	16.051	1147.286	852.642
300.876	16.127	1146.573	852.420
301.891	16.099	1146.095	851.851
302.906	16.116	1145.431	851.366
303.920	16.111	1144.739	850.749
304.935	16.261	1144.012	850.894
305.949	16.177	1143.491	850.007
306.964	16.173	1142.866	849.444
307.979	16.181	1141.730	848.567
308.993	16.137	1141.201	847.876
310.008	16.205	1140.438	847.575
311.022	16.317	1139.640	847.470
312.037	16.248	1138.311	846.065
313.052	16.173	1137.997	845.379
314.066	16.093	1136.998	844.162
315.081	16.338	1135.680	844.330
316.095	16.150	1135.391	843.101
317.110	16.316	1134.434	843.149
318.125	16.266	1133.996	842.498
319.139	16.235	1132.923	841.469
320.154	16.225	1132.375	840.941
321.168	16.274	1131.768	840.656
322.183	16.358	1131.203	840.583
323.197	16.375	1130.546	840.104
324.212	16.285	1130.457	839.516
325.227	16.404	1129.593	839.390
326.241	16.323	1128.816	838.337
327.256	16.342	1128.045	837.784
328.270	16.307	1126.847	836.650
329.285	16.380	1126.377	836.589
330.300	16.432	1125.011	835.754
331.314	16.405	1124.430	835.116
332.329	16.340	1123.558	834.076
333.343	16.378	1122.454	833.367
334.358	16.452	1121.571	833.001
335.373	16.474	1121.148	832.723
336.387	16.442	1120.331	831.883
337.402	16.533	1119.316	831.508
338.416	16.498	1118.792	830.873
339.431	16.554	1117.862	830.383
340.446	16.712	1117.219	830.604
341.460	16.811	1115.765	829.934
342.475	16.773	1115.678	829.611
343.489	16.671	1114.857	828.429
344.504	16.817	1113.842	828.314
345.519	16.755	1113.151	827.425
346.533	16.808	1112.252	826.943
347.548	16.755	1111.561	826.099
348.562	16.810	1111.097	825.946
349.577	16.840	1109.829	825.079
350.592	16.805	1109.241	824.399
351.606	16.792	1108.479	823.693
352.621	16.791	1107.576	822.947
353.635	16.779	1107.093	822.456
354.650	16.807	1106.247	821.889
355.665	16.828	1105.955	821.703
356.679	16.815	1105.036	820.882
357.694	16.807	1104.949	820.709
358.708	16.885	1103.663	820.056
359.723	16.821	1103.615	819.638
360.738	16.859	1102.727	819.090
361.752	16.967	1101.515	818.639
362.767	16.975	1101.337	818.474
363.781	17.124	1100.583	818.557
364.796	16.944	1100.293	817.403
365.810	17.010	1099.532	817.083
366.825	16.989	1099.188	816.654
367.840	17.105	1098.579	816.687
368.854	17.086	1097.738	815.901
369.869	17.089	1096.975	815.277
370.883	17.186	1095.927	814.888
371.898	17.089	1095.283	813.875
372.913	17.163	1094.916	813.884
373.927	17.236	1093.791	813.323
374.942	17.283	1093.502	813.260
375.956	17.069	1094.066	812.587
376.971	17.282	1092.532	812.390
377.986	17.311	1091.960	812.034
379.000	17.336	1091.514	811.749
380.015	17.250	1091.005	810.890
381.029	17.330	1090.267	810.650
382.044	17.408	1089.481	810.363
383.059	17.426	1088.795	809.869
384.073	17.407	1088.175	809.246
385.088	17.535	1086.845	808.791
386.102	17.501	1086.038	807.959
387.117	17.347	1085.199	806.536
388.132	17.431	1084.165	806.093
389.146	17.414	1083.524	805.462
390.161	17.405	1082.788	804.803
391.175	17.462	1081.993	804.408
392.190	17.459	1082.004	804.330
393.205	17.592	1080.777	803.977
394.219	17.469	1080.300	802.968
395.234	17.597	1079.226	802.704
396.248	17.381	1078.230	800.874
397.263	17.444	1077.033	800.212
398.278	17.438	1076.312	799.580
399.292	17.420	1076.077	799.248
400.307	17.606	1074.851	799.139
401.321	17.469	1074.427	798.110
402.336	17.526	1073.880	797.900
403.350	17.454	1073.587	797.277
404.365	17.570	1072.367	796.843
405.380	17.658	1071.529	796.560
406.394	17.757	1070.736	796.360
407.409	17.659	1070.075	795.344
408.423	17.770	1069.614	795.448
409.438	17.720	1068.857	794.582
410.453	17.653	1068.035	793.589
411.467	17.878	1067.349	794.056
412.482	17.801	1066.640	793.098
413.496	17.927	1065.579	792.823
414.511	17.941	1065.213	792.545
415.526	17.939	1065.180	792.441
416.540	17.957	1064.408	791.880
417.555	17.839	1063.761	790.785
418.569	17.918	1063.305	790.742
419.584	18.028	1062.573	790.634
420.599	17.883	1062.482	789.828
421.613	109.718	1331.951	1490.300
422.628	101.382	1371.136	1490.387
