DTS Sentinel unit serial number:	SN413079Multiplexer serial number:	ORYXHardware model number:	OX4-SRSoftware version number:	ORYX F/W v4.00 Oryx Data Collector v3.7.2.0data status	okinstallation	princeton_trtdifferential loss correction	single-endedforward channel	channel 2reverse channel	N/Adate	2019/09/19time	10:07:35forward acquisition time	60.00reverse acquisition time	0.00gamma	496.2192k internal	0.2345k external	0.2345temperature offset calibration	1.0006default loss term (dB/km)	0.3790temperature slope calibration	1.0000multiplexer offset coefficient	1.0000multiplexer slope coefficient	1.0000fibre end	0.00T internal ref (°C)	23.94T ext. ref 1 (°C)	0.68T ext. ref 2 (°C)	19.70length (m)	temperature (°C)	Stokes	anti-Stokes-747.200	109.659	-0.137	-0.164
-746.185	185.480	-0.073	0.108
-745.171	-109.570	0.350	-0.074
-744.156	-113.058	-0.255	-0.050
-743.142	-89.404	0.285	-0.084
-742.127	162.915	0.225	0.315
-741.112	683.033	0.109	0.286
-740.098	-171.965	-0.251	-0.008
-739.083	65.382	-0.251	-0.254
-738.069	-137.207	-0.171	0.019
-737.054	-36.722	-0.236	-0.127
-736.039	-123.284	-0.098	-0.016
-735.025	131.190	0.042	0.054
-734.010	-32.838	-0.260	-0.144
-732.996	-200.000	0.041	0.235
-731.981	-159.110	0.140	0.008
-730.966	-103.364	-0.127	-0.030
-729.952	591.745	-0.006	0.016
-728.937	-200.000	0.038	-0.480
-727.923	37.048	0.217	-0.192
-726.908	20.774	0.072	-0.058
-725.894	-11.033	-0.178	-0.117
-724.879	-153.399	-0.296	0.021
-723.864	-200.000	-0.031	-0.220
-722.850	-200.000	-0.024	0.422
-721.835	32.809	0.320	0.276
-720.821	101.644	-0.178	0.208
-719.806	494.871	0.109	-0.251
-718.791	140.719	-0.031	0.041
-717.777	91.507	0.154	0.173
-716.762	-90.818	-0.161	-0.046
-715.748	-40.949	-0.117	-0.061
-714.733	158.092	-0.043	0.059
-713.718	-45.309	-0.287	-0.142
-712.704	-29.011	0.188	0.108
-711.689	800.000	0.108	0.386
-710.675	-68.868	0.377	0.145
-709.660	15.761	0.156	0.123
-708.645	800.000	-0.018	-0.060
-707.631	-26.218	0.232	-0.136
-706.616	-200.000	0.019	0.206
-705.602	71.067	0.114	-0.119
-704.587	153.811	-0.202	-0.276
-703.572	800.000	0.049	-0.150
-702.558	17.474	0.372	0.296
-701.543	-153.972	0.087	0.006
-700.529	188.782	-0.053	0.079
-699.514	240.576	0.119	0.198
-698.499	250.741	0.127	0.215
-697.485	800.000	-0.049	0.185
-696.470	-77.510	-0.338	-0.117
-695.456	-200.000	-0.028	-0.123
-694.441	-114.629	-0.354	-0.068
-693.426	84.191	0.092	-0.100
-692.412	76.536	-0.061	-0.065
-691.397	-200.000	0.162	0.000
-690.383	-142.228	-0.173	-0.017
-689.368	-47.448	-0.252	-0.122
-688.354	-200.000	0.011	-0.323
-687.339	225.517	0.073	-0.118
-686.324	-19.535	-0.178	-0.110
-685.310	-81.234	-0.248	0.082
-684.295	-63.763	0.172	-0.070
-683.281	343.628	-0.120	0.235
-682.266	-110.668	-0.321	0.066
-681.251	-140.617	0.188	0.019
-680.237	56.573	0.087	0.085
-679.222	-62.096	-0.113	-0.047
-678.208	-133.752	0.290	0.036
-677.193	-144.192	0.274	-0.026
-676.178	-42.208	0.169	-0.086
-675.164	17.011	-0.142	-0.112
-674.149	72.112	-0.172	0.178
-673.135	-200.000	-0.055	-0.285
-672.120	-200.000	0.019	0.204
-671.105	-34.547	-0.120	0.066
-670.091	57.465	0.215	0.209
-669.076	-200.000	0.047	-0.367
-668.062	-22.334	-0.108	-0.065
-667.047	-29.058	-0.259	-0.148
-666.032	402.175	0.027	-0.057
-665.018	73.745	0.240	-0.251
-664.003	42.451	-0.198	-0.179
-662.989	-168.568	-0.102	0.004
-661.974	-48.354	-0.453	-0.218
-660.959	436.354	-0.060	0.131
-659.945	-114.323	-0.011	-0.002
-658.930	76.941	-0.034	-0.036
-657.916	-172.907	-0.219	0.007
-656.901	326.868	0.090	-0.172
-655.886	211.873	0.121	-0.190
-654.872	1.587	-0.090	-0.065
-653.857	-86.218	0.132	0.040
-652.843	10.558	-0.146	-0.111
-651.828	-200.000	0.001	0.012
-650.814	-101.656	-0.274	-0.066
-649.799	-52.736	0.196	0.090
-648.784	-1.780	-0.215	0.151
-647.770	49.219	0.197	-0.184
-646.755	-142.560	0.290	-0.028
-645.741	-170.656	-0.229	-0.008
-644.726	-100.908	0.182	0.045
-643.711	-77.403	0.065	-0.023
-642.697	-197.988	-0.422	-0.003
-641.682	-200.000	-0.017	0.156
-640.668	800.000	0.040	-0.135
-639.653	313.681	0.099	-0.185
-638.638	124.441	-0.089	0.111
-637.624	69.906	-0.168	-0.172
-636.609	-69.820	0.194	-0.074
-635.595	800.000	0.082	-0.299
-634.580	-28.919	-0.272	0.156
-633.565	-200.000	0.016	-0.177
-632.551	440.255	-0.047	0.103
-631.536	310.419	0.120	0.223
-630.522	800.000	0.007	-0.028
-629.507	-126.351	-0.299	0.044
-628.492	-1.686	0.342	0.240
-627.478	214.458	0.122	-0.192
-626.463	-5.391	0.159	-0.109
-625.449	-28.274	-0.117	-0.067
-624.434	141.349	0.101	-0.134
-623.419	800.000	-0.103	0.347
-622.405	800.000	-0.062	0.206
-621.390	800.000	-0.067	0.210
-620.376	75.573	-0.160	-0.169
-619.361	100.394	-0.078	0.090
-618.346	21.860	-0.323	-0.262
-617.332	-200.000	0.015	0.313
-616.317	174.104	0.104	-0.150
-615.303	-113.551	-0.134	-0.026
-614.288	-200.000	0.079	0.353
-613.273	222.886	-0.150	0.241
-612.259	58.665	-0.115	-0.113
-611.244	800.000	0.156	-0.530
-610.230	78.277	-0.144	-0.153
-609.215	-97.968	0.145	-0.037
-608.201	-135.847	-0.247	-0.029
-607.186	-109.003	-0.195	0.041
-606.171	-100.018	0.043	0.011
-605.157	80.488	-0.231	0.248
-604.142	172.033	-0.112	0.161
-603.128	-143.872	0.182	-0.017
-602.113	-133.721	0.094	-0.012
-601.098	-45.566	-0.236	-0.116
-600.084	-98.834	0.123	0.031
-599.069	-200.000	0.066	0.306
-598.055	-200.000	0.023	0.127
-597.040	-50.242	-0.200	-0.094
-596.025	-200.000	-0.017	-0.095
-595.011	119.097	-0.034	-0.042
-593.996	-81.307	-0.110	-0.036
-592.982	790.305	-0.099	0.271
-591.967	111.083	0.120	-0.144
-590.952	-125.811	0.092	-0.014
-589.938	-28.616	0.167	-0.095
-588.923	-34.275	0.173	0.094
-587.909	-200.000	0.015	0.210
-586.894	456.614	0.037	0.082
-585.879	-112.048	-0.193	0.039
-584.865	61.563	0.193	0.191
-583.850	-132.664	-0.309	0.039
-582.836	-127.528	-0.068	-0.010
-581.821	-200.000	-0.016	-0.210
-580.806	800.000	-0.010	0.035
-579.792	-200.000	-0.020	0.169
-578.777	-88.776	-0.114	0.034
-577.763	-200.000	-0.029	0.337
-576.748	18.498	-0.104	0.083
-575.733	-49.571	0.220	0.104
-574.719	-101.805	-0.318	0.077
-573.704	-121.083	0.200	-0.033
-572.690	13.947	-0.064	0.049
-571.675	-200.000	-0.014	0.317
-570.661	155.539	0.112	0.153
-569.646	201.903	-0.086	0.132
-568.631	357.106	0.059	-0.117
-567.617	-41.161	-0.174	0.089
-566.602	-10.159	-0.174	-0.115
-565.588	-150.468	-0.249	-0.019
-564.573	121.393	-0.129	0.160
-563.558	-100.607	-0.190	0.047
-562.544	800.000	0.070	0.286
-561.529	339.222	-0.122	-0.236
-560.515	-30.963	-0.215	0.121
-559.500	-187.518	-0.436	-0.006
-558.485	-38.093	-0.114	-0.060
-557.471	-124.323	0.129	-0.020
-556.456	179.774	0.194	-0.283
-555.442	583.526	-0.072	-0.176
-554.427	118.754	0.088	-0.108
-553.412	489.278	-0.067	-0.151
-552.398	-60.636	0.130	0.055
-551.383	800.000	0.029	-0.110
-550.369	114.416	0.174	0.210
-549.354	-200.000	-0.011	-0.064
-548.339	-115.323	-0.318	-0.060
-547.325	201.279	0.114	0.174
-546.310	-140.216	-0.181	0.019
-545.296	800.000	0.025	-0.080
-544.281	77.021	0.102	-0.107
-543.266	-200.000	-0.001	0.012
-542.252	-7.483	0.292	-0.196
-541.237	79.340	0.131	0.139
-540.223	39.985	-0.158	-0.141
-539.208	-45.768	-0.110	0.054
-538.193	-118.786	0.388	-0.068
-537.179	800.000	-0.051	-0.152
-536.164	-12.954	-0.299	-0.193
-535.150	-10.659	-0.059	-0.039
-534.135	34.242	0.146	-0.126
-533.121	-200.000	0.053	-0.421
-532.106	-167.531	0.061	-0.002
-531.091	257.864	-0.089	-0.152
-530.077	-200.000	-0.030	-0.231
-529.062	475.950	-0.105	-0.236
-528.048	265.476	-0.122	0.211
-527.033	-200.000	0.059	-0.279
-526.018	-88.898	-0.205	0.060
-525.004	380.239	0.109	-0.222
-523.989	-94.826	0.035	-0.010
-522.975	800.000	-0.103	-0.348
-521.960	-2.448	-0.109	-0.076
-520.945	-21.627	0.375	0.227
-519.931	79.650	0.041	0.044
-518.916	142.126	0.138	0.181
-517.902	-198.186	0.122	0.001
-516.887	-104.850	-0.177	0.040
-515.872	-200.000	-0.012	0.189
-514.858	-163.196	0.349	0.017
-513.843	-19.133	0.174	-0.107
-512.829	31.913	-0.044	0.038
-511.814	-83.001	0.169	-0.054
-510.799	-75.405	-0.152	0.054
-509.785	-101.651	-0.276	-0.066
-508.770	267.412	-0.165	0.285
-507.756	491.236	-0.163	-0.369
-506.741	-56.852	-0.162	0.071
-505.726	800.000	-0.016	0.050
-504.712	308.999	0.087	-0.162
-503.697	204.012	0.087	-0.133
-502.683	-38.088	0.148	0.078
-501.668	-200.000	-0.010	-0.378
-500.653	-200.000	0.004	-0.288
-499.639	-200.000	-0.005	-0.051
-498.624	239.267	0.044	-0.073
-497.610	44.282	-0.087	-0.079
-496.595	-4.467	0.271	0.186
-495.581	-32.188	0.211	-0.117
-494.566	-200.000	-0.069	0.370
-493.551	26.593	-0.040	0.033
-492.537	-132.168	0.335	0.043
-491.522	248.497	0.019	0.032
-490.508	-122.394	-0.360	-0.058
-489.493	-89.895	0.210	0.061
-488.478	-171.473	0.175	-0.006
-487.464	-13.807	-0.058	0.037
-486.449	21.728	0.210	-0.169
-485.435	-42.576	0.145	-0.073
-484.420	-62.377	-0.162	0.067
-483.405	-200.000	-0.003	0.119
-482.391	690.491	-0.110	0.285
-481.376	-200.000	-0.010	-0.082
-480.362	-41.535	-0.213	-0.108
-479.347	800.000	0.021	0.089
-478.332	-20.530	-0.134	-0.082
-477.318	110.427	0.194	-0.231
-476.303	-78.595	-0.374	-0.127
-475.289	800.000	-0.146	0.411
-474.274	4.954	0.101	-0.074
-473.259	529.440	-0.012	-0.029
-472.245	-186.023	0.324	-0.005
-471.230	-4.020	0.275	0.189
-470.216	459.772	-0.069	0.152
-469.201	-200.000	0.010	0.062
-468.186	319.826	-0.112	-0.210
-467.172	467.713	0.166	0.368
-466.157	800.000	0.078	0.297
-465.143	-200.000	-0.008	0.105
-464.128	147.577	-0.189	0.252
-463.113	800.000	0.095	-0.361
-462.099	-58.687	-0.101	0.043
-461.084	-61.400	0.255	0.106
-460.070	32.885	-0.406	0.348
-459.055	-122.038	-0.347	0.056
-458.040	387.994	0.025	0.052
-457.026	-45.450	0.057	-0.028
-456.011	5.761	-0.221	0.161
-454.997	-200.000	-0.004	0.172
-453.982	682.495	0.140	0.361
-452.968	140.855	0.109	-0.143
-451.953	183.182	0.125	-0.183
-450.938	-133.578	-0.192	-0.024
-449.924	56.350	-0.124	-0.119
-448.909	136.189	0.149	-0.192
-447.895	171.827	-0.147	0.208
-446.880	647.374	0.103	-0.261
-445.865	53.091	-0.171	-0.162
-444.851	2.696	-0.287	0.206
-443.836	-10.008	-0.139	0.091
-442.822	800.000	-0.045	0.175
-441.807	-53.946	-0.297	-0.134
-440.792	-74.317	-0.080	-0.029
-439.778	-109.463	0.156	0.033
-438.763	-200.000	0.013	0.078
-437.749	-200.000	-0.008	-0.071
-436.734	357.783	-0.040	0.079
-435.719	-18.178	-0.172	0.106
-434.705	39.085	0.366	-0.323
-433.690	11.213	0.105	-0.079
-432.676	88.457	-0.256	0.281
-431.661	485.588	-0.121	0.273
-430.646	-191.259	-0.070	0.001
-429.632	-109.778	0.306	0.064
-428.617	-45.545	-0.053	-0.026
-427.603	-130.974	-0.205	0.027
-426.588	800.000	0.080	0.267
-425.573	800.000	0.091	0.310
-424.559	-1.035	0.090	0.063
-423.544	-200.000	-0.048	0.361
-422.530	21.547	0.172	0.139
-421.515	-200.000	0.003	-0.032
-420.500	-200.000	-0.025	-0.270
-419.486	-115.467	0.164	0.030
-418.471	66.829	0.196	-0.198
-417.457	-72.074	0.485	0.178
-416.442	-200.000	0.018	0.170
-415.428	800.000	0.150	-0.425
-414.413	-135.737	-0.281	-0.033
-413.398	-85.894	-0.413	-0.126
-412.384	-125.367	-0.157	-0.024
-411.369	-155.017	0.144	-0.009
-410.355	800.000	0.093	-0.347
-409.340	-200.000	-0.028	-0.339
-408.325	-71.405	-0.152	0.056
-407.311	72.991	0.223	0.230
-406.296	-200.000	0.015	0.095
-405.282	104.662	0.220	-0.256
-404.267	88.639	0.173	0.190
-403.252	667.755	0.083	-0.212
-402.238	524.006	0.092	0.212
-401.223	128.469	-0.111	0.140
-400.209	-83.456	-0.486	0.154
-399.194	502.397	0.117	-0.267
-398.179	-74.239	0.146	0.052
-397.165	-70.238	-0.021	-0.008
-396.150	-200.000	-0.026	0.515
-395.136	-137.793	0.345	-0.038
-394.121	244.817	-0.100	-0.166
-393.106	187.170	0.212	-0.311
-392.092	340.087	0.160	0.308
-391.077	-200.000	-0.033	0.234
-390.063	800.000	-0.082	-0.317
-389.048	38.755	-0.291	0.257
-388.033	-8.097	0.066	0.044
-387.019	60.570	0.089	-0.087
-386.004	-43.150	0.123	-0.061
-384.990	108.181	-0.297	-0.350
-383.975	411.709	-0.212	0.444
-382.960	-125.156	0.231	-0.035
-381.946	149.813	0.202	-0.270
-380.931	-144.115	-0.225	-0.021
-379.917	53.100	0.177	-0.167
-378.902	472.344	0.087	0.192
-377.888	800.000	-0.072	-0.245
-376.873	158.439	0.116	-0.158
-375.858	65.355	-0.230	-0.230
-374.844	-15.781	-0.283	-0.178
-373.829	-63.065	0.175	0.071
-372.815	-200.000	0.038	0.210
-371.800	800.000	-0.182	-0.505
-370.785	210.919	0.039	-0.060
-369.771	-200.000	0.012	-0.341
-368.756	-42.720	0.269	-0.135
-367.742	-8.920	-0.308	0.204
-366.727	-93.520	0.068	-0.019
-365.712	115.136	0.080	-0.096
-364.698	189.807	-0.118	0.175
-363.683	218.199	-0.097	-0.152
-362.669	-200.000	0.086	0.403
-361.654	800.000	-0.106	0.443
-360.639	219.995	-0.067	-0.105
-359.625	-200.000	-0.038	0.208
-358.610	37.541	0.224	-0.196
-357.596	138.994	-0.127	0.165
-356.581	157.737	-0.030	-0.041
-355.566	-113.404	-0.158	-0.031
-354.552	-12.078	-0.461	0.297
-353.537	107.808	-0.209	-0.245
-352.523	800.000	-0.084	-0.239
-351.508	-123.638	0.384	0.060
-350.493	-51.835	-0.202	-0.092
-349.479	-200.000	-0.005	-0.185
-348.464	-200.000	-0.008	-0.092
-347.450	800.000	0.034	-0.125
-346.435	-200.000	0.023	-0.265
-345.420	-39.548	0.064	-0.033
-344.406	589.080	0.033	0.081
-343.391	-138.515	-0.143	-0.015
-342.377	-4.013	0.216	0.147
-341.362	-44.454	0.353	0.174
-340.348	72.742	-0.157	-0.162
-339.333	48.565	0.212	-0.196
-338.318	79.356	0.262	-0.276
-337.304	-200.000	0.038	0.431
-336.289	-200.000	0.000	0.183
-335.275	-200.000	-0.003	-0.204
-334.260	800.000	0.072	-0.272
-333.245	-93.868	0.169	-0.046
-332.231	212.102	-0.224	0.348
-331.216	-200.000	0.017	-0.080
-330.202	-35.696	-0.113	-0.061
-329.187	34.136	0.118	-0.101
-328.172	745.159	0.078	0.206
-327.158	-87.277	0.355	0.106
-326.143	62.420	-0.204	-0.200
-325.129	-106.807	0.170	0.037
-324.114	190.690	-0.050	0.074
-323.099	-200.000	0.008	0.339
-322.085	136.044	-0.165	0.211
-321.070	541.864	0.031	-0.072
-320.056	169.724	0.045	-0.063
-319.041	-200.000	0.009	0.125
-318.026	-3.624	0.056	-0.038
-317.012	153.626	0.066	-0.089
-315.997	19.102	0.256	0.202
-314.983	-160.419	0.266	0.014
-313.968	-89.092	0.181	0.053
-312.953	184.950	-0.206	-0.300
-311.939	-78.260	0.144	-0.049
-310.924	-67.833	0.285	-0.110
-309.910	-68.352	-0.303	0.116
-308.895	301.345	0.078	-0.142
-307.880	-49.309	0.400	0.188
-306.866	271.355	-0.081	-0.140
-305.851	-77.601	0.167	0.057
-304.837	-24.432	0.031	-0.018
-303.822	800.000	-0.066	0.194
-302.807	328.482	0.043	-0.082
-301.793	640.162	-0.073	0.184
-300.778	35.489	0.197	0.170
-299.764	-57.886	-0.147	0.063
-298.749	800.000	0.089	0.283
-297.735	216.079	0.166	-0.259
-296.720	-48.310	-0.047	0.022
-295.705	-68.420	-0.155	-0.059
-294.691	-200.000	-0.025	0.158
-293.676	800.000	-0.080	0.245
-292.662	-200.000	0.036	-0.171
-291.647	72.113	-0.088	0.090
-290.632	63.511	-0.074	-0.073
-289.618	-128.159	0.304	-0.043
-288.603	-200.000	0.000	0.103
-287.589	-200.000	-0.035	0.412
-286.574	181.525	-0.241	0.349
-285.559	697.511	-0.080	0.206
-284.545	-200.000	-0.008	-0.172
-283.530	-200.000	-0.006	0.314
-282.516	800.000	0.054	-0.211
-281.501	251.886	0.159	0.266
-280.486	800.000	-0.085	0.294
-279.472	11.799	0.173	-0.131
-278.457	-84.582	-0.217	-0.067
-277.443	-34.550	-0.353	-0.190
-276.428	800.000	0.048	0.138
-275.413	-197.607	0.298	0.002
-274.399	-126.334	0.233	0.034
-273.384	-125.935	-0.238	0.035
-272.370	219.795	0.160	-0.252
-271.355	-65.517	-0.123	-0.048
-270.340	-200.000	0.019	0.138
-269.326	-200.000	0.044	0.317
-268.311	-113.653	-0.133	0.025
-267.297	-151.054	-0.113	0.008
-266.282	-200.000	0.040	0.178
-265.267	363.535	0.139	0.275
-264.253	800.000	-0.033	-0.093
-263.238	-200.000	-0.022	0.507
-262.224	-148.543	-0.425	0.034
-261.209	1.607	-0.227	-0.160
-260.195	800.000	0.056	0.168
-259.180	309.977	0.051	-0.094
-258.165	694.916	0.113	0.292
-257.151	-96.085	0.129	0.034
-256.136	-124.772	0.302	-0.046
-255.122	105.433	0.230	-0.267
-254.107	-160.706	-0.174	-0.009
-253.092	800.000	0.016	0.054
-252.078	6.828	0.072	0.053
-251.063	-200.000	0.036	-0.515
-250.049	-54.490	-0.468	-0.208
-249.034	210.063	-0.053	-0.082
-248.019	-6.957	-0.147	-0.098
-247.005	-200.000	-0.008	0.069
-245.990	-116.341	0.336	0.061
-244.976	-200.000	0.049	-0.276
-243.961	-13.029	-0.268	-0.171
-242.946	101.711	0.262	-0.300
-241.932	19.681	0.089	-0.070
-240.917	-18.316	-0.122	0.075
-239.903	-200.000	0.045	-0.205
-238.888	-131.675	-0.061	0.008
-237.873	-200.000	-0.028	0.377
-236.859	-165.733	0.137	0.006
-235.844	191.730	-0.130	-0.191
-234.830	69.882	-0.097	-0.099
-233.815	-32.437	0.148	-0.081
-232.800	189.367	-0.201	-0.295
-231.786	-150.077	0.030	-0.002
-230.771	-79.488	-0.151	0.050
-229.757	-59.230	-0.095	0.040
-228.742	-42.577	-0.018	0.009
-227.727	462.381	-0.156	-0.340
-226.713	169.786	0.036	0.051
-225.698	18.247	-0.118	0.092
-224.684	-10.480	0.366	-0.238
-223.669	85.880	0.038	0.041
-222.655	-0.431	-0.114	-0.079
-221.640	800.000	-0.041	-0.136
-220.625	394.708	-0.066	-0.135
-219.611	376.202	0.089	0.179
-218.596	345.503	0.078	-0.151
-217.582	-81.806	-0.413	-0.133
-216.567	154.175	0.050	-0.067
-215.552	-200.000	0.044	-0.237
-214.538	-200.000	0.008	0.093
-213.523	-39.933	0.239	-0.122
-212.509	80.615	-0.092	-0.097
-211.494	-200.000	0.039	-0.185
-210.479	391.670	0.032	-0.066
-209.465	-90.404	0.216	0.061
-208.450	52.364	0.040	0.037
-207.436	-51.102	-0.249	-0.115
-206.421	-15.112	0.372	-0.233
-205.406	800.000	0.055	-0.183
-204.392	484.473	-0.144	-0.322
-203.377	-78.707	0.263	-0.088
-202.363	-16.153	-0.092	-0.057
-201.348	-68.789	0.486	0.184
-200.333	-118.861	0.244	-0.042
-199.319	-71.479	-0.434	0.159
-198.304	-86.899	0.216	0.064
-197.290	-128.562	-0.165	-0.023
-196.275	94.153	-0.034	0.038
-195.260	-160.382	0.222	0.012
-194.246	73.918	0.273	0.280
-193.231	132.034	-0.135	0.170
-192.217	19.396	0.144	-0.114
-191.202	-128.894	-0.078	-0.011
-190.187	112.567	0.199	0.235
-189.173	464.643	-0.038	-0.084
-188.158	83.458	-0.119	0.127
-187.144	253.401	-0.086	-0.144
-186.129	-108.183	-0.331	-0.070
-185.114	-21.702	0.130	-0.078
-184.100	517.892	0.025	0.057
-183.085	-200.000	0.047	-0.237
-182.071	284.555	-0.195	-0.344
-181.056	-115.331	0.089	-0.017
-180.042	-198.962	0.275	-0.001
-179.027	-22.517	0.171	0.101
-178.012	-200.000	-0.003	0.052
-176.998	-41.602	0.481	0.242
-175.983	29.253	-0.126	-0.105
-174.969	-200.000	-0.043	-0.291
-173.954	-200.000	0.008	-0.110
-172.939	-73.904	0.197	0.070
-171.925	-200.000	0.050	-0.251
-170.910	95.380	0.216	0.241
-169.896	-200.000	0.006	0.191
-168.881	113.682	0.100	-0.118
-167.866	-50.584	0.324	0.150
-166.852	180.468	-0.103	0.148
-165.837	-63.348	0.181	0.073
-164.823	397.226	-0.155	-0.317
-163.808	73.174	0.168	0.172
-162.793	-61.941	-0.035	0.015
-161.779	-114.153	0.160	-0.030
-160.764	-200.000	0.037	0.165
-159.750	-147.923	-0.171	-0.014
-158.735	-132.015	-0.406	0.052
-157.720	158.889	0.123	-0.167
-156.706	65.803	-0.169	0.167
-155.691	180.977	-0.156	-0.223
-154.677	51.785	-0.173	0.161
-153.662	371.525	0.184	0.364
-152.647	-75.839	-0.433	0.150
-151.633	271.267	-0.276	-0.475
-150.618	83.005	-0.111	-0.118
-149.604	59.402	0.179	0.172
-148.589	800.000	0.118	0.422
-147.574	-118.093	-0.099	0.017
-146.560	240.659	0.128	0.208
-145.545	-141.584	0.355	-0.035
-144.531	667.954	0.071	-0.180
-143.516	-94.139	-0.278	-0.074
-142.502	800.000	0.062	0.248
-141.487	-200.000	-0.002	0.284
-140.472	-88.916	0.347	-0.101
-139.458	106.607	0.140	-0.163
-138.443	586.502	0.088	0.210
-137.429	-200.000	0.042	0.383
-136.414	-151.972	0.288	-0.021
-135.399	-12.449	-0.258	0.165
-134.385	-167.917	0.299	-0.011
-133.370	-65.042	0.099	-0.039
-132.356	318.578	-0.030	-0.055
-131.341	-14.005	0.059	0.037
-130.326	800.000	0.066	-0.281
-129.312	60.937	0.032	-0.031
-128.297	-157.403	-0.099	-0.006
-127.283	522.190	-0.124	0.284
-126.268	-166.696	-0.195	-0.008
-125.253	-89.730	-0.078	0.022
-124.239	419.924	0.071	-0.148
-123.224	-60.452	-0.079	0.033
-122.210	800.000	-0.046	-0.148
-121.195	-38.100	-0.141	-0.073
-120.180	122.099	-0.104	-0.127
-119.166	800.000	-0.133	0.450
-118.151	-63.080	-0.085	0.034
-117.137	-72.088	0.456	0.165
-116.122	-74.722	-0.027	-0.010
-115.107	229.205	-0.120	0.191
-114.093	47.048	-0.354	0.321
-113.078	352.949	-0.078	0.151
-112.064	231.267	-0.075	-0.120
-111.049	81.762	0.124	-0.131
-110.034	-10.551	-0.156	-0.101
-109.020	-200.000	0.037	0.198
-108.005	-62.380	-0.304	0.124
-106.991	-115.427	-0.448	-0.082
-105.976	-53.833	-0.356	-0.158
-104.962	-87.386	-0.265	0.079
-103.947	133.698	0.085	0.107
-102.932	-200.000	0.101	-0.458
-101.918	-180.251	-0.168	-0.003
-100.903	144.691	-0.259	-0.337
-99.889	-89.081	-0.204	-0.059
-98.874	800.000	0.046	-0.163
-97.859	-34.746	-0.026	0.014
-96.845	-200.000	0.018	-0.361
-95.830	240.563	-0.301	-0.490
-94.816	169.555	0.209	0.292
-93.801	-200.000	0.303	-0.000
-92.786	180.706	0.033	-0.047
-91.772	-131.413	0.220	0.028
-90.757	-40.886	0.109	0.055
-89.743	203.269	-0.239	0.361
-88.728	-200.000	-0.004	-0.124
-87.713	-100.172	0.308	-0.075
-86.699	-78.837	0.160	0.053
-85.684	800.000	-0.081	0.245
-84.670	-200.000	0.030	0.215
-83.655	-7.400	-0.136	0.090
-82.640	539.980	-0.153	0.355
-81.626	-89.126	0.297	-0.086
-80.611	89.581	-0.255	-0.278
-79.597	-103.009	-0.112	-0.026
-78.582	338.028	0.161	-0.305
-77.567	7.189	-0.255	-0.185
-76.553	-72.472	0.169	-0.061
-75.538	-0.813	0.105	0.073
-74.524	-200.000	-0.010	0.275
-73.509	-40.753	0.196	0.099
-72.494	737.049	-0.065	0.169
-71.480	42.417	0.265	0.234
-70.465	156.850	0.133	-0.179
-69.451	56.780	-0.293	0.278
-68.436	-200.000	0.054	-0.441
-67.422	-115.535	0.319	0.058
-66.407	-7.761	0.395	0.260
-65.392	-61.445	-0.229	-0.094
-64.378	-70.972	0.166	0.061
-63.363	96.708	-0.102	0.114
-62.349	345.012	0.087	-0.166
-61.334	93.177	-1.152	-1.269
-60.319	-12.501	0.635	0.404
-59.305	104.487	-0.663	-0.760
-58.290	338.378	0.817	1.550
-57.276	800.000	0.490	1.516
-56.261	-200.000	121.458	614.231
-55.246	387.111	1566.017	3151.426
-54.232	140.069	2752.207	3533.783
-53.217	88.334	2328.280	2517.311
-52.203	32.911	1930.834	1628.071
-51.188	26.820	1722.371	1405.205
-50.173	24.664	1681.788	1355.706
-49.159	44.817	1748.748	1566.638
-48.144	42.897	1760.750	1562.444
-47.130	26.362	1713.176	1393.950
-46.115	23.947	1697.136	1362.373
-45.100	23.871	1692.403	1357.935
-44.086	23.886	1689.459	1355.640
-43.071	23.843	1687.114	1353.374
-42.057	23.747	1685.195	1351.050
-41.042	23.783	1682.748	1349.308
-40.027	23.817	1680.797	1347.948
-39.013	23.779	1679.194	1346.323
-37.998	23.772	1677.644	1344.970
-36.984	23.860	1676.040	1344.297
-35.969	23.949	1674.840	1343.955
-34.954	23.950	1673.041	1342.469
-33.940	23.949	1671.278	1340.989
-32.925	23.941	1669.784	1339.678
-31.911	23.934	1668.251	1338.341
-30.896	24.036	1666.084	1337.315
-29.881	24.000	1664.810	1335.974
-28.867	23.945	1663.200	1334.211
-27.852	23.945	1661.337	1332.668
-26.838	23.946	1660.141	1331.665
-25.823	23.970	1658.839	1330.742
-24.809	23.968	1657.658	1329.731
-23.794	23.936	1656.237	1328.298
-22.779	23.930	1654.619	1326.900
-21.765	23.906	1653.604	1325.853
-20.750	23.909	1651.072	1323.795
-19.736	23.957	1650.392	1323.554
-18.721	24.058	1648.498	1322.738
-17.706	23.995	1647.034	1321.040
-16.692	23.977	1645.210	1319.390
-15.677	23.971	1643.810	1318.169
-14.663	24.000	1642.555	1317.329
-13.648	23.951	1641.446	1316.022
-12.633	23.975	1639.715	1314.760
-11.619	23.914	1638.484	1313.271
-10.604	23.906	1636.686	1311.718
-9.590	23.955	1635.356	1310.964
-8.575	23.948	1633.940	1309.726
-7.560	23.983	1633.031	1309.196
-6.546	23.909	1632.339	1308.050
-5.531	23.973	1630.762	1307.205
-4.517	23.877	1629.961	1305.804
-3.502	23.930	1628.876	1305.272
-2.487	24.003	1626.715	1304.024
-1.473	23.812	1614.529	1292.813
-0.458	21.206	1595.849	1259.040
0.556	16.701	1597.649	1229.030
1.571	14.624	1621.800	1232.181
2.586	14.118	1634.671	1238.082
3.600	13.077	1579.969	1189.054
4.615	7.523	1470.350	1069.145
5.629	1.739	1410.795	988.289
6.644	0.780	1403.188	976.684
7.659	0.694	1402.479	975.545
8.673	0.629	1401.634	974.454
9.688	0.618	1399.229	972.623
10.702	0.482	1395.986	969.411
11.717	3.197	1400.270	989.780
12.731	10.074	1409.893	1040.899
13.746	15.376	1418.039	1081.077
14.761	17.023	1419.864	1092.990
15.775	16.571	1418.044	1088.579
16.790	15.639	1415.249	1080.350
17.804	14.785	1413.274	1073.266
18.819	14.469	1411.822	1070.038
19.834	14.193	1410.139	1066.899
20.848	13.978	1409.213	1064.725
21.863	13.744	1407.516	1061.852
22.877	13.547	1406.437	1059.682
23.892	13.564	1405.275	1058.821
24.907	13.480	1404.626	1057.702
25.921	13.573	1403.726	1057.524
26.936	13.559	1402.494	1056.413
27.950	13.598	1401.609	1055.905
28.965	13.579	1400.833	1055.105
29.980	13.668	1399.948	1054.911
30.994	13.838	1398.054	1054.472
32.009	13.740	1397.665	1053.460
33.023	13.705	1396.678	1052.405
34.038	13.568	1395.895	1050.848
35.053	13.622	1394.603	1050.130
36.067	13.769	1392.937	1049.709
37.082	13.660	1392.519	1048.613
38.096	13.657	1391.359	1047.630
39.111	13.657	1390.647	1046.995
40.126	13.657	1389.845	1046.301
41.140	13.515	1388.929	1044.624
42.155	13.430	1388.960	1044.021
43.169	13.438	1388.259	1043.450
44.184	13.459	1388.223	1043.464
45.199	13.483	1388.032	1043.376
46.213	13.611	1386.460	1042.912
47.228	13.604	1385.727	1042.223
48.242	13.610	1384.871	1041.523
49.257	13.552	1383.058	1039.707
50.271	13.610	1381.549	1038.843
51.286	13.635	1380.532	1038.140
52.301	13.582	1378.972	1036.546
53.315	13.598	1377.779	1035.655
54.330	13.605	1376.610	1034.732
55.344	13.537	1375.382	1033.292
56.359	13.515	1374.733	1032.576
57.374	13.628	1373.479	1032.244
58.388	13.473	1373.063	1030.875
59.403	13.494	1372.795	1030.716
60.417	13.507	1371.369	1029.634
61.432	13.436	1370.458	1028.418
62.447	13.350	1369.834	1027.325
63.461	13.479	1368.215	1026.820
64.476	13.453	1367.372	1025.938
65.490	13.410	1365.759	1024.370
66.505	13.394	1364.592	1023.306
67.520	13.461	1363.040	1022.462
68.534	13.426	1362.031	1021.400
69.549	13.459	1361.229	1020.912
70.563	13.380	1360.385	1019.699
71.578	13.427	1358.911	1018.792
72.593	13.405	1357.981	1017.874
73.607	13.395	1357.445	1017.320
74.622	13.356	1356.760	1016.476
75.636	13.270	1355.983	1015.274
76.651	13.315	1354.959	1014.697
77.666	13.293	1354.704	1014.279
78.680	13.384	1353.597	1013.921
79.695	13.314	1353.195	1013.097
80.709	13.340	1352.325	1012.518
81.724	13.380	1351.393	1011.973
82.739	13.512	1350.107	1011.731
83.753	13.563	1348.765	1010.945
84.768	13.581	1348.204	1010.542
85.782	13.516	1347.135	1009.254
86.797	13.524	1345.708	1008.147
87.812	13.542	1343.861	1006.787
88.826	13.506	1342.909	1005.764
89.841	13.519	1342.063	1005.121
90.855	13.618	1341.284	1005.049
91.870	13.693	1339.818	1004.316
92.884	13.661	1339.037	1003.449
93.899	13.604	1338.489	1002.600
94.914	13.717	1337.423	1002.396
95.928	13.673	1336.731	1001.525
96.943	13.699	1335.886	1000.961
97.957	13.581	1335.016	999.509
98.972	13.597	1334.144	998.863
99.987	13.576	1332.945	997.753
101.001	13.619	1331.551	996.878
102.016	13.659	1330.505	996.249
103.030	13.657	1329.547	995.429
104.045	13.691	1328.784	994.973
105.060	13.629	1327.380	993.465
106.074	13.592	1326.736	992.672
107.089	13.544	1325.362	991.267
108.103	13.511	1324.254	990.152
109.118	13.498	1322.471	988.655
110.133	13.507	1321.035	987.547
111.147	13.530	1319.758	986.643
112.162	13.569	1318.277	985.683
113.176	13.651	1317.301	985.349
114.191	13.567	1316.969	984.518
115.206	13.592	1315.639	983.581
116.220	13.644	1313.729	982.377
117.235	13.673	1312.474	981.525
118.249	13.620	1311.484	980.385
119.264	13.655	1310.129	979.492
120.279	13.557	1309.338	978.233
121.293	13.550	1308.752	977.669
122.308	13.614	1307.686	977.165
123.322	13.524	1306.730	975.832
124.337	13.534	1305.448	974.848
125.352	13.470	1304.433	973.627
126.366	13.544	1302.961	972.875
127.381	13.568	1302.008	972.221
128.395	13.576	1300.872	971.329
129.410	13.556	1299.891	970.397
130.424	13.528	1299.248	969.667
131.439	13.599	1297.863	968.962
132.454	13.575	1296.882	968.006
133.468	13.573	1296.022	967.265
134.483	13.605	1295.760	967.167
135.497	13.562	1294.496	965.892
136.512	13.584	1292.981	964.804
137.527	13.677	1291.234	963.952
138.541	13.601	1289.755	962.321
139.556	13.594	1288.783	961.474
140.570	13.619	1287.931	960.898
141.585	13.644	1287.076	960.319
142.600	13.731	1285.373	959.469
143.614	13.744	1284.644	958.910
144.629	13.760	1283.395	957.987
145.643	13.643	1282.859	956.828
146.658	13.857	1281.084	956.654
147.673	13.613	1279.833	954.228
148.687	13.645	1278.709	953.492
149.702	13.657	1277.207	952.358
150.716	13.643	1276.083	951.352
151.731	13.716	1274.659	950.625
152.746	13.813	1273.876	950.513
153.760	13.739	1272.460	948.949
154.775	13.767	1271.510	948.315
155.789	13.807	1270.187	947.474
156.804	13.799	1269.075	946.513
157.819	13.856	1268.317	946.192
158.833	13.930	1266.744	945.353
159.848	13.771	1266.096	943.885
160.862	13.913	1265.136	943.889
161.877	13.901	1263.758	942.712
162.892	13.762	1263.005	941.275
163.906	13.795	1262.084	940.696
164.921	13.823	1260.777	939.798
165.935	13.886	1259.802	939.341
166.950	13.926	1259.539	939.292
167.964	14.003	1258.405	938.799
168.979	13.935	1258.133	938.125
169.994	13.973	1256.707	937.196
171.008	13.918	1256.424	936.593
172.023	13.919	1255.667	935.946
173.037	13.940	1255.045	935.519
174.052	13.909	1254.514	934.867
175.067	13.921	1252.772	933.557
176.081	14.008	1251.289	932.853
177.096	14.024	1250.788	932.487
178.110	14.046	1249.487	931.559
179.125	13.996	1248.192	930.232
180.140	13.977	1246.757	928.973
181.154	14.049	1245.997	928.730
182.169	14.083	1244.678	927.851
183.183	14.130	1243.782	927.365
184.198	14.077	1242.661	926.148
185.213	14.190	1241.080	925.521
186.227	14.158	1240.082	924.517
187.242	14.160	1239.168	923.765
188.256	14.282	1237.449	923.078
189.271	14.159	1237.310	922.208
190.286	14.116	1236.555	921.325
191.300	14.073	1235.347	920.109
192.315	14.018	1235.023	919.480
193.329	14.091	1234.021	919.054
194.344	14.243	1233.200	919.203
195.359	14.169	1232.805	918.420
196.373	14.192	1232.024	917.884
197.388	14.297	1231.608	918.073
198.402	14.219	1231.481	917.466
199.417	14.372	1230.570	917.547
200.432	14.430	1229.418	916.927
201.446	14.422	1228.619	916.205
202.461	14.383	1227.966	915.424
203.475	14.461	1226.757	914.869
204.490	14.322	1225.774	913.291
205.504	14.415	1224.401	912.699
206.519	14.405	1222.937	911.471
207.534	14.389	1222.103	910.680
208.548	14.453	1220.980	910.116
209.563	14.384	1220.282	909.137
210.577	14.445	1219.571	908.860
211.592	14.438	1218.449	907.905
212.607	14.482	1217.658	907.476
213.621	14.562	1216.689	907.107
214.636	14.446	1215.907	905.810
215.650	14.537	1214.737	905.354
216.665	14.515	1213.524	904.253
217.680	14.599	1212.920	904.179
218.694	14.688	1211.868	903.795
219.709	14.605	1210.957	902.589
220.723	14.727	1210.480	902.810
221.738	14.546	1209.850	901.282
222.753	14.652	1208.961	901.112
223.767	14.557	1208.070	899.857
224.782	14.793	1207.389	900.542
225.796	14.614	1207.406	899.511
226.811	14.737	1206.261	899.240
227.826	14.701	1205.545	898.432
228.840	14.757	1204.620	897.964
229.855	14.721	1203.653	896.972
230.869	14.796	1203.116	896.894
231.884	14.789	1202.403	896.244
232.899	14.779	1201.275	895.272
233.913	14.716	1200.896	894.571
234.928	14.706	1200.421	894.086
235.942	14.776	1199.263	893.518
236.957	14.761	1198.684	892.926
237.972	14.774	1197.967	892.385
238.986	14.764	1197.002	891.536
240.001	14.831	1196.067	891.113
241.015	14.828	1195.581	890.662
242.030	14.848	1194.805	890.106
243.045	14.941	1193.491	889.545
244.059	14.793	1193.234	888.487
245.074	14.915	1192.138	888.243
246.088	14.865	1191.560	887.468
247.103	14.845	1190.649	886.605
248.117	14.941	1189.708	886.335
249.132	15.023	1188.883	886.075
250.147	15.139	1187.946	885.912
251.161	15.098	1187.523	885.298
252.176	15.144	1186.635	884.802
253.190	15.109	1186.216	884.226
254.205	15.124	1185.704	883.845
255.220	15.214	1184.749	883.532
256.234	15.095	1184.380	882.550
257.249	15.172	1183.705	882.374
258.263	15.210	1183.274	882.175
259.278	15.229	1182.047	881.285
260.293	15.292	1181.567	881.177
261.307	15.320	1181.068	880.876
262.322	15.350	1180.465	880.507
263.336	15.339	1179.471	879.629
264.351	15.297	1179.184	879.118
265.366	15.272	1178.453	878.360
266.380	15.452	1177.231	878.317
267.395	15.427	1176.598	877.638
268.409	15.429	1176.115	877.207
269.424	15.301	1175.854	876.268
270.439	15.461	1174.612	876.100
271.453	15.504	1173.719	875.580
272.468	15.481	1173.196	874.991
273.482	15.413	1172.219	873.833
274.497	15.414	1172.041	873.626
275.512	15.419	1171.066	872.850
276.526	15.505	1170.114	872.511
277.541	15.442	1169.568	871.699
278.555	15.462	1168.890	871.217
279.570	15.556	1168.260	871.160
280.585	15.546	1167.104	870.168
281.599	15.544	1165.928	869.205
282.614	15.451	1165.099	868.030
283.628	15.549	1163.986	867.626
284.643	15.559	1163.315	867.106
285.657	15.624	1162.383	866.668
286.672	15.600	1161.296	865.658
287.687	15.645	1160.426	865.162
288.701	15.551	1160.370	864.563
289.716	15.709	1158.586	863.968
290.730	15.740	1158.224	863.780
291.745	15.659	1157.487	862.740
292.760	15.697	1156.727	862.292
293.774	15.690	1156.042	861.666
294.789	15.711	1155.382	861.209
295.803	15.735	1155.383	861.252
296.818	15.750	1154.532	860.621
297.833	15.803	1153.347	859.932
298.847	15.765	1152.607	859.109
299.862	15.800	1151.802	858.615
300.876	15.823	1151.243	858.238
301.891	15.912	1150.124	857.779
302.906	15.834	1149.849	857.100
303.920	15.884	1149.036	856.676
304.935	15.859	1148.425	856.018
305.949	15.975	1147.824	856.080
306.964	15.966	1146.774	855.177
307.979	16.030	1146.129	854.947
308.993	16.092	1145.068	854.391
310.008	16.083	1144.449	853.810
311.022	16.021	1143.670	852.839
312.037	16.113	1143.057	852.771
313.052	16.079	1141.916	851.673
314.066	15.908	1141.244	850.236
315.081	16.070	1140.630	850.520
316.095	15.981	1139.923	849.468
317.110	15.994	1138.787	848.610
318.125	16.075	1137.491	847.975
319.139	15.990	1137.569	847.535
320.154	16.131	1136.389	847.289
321.168	16.117	1135.864	846.750
322.183	16.100	1135.391	846.239
323.197	16.173	1134.827	846.110
324.212	16.128	1134.233	845.367
325.227	16.084	1133.644	844.632
326.241	16.308	1132.487	844.815
327.256	16.214	1131.979	843.889
328.270	16.206	1130.721	842.841
329.285	16.191	1130.140	842.258
330.300	16.089	1129.556	841.236
331.314	16.096	1128.420	840.353
332.329	16.170	1127.513	839.973
333.343	16.203	1126.279	839.140
334.358	16.175	1125.558	838.390
335.373	16.257	1124.646	838.046
336.387	16.279	1124.019	837.612
337.402	16.322	1123.488	837.356
338.416	16.303	1122.927	836.771
339.431	16.346	1122.065	836.263
340.446	16.435	1121.359	836.108
341.460	16.376	1121.005	835.478
342.475	16.443	1120.086	835.049
343.489	16.521	1118.506	834.184
344.504	16.548	1117.993	833.860
345.519	16.543	1117.058	833.062
346.533	16.559	1116.576	832.710
347.548	16.548	1115.284	831.619
348.562	16.651	1114.702	831.617
349.577	16.588	1113.872	830.615
350.592	16.459	1113.139	829.363
351.606	16.417	1112.634	828.706
352.621	16.515	1112.242	828.822
353.635	16.546	1111.361	828.244
354.650	16.566	1110.344	827.510
355.665	16.560	1109.638	826.879
356.679	16.617	1109.079	826.667
357.694	16.567	1108.776	826.125
358.708	16.702	1107.733	825.936
359.723	16.717	1106.702	825.164
360.738	16.663	1106.403	824.606
361.752	16.780	1105.961	824.774
362.767	16.829	1105.194	824.367
363.781	16.772	1104.674	823.627
364.796	16.742	1103.853	822.797
365.810	16.815	1103.234	822.617
366.825	16.778	1103.006	822.197
367.840	16.901	1102.007	821.977
368.854	16.899	1101.449	821.477
369.869	16.833	1100.902	820.678
370.883	16.882	1100.076	820.226
371.898	16.931	1098.968	819.562
372.913	16.918	1098.645	819.189
373.927	16.983	1097.827	818.816
374.942	16.968	1097.600	818.502
375.956	17.021	1096.792	818.086
376.971	17.089	1096.137	817.852
377.986	16.953	1096.397	817.316
379.000	17.093	1095.162	816.999
380.015	17.143	1094.667	816.797
381.029	17.088	1093.598	815.666
382.044	17.020	1093.160	814.935
383.059	17.157	1092.320	814.897
384.073	17.188	1091.450	814.325
385.088	17.140	1090.607	813.395
386.102	17.153	1089.543	812.589
387.117	17.224	1088.493	812.072
388.132	17.124	1087.878	811.065
389.146	17.160	1087.089	810.576
390.161	17.332	1085.851	810.405
391.175	17.279	1085.451	809.779
392.190	17.202	1084.985	808.996
393.205	17.124	1084.267	808.016
394.219	17.394	1083.048	808.318
395.234	17.248	1082.674	807.276
396.248	17.200	1081.676	806.233
397.263	17.234	1080.466	805.421
398.278	17.355	1079.500	805.201
399.292	17.211	1079.018	804.091
400.307	17.249	1077.765	803.262
401.321	17.298	1077.793	803.443
402.336	17.174	1077.067	802.248
403.350	17.302	1076.132	802.085
404.365	17.339	1075.604	801.795
405.380	17.438	1074.847	801.625
406.394	17.327	1074.613	800.856
407.409	17.386	1073.487	800.222
408.423	17.432	1072.764	799.831
409.438	17.518	1071.987	799.585
410.453	17.571	1070.996	799.023
411.467	17.491	1070.245	798.018
412.482	17.573	1069.858	798.040
413.496	17.589	1068.990	797.398
414.511	17.591	1068.599	797.046
415.526	17.471	1068.515	796.352
416.540	17.702	1067.928	796.924
417.555	17.703	1066.867	796.068
418.569	17.517	1066.549	794.887
419.584	17.838	1065.789	795.750
420.599	17.708	1065.198	794.632
421.613	107.781	1331.502	1486.743
422.628	99.613	1370.239	1486.808
