DTS Sentinel unit serial number:	SN413079Multiplexer serial number:	ORYXHardware model number:	OX4-SRSoftware version number:	ORYX F/W v4.00 Oryx Data Collector v3.7.2.0data status	okinstallation	princeton_trtdifferential loss correction	single-endedforward channel	channel 2reverse channel	N/Adate	2019/09/15time	06:11:34forward acquisition time	60.00reverse acquisition time	0.00gamma	496.2192k internal	0.2326k external	0.2326temperature offset calibration	1.0034default loss term (dB/km)	0.3790temperature slope calibration	1.0000multiplexer offset coefficient	1.0000multiplexer slope coefficient	1.0000fibre end	0.00T internal ref (°C)	30.56T ext. ref 1 (°C)	4.82T ext. ref 2 (°C)	25.03length (m)	temperature (°C)	Stokes	anti-Stokes-747.200	122.949	-0.360	0.455
-746.185	309.651	-0.053	-0.101
-745.171	286.401	0.151	0.274
-744.156	-81.875	0.185	-0.061
-743.142	-126.959	0.154	0.023
-742.127	-139.692	0.079	0.008
-741.112	-200.000	0.041	-0.276
-740.098	-63.624	-0.141	0.058
-739.083	-51.279	0.228	-0.107
-738.069	-171.729	0.200	-0.007
-737.054	-38.214	0.091	0.049
-736.039	-54.786	-0.087	0.040
-735.025	-100.464	0.196	0.049
-734.010	-105.274	-0.457	-0.105
-732.996	-3.157	0.157	-0.110
-731.981	800.000	-0.083	0.264
-730.966	73.762	0.121	0.127
-729.952	-65.986	0.108	-0.043
-728.937	-200.000	-0.020	-0.104
-727.923	-77.239	-0.084	0.030
-726.908	298.640	0.055	-0.101
-725.894	-200.000	0.002	-0.246
-724.879	129.301	0.168	-0.216
-723.864	88.229	-0.075	0.084
-722.850	553.287	-0.151	-0.366
-721.835	800.000	-0.065	-0.231
-720.821	168.800	0.058	0.084
-719.806	30.956	-0.109	0.094
-718.791	-200.000	0.043	-0.366
-717.777	-96.413	-0.192	-0.051
-716.762	-200.000	0.103	0.455
-715.748	-200.000	0.004	-0.039
-714.733	98.294	0.209	0.242
-713.718	107.217	0.190	-0.227
-712.704	800.000	0.067	-0.277
-711.689	-164.973	-0.374	0.017
-710.675	182.588	0.089	-0.132
-709.660	133.210	0.076	-0.098
-708.645	-200.000	-0.040	0.308
-707.631	284.770	-0.221	-0.401
-706.616	72.880	0.090	-0.095
-705.602	-77.943	0.280	0.097
-704.587	712.024	-0.115	-0.306
-703.572	-41.310	0.029	-0.015
-702.558	-110.538	-0.187	-0.039
-701.543	-109.550	-0.015	0.003
-700.529	281.077	-0.140	-0.251
-699.514	800.000	-0.088	0.389
-698.499	-102.569	0.383	-0.092
-697.485	-118.510	-0.296	0.053
-696.470	69.098	0.209	0.216
-695.456	-51.397	0.215	0.101
-694.441	800.000	-0.025	0.098
-693.426	-200.000	-0.006	-0.146
-692.412	70.988	-0.175	-0.183
-691.397	-157.669	0.306	-0.018
-690.383	-200.000	0.041	0.265
-689.368	-200.000	-0.042	-0.222
-688.354	-34.857	-0.285	-0.156
-687.339	500.874	0.154	0.358
-686.324	-132.341	-0.265	0.034
-685.310	-200.000	0.001	0.283
-684.295	-200.000	-0.065	-0.306
-683.281	-53.672	0.344	0.158
-682.266	-200.000	0.009	0.087
-681.251	459.370	-0.155	-0.347
-680.237	50.006	-0.066	0.063
-679.222	2.742	0.109	-0.079
-678.208	-160.973	0.450	0.024
-677.193	-23.464	-0.167	-0.101
-676.178	-41.245	0.025	-0.013
-675.164	6.171	-0.158	-0.118
-674.149	-200.000	0.069	-0.344
-673.135	800.000	0.052	-0.150
-672.120	-200.000	-0.031	-0.387
-671.105	129.771	0.032	0.041
-670.091	3.323	-0.202	-0.148
-669.076	-200.000	0.007	0.055
-668.062	-51.871	-0.089	-0.042
-667.047	-200.000	0.053	0.282
-666.032	456.098	-0.081	0.180
-665.018	20.558	0.018	0.015
-664.003	-200.000	-0.017	0.142
-662.989	-94.674	-0.085	-0.023
-661.974	-200.000	0.013	0.207
-660.959	-46.522	-0.321	-0.158
-659.945	46.011	0.049	0.045
-658.930	118.659	0.070	0.087
-657.916	-200.000	-0.093	-0.551
-656.901	99.796	0.177	-0.206
-655.886	-121.379	0.079	0.013
-654.872	-32.974	-0.335	-0.187
-653.857	-200.000	-0.050	0.389
-652.843	-6.358	0.267	0.183
-651.828	539.087	-0.053	0.128
-650.814	85.134	-0.127	0.140
-649.799	-109.820	0.138	0.029
-648.784	-200.000	0.009	0.468
-647.770	252.181	0.127	-0.217
-646.755	-200.000	0.031	-0.251
-645.741	800.000	0.096	-0.347
-644.726	217.160	0.161	-0.258
-643.711	-115.176	-0.280	-0.053
-642.697	-149.102	0.081	-0.006
-641.682	-200.000	-0.002	-0.106
-640.668	184.593	-0.106	0.158
-639.653	279.637	0.215	-0.385
-638.638	-200.000	-0.053	-0.319
-637.624	-200.000	0.048	-0.310
-636.609	18.139	0.151	-0.121
-635.595	-116.725	-0.247	-0.045
-634.580	-123.700	0.265	-0.042
-633.565	175.729	-0.303	-0.442
-632.551	411.178	-0.182	-0.389
-631.536	-74.771	-0.379	0.137
-630.522	270.175	0.076	0.134
-629.507	-67.559	-0.115	0.045
-628.492	-42.898	-0.349	0.178
-627.478	-92.570	-0.322	0.091
-626.463	223.604	-0.125	-0.203
-625.449	-200.000	0.044	-0.331
-624.434	-80.901	-0.295	0.098
-623.419	368.167	-0.079	0.161
-622.405	-59.648	-0.245	0.105
-621.390	-191.099	-0.509	-0.005
-620.376	-200.000	0.028	-0.198
-619.361	-143.100	-0.227	0.022
-618.346	-170.298	0.188	-0.007
-617.332	800.000	-0.034	-0.142
-616.317	-94.557	0.107	-0.029
-615.303	603.506	-0.134	0.334
-614.288	-69.463	-0.147	0.057
-613.273	93.155	-0.141	0.160
-612.259	433.923	0.076	0.165
-611.244	549.068	-0.072	-0.174
-610.230	-54.271	-0.301	-0.137
-609.215	-87.276	-0.332	0.101
-608.201	-20.591	0.208	0.128
-607.186	135.884	-0.128	0.167
-606.171	-66.038	0.172	-0.069
-605.157	-200.000	0.015	-0.132
-604.142	-69.198	0.369	0.142
-603.128	-25.751	-0.052	0.031
-602.113	800.000	-0.088	-0.315
-601.098	-200.000	-0.009	-0.109
-600.084	-200.000	0.025	0.512
-599.069	-111.787	0.064	-0.013
-598.055	9.683	0.120	0.091
-597.040	-76.191	0.125	0.044
-596.025	-200.000	-0.003	0.094
-595.011	-125.384	-0.263	-0.040
-593.996	119.256	0.151	-0.187
-592.982	-110.833	0.186	-0.038
-591.967	-200.000	-0.018	0.129
-590.952	-200.000	0.031	0.361
-589.938	4.169	-0.061	-0.045
-588.923	-200.000	-0.082	-0.436
-587.909	-200.000	0.094	-0.469
-586.894	32.277	0.123	0.107
-585.879	133.197	-0.140	0.181
-584.865	-31.195	0.290	-0.164
-583.850	-85.165	0.264	0.083
-582.836	800.000	-0.102	-0.298
-581.821	36.876	0.145	0.128
-580.806	800.000	-0.086	0.299
-579.792	-73.284	0.137	0.050
-578.777	800.000	-0.050	0.155
-577.763	-200.000	0.012	-0.099
-576.748	-161.620	-0.067	0.003
-575.733	2.002	0.086	0.062
-574.719	52.024	-0.193	-0.184
-573.704	-15.752	-0.265	-0.169
-572.690	800.000	0.061	0.176
-571.675	-200.000	0.018	-0.251
-570.661	11.516	0.186	0.143
-569.646	-27.142	-0.177	0.103
-568.631	345.248	0.114	0.225
-567.617	-86.490	0.198	0.061
-566.602	-200.000	0.035	-0.529
-565.588	183.351	-0.167	-0.247
-564.573	51.984	-0.123	-0.117
-563.558	94.789	0.154	-0.175
-562.544	265.217	-0.090	0.156
-561.529	418.085	0.098	0.210
-560.515	-117.837	-0.307	0.055
-559.500	-80.521	0.426	-0.142
-558.485	-200.000	-0.016	-0.079
-557.471	69.808	-0.101	-0.104
-556.456	800.000	-0.014	0.057
-555.442	78.954	0.138	0.148
-554.427	201.037	0.033	-0.051
-553.412	83.424	0.121	0.132
-552.398	-6.840	0.228	0.155
-551.383	-77.996	-0.100	-0.034
-550.369	-56.880	0.148	0.066
-549.354	255.403	-0.109	0.187
-548.339	296.419	-0.153	0.280
-547.325	800.000	0.026	-0.097
-546.310	222.717	0.008	0.013
-545.296	434.651	-0.065	-0.142
-544.281	-200.000	-0.007	-0.099
-543.266	-63.858	0.185	-0.076
-542.252	-59.874	-0.065	0.028
-541.237	-41.196	0.366	-0.189
-540.223	-153.832	0.168	-0.012
-539.208	253.691	0.110	0.189
-538.193	-94.634	-0.175	0.048
-537.179	364.237	0.126	0.254
-536.164	-115.727	-0.214	0.040
-535.150	73.098	0.073	-0.076
-534.135	181.613	0.304	-0.447
-533.121	424.155	0.173	0.372
-532.106	19.139	-0.080	0.064
-531.091	343.379	-0.094	0.184
-530.077	33.558	-0.258	-0.224
-529.062	-143.699	0.141	0.013
-528.048	311.471	0.048	0.089
-527.033	-110.814	-0.232	0.048
-526.018	169.188	-0.170	0.243
-525.004	496.918	-0.044	0.101
-523.989	800.000	0.029	-0.083
-522.975	-11.909	-0.176	0.115
-521.960	386.421	-0.105	-0.217
-520.945	-89.278	0.286	-0.084
-519.931	-156.617	-0.100	-0.006
-518.916	-100.756	-0.201	0.050
-517.902	-8.524	-0.207	0.139
-516.887	800.000	0.068	-0.202
-515.872	-95.407	0.181	-0.049
-514.858	-135.656	-0.260	-0.031
-513.843	-200.000	0.058	0.403
-512.829	-68.938	0.199	0.077
-511.814	31.154	0.307	-0.263
-510.799	8.997	-0.048	-0.036
-509.785	-112.919	-0.288	-0.057
-508.770	800.000	0.015	-0.065
-507.756	-72.276	0.481	0.178
-506.741	421.895	0.101	0.218
-505.726	141.701	0.104	0.138
-504.712	800.000	0.044	-0.154
-503.697	-69.458	-0.092	-0.035
-502.683	-88.726	0.325	0.096
-501.668	-18.043	0.079	-0.049
-500.653	471.306	0.120	-0.269
-499.639	-76.936	-0.204	0.071
-498.624	129.755	-0.120	-0.154
-497.610	-136.069	0.315	0.037
-496.595	46.917	-0.177	-0.164
-495.581	50.014	0.023	0.022
-494.566	-200.000	-0.014	0.064
-493.551	-186.730	-0.081	-0.001
-492.537	800.000	0.057	0.181
-491.522	-102.933	-0.231	-0.055
-490.508	-200.000	0.026	-0.172
-489.493	-44.224	0.024	-0.012
-488.478	80.452	-0.191	-0.205
-487.464	118.806	0.157	-0.194
-486.449	-200.000	0.032	-0.192
-485.435	-161.864	-0.138	0.007
-484.420	50.148	-0.101	-0.095
-483.405	-150.082	0.320	-0.025
-482.391	49.070	-0.138	-0.130
-481.376	414.949	-0.094	0.200
-480.362	738.092	0.074	0.199
-479.347	-63.018	0.160	0.066
-478.332	-80.942	0.335	0.111
-477.318	-200.000	-0.056	0.278
-476.303	32.393	-0.106	-0.092
-475.289	248.486	-0.049	0.083
-474.274	-64.928	-0.097	0.039
-473.259	394.899	-0.080	0.167
-472.245	-97.260	-0.373	0.097
-471.230	85.857	-0.010	0.011
-470.216	-200.000	-0.002	0.096
-469.201	800.000	0.031	-0.091
-468.186	-56.233	-0.085	-0.038
-467.172	-53.339	0.325	0.148
-466.157	800.000	-0.065	-0.238
-465.143	-6.243	-0.209	0.142
-464.128	71.793	0.257	-0.267
-463.113	-124.391	-0.027	0.004
-462.099	-200.000	-0.036	0.183
-461.084	-49.345	0.232	-0.110
-460.070	-200.000	0.022	0.132
-459.055	66.212	0.175	0.178
-458.040	-71.869	0.394	0.146
-457.026	-177.534	-0.099	0.002
-456.011	100.491	-0.181	-0.210
-454.997	27.221	-0.154	0.129
-453.982	-19.123	-0.126	-0.078
-452.968	-72.214	0.118	0.043
-451.953	-109.173	-0.087	-0.019
-450.938	-118.919	-0.254	0.044
-449.924	178.150	0.167	-0.243
-448.909	8.149	0.200	0.150
-447.895	-161.146	-0.180	0.009
-446.880	-50.088	0.272	0.128
-445.865	800.000	0.092	0.311
-444.851	-200.000	0.040	0.280
-443.836	25.814	0.054	0.045
-442.822	800.000	0.079	-0.292
-441.807	8.518	-0.089	0.067
-440.792	-60.852	-0.115	-0.049
-439.778	-200.000	0.001	-0.165
-438.763	99.806	0.109	-0.126
-437.749	-140.860	-0.052	-0.005
-436.734	-149.207	0.070	-0.006
-435.719	712.829	0.124	-0.328
-434.705	-52.528	-0.037	-0.017
-433.690	-200.000	0.015	-0.253
-432.676	-89.169	0.170	0.050
-431.661	3.143	0.126	-0.091
-430.646	-200.000	0.000	-0.276
-429.632	-98.352	-0.402	-0.103
-428.617	136.352	-0.254	0.330
-427.603	424.565	-0.119	-0.255
-426.588	-153.765	0.291	0.020
-425.573	275.771	0.091	0.162
-424.559	89.450	0.154	0.171
-423.544	266.301	-0.178	-0.309
-422.530	-200.000	-0.028	-0.142
-421.515	800.000	-0.073	0.255
-420.500	415.380	0.023	-0.050
-419.486	800.000	0.041	-0.171
-418.471	800.000	-0.029	-0.099
-417.457	-68.424	0.025	-0.010
-416.442	645.324	0.066	-0.169
-415.428	253.922	-0.026	0.044
-414.413	5.283	-0.405	-0.297
-413.398	-92.339	-0.268	0.075
-412.384	-110.703	0.159	0.033
-411.369	420.955	-0.076	-0.163
-410.355	-24.347	-0.165	0.098
-409.340	18.905	-0.206	0.164
-408.325	-200.000	-0.013	0.131
-407.311	-200.000	0.067	-0.353
-406.296	-200.000	-0.087	0.411
-405.282	-200.000	-0.053	-0.246
-404.267	25.665	0.405	0.336
-403.252	800.000	-0.039	0.108
-402.238	-200.000	-0.035	0.227
-401.223	800.000	0.117	0.339
-400.209	-111.045	0.170	0.035
-399.194	-200.000	0.031	0.309
-398.179	-2.077	0.142	-0.099
-397.165	-125.779	-0.225	-0.034
-396.150	-26.908	0.216	0.126
-395.136	-136.296	0.277	0.032
-394.121	105.404	0.251	-0.295
-393.106	-200.000	-0.012	-0.164
-392.092	-26.639	-0.135	0.078
-391.077	-200.000	-0.020	-0.117
-390.063	800.000	-0.074	0.260
-389.048	800.000	0.050	-0.167
-388.033	9.677	-0.310	0.233
-387.019	-111.742	0.242	0.049
-386.004	-181.383	0.089	-0.002
-384.990	-200.000	-0.031	-0.232
-383.975	192.105	0.055	-0.083
-382.960	522.233	-0.133	0.311
-381.946	9.516	0.221	-0.166
-380.931	245.257	0.143	0.239
-379.917	-8.707	-0.036	-0.024
-378.902	-10.356	0.229	0.151
-377.888	130.441	0.085	-0.108
-376.873	30.154	0.163	-0.138
-375.858	-75.201	-0.023	0.008
-374.844	-32.432	0.241	0.134
-373.829	-34.365	0.213	-0.116
-372.815	-38.164	0.112	0.059
-371.800	-17.395	-0.076	-0.047
-370.785	-47.646	0.331	-0.160
-369.771	-99.852	0.166	-0.041
-368.756	-95.282	-0.199	0.053
-367.742	-70.606	0.151	0.057
-366.727	385.649	0.063	-0.129
-365.712	8.674	0.119	0.089
-364.698	-170.802	0.153	0.005
-363.683	58.093	0.126	-0.122
-362.669	-80.381	0.368	-0.122
-361.654	325.996	-0.070	0.134
-360.639	-175.761	-0.090	0.002
-359.625	-48.105	-0.302	0.145
-358.610	-5.015	0.139	0.095
-357.596	-163.950	0.200	0.009
-356.581	-133.917	0.131	-0.016
-355.566	800.000	-0.038	0.136
-354.552	427.481	-0.135	0.289
-353.537	554.708	0.080	-0.191
-352.523	-26.778	-0.172	-0.100
-351.508	127.077	-0.080	0.100
-350.493	-120.018	0.167	0.029
-349.479	252.066	0.058	-0.097
-348.464	773.270	-0.080	0.218
-347.450	-156.765	0.336	-0.021
-346.435	-44.124	-0.270	0.135
-345.420	-200.000	0.001	0.221
-344.406	16.195	-0.141	0.110
-343.391	55.426	0.158	-0.151
-342.377	12.048	-0.280	-0.214
-341.362	374.985	0.178	0.361
-340.348	-31.461	-0.441	0.246
-339.333	359.758	0.092	-0.183
-338.318	162.049	0.202	-0.281
-337.304	-39.873	-0.256	-0.133
-336.289	-200.000	0.007	-0.160
-335.275	-108.281	-0.151	-0.032
-334.260	681.268	-0.020	-0.052
-333.245	800.000	-0.020	0.064
-332.231	-42.952	-0.110	0.056
-331.216	457.654	0.081	0.178
-330.202	758.424	0.106	0.284
-329.187	-136.457	0.182	-0.021
-328.172	164.543	-0.150	0.210
-327.158	-153.411	-0.375	0.026
-326.143	29.012	-0.086	-0.072
-325.129	-124.913	0.351	-0.054
-324.114	273.803	-0.047	0.082
-323.099	-200.000	0.008	-0.119
-322.085	121.976	-0.159	0.197
-321.070	-21.127	0.241	0.146
-320.056	-76.658	0.379	0.132
-319.041	-200.000	-0.096	0.468
-318.026	-200.000	0.007	-0.073
-317.012	800.000	-0.063	0.207
-315.997	-25.246	-0.341	-0.200
-314.983	800.000	-0.030	-0.086
-313.968	800.000	0.117	0.363
-312.953	-113.529	0.218	-0.042
-311.939	89.807	-0.152	0.169
-310.924	274.390	-0.189	0.332
-309.910	396.511	0.106	0.219
-308.895	9.396	-0.219	-0.165
-307.880	277.856	-0.044	-0.078
-306.866	95.337	0.124	-0.140
-305.851	301.278	0.142	0.260
-304.837	-200.000	0.020	-0.136
-303.822	346.864	-0.207	-0.404
-302.807	-45.894	-0.219	-0.107
-301.793	120.713	-0.090	-0.111
-300.778	93.840	-0.298	-0.335
-299.764	-30.695	-0.357	-0.200
-298.749	-21.861	0.196	-0.118
-297.735	88.309	-0.136	-0.149
-296.720	-200.000	-0.007	0.052
-295.705	366.448	-0.070	0.139
-294.691	206.933	-0.038	-0.058
-293.676	-190.996	0.112	-0.001
-292.662	59.842	-0.187	-0.183
-291.647	-65.738	0.264	-0.105
-290.632	800.000	0.087	0.306
-289.618	-68.826	-0.074	-0.028
-288.603	-88.883	0.356	-0.105
-287.589	228.384	-0.068	0.110
-286.574	-44.135	-0.227	0.113
-285.559	-64.404	0.088	0.035
-284.545	14.873	0.096	0.074
-283.530	-72.085	-0.120	0.044
-282.516	131.488	0.228	-0.290
-281.501	-33.053	0.250	0.138
-280.486	130.656	-0.061	0.077
-279.472	66.159	-0.173	0.174
-278.457	-113.952	0.197	0.038
-277.443	-72.480	-0.430	0.158
-276.428	-200.000	-0.026	-0.229
-275.413	3.298	0.072	-0.052
-274.399	-200.000	-0.023	0.287
-273.384	49.877	0.193	0.180
-272.370	-200.000	-0.028	-0.281
-271.355	568.747	-0.074	0.179
-270.340	-102.850	0.080	-0.019
-269.326	-90.794	-0.182	0.052
-268.311	79.162	0.179	-0.190
-267.297	-190.180	-0.065	-0.001
-266.282	164.638	0.163	0.228
-265.267	199.536	0.097	0.147
-264.253	297.387	0.118	-0.214
-263.238	-4.333	0.333	-0.228
-262.224	-81.996	-0.089	-0.029
-261.209	25.359	-0.270	0.222
-260.195	-15.446	0.202	0.128
-259.180	-130.768	-0.227	0.030
-258.165	-121.172	0.284	-0.047
-257.151	-29.434	0.077	0.043
-256.136	-200.000	0.032	0.221
-255.122	130.023	0.070	-0.089
-254.107	-3.862	-0.146	0.100
-253.092	600.913	0.029	-0.070
-252.078	247.993	0.119	-0.199
-251.063	8.449	0.070	0.052
-250.049	41.469	-0.256	0.229
-249.034	-197.747	0.291	-0.002
-248.019	-146.596	-0.075	0.006
-247.005	-8.767	0.140	-0.093
-245.990	-44.692	-0.173	0.086
-244.976	-154.135	-0.057	-0.004
-243.961	-200.000	0.017	-0.248
-242.946	-134.795	-0.220	0.026
-241.932	-75.090	0.356	0.126
-240.917	-56.238	0.148	0.065
-239.903	302.016	-0.071	-0.130
-238.888	-65.114	0.041	-0.016
-237.873	-200.000	-0.004	0.079
-236.859	-20.468	-0.143	-0.087
-235.844	-50.487	-0.039	-0.018
-234.830	-142.466	-0.100	-0.010
-233.815	-200.000	0.022	0.139
-232.800	30.945	0.150	-0.127
-231.786	172.931	0.160	-0.227
-230.771	288.445	0.116	-0.208
-229.757	-62.511	0.178	-0.073
-228.742	152.008	-0.128	0.172
-227.727	-121.236	-0.069	0.011
-226.713	198.842	0.086	0.130
-225.698	637.784	0.012	0.029
-224.684	-148.737	0.267	0.021
-223.669	-107.083	-0.087	-0.019
-222.655	379.368	-0.089	0.180
-221.640	-200.000	-0.003	-0.016
-220.625	30.860	-0.124	0.105
-219.611	-154.538	-0.187	0.012
-218.596	92.195	0.174	0.194
-217.582	-54.015	0.042	-0.019
-216.567	-200.000	-0.031	0.244
-215.552	150.311	-0.036	-0.048
-214.538	-13.643	-0.321	-0.205
-213.523	-7.585	0.118	0.079
-212.509	-56.003	0.540	0.238
-211.494	18.381	0.139	0.110
-210.479	59.763	0.062	-0.060
-209.465	800.000	0.103	-0.368
-208.450	435.613	-0.087	0.187
-207.436	184.289	0.123	0.180
-206.421	257.527	0.252	-0.428
-205.406	-143.984	-0.083	-0.008
-204.392	42.212	-0.284	0.254
-203.377	68.671	0.218	-0.220
-202.363	40.885	-0.245	-0.219
-201.348	-200.000	0.012	-0.183
-200.333	375.370	0.089	0.179
-199.319	-105.482	-0.181	0.041
-198.304	800.000	0.054	-0.151
-197.290	-35.104	-0.179	-0.096
-196.275	-200.000	0.054	0.237
-195.260	-66.152	0.237	-0.093
-194.246	-90.328	0.239	0.068
-193.231	-112.940	-0.234	-0.046
-192.217	-200.000	0.003	-0.130
-191.202	-97.848	-0.360	0.092
-190.187	-15.775	-0.241	-0.151
-189.173	300.911	-0.100	0.183
-188.158	6.421	-0.145	0.107
-187.144	55.158	0.153	-0.146
-186.129	-200.000	-0.004	0.164
-185.114	-95.427	-0.017	-0.005
-184.100	380.937	0.199	-0.402
-183.085	291.285	-0.048	-0.087
-182.071	404.830	-0.126	0.262
-181.056	90.921	0.115	-0.127
-180.042	-200.000	0.020	-0.181
-179.027	-200.000	0.062	-0.323
-178.012	-102.009	-0.227	-0.054
-176.998	-32.558	0.138	0.076
-175.983	-200.000	-0.021	-0.167
-174.969	235.763	-0.074	0.121
-173.954	41.928	0.142	0.127
-172.939	176.413	-0.155	-0.222
-171.925	35.630	-0.133	-0.115
-170.910	-143.181	-0.291	0.028
-169.896	255.419	-0.163	-0.275
-168.881	-7.003	-0.216	-0.144
-167.866	-127.278	-0.262	0.038
-166.852	240.712	-0.125	-0.205
-165.837	-10.815	-0.187	-0.122
-164.823	503.912	-0.100	-0.228
-163.808	-200.000	-0.006	-0.167
-162.793	-82.149	0.194	0.062
-161.779	-149.051	-0.300	0.024
-160.764	-200.000	-0.028	0.369
-159.750	14.218	-0.092	0.071
-158.735	-200.000	0.076	0.394
-157.720	2.773	-0.084	-0.060
-156.706	58.328	-0.185	0.179
-155.691	-108.001	0.325	0.070
-154.677	-2.813	0.057	0.039
-153.662	98.970	-0.083	-0.094
-152.647	-153.433	-0.402	0.027
-151.633	-200.000	0.057	0.259
-150.618	84.496	-0.147	-0.159
-149.604	-200.000	-0.035	-0.265
-148.589	-12.268	-0.267	-0.172
-147.574	-59.952	0.177	-0.075
-146.560	133.998	-0.022	-0.028
-145.545	-105.799	-0.023	-0.005
-144.531	-200.000	-0.008	0.305
-143.516	-40.007	-0.090	-0.046
-142.502	-200.000	-0.036	-0.222
-141.487	800.000	0.196	0.547
-140.472	-82.344	0.383	0.123
-139.458	800.000	0.053	0.174
-138.443	-5.277	-0.158	0.107
-137.429	800.000	0.070	-0.290
-136.414	7.319	-0.134	-0.099
-135.399	-21.853	0.280	-0.168
-134.385	343.426	0.084	-0.161
-133.370	248.947	-0.042	-0.071
-132.356	-39.668	0.129	0.066
-131.341	307.983	0.058	0.107
-130.326	124.061	-0.107	0.133
-129.312	-200.000	-0.050	0.267
-128.297	-64.393	0.015	-0.006
-127.283	90.327	0.158	0.174
-126.268	-64.523	0.210	0.084
-125.253	143.578	0.206	-0.271
-124.239	536.118	-0.168	0.392
-123.224	-52.791	0.338	-0.153
-122.210	47.643	0.161	-0.148
-121.195	-123.398	0.357	-0.056
-120.180	59.201	0.076	0.074
-119.166	-55.907	0.179	-0.079
-118.151	-100.532	0.075	-0.018
-117.137	96.550	0.168	0.190
-116.122	800.000	-0.083	0.237
-115.107	27.511	0.300	0.248
-114.093	8.943	-0.327	0.243
-113.078	800.000	0.077	0.330
-112.064	356.289	-0.281	0.550
-111.049	800.000	-0.047	0.136
-110.034	-200.000	0.018	0.276
-109.020	800.000	-0.104	0.286
-108.005	-71.860	0.289	0.106
-106.991	306.451	-0.056	0.102
-105.976	301.648	0.105	-0.191
-104.962	-26.464	-0.231	-0.133
-103.947	11.757	0.206	-0.155
-102.932	-50.939	0.316	-0.146
-101.918	177.787	-0.132	0.189
-100.903	-200.000	0.011	0.083
-99.889	-70.517	-0.370	0.138
-98.874	142.833	-0.290	0.379
-97.859	24.504	0.371	0.302
-96.845	-110.051	0.183	-0.038
-95.830	-200.000	-0.005	0.134
-94.816	-67.915	-0.014	-0.005
-93.801	-200.000	-0.020	0.088
-92.786	82.440	-0.193	0.206
-91.772	149.309	0.189	0.251
-90.757	-46.726	0.110	-0.053
-89.743	64.082	-0.062	0.061
-88.728	-24.242	-0.075	-0.044
-87.713	-200.000	-0.041	0.189
-86.699	67.599	-0.035	-0.036
-85.684	268.919	0.038	-0.066
-84.670	800.000	-0.006	0.025
-83.655	800.000	-0.087	0.289
-82.640	-105.889	-0.107	-0.024
-81.626	393.319	0.145	-0.296
-80.611	-200.000	0.107	-0.494
-79.597	-118.340	0.165	-0.029
-78.582	-0.294	-0.020	-0.014
-77.567	-125.448	0.372	0.056
-76.553	571.759	0.134	-0.322
-75.538	-140.646	0.158	-0.016
-74.524	125.719	0.325	-0.403
-73.509	-3.919	0.062	-0.042
-72.494	-180.290	0.215	-0.004
-71.480	461.661	0.193	-0.424
-70.465	-200.000	-0.002	0.026
-69.451	-200.000	0.040	-0.248
-68.436	-200.000	-0.021	0.124
-67.422	-200.000	0.045	0.295
-66.407	20.013	0.172	-0.136
-65.392	30.650	-0.169	0.142
-64.378	214.999	0.189	0.294
-63.363	-66.530	0.299	-0.116
-62.349	-200.000	-0.004	-0.194
-61.334	225.987	-0.666	-1.061
-60.319	800.000	0.128	0.394
-59.305	800.000	-0.279	-0.763
-58.290	800.000	0.300	1.004
-57.276	438.798	0.634	1.360
-56.261	-200.000	102.742	589.726
-55.246	553.231	1436.982	3391.299
-54.232	185.388	2636.107	3842.897
-53.217	109.890	2282.874	2688.600
-52.203	39.749	1898.757	1672.544
-51.188	33.694	1687.081	1440.238
-50.173	31.146	1643.252	1383.904
-49.159	49.921	1694.354	1568.721
-48.144	50.711	1710.584	1589.628
-47.130	33.407	1669.308	1422.688
-46.115	30.704	1654.707	1390.026
-45.100	30.546	1649.924	1384.779
-44.086	30.602	1646.740	1382.468
-43.071	30.488	1644.572	1379.747
-42.057	30.328	1642.809	1377.023
-41.042	30.515	1640.027	1376.025
-40.027	30.446	1638.376	1374.071
-39.013	30.393	1636.607	1372.144
-37.998	30.461	1634.944	1371.194
-36.984	30.507	1633.794	1370.513
-35.969	30.613	1632.137	1369.854
-34.954	30.579	1630.864	1368.479
-33.940	30.545	1629.283	1366.847
-32.925	30.577	1627.660	1365.668
-31.911	30.567	1625.579	1363.790
-30.896	30.542	1623.827	1362.089
-29.881	30.569	1622.684	1361.269
-28.867	30.546	1620.072	1358.856
-27.852	30.523	1619.091	1357.814
-26.838	30.511	1617.784	1356.579
-25.823	30.548	1616.186	1355.450
-24.809	30.675	1614.640	1355.025
-23.794	30.611	1613.530	1353.578
-22.779	30.607	1612.083	1352.278
-21.765	30.587	1610.309	1350.587
-20.750	30.556	1609.231	1349.412
-19.736	30.613	1607.556	1348.366
-18.721	30.564	1606.250	1346.857
-17.706	30.474	1604.820	1344.957
-16.692	30.617	1602.836	1344.275
-15.677	30.512	1601.600	1342.427
-14.663	30.680	1600.187	1342.402
-13.648	30.586	1599.247	1340.877
-12.633	30.550	1597.589	1339.175
-11.619	30.592	1596.132	1338.207
-10.604	30.570	1594.880	1336.941
-9.590	30.631	1593.349	1336.048
-8.575	30.630	1591.989	1334.843
-7.560	30.622	1591.173	1334.048
-6.546	30.621	1589.771	1332.816
-5.531	30.579	1588.318	1331.245
-4.517	30.578	1587.636	1330.609
-3.502	30.518	1586.141	1328.875
-2.487	30.669	1584.004	1328.116
-1.473	30.332	1572.415	1315.953
-0.458	27.497	1553.889	1280.505
0.556	23.300	1554.908	1249.402
1.571	21.048	1578.643	1252.215
2.586	20.542	1591.943	1258.990
3.600	18.232	1539.190	1200.968
4.615	11.405	1432.633	1072.975
5.629	5.643	1371.935	991.055
6.644	4.909	1364.758	981.165
7.659	4.802	1363.254	979.323
8.673	4.764	1362.357	978.352
9.688	4.805	1360.481	977.179
10.702	4.576	1357.802	973.731
11.717	7.350	1362.406	994.362
12.731	14.205	1374.912	1046.654
13.746	18.688	1381.914	1080.168
14.761	18.679	1380.830	1079.170
15.775	17.664	1378.233	1070.668
16.790	16.649	1375.374	1061.989
17.804	15.821	1373.405	1055.182
18.819	15.418	1371.979	1051.473
19.834	15.168	1370.748	1048.872
20.848	15.062	1369.302	1047.009
21.863	14.817	1368.365	1044.667
22.877	14.621	1366.365	1041.823
23.892	14.524	1366.478	1041.214
24.907	14.565	1365.422	1040.572
25.921	14.604	1363.938	1039.589
26.936	14.694	1363.244	1039.532
27.950	14.616	1362.788	1038.607
28.965	14.729	1361.586	1038.297
29.980	14.748	1360.940	1037.833
30.994	14.857	1359.152	1037.053
32.009	14.891	1358.266	1036.495
33.023	14.832	1356.503	1034.694
34.038	14.819	1355.673	1033.892
35.053	14.762	1353.897	1032.089
36.067	14.781	1353.402	1031.738
37.082	14.818	1351.916	1030.746
38.096	14.823	1350.946	1029.942
39.111	14.890	1349.958	1029.511
40.126	14.697	1349.836	1028.140
41.140	14.659	1348.544	1026.832
42.155	14.514	1348.158	1025.555
43.169	14.457	1348.053	1025.031
44.184	14.546	1347.488	1025.059
45.199	14.530	1347.037	1024.528
46.213	14.534	1346.483	1024.044
47.228	14.713	1345.596	1024.372
48.242	14.721	1344.086	1023.186
49.257	14.627	1342.877	1021.599
50.271	14.672	1341.280	1020.566
51.286	14.731	1340.202	1020.019
52.301	14.696	1339.020	1018.814
53.315	14.510	1338.409	1017.124
54.330	14.578	1337.178	1016.515
55.344	14.540	1335.662	1015.039
56.359	14.609	1334.679	1014.622
57.374	14.621	1334.041	1014.121
58.388	14.504	1333.307	1012.761
59.403	14.439	1332.572	1011.722
60.417	14.460	1331.681	1011.080
61.432	14.457	1330.960	1010.426
62.447	14.449	1330.166	1009.682
63.461	14.503	1328.892	1008.957
64.476	14.369	1327.770	1007.204
65.490	14.262	1326.630	1005.605
66.505	14.434	1324.760	1005.132
67.520	14.441	1323.703	1004.285
68.534	14.422	1322.875	1003.452
69.549	14.400	1321.764	1002.391
70.563	14.496	1320.433	1001.871
71.578	14.359	1319.515	1000.263
72.593	14.374	1318.473	999.476
73.607	14.364	1317.654	998.705
74.622	14.405	1316.790	998.209
75.636	14.293	1316.513	997.238
76.651	14.442	1315.324	997.138
77.666	14.429	1314.934	996.681
78.680	14.297	1315.214	996.015
79.695	14.372	1313.880	995.364
80.709	14.430	1312.943	994.910
81.724	14.575	1312.019	994.987
82.739	14.601	1311.709	994.817
83.753	14.688	1310.517	994.344
84.768	14.756	1309.409	993.823
85.782	14.791	1308.946	993.588
86.797	14.658	1307.702	991.770
87.812	14.643	1306.176	990.432
88.826	14.680	1305.317	989.912
89.841	14.666	1304.306	988.975
90.855	14.812	1302.918	988.701
91.870	14.811	1302.434	988.241
92.884	14.760	1301.612	987.230
93.899	14.862	1300.859	987.170
94.914	14.874	1299.775	986.333
95.928	14.881	1299.353	985.969
96.943	14.734	1298.550	984.401
97.957	14.868	1296.751	983.740
98.972	14.827	1296.165	982.970
99.987	14.831	1295.358	982.295
101.001	14.715	1294.118	980.583
102.016	14.778	1293.354	980.288
103.030	14.894	1291.868	979.753
104.045	14.695	1291.682	978.363
105.060	14.711	1290.174	977.226
106.074	14.622	1288.398	975.276
107.089	14.480	1287.426	973.622
108.103	14.393	1286.139	972.054
109.118	14.539	1284.473	971.561
110.133	14.482	1283.831	970.657
111.147	14.603	1281.990	969.882
112.162	14.559	1280.952	968.757
113.176	14.524	1280.022	967.764
114.191	14.559	1279.188	967.255
115.206	14.548	1278.062	966.254
116.220	14.584	1276.754	965.387
117.235	14.580	1275.522	964.347
118.249	14.555	1274.559	963.385
119.264	14.542	1273.410	962.361
120.279	14.456	1272.306	960.944
121.293	14.536	1271.318	960.574
122.308	14.472	1270.503	959.506
123.322	14.454	1269.407	958.487
124.337	14.510	1268.440	957.995
125.352	14.462	1267.117	956.637
126.366	14.397	1266.334	955.589
127.381	14.424	1265.243	954.833
128.395	14.422	1264.180	953.935
129.410	14.497	1263.177	953.521
130.424	14.581	1262.680	953.545
131.439	14.504	1261.451	952.090
132.454	14.549	1260.330	951.419
133.468	14.664	1259.508	951.366
134.483	14.659	1258.843	950.754
135.497	14.623	1257.729	949.625
136.512	14.610	1256.436	948.491
137.527	14.583	1255.039	947.195
138.541	14.698	1253.495	946.601
139.556	14.654	1252.712	945.675
140.570	14.732	1251.828	945.366
141.585	14.814	1250.198	944.517
142.600	14.827	1249.147	943.709
143.614	14.826	1248.648	943.247
144.629	14.824	1247.756	942.477
145.643	14.887	1246.502	941.800
146.658	14.773	1245.503	940.321
147.673	14.809	1243.286	938.766
148.687	14.728	1242.317	937.498
149.702	14.593	1241.339	935.921
150.716	14.613	1240.367	935.214
151.731	14.704	1238.511	934.246
152.746	14.803	1237.287	933.791
153.760	14.751	1236.244	932.629
154.775	14.810	1235.607	932.395
155.789	14.809	1234.677	931.608
156.804	14.747	1233.563	930.339
157.819	14.815	1232.752	930.021
158.833	15.012	1231.529	930.114
159.848	15.009	1230.811	929.472
160.862	14.944	1230.007	928.423
161.877	14.932	1228.230	926.934
162.892	14.733	1227.797	925.421
163.906	14.868	1226.214	924.891
164.921	14.761	1225.922	923.996
165.935	14.845	1224.880	923.594
166.950	14.916	1224.051	923.281
167.964	14.895	1223.366	922.563
168.979	14.835	1223.036	921.903
169.994	14.835	1222.353	921.306
171.008	14.910	1221.455	920.962
172.023	14.930	1220.632	920.373
173.037	15.006	1219.855	920.120
174.052	15.058	1218.751	919.491
175.067	14.965	1217.691	918.100
176.081	14.993	1216.215	917.059
177.096	14.877	1215.914	916.120
178.110	14.902	1214.633	915.210
179.125	14.979	1213.313	914.553
180.140	14.951	1212.337	913.586
181.154	14.900	1211.214	912.379
182.169	15.082	1209.683	912.133
183.183	15.057	1209.089	911.473
184.198	15.227	1207.660	911.237
185.213	15.216	1206.528	910.242
186.227	15.167	1205.353	909.012
187.242	15.205	1204.532	908.516
188.256	15.211	1203.386	907.607
189.271	15.290	1202.658	907.405
190.286	15.056	1201.479	905.168
191.300	14.908	1200.743	903.736
192.315	14.875	1199.712	902.699
193.329	14.861	1199.678	902.521
194.344	15.043	1198.187	902.298
195.359	14.989	1198.466	902.138
196.373	15.052	1197.950	902.006
197.388	15.254	1197.262	902.501
198.402	15.275	1196.805	902.189
199.417	15.407	1196.030	902.234
200.432	15.478	1195.036	901.786
201.446	15.393	1194.771	901.048
202.461	15.521	1193.683	900.834
203.475	15.553	1192.258	899.849
204.490	15.425	1191.341	898.395
205.504	15.379	1189.982	897.045
206.519	15.364	1188.861	896.038
207.534	15.233	1188.234	894.786
208.548	15.390	1186.776	894.447
209.563	15.335	1186.127	893.590
210.577	15.293	1185.488	892.805
211.592	15.490	1184.491	893.019
212.607	15.518	1183.937	892.673
213.621	15.521	1182.813	891.764
214.636	15.578	1181.730	891.172
215.650	15.540	1181.019	890.352
216.665	15.564	1180.234	889.810
217.680	15.654	1179.252	889.467
218.694	15.669	1178.673	889.029
219.709	15.632	1178.018	888.262
220.723	15.655	1177.006	887.543
221.738	15.683	1176.516	887.244
222.753	15.675	1175.163	886.102
223.767	15.625	1174.939	885.592
224.782	15.799	1174.043	885.752
225.796	15.731	1173.759	885.102
226.811	15.710	1173.035	884.367
227.826	15.720	1172.075	883.618
228.840	15.785	1171.224	883.240
229.855	15.713	1170.580	882.299
230.869	15.771	1169.982	882.072
231.884	15.685	1168.752	880.617
232.899	15.622	1167.966	879.615
233.913	15.618	1167.661	879.290
234.928	15.579	1166.571	878.186
235.942	15.571	1165.873	877.543
236.957	15.616	1165.060	877.085
237.972	15.730	1164.214	876.969
238.986	15.695	1164.026	876.563
240.001	15.726	1163.047	875.909
241.015	15.678	1162.143	874.903
242.030	15.714	1161.459	874.500
243.045	15.759	1160.568	873.984
244.059	15.857	1160.159	874.111
245.074	15.843	1159.128	873.180
246.088	15.842	1158.468	872.600
247.103	15.876	1157.992	872.342
248.117	15.939	1157.156	871.961
249.132	16.002	1156.274	871.545
250.147	16.272	1155.267	872.101
251.161	16.182	1154.792	871.203
252.176	16.218	1154.385	871.004
253.190	16.308	1153.773	870.930
254.205	16.395	1153.048	870.754
255.220	16.390	1152.357	870.130
256.234	16.285	1151.832	869.116
257.249	16.362	1151.426	869.129
258.263	16.290	1150.957	868.326
259.278	16.420	1149.757	868.012
260.293	16.394	1149.045	867.265
261.307	16.395	1148.781	866.994
262.322	16.523	1147.934	866.934
263.336	16.494	1147.136	866.107
264.351	16.437	1147.028	865.658
265.366	16.463	1146.086	865.001
266.380	16.511	1145.712	864.887
267.395	16.429	1145.031	863.878
268.409	16.349	1144.315	862.853
269.424	16.415	1142.970	862.099
270.439	16.384	1142.519	861.529
271.453	16.417	1141.851	861.112
272.468	16.323	1141.173	860.048
273.482	16.370	1140.172	859.458
274.497	16.280	1139.637	858.522
275.512	16.429	1138.656	858.463
276.526	16.464	1138.163	858.190
277.541	16.526	1137.360	857.826
278.555	16.467	1136.424	856.744
279.570	16.562	1135.990	856.824
280.585	16.655	1135.362	856.742
281.599	16.765	1133.707	855.976
282.614	16.604	1133.340	854.808
283.628	16.497	1132.443	853.517
284.643	16.435	1131.605	852.496
285.657	16.750	1130.046	852.832
286.672	16.652	1129.544	851.884
287.687	16.621	1128.574	850.921
288.701	16.572	1128.226	850.340
289.716	16.609	1127.217	849.688
290.730	16.730	1126.318	849.542
291.745	16.616	1126.029	848.679
292.760	16.760	1125.316	848.785
293.774	16.899	1124.504	848.796
294.789	16.779	1124.151	847.856
295.803	16.806	1123.097	847.118
296.818	16.802	1122.619	846.662
297.833	16.913	1121.450	846.261
298.847	16.812	1121.064	845.390
299.862	16.783	1120.295	844.590
300.876	16.867	1119.452	844.300
301.891	16.918	1118.841	844.017
302.906	16.969	1118.100	843.638
303.920	16.969	1117.530	843.134
304.935	17.041	1116.861	842.911
305.949	17.121	1116.299	842.808
306.964	17.100	1115.917	842.340
307.979	17.088	1114.905	841.442
308.993	16.941	1114.287	840.176
310.008	17.102	1113.657	840.422
311.022	17.194	1112.393	839.849
312.037	17.072	1111.773	838.702
313.052	17.057	1110.736	837.772
314.066	16.966	1109.921	836.638
315.081	16.916	1109.145	835.733
316.095	16.980	1108.393	835.405
317.110	16.909	1108.080	834.747
318.125	16.913	1107.241	834.060
319.139	16.991	1106.324	833.677
320.154	16.884	1105.919	832.776
321.168	16.911	1105.514	832.529
322.183	17.027	1104.654	832.378
323.197	17.012	1104.299	831.959
324.212	17.076	1103.398	831.522
325.227	17.004	1102.959	830.766
326.241	17.024	1102.414	830.381
327.256	17.105	1101.529	830.037
328.270	17.026	1100.676	828.934
329.285	17.029	1099.901	828.291
330.300	16.973	1098.583	826.950
331.314	17.115	1097.697	826.905
332.329	17.145	1096.922	826.392
333.343	17.251	1096.071	826.191
334.358	17.343	1094.960	825.732
335.373	17.234	1094.532	824.804
336.387	17.261	1093.814	824.320
337.402	17.265	1093.159	823.777
338.416	17.398	1092.464	823.821
339.431	17.325	1091.902	822.974
340.446	17.377	1091.482	822.833
341.460	17.605	1090.429	823.070
342.475	17.755	1089.287	822.856
343.489	17.569	1088.694	821.442
344.504	17.664	1087.710	821.085
345.519	17.616	1087.424	820.565
346.533	17.761	1086.325	820.357
347.548	17.720	1085.806	819.698
348.562	17.605	1085.069	818.516
349.577	17.595	1084.034	817.615
350.592	17.577	1083.331	816.927
351.606	17.548	1082.798	816.314
352.621	17.426	1082.080	815.114
353.635	17.342	1081.550	814.240
354.650	17.542	1080.516	814.349
355.665	17.402	1080.250	813.407
356.679	17.487	1079.224	812.967
357.694	17.522	1078.799	812.744
358.708	17.604	1078.460	812.807
359.723	17.657	1077.471	812.239
360.738	17.774	1076.885	812.282
361.752	17.632	1076.331	811.116
362.767	17.705	1075.683	810.904
363.781	17.666	1075.223	810.303
364.796	17.865	1074.478	810.613
365.810	17.929	1073.650	810.220
366.825	17.870	1073.049	809.415
367.840	18.020	1072.884	809.929
368.854	17.935	1072.626	809.263
369.869	17.991	1071.722	808.775
370.883	17.916	1070.448	807.386
371.898	17.860	1070.077	806.770
372.913	17.870	1069.265	806.132
373.927	17.971	1068.880	806.249
374.942	17.993	1068.701	806.148
375.956	18.049	1068.026	805.831
376.971	18.037	1067.298	805.153
377.986	18.023	1066.925	804.735
379.000	18.074	1066.256	804.398
380.015	18.246	1065.593	804.638
381.029	18.192	1065.085	803.928
382.044	18.171	1064.238	803.119
383.059	18.101	1063.750	802.349
384.073	18.139	1063.003	801.894
385.088	18.268	1062.103	801.750
386.102	18.237	1060.771	800.526
387.117	18.167	1059.972	799.527
388.132	18.039	1059.224	798.295
389.146	18.105	1058.037	797.636
390.161	18.022	1057.706	796.930
391.175	18.086	1056.976	796.605
392.190	18.174	1056.306	796.440
393.205	18.266	1055.628	796.289
394.219	18.328	1054.839	795.908
395.234	18.186	1054.030	794.571
396.248	18.188	1052.808	793.589
397.263	18.143	1051.244	792.129
398.278	18.119	1051.052	791.805
399.292	18.061	1050.491	791.044
400.307	18.168	1049.186	790.483
401.321	18.193	1048.724	790.182
402.336	18.071	1048.417	789.320
403.350	18.236	1047.492	789.315
404.365	18.222	1046.935	788.761
405.380	18.198	1046.655	788.368
406.394	18.175	1046.018	787.711
407.409	18.301	1044.807	787.311
408.423	18.486	1044.171	787.610
409.438	18.591	1043.277	787.348
410.453	18.524	1042.694	786.533
411.467	18.607	1042.071	786.374
412.482	18.538	1041.511	785.565
413.496	18.588	1041.159	785.456
414.511	18.695	1040.576	785.440
415.526	18.754	1039.754	785.017
416.540	18.774	1039.296	784.694
417.555	18.716	1038.640	783.864
418.569	18.736	1038.378	783.688
419.584	18.698	1037.983	783.149
420.599	18.776	1037.010	782.703
421.613	150.462	1402.715	1795.685
422.628	137.443	1456.000	1795.777
