DTS Sentinel unit serial number:	SN413079Multiplexer serial number:	ORYXHardware model number:	OX4-SRSoftware version number:	ORYX F/W v4.00 Oryx Data Collector v3.7.2.0data status	okinstallation	princeton_trtdifferential loss correction	single-endedforward channel	channel 2reverse channel	N/Adate	2019/09/17time	04:19:34forward acquisition time	60.00reverse acquisition time	0.00gamma	496.2192k internal	0.2327k external	0.2327temperature offset calibration	0.9978default loss term (dB/km)	0.3790temperature slope calibration	1.0000multiplexer offset coefficient	1.0000multiplexer slope coefficient	1.0000fibre end	0.00T internal ref (°C)	29.75T ext. ref 1 (°C)	0.12T ext. ref 2 (°C)	24.24length (m)	temperature (°C)	Stokes	anti-Stokes-747.200	-11.277	-0.188	0.125
-746.185	-50.435	0.114	0.054
-745.171	800.000	0.051	-0.177
-744.156	-15.706	0.136	-0.087
-743.142	-113.033	0.277	0.055
-742.127	-200.000	-0.044	0.239
-741.112	138.879	-0.146	-0.194
-740.098	-25.108	0.165	-0.098
-739.083	-47.093	-0.203	-0.100
-738.069	430.049	-0.140	0.306
-737.054	-77.222	-0.258	0.090
-736.039	-62.594	-0.187	0.078
-735.025	-200.000	0.024	-0.193
-734.010	-21.160	-0.391	-0.241
-732.996	93.066	-0.272	-0.310
-731.981	213.417	-0.140	-0.223
-730.966	-10.979	0.157	0.105
-729.952	147.569	-0.271	0.368
-728.937	800.000	-0.162	-0.533
-727.923	-113.643	0.167	-0.033
-726.908	120.785	-0.062	0.078
-725.894	-117.430	-0.293	0.053
-724.879	329.176	-0.044	0.085
-723.864	-200.000	0.027	0.191
-722.850	263.520	-0.108	0.188
-721.835	-151.654	0.385	-0.029
-720.821	175.546	-0.231	0.338
-719.806	-12.236	0.117	-0.077
-718.791	-40.078	-0.017	-0.009
-717.777	420.657	-0.105	0.226
-716.762	697.413	0.146	0.387
-715.748	-200.000	-0.038	-0.170
-714.733	-10.853	0.351	0.234
-713.718	21.508	-0.087	0.071
-712.704	-22.990	0.176	-0.107
-711.689	-57.486	0.185	0.082
-710.675	-84.358	0.127	0.040
-709.660	316.879	0.124	0.237
-708.645	64.836	-0.087	-0.088
-707.631	-21.301	0.138	-0.085
-706.616	800.000	-0.089	-0.272
-705.602	-35.349	-0.176	0.096
-704.587	-200.000	0.025	0.139
-703.572	133.138	-0.132	-0.171
-702.558	800.000	-0.012	0.048
-701.543	153.230	0.074	-0.102
-700.529	-104.598	-0.229	-0.053
-699.514	43.382	-0.185	-0.170
-698.499	71.395	0.195	-0.204
-697.485	-179.361	0.460	0.010
-696.470	31.434	0.195	-0.169
-695.456	-200.000	-0.086	0.411
-694.441	191.510	0.096	-0.146
-693.426	-200.000	0.031	-0.185
-692.412	70.779	-0.064	0.067
-691.397	-68.498	0.154	0.060
-690.383	-82.178	-0.272	0.089
-689.368	-163.830	-0.186	0.009
-688.354	120.295	-0.096	-0.119
-687.339	800.000	0.114	-0.363
-686.324	-49.477	0.180	0.086
-685.310	-71.635	-0.068	-0.025
-684.295	276.013	-0.110	-0.197
-683.281	-36.995	0.243	0.131
-682.266	540.357	0.217	-0.519
-681.251	-200.000	-0.056	0.282
-680.237	178.109	-0.184	-0.271
-679.222	800.000	0.076	-0.213
-678.208	-3.661	0.075	-0.052
-677.193	71.988	-0.095	0.099
-676.178	-200.000	0.003	-0.068
-675.164	-129.325	0.340	0.048
-674.149	-200.000	0.011	-0.133
-673.135	-200.000	-0.043	0.382
-672.120	-43.204	-0.162	0.082
-671.105	56.972	-0.172	-0.169
-670.091	-95.035	-0.160	0.043
-669.076	-200.000	-0.021	0.183
-668.062	-200.000	-0.034	0.184
-667.047	-86.230	0.139	-0.043
-666.032	501.967	-0.072	0.168
-665.018	294.492	-0.090	-0.166
-664.003	-36.623	-0.448	-0.242
-662.989	800.000	-0.108	0.331
-661.974	-32.052	-0.281	0.158
-660.959	-48.971	-0.177	-0.085
-659.945	-31.952	-0.211	0.119
-658.930	-92.106	-0.212	-0.060
-657.916	-200.000	0.016	0.228
-656.901	315.442	0.056	0.106
-655.886	343.042	-0.095	0.187
-654.872	800.000	0.098	0.274
-653.857	-60.331	0.036	-0.015
-652.843	-73.124	0.167	-0.062
-651.828	-18.340	-0.102	-0.064
-650.814	43.536	0.353	0.325
-649.799	-39.994	0.216	-0.113
-648.784	557.199	-0.137	0.332
-647.770	-172.785	-0.247	-0.008
-646.755	13.473	0.200	-0.156
-645.741	800.000	-0.042	-0.152
-644.726	237.113	-0.121	0.202
-643.711	194.488	-0.063	0.096
-642.697	-62.720	-0.065	-0.027
-641.682	144.998	0.127	-0.171
-640.668	-117.353	-0.314	-0.057
-639.653	-86.760	-0.134	-0.041
-638.638	-133.555	0.368	0.046
-637.624	-82.009	-0.116	0.038
-636.609	235.730	-0.175	0.290
-635.595	-58.233	-0.284	-0.124
-634.580	252.103	0.036	-0.062
-633.565	-200.000	-0.002	0.319
-632.551	-97.567	-0.161	-0.042
-631.536	-200.000	-0.005	0.028
-630.522	800.000	0.089	-0.290
-629.507	14.279	0.104	-0.082
-628.492	-86.597	-0.136	0.042
-627.478	55.380	0.160	-0.156
-626.463	800.000	0.034	-0.121
-625.449	-20.548	-0.439	0.271
-624.434	-8.319	0.120	-0.081
-623.419	23.050	0.127	0.105
-622.405	-200.000	0.005	0.439
-621.390	0.226	-0.185	0.132
-620.376	-11.456	0.130	-0.086
-619.361	800.000	-0.030	-0.094
-618.346	-10.864	0.299	0.198
-617.332	800.000	-0.044	-0.164
-616.317	-10.846	-0.127	-0.084
-615.303	800.000	-0.133	0.383
-614.288	-127.670	-0.198	-0.029
-613.273	-138.305	0.177	-0.020
-612.259	-103.128	-0.230	-0.055
-611.244	396.713	0.055	-0.116
-610.230	-88.343	-0.055	0.017
-609.215	439.714	0.075	-0.164
-608.201	33.762	0.225	0.197
-607.186	277.182	-0.135	-0.241
-606.171	108.633	0.242	-0.290
-605.157	30.813	0.231	-0.199
-604.142	-9.727	0.091	0.061
-603.128	-94.277	0.410	0.113
-602.113	-153.239	-0.262	0.018
-601.098	-200.000	-0.009	-0.216
-600.084	-200.000	-0.013	-0.140
-599.069	184.481	-0.034	-0.050
-598.055	29.263	0.095	0.081
-597.040	-5.222	0.172	-0.119
-596.025	-89.034	-0.214	-0.064
-595.011	276.215	-0.158	-0.281
-593.996	-57.366	0.208	-0.092
-592.982	22.895	0.201	-0.166
-591.967	-105.941	0.332	-0.075
-590.952	319.385	-0.023	-0.043
-589.938	-200.000	-0.056	0.448
-588.923	-86.376	-0.336	-0.104
-587.909	88.204	0.125	-0.139
-586.894	-11.892	-0.460	0.302
-585.879	236.703	-0.141	-0.234
-584.865	-151.731	0.177	-0.013
-583.850	800.000	-0.052	0.145
-582.836	-94.482	0.293	-0.080
-581.821	800.000	0.078	0.234
-580.806	21.572	-0.038	0.031
-579.792	14.297	-0.132	0.103
-578.777	-153.268	0.463	-0.032
-577.763	394.036	0.037	0.077
-576.748	-37.446	-0.098	0.052
-575.733	177.664	0.169	0.247
-574.719	-200.000	-0.019	-0.192
-573.704	-195.351	-0.237	0.002
-572.690	762.649	-0.080	0.216
-571.675	21.451	-0.124	-0.101
-570.661	65.665	0.363	0.368
-569.646	-200.000	-0.011	0.273
-568.631	-89.697	0.363	0.107
-567.617	800.000	0.053	-0.151
-566.602	-200.000	0.018	0.146
-565.588	-141.337	-0.230	-0.023
-564.573	-200.000	-0.013	0.103
-563.558	9.002	-0.168	-0.127
-562.544	31.779	0.214	-0.184
-561.529	-74.606	0.346	0.125
-560.515	246.281	-0.112	-0.189
-559.500	220.884	-0.140	0.225
-558.485	757.977	0.029	0.078
-557.471	286.568	-0.155	0.279
-556.456	-70.638	0.063	0.024
-555.442	-104.618	0.123	-0.028
-554.427	-104.688	-0.232	-0.054
-553.412	175.352	-0.136	0.198
-552.398	-18.903	-0.040	-0.025
-551.383	223.504	0.221	-0.357
-550.369	-26.262	-0.194	0.114
-549.354	607.321	0.076	0.190
-548.339	-11.349	-0.301	-0.198
-547.325	-126.179	0.422	-0.063
-546.310	-200.000	-0.035	0.189
-545.296	406.441	0.036	0.077
-544.281	-159.809	0.100	-0.006
-543.266	28.485	0.138	-0.117
-542.252	36.041	0.309	0.272
-541.237	681.862	-0.136	0.354
-540.223	-57.281	-0.106	0.047
-539.208	0.932	0.223	-0.160
-538.193	-200.000	0.024	-0.427
-537.179	-47.289	-0.163	0.079
-536.164	76.833	-0.177	-0.188
-535.150	196.432	0.022	0.033
-534.135	-126.540	-0.415	0.062
-533.121	27.785	0.458	0.386
-532.106	8.245	-0.196	-0.147
-531.091	-113.079	-0.189	0.037
-530.077	-139.308	0.309	-0.033
-529.062	49.869	0.126	0.119
-528.048	239.437	0.038	-0.063
-527.033	108.252	0.202	-0.241
-526.018	147.878	0.122	-0.165
-525.004	609.028	0.101	0.253
-523.989	-70.982	0.246	0.093
-522.975	556.297	0.041	-0.100
-521.960	90.521	-0.193	0.216
-520.945	-139.294	0.157	0.017
-519.931	141.309	0.083	-0.109
-518.916	-71.576	-0.320	0.120
-517.902	-33.087	0.082	0.046
-516.887	224.810	0.187	-0.302
-515.872	29.654	-0.168	0.142
-514.858	-200.000	-0.003	0.136
-513.843	208.610	-0.159	0.249
-512.829	87.639	-0.165	-0.183
-511.814	106.727	0.194	-0.230
-510.799	170.187	-0.069	-0.099
-509.785	-105.297	-0.188	-0.043
-508.770	800.000	-0.034	-0.110
-507.756	-200.000	-0.098	-0.482
-506.741	97.324	0.133	0.152
-505.726	-200.000	0.041	-0.201
-504.712	106.957	-0.178	-0.211
-503.697	424.428	-0.074	0.159
-502.683	77.434	-0.136	0.145
-501.668	800.000	0.083	-0.356
-500.653	800.000	-0.067	-0.258
-499.639	-41.265	0.150	-0.077
-498.624	-200.000	0.001	0.122
-497.610	183.124	-0.140	-0.207
-496.595	-181.000	-0.066	0.001
-495.581	212.355	-0.096	-0.151
-494.566	186.712	-0.168	-0.250
-493.551	-200.000	-0.029	-0.219
-492.537	83.089	-0.157	-0.171
-491.522	361.796	0.156	-0.312
-490.508	-5.778	0.144	-0.098
-489.493	61.053	-0.197	0.195
-488.478	554.231	0.053	-0.128
-487.464	-125.462	-0.307	0.047
-486.449	800.000	-0.077	-0.217
-485.435	70.355	-0.113	0.117
-484.420	-79.979	0.151	-0.051
-483.405	-80.999	0.161	0.053
-482.391	38.215	-0.051	-0.045
-481.376	800.000	0.067	0.206
-480.362	48.413	-0.119	0.111
-479.347	110.147	0.064	-0.076
-478.332	-64.704	-0.293	0.118
-477.318	729.481	-0.129	0.343
-476.303	-36.697	-0.239	0.128
-475.289	-180.000	0.445	0.009
-474.274	-13.052	-0.116	0.075
-473.259	20.069	-0.175	0.141
-472.245	-56.620	-0.302	-0.133
-471.230	98.563	0.170	-0.196
-470.216	-200.000	-0.005	0.027
-469.201	-104.583	0.096	0.022
-468.186	-21.385	-0.313	0.191
-467.172	-83.000	0.251	0.081
-466.157	-145.765	0.122	0.011
-465.143	-143.469	0.091	-0.009
-464.128	168.828	0.220	-0.314
-463.113	65.017	-0.203	0.204
-462.099	14.147	0.366	-0.284
-461.084	-200.000	-0.016	0.100
-460.070	-29.221	0.247	0.141
-459.055	506.080	-0.151	0.348
-458.040	-67.791	0.289	-0.113
-457.026	91.785	0.084	-0.094
-456.011	196.397	-0.213	0.323
-454.997	-44.280	0.205	0.103
-453.982	-140.850	-0.319	-0.033
-452.968	-117.002	0.098	-0.018
-451.953	-42.767	-0.017	0.008
-450.938	800.000	-0.060	0.222
-449.924	-3.609	0.119	0.083
-448.909	18.842	-0.191	0.153
-447.895	-200.000	0.066	-0.314
-446.880	800.000	-0.088	0.373
-445.865	139.487	-0.314	0.411
-444.851	-200.000	-0.007	-0.288
-443.836	800.000	-0.035	-0.134
-442.822	339.643	0.132	0.257
-441.807	-5.793	0.379	-0.259
-440.792	774.455	-0.128	-0.348
-439.778	-145.701	0.265	0.024
-438.763	522.585	-0.070	0.165
-437.749	120.214	0.114	0.141
-436.734	-100.791	-0.314	-0.077
-435.719	-13.086	-0.046	0.030
-434.705	324.578	0.027	0.052
-433.690	84.698	0.203	-0.222
-432.676	633.748	0.154	0.390
-431.661	214.945	-0.128	-0.203
-430.646	800.000	0.041	-0.163
-429.632	-51.209	0.246	0.115
-428.617	800.000	0.051	-0.176
-427.603	-200.000	0.040	-0.200
-426.588	481.557	-0.118	0.266
-425.573	800.000	0.035	-0.097
-424.559	174.336	-0.125	-0.179
-423.544	-157.990	0.045	0.003
-422.530	629.668	0.081	0.205
-421.515	-200.000	0.021	0.221
-420.500	-53.070	0.107	-0.049
-419.486	571.474	-0.135	0.327
-418.471	-14.707	-0.315	0.201
-417.457	-200.000	-0.048	0.216
-416.442	800.000	0.092	-0.328
-415.428	21.082	-0.198	0.160
-414.413	-142.226	-0.058	0.006
-413.398	-4.422	0.206	0.142
-412.384	311.121	-0.171	0.320
-411.369	-45.517	-0.048	0.023
-410.355	800.000	-0.062	-0.269
-409.340	800.000	0.025	-0.073
-408.325	-87.867	-0.284	0.085
-407.311	148.947	0.086	-0.115
-406.296	70.527	-0.118	0.121
-405.282	-150.696	-0.213	0.016
-404.267	-59.280	0.287	-0.123
-403.252	489.215	0.204	0.464
-402.238	-108.588	-0.137	-0.029
-401.223	48.224	-0.061	0.057
-400.209	800.000	-0.038	0.129
-399.194	-151.107	-0.107	-0.008
-398.179	-60.148	0.111	-0.047
-397.165	800.000	0.039	0.123
-396.150	113.592	0.044	0.053
-395.136	45.333	-0.240	0.220
-394.121	49.515	0.198	-0.186
-393.106	-200.000	0.049	-0.305
-392.092	492.617	-0.197	-0.448
-391.077	134.882	-0.108	-0.139
-390.063	-34.863	0.212	-0.115
-389.048	-200.000	0.016	0.204
-388.033	204.105	0.232	0.357
-387.019	160.441	-0.128	-0.178
-386.004	114.420	0.117	-0.141
-384.990	-111.553	-0.175	0.035
-383.975	-19.612	-0.183	0.113
-382.960	47.247	0.259	-0.240
-381.946	800.000	-0.024	-0.101
-380.931	71.202	-0.271	0.279
-379.917	114.109	0.145	0.175
-378.902	71.679	-0.340	0.351
-377.888	65.636	0.041	-0.042
-376.873	254.788	0.104	0.178
-375.858	192.543	-0.211	-0.317
-374.844	800.000	-0.127	-0.362
-373.829	-78.006	-0.151	-0.052
-372.815	607.421	0.202	-0.500
-371.800	-200.000	-0.014	-0.177
-370.785	735.465	0.158	-0.420
-369.771	-130.200	0.061	0.008
-368.756	-133.842	0.092	-0.011
-367.742	624.355	0.060	-0.151
-366.727	-129.253	-0.071	0.010
-365.712	-169.359	-0.182	0.007
-364.698	46.954	-0.131	0.121
-363.683	21.068	0.048	-0.039
-362.669	-200.000	-0.053	0.447
-361.654	90.752	0.210	0.234
-360.639	-99.138	0.399	-0.100
-359.625	556.252	0.077	-0.184
-358.610	655.130	-0.048	-0.123
-357.596	322.123	0.094	-0.178
-356.581	318.239	-0.090	-0.169
-355.566	-104.572	0.456	-0.105
-354.552	-45.665	-0.199	0.098
-353.537	-155.891	-0.153	-0.010
-352.523	72.324	-0.109	0.113
-351.508	-162.124	0.157	0.008
-350.493	-38.692	0.161	0.084
-349.479	103.554	0.135	-0.158
-348.464	800.000	-0.006	-0.023
-347.450	800.000	-0.082	-0.257
-346.435	-49.415	-0.144	0.068
-345.420	-129.590	-0.233	-0.032
-344.406	159.904	0.121	-0.167
-343.391	800.000	-0.033	-0.108
-342.377	53.779	0.221	-0.211
-341.362	777.588	-0.041	0.112
-340.348	800.000	-0.033	-0.110
-339.333	-200.000	0.015	0.295
-338.318	-11.884	0.375	0.244
-337.304	800.000	-0.019	-0.060
-336.289	800.000	0.062	0.204
-335.275	-200.000	0.006	0.138
-334.260	210.147	0.086	-0.133
-333.245	6.231	-0.083	-0.061
-332.231	161.441	0.007	0.010
-331.216	-110.019	-0.240	0.050
-330.202	800.000	-0.109	-0.393
-329.187	361.805	-0.103	-0.206
-328.172	118.053	-0.214	0.262
-327.158	56.473	0.139	-0.134
-326.143	-12.040	0.300	-0.195
-325.129	102.789	-0.157	0.182
-324.114	57.538	-0.180	-0.174
-323.099	37.255	0.067	-0.059
-322.085	36.383	0.248	-0.217
-321.070	450.878	-0.156	-0.342
-320.056	800.000	-0.076	-0.233
-319.041	-56.158	0.254	0.112
-318.026	-200.000	-0.009	-0.120
-317.012	376.872	-0.097	0.196
-315.997	-56.949	-0.152	0.066
-314.983	658.268	0.133	0.338
-313.968	-92.796	0.167	0.046
-312.953	627.622	0.120	0.301
-311.939	-90.219	0.354	0.102
-310.924	468.087	0.040	0.089
-309.910	-54.006	0.263	0.119
-308.895	299.380	0.098	0.179
-307.880	-114.511	0.150	-0.029
-306.866	457.941	-0.099	-0.218
-305.851	40.623	-0.123	0.110
-304.837	800.000	0.066	-0.210
-303.822	215.134	0.099	-0.156
-302.807	-97.840	-0.303	-0.078
-301.793	-101.207	-0.283	0.069
-300.778	-35.268	-0.140	0.075
-299.764	-91.083	-0.207	0.059
-298.749	800.000	-0.022	0.077
-297.735	-70.286	0.106	-0.040
-296.720	-79.947	0.263	-0.088
-295.705	-136.136	0.079	-0.009
-294.691	-57.280	0.276	-0.120
-293.676	381.654	0.123	-0.250
-292.662	-117.042	-0.148	0.027
-291.647	-72.733	0.116	0.042
-290.632	-104.700	0.240	-0.055
-289.618	-104.324	0.089	0.020
-288.603	-200.000	-0.018	-0.323
-287.589	-9.664	0.196	-0.129
-286.574	-25.251	0.091	0.054
-285.559	-42.644	-0.122	-0.062
-284.545	784.192	0.082	0.223
-283.530	-200.000	0.032	0.156
-282.516	540.207	-0.141	-0.332
-281.501	-106.650	-0.228	0.050
-280.486	-80.775	0.110	-0.036
-279.472	94.263	-0.261	-0.294
-278.457	-200.000	0.027	0.196
-277.443	188.482	0.015	-0.022
-276.428	-124.040	0.354	0.055
-275.413	185.288	0.132	0.194
-274.399	-175.153	-0.177	0.005
-273.384	204.721	0.206	0.316
-272.370	-200.000	-0.066	0.498
-271.355	-200.000	-0.023	0.113
-270.340	800.000	-0.154	-0.445
-269.326	-21.431	0.116	0.070
-268.311	136.503	-0.242	-0.313
-267.297	2.999	0.134	0.097
-266.282	-200.000	0.026	0.289
-265.267	1.693	-0.107	0.076
-264.253	60.574	0.084	-0.082
-263.238	395.833	0.163	-0.337
-262.224	90.537	-0.164	-0.182
-261.209	30.938	-0.311	-0.264
-260.195	-73.067	-0.224	0.081
-259.180	-27.814	-0.217	0.125
-258.165	-80.893	-0.115	-0.038
-257.151	54.965	-0.107	-0.102
-256.136	135.208	-0.045	0.058
-255.122	-126.219	0.379	-0.056
-254.107	30.283	0.324	0.274
-253.092	57.629	0.156	0.151
-252.078	-200.000	0.007	0.097
-251.063	-18.033	-0.388	-0.241
-250.049	125.869	-0.201	0.251
-249.034	-200.000	-0.050	0.333
-248.019	-104.298	0.273	0.063
-247.005	-126.696	-0.142	0.021
-245.990	201.314	0.051	0.078
-244.976	10.253	0.237	-0.178
-243.961	800.000	-0.123	-0.396
-242.946	-199.997	-0.361	0.002
-241.932	-80.261	-0.176	0.058
-240.917	349.036	0.169	0.329
-239.903	-195.602	-0.140	0.001
-238.888	800.000	-0.042	-0.145
-237.873	346.943	0.074	0.143
-236.859	-200.000	0.013	0.084
-235.844	-38.805	0.081	0.042
-234.830	178.775	-0.143	0.207
-233.815	147.342	-0.169	-0.225
-232.800	456.085	0.102	-0.224
-231.786	273.600	-0.083	-0.146
-230.771	-79.402	0.054	0.018
-229.757	6.640	-0.328	0.241
-228.742	624.999	-0.126	-0.314
-227.727	-98.137	-0.076	0.019
-226.713	135.325	0.226	0.290
-225.698	-200.000	-0.011	0.194
-224.684	26.585	0.179	0.148
-223.669	-105.318	0.260	-0.058
-222.655	-118.224	-0.147	-0.026
-221.640	399.576	0.024	-0.050
-220.625	800.000	0.067	-0.202
-219.611	-200.000	-0.001	0.249
-218.596	719.278	0.036	-0.094
-217.582	-200.000	0.028	0.310
-216.567	88.999	0.088	-0.097
-215.552	800.000	0.074	-0.264
-214.538	-2.829	-0.154	-0.106
-213.523	16.537	-0.072	0.056
-212.509	83.333	-0.033	0.035
-211.494	-200.000	0.009	0.064
-210.479	523.073	0.028	-0.065
-209.465	304.502	-0.005	-0.010
-208.450	-200.000	-0.012	0.254
-207.436	-7.682	0.203	0.136
-206.421	-87.616	-0.121	-0.036
-205.406	47.463	0.224	-0.206
-204.392	136.422	0.014	-0.018
-203.377	800.000	-0.080	0.277
-202.363	-102.171	-0.279	-0.066
-201.348	178.182	0.023	-0.033
-200.333	-119.793	-0.301	-0.051
-199.319	-200.000	0.079	0.359
-198.304	-48.885	0.281	-0.133
-197.290	100.151	0.070	-0.080
-196.275	132.232	0.161	0.204
-195.260	-119.785	0.340	0.058
-194.246	206.026	0.093	-0.143
-193.231	-200.000	-0.002	-0.059
-192.217	182.271	0.073	-0.106
-191.202	800.000	0.091	-0.339
-190.187	800.000	0.056	0.183
-189.173	-21.632	0.226	0.136
-188.158	-39.022	-0.103	-0.054
-187.144	42.958	0.104	-0.093
-186.129	-200.000	0.041	-0.251
-185.114	-90.175	0.076	-0.022
-184.100	-78.746	-0.355	-0.119
-183.085	-200.000	0.026	0.145
-182.071	156.364	0.179	0.243
-181.056	126.531	-0.036	0.045
-180.042	800.000	0.018	-0.069
-179.027	-134.459	-0.162	0.020
-178.012	-200.000	-0.113	-0.488
-176.998	-70.863	0.130	0.048
-175.983	-85.705	-0.265	-0.081
-174.969	-133.247	0.075	0.009
-173.954	775.916	-0.066	0.177
-172.939	-200.000	0.018	-0.109
-171.925	237.508	0.144	0.236
-170.910	-19.848	-0.165	0.101
-169.896	-200.000	-0.050	-0.333
-168.881	-159.505	0.129	0.007
-167.866	-200.000	-0.007	0.110
-166.852	800.000	-0.105	0.439
-165.837	390.297	-0.041	0.083
-164.823	-200.000	-0.012	-0.248
-163.808	70.373	-0.140	-0.143
-162.793	-27.211	-0.408	0.234
-161.779	-200.000	-0.001	0.186
-160.764	701.042	0.037	-0.095
-159.750	-182.440	0.244	0.004
-158.735	-65.973	-0.137	-0.054
-157.720	-116.115	-0.151	0.028
-156.706	242.966	0.132	0.219
-155.691	152.525	-0.109	0.146
-154.677	175.307	-0.095	0.136
-153.662	-200.000	-0.041	-0.203
-152.647	236.712	-0.100	-0.163
-151.633	-114.493	-0.292	0.055
-150.618	-190.410	0.335	-0.004
-149.604	-200.000	0.042	0.199
-148.589	4.057	0.086	-0.062
-147.574	473.003	0.110	0.245
-146.560	76.531	0.119	0.124
-145.545	373.414	-0.017	-0.035
-144.531	-200.000	0.001	-0.057
-143.516	213.564	0.084	0.132
-142.502	15.030	0.150	0.116
-141.487	800.000	0.014	-0.038
-140.472	5.776	-0.255	0.186
-139.458	80.728	0.027	0.029
-138.443	-73.565	0.253	0.091
-137.429	678.249	-0.112	0.286
-136.414	-46.401	0.049	-0.024
-135.399	217.681	0.155	-0.244
-134.385	320.932	-0.103	0.193
-133.370	561.230	0.138	-0.328
-132.356	800.000	0.065	0.249
-131.341	-64.967	0.122	-0.048
-130.326	-200.000	-0.001	0.053
-129.312	409.573	-0.042	-0.089
-128.297	800.000	0.028	-0.096
-127.283	-55.745	0.328	0.144
-126.268	-122.756	0.354	0.056
-125.253	-16.809	0.132	-0.082
-124.239	800.000	0.068	0.240
-123.224	-200.000	-0.025	0.163
-122.210	-157.165	0.308	-0.018
-121.195	-75.505	0.159	0.056
-120.180	-200.000	0.014	-0.328
-119.166	-50.889	0.338	-0.156
-118.151	3.014	0.125	-0.089
-117.137	5.222	0.144	-0.105
-116.122	-200.000	-0.049	0.260
-115.107	800.000	-0.100	0.286
-114.093	268.063	-0.081	0.140
-113.078	-29.758	0.393	-0.221
-112.064	-97.969	0.225	-0.057
-111.049	-62.040	-0.352	-0.145
-110.034	-176.512	0.308	0.008
-109.020	-164.178	0.183	0.008
-108.005	800.000	-0.072	0.259
-106.991	-180.776	-0.438	-0.009
-105.976	53.332	-0.183	0.173
-104.962	-50.079	0.193	0.090
-103.947	-200.000	0.054	-0.274
-102.932	-119.994	0.174	-0.029
-101.918	38.519	-0.185	0.162
-100.903	385.227	-0.023	0.046
-99.889	-52.993	0.225	-0.102
-98.874	-200.000	-0.049	-0.225
-97.859	-42.640	-0.474	0.237
-96.845	220.167	0.138	-0.217
-95.830	-54.886	0.140	0.062
-94.816	-133.877	-0.096	-0.012
-93.801	-2.665	-0.059	-0.041
-92.786	0.412	0.357	-0.250
-91.772	-75.078	0.205	0.072
-90.757	-101.630	-0.080	0.019
-89.743	151.138	-0.239	-0.320
-88.728	442.666	-0.092	-0.199
-87.713	-25.068	0.106	0.062
-86.699	-118.281	0.115	-0.020
-85.684	-132.312	0.283	0.036
-84.670	-26.004	0.238	-0.137
-83.655	261.072	-0.116	0.198
-82.640	-200.000	-0.007	-0.309
-81.626	-116.362	-0.245	-0.045
-80.611	208.042	0.125	-0.192
-79.597	647.622	0.064	-0.160
-78.582	91.997	0.087	-0.097
-77.567	800.000	0.038	-0.132
-76.553	98.035	0.137	0.154
-75.538	276.688	-0.106	0.185
-74.524	13.257	-0.160	0.122
-73.509	328.013	-0.083	0.157
-72.494	-184.367	0.332	-0.005
-71.480	-123.820	-0.152	0.024
-70.465	-200.000	-0.057	0.317
-69.451	-200.000	0.017	0.271
-68.436	-200.000	-0.028	0.121
-67.422	-127.791	0.066	0.009
-66.407	-105.848	0.378	-0.084
-65.392	-200.000	-0.010	-0.259
-64.378	-54.146	0.352	0.157
-63.363	-118.252	-0.094	-0.016
-62.349	-153.351	0.306	-0.021
-61.334	103.221	-0.781	-0.899
-60.319	112.595	0.576	0.684
-59.305	800.000	-0.333	-1.071
-58.290	800.000	0.456	1.341
-57.276	407.480	0.802	1.665
-56.261	-200.000	108.004	589.889
-55.246	452.167	1472.217	3194.472
-54.232	146.838	2664.820	3516.202
-53.217	100.148	2292.529	2609.313
-52.203	38.902	1904.855	1670.123
-51.188	33.026	1692.919	1439.637
-50.173	30.281	1650.067	1382.714
-49.159	49.192	1702.719	1570.451
-48.144	49.769	1717.938	1588.792
-47.130	32.527	1676.431	1421.621
-46.115	29.851	1661.400	1388.767
-45.100	29.753	1656.374	1383.778
-44.086	29.707	1653.990	1381.388
-43.071	29.632	1651.562	1378.743
-42.057	29.538	1649.082	1375.922
-41.042	29.652	1646.997	1374.976
-40.027	29.703	1644.695	1373.375
-39.013	29.637	1642.946	1371.371
-37.998	29.613	1641.367	1369.821
-36.984	29.689	1640.018	1369.202
-35.969	29.832	1638.375	1368.838
-34.954	29.783	1637.306	1367.527
-33.940	29.773	1635.553	1365.934
-32.925	29.792	1633.818	1364.568
-31.911	29.745	1632.172	1362.793
-30.896	29.866	1629.723	1361.585
-29.881	29.655	1628.691	1359.115
-28.867	29.703	1627.151	1358.134
-27.852	29.702	1625.887	1357.013
-26.838	29.671	1624.289	1355.402
-25.823	29.830	1622.626	1355.121
-24.809	29.770	1621.564	1353.743
-23.794	29.721	1620.154	1352.156
-22.779	29.775	1618.345	1350.985
-21.765	29.769	1616.943	1349.715
-20.750	29.758	1614.838	1347.826
-19.736	29.730	1613.916	1346.797
-18.721	29.786	1612.423	1345.907
-17.706	29.782	1611.081	1344.708
-16.692	29.813	1608.739	1342.919
-15.677	29.802	1608.158	1342.302
-14.663	29.703	1607.117	1340.662
-13.648	29.780	1605.311	1339.661
-12.633	29.771	1603.451	1337.989
-11.619	29.797	1602.318	1337.182
-10.604	29.762	1601.211	1335.949
-9.590	29.763	1599.785	1334.719
-8.575	29.844	1598.244	1333.964
-7.560	29.785	1597.531	1332.891
-6.546	29.787	1596.054	1331.614
-5.531	29.761	1595.252	1330.710
-4.517	29.725	1593.682	1329.090
-3.502	29.711	1592.923	1328.298
-2.487	29.900	1590.254	1327.379
-1.473	29.489	1579.334	1315.285
-0.458	26.620	1560.403	1279.229
0.556	21.258	1561.135	1246.486
1.571	18.936	1584.838	1248.459
2.586	18.616	1598.114	1256.461
3.600	17.115	1545.167	1204.090
4.615	9.589	1435.375	1068.677
5.629	1.813	1370.829	971.121
6.644	0.258	1362.341	955.164
7.659	0.108	1360.787	953.044
8.673	0.118	1360.225	952.628
9.688	0.016	1358.277	950.530
10.702	-0.048	1354.838	947.636
11.717	3.678	1360.596	975.143
12.731	11.993	1374.446	1037.834
13.746	17.259	1380.833	1075.989
14.761	17.282	1380.053	1075.430
15.775	16.301	1377.166	1066.893
16.790	15.125	1374.917	1057.631
17.804	14.364	1372.113	1050.586
18.819	14.146	1370.730	1048.056
19.834	13.792	1369.924	1045.120
20.848	13.526	1368.381	1042.175
21.863	13.262	1367.041	1039.403
22.877	13.275	1365.759	1038.417
23.892	13.151	1365.014	1036.986
24.907	13.066	1364.116	1035.675
25.921	13.093	1363.451	1035.247
26.936	13.289	1361.777	1035.114
27.950	13.222	1360.984	1034.001
28.965	13.277	1360.410	1033.815
29.980	13.394	1359.436	1033.718
30.994	13.397	1358.506	1032.937
32.009	13.405	1357.721	1032.299
33.023	13.462	1356.601	1031.711
34.038	13.367	1355.605	1030.270
35.053	13.344	1354.611	1029.277
36.067	13.241	1353.342	1027.584
37.082	13.427	1352.498	1028.005
38.096	13.413	1351.344	1026.950
39.111	13.403	1350.250	1025.970
40.126	13.306	1349.812	1024.943
41.140	13.095	1349.313	1023.167
42.155	13.177	1348.538	1022.996
43.169	13.154	1348.369	1022.636
44.184	13.183	1347.793	1022.289
45.199	13.241	1347.760	1022.531
46.213	13.156	1347.301	1021.568
47.228	13.146	1346.229	1020.601
48.242	13.296	1344.601	1020.204
49.257	13.254	1343.629	1019.113
50.271	13.294	1342.195	1018.185
51.286	13.261	1340.681	1016.743
52.301	13.246	1339.564	1015.711
53.315	13.263	1338.424	1014.862
54.330	13.206	1337.517	1013.739
55.344	13.279	1336.019	1012.960
56.359	13.178	1335.476	1011.837
57.374	13.179	1334.671	1011.146
58.388	13.082	1333.799	1009.800
59.403	13.016	1333.753	1009.272
60.417	13.093	1332.426	1008.651
61.432	13.108	1331.121	1007.667
62.447	13.140	1330.405	1007.232
63.461	12.955	1329.536	1005.356
64.476	13.024	1328.183	1004.664
65.490	13.110	1327.040	1004.231
66.505	13.076	1325.484	1002.763
67.520	13.086	1324.038	1001.635
68.534	13.111	1323.083	1000.979
69.549	13.044	1322.424	999.986
70.563	13.109	1321.100	999.290
71.578	13.076	1319.875	998.075
72.593	12.984	1319.235	996.945
73.607	12.895	1318.844	996.023
74.622	12.957	1317.833	995.545
75.636	12.941	1317.325	994.979
76.651	13.103	1316.061	994.915
77.666	12.956	1315.688	993.659
78.680	13.020	1314.569	993.109
79.695	13.144	1313.888	993.251
80.709	13.160	1312.588	992.280
81.724	13.101	1312.572	991.822
82.739	13.175	1311.332	991.242
83.753	13.207	1310.636	990.824
84.768	13.264	1308.952	989.802
85.782	13.323	1308.370	989.628
86.797	13.342	1306.500	988.237
87.812	13.236	1305.821	987.003
88.826	13.293	1304.496	986.258
89.841	13.255	1304.121	985.656
90.855	13.298	1302.910	984.909
91.870	13.285	1302.182	984.196
92.884	13.266	1301.144	983.215
93.899	13.398	1300.151	983.163
94.914	13.404	1299.730	982.788
95.928	13.342	1298.626	981.499
96.943	13.481	1297.179	981.146
97.957	13.364	1296.838	980.104
98.972	13.391	1295.671	979.298
99.987	13.293	1294.961	978.096
101.001	13.323	1294.014	977.472
102.016	13.287	1292.828	976.276
103.030	13.450	1292.316	976.764
104.045	13.312	1291.029	974.889
105.060	13.386	1289.581	974.149
106.074	13.264	1288.895	972.827
107.089	13.143	1287.090	970.667
108.103	13.063	1286.413	969.600
109.118	13.156	1284.904	968.920
110.133	13.196	1283.791	968.229
111.147	13.096	1282.218	966.374
112.162	13.230	1280.641	965.884
113.176	13.193	1280.162	965.218
114.191	13.238	1279.185	964.658
115.206	13.238	1277.640	963.408
116.220	13.266	1276.634	962.732
117.235	13.281	1275.566	961.925
118.249	13.197	1275.159	961.046
119.264	13.217	1273.787	960.040
120.279	13.177	1272.676	958.887
121.293	13.132	1271.748	957.844
122.308	13.196	1270.019	956.826
123.322	13.172	1269.129	955.935
124.337	13.203	1268.365	955.452
125.352	13.217	1266.791	954.261
126.366	13.166	1265.850	953.172
127.381	13.115	1264.942	952.112
128.395	13.157	1263.913	951.494
129.410	13.137	1262.958	950.577
130.424	13.332	1261.617	950.605
131.439	13.295	1261.175	949.976
132.454	13.328	1260.133	949.296
133.468	13.274	1259.388	948.342
134.483	13.248	1258.469	947.416
135.497	13.297	1257.161	946.629
136.512	13.124	1256.526	945.078
137.527	13.233	1255.040	944.496
138.541	13.348	1253.305	943.763
139.556	13.289	1252.513	942.752
140.570	13.334	1251.079	941.840
141.585	13.269	1249.928	940.525
142.600	13.417	1248.753	940.395
143.614	13.341	1248.225	939.487
144.629	13.377	1247.239	938.864
145.643	13.309	1245.758	937.282
146.658	13.328	1244.255	936.174
147.673	13.359	1243.131	935.419
148.687	13.405	1242.120	934.837
149.702	13.355	1240.595	933.324
150.716	13.271	1239.538	931.973
151.731	13.341	1238.338	931.382
152.746	13.382	1237.061	930.572
153.760	13.268	1236.384	929.338
154.775	13.487	1234.893	929.363
155.789	13.408	1234.114	928.252
156.804	13.465	1233.063	927.702
157.819	13.596	1232.115	927.636
158.833	13.595	1231.185	926.850
159.848	13.498	1230.360	925.606
160.862	13.651	1228.993	925.348
161.877	13.547	1227.905	923.864
162.892	13.391	1227.220	922.400
163.906	13.462	1226.430	922.123
164.921	13.486	1225.123	921.188
165.935	13.574	1224.150	920.865
166.950	13.649	1223.377	920.621
167.964	13.474	1223.057	919.326
168.979	13.646	1221.763	919.223
169.994	13.511	1221.251	918.013
171.008	13.526	1220.476	917.432
172.023	13.650	1219.633	917.401
173.037	13.626	1219.192	916.856
174.052	13.625	1218.363	916.147
175.067	13.628	1217.047	915.089
176.081	13.521	1216.339	913.888
177.096	13.615	1214.883	913.232
178.110	13.584	1213.928	912.259
179.125	13.629	1212.597	911.428
180.140	13.614	1211.891	910.735
181.154	13.624	1210.400	909.591
182.169	13.701	1209.115	908.965
183.183	13.653	1208.031	907.804
184.198	13.626	1206.945	906.762
185.213	13.721	1205.743	906.299
186.227	13.697	1204.683	905.292
187.242	13.829	1203.566	905.093
188.256	13.852	1202.681	904.472
189.271	13.809	1201.823	903.509
190.286	13.732	1200.884	902.306
191.300	13.642	1200.165	901.196
192.315	13.616	1199.668	900.604
193.329	13.630	1199.353	900.364
194.344	13.706	1198.432	900.003
195.359	13.684	1197.943	899.439
196.373	13.796	1196.916	899.192
197.388	13.809	1196.578	898.930
198.402	13.932	1195.591	898.775
199.417	13.982	1195.187	898.665
200.432	14.002	1194.187	897.941
201.446	14.041	1193.569	897.605
202.461	14.093	1192.200	896.775
203.475	14.023	1191.271	895.620
204.490	14.039	1189.897	894.596
205.504	14.009	1188.968	893.655
206.519	13.964	1187.817	892.473
207.534	14.029	1186.672	891.879
208.548	14.096	1185.722	891.445
209.563	13.973	1185.352	890.433
210.577	13.955	1184.592	889.684
211.592	14.084	1183.624	889.569
212.607	14.174	1182.155	888.867
213.621	14.146	1181.799	888.372
214.636	14.114	1180.888	887.439
215.650	14.133	1180.049	886.829
216.665	14.168	1179.148	886.259
217.680	14.265	1178.146	885.945
218.694	14.288	1177.162	885.249
219.709	14.279	1176.901	884.926
220.723	14.156	1176.081	883.580
221.738	14.195	1175.422	883.213
222.753	14.269	1174.441	882.791
223.767	14.302	1174.015	882.566
224.782	14.287	1173.283	881.856
225.796	14.413	1172.594	881.928
226.811	14.482	1171.904	881.696
227.826	14.466	1170.843	880.734
228.840	14.316	1170.570	879.663
229.855	14.461	1169.599	879.617
230.869	14.358	1168.664	878.295
231.884	14.305	1168.319	877.676
232.899	14.345	1167.279	877.032
233.913	14.246	1167.042	876.252
234.928	14.389	1165.560	875.812
235.942	14.262	1165.157	874.765
236.957	14.307	1164.307	874.290
237.972	14.272	1163.496	873.419
238.986	14.281	1163.049	873.054
240.001	14.370	1162.320	872.894
241.015	14.453	1161.031	872.284
242.030	14.529	1160.305	872.059
243.045	14.441	1159.616	871.002
244.059	14.467	1159.140	870.705
245.074	14.464	1158.037	869.783
246.088	14.587	1157.407	869.875
247.103	14.526	1156.386	868.710
248.117	14.582	1155.655	868.375
249.132	14.642	1155.258	868.313
250.147	14.773	1154.142	868.081
251.161	14.914	1153.620	868.344
252.176	14.855	1153.008	867.497
253.190	14.767	1152.351	866.471
254.205	15.035	1151.733	867.317
255.220	14.737	1151.500	865.521
256.234	14.833	1150.375	865.094
257.249	14.937	1149.981	865.261
258.263	14.984	1149.418	865.005
259.278	14.843	1148.604	863.587
260.293	14.967	1148.070	863.752
261.307	14.956	1147.483	863.176
262.322	14.909	1147.006	862.499
263.336	15.061	1146.326	862.692
264.351	15.077	1145.358	861.971
265.366	15.103	1145.044	861.793
266.380	15.052	1144.150	860.780
267.395	15.039	1143.477	860.133
268.409	14.987	1142.659	859.174
269.424	14.985	1142.148	858.702
270.439	15.040	1141.464	858.395
271.453	15.165	1140.334	858.109
272.468	15.078	1139.999	857.337
273.482	15.064	1139.186	856.575
274.497	15.047	1138.854	856.165
275.512	14.971	1138.055	855.097
276.526	15.073	1137.332	854.999
277.541	15.060	1136.784	854.449
278.555	15.078	1135.900	853.800
279.570	15.209	1134.986	853.701
280.585	15.349	1133.758	853.417
281.599	15.355	1132.919	852.741
282.614	15.202	1132.182	851.334
283.628	15.214	1131.040	850.462
284.643	15.274	1130.307	850.136
285.657	15.322	1129.172	849.453
286.672	15.328	1128.499	848.901
287.687	15.239	1127.886	847.917
288.701	15.309	1126.878	847.434
289.716	15.339	1126.176	846.984
290.730	15.395	1125.359	846.576
291.745	15.387	1124.974	846.172
292.760	15.467	1124.217	845.929
293.774	15.489	1123.872	845.707
294.789	15.362	1123.579	844.772
295.803	15.425	1122.505	844.207
296.818	15.315	1122.168	843.325
297.833	15.430	1121.131	843.048
298.847	15.451	1120.073	842.285
299.862	15.455	1119.522	841.815
300.876	15.438	1118.574	840.943
301.891	15.552	1118.076	841.067
302.906	15.612	1117.263	840.680
303.920	15.561	1116.954	840.119
304.935	15.586	1116.395	839.746
305.949	15.679	1115.462	839.438
306.964	15.706	1114.590	838.842
307.979	15.667	1113.701	837.905
308.993	15.613	1113.468	837.386
310.008	15.655	1112.672	836.923
311.022	15.776	1111.622	836.659
312.037	15.662	1110.891	835.466
313.052	15.692	1110.083	834.937
314.066	15.689	1108.948	833.991
315.081	15.558	1108.137	832.660
316.095	15.670	1107.328	832.533
317.110	15.642	1106.871	831.979
318.125	15.674	1106.186	831.546
319.139	15.584	1105.672	830.643
320.154	15.673	1104.602	830.204
321.168	15.772	1103.757	829.985
322.183	15.673	1103.524	829.246
323.197	15.652	1103.173	828.807
324.212	15.773	1102.317	828.689
325.227	15.868	1101.935	828.792
326.241	15.829	1100.667	827.576
327.256	15.911	1100.288	827.621
328.270	15.750	1099.650	826.275
329.285	15.782	1098.898	825.792
330.300	15.829	1097.800	825.125
331.314	15.813	1096.563	824.048
332.329	15.868	1095.814	823.679
333.343	15.846	1094.951	822.851
334.358	15.917	1094.181	822.546
335.373	15.949	1093.786	822.332
336.387	16.057	1092.651	821.931
337.402	15.867	1092.332	820.692
338.416	16.000	1091.645	820.753
339.431	16.051	1090.796	820.288
340.446	16.183	1090.210	820.416
341.460	16.084	1089.636	819.432
342.475	16.168	1088.648	819.027
343.489	16.106	1087.923	818.105
344.504	16.269	1086.788	817.968
345.519	16.196	1086.176	817.083
346.533	16.202	1085.422	816.473
347.548	16.243	1084.942	816.236
348.562	16.331	1083.640	815.613
349.577	16.243	1082.722	814.422
350.592	16.256	1082.180	814.008
351.606	16.208	1081.502	813.191
352.621	16.173	1081.051	812.614
353.635	16.181	1080.169	811.918
354.650	16.200	1079.212	811.220
355.665	16.293	1079.000	811.434
356.679	16.254	1078.091	810.491
357.694	16.378	1077.350	810.459
358.708	16.249	1077.120	809.593
359.723	16.337	1076.244	809.287
360.738	16.278	1075.937	808.701
361.752	16.391	1075.044	808.500
362.767	16.347	1074.952	808.148
363.781	16.324	1074.324	807.495
364.796	16.448	1073.357	807.285
365.810	16.506	1072.848	807.111
366.825	16.579	1072.218	806.914
367.840	16.580	1071.555	806.349
368.854	16.591	1071.118	806.001
369.869	16.616	1070.437	805.537
370.883	16.600	1069.526	804.700
371.898	16.587	1068.971	804.151
372.913	16.606	1068.288	803.656
373.927	16.614	1067.620	803.120
374.942	16.636	1067.115	802.777
375.956	16.712	1066.456	802.566
376.971	16.754	1065.887	802.265
377.986	16.738	1065.371	801.731
379.000	16.764	1064.958	801.475
380.015	16.766	1064.539	801.097
381.029	16.903	1063.478	800.877
382.044	16.764	1063.392	800.082
383.059	16.769	1062.327	799.233
384.073	16.862	1061.414	798.916
385.088	16.828	1060.398	797.919
386.102	16.903	1059.156	797.266
387.117	16.923	1058.434	796.746
388.132	16.737	1058.200	795.629
389.146	16.781	1056.916	794.797
390.161	16.802	1056.532	794.535
391.175	16.780	1055.638	793.691
392.190	16.910	1055.229	793.920
393.205	16.856	1054.500	793.048
394.219	16.854	1053.613	792.303
395.234	16.952	1052.545	791.889
396.248	16.829	1051.819	790.696
397.263	16.814	1050.887	789.856
398.278	16.770	1050.197	789.062
399.292	16.937	1049.257	789.064
400.307	16.894	1048.271	788.055
401.321	16.851	1048.054	787.619
402.336	16.885	1047.526	787.311
403.350	16.894	1046.711	786.672
404.365	16.906	1046.291	786.343
405.380	16.946	1045.752	786.055
406.394	16.874	1044.836	784.961
407.409	17.047	1043.710	784.845
408.423	17.110	1043.310	784.766
409.438	17.137	1042.410	784.146
410.453	17.150	1041.658	783.569
411.467	17.276	1041.339	783.844
412.482	17.187	1040.565	782.781
413.496	17.201	1039.858	782.244
414.511	17.319	1039.069	782.123
415.526	17.333	1038.808	781.923
416.540	17.378	1037.940	781.409
417.555	17.295	1038.097	781.075
418.569	17.329	1037.465	780.686
419.584	17.401	1036.725	780.389
420.599	17.301	1036.398	779.615
421.613	103.096	1322.255	1468.325
422.628	94.498	1363.886	1468.423
