DTS Sentinel unit serial number:	SN413079Multiplexer serial number:	ORYXHardware model number:	OX4-SRSoftware version number:	ORYX F/W v4.00 Oryx Data Collector v3.7.2.0data status	okinstallation	princeton_trtdifferential loss correction	single-endedforward channel	channel 2reverse channel	N/Adate	2019/09/12time	15:41:11forward acquisition time	60.00reverse acquisition time	0.00gamma	496.2192k internal	0.2303k external	0.2303temperature offset calibration	1.0102default loss term (dB/km)	0.3790temperature slope calibration	1.0000multiplexer offset coefficient	1.0000multiplexer slope coefficient	1.0000fibre end	0.00T internal ref (°C)	40.09T ext. ref 1 (°C)	2.47T ext. ref 2 (°C)	32.72length (m)	temperature (°C)	Stokes	anti-Stokes-747.200	-143.735	-0.338	-0.033
-746.185	800.000	-0.170	0.590
-745.171	614.677	0.088	0.224
-744.156	800.000	-0.085	0.275
-743.142	-59.143	0.330	-0.145
-742.127	-200.000	-0.071	0.540
-741.112	261.532	-0.199	0.351
-740.098	-77.329	-0.370	0.131
-739.083	-168.016	-0.212	0.008
-738.069	-200.000	0.017	0.232
-737.054	-3.833	-0.164	0.116
-736.039	-45.083	-0.110	0.056
-735.025	58.955	-0.242	0.242
-734.010	-29.625	0.278	-0.162
-732.996	80.989	-0.019	-0.021
-731.981	67.210	0.209	-0.217
-730.966	-81.099	-0.389	0.131
-729.952	-83.141	-0.605	-0.198
-728.937	-200.000	-0.037	-0.245
-727.923	-200.000	0.034	-0.158
-726.908	-200.000	-0.016	-0.135
-725.894	162.849	-0.133	-0.190
-724.879	-200.000	0.012	0.156
-723.864	-99.265	0.348	0.089
-722.850	-120.458	-0.357	0.062
-721.835	24.318	0.136	-0.115
-720.821	69.179	0.163	-0.171
-719.806	-200.000	0.032	-0.219
-718.791	228.560	-0.053	-0.088
-717.777	-200.000	0.002	0.218
-716.762	-45.362	-0.164	-0.083
-715.748	591.334	0.121	0.304
-714.733	382.973	-0.048	0.101
-713.718	800.000	0.050	0.194
-712.704	-132.310	-0.097	-0.013
-711.689	-88.825	-0.182	0.055
-710.675	-200.000	-0.021	0.251
-709.660	-178.630	0.185	-0.004
-708.645	94.385	-0.091	0.105
-707.631	-74.489	-0.244	0.089
-706.616	-39.772	-0.158	-0.084
-705.602	14.351	-0.157	-0.125
-704.587	-117.945	0.090	-0.016
-703.572	-200.000	-0.030	-0.142
-702.558	-200.000	-0.010	0.138
-701.543	-73.905	0.157	-0.058
-700.529	-200.000	-0.020	-0.111
-699.514	382.874	-0.023	-0.049
-698.499	800.000	-0.071	0.305
-697.485	800.000	-0.019	-0.079
-696.470	-200.000	0.026	0.299
-695.456	-101.849	0.197	-0.049
-694.441	-102.653	0.461	0.112
-693.426	-77.255	0.308	0.109
-692.412	374.374	-0.076	0.158
-691.397	219.043	-0.056	-0.092
-690.383	179.395	-0.151	0.224
-689.368	164.229	-0.076	0.109
-688.354	3.223	0.065	0.048
-687.339	120.310	0.064	0.081
-686.324	-200.000	0.355	0.001
-685.310	-125.874	-0.135	-0.021
-684.295	52.787	-0.154	-0.149
-683.281	-200.000	-0.035	0.203
-682.266	66.954	-0.145	0.151
-681.251	-113.992	-0.271	0.053
-680.237	77.209	0.211	0.228
-679.222	112.298	-0.134	-0.164
-678.208	3.331	0.037	0.028
-677.193	650.903	-0.038	-0.100
-676.178	-102.761	-0.181	-0.044
-675.164	-200.000	0.003	-0.129
-674.149	800.000	0.032	0.112
-673.135	-0.693	-0.109	0.079
-672.120	514.957	-0.066	0.156
-671.105	-68.508	0.149	-0.059
-670.091	800.000	0.060	0.233
-669.076	-119.121	-0.545	-0.097
-668.062	74.026	-0.148	-0.158
-667.047	-200.000	0.005	-0.084
-666.032	-98.634	-0.069	-0.018
-665.018	-24.003	-0.071	0.043
-664.003	43.458	-0.174	-0.162
-662.989	-11.023	-0.246	0.165
-661.974	92.818	0.277	-0.318
-660.959	-173.530	-0.324	0.010
-659.945	233.423	-0.283	0.472
-658.930	38.850	0.046	-0.042
-657.916	-160.576	-0.091	-0.005
-656.901	-105.466	0.264	-0.061
-655.886	395.186	-0.079	-0.167
-654.872	-52.100	0.142	-0.067
-653.857	-20.212	-0.273	-0.171
-652.843	-92.876	0.307	-0.087
-651.828	83.919	0.029	0.032
-650.814	-2.157	-0.180	-0.128
-649.799	191.006	0.121	-0.185
-648.784	157.736	-0.052	-0.074
-647.770	-43.872	-0.294	0.150
-646.755	701.861	-0.032	-0.086
-645.741	126.303	-0.171	-0.219
-644.726	-165.936	0.134	-0.006
-643.711	53.439	-0.288	-0.281
-642.697	329.220	-0.106	0.206
-641.682	73.915	0.077	0.082
-640.668	29.620	-0.284	-0.245
-639.653	800.000	0.053	-0.199
-638.638	136.261	0.134	0.177
-637.624	-70.140	-0.343	0.132
-636.609	-150.203	0.183	0.014
-635.595	-89.869	0.110	0.033
-634.580	63.768	-0.048	-0.049
-633.565	377.521	-0.175	-0.362
-632.551	-200.000	-0.002	0.194
-631.536	-115.695	-0.229	-0.044
-630.522	162.251	0.079	0.113
-629.507	-50.861	-0.216	0.103
-628.492	-130.317	-0.168	-0.023
-627.478	-30.152	0.110	0.063
-626.463	93.911	-0.194	0.223
-625.449	271.413	0.106	-0.189
-624.434	-99.767	0.286	-0.073
-623.419	-106.057	-0.232	0.053
-622.405	-63.779	-0.215	-0.089
-621.390	-200.000	-0.048	0.286
-620.376	-129.706	0.306	0.043
-619.361	-62.959	0.059	-0.025
-618.346	76.758	-0.190	0.204
-617.332	-200.000	-0.023	-0.139
-616.317	-121.539	-0.270	-0.045
-615.303	63.963	0.102	0.104
-614.288	28.430	-0.128	-0.110
-613.273	-200.000	0.031	-0.333
-612.259	-98.452	0.104	0.027
-611.244	116.900	-0.217	-0.270
-610.230	800.000	-0.024	0.082
-609.215	-200.000	0.046	-0.303
-608.201	-53.417	-0.055	-0.026
-607.186	84.590	-0.071	0.079
-606.171	78.197	-0.233	0.252
-605.157	6.688	0.046	0.035
-604.142	122.091	0.104	-0.131
-603.128	-115.998	-0.089	0.017
-602.113	141.020	0.078	-0.105
-601.098	162.266	-0.082	0.117
-600.084	-36.673	0.137	-0.075
-599.069	-26.076	-0.088	-0.053
-598.055	-39.251	0.089	0.048
-597.040	-200.000	0.041	-0.234
-596.025	800.000	0.020	-0.061
-595.011	-60.221	-0.266	0.115
-593.996	8.285	-0.176	0.134
-592.982	800.000	0.058	-0.225
-591.967	-22.148	-0.143	-0.088
-590.952	294.801	0.133	-0.246
-589.938	-200.000	-0.042	0.326
-588.923	-102.185	0.178	0.043
-587.909	218.021	0.099	-0.160
-586.894	79.444	0.066	0.072
-585.879	800.000	-0.059	0.168
-584.865	-200.000	-0.023	-0.233
-583.850	133.704	-0.165	-0.216
-582.836	-200.000	-0.011	0.303
-581.821	122.228	-0.113	-0.143
-580.806	449.364	-0.106	0.237
-579.792	-200.000	-0.054	0.412
-578.777	-157.099	-0.373	-0.023
-577.763	382.516	0.287	0.598
-576.748	800.000	0.025	-0.105
-575.733	313.915	-0.012	-0.023
-574.719	209.630	0.093	-0.147
-573.704	482.474	0.069	0.159
-572.690	-200.000	0.021	-0.288
-571.675	-185.228	0.102	0.002
-570.661	800.000	-0.036	-0.137
-569.646	-78.499	0.212	-0.074
-568.631	-168.251	0.326	0.013
-567.617	-108.160	0.108	0.024
-566.602	57.680	0.091	-0.090
-565.588	662.519	-0.081	-0.212
-564.573	-161.060	0.336	-0.018
-563.558	175.664	-0.102	0.149
-562.544	487.571	-0.025	-0.057
-561.529	-111.880	-0.139	0.028
-560.515	-126.162	-0.445	0.067
-559.500	642.992	0.176	0.453
-558.485	-169.848	0.473	0.017
-557.471	-200.000	0.015	-0.609
-556.456	-104.945	-0.246	-0.057
-555.442	199.839	-0.095	-0.147
-554.427	46.029	-0.099	0.092
-553.412	-200.000	-0.002	0.278
-552.398	-200.000	0.003	-0.224
-551.383	397.400	0.049	-0.104
-550.369	50.208	-0.274	-0.262
-549.354	-91.856	-0.185	-0.053
-548.339	102.405	-0.224	0.265
-547.325	23.390	-0.395	0.328
-546.310	800.000	-0.001	0.002
-545.296	-200.000	-0.059	-0.310
-544.281	800.000	-0.112	0.348
-543.266	180.453	0.156	-0.231
-542.252	800.000	0.042	0.157
-541.237	61.569	-0.208	0.209
-540.223	76.392	-0.202	0.216
-539.208	-52.298	-0.095	-0.044
-538.193	85.059	-0.079	-0.088
-537.179	800.000	-0.060	-0.194
-536.164	-22.416	0.242	-0.148
-535.150	321.656	-0.115	0.221
-534.135	91.729	-0.124	-0.140
-533.121	-200.000	0.016	-0.150
-532.106	-200.000	0.024	-0.351
-531.091	-3.410	-0.292	-0.205
-530.077	-130.817	-0.086	0.012
-529.062	33.035	0.402	-0.352
-528.048	81.475	-0.115	-0.126
-527.033	-200.000	0.027	0.331
-526.018	-73.005	0.143	0.053
-525.004	344.840	0.168	0.333
-523.989	78.719	0.078	0.084
-522.975	-200.000	-0.005	-0.222
-521.960	0.312	0.128	-0.093
-520.945	171.263	-0.096	-0.139
-519.931	-200.000	-0.021	-0.196
-518.916	-78.889	0.182	-0.063
-517.902	-51.128	-0.054	-0.025
-516.887	-110.689	0.121	0.025
-515.872	224.484	-0.099	-0.161
-514.858	329.438	0.212	-0.411
-513.843	-128.095	-0.136	-0.020
-512.829	800.000	0.059	0.195
-511.814	-50.300	0.227	-0.108
-510.799	800.000	-0.016	-0.047
-509.785	-200.000	-0.003	-0.248
-508.770	5.245	-0.196	-0.146
-507.756	14.731	-0.103	0.081
-506.741	-81.561	-0.400	-0.133
-505.726	-28.924	0.121	-0.070
-504.712	119.570	-0.177	-0.222
-503.697	-139.326	0.373	-0.040
-502.683	800.000	-0.090	0.254
-501.668	-200.000	-0.034	0.260
-500.653	800.000	-0.081	0.319
-499.639	224.061	0.232	-0.379
-498.624	-130.359	-0.141	-0.019
-497.610	800.000	-0.059	0.215
-496.595	-20.942	0.147	0.091
-495.581	-155.603	0.092	-0.006
-494.566	-200.000	-0.046	-0.368
-493.551	-200.000	0.004	0.202
-492.537	-161.018	0.438	-0.023
-491.522	108.416	0.251	-0.302
-490.508	137.333	-0.043	0.057
-489.493	407.726	0.136	0.290
-488.478	103.235	0.093	-0.111
-487.464	-51.206	-0.135	-0.064
-486.449	-71.569	-0.532	0.201
-485.435	138.053	-0.111	-0.147
-484.420	331.793	-0.120	0.234
-483.405	-200.000	0.013	0.127
-482.391	800.000	-0.050	0.205
-481.376	-200.000	0.022	-0.376
-480.362	353.489	-0.237	-0.475
-479.347	-200.000	0.052	-0.357
-478.332	69.912	-0.186	-0.194
-477.318	218.813	-0.084	0.135
-476.303	134.286	-0.141	0.184
-475.289	800.000	0.045	0.198
-474.274	800.000	0.067	-0.295
-473.259	600.692	0.103	0.259
-472.245	-200.000	0.026	-0.137
-471.230	-73.542	-0.062	0.023
-470.216	-95.687	-0.336	-0.091
-469.201	-31.392	0.436	-0.247
-468.186	-200.000	0.021	-0.199
-467.172	349.416	-0.190	-0.378
-466.157	-121.360	-0.286	0.048
-465.143	-3.986	-0.182	-0.127
-464.128	43.958	-0.120	-0.110
-463.113	-154.529	0.092	0.006
-462.099	424.320	-0.071	0.154
-461.084	-32.449	-0.340	0.191
-460.070	-200.000	0.013	0.103
-459.055	145.996	0.141	0.191
-458.040	-200.000	-0.066	0.311
-457.026	38.545	0.110	-0.099
-456.011	-43.106	0.306	0.156
-454.997	-123.923	-0.486	0.077
-453.982	-4.944	-0.214	-0.148
-452.968	-138.746	-0.128	-0.014
-451.953	-200.000	0.050	0.409
-450.938	226.151	-0.055	0.090
-449.924	259.576	0.115	-0.199
-448.909	90.938	-0.207	-0.234
-447.895	35.832	-0.194	-0.172
-446.880	-76.349	0.487	-0.172
-445.865	800.000	0.028	0.114
-444.851	-200.000	-0.074	-0.433
-443.836	-87.047	0.125	-0.038
-442.822	-85.377	-0.182	-0.057
-441.807	119.680	-0.140	-0.175
-440.792	-169.679	-0.126	-0.005
-439.778	21.453	0.252	0.206
-438.763	-122.105	0.194	-0.032
-437.749	800.000	0.121	0.412
-436.734	-162.750	-0.099	0.005
-435.719	-6.510	-0.125	-0.086
-434.705	82.325	-0.317	-0.346
-433.690	216.510	0.065	-0.105
-432.676	160.131	-0.128	0.179
-431.661	175.296	-0.018	0.026
-430.646	-200.000	0.002	0.360
-429.632	-46.864	-0.199	0.098
-428.617	-89.774	-0.196	0.058
-427.603	135.094	-0.161	0.211
-426.588	-200.000	0.001	-0.104
-425.573	314.216	-0.116	0.220
-424.559	37.102	-0.193	0.172
-423.544	422.928	-0.070	0.151
-422.530	-200.000	-0.015	0.147
-421.515	48.566	0.081	0.076
-420.500	-3.856	0.171	-0.119
-419.486	-200.000	-0.005	-0.109
-418.471	-102.814	0.217	-0.052
-417.457	-17.003	-0.173	0.110
-416.442	800.000	0.101	0.363
-415.428	-42.648	-0.090	-0.046
-414.413	122.930	-0.114	0.144
-413.398	51.838	0.143	0.137
-412.384	-200.000	0.003	-0.194
-411.369	515.715	0.159	0.374
-410.355	-5.950	0.083	0.057
-409.340	235.077	-0.148	-0.246
-408.325	-121.597	-0.054	0.009
-407.311	800.000	0.169	0.514
-406.296	-200.000	0.001	0.005
-405.282	235.996	0.091	0.151
-404.267	218.762	0.053	0.085
-403.252	39.979	-0.119	-0.107
-402.238	-109.273	-0.163	-0.035
-401.223	-93.180	0.273	0.076
-400.209	-200.000	0.018	-0.353
-399.194	-37.730	-0.121	-0.065
-398.179	449.033	-0.093	-0.206
-397.165	-200.000	-0.044	-0.248
-396.150	-126.390	0.266	0.040
-395.136	-1.333	0.360	0.255
-394.121	-160.463	0.471	-0.025
-393.106	-70.739	-0.047	0.018
-392.092	-151.512	-0.123	0.009
-391.077	-200.000	0.003	-0.148
-390.063	800.000	-0.043	0.142
-389.048	296.335	-0.140	-0.259
-388.033	567.259	-0.058	-0.142
-387.019	-200.000	0.042	0.205
-386.004	-176.588	0.160	0.004
-384.990	800.000	-0.016	0.060
-383.975	89.769	0.199	0.223
-382.960	-200.000	0.001	-0.191
-381.946	800.000	-0.084	0.289
-380.931	-200.000	0.032	0.377
-379.917	-87.967	-0.304	0.092
-378.902	-200.000	-0.004	0.150
-377.888	-200.000	-0.011	-0.074
-376.873	800.000	-0.068	0.255
-375.858	16.908	0.256	0.204
-374.844	-200.000	0.001	-0.118
-373.829	69.948	-0.176	0.182
-372.815	-83.533	-0.211	0.068
-371.800	-15.668	0.213	0.137
-370.785	-26.718	0.164	0.097
-369.771	-2.893	0.172	-0.121
-368.756	800.000	0.062	0.185
-367.742	183.480	0.049	-0.073
-366.727	279.915	0.167	-0.299
-365.712	-73.795	0.233	0.085
-364.698	-183.355	0.312	0.005
-363.683	286.732	-0.112	0.202
-362.669	-43.654	-0.205	0.104
-361.654	-34.032	0.278	0.153
-360.639	29.344	-0.126	0.107
-359.625	24.516	0.160	-0.132
-358.610	-200.000	-0.021	-0.111
-357.596	285.437	-0.113	-0.204
-356.581	-107.418	0.497	-0.109
-355.566	-95.404	0.373	0.101
-354.552	-90.265	0.172	0.050
-353.537	800.000	0.055	0.178
-352.523	-33.531	-0.256	-0.142
-351.508	800.000	0.056	0.155
-350.493	-57.200	0.126	-0.055
-349.479	-200.000	-0.039	-0.320
-348.464	19.623	-0.222	-0.179
-347.450	-100.221	-0.150	0.038
-346.435	-57.718	0.357	-0.157
-345.420	469.327	0.080	0.181
-344.406	574.555	0.096	-0.236
-343.391	-200.000	-0.034	0.280
-342.377	-93.468	-0.142	-0.039
-341.362	100.330	-0.077	0.090
-340.348	-100.530	0.268	-0.066
-339.333	177.494	0.167	-0.244
-338.318	-100.693	0.312	0.077
-337.304	603.939	0.048	-0.119
-336.289	-107.860	0.538	-0.117
-335.275	100.621	0.228	0.266
-334.260	-87.513	-0.196	0.060
-333.245	-77.314	-0.222	0.077
-332.231	-200.000	0.007	0.062
-331.216	5.576	0.175	-0.129
-330.202	-19.058	0.067	0.041
-329.187	-113.927	0.105	0.020
-328.172	671.221	0.061	0.159
-327.158	-137.121	0.270	0.031
-326.143	211.742	0.104	0.163
-325.129	-146.498	0.399	0.035
-324.114	20.110	-0.225	-0.182
-323.099	-121.815	0.220	-0.036
-322.085	800.000	-0.015	-0.057
-321.070	-200.000	-0.074	-0.456
-320.056	752.826	-0.069	-0.187
-319.041	-200.000	0.021	-0.132
-318.026	755.742	0.033	-0.090
-317.012	271.951	-0.195	0.344
-315.997	194.281	0.206	0.312
-314.983	-138.955	-0.188	-0.020
-313.968	34.595	-0.094	0.082
-312.953	-41.640	0.129	-0.066
-311.939	14.576	-0.113	0.089
-310.924	206.749	-0.165	0.257
-309.910	-75.422	-0.153	0.055
-308.895	-200.000	-0.019	0.138
-307.880	-53.708	0.254	-0.116
-306.866	31.863	0.165	-0.142
-305.851	800.000	0.011	0.037
-304.837	-100.257	0.162	-0.040
-303.822	455.180	0.060	-0.133
-302.807	800.000	-0.188	0.524
-301.793	99.616	0.346	0.401
-300.778	-33.759	-0.161	-0.089
-299.764	-54.422	-0.330	-0.150
-298.749	-16.832	-0.227	-0.144
-297.735	-48.459	0.226	-0.109
-296.720	-125.087	0.234	0.036
-295.705	199.223	-0.146	-0.225
-294.691	-91.114	-0.234	-0.067
-293.676	-200.000	-0.043	-0.236
-292.662	-8.868	0.254	0.170
-291.647	-200.000	0.001	0.015
-290.632	800.000	0.091	-0.313
-289.618	-161.603	-0.081	0.004
-288.603	800.000	0.011	-0.031
-287.589	-11.072	-0.216	0.143
-286.574	800.000	0.013	0.044
-285.559	-165.924	-0.342	0.015
-284.545	58.746	-0.329	0.324
-283.530	57.128	0.119	0.116
-282.516	-69.802	0.125	0.048
-281.501	-72.242	-0.267	-0.099
-280.486	-200.000	0.044	-0.263
-279.472	0.513	0.120	-0.086
-278.457	-12.957	0.211	-0.138
-277.443	35.629	0.125	-0.110
-276.428	180.458	0.086	0.126
-275.413	-200.000	0.066	-0.415
-274.399	162.418	-0.148	-0.207
-273.384	177.849	0.120	-0.175
-272.370	-200.000	-0.001	0.203
-271.355	-92.092	-0.439	0.124
-270.340	-200.000	0.006	-0.124
-269.326	157.523	-0.073	-0.102
-268.311	51.735	-0.150	-0.143
-267.297	-0.310	0.183	0.130
-266.282	-200.000	-0.070	-0.332
-265.267	-200.000	0.005	-0.372
-264.253	-18.946	-0.139	-0.086
-263.238	-1.737	-0.315	-0.222
-262.224	295.409	0.157	0.287
-261.209	152.419	0.030	-0.041
-260.195	-200.000	-0.223	0.000
-259.180	273.181	0.055	-0.096
-258.165	-200.000	-0.005	0.081
-257.151	-64.546	0.137	0.055
-256.136	-177.432	-0.158	-0.004
-255.122	-200.000	-0.018	0.091
-254.107	-169.476	-0.126	0.005
-253.092	-40.577	-0.174	-0.090
-252.078	442.815	0.096	0.210
-251.063	-18.839	-0.008	-0.005
-250.049	800.000	0.028	-0.120
-249.034	-158.429	-0.195	-0.011
-248.019	-91.683	0.159	0.045
-247.005	14.262	0.157	-0.122
-245.990	345.864	0.079	-0.155
-244.976	-121.310	-0.099	0.017
-243.961	800.000	0.078	0.337
-242.946	6.689	0.053	-0.039
-241.932	-114.798	0.289	0.055
-240.917	758.168	-0.078	0.212
-239.903	-200.000	0.028	0.397
-238.888	-100.359	-0.154	0.038
-237.873	-34.703	0.223	0.122
-236.859	-198.240	0.226	0.001
-235.844	104.513	0.283	-0.333
-234.830	800.000	-0.062	-0.220
-233.815	164.043	0.110	0.155
-232.800	185.783	0.059	0.088
-231.786	-6.791	-0.357	0.242
-230.771	-118.158	0.115	0.020
-229.757	-183.658	-0.121	0.002
-228.742	-23.984	0.213	-0.127
-227.727	-37.880	-0.286	-0.152
-226.713	800.000	0.056	-0.180
-225.698	800.000	0.137	0.419
-224.684	-49.898	0.169	-0.080
-223.669	364.483	-0.037	0.075
-222.655	306.786	0.006	0.011
-221.640	574.344	0.110	-0.269
-220.625	800.000	0.081	-0.282
-219.611	-57.163	-0.206	-0.091
-218.596	-200.000	0.154	-0.000
-217.582	-200.000	-0.001	-0.322
-216.567	-7.647	0.218	-0.147
-215.552	449.488	-0.084	0.184
-214.538	800.000	0.041	-0.158
-213.523	-200.000	-0.047	-0.216
-212.509	-200.000	0.012	0.093
-211.494	-143.544	0.239	-0.023
-210.479	-27.467	0.243	0.141
-209.465	548.966	-0.098	0.233
-208.450	111.150	-0.117	-0.141
-207.436	139.948	-0.006	-0.008
-206.421	189.698	0.118	-0.177
-205.406	-200.000	0.027	0.149
-204.392	-51.667	0.263	-0.122
-203.377	-200.000	-0.069	0.327
-202.363	-133.443	0.369	-0.046
-201.348	31.810	-0.233	0.200
-200.333	226.360	-0.254	-0.410
-199.319	12.421	-0.133	0.102
-198.304	-43.867	0.496	-0.249
-197.290	318.899	-0.040	-0.075
-196.275	-44.993	-0.465	0.231
-195.260	-36.294	0.192	-0.103
-194.246	800.000	-0.136	-0.442
-193.231	24.428	-0.235	0.194
-192.217	26.703	-0.086	0.072
-191.202	-90.446	0.074	-0.021
-190.187	-85.114	0.341	-0.106
-189.173	147.222	0.140	-0.188
-188.158	429.161	0.142	0.307
-187.144	-200.000	0.035	0.292
-186.129	-54.355	0.041	0.019
-185.114	206.364	0.089	0.138
-184.100	45.910	0.134	0.123
-183.085	252.271	0.119	0.202
-182.071	-152.694	0.349	-0.025
-181.056	-172.159	-0.374	0.012
-180.042	-94.151	-0.028	0.008
-179.027	800.000	-0.025	-0.105
-178.012	800.000	0.008	-0.029
-176.998	-44.518	0.124	0.062
-175.983	800.000	-0.046	-0.141
-174.969	444.024	-0.108	0.236
-173.954	331.311	-0.116	0.223
-172.939	-61.237	-0.247	0.103
-171.925	64.466	0.228	-0.229
-170.910	-17.575	0.217	0.136
-169.896	-200.000	-0.020	0.224
-168.881	-200.000	0.018	-0.457
-167.866	52.763	-0.278	-0.265
-166.852	-180.488	-0.137	-0.003
-165.837	800.000	0.118	0.434
-164.823	39.225	0.252	0.225
-163.808	-27.584	-0.181	0.105
-162.793	477.908	-0.049	-0.110
-161.779	280.216	0.184	0.328
-160.764	478.465	-0.213	0.481
-159.750	-83.333	0.192	-0.061
-158.735	-81.287	-0.078	0.026
-157.720	117.596	0.119	0.146
-156.706	-89.553	0.220	0.064
-155.691	-17.338	-0.192	0.121
-154.677	-200.000	-0.032	0.168
-153.662	-152.034	-0.245	0.018
-152.647	-103.098	0.371	0.087
-151.633	326.681	-0.152	0.289
-150.618	144.476	-0.045	0.060
-149.604	-200.000	0.058	-0.402
-148.589	-89.957	0.237	-0.069
-147.574	-200.000	-0.007	-0.088
-146.560	-200.000	-0.027	0.128
-145.545	-119.377	0.299	0.052
-144.531	84.519	-0.060	-0.065
-143.516	-175.069	-0.299	0.008
-142.502	3.805	0.184	0.134
-141.487	-20.792	0.114	-0.069
-140.472	-57.534	0.311	-0.136
-139.458	-200.000	-0.013	-0.065
-138.443	-6.822	-0.254	-0.172
-137.429	29.378	0.162	0.137
-136.414	800.000	-0.117	0.339
-135.399	14.675	0.331	0.258
-134.385	-148.524	-0.087	0.007
-133.370	186.942	-0.039	-0.058
-132.356	638.351	0.138	0.349
-131.341	83.474	-0.120	0.130
-130.326	30.171	0.098	0.083
-129.312	-200.000	0.027	-0.124
-128.297	-23.402	-0.139	0.083
-127.283	194.225	0.166	-0.249
-126.268	-144.445	-0.314	-0.029
-125.253	-184.878	-0.095	-0.002
-124.239	255.862	0.117	-0.200
-123.224	28.849	-0.192	-0.162
-122.210	46.912	-0.032	0.030
-121.195	48.196	-0.276	0.257
-120.180	-38.423	-0.061	0.032
-119.166	76.866	0.070	-0.074
-118.151	48.120	-0.275	-0.255
-117.137	352.694	0.069	0.136
-116.122	462.225	0.158	-0.351
-115.107	244.706	0.170	-0.284
-114.093	143.701	-0.205	0.272
-113.078	-23.831	0.461	0.274
-112.064	-36.296	0.134	0.072
-111.049	316.859	-0.148	-0.278
-110.034	800.000	-0.038	0.120
-109.020	68.288	-0.147	0.150
-108.005	25.453	0.160	0.133
-106.991	88.876	-0.275	-0.304
-105.976	83.494	-0.069	-0.075
-104.962	70.258	-0.157	0.161
-103.947	115.982	0.052	0.064
-102.932	-200.000	0.039	0.343
-101.918	-23.316	-0.218	0.130
-100.903	-66.571	-0.244	0.096
-99.889	638.831	0.100	0.254
-98.874	-29.104	-0.164	0.094
-97.859	-172.527	-0.208	-0.007
-96.845	-70.470	0.396	0.149
-95.830	-200.000	0.045	0.290
-94.816	59.555	0.067	0.065
-93.801	-16.438	0.295	-0.186
-92.786	-29.668	0.135	-0.077
-91.772	-200.000	-0.010	0.070
-90.757	2.247	-0.015	-0.011
-89.743	542.218	-0.136	-0.323
-88.728	25.145	-0.098	0.081
-87.713	-48.992	-0.165	0.079
-86.699	520.224	-0.078	-0.180
-85.684	-150.607	-0.279	0.021
-84.670	-146.835	0.235	0.020
-83.655	-87.713	0.317	-0.095
-82.640	-200.000	-0.026	0.224
-81.626	-93.386	-0.126	0.035
-80.611	79.350	-0.198	0.211
-79.597	-200.000	-0.188	-0.001
-78.582	329.748	-0.253	0.483
-77.567	-91.736	0.035	0.010
-76.553	52.608	0.078	0.074
-75.538	-198.047	0.175	0.001
-74.524	-200.000	0.046	-0.565
-73.509	75.785	-0.068	0.072
-72.494	-19.360	-0.239	0.147
-71.480	35.778	0.127	-0.111
-70.465	800.000	0.078	-0.264
-69.451	233.532	0.072	-0.117
-68.436	50.655	0.103	0.097
-67.422	132.407	-0.084	-0.107
-66.407	-200.000	-0.064	-0.320
-65.392	205.601	-0.154	-0.237
-64.378	191.712	0.052	0.078
-63.363	50.559	0.067	0.063
-62.349	121.453	0.038	0.046
-61.334	-42.527	-1.070	-0.541
-60.319	-90.427	0.551	0.159
-59.305	-200.000	0.134	-0.706
-58.290	420.290	0.369	0.785
-57.276	180.639	0.865	1.259
-56.261	-200.000	79.813	504.752
-55.246	512.827	1332.343	3079.358
-54.232	149.636	2558.194	3437.329
-53.217	108.199	2337.027	2764.067
-52.203	48.898	1954.047	1818.627
-51.188	43.327	1742.158	1577.976
-50.173	40.460	1696.533	1514.718
-49.159	54.819	1734.330	1659.472
-48.144	59.682	1752.710	1714.478
-47.130	43.201	1715.239	1552.371
-46.115	40.259	1700.503	1516.485
-45.100	40.054	1696.301	1511.109
-44.086	39.995	1693.987	1508.535
-43.071	39.977	1691.184	1505.846
-42.057	39.984	1688.301	1503.269
-41.042	39.968	1686.797	1501.751
-40.027	39.968	1685.011	1500.098
-39.013	39.865	1683.685	1498.081
-37.998	39.965	1681.297	1496.655
-36.984	39.986	1680.298	1495.865
-35.969	40.013	1679.189	1495.020
-34.954	40.211	1676.844	1494.365
-33.940	40.133	1675.226	1492.277
-32.925	40.087	1673.061	1489.948
-31.911	40.026	1671.264	1487.822
-30.896	40.142	1669.168	1486.771
-29.881	40.072	1668.019	1485.160
-28.867	40.040	1666.530	1483.536
-27.852	40.118	1665.165	1482.852
-26.838	40.082	1663.990	1481.474
-25.823	40.127	1662.278	1480.229
-24.809	40.116	1660.524	1478.529
-23.794	40.176	1659.305	1477.832
-22.779	40.247	1657.871	1477.023
-21.765	40.076	1656.683	1474.633
-20.750	40.119	1654.518	1472.964
-19.736	40.114	1653.304	1471.790
-18.721	40.153	1651.720	1470.614
-17.706	40.039	1650.603	1468.710
-16.692	40.128	1647.857	1466.866
-15.677	40.068	1647.081	1465.673
-14.663	40.168	1645.558	1465.004
-13.648	40.207	1644.613	1464.390
-12.633	40.177	1642.502	1462.236
-11.619	40.075	1641.227	1460.289
-10.604	40.089	1639.581	1458.865
-9.590	40.130	1638.419	1458.075
-8.575	40.157	1637.114	1457.058
-7.560	40.139	1636.134	1455.996
-6.546	40.079	1635.110	1454.586
-5.531	40.123	1633.820	1453.703
-4.517	40.061	1632.575	1452.080
-3.502	40.075	1631.285	1450.982
-2.487	40.093	1629.921	1449.844
-1.473	39.679	1617.399	1435.636
-0.458	36.010	1594.969	1389.269
0.556	31.750	1591.900	1344.177
1.571	28.534	1614.506	1339.696
2.586	27.373	1628.166	1342.356
3.600	23.981	1573.985	1273.339
4.615	13.661	1458.372	1110.907
5.629	4.234	1386.972	996.097
6.644	2.537	1377.291	978.228
7.659	2.463	1376.258	976.931
8.673	2.473	1374.890	975.939
9.688	2.397	1372.977	974.013
10.702	2.059	1370.634	970.117
11.717	5.771	1377.969	998.908
12.731	16.425	1398.759	1082.471
13.746	25.066	1413.485	1149.451
14.761	27.053	1415.616	1163.829
15.775	27.246	1415.933	1165.221
16.790	27.360	1414.985	1165.067
17.804	27.419	1414.355	1164.826
18.819	27.597	1414.324	1165.836
19.834	27.733	1413.525	1165.944
20.848	27.748	1412.582	1165.158
21.863	27.733	1411.756	1164.275
22.877	27.721	1410.859	1163.355
23.892	27.803	1409.982	1163.053
24.907	27.740	1409.022	1161.756
25.921	27.839	1408.038	1161.473
26.936	27.729	1407.126	1159.919
27.950	27.684	1406.066	1158.655
28.965	27.682	1405.177	1157.809
29.980	27.819	1403.838	1157.470
30.994	27.727	1402.172	1155.411
32.009	27.754	1401.165	1154.654
33.023	27.721	1400.321	1153.645
34.038	27.703	1399.189	1152.495
35.053	27.744	1398.382	1151.987
36.067	27.764	1397.120	1150.975
37.082	27.674	1396.686	1149.946
38.096	27.694	1395.889	1149.317
39.111	27.745	1394.489	1148.380
40.126	27.669	1394.218	1147.581
41.140	27.620	1393.740	1146.775
42.155	27.772	1393.132	1147.131
43.169	27.649	1393.496	1146.553
44.184	27.718	1393.181	1146.625
45.199	27.709	1392.517	1145.920
46.213	27.692	1391.820	1145.140
47.228	27.777	1390.624	1144.586
48.242	27.733	1389.920	1143.633
49.257	27.745	1388.404	1142.360
50.271	27.775	1386.886	1141.198
51.286	27.753	1385.350	1139.696
52.301	27.719	1384.310	1138.524
53.315	27.725	1383.171	1137.526
54.330	27.693	1382.703	1136.838
55.344	27.809	1381.367	1136.366
56.359	27.726	1380.263	1134.838
57.374	27.606	1379.782	1133.598
58.388	27.669	1379.207	1133.417
59.403	27.766	1378.697	1133.499
60.417	27.753	1377.821	1132.601
61.432	27.683	1377.475	1131.781
62.447	27.783	1375.917	1131.020
63.461	27.692	1375.401	1129.933
64.476	27.744	1373.903	1128.920
65.490	27.766	1372.689	1127.962
66.505	27.744	1371.400	1126.668
67.520	27.862	1369.860	1126.029
68.534	27.740	1369.158	1124.601
69.549	27.804	1367.927	1123.882
70.563	27.797	1367.475	1123.369
71.578	27.694	1366.465	1121.805
72.593	27.726	1365.516	1121.125
73.607	27.721	1364.970	1120.546
74.622	27.660	1364.303	1119.528
75.636	27.649	1363.297	1118.535
76.651	27.656	1362.765	1118.041
77.666	27.693	1362.436	1117.897
78.680	27.686	1362.173	1117.541
79.695	27.711	1361.448	1117.002
80.709	27.702	1360.428	1116.011
81.724	27.701	1359.330	1115.007
82.739	27.746	1358.462	1114.466
83.753	27.761	1357.397	1113.586
84.768	27.678	1356.809	1112.500
85.782	27.794	1355.261	1111.840
86.797	27.760	1354.008	1110.504
87.812	27.765	1353.120	1109.712
88.826	27.879	1351.632	1109.082
89.841	27.668	1351.251	1107.391
90.855	27.839	1350.059	1107.354
91.870	27.737	1349.561	1106.231
92.884	27.827	1348.228	1105.584
93.899	27.830	1347.611	1104.996
94.914	27.774	1346.726	1103.835
95.928	27.846	1345.925	1103.515
96.943	27.884	1344.719	1102.660
97.957	27.814	1344.552	1102.004
98.972	27.770	1343.787	1101.014
99.987	27.709	1342.802	1099.741
101.001	27.744	1341.854	1099.078
102.016	27.788	1340.741	1098.335
103.030	27.803	1339.917	1097.654
104.045	27.780	1339.141	1096.783
105.060	27.872	1338.067	1096.356
106.074	27.813	1336.994	1095.029
107.089	27.769	1336.392	1094.174
108.103	27.795	1335.012	1093.103
109.118	27.840	1334.123	1092.546
110.133	27.900	1332.400	1091.396
111.147	27.797	1331.517	1089.960
112.162	27.828	1330.473	1089.198
113.176	27.848	1329.649	1088.547
114.191	27.857	1328.819	1087.821
115.206	27.809	1327.777	1086.585
116.220	27.862	1326.577	1085.824
117.235	27.824	1325.824	1084.889
118.249	27.820	1325.123	1084.191
119.264	27.898	1324.138	1083.752
120.279	27.885	1323.622	1083.162
121.293	27.959	1322.217	1082.353
122.308	28.012	1321.543	1082.020
123.322	27.938	1320.887	1080.950
124.337	27.908	1320.266	1080.163
125.352	27.946	1319.692	1079.825
126.366	27.946	1318.542	1078.788
127.381	27.941	1317.670	1077.951
128.395	27.923	1316.854	1077.083
129.410	28.017	1316.048	1076.884
130.424	27.930	1315.539	1075.860
131.439	27.927	1314.601	1074.974
132.454	28.000	1313.503	1074.411
133.468	27.970	1313.424	1074.080
134.483	27.987	1312.485	1073.313
135.497	27.857	1311.880	1071.962
136.512	27.963	1310.563	1071.411
137.527	27.978	1309.674	1070.678
138.541	27.917	1308.367	1069.160
139.556	27.832	1307.267	1067.669
140.570	27.892	1306.680	1067.442
141.585	27.930	1305.031	1066.224
142.600	27.965	1304.149	1065.612
143.614	27.961	1303.702	1065.131
144.629	27.994	1302.482	1064.230
145.643	27.772	1301.807	1062.295
146.658	27.763	1300.587	1061.153
147.673	27.845	1299.188	1060.396
148.687	27.843	1298.098	1059.395
149.702	27.760	1297.480	1058.321
150.716	27.818	1296.121	1057.454
151.731	27.727	1295.397	1056.239
152.746	27.815	1294.118	1055.612
153.760	27.861	1293.567	1055.334
154.775	27.859	1292.711	1054.533
155.789	27.941	1291.060	1053.567
156.804	27.940	1290.309	1052.853
157.819	27.868	1289.931	1052.039
158.833	27.937	1289.117	1051.681
159.848	28.037	1287.868	1051.143
160.862	27.950	1287.611	1050.338
161.877	27.911	1286.737	1049.308
162.892	27.961	1285.854	1048.782
163.906	28.005	1284.983	1048.234
164.921	28.049	1283.851	1047.466
165.935	28.054	1283.612	1047.210
166.950	28.030	1282.719	1046.252
167.964	28.106	1282.044	1046.042
168.979	28.013	1281.972	1045.360
169.994	28.096	1280.816	1044.795
171.008	28.053	1279.986	1043.781
172.023	27.920	1279.656	1042.662
173.037	28.037	1278.661	1042.426
174.052	27.951	1278.276	1041.532
175.067	28.010	1277.388	1041.050
176.081	28.105	1276.098	1040.450
177.096	27.985	1275.659	1039.312
178.110	28.141	1274.473	1039.145
179.125	28.112	1273.794	1038.336
180.140	28.034	1272.803	1036.991
181.154	28.040	1271.730	1036.057
182.169	28.085	1270.504	1035.225
183.183	28.059	1269.629	1034.269
184.198	28.097	1268.181	1033.216
185.213	28.035	1267.660	1032.350
186.227	28.162	1266.671	1032.169
187.242	28.091	1265.854	1031.013
188.256	28.119	1265.107	1030.472
189.271	28.150	1264.212	1029.824
190.286	28.185	1263.296	1029.182
191.300	28.075	1262.816	1028.081
192.315	28.025	1262.463	1027.423
193.329	28.174	1261.617	1027.480
194.344	28.117	1261.750	1027.177
195.359	28.181	1260.874	1026.733
196.373	28.068	1260.633	1025.815
197.388	28.005	1260.272	1025.075
198.402	28.030	1259.921	1024.837
199.417	28.029	1259.596	1024.479
200.432	28.057	1258.997	1024.054
201.446	28.020	1258.438	1023.304
202.461	28.078	1257.404	1022.700
203.475	28.090	1256.567	1021.992
204.490	28.029	1255.762	1020.909
205.504	28.011	1254.961	1020.067
206.519	28.150	1253.385	1019.471
207.534	28.175	1252.933	1019.151
208.548	28.165	1251.968	1018.219
209.563	28.050	1251.120	1016.800
210.577	28.219	1249.829	1016.602
211.592	28.181	1249.423	1015.968
212.607	28.192	1248.847	1015.473
213.621	28.233	1248.094	1014.996
214.636	28.184	1247.114	1013.836
215.650	28.148	1246.247	1012.846
216.665	28.217	1245.254	1012.330
217.680	28.180	1244.597	1011.503
218.694	28.184	1243.362	1010.430
219.709	28.266	1242.943	1010.455
220.723	28.269	1242.079	1009.675
221.738	28.195	1241.464	1008.680
222.753	28.138	1240.662	1007.626
223.767	28.177	1240.126	1007.317
224.782	28.324	1239.499	1007.526
225.796	28.346	1238.824	1007.010
226.811	28.277	1238.443	1006.233
227.826	28.373	1237.687	1006.053
228.840	28.388	1237.330	1005.760
229.855	28.306	1236.740	1004.738
230.869	28.318	1235.734	1003.900
231.884	28.301	1234.892	1003.035
232.899	28.397	1234.363	1003.042
233.913	28.282	1234.088	1002.100
234.928	28.362	1233.913	1002.308
235.942	28.382	1232.719	1001.354
236.957	28.465	1231.816	1000.989
237.972	28.398	1231.240	1000.067
238.986	28.346	1230.684	999.243
240.001	28.408	1230.182	999.081
241.015	28.544	1229.194	998.934
242.030	28.471	1228.591	997.959
243.045	28.471	1227.719	997.161
244.059	28.554	1226.658	996.661
245.074	28.555	1226.179	996.188
246.088	28.460	1225.531	995.060
247.103	28.557	1224.619	994.758
248.117	28.562	1224.009	994.201
249.132	28.542	1223.118	993.280
250.147	28.580	1222.339	992.764
251.161	28.606	1221.711	992.307
252.176	28.618	1220.433	991.245
253.190	28.602	1220.415	991.060
254.205	28.633	1219.684	990.545
255.220	28.522	1219.005	989.309
256.234	28.620	1218.465	989.308
257.249	28.601	1217.997	988.740
258.263	28.719	1216.876	988.375
259.278	28.779	1216.532	988.332
260.293	28.624	1216.114	987.075
261.307	28.601	1215.987	986.761
262.322	28.662	1214.915	986.127
263.336	28.693	1213.820	985.320
264.351	28.736	1213.545	985.237
265.366	28.736	1213.053	984.751
266.380	28.666	1212.568	983.895
267.395	28.695	1211.728	983.286
268.409	28.654	1211.214	982.562
269.424	28.663	1210.967	982.320
270.439	28.671	1210.541	981.930
271.453	28.656	1209.518	980.931
272.468	28.676	1208.641	980.241
273.482	28.599	1207.965	979.198
274.497	28.682	1207.721	979.354
275.512	28.636	1207.368	978.736
276.526	28.736	1206.166	978.207
277.541	28.721	1205.709	977.671
278.555	28.859	1204.793	977.579
279.570	28.800	1204.168	976.669
280.585	28.762	1203.443	975.794
281.599	28.711	1202.707	974.838
282.614	28.707	1201.969	974.132
283.628	28.835	1200.739	973.729
284.643	28.791	1200.096	972.890
285.657	28.761	1199.179	971.901
286.672	28.825	1198.472	971.579
287.687	28.840	1197.576	970.849
288.701	28.832	1196.900	970.168
289.716	28.812	1196.535	969.681
290.730	28.769	1195.851	968.813
291.745	28.886	1195.005	968.661
292.760	28.897	1193.947	967.778
293.774	28.902	1193.871	967.653
294.789	28.824	1193.515	966.868
295.803	28.985	1192.428	966.748
296.818	28.982	1191.890	966.213
297.833	28.930	1191.482	965.522
298.847	28.982	1190.502	964.918
299.862	29.035	1189.682	964.444
300.876	28.979	1188.851	963.389
301.891	29.095	1188.588	963.699
302.906	29.037	1187.993	962.831
303.920	28.941	1187.465	961.816
304.935	28.989	1186.803	961.446
305.949	28.954	1186.310	960.779
306.964	29.020	1185.462	960.348
307.979	29.028	1184.860	959.820
308.993	29.089	1183.869	959.250
310.008	29.075	1183.082	958.452
311.022	29.067	1182.698	958.018
312.037	29.085	1181.809	957.306
313.052	29.127	1180.998	956.783
314.066	29.112	1180.200	955.973
315.081	29.070	1179.270	954.914
316.095	29.185	1178.889	955.122
317.110	29.188	1178.114	954.423
318.125	29.079	1177.689	953.430
319.139	29.199	1176.872	953.306
320.154	29.124	1176.083	952.192
321.168	29.088	1176.189	952.008
322.183	28.999	1175.816	951.161
323.197	29.097	1174.875	950.823
324.212	29.091	1174.056	950.045
325.227	29.221	1173.497	950.181
326.241	29.234	1172.881	949.663
327.256	29.265	1172.291	949.263
328.270	29.208	1171.221	948.017
329.285	29.302	1170.548	947.872
330.300	29.270	1169.578	946.839
331.314	29.242	1169.119	946.242
332.329	29.234	1168.171	945.347
333.343	29.384	1167.204	945.248
334.358	29.258	1166.942	944.309
335.373	29.355	1166.145	944.079
336.387	29.386	1165.517	943.643
337.402	29.344	1164.777	942.748
338.416	29.452	1163.910	942.514
339.431	29.387	1163.419	941.702
340.446	29.398	1162.768	941.149
341.460	29.531	1161.711	940.887
342.475	29.395	1160.849	939.412
343.489	29.512	1160.242	939.434
344.504	29.379	1159.731	938.258
345.519	29.450	1158.827	937.807
346.533	29.397	1158.177	936.929
347.548	29.424	1157.270	936.246
348.562	29.468	1156.450	935.723
349.577	29.541	1155.523	935.260
350.592	29.470	1155.074	934.457
351.606	29.430	1154.493	933.700
352.621	29.534	1153.831	933.606
353.635	29.485	1153.544	933.044
354.650	29.481	1152.837	932.373
355.665	29.484	1152.016	931.642
356.679	29.575	1151.605	931.682
357.694	29.529	1150.905	930.801
358.708	29.535	1150.142	930.136
359.723	29.544	1149.031	929.199
360.738	29.403	1148.629	928.080
361.752	29.488	1148.279	928.143
362.767	29.584	1147.744	928.114
363.781	29.694	1147.003	927.982
364.796	29.562	1146.492	926.825
365.810	29.675	1145.596	926.584
366.825	29.661	1145.207	926.117
367.840	29.749	1144.757	926.113
368.854	29.642	1144.239	925.076
369.869	29.664	1143.321	924.364
370.883	29.807	1142.422	924.269
371.898	29.723	1141.912	923.357
372.913	29.758	1141.274	922.930
373.927	29.732	1141.134	922.609
374.942	29.787	1140.571	922.345
375.956	29.814	1139.795	921.771
376.971	29.877	1139.134	921.468
377.986	29.888	1138.349	920.804
379.000	29.844	1138.263	920.437
380.015	29.903	1137.791	920.266
381.029	29.827	1137.185	919.318
382.044	29.847	1136.272	918.598
383.059	29.889	1135.883	918.410
384.073	29.906	1135.074	917.760
385.088	29.963	1133.814	916.944
386.102	29.968	1132.832	916.090
387.117	29.812	1132.475	914.949
388.132	29.775	1131.686	914.047
389.146	29.786	1131.258	913.676
390.161	29.881	1130.600	913.530
391.175	29.993	1129.439	913.067
392.190	29.941	1128.922	912.311
393.205	29.933	1128.490	911.839
394.219	30.043	1127.622	911.602
395.234	30.165	1126.556	911.257
396.248	30.102	1125.735	910.204
397.263	30.069	1124.856	909.253
398.278	30.173	1124.418	909.326
399.292	30.095	1124.070	908.584
400.307	30.088	1123.552	908.047
401.321	30.159	1122.588	907.537
402.336	30.140	1121.918	906.821
403.350	30.069	1121.544	906.090
404.365	30.038	1121.337	905.692
405.380	30.025	1120.197	904.627
406.394	30.186	1119.091	904.439
407.409	30.153	1118.512	903.734
408.423	30.219	1117.774	903.376
409.438	30.263	1117.001	902.884
410.453	30.247	1116.675	902.467
411.467	30.267	1115.812	901.784
412.482	30.222	1115.208	900.997
413.496	30.355	1114.188	900.740
414.511	30.302	1113.695	900.006
415.526	30.316	1113.184	899.580
416.540	30.313	1113.404	899.663
417.555	30.290	1112.814	898.998
418.569	30.258	1112.220	898.282
419.584	30.379	1111.620	898.304
420.599	30.451	1110.969	898.048
421.613	91.677	1306.485	1389.273
422.628	86.032	1334.956	1389.406
