DTS Sentinel unit serial number:	SN413079Multiplexer serial number:	ORYXHardware model number:	OX4-SRSoftware version number:	ORYX F/W v4.00 Oryx Data Collector v3.7.2.0data status	okinstallation	princeton_trtdifferential loss correction	single-endedforward channel	channel 2reverse channel	N/Adate	2019/09/18time	23:51:35forward acquisition time	60.00reverse acquisition time	0.00gamma	496.2192k internal	0.2352k external	0.2352temperature offset calibration	1.0022default loss term (dB/km)	0.3790temperature slope calibration	1.0000multiplexer offset coefficient	1.0000multiplexer slope coefficient	1.0000fibre end	0.00T internal ref (°C)	23.28T ext. ref 1 (°C)	0.76T ext. ref 2 (°C)	16.12length (m)	temperature (°C)	Stokes	anti-Stokes-747.200	-17.576	-0.203	0.127
-746.185	-76.806	-0.183	0.064
-745.171	800.000	0.060	0.198
-744.156	39.652	-0.152	0.136
-743.142	377.606	0.029	0.059
-742.127	800.000	0.058	0.205
-741.112	-178.124	0.249	-0.006
-740.098	76.107	0.068	-0.071
-739.083	-57.138	-0.155	-0.068
-738.069	-37.115	0.083	-0.044
-737.054	-200.000	0.061	-0.280
-736.039	140.897	-0.150	-0.198
-735.025	-51.170	0.272	0.127
-734.010	-200.000	0.024	-0.345
-732.996	55.432	-0.116	-0.112
-731.981	489.552	-0.101	0.230
-730.966	800.000	-0.086	0.287
-729.952	59.355	0.097	-0.096
-728.937	-109.436	-0.164	-0.035
-727.923	-200.000	-0.021	-0.212
-726.908	-5.459	-0.117	0.080
-725.894	-55.996	-0.045	-0.020
-724.879	-200.000	0.024	0.210
-723.864	23.470	-0.139	-0.114
-722.850	354.024	-0.143	-0.284
-721.835	711.640	0.017	0.045
-720.821	-10.877	-0.061	0.040
-719.806	-32.385	0.060	0.034
-718.791	56.415	-0.175	0.169
-717.777	81.427	-0.107	-0.115
-716.762	248.592	0.053	-0.090
-715.748	159.757	-0.261	-0.362
-714.733	-116.556	0.145	0.027
-713.718	183.164	-0.194	0.286
-712.704	-153.209	-0.376	-0.026
-711.689	-152.663	0.398	-0.028
-710.675	-121.916	-0.438	0.072
-709.660	800.000	-0.020	0.062
-708.645	-200.000	0.101	0.472
-707.631	-16.106	0.289	-0.183
-706.616	-200.000	-0.024	0.120
-705.602	25.480	0.242	0.200
-704.587	90.684	0.409	0.457
-703.572	166.690	-0.330	0.466
-702.558	57.192	-0.170	-0.165
-701.543	-102.321	0.415	0.099
-700.529	89.405	-0.108	-0.120
-699.514	370.124	-0.119	-0.241
-698.499	297.469	0.062	-0.113
-697.485	498.373	0.012	0.027
-696.470	588.666	-0.023	-0.056
-695.456	14.367	0.250	-0.194
-694.441	-15.946	-0.229	0.145
-693.426	331.269	0.051	-0.099
-692.412	152.162	-0.159	-0.216
-691.397	-200.000	-0.020	0.160
-690.383	800.000	0.106	-0.332
-689.368	89.402	-0.092	-0.102
-688.354	126.164	0.064	0.080
-687.339	67.792	0.171	0.174
-686.324	724.831	0.084	-0.222
-685.310	-107.589	-0.252	0.055
-684.295	-45.988	0.205	-0.101
-683.281	20.729	0.143	-0.115
-682.266	-78.511	-0.114	0.039
-681.251	800.000	-0.067	-0.230
-680.237	-149.803	0.251	0.020
-679.222	159.096	0.049	-0.068
-678.208	-200.000	-0.027	-0.404
-677.193	756.561	0.139	-0.375
-676.178	800.000	0.035	-0.113
-675.164	-12.063	-0.164	-0.107
-674.149	-64.057	-0.290	0.118
-673.135	-128.603	0.144	0.020
-672.120	-200.000	0.032	-0.220
-671.105	-41.474	-0.076	0.039
-670.091	-200.000	-0.026	0.269
-669.076	184.138	0.080	-0.117
-668.062	-200.000	-0.003	0.085
-667.047	-200.000	-0.006	-0.336
-666.032	131.622	-0.192	0.246
-665.018	800.000	-0.025	-0.102
-664.003	800.000	0.072	-0.219
-662.989	318.275	-0.114	-0.214
-661.974	5.890	-0.161	-0.118
-660.959	-99.019	0.125	-0.032
-659.945	-200.000	0.017	0.123
-658.930	-139.336	0.238	-0.025
-657.916	-136.626	0.439	-0.051
-656.901	-200.000	0.022	-0.212
-655.886	-200.000	-0.035	-0.379
-654.872	-200.000	0.021	-0.169
-653.857	-81.995	-0.123	0.040
-652.843	-48.455	-0.214	0.102
-651.828	-78.271	0.354	0.121
-650.814	115.776	0.100	-0.121
-649.799	-9.899	-0.147	0.097
-648.784	-57.474	0.411	0.179
-647.770	133.169	0.246	-0.316
-646.755	402.605	0.123	-0.257
-645.741	496.202	-0.028	-0.065
-644.726	-31.234	0.146	-0.082
-643.711	-196.094	-0.120	-0.001
-642.697	-178.446	-0.042	-0.001
-641.682	77.946	-0.203	0.215
-640.668	-143.439	-0.332	0.032
-639.653	800.000	-0.046	-0.174
-638.638	771.580	0.105	-0.284
-637.624	800.000	-0.085	-0.293
-636.609	-127.818	-0.079	0.011
-635.595	-74.962	-0.153	-0.054
-634.580	43.120	0.244	0.221
-633.565	53.707	0.104	0.099
-632.551	-189.797	-0.006	0.000
-631.536	122.841	0.073	0.091
-630.522	113.592	-0.107	-0.129
-629.507	-200.000	-0.028	0.376
-628.492	-34.657	-0.189	0.103
-627.478	50.674	0.215	-0.202
-626.463	142.977	-0.020	-0.027
-625.449	35.566	0.242	-0.211
-624.434	501.096	0.062	-0.142
-623.419	800.000	-0.098	-0.350
-622.405	155.676	-0.035	0.048
-621.390	-200.000	-0.015	0.140
-620.376	47.665	-0.009	0.008
-619.361	-200.000	-0.021	0.194
-618.346	-98.654	0.281	-0.071
-617.332	-55.077	-0.225	-0.100
-616.317	-200.000	-0.005	0.033
-615.303	-65.200	-0.237	-0.095
-614.288	106.069	0.020	-0.023
-613.273	-170.821	-0.116	-0.004
-612.259	-92.324	0.411	0.115
-611.244	4.569	0.214	0.156
-610.230	-117.237	0.338	-0.061
-609.215	-101.328	-0.295	0.072
-608.201	-118.946	-0.166	-0.029
-607.186	-73.182	0.049	-0.018
-606.171	800.000	-0.097	0.346
-605.157	800.000	-0.072	0.228
-604.142	-200.000	-0.017	-0.282
-603.128	-5.581	0.112	-0.076
-602.113	240.402	0.136	0.225
-601.098	147.619	0.118	0.158
-600.084	175.380	0.074	0.106
-599.069	-134.590	-0.405	0.049
-598.055	93.358	-0.063	-0.071
-597.040	800.000	-0.078	0.319
-596.025	-200.000	0.038	-0.309
-595.011	56.514	-0.220	-0.212
-593.996	-62.357	-0.008	0.003
-592.982	800.000	0.064	0.177
-591.967	106.806	-0.288	0.339
-590.952	4.532	0.179	-0.130
-589.938	-200.000	0.010	-0.128
-588.923	236.670	0.060	-0.098
-587.909	-53.760	-0.182	-0.082
-586.894	-17.106	-0.129	-0.081
-585.879	759.722	0.021	0.055
-584.865	800.000	-0.060	0.213
-583.850	-137.952	0.216	0.024
-582.836	28.183	0.103	0.086
-581.821	-42.363	-0.039	0.020
-580.806	101.663	0.229	0.265
-579.792	-43.737	-0.414	-0.207
-578.777	108.097	0.215	-0.254
-577.763	-56.691	-0.420	-0.184
-576.748	-200.000	-0.015	-0.117
-575.733	257.598	-0.063	0.107
-574.719	140.161	0.091	-0.119
-573.704	800.000	-0.077	-0.229
-572.690	339.068	0.169	-0.325
-571.675	480.518	0.081	0.183
-570.661	12.618	-0.184	-0.141
-569.646	-141.016	0.269	0.027
-568.631	38.607	-0.099	0.088
-567.617	-28.283	0.062	0.036
-566.602	-145.863	-0.289	0.025
-565.588	-200.000	-0.021	0.138
-564.573	-70.556	-0.205	-0.077
-563.558	800.000	-0.140	-0.405
-562.544	-10.289	-0.307	0.201
-561.529	46.127	-0.078	0.071
-560.515	-200.000	-0.040	-0.361
-559.500	-200.000	-0.038	-0.228
-558.485	-51.064	0.238	-0.110
-557.471	-115.396	-0.479	0.089
-556.456	-33.061	0.105	0.058
-555.442	-81.551	-0.168	0.055
-554.427	-100.209	0.198	0.049
-553.412	5.633	-0.301	-0.220
-552.398	-111.531	0.120	-0.024
-551.383	-95.995	-0.171	-0.045
-550.369	-39.451	0.355	0.184
-549.354	800.000	0.070	0.191
-548.339	4.797	-0.151	0.110
-547.325	62.330	-0.155	0.153
-546.310	97.986	-0.199	-0.227
-545.296	-200.000	0.042	-0.282
-544.281	11.042	0.111	0.084
-543.266	163.205	-0.290	0.403
-542.252	-200.000	-0.036	-0.237
-541.237	-23.682	-0.372	0.221
-540.223	176.261	0.175	-0.251
-539.208	243.764	-0.113	0.187
-538.193	-45.346	0.120	-0.059
-537.179	3.132	-0.394	-0.283
-536.164	-73.439	0.039	0.014
-535.150	-200.000	0.001	-0.401
-534.135	-200.000	-0.001	-0.247
-533.121	-53.140	-0.170	-0.077
-532.106	-139.509	-0.106	-0.011
-531.091	377.872	0.099	-0.200
-530.077	-100.573	0.177	0.043
-529.062	-49.857	-0.371	0.174
-528.048	-200.000	0.001	0.426
-527.033	-92.360	0.199	-0.055
-526.018	-142.475	-0.072	0.007
-525.004	-80.664	-0.179	0.059
-523.989	-12.903	-0.154	-0.099
-522.975	-200.000	0.012	0.274
-521.960	-136.231	0.204	0.024
-520.945	38.512	0.180	-0.159
-519.931	-99.084	0.215	0.054
-518.916	-200.000	-0.001	-0.241
-517.902	800.000	0.062	-0.239
-516.887	-200.000	-0.017	-0.244
-515.872	368.372	-0.113	0.225
-514.858	6.718	-0.165	-0.121
-513.843	-158.491	-0.264	-0.015
-512.829	-133.346	-0.487	-0.061
-511.814	9.200	-0.291	-0.217
-510.799	5.947	-0.048	0.035
-509.785	-145.375	0.262	-0.023
-508.770	-22.965	0.252	0.150
-507.756	-127.602	0.233	-0.033
-506.741	326.973	-0.041	-0.077
-505.726	800.000	0.057	0.201
-504.712	800.000	-0.023	-0.068
-503.697	160.170	0.066	-0.091
-502.683	275.130	0.161	-0.282
-501.668	42.930	-0.164	0.148
-500.653	-88.458	-0.154	-0.045
-499.639	13.156	0.223	0.171
-498.624	82.703	0.109	0.117
-497.610	20.762	-0.306	0.244
-496.595	800.000	-0.088	-0.248
-495.581	-200.000	0.004	-0.318
-494.566	151.501	0.202	0.272
-493.551	-30.498	-0.282	-0.158
-492.537	169.412	0.166	0.235
-491.522	-117.256	-0.052	-0.009
-490.508	800.000	-0.029	-0.085
-489.493	-100.732	0.239	0.058
-488.478	131.567	-0.272	-0.345
-487.464	237.861	0.126	-0.207
-486.449	264.559	-0.056	-0.096
-485.435	84.220	0.074	0.080
-484.420	-200.000	0.023	0.225
-483.405	95.061	-0.177	-0.199
-482.391	-135.489	0.115	-0.014
-481.376	-77.984	-0.296	0.101
-480.362	-57.496	0.172	0.074
-479.347	800.000	0.092	0.279
-478.332	-163.880	-0.336	-0.016
-477.318	-131.437	0.237	-0.031
-476.303	248.142	-0.116	-0.193
-475.289	0.295	-0.228	-0.161
-474.274	-200.000	-0.014	0.122
-473.259	800.000	-0.057	0.174
-472.245	-22.824	0.450	0.268
-471.230	800.000	0.141	0.453
-470.216	349.856	0.178	0.346
-469.201	-135.934	-0.299	0.035
-468.186	-200.000	0.001	-0.240
-467.172	585.178	-0.107	0.260
-466.157	-98.478	-0.077	0.019
-465.143	-172.505	0.046	-0.001
-464.128	-32.854	0.357	0.196
-463.113	800.000	-0.033	-0.100
-462.099	800.000	0.043	-0.136
-461.084	85.361	0.023	-0.025
-460.070	-200.000	-0.037	-0.193
-459.055	462.778	-0.046	-0.102
-458.040	-34.737	0.183	-0.099
-457.026	-84.918	-0.227	0.070
-456.011	-45.828	-0.098	0.048
-454.997	800.000	0.087	0.254
-453.982	-200.000	-0.006	-0.060
-452.968	148.236	-0.035	-0.047
-451.953	-108.243	0.143	-0.030
-450.938	-37.391	-0.185	0.098
-449.924	-128.229	-0.201	-0.028
-448.909	800.000	0.047	-0.166
-447.895	-51.377	-0.080	0.037
-446.880	33.214	0.322	0.276
-445.865	800.000	0.040	0.162
-444.851	-108.577	-0.218	-0.046
-443.836	-69.143	0.100	-0.038
-442.822	-200.000	-0.044	0.237
-441.807	-135.551	-0.238	-0.028
-440.792	-152.995	0.129	-0.009
-439.778	800.000	-0.039	0.160
-438.763	-200.000	0.059	-0.281
-437.749	233.455	-0.161	0.261
-436.734	-200.000	0.050	0.301
-435.719	52.350	-0.048	0.045
-434.705	-170.351	-0.199	0.007
-433.690	-114.112	0.080	0.015
-432.676	-14.528	0.260	0.165
-431.661	180.839	0.244	-0.354
-430.646	-150.046	0.113	-0.009
-429.632	57.724	0.060	0.058
-428.617	800.000	-0.104	-0.325
-427.603	800.000	0.037	-0.118
-426.588	-138.580	-0.225	-0.024
-425.573	-192.661	-0.418	-0.004
-424.559	-200.000	-0.030	-0.254
-423.544	92.939	-0.122	0.135
-422.530	-200.000	0.009	-0.499
-421.515	85.959	-0.051	0.055
-420.500	-200.000	0.000	0.055
-419.486	64.686	0.152	-0.151
-418.471	-96.622	-0.409	-0.106
-417.457	15.880	-0.245	0.190
-416.442	-200.000	-0.059	0.334
-415.428	162.620	-0.188	-0.260
-414.413	246.595	-0.253	-0.421
-413.398	-106.169	0.190	-0.042
-412.384	103.960	-0.069	-0.080
-411.369	-200.000	0.006	-0.399
-410.355	-200.000	0.002	-0.583
-409.340	221.924	-0.168	0.266
-408.325	800.000	-0.028	-0.097
-407.311	-142.622	-0.150	-0.014
-406.296	-84.749	-0.220	0.068
-405.282	14.733	0.113	-0.087
-404.267	-76.001	0.245	-0.085
-403.252	-200.000	0.019	-0.119
-402.238	-200.000	-0.000	0.016
-401.223	-200.000	-0.211	0.001
-400.209	486.090	0.079	-0.176
-399.194	127.770	0.098	-0.122
-398.179	-117.728	-0.128	-0.023
-397.165	538.366	-0.072	0.169
-396.150	-2.520	-0.223	0.154
-395.136	-30.074	-0.307	0.172
-394.121	87.475	0.088	-0.096
-393.106	188.538	-0.077	0.114
-392.092	5.532	0.159	0.115
-391.077	172.069	-0.164	0.232
-390.063	373.368	0.150	-0.301
-389.048	-200.000	0.030	0.177
-388.033	194.037	-0.061	-0.091
-387.019	-92.780	-0.193	-0.053
-386.004	318.544	-0.065	0.121
-384.990	-145.288	0.169	-0.015
-383.975	125.172	0.096	0.119
-382.960	183.077	0.213	-0.309
-381.946	800.000	0.080	0.254
-380.931	556.998	0.068	0.160
-379.917	426.125	0.025	-0.052
-378.902	-164.346	-0.156	0.007
-377.888	-107.082	0.336	0.073
-376.873	800.000	-0.020	0.080
-375.858	289.055	0.188	0.336
-374.844	-147.293	0.198	-0.017
-373.829	-200.000	0.044	0.249
-372.815	-111.107	0.167	-0.034
-371.800	800.000	-0.073	0.237
-370.785	93.782	0.166	-0.184
-369.771	-82.651	0.142	-0.045
-368.756	800.000	0.045	-0.153
-367.742	-6.679	-0.080	0.053
-366.727	-149.448	-0.212	0.017
-365.712	-200.000	-0.044	0.212
-364.698	4.100	-0.231	-0.166
-363.683	-200.000	0.001	0.093
-362.669	-80.527	-0.026	-0.009
-361.654	28.869	-0.068	0.057
-360.639	229.418	-0.143	0.229
-359.625	800.000	-0.023	0.068
-358.610	800.000	-0.022	-0.071
-357.596	-16.283	0.099	0.062
-356.581	301.777	-0.175	0.318
-355.566	593.210	-0.143	0.347
-354.552	800.000	0.018	-0.073
-353.537	-40.951	0.088	-0.045
-352.523	-148.597	0.477	-0.038
-351.508	-200.000	0.056	-0.251
-350.493	136.902	-0.174	-0.224
-349.479	800.000	0.092	-0.344
-348.464	374.439	0.075	-0.151
-347.450	-29.573	-0.192	-0.108
-346.435	131.039	0.186	-0.235
-345.420	249.627	-0.028	0.046
-344.406	-200.000	-0.002	0.361
-343.391	95.008	0.329	0.368
-342.377	800.000	-0.077	0.215
-341.362	759.104	-0.161	-0.427
-340.348	128.170	0.267	-0.334
-339.333	-37.534	-0.096	0.050
-338.318	800.000	-0.080	-0.255
-337.304	663.423	-0.031	-0.079
-336.289	69.727	0.165	0.167
-335.275	-200.000	0.013	0.062
-334.260	-111.163	0.231	0.046
-333.245	-167.763	-0.158	0.006
-332.231	422.733	0.173	0.364
-331.216	-91.712	0.364	-0.102
-330.202	43.725	0.229	-0.205
-329.187	-200.000	0.055	0.418
-328.172	-156.910	0.201	-0.012
-327.158	113.643	0.106	-0.126
-326.143	8.685	0.104	0.077
-325.129	44.476	0.126	0.113
-324.114	800.000	-0.056	-0.201
-323.099	-197.769	-0.265	-0.002
-322.085	-200.000	-0.062	0.366
-321.070	-200.000	0.043	-0.310
-320.056	54.128	-0.136	0.128
-319.041	-52.409	-0.425	0.193
-318.026	-158.587	0.324	-0.018
-317.012	-200.000	-0.045	0.338
-315.997	433.572	0.119	-0.253
-314.983	96.291	-0.114	-0.128
-313.968	-82.379	0.275	-0.088
-312.953	86.541	-0.159	-0.172
-311.939	-200.000	0.046	-0.458
-310.924	-200.000	-0.010	0.221
-309.910	601.541	-0.023	0.057
-308.895	408.107	-0.237	-0.491
-307.880	28.152	-0.268	0.222
-306.866	28.128	-0.419	0.347
-305.851	-103.503	-0.108	-0.025
-304.837	-151.057	0.261	-0.019
-303.822	-82.120	-0.165	-0.053
-302.807	-185.923	-0.361	0.005
-301.793	800.000	-0.047	-0.182
-300.778	-200.000	-0.006	-0.272
-299.764	800.000	0.047	-0.172
-298.749	156.137	0.239	-0.323
-297.735	26.889	0.146	0.120
-296.720	-86.417	0.471	-0.142
-295.705	-113.412	0.338	-0.065
-294.691	-117.939	-0.102	-0.018
-293.676	-200.000	-0.001	-0.004
-292.662	171.238	0.180	0.252
-291.647	91.004	-0.502	0.551
-290.632	800.000	-0.028	-0.104
-289.618	322.846	-0.084	0.157
-288.603	-118.330	0.073	-0.013
-287.589	-85.427	-0.037	-0.011
-286.574	-89.556	-0.013	-0.004
-285.559	41.697	-0.192	-0.170
-284.545	447.538	-0.183	-0.395
-283.530	415.664	0.154	0.321
-282.516	-17.584	0.255	0.157
-281.501	-87.652	-0.243	-0.072
-280.486	-112.296	0.234	0.046
-279.472	-114.610	-0.290	-0.055
-278.457	131.995	-0.063	-0.080
-277.443	-101.883	-0.166	0.039
-276.428	57.653	0.218	0.209
-275.413	800.000	-0.098	0.279
-274.399	-15.542	0.130	0.081
-273.384	-115.254	0.366	-0.068
-272.370	-200.000	-0.084	0.364
-271.355	18.285	0.093	-0.073
-270.340	108.067	-0.067	-0.078
-269.326	33.154	-0.224	-0.190
-268.311	102.230	0.134	-0.153
-267.297	-79.845	0.369	0.122
-266.282	638.759	-0.074	-0.184
-265.267	-56.864	-0.158	-0.068
-264.253	7.701	0.061	0.045
-263.238	34.787	0.076	0.065
-262.224	-116.903	0.232	-0.042
-261.209	175.827	0.034	0.049
-260.195	303.539	-0.104	0.189
-259.180	248.634	0.076	0.126
-258.165	-48.480	-0.154	-0.072
-257.151	-71.420	0.109	0.040
-256.136	-200.000	-0.038	-0.169
-255.122	91.147	-0.060	0.066
-254.107	-200.000	-0.022	0.383
-253.092	367.874	0.059	0.116
-252.078	335.071	0.126	-0.239
-251.063	-200.000	0.009	-0.459
-250.049	800.000	-0.039	-0.148
-249.034	-162.272	-0.457	0.022
-248.019	368.300	-0.100	0.197
-247.005	-200.000	0.032	0.153
-245.990	-114.186	-0.152	0.029
-244.976	800.000	-0.118	0.419
-243.961	-4.160	0.279	-0.189
-242.946	-200.000	0.032	0.224
-241.932	11.273	0.271	-0.203
-240.917	-109.046	0.344	0.072
-239.903	-78.319	0.238	0.080
-238.888	129.773	-0.284	0.355
-237.873	145.512	0.226	0.296
-236.859	-96.470	0.140	0.036
-235.844	7.601	0.290	-0.212
-234.830	592.657	-0.086	0.208
-233.815	206.843	0.052	-0.079
-232.800	-37.910	0.010	0.005
-231.786	-200.000	-0.029	-0.208
-230.771	82.935	0.073	-0.078
-229.757	136.783	0.129	-0.165
-228.742	-19.398	-0.116	0.070
-227.727	-149.857	0.311	-0.024
-226.713	-98.916	-0.150	0.037
-225.698	-107.554	-0.258	0.055
-224.684	-141.319	0.295	-0.029
-223.669	338.418	-0.114	-0.216
-222.655	145.576	0.101	-0.133
-221.640	-200.000	-0.062	-0.303
-220.625	-117.567	0.153	-0.027
-219.611	800.000	-0.080	0.295
-218.596	-200.000	0.027	-0.197
-217.582	-92.928	0.450	-0.123
-216.567	-74.087	0.277	0.098
-215.552	-74.841	-0.194	-0.068
-214.538	800.000	-0.124	-0.377
-213.523	-86.534	0.066	-0.020
-212.509	-81.145	-0.448	-0.145
-211.494	422.620	-0.094	0.197
-210.479	269.052	0.245	0.420
-209.465	-200.000	-0.028	0.213
-208.450	494.920	-0.040	0.089
-207.436	-161.292	0.057	0.003
-206.421	800.000	0.040	-0.166
-205.406	800.000	0.089	0.273
-204.392	800.000	0.034	0.132
-203.377	-153.435	0.283	0.019
-202.363	-200.000	0.078	0.350
-201.348	119.341	0.057	0.069
-200.333	-142.260	0.325	0.031
-199.319	-87.605	-0.071	-0.021
-198.304	-27.475	0.135	0.077
-197.290	-27.853	-0.234	0.132
-196.275	-166.466	0.114	0.005
-195.260	236.127	0.091	0.146
-194.246	30.216	0.107	-0.090
-193.231	-1.480	-0.045	0.031
-192.217	648.460	0.119	0.296
-191.202	-35.006	-0.242	0.129
-190.187	661.309	0.058	0.145
-189.173	-200.000	0.030	0.173
-188.158	17.718	0.240	-0.186
-187.144	-3.564	0.246	-0.167
-186.129	-86.643	0.078	0.023
-185.114	365.566	-0.153	-0.300
-184.100	-36.424	-0.079	-0.042
-183.085	-200.000	0.010	-0.051
-182.071	287.136	-0.098	-0.174
-181.056	239.015	0.064	-0.105
-180.042	158.865	0.083	0.112
-179.027	131.440	0.046	0.058
-178.012	-200.000	0.022	-0.343
-176.998	67.927	-0.035	-0.035
-175.983	-18.995	-0.250	-0.151
-174.969	529.397	-0.175	0.403
-173.954	6.703	0.088	-0.064
-172.939	-137.748	0.270	-0.030
-171.925	-93.620	0.419	0.113
-170.910	53.229	-0.053	-0.050
-169.896	-200.000	-0.048	0.423
-168.881	166.560	-0.072	0.099
-167.866	186.068	0.168	-0.244
-166.852	-200.000	-0.057	0.313
-165.837	-43.095	-0.090	0.044
-164.823	20.273	-0.217	-0.171
-163.808	-117.218	0.408	-0.072
-162.793	560.057	-0.113	0.266
-161.779	-89.615	-0.143	0.041
-160.764	-46.467	0.064	-0.031
-159.750	461.232	0.097	-0.210
-158.735	-43.056	0.296	-0.146
-157.720	-200.000	0.049	0.290
-156.706	-118.008	-0.211	-0.037
-155.691	-41.155	0.206	0.104
-154.677	503.029	0.047	-0.107
-153.662	-200.000	0.071	-0.311
-152.647	-200.000	-0.056	0.452
-151.633	-139.709	0.232	0.024
-150.618	-200.000	0.054	0.302
-149.604	334.054	-0.070	0.133
-148.589	-178.231	-0.373	-0.009
-147.574	-200.000	-0.018	0.183
-146.560	246.014	-0.071	0.116
-145.545	-200.000	0.024	0.222
-144.531	800.000	0.168	-0.519
-143.516	-70.200	0.091	0.034
-142.502	-200.000	-0.014	0.114
-141.487	-200.000	0.001	0.240
-140.472	440.036	0.078	0.166
-139.458	-107.425	0.254	0.054
-138.443	-138.489	-0.290	0.031
-137.429	800.000	-0.063	-0.221
-136.414	-112.437	0.190	0.037
-135.399	-16.193	0.173	0.107
-134.385	-120.136	-0.020	0.003
-133.370	-137.585	0.149	-0.016
-132.356	-200.000	-0.025	-0.395
-131.341	-142.133	0.501	-0.048
-130.326	-200.000	0.074	-0.364
-129.312	-200.000	-0.014	0.170
-128.297	291.380	0.143	0.253
-127.283	-18.214	-0.232	0.141
-126.268	-6.750	0.345	-0.228
-125.253	800.000	0.026	-0.086
-124.239	-125.813	0.253	0.037
-123.224	99.043	0.175	-0.197
-122.210	-101.169	0.303	0.072
-121.195	-200.000	0.058	-0.319
-120.180	-153.906	0.385	-0.026
-119.166	15.328	0.228	0.174
-118.151	-7.759	0.134	-0.088
-117.137	-21.348	0.066	0.040
-116.122	-114.682	-0.384	-0.072
-115.107	-46.288	0.278	0.133
-114.093	374.961	-0.061	0.121
-113.078	-44.975	0.174	-0.084
-112.064	444.259	0.228	-0.487
-111.049	-141.394	0.423	0.042
-110.034	-172.680	-0.081	-0.002
-109.020	-200.000	-0.044	-0.386
-108.005	236.815	0.161	-0.259
-106.991	-200.000	-0.065	-0.285
-105.976	25.166	-0.120	-0.097
-104.962	-13.019	0.186	-0.118
-103.947	-200.000	-0.008	-0.271
-102.932	-200.000	0.031	-0.441
-101.918	296.893	-0.170	0.303
-100.903	294.131	0.190	0.338
-99.889	-200.000	-0.051	0.263
-98.874	-24.394	0.048	-0.028
-97.859	-38.981	0.101	-0.052
-96.845	494.047	-0.095	-0.213
-95.830	-143.132	0.289	-0.027
-94.816	-81.272	0.076	0.024
-93.801	-117.291	-0.371	0.065
-92.786	15.329	0.129	0.099
-91.772	-200.000	-0.035	0.194
-90.757	-89.538	0.292	0.083
-89.743	244.085	-0.165	0.269
-88.728	311.708	0.165	0.301
-87.713	-170.149	0.304	-0.010
-86.699	5.559	0.133	-0.095
-85.684	-200.000	0.042	0.244
-84.670	800.000	-0.059	0.189
-83.655	-81.569	-0.283	-0.090
-82.640	-200.000	-0.002	-0.357
-81.626	800.000	-0.057	0.160
-80.611	800.000	-0.061	0.171
-79.597	-28.743	-0.085	0.047
-78.582	62.279	0.504	0.489
-77.567	-139.981	0.137	-0.014
-76.553	-56.472	0.207	-0.089
-75.538	64.494	0.198	0.194
-74.524	-111.541	0.050	0.010
-73.509	-120.148	-0.014	-0.002
-72.494	-151.115	-0.015	0.001
-71.480	-137.898	-0.087	-0.009
-70.465	-200.000	-0.011	0.201
-69.451	800.000	0.062	-0.207
-68.436	86.464	0.078	-0.083
-67.422	-200.000	0.057	0.265
-66.407	-47.133	-0.194	-0.092
-65.392	-130.587	0.336	-0.044
-64.378	371.438	-0.026	0.051
-63.363	-87.171	0.214	0.063
-62.349	235.094	0.201	0.323
-61.334	47.033	-1.082	-0.978
-60.319	83.916	0.704	0.747
-59.305	176.291	-0.715	-1.009
-58.290	430.775	0.542	1.139
-57.276	800.000	0.468	1.546
-56.261	-200.000	127.467	691.721
-55.246	426.491	1600.930	3351.318
-54.232	139.932	2764.748	3538.374
-53.217	91.626	2296.883	2507.166
-52.203	32.528	1901.378	1595.424
-51.188	26.437	1696.411	1377.166
-50.173	24.246	1658.433	1329.956
-49.159	46.751	1728.456	1558.685
-48.144	43.849	1739.471	1546.439
-47.130	25.901	1690.829	1368.354
-46.115	23.339	1675.565	1336.642
-45.100	23.182	1670.365	1331.261
-44.086	23.168	1667.711	1328.982
-43.071	23.226	1665.098	1327.284
-42.057	23.040	1663.491	1324.560
-41.042	23.160	1661.250	1323.620
-40.027	23.212	1659.109	1322.246
-39.013	23.222	1656.847	1320.466
-37.998	23.139	1655.646	1318.840
-36.984	23.147	1654.959	1318.303
-35.969	23.274	1653.021	1317.646
-34.954	23.272	1651.673	1316.510
-33.940	23.207	1649.930	1314.582
-32.925	23.246	1648.099	1313.363
-31.911	23.253	1646.575	1312.143
-30.896	23.322	1644.917	1311.283
-29.881	23.275	1643.669	1309.888
-28.867	23.260	1642.210	1308.566
-27.852	23.306	1640.138	1307.202
-26.838	23.308	1638.781	1306.084
-25.823	23.321	1637.500	1305.106
-24.809	23.355	1636.093	1304.182
-23.794	23.152	1635.604	1302.248
-22.779	23.316	1633.333	1301.592
-21.765	23.228	1632.081	1299.898
-20.750	23.271	1630.295	1298.735
-19.736	23.328	1628.963	1298.039
-18.721	23.355	1627.944	1297.373
-17.706	23.389	1625.683	1295.774
-16.692	23.277	1624.877	1294.257
-15.677	23.247	1623.577	1292.957
-14.663	23.345	1622.082	1292.425
-13.648	23.340	1620.730	1291.264
-12.633	23.349	1619.366	1290.189
-11.619	23.312	1617.622	1288.478
-10.604	23.376	1616.099	1287.679
-9.590	23.284	1615.104	1286.171
-8.575	23.369	1613.568	1285.510
-7.560	23.293	1612.429	1284.002
-6.546	23.324	1611.275	1283.259
-5.531	23.332	1610.039	1282.280
-4.517	23.285	1608.720	1280.835
-3.502	23.305	1607.465	1279.935
-2.487	23.341	1605.946	1278.929
-1.473	22.832	1593.732	1265.503
-0.458	19.593	1573.250	1226.233
0.556	14.838	1574.306	1192.347
1.571	12.467	1597.787	1192.838
2.586	12.128	1609.222	1198.790
3.600	11.286	1555.038	1152.378
4.615	6.511	1450.208	1043.060
5.629	1.716	1393.195	971.427
6.644	0.790	1386.244	960.616
7.659	0.725	1385.361	959.505
8.673	0.815	1383.986	959.036
9.688	0.729	1382.221	957.187
10.702	0.617	1378.659	953.929
11.717	3.068	1381.411	971.239
12.731	9.555	1390.911	1018.984
13.746	15.328	1399.718	1062.002
14.761	17.313	1402.099	1076.295
15.775	16.759	1400.822	1071.714
16.790	15.798	1398.056	1063.431
17.804	15.018	1396.053	1056.888
18.819	14.553	1394.443	1052.642
19.834	14.392	1392.670	1050.194
20.848	14.212	1391.403	1048.016
21.863	14.074	1389.774	1045.830
22.877	13.818	1388.914	1043.481
23.892	13.744	1387.821	1042.101
24.907	13.689	1387.275	1041.252
25.921	13.776	1386.067	1040.797
26.936	13.765	1385.230	1040.011
27.950	13.761	1384.193	1039.114
28.965	13.887	1383.336	1039.167
29.980	13.950	1382.333	1038.715
30.994	13.922	1381.537	1037.853
32.009	14.004	1379.949	1037.081
33.023	13.883	1379.845	1036.151
34.038	13.948	1378.127	1035.177
35.053	13.854	1377.001	1033.651
36.067	13.857	1375.962	1032.799
37.082	13.964	1374.835	1032.527
38.096	13.832	1374.254	1031.183
39.111	13.977	1373.593	1031.495
40.126	13.872	1372.356	1029.824
41.140	13.686	1372.230	1028.483
42.155	13.814	1371.289	1028.481
43.169	13.703	1371.301	1027.711
44.184	13.619	1370.963	1026.843
45.199	13.773	1370.770	1027.563
46.213	13.831	1369.587	1026.947
47.228	13.869	1369.150	1026.759
48.242	13.805	1367.864	1025.311
49.257	13.896	1366.211	1024.541
50.271	13.895	1364.605	1023.243
51.286	13.881	1363.644	1022.346
52.301	13.750	1362.654	1020.706
53.315	13.807	1361.029	1019.750
54.330	13.802	1360.504	1019.232
55.344	13.799	1358.763	1017.820
56.359	13.756	1358.046	1016.929
57.374	13.792	1356.906	1016.206
58.388	13.740	1356.142	1015.224
59.403	13.728	1355.723	1014.753
60.417	13.705	1354.618	1013.694
61.432	13.732	1353.878	1013.215
62.447	13.606	1353.354	1011.965
63.461	13.652	1351.925	1011.086
64.476	13.664	1350.643	1010.111
65.490	13.589	1349.725	1008.881
66.505	13.686	1347.681	1007.852
67.520	13.698	1346.827	1007.197
68.534	13.696	1346.184	1006.612
69.549	13.656	1344.750	1005.207
70.563	13.801	1343.324	1004.934
71.578	13.668	1342.341	1003.302
72.593	13.643	1341.571	1002.490
73.607	13.632	1340.413	1001.468
74.622	13.649	1339.375	1000.709
75.636	13.656	1338.888	1000.298
76.651	13.561	1338.544	999.380
77.666	13.612	1337.698	998.963
78.680	13.579	1337.222	998.324
79.695	13.702	1335.788	997.901
80.709	13.610	1335.507	997.051
81.724	13.655	1334.800	996.707
82.739	13.759	1333.324	996.142
83.753	13.761	1332.531	995.472
84.768	13.764	1331.471	994.607
85.782	13.814	1330.011	993.729
86.797	13.878	1328.827	993.139
87.812	13.834	1327.582	991.858
88.826	13.749	1326.521	990.470
89.841	13.755	1325.465	989.631
90.855	13.883	1324.539	989.617
91.870	13.912	1323.727	989.096
92.884	13.930	1322.298	988.044
93.899	13.823	1322.141	987.202
94.914	13.913	1321.427	987.117
95.928	13.844	1320.125	985.650
96.943	14.072	1318.998	986.074
97.957	13.925	1318.289	984.586
98.972	13.893	1317.385	983.631
99.987	13.893	1316.216	982.676
101.001	13.935	1315.031	981.952
102.016	13.907	1314.407	981.231
103.030	13.887	1313.178	980.108
104.045	13.845	1312.764	979.465
105.060	13.882	1311.303	978.510
106.074	13.863	1309.619	977.050
107.089	13.793	1308.702	975.867
108.103	13.821	1307.066	974.726
109.118	13.699	1306.275	973.334
110.133	13.706	1304.650	972.082
111.147	13.796	1303.645	971.771
112.162	13.806	1301.971	970.498
113.176	13.824	1301.344	970.047
114.191	13.833	1300.241	969.194
115.206	13.804	1299.215	968.176
116.220	13.765	1297.970	966.933
117.235	13.880	1296.759	966.617
118.249	13.843	1295.904	965.679
119.264	13.801	1294.969	964.652
120.279	13.705	1294.057	963.328
121.293	13.779	1292.719	962.676
122.308	13.704	1291.698	961.394
123.322	13.775	1290.613	960.911
124.337	13.686	1289.738	959.661
125.352	13.772	1288.334	959.031
126.366	13.666	1287.128	957.438
127.381	13.686	1285.955	956.594
128.395	13.770	1284.931	956.233
129.410	13.681	1284.186	955.080
130.424	13.871	1282.640	954.939
131.439	13.799	1282.116	954.052
132.454	13.821	1281.167	953.386
133.468	13.808	1280.089	952.426
134.483	13.821	1279.397	951.900
135.497	13.802	1278.502	951.040
136.512	13.834	1276.766	949.847
137.527	13.844	1275.270	948.711
138.541	13.896	1273.847	947.865
139.556	13.764	1273.276	946.600
140.570	13.868	1271.729	945.960
141.585	13.870	1270.534	944.999
142.600	14.010	1268.818	944.435
143.614	14.057	1268.057	944.049
144.629	14.053	1267.092	943.230
145.643	14.063	1265.945	942.349
146.658	13.921	1265.202	940.906
147.673	13.978	1263.682	940.015
148.687	13.998	1262.466	939.141
149.702	13.872	1261.091	937.325
150.716	13.874	1259.726	936.233
151.731	13.881	1258.634	935.379
152.746	13.969	1257.669	935.079
153.760	13.989	1256.170	933.994
154.775	14.076	1255.350	933.788
155.789	14.067	1254.341	932.903
156.804	14.080	1253.562	932.318
157.819	14.075	1252.386	931.332
158.833	14.099	1251.587	930.790
159.848	14.149	1250.298	930.025
160.862	14.170	1248.912	929.033
161.877	14.096	1248.390	928.147
162.892	14.165	1247.136	927.516
163.906	14.052	1246.594	926.403
164.921	14.089	1245.434	925.667
165.935	14.062	1244.760	924.932
166.950	14.097	1243.858	924.374
167.964	14.192	1243.383	924.468
168.979	14.154	1242.575	923.575
169.994	14.135	1241.698	922.733
171.008	14.271	1241.102	922.964
172.023	14.198	1240.379	921.942
173.037	14.310	1238.774	921.289
174.052	14.263	1238.236	920.542
175.067	14.322	1236.929	919.816
176.081	14.213	1236.344	918.700
177.096	14.229	1235.525	918.096
178.110	14.149	1234.199	916.593
179.125	14.192	1232.967	915.833
180.140	14.264	1231.783	915.267
181.154	14.330	1230.405	914.525
182.169	14.445	1228.804	913.881
183.183	14.295	1228.052	912.423
184.198	14.367	1226.693	911.726
185.213	14.305	1225.883	910.701
186.227	14.453	1224.602	910.478
187.242	14.391	1223.696	909.390
188.256	14.457	1222.593	908.849
189.271	14.469	1221.539	908.049
190.286	14.323	1220.977	906.757
191.300	14.336	1219.941	905.976
192.315	14.424	1218.958	905.644
193.329	14.354	1218.649	904.956
194.344	14.287	1218.007	904.036
195.359	14.362	1217.520	904.001
196.373	14.472	1216.802	903.980
197.388	14.475	1216.075	903.379
198.402	14.558	1215.466	903.295
199.417	14.576	1214.650	902.705
200.432	14.685	1213.485	902.352
201.446	14.584	1212.806	901.219
202.461	14.577	1211.902	900.432
203.475	14.706	1210.955	900.344
204.490	14.648	1209.914	899.177
205.504	14.648	1208.234	897.850
206.519	14.669	1207.418	897.275
207.534	14.546	1206.390	895.773
208.548	14.611	1205.451	895.347
209.563	14.628	1204.582	894.711
210.577	14.710	1203.632	894.366
211.592	14.732	1202.872	893.837
212.607	14.748	1201.581	892.887
213.621	14.754	1200.985	892.397
214.636	14.820	1199.994	891.935
215.650	14.952	1198.585	891.511
216.665	14.846	1198.081	890.494
217.680	14.914	1197.569	890.397
218.694	14.803	1196.607	889.009
219.709	14.968	1195.463	888.957
220.723	14.909	1194.925	888.169
221.738	14.881	1193.944	887.212
222.753	14.951	1193.445	887.135
223.767	14.959	1192.581	886.456
224.782	14.947	1192.415	886.189
225.796	14.982	1191.632	885.714
226.811	15.025	1190.715	885.182
227.826	15.009	1190.055	884.528
228.840	15.043	1189.213	884.005
229.855	14.991	1188.805	883.347
230.869	15.022	1187.692	882.606
231.884	15.033	1186.452	881.665
232.899	15.095	1185.904	881.506
233.913	14.987	1185.249	880.372
234.928	14.939	1184.912	879.789
235.942	15.011	1184.013	879.424
236.957	15.043	1183.006	878.769
237.972	14.962	1182.393	877.810
238.986	14.938	1182.079	877.370
240.001	15.008	1181.122	876.952
241.015	15.077	1180.160	876.518
242.030	15.113	1179.154	875.885
243.045	15.174	1178.225	875.437
244.059	15.215	1177.139	874.766
245.074	15.158	1176.747	874.096
246.088	15.164	1175.736	873.300
247.103	15.236	1174.682	872.818
248.117	15.313	1174.268	872.832
249.132	15.278	1174.136	872.474
250.147	15.307	1173.200	871.853
251.161	15.338	1172.108	871.123
252.176	15.443	1171.614	871.225
253.190	15.456	1171.117	870.849
254.205	15.412	1170.765	870.282
255.220	15.510	1169.779	869.977
256.234	15.503	1168.762	869.107
257.249	15.329	1168.527	867.956
258.263	15.485	1168.166	868.418
259.278	15.517	1167.134	867.740
260.293	15.699	1166.232	867.932
261.307	15.605	1165.945	867.157
262.322	15.574	1165.354	866.482
263.336	15.689	1164.396	866.281
264.351	15.574	1164.480	865.675
265.366	15.613	1163.478	865.055
266.380	15.656	1162.805	864.698
267.395	15.717	1161.447	863.927
268.409	15.657	1160.895	863.130
269.424	15.711	1160.311	862.899
270.439	15.563	1160.280	862.040
271.453	15.672	1159.369	861.844
272.468	15.699	1158.004	860.890
273.482	15.688	1157.266	860.213
274.497	15.693	1156.852	859.853
275.512	15.758	1156.135	859.579
276.526	15.787	1155.309	859.037
277.541	15.758	1154.748	858.394
278.555	15.728	1154.178	857.740
279.570	15.868	1153.044	857.538
280.585	15.810	1152.352	856.651
281.599	15.860	1151.382	856.108
282.614	15.925	1150.263	855.527
283.628	15.944	1149.039	854.639
284.643	15.812	1148.361	853.390
285.657	15.930	1147.549	853.307
286.672	15.902	1146.594	852.382
287.687	15.885	1146.377	852.059
288.701	15.989	1145.258	851.678
289.716	15.871	1144.669	850.568
290.730	16.038	1143.701	850.615
291.745	15.916	1143.169	849.532
292.760	16.002	1142.267	849.218
293.774	15.979	1141.716	848.619
294.789	16.021	1141.036	848.250
295.803	16.121	1140.562	848.326
296.818	16.068	1139.915	847.503
297.833	16.085	1139.221	846.996
298.847	16.223	1137.984	846.696
299.862	16.099	1137.277	845.473
300.876	16.141	1137.148	845.512
301.891	16.101	1136.163	844.504
302.906	16.198	1135.472	844.403
303.920	16.261	1134.620	844.009
304.935	16.213	1133.927	843.178
305.949	16.313	1133.084	842.975
306.964	16.257	1132.729	842.357
307.979	16.395	1131.347	841.945
308.993	16.289	1131.234	841.255
310.008	16.332	1130.248	840.662
311.022	16.431	1129.521	840.537
312.037	16.371	1128.528	839.429
313.052	16.348	1127.667	838.597
314.066	16.313	1126.547	837.516
315.081	16.183	1126.480	836.750
316.095	16.321	1125.420	836.573
317.110	16.354	1124.385	835.889
318.125	16.311	1123.380	834.857
319.139	16.407	1122.945	834.937
320.154	16.453	1122.500	834.757
321.168	16.309	1121.773	833.432
322.183	16.400	1121.413	833.542
323.197	16.299	1120.741	832.470
324.212	16.336	1119.987	832.016
325.227	16.457	1119.290	832.022
326.241	16.535	1118.239	831.550
327.256	16.427	1117.904	830.699
328.270	16.346	1117.298	829.775
329.285	16.317	1116.209	828.752
330.300	16.425	1115.360	828.576
331.314	16.459	1113.954	827.627
332.329	16.546	1113.097	827.341
333.343	16.539	1112.238	826.593
334.358	16.622	1111.533	826.406
335.373	16.512	1110.777	825.233
336.387	16.652	1109.705	825.046
337.402	16.501	1109.685	824.223
338.416	16.645	1108.614	824.051
339.431	16.697	1107.859	823.673
340.446	16.673	1107.479	823.203
341.460	16.777	1106.382	822.818
342.475	16.710	1105.789	821.976
343.489	16.680	1104.715	820.961
344.504	16.830	1103.703	820.864
345.519	16.834	1103.006	820.293
346.533	16.888	1102.178	819.866
347.548	16.918	1101.777	819.637
348.562	16.927	1100.690	818.800
349.577	16.782	1100.281	817.724
350.592	16.888	1099.245	817.395
351.606	16.765	1098.909	816.478
352.621	16.773	1098.091	815.837
353.635	16.846	1097.143	815.413
354.650	16.880	1096.557	815.067
355.665	16.826	1096.105	814.398
356.679	16.962	1095.159	814.278
357.694	16.982	1094.506	813.818
358.708	16.894	1094.212	813.102
359.723	16.936	1093.287	812.545
360.738	17.059	1092.606	812.555
361.752	17.129	1091.998	812.365
362.767	16.914	1091.848	811.155
363.781	17.118	1090.228	810.855
364.796	17.106	1090.341	810.809
365.810	17.031	1089.816	809.988
366.825	17.189	1088.994	810.059
367.840	17.083	1088.772	809.319
368.854	17.283	1087.677	809.384
369.869	17.232	1087.026	808.585
370.883	17.214	1086.100	807.741
371.898	17.224	1085.562	807.315
372.913	17.279	1084.989	807.079
373.927	17.262	1084.326	806.437
374.942	17.254	1083.808	805.941
375.956	17.214	1083.502	805.452
376.971	17.396	1082.748	805.681
377.986	17.365	1082.730	805.449
379.000	17.451	1081.522	804.886
380.015	17.416	1081.175	804.393
381.029	17.309	1080.710	803.470
382.044	17.352	1080.029	803.095
383.059	17.623	1078.918	803.474
384.073	17.485	1077.911	802.003
385.088	17.467	1077.355	801.436
386.102	17.546	1076.498	801.097
387.117	17.536	1075.610	800.321
388.132	17.458	1074.867	799.330
389.146	17.457	1074.236	798.785
390.161	17.530	1073.258	798.328
391.175	17.550	1072.429	797.738
392.190	17.575	1071.793	797.310
393.205	17.626	1070.985	796.874
394.219	17.589	1070.151	796.015
395.234	17.550	1069.158	795.023
396.248	17.581	1068.647	794.717
397.263	17.540	1067.174	793.357
398.278	17.512	1066.699	792.806
399.292	17.586	1066.096	792.631
400.307	17.586	1065.515	792.129
401.321	17.440	1064.958	790.968
402.336	17.611	1064.373	791.255
403.350	17.698	1063.053	790.609
404.365	17.767	1062.639	790.550
405.380	17.671	1062.099	789.635
406.394	17.610	1061.569	788.886
407.409	17.724	1060.668	788.677
408.423	17.733	1059.689	787.918
409.438	17.888	1058.969	788.030
410.453	17.860	1058.410	787.412
411.467	17.948	1057.809	787.303
412.482	17.915	1056.813	786.341
413.496	17.930	1056.331	785.981
414.511	18.001	1055.575	785.678
415.526	18.005	1055.353	785.460
416.540	18.010	1055.179	785.283
417.555	17.939	1054.459	784.352
418.569	18.016	1053.746	784.106
419.584	18.080	1053.053	783.815
420.599	18.177	1052.659	783.896
421.613	110.114	1330.636	1490.866
422.628	101.487	1371.089	1490.934
