DTS Sentinel unit serial number:	SN413079Multiplexer serial number:	ORYXHardware model number:	OX4-SRSoftware version number:	ORYX F/W v4.00 Oryx Data Collector v3.7.2.0data status	okinstallation	princeton_trtdifferential loss correction	single-endedforward channel	channel 2reverse channel	N/Adate	2019/09/19time	14:07:35forward acquisition time	60.00reverse acquisition time	0.00gamma	496.2192k internal	0.2325k external	0.2325temperature offset calibration	1.0021default loss term (dB/km)	0.3790temperature slope calibration	1.0000multiplexer offset coefficient	1.0000multiplexer slope coefficient	1.0000fibre end	0.00T internal ref (°C)	31.37T ext. ref 1 (°C)	1.03T ext. ref 2 (°C)	28.66length (m)	temperature (°C)	Stokes	anti-Stokes-747.200	-107.402	0.216	0.048
-746.185	162.577	0.224	0.317
-745.171	50.335	0.084	0.080
-744.156	800.000	-0.065	0.213
-743.142	-83.965	-0.341	-0.109
-742.127	-74.090	-0.419	0.153
-741.112	-47.858	-0.245	-0.120
-740.098	568.914	0.021	-0.052
-739.083	-200.000	0.012	0.107
-738.069	-200.000	-0.014	0.308
-737.054	-112.025	0.344	0.070
-736.039	800.000	0.067	0.279
-735.025	387.084	0.066	-0.137
-734.010	9.652	-0.128	0.098
-732.996	2.649	-0.338	-0.247
-731.981	122.460	-0.021	-0.026
-730.966	-44.713	-0.140	-0.071
-729.952	800.000	-0.123	0.354
-728.937	-46.069	0.154	-0.077
-727.923	277.730	-0.114	0.204
-726.908	43.290	0.261	-0.240
-725.894	306.712	0.034	0.065
-724.879	536.298	-0.126	0.302
-723.864	-110.524	0.167	0.035
-722.850	59.520	0.108	0.108
-721.835	-62.488	0.149	0.062
-720.821	-54.511	-0.131	0.060
-719.806	-88.239	0.412	-0.124
-718.791	-97.872	-0.140	-0.036
-717.777	-131.734	0.258	0.034
-716.762	135.717	-0.180	-0.237
-715.748	-115.060	0.213	-0.041
-714.733	72.698	-0.370	-0.389
-713.718	-200.000	-0.089	-0.470
-712.704	-52.175	0.037	-0.017
-711.689	-122.551	-0.279	0.046
-710.675	-65.921	0.321	0.129
-709.660	-131.198	-0.269	0.036
-708.645	94.580	0.125	0.144
-707.631	-18.335	-0.339	0.214
-706.616	-76.016	0.281	-0.100
-705.602	-110.002	-0.307	-0.065
-704.587	800.000	-0.086	0.301
-703.572	-200.000	0.008	0.036
-702.558	5.232	0.237	0.176
-701.543	709.377	-0.050	-0.134
-700.529	-150.860	0.201	-0.015
-699.514	82.056	0.051	0.056
-698.499	143.627	0.075	-0.101
-697.485	60.896	0.044	0.044
-696.470	175.407	0.088	-0.128
-695.456	31.720	-0.074	0.064
-694.441	800.000	0.048	0.174
-693.426	116.262	-0.185	0.229
-692.412	-66.831	0.319	-0.127
-691.397	159.027	-0.192	0.268
-690.383	762.152	-0.044	0.121
-689.368	53.427	0.061	0.059
-688.354	-67.299	-0.164	0.065
-687.339	-57.434	-0.079	-0.035
-686.324	425.312	-0.089	-0.192
-685.310	-60.334	-0.031	0.013
-684.295	37.262	0.078	-0.069
-683.281	-164.258	0.238	-0.011
-682.266	-99.546	-0.491	-0.124
-681.251	-129.326	-0.233	0.033
-680.237	-106.409	-0.145	-0.033
-679.222	-54.336	0.410	0.187
-678.208	-101.968	0.160	0.039
-677.193	223.392	-0.310	-0.503
-676.178	121.372	-0.242	0.303
-675.164	-200.000	0.109	0.000
-674.149	-184.676	-0.086	-0.001
-673.135	-34.118	0.173	0.096
-672.120	246.364	-0.117	0.199
-671.105	-13.612	0.114	0.074
-670.091	800.000	-0.063	0.208
-669.076	-46.688	-0.257	-0.127
-668.062	401.179	-0.151	-0.319
-667.047	-162.185	-0.410	-0.021
-666.032	-200.000	0.023	0.120
-665.018	-0.874	-0.115	0.082
-664.003	214.455	-0.131	-0.209
-662.989	210.940	-0.068	-0.108
-661.974	715.094	0.113	0.301
-660.959	127.326	-0.113	-0.144
-659.945	121.644	-0.166	-0.208
-658.930	-200.000	0.034	0.212
-657.916	92.094	0.265	0.300
-656.901	-0.260	0.137	0.098
-655.886	-65.235	0.045	-0.018
-654.872	-79.674	0.440	0.149
-653.857	164.349	0.068	0.096
-652.843	517.514	0.044	0.103
-651.828	-62.026	-0.183	0.077
-650.814	-94.738	-0.290	-0.079
-649.799	-200.000	0.034	-0.361
-648.784	-144.408	0.170	-0.016
-647.770	238.155	-0.054	-0.091
-646.755	8.643	0.012	0.009
-645.741	800.000	-0.111	0.333
-644.726	-67.769	-0.083	0.033
-643.711	800.000	0.062	-0.260
-642.697	-152.838	0.167	-0.012
-641.682	-91.063	0.272	-0.079
-640.668	-200.000	-0.050	-0.260
-639.653	7.744	-0.277	-0.208
-638.638	80.907	0.039	-0.042
-637.624	338.748	-0.127	-0.249
-636.609	29.412	-0.144	-0.123
-635.595	-10.350	-0.205	-0.136
-634.580	104.167	-0.184	-0.217
-633.565	-127.945	-0.146	0.021
-632.551	-43.477	-0.053	-0.027
-631.536	-118.594	0.118	-0.021
-630.522	72.945	0.140	0.147
-629.507	368.983	0.148	-0.300
-628.492	413.753	-0.188	0.402
-627.478	-87.761	-0.071	0.022
-626.463	-28.197	-0.287	0.167
-625.449	-99.810	-0.221	-0.056
-624.434	-125.965	0.162	-0.025
-623.419	-90.279	-0.105	-0.031
-622.405	16.818	-0.177	-0.140
-621.390	-102.366	0.108	-0.026
-620.376	-37.149	0.126	0.068
-619.361	17.551	0.141	-0.113
-618.346	800.000	0.028	-0.112
-617.332	4.035	0.266	0.195
-616.317	-15.999	-0.247	0.158
-615.303	251.591	-0.025	-0.043
-614.288	638.306	-0.147	0.374
-613.273	36.820	-0.176	0.156
-612.259	-47.559	-0.156	0.076
-611.244	800.000	0.038	-0.126
-610.230	15.264	0.091	0.072
-609.215	295.788	0.062	0.114
-608.201	-66.757	0.163	0.065
-607.186	800.000	0.084	0.241
-606.171	-200.000	-0.021	0.180
-605.157	-86.991	-0.116	-0.035
-604.142	-113.066	0.045	-0.009
-603.128	461.084	-0.108	-0.241
-602.113	-200.000	-0.002	0.240
-601.098	-136.337	-0.147	0.017
-600.084	494.045	-0.119	0.274
-599.069	267.795	-0.151	0.266
-598.055	-138.242	-0.221	-0.025
-597.040	-87.775	-0.159	0.048
-596.025	121.865	-0.071	0.089
-595.011	800.000	-0.065	-0.197
-593.996	800.000	0.064	-0.217
-592.982	636.292	0.081	0.207
-591.967	273.054	-0.213	-0.377
-590.952	-187.855	0.208	-0.003
-589.938	-171.023	0.126	0.004
-588.923	-120.114	-0.285	-0.049
-587.909	113.486	0.053	0.065
-586.894	800.000	0.043	0.135
-585.879	-47.979	-0.198	-0.096
-584.865	64.625	-0.082	-0.083
-583.850	227.088	0.075	0.122
-582.836	247.402	-0.067	-0.113
-581.821	-200.000	0.008	0.077
-580.806	416.756	-0.086	-0.184
-579.792	104.339	-0.301	0.355
-578.777	-33.994	0.088	0.049
-577.763	-35.668	-0.277	0.151
-576.748	5.655	-0.111	-0.082
-575.733	800.000	-0.082	-0.236
-574.719	-200.000	-0.015	0.093
-573.704	-118.534	0.359	0.064
-572.690	-200.000	-0.029	0.172
-571.675	-36.422	-0.244	0.132
-570.661	-33.026	0.176	-0.098
-569.646	800.000	0.080	-0.273
-568.631	299.906	0.182	0.337
-567.617	-200.000	0.015	0.340
-566.602	-88.817	-0.171	-0.051
-565.588	-200.000	-0.049	-0.270
-564.573	119.645	0.108	0.134
-563.558	-200.000	-0.007	-0.032
-562.544	-23.664	-0.280	-0.168
-561.529	-200.000	0.051	-0.348
-560.515	-200.000	-0.036	-0.158
-559.500	-200.000	-0.049	0.273
-558.485	-103.759	-0.158	-0.037
-557.471	-200.000	-0.023	-0.172
-556.456	78.149	0.107	0.114
-555.442	106.755	-0.191	0.227
-554.427	800.000	0.042	0.135
-553.412	15.863	0.314	-0.247
-552.398	42.257	0.119	0.109
-551.383	190.156	0.092	-0.139
-550.369	-17.594	0.317	-0.200
-549.354	-8.550	0.220	-0.148
-548.339	-89.217	-0.203	-0.060
-547.325	275.501	0.157	-0.278
-546.310	-200.000	-0.017	0.154
-545.296	82.533	-0.251	-0.272
-544.281	153.732	-0.097	0.133
-543.266	126.788	0.253	0.320
-542.252	-200.000	0.055	-0.287
-541.237	511.591	0.081	-0.188
-540.223	12.413	0.133	0.103
-539.208	-95.153	-0.037	0.010
-538.193	67.544	0.196	-0.200
-537.179	-85.685	0.380	-0.118
-536.164	800.000	-0.003	-0.013
-535.150	-200.000	-0.015	-0.281
-534.135	-200.000	-0.030	0.131
-533.121	-64.624	0.130	0.053
-532.106	800.000	0.026	-0.094
-531.091	622.089	0.071	-0.179
-530.077	-200.000	-0.026	0.258
-529.062	800.000	0.049	-0.153
-528.048	-170.986	-0.225	0.008
-527.033	-138.599	0.139	0.015
-526.018	-156.737	-0.210	-0.013
-525.004	257.202	0.168	-0.290
-523.989	186.886	-0.039	0.058
-522.975	-200.000	0.045	-0.254
-521.960	-200.000	0.003	0.117
-520.945	245.243	-0.196	-0.330
-519.931	273.136	0.102	-0.181
-518.916	52.700	-0.033	-0.032
-517.902	800.000	0.072	0.209
-516.887	45.447	0.198	0.183
-515.872	-159.256	0.253	0.014
-514.858	800.000	-0.071	-0.205
-513.843	21.854	0.250	0.204
-512.829	583.327	0.140	0.344
-511.814	800.000	-0.032	0.139
-510.799	-200.000	0.016	0.085
-509.785	453.846	-0.073	0.162
-508.770	800.000	0.008	0.031
-507.756	190.067	-0.176	0.264
-506.741	-182.139	0.167	-0.003
-505.726	63.801	-0.085	0.085
-504.712	247.459	-0.115	0.194
-503.697	10.947	0.194	0.148
-502.683	11.841	-0.287	-0.221
-501.668	474.595	0.177	0.399
-500.653	7.634	0.209	0.157
-499.639	-146.775	-0.243	-0.021
-498.624	-88.932	0.071	0.021
-497.610	103.414	-0.146	0.171
-496.595	182.457	-0.134	-0.197
-495.581	137.451	-0.109	0.142
-494.566	152.618	-0.017	-0.023
-493.551	-200.000	-0.051	0.266
-492.537	-19.513	-0.150	-0.093
-491.522	-36.060	0.135	-0.073
-490.508	112.928	0.089	0.108
-489.493	-86.879	-0.287	-0.088
-488.478	100.790	-0.127	0.148
-487.464	-200.000	-0.013	-0.114
-486.449	-177.706	0.302	-0.007
-485.435	-67.263	-0.170	-0.067
-484.420	-87.676	0.237	0.071
-483.405	-200.000	0.019	-0.269
-482.391	800.000	0.066	-0.195
-481.376	-41.726	-0.257	0.132
-480.362	69.565	-0.114	0.117
-479.347	354.559	-0.094	0.187
-478.332	177.081	-0.151	-0.220
-477.318	-200.000	-0.034	0.332
-476.303	-23.680	0.070	-0.042
-475.289	-72.877	-0.191	-0.070
-474.274	-54.006	0.020	-0.009
-473.259	-61.762	0.128	-0.053
-472.245	373.311	0.096	-0.195
-471.230	59.746	-0.136	0.134
-470.216	-131.754	0.213	-0.028
-469.201	158.748	0.061	0.084
-468.186	-138.926	-0.418	0.045
-467.172	-200.000	-0.015	-0.089
-466.157	-200.000	0.013	-0.250
-465.143	-200.000	-0.003	0.292
-464.128	-17.818	-0.151	0.095
-463.113	64.767	-0.193	-0.194
-462.099	-146.935	-0.482	-0.041
-461.084	-45.498	-0.333	0.165
-460.070	395.820	0.096	0.201
-459.055	7.565	-0.247	-0.184
-458.040	136.133	0.130	-0.169
-457.026	-43.802	0.113	-0.057
-456.011	-90.662	0.143	0.041
-454.997	-200.000	0.021	0.201
-453.982	-40.428	-0.130	-0.068
-452.968	448.443	-0.056	-0.124
-451.953	-5.543	0.117	-0.080
-450.938	100.632	0.163	-0.189
-449.924	86.517	-0.218	-0.240
-448.909	-101.561	0.060	0.015
-447.895	-200.000	0.040	0.399
-446.880	356.865	-0.138	-0.274
-445.865	-200.000	-0.033	-0.203
-444.851	253.501	0.010	-0.017
-443.836	253.086	-0.168	0.287
-442.822	-105.674	0.246	0.056
-441.807	-114.341	-0.319	0.061
-440.792	10.442	0.220	-0.167
-439.778	-200.000	-0.056	0.292
-438.763	-61.491	0.007	0.003
-437.749	37.865	-0.085	-0.075
-436.734	-43.741	0.086	-0.043
-435.719	-8.442	0.151	-0.101
-434.705	800.000	0.027	-0.106
-433.690	65.600	0.182	0.184
-432.676	330.644	0.021	0.040
-431.661	633.010	-0.070	-0.178
-430.646	-134.986	-0.091	0.011
-429.632	94.236	-0.269	-0.304
-428.617	-114.274	0.159	0.031
-427.603	-95.954	0.440	0.117
-426.588	-200.000	-0.032	-0.254
-425.573	800.000	0.048	-0.202
-424.559	-127.291	-0.265	-0.039
-423.544	53.872	-0.321	-0.308
-422.530	-117.698	-0.194	0.035
-421.515	-200.000	-0.035	-0.366
-420.500	-29.346	-0.040	-0.023
-419.486	-154.007	-0.381	0.026
-418.471	730.575	0.155	0.413
-417.457	800.000	-0.072	-0.270
-416.442	-200.000	0.011	-0.227
-415.428	800.000	-0.102	-0.290
-414.413	-200.000	0.022	-0.225
-413.398	31.541	-0.231	-0.197
-412.384	-116.232	-0.093	0.017
-411.369	-159.714	-0.079	-0.004
-410.355	12.205	-0.342	0.263
-409.340	13.604	0.062	0.048
-408.325	800.000	0.050	-0.197
-407.311	330.403	0.078	0.150
-406.296	131.483	0.066	-0.084
-405.282	13.861	-0.255	0.198
-404.267	-66.748	0.160	-0.063
-403.252	800.000	-0.049	-0.188
-402.238	-120.169	0.152	-0.026
-401.223	167.019	-0.132	-0.187
-400.209	89.029	0.155	-0.172
-399.194	-86.447	0.132	0.040
-398.179	800.000	-0.115	-0.357
-397.165	35.342	-0.313	0.273
-396.150	-96.601	-0.231	-0.061
-395.136	-136.927	0.364	0.042
-394.121	50.726	0.171	0.161
-393.106	90.534	-0.179	0.200
-392.092	58.721	-0.092	-0.090
-391.077	278.693	-0.130	0.230
-390.063	630.886	-0.091	0.228
-389.048	592.384	-0.024	0.058
-388.033	-200.000	-0.044	0.306
-387.019	-7.811	0.177	-0.119
-386.004	129.390	-0.065	-0.083
-384.990	103.381	-0.192	-0.224
-383.975	7.859	0.397	-0.296
-382.960	-200.000	0.059	-0.325
-381.946	-65.768	0.295	-0.118
-380.931	-122.136	-0.291	0.048
-379.917	69.733	-0.083	-0.085
-378.902	-100.469	0.088	-0.022
-377.888	150.874	0.197	0.266
-376.873	-172.847	0.297	0.009
-375.858	-120.136	0.190	0.032
-374.844	-154.593	0.231	0.015
-373.829	-200.000	0.018	0.096
-372.815	56.335	0.214	0.207
-371.800	-119.098	0.331	-0.058
-370.785	314.571	0.091	0.170
-369.771	170.265	-0.100	0.143
-368.756	383.703	-0.086	-0.177
-367.742	-24.751	0.022	0.013
-366.727	-111.186	-0.114	-0.023
-365.712	405.395	-0.019	-0.039
-364.698	739.882	-0.060	-0.159
-363.683	400.885	-0.104	0.217
-362.669	-58.272	0.256	-0.111
-361.654	-131.601	-0.212	0.028
-360.639	-111.204	-0.292	-0.059
-359.625	-200.000	0.006	0.028
-358.610	380.309	0.088	0.179
-357.596	118.388	0.137	0.168
-356.581	-200.000	-0.024	0.252
-355.566	186.809	-0.030	0.045
-354.552	13.816	0.246	0.190
-353.537	-188.855	0.446	-0.005
-352.523	-99.665	-0.224	0.056
-351.508	64.503	0.129	-0.129
-350.493	-200.000	0.041	0.199
-349.479	-170.123	0.357	0.013
-348.464	-96.042	-0.180	-0.048
-347.450	208.481	0.140	0.217
-346.435	-200.000	0.042	0.226
-345.420	750.625	0.066	0.178
-344.406	267.448	0.188	0.327
-343.391	166.109	0.197	-0.277
-342.377	-126.905	0.238	0.035
-341.362	-200.000	-0.026	0.118
-340.348	-4.993	-0.087	-0.059
-339.333	800.000	0.023	0.080
-338.318	-1.687	-0.099	0.070
-337.304	-91.963	-0.144	0.041
-336.289	-200.000	0.002	0.088
-335.275	-46.328	0.165	-0.080
-334.260	228.502	-0.087	0.142
-333.245	800.000	-0.069	-0.194
-332.231	72.630	-0.112	-0.116
-331.216	-115.513	-0.135	0.025
-330.202	53.295	0.199	-0.190
-329.187	-200.000	0.000	-0.258
-328.172	-33.702	-0.234	-0.128
-327.158	79.441	0.154	-0.164
-326.143	-95.245	0.168	0.045
-325.129	12.325	0.277	0.212
-324.114	-66.882	0.167	-0.066
-323.099	-84.412	-0.256	0.080
-322.085	30.378	-0.135	0.114
-321.070	439.463	0.041	0.090
-320.056	-78.552	0.285	-0.097
-319.041	5.244	-0.085	-0.062
-318.026	-79.278	0.208	0.070
-317.012	128.136	0.250	-0.315
-315.997	-112.148	-0.118	0.023
-314.983	-23.017	-0.239	-0.143
-313.968	-44.114	0.134	0.067
-312.953	-50.136	0.594	-0.279
-311.939	526.113	0.039	0.090
-310.924	-58.209	-0.173	-0.075
-309.910	-200.000	0.004	-0.163
-308.895	19.672	-0.204	-0.163
-307.880	-18.064	0.186	0.116
-306.866	277.911	-0.124	-0.219
-305.851	-200.000	-0.011	0.124
-304.837	20.487	-0.144	0.115
-303.822	-151.705	-0.165	-0.012
-302.807	-193.837	-0.220	-0.002
-301.793	-147.469	-0.200	-0.017
-300.778	-200.000	0.026	0.256
-299.764	-119.725	-0.108	-0.018
-298.749	-17.259	0.293	0.183
-297.735	351.774	0.071	-0.140
-296.720	308.155	0.091	0.168
-295.705	800.000	0.021	0.062
-294.691	-22.176	-0.247	0.149
-293.676	-101.446	0.289	0.070
-292.662	119.813	-0.134	-0.164
-291.647	113.404	-0.298	-0.359
-290.632	10.735	-0.286	0.216
-289.618	12.087	0.064	-0.049
-288.603	800.000	-0.067	0.271
-287.589	104.230	0.155	-0.180
-286.574	800.000	0.052	0.145
-285.559	19.567	-0.213	0.170
-284.545	-86.179	-0.157	0.048
-283.530	800.000	0.134	0.444
-282.516	34.432	0.152	-0.131
-281.501	-61.441	0.196	0.082
-280.486	-113.776	0.299	0.058
-279.472	513.353	-0.188	-0.435
-278.457	-0.681	-0.135	0.095
-277.443	-66.470	0.303	-0.119
-276.428	464.423	0.148	-0.327
-275.413	-153.773	0.450	0.031
-274.399	7.521	0.124	0.092
-273.384	325.110	-0.057	0.108
-272.370	-65.047	0.200	-0.080
-271.355	276.930	-0.107	-0.189
-270.340	255.233	0.191	-0.324
-269.326	-68.504	-0.311	-0.120
-268.311	-125.536	-0.345	0.052
-267.297	99.009	-0.085	-0.097
-266.282	-66.526	-0.166	-0.065
-265.267	-31.704	0.065	-0.036
-264.253	-78.866	0.300	-0.101
-263.238	-135.135	0.062	0.007
-262.224	-133.399	0.096	-0.012
-261.209	-134.725	-0.102	0.012
-260.195	-113.296	0.175	0.034
-259.180	182.157	0.030	0.044
-258.165	-149.291	0.161	0.013
-257.151	-95.336	-0.093	0.025
-256.136	800.000	-0.122	-0.413
-255.122	114.869	-0.089	0.107
-254.107	116.083	0.057	0.069
-253.092	-59.518	-0.129	0.055
-252.078	-200.000	-0.009	-0.184
-251.063	-78.670	0.257	-0.087
-250.049	800.000	-0.031	0.088
-249.034	-200.000	0.010	0.560
-248.019	98.095	-0.208	0.237
-247.005	165.545	0.117	-0.163
-245.990	572.552	-0.165	-0.399
-244.976	464.025	0.049	-0.108
-243.961	5.220	0.168	0.122
-242.946	657.072	-0.085	0.216
-241.932	143.160	-0.004	0.005
-240.917	335.338	0.037	-0.070
-239.903	-59.652	0.141	-0.060
-238.888	-160.384	0.441	-0.023
-237.873	555.777	0.037	-0.087
-236.859	329.946	-0.119	-0.226
-235.844	19.305	0.162	-0.129
-234.830	-105.673	0.098	-0.022
-233.815	370.534	0.052	0.104
-232.800	182.974	-0.209	-0.305
-231.786	49.277	-0.224	0.208
-230.771	-103.598	-0.147	-0.034
-229.757	73.800	-0.219	-0.227
-228.742	69.278	-0.053	-0.054
-227.727	171.475	0.208	0.295
-226.713	-83.080	-0.135	-0.043
-225.698	800.000	-0.063	-0.203
-224.684	-108.309	-0.435	0.093
-223.669	-98.324	0.206	0.052
-222.655	12.080	0.137	0.104
-221.640	79.839	-0.073	0.078
-220.625	-151.232	-0.259	0.019
-219.611	-11.118	-0.176	0.115
-218.596	-120.689	0.118	0.020
-217.582	-102.595	-0.207	0.049
-216.567	-103.218	-0.132	0.031
-215.552	800.000	-0.024	-0.080
-214.538	-82.533	0.236	0.076
-213.523	151.707	-0.221	0.298
-212.509	15.291	0.134	0.104
-211.494	-10.630	0.031	0.020
-210.479	-200.000	0.001	-0.140
-209.465	75.221	0.190	0.198
-208.450	-200.000	-0.036	0.458
-207.436	-61.131	-0.185	-0.077
-206.421	117.024	-0.093	-0.113
-205.406	278.980	-0.021	-0.036
-204.392	93.505	0.055	0.061
-203.377	-200.000	-0.009	0.131
-202.363	729.207	0.056	0.147
-201.348	-200.000	0.016	-0.142
-200.333	-200.000	0.043	-0.250
-199.319	-41.510	-0.115	-0.058
-198.304	800.000	-0.070	0.279
-197.290	-83.442	-0.097	0.031
-196.275	101.173	-0.120	-0.138
-195.260	800.000	-0.054	-0.202
-194.246	4.527	0.268	0.194
-193.231	167.784	0.061	-0.085
-192.217	-110.263	-0.249	-0.051
-191.202	481.060	0.043	-0.096
-190.187	-43.330	0.303	0.151
-189.173	157.842	0.049	-0.066
-188.158	316.530	0.151	0.282
-187.144	-200.000	-0.022	0.182
-186.129	1.913	-0.198	-0.141
-185.114	64.787	-0.150	-0.150
-184.100	-63.452	-0.217	0.088
-183.085	800.000	0.096	0.263
-182.071	205.197	0.206	0.316
-181.056	-108.626	0.261	-0.055
-180.042	95.822	0.137	-0.154
-179.027	-166.998	0.005	-0.000
-178.012	-69.539	0.048	0.018
-176.998	-63.970	0.284	0.115
-175.983	-1.397	0.328	0.228
-174.969	285.311	-0.221	0.393
-173.954	-124.324	-0.257	0.040
-172.939	585.972	0.061	-0.148
-171.925	-91.989	-0.475	0.133
-170.910	800.000	-0.036	-0.138
-169.896	79.149	0.080	-0.085
-168.881	-13.039	-0.089	-0.057
-167.866	-114.430	0.451	0.086
-166.852	-8.738	0.081	0.054
-165.837	125.729	-0.216	0.269
-164.823	-132.495	0.217	-0.028
-163.808	-59.592	0.176	-0.075
-162.793	265.520	-0.101	-0.174
-161.779	152.949	-0.035	-0.047
-160.764	-200.000	-0.020	-0.151
-159.750	-57.602	0.234	-0.101
-158.735	-30.010	-0.167	0.094
-157.720	800.000	-0.075	0.286
-156.706	185.570	0.191	-0.280
-155.691	800.000	-0.029	0.080
-154.677	-200.000	-0.059	0.285
-153.662	-88.952	0.304	-0.089
-152.647	-181.834	0.163	0.003
-151.633	-131.379	0.383	0.050
-150.618	-185.777	0.144	-0.002
-149.604	-64.507	-0.171	0.068
-148.589	256.482	0.067	-0.113
-147.574	72.088	0.186	-0.191
-146.560	-200.000	0.011	-0.313
-145.545	-120.618	-0.593	0.099
-144.531	280.431	0.137	0.242
-143.516	-12.646	0.208	-0.134
-142.502	-56.590	0.075	0.033
-141.487	-200.000	-0.097	0.537
-140.472	-22.134	0.202	0.121
-139.458	-83.252	-0.243	0.077
-138.443	254.975	0.050	0.085
-137.429	126.037	0.211	0.263
-136.414	12.480	-0.254	-0.193
-135.399	800.000	0.062	-0.252
-134.385	-124.233	-0.324	-0.050
-133.370	-200.000	-0.020	0.544
-132.356	-160.620	-0.159	-0.008
-131.341	40.828	-0.163	0.145
-130.326	281.598	-0.065	-0.115
-129.312	-21.938	-0.300	0.180
-128.297	99.484	0.088	0.100
-127.283	42.436	0.143	-0.128
-126.268	-6.215	-0.032	0.022
-125.253	-125.299	0.123	0.019
-124.239	-200.000	-0.009	0.505
-123.224	181.935	-0.061	0.089
-122.210	348.654	-0.092	0.179
-121.195	-125.959	-0.125	0.019
-120.180	43.386	-0.250	-0.225
-119.166	-138.585	-0.076	-0.008
-118.151	19.063	-0.309	0.244
-117.137	-15.954	0.175	-0.109
-116.122	-200.000	0.005	0.144
-115.107	32.486	-0.182	-0.155
-114.093	800.000	-0.060	0.231
-113.078	-200.000	0.009	0.177
-112.064	-92.431	0.320	0.088
-111.049	-97.550	0.195	0.050
-110.034	336.794	-0.006	-0.012
-109.020	49.748	-0.351	0.326
-108.005	-60.214	-0.082	-0.034
-106.991	136.660	0.149	0.192
-105.976	-200.000	0.026	0.165
-104.962	800.000	-0.085	0.248
-103.947	-168.232	-0.159	0.006
-102.932	800.000	0.072	0.248
-101.918	-143.318	-0.018	-0.002
-100.903	45.414	-0.103	-0.094
-99.889	132.563	0.186	-0.236
-98.874	-77.266	0.146	0.050
-97.859	-28.205	-0.072	0.041
-96.845	-28.276	-0.327	-0.186
-95.830	-131.488	0.233	0.030
-94.816	-31.188	0.176	-0.097
-93.801	6.348	-0.120	-0.088
-92.786	-200.000	0.140	-0.000
-91.772	20.374	0.141	-0.112
-90.757	-200.000	0.056	0.325
-89.743	-99.549	0.084	0.021
-88.728	-200.000	0.013	0.144
-87.713	-73.105	0.085	0.031
-86.699	800.000	0.054	0.193
-85.684	173.693	0.219	0.311
-84.670	737.835	0.134	0.354
-83.655	88.249	-0.126	0.137
-82.640	85.579	-0.161	0.174
-81.626	-136.364	0.219	0.025
-80.611	22.510	-0.214	0.172
-79.597	-159.209	0.176	0.010
-78.582	131.537	-0.161	-0.204
-77.567	-99.738	0.114	0.028
-76.553	205.294	0.205	0.313
-75.538	47.167	0.104	0.095
-74.524	-75.213	0.114	-0.040
-73.509	243.377	0.090	0.148
-72.494	15.331	0.097	0.075
-71.480	-161.853	-0.323	-0.016
-70.465	263.965	0.141	0.242
-69.451	-40.765	-0.207	0.105
-68.436	-55.762	0.113	-0.049
-67.422	800.000	-0.158	0.522
-66.407	-123.472	-0.192	-0.030
-65.392	800.000	0.087	0.322
-64.378	-136.402	0.603	0.069
-63.363	-200.000	-0.033	0.297
-62.349	-33.236	-0.623	0.339
-61.334	0.437	-1.095	-0.768
-60.319	255.495	0.398	0.671
-59.305	392.000	-0.461	-0.942
-58.290	283.268	0.572	1.009
-57.276	736.849	0.628	1.654
-56.261	-200.000	94.965	576.518
-55.246	509.564	1406.415	3211.312
-54.232	151.683	2623.961	3512.120
-53.217	104.281	2330.510	2693.628
-52.203	40.983	1948.916	1728.259
-51.188	34.561	1735.304	1488.873
-50.173	31.961	1690.846	1430.873
-49.159	49.655	1736.641	1606.587
-48.144	51.187	1752.851	1633.336
-47.130	34.269	1715.016	1468.980
-46.115	31.516	1700.659	1435.533
-45.100	31.428	1695.026	1430.043
-44.086	31.329	1692.731	1427.295
-43.071	31.286	1690.042	1424.648
-42.057	31.205	1687.890	1422.159
-41.042	31.294	1685.676	1420.915
-40.027	31.292	1683.615	1419.104
-39.013	31.269	1681.559	1417.140
-37.998	31.171	1680.081	1415.097
-36.984	31.261	1678.843	1414.676
-35.969	31.326	1677.683	1414.139
-34.954	31.444	1675.509	1413.142
-33.940	31.394	1673.969	1411.408
-32.925	31.440	1672.256	1410.257
-31.911	31.296	1670.782	1407.871
-30.896	31.384	1668.328	1406.410
-29.881	31.293	1666.841	1404.418
-28.867	31.259	1665.657	1403.107
-27.852	31.326	1663.435	1401.681
-26.838	31.417	1662.121	1401.200
-25.823	31.325	1661.071	1399.573
-24.809	31.486	1659.203	1399.147
-23.794	31.297	1658.120	1396.765
-22.779	31.425	1656.622	1396.402
-21.765	31.370	1655.160	1394.704
-20.750	31.414	1652.890	1393.067
-19.736	31.417	1651.618	1391.956
-18.721	31.406	1650.594	1390.956
-17.706	31.383	1648.556	1389.014
-16.692	31.473	1646.908	1388.240
-15.677	31.353	1645.979	1386.512
-14.663	31.446	1644.589	1385.976
-13.648	31.375	1643.738	1384.677
-12.633	31.414	1641.473	1383.005
-11.619	31.407	1640.248	1381.866
-10.604	31.449	1638.036	1380.257
-9.590	31.391	1636.936	1378.846
-8.575	31.562	1635.271	1378.648
-7.560	31.498	1634.548	1377.512
-6.546	31.404	1633.455	1375.848
-5.531	31.428	1632.187	1374.902
-4.517	31.235	1631.441	1372.801
-3.502	31.409	1629.983	1372.794
-2.487	31.472	1627.969	1371.509
-1.473	31.450	1616.561	1361.680
-0.458	29.125	1597.538	1328.847
0.556	24.419	1598.320	1294.602
1.571	21.516	1620.929	1291.403
2.586	20.226	1632.555	1290.958
3.600	17.673	1577.991	1229.310
4.615	9.939	1465.286	1089.426
5.629	2.641	1398.903	992.840
6.644	1.151	1390.999	977.539
7.659	1.059	1389.980	976.148
8.673	1.022	1389.207	975.280
9.688	0.898	1386.924	972.792
10.702	0.760	1383.659	969.531
11.717	3.871	1389.104	993.265
12.731	11.617	1400.618	1051.410
13.746	16.524	1407.496	1088.131
14.761	17.396	1407.923	1093.971
15.775	16.951	1405.200	1088.904
16.790	15.856	1403.088	1080.147
17.804	15.039	1400.614	1072.915
18.819	14.509	1399.317	1068.429
19.834	14.349	1397.660	1066.047
20.848	14.103	1396.822	1063.741
21.863	13.965	1394.831	1061.246
22.877	13.785	1393.664	1059.116
23.892	13.650	1393.193	1057.804
24.907	13.595	1392.185	1056.595
25.921	13.696	1391.001	1056.243
26.936	13.707	1390.225	1055.632
27.950	13.770	1389.588	1055.455
28.965	13.755	1388.467	1054.414
29.980	13.865	1387.429	1054.235
30.994	13.865	1386.389	1053.347
32.009	13.920	1385.441	1052.883
33.023	13.772	1384.892	1051.436
34.038	13.861	1383.079	1050.533
35.053	13.753	1382.495	1049.310
36.067	13.770	1381.041	1048.225
37.082	13.747	1380.067	1047.244
38.096	13.830	1379.043	1046.898
39.111	13.761	1378.498	1045.957
40.126	13.744	1377.328	1044.871
41.140	13.723	1376.435	1043.969
42.155	13.709	1375.932	1043.408
43.169	13.673	1375.789	1042.977
44.184	13.665	1375.460	1042.588
45.199	13.605	1375.677	1042.279
46.213	13.653	1374.922	1041.920
47.228	13.776	1373.302	1041.371
48.242	13.676	1372.861	1040.315
49.257	13.767	1370.685	1039.146
50.271	13.738	1369.620	1038.065
51.286	13.733	1368.282	1036.927
52.301	13.658	1367.343	1035.656
53.315	13.747	1365.700	1034.876
54.330	13.805	1364.668	1034.365
55.344	13.703	1363.199	1032.525
56.359	13.661	1362.202	1031.416
57.374	13.629	1361.383	1030.507
58.388	13.607	1360.698	1029.761
59.403	13.649	1359.934	1029.353
60.417	13.669	1359.575	1029.115
61.432	13.600	1358.903	1028.086
62.447	13.664	1357.986	1027.694
63.461	13.587	1356.035	1025.653
64.476	13.535	1355.303	1024.683
65.490	13.632	1354.037	1024.239
66.505	13.535	1352.502	1022.390
67.520	13.589	1351.316	1021.733
68.534	13.694	1349.703	1021.070
69.549	13.690	1349.013	1020.433
70.563	13.654	1347.848	1019.243
71.578	13.592	1347.122	1018.218
72.593	13.570	1345.767	1016.971
73.607	13.497	1345.424	1016.170
74.622	13.536	1344.419	1015.563
75.636	13.521	1343.404	1014.616
76.651	13.450	1343.220	1013.950
77.666	13.571	1342.590	1014.127
78.680	13.624	1341.680	1013.677
79.695	13.583	1341.300	1013.046
80.709	13.561	1340.430	1012.167
81.724	13.649	1338.989	1011.524
82.739	13.646	1338.106	1010.752
83.753	13.682	1337.361	1010.314
84.768	13.763	1336.153	1009.810
85.782	13.795	1334.832	1008.915
86.797	13.794	1333.831	1008.061
87.812	13.688	1332.439	1006.278
88.826	13.685	1331.683	1005.599
89.841	13.754	1330.315	1004.898
90.855	13.817	1329.219	1004.359
91.870	13.806	1328.401	1003.585
92.884	13.745	1327.840	1002.704
93.899	13.863	1326.664	1002.443
94.914	13.900	1326.056	1002.115
95.928	13.917	1325.223	1001.503
96.943	13.820	1324.211	1000.062
97.957	13.773	1323.389	999.073
98.972	13.805	1322.433	998.455
99.987	13.874	1321.215	997.858
101.001	13.819	1320.156	996.644
102.016	13.868	1319.076	996.030
103.030	13.787	1318.353	994.916
104.045	13.764	1317.912	994.351
105.060	13.784	1316.229	993.115
106.074	13.745	1314.896	991.789
107.089	13.701	1313.678	990.518
108.103	13.662	1312.601	989.386
109.118	13.758	1311.124	988.758
110.133	13.699	1310.041	987.505
111.147	13.733	1308.345	986.338
112.162	13.701	1307.137	985.152
113.176	13.778	1306.023	984.680
114.191	13.689	1305.358	983.564
115.206	13.744	1304.015	982.796
116.220	13.630	1302.692	981.034
117.235	13.739	1301.413	980.629
118.249	13.738	1300.257	979.667
119.264	13.697	1299.554	978.805
120.279	13.662	1298.472	977.699
121.293	13.768	1296.997	977.127
122.308	13.687	1296.130	975.910
123.322	13.740	1295.038	975.314
124.337	13.634	1294.271	974.027
125.352	13.692	1293.054	973.364
126.366	13.799	1291.137	972.463
127.381	13.750	1290.214	971.394
128.395	13.683	1289.598	970.450
129.410	13.740	1288.632	969.972
130.424	13.776	1288.023	969.638
131.439	13.791	1286.470	968.472
132.454	13.801	1285.582	967.776
133.468	13.843	1284.751	967.308
134.483	13.771	1284.020	966.256
135.497	13.736	1283.156	965.314
136.512	13.750	1281.506	964.069
137.527	13.721	1280.086	962.749
138.541	13.789	1278.576	961.919
139.556	13.757	1277.389	960.759
140.570	13.851	1276.681	960.683
141.585	13.954	1275.107	960.009
142.600	13.882	1274.067	958.723
143.614	13.888	1273.018	957.888
144.629	13.991	1271.924	957.571
145.643	13.862	1270.959	956.017
146.658	13.864	1269.421	954.788
147.673	13.816	1268.187	953.498
148.687	13.893	1266.853	952.855
149.702	13.775	1265.637	951.178
150.716	13.860	1264.500	950.726
151.731	13.894	1262.929	949.658
152.746	13.963	1261.689	949.035
153.760	13.854	1260.855	947.703
154.775	13.980	1259.416	947.251
155.789	13.908	1258.996	946.446
156.804	13.937	1257.554	945.443
157.819	14.076	1256.411	945.287
158.833	13.987	1255.332	943.887
159.848	14.103	1254.572	943.891
160.862	14.072	1253.543	942.860
161.877	14.058	1252.247	941.722
162.892	14.003	1251.113	940.470
163.906	13.988	1250.308	939.701
164.921	14.095	1249.278	939.445
165.935	14.051	1248.663	938.655
166.950	14.039	1248.243	938.188
167.964	14.038	1247.411	937.470
168.979	14.016	1247.101	937.033
169.994	14.098	1245.744	936.394
171.008	14.111	1245.115	935.907
172.023	14.181	1243.882	935.291
173.037	14.172	1243.042	934.530
174.052	14.088	1242.865	933.838
175.067	14.101	1241.742	932.987
176.081	14.083	1240.487	931.863
177.096	14.157	1239.732	931.627
178.110	14.154	1238.501	930.598
179.125	14.237	1237.438	930.185
180.140	14.219	1235.729	928.715
181.154	14.250	1234.709	928.041
182.169	14.148	1234.042	926.889
183.183	14.226	1232.831	926.334
184.198	14.350	1230.902	925.492
185.213	14.229	1230.540	924.465
186.227	14.307	1229.086	923.720
187.242	14.313	1227.915	922.793
188.256	14.272	1227.564	922.218
189.271	14.361	1226.360	921.726
190.286	14.282	1225.119	920.277
191.300	14.269	1224.172	919.410
192.315	14.225	1223.908	918.889
193.329	14.343	1222.929	918.725
194.344	14.216	1222.745	917.803
195.359	14.347	1221.776	917.717
196.373	14.320	1221.180	917.042
197.388	14.322	1220.963	916.808
198.402	14.419	1220.431	916.861
199.417	14.482	1219.697	916.574
200.432	14.462	1219.186	916.000
201.446	14.558	1217.885	915.465
202.461	14.530	1217.167	914.690
203.475	14.637	1215.855	914.212
204.490	14.560	1214.649	912.803
205.504	14.566	1213.421	911.829
206.519	14.548	1212.279	910.796
207.534	14.519	1211.117	909.685
208.548	14.492	1210.799	909.214
209.563	14.462	1209.895	908.292
210.577	14.605	1208.704	908.096
211.592	14.625	1207.636	907.325
212.607	14.666	1206.756	906.806
213.621	14.646	1205.924	905.990
214.636	14.677	1205.104	905.463
215.650	14.682	1204.001	904.578
216.665	14.693	1203.142	903.912
217.680	14.877	1202.344	904.232
218.694	14.772	1201.317	902.809
219.709	14.730	1200.807	902.119
220.723	14.826	1199.945	901.910
221.738	14.786	1199.099	900.981
222.753	14.802	1198.253	900.352
223.767	14.832	1197.632	899.964
224.782	14.764	1197.645	899.530
225.796	14.972	1196.136	899.438
226.811	14.951	1195.204	898.545
227.826	14.832	1195.026	897.692
228.840	14.931	1194.164	897.493
229.855	14.903	1193.470	896.745
230.869	14.929	1192.311	895.929
231.884	14.976	1191.307	895.349
232.899	14.799	1190.959	894.061
233.913	14.868	1190.134	893.732
234.928	14.877	1189.516	893.237
235.942	14.894	1188.814	892.720
236.957	14.932	1188.028	892.255
237.972	14.900	1187.033	891.261
238.986	14.967	1186.109	890.845
240.001	14.960	1186.148	890.758
241.015	14.972	1184.985	889.866
242.030	15.085	1183.990	889.642
243.045	14.979	1183.155	888.372
244.059	14.993	1182.259	887.696
245.074	15.112	1181.313	887.541
246.088	15.116	1180.725	887.038
247.103	15.098	1179.808	886.177
248.117	15.177	1179.259	886.104
249.132	15.165	1178.399	885.318
250.147	15.185	1177.879	884.952
251.161	15.270	1176.888	884.579
252.176	15.315	1176.129	884.167
253.190	15.267	1175.328	883.235
254.205	15.350	1174.737	883.149
255.220	15.284	1174.460	882.516
256.234	15.309	1173.756	882.039
257.249	15.361	1173.018	881.681
258.263	15.425	1172.435	881.501
259.278	15.339	1171.699	880.418
260.293	15.428	1171.173	880.411
261.307	15.378	1170.331	879.436
262.322	15.407	1170.101	879.338
263.336	15.504	1168.951	878.902
264.351	15.551	1168.529	878.754
265.366	15.505	1168.076	878.094
266.380	15.611	1166.623	877.481
267.395	15.651	1166.162	877.263
268.409	15.516	1165.543	876.018
269.424	15.496	1165.114	875.513
270.439	15.608	1164.076	875.240
271.453	15.555	1163.516	874.463
272.468	15.609	1162.337	873.781
273.482	15.537	1161.642	872.808
274.497	15.602	1161.438	872.913
275.512	15.549	1160.736	872.036
276.526	15.585	1160.037	871.619
277.541	15.623	1158.879	870.870
278.555	15.579	1157.975	869.886
279.570	15.609	1157.521	869.620
280.585	15.724	1156.497	869.370
281.599	15.770	1155.340	868.659
282.614	15.727	1154.557	867.771
283.628	15.789	1153.811	867.453
284.643	15.703	1152.948	866.286
285.657	15.796	1152.013	865.985
286.672	15.850	1150.777	865.260
287.687	15.809	1150.083	864.448
288.701	15.856	1149.737	864.356
289.716	15.861	1148.634	863.475
290.730	15.843	1147.982	862.814
291.745	15.792	1147.679	862.249
292.760	16.004	1146.392	862.290
293.774	15.880	1146.171	861.413
294.789	15.985	1145.243	861.178
295.803	15.954	1144.725	860.556
296.818	15.877	1144.272	859.744
297.833	16.004	1143.217	859.522
298.847	16.057	1142.192	858.948
299.862	16.012	1141.199	857.894
300.876	15.989	1141.077	857.609
301.891	16.091	1140.238	857.422
302.906	16.035	1139.697	856.656
303.920	16.199	1138.874	856.795
304.935	16.155	1138.028	855.858
305.949	16.150	1137.440	855.316
306.964	16.214	1136.833	855.106
307.979	16.266	1136.143	854.775
308.993	16.169	1135.506	853.731
310.008	16.147	1135.073	853.217
311.022	16.189	1133.885	852.460
312.037	16.217	1132.834	851.736
313.052	16.150	1132.378	850.979
314.066	16.123	1131.147	849.845
315.081	16.196	1130.369	849.553
316.095	16.136	1129.855	848.787
317.110	16.162	1129.092	848.270
318.125	16.148	1127.925	847.251
319.139	16.280	1127.181	847.277
320.154	16.292	1126.514	846.761
321.168	16.216	1125.954	845.886
322.183	16.260	1125.655	845.806
323.197	16.366	1124.889	845.687
324.212	16.329	1123.907	844.690
325.227	16.358	1123.524	844.471
326.241	16.288	1123.143	843.759
327.256	16.432	1121.779	843.380
328.270	16.365	1121.032	842.408
329.285	16.251	1120.249	841.179
330.300	16.390	1119.022	840.872
331.314	16.258	1118.162	839.498
332.329	16.348	1117.779	839.580
333.343	16.369	1116.812	838.887
334.358	16.387	1115.728	838.088
335.373	16.501	1115.101	838.105
336.387	16.508	1114.445	837.575
337.402	16.600	1113.326	837.113
338.416	16.482	1113.119	836.301
339.431	16.472	1112.493	835.705
340.446	16.547	1111.909	835.565
341.460	16.657	1110.670	835.102
342.475	16.663	1110.000	834.554
343.489	16.559	1109.141	833.321
344.504	16.658	1107.819	832.744
345.519	16.679	1107.247	832.343
346.533	16.693	1106.550	831.814
347.548	16.742	1105.865	831.464
348.562	16.858	1104.760	831.130
349.577	16.763	1103.770	829.848
350.592	16.719	1103.630	829.450
351.606	16.765	1102.704	828.907
352.621	16.677	1101.958	827.842
353.635	16.752	1101.309	827.647
354.650	16.682	1100.800	826.851
355.665	16.721	1100.334	826.618
356.679	16.742	1099.265	825.846
357.694	16.858	1098.477	825.743
358.708	16.753	1098.189	824.942
359.723	16.914	1097.486	825.128
360.738	16.878	1096.432	824.085
361.752	16.914	1096.090	823.930
362.767	16.911	1095.692	823.542
363.781	17.020	1094.751	823.293
364.796	17.054	1094.267	823.023
365.810	16.963	1093.899	822.231
366.825	17.130	1092.963	822.261
367.840	17.047	1092.673	821.570
368.854	17.150	1091.919	821.428
369.869	17.130	1091.046	820.602
370.883	17.207	1090.175	820.247
371.898	17.223	1089.318	819.608
372.913	17.201	1088.925	819.132
373.927	17.128	1088.849	818.650
374.942	17.150	1088.153	818.159
375.956	17.183	1087.301	817.606
376.971	17.190	1086.825	817.207
377.986	17.267	1086.138	816.989
379.000	17.221	1085.819	816.459
380.015	17.244	1085.188	816.023
381.029	17.312	1084.388	815.676
382.044	17.252	1083.882	814.932
383.059	17.305	1082.948	814.412
384.073	17.241	1082.318	813.560
385.088	17.391	1081.318	813.453
386.102	17.388	1080.462	812.724
387.117	17.338	1079.448	811.649
388.132	17.343	1078.360	810.783
389.146	17.271	1078.112	810.184
390.161	17.254	1077.569	809.624
391.175	17.261	1076.550	808.818
392.190	17.321	1075.681	808.378
393.205	17.521	1075.123	808.838
394.219	17.382	1074.322	807.506
395.234	17.361	1073.545	806.751
396.248	17.322	1072.629	805.803
397.263	17.297	1071.611	804.851
398.278	17.464	1070.470	804.712
399.292	17.445	1070.014	804.209
400.307	17.349	1069.466	803.274
401.321	17.448	1068.754	803.132
402.336	17.514	1068.157	802.924
403.350	17.518	1066.963	801.975
404.365	17.549	1066.548	801.737
405.380	17.529	1065.986	801.151
406.394	17.583	1065.134	800.694
407.409	17.594	1064.080	799.880
408.423	17.652	1063.260	799.466
409.438	17.644	1062.331	798.662
410.453	17.671	1061.978	798.453
411.467	17.636	1061.773	798.062
412.482	17.712	1060.863	797.663
413.496	17.677	1060.314	797.018
414.511	17.855	1059.365	797.062
415.526	17.790	1059.248	796.602
416.540	17.806	1058.570	796.093
417.555	17.865	1058.272	796.075
418.569	17.980	1057.131	795.686
419.584	17.944	1056.780	795.180
420.599	17.973	1056.277	794.869
421.613	103.302	1322.201	1464.086
422.628	95.284	1360.897	1464.191
