DTS Sentinel unit serial number:	SN413079Multiplexer serial number:	ORYXHardware model number:	OX4-SRSoftware version number:	ORYX F/W v4.00 Oryx Data Collector v3.7.2.0data status	okinstallation	princeton_trtdifferential loss correction	single-endedforward channel	channel 2reverse channel	N/Adate	2019/09/19time	06:27:35forward acquisition time	60.00reverse acquisition time	0.00gamma	496.2192k internal	0.2350k external	0.2350temperature offset calibration	1.0013default loss term (dB/km)	0.3790temperature slope calibration	1.0000multiplexer offset coefficient	1.0000multiplexer slope coefficient	1.0000fibre end	0.00T internal ref (°C)	19.05T ext. ref 1 (°C)	0.56T ext. ref 2 (°C)	12.85length (m)	temperature (°C)	Stokes	anti-Stokes-747.200	-200.000	-0.005	-0.065
-746.185	221.895	-0.128	0.206
-745.171	-200.000	-0.028	0.221
-744.156	-144.366	-0.466	0.043
-743.142	800.000	-0.053	0.166
-742.127	-200.000	0.010	0.169
-741.112	-6.386	-0.064	0.043
-740.098	800.000	-0.059	0.228
-739.083	-163.930	0.421	-0.020
-738.069	32.383	-0.252	-0.217
-737.054	-200.000	0.039	-0.341
-736.039	-50.973	-0.085	0.040
-735.025	462.999	-0.014	0.032
-734.010	-200.000	0.052	-0.295
-732.996	-81.414	-0.385	0.126
-731.981	800.000	0.060	-0.225
-730.966	56.769	-0.059	0.058
-729.952	-93.742	-0.207	-0.057
-728.937	120.028	-0.283	0.351
-727.923	-114.351	-0.200	0.038
-726.908	-57.662	0.326	-0.142
-725.894	-9.518	-0.156	0.104
-724.879	-5.431	-0.164	-0.112
-723.864	10.495	-0.214	-0.162
-722.850	18.190	-0.239	-0.190
-721.835	-127.407	-0.497	-0.072
-720.821	-52.570	-0.267	0.123
-719.806	93.041	-0.084	0.095
-718.791	-24.727	-0.104	-0.062
-717.777	-200.000	-0.068	-0.369
-716.762	-113.703	-0.115	0.022
-715.748	800.000	-0.116	0.405
-714.733	-200.000	-0.011	0.151
-713.718	100.641	-0.191	-0.222
-712.704	-82.792	0.133	0.043
-711.689	121.951	-0.104	-0.129
-710.675	-123.622	-0.187	-0.030
-709.660	-200.000	0.009	-0.140
-708.645	84.555	-0.250	-0.273
-707.631	339.515	-0.064	-0.124
-706.616	19.082	-0.034	0.027
-705.602	89.439	-0.181	-0.202
-704.587	-200.000	-0.017	-0.093
-703.572	86.561	0.101	-0.111
-702.558	800.000	0.035	-0.144
-701.543	-67.902	-0.267	-0.104
-700.529	433.361	0.150	-0.324
-699.514	-152.602	-0.102	-0.007
-698.499	-200.000	-0.051	-0.308
-697.485	450.539	-0.077	-0.170
-696.470	15.601	0.142	-0.111
-695.456	-200.000	0.007	-0.082
-694.441	-69.578	-0.166	0.063
-693.426	-148.440	0.121	0.010
-692.412	232.469	-0.061	-0.100
-691.397	-200.000	-0.038	-0.207
-690.383	-88.648	-0.354	-0.105
-689.368	-24.927	-0.077	-0.045
-688.354	-86.738	-0.089	-0.027
-687.339	-83.601	-0.454	0.145
-686.324	12.578	-0.128	-0.098
-685.310	190.591	0.205	-0.307
-684.295	-165.184	-0.185	-0.008
-683.281	800.000	0.095	-0.355
-682.266	-60.731	-0.077	-0.033
-681.251	-54.996	-0.348	-0.156
-680.237	741.158	0.099	-0.266
-679.222	31.291	0.114	-0.097
-678.208	-82.845	-0.188	0.060
-677.193	-84.702	0.177	-0.055
-676.178	734.984	0.030	-0.081
-675.164	99.233	0.161	-0.185
-674.149	-115.299	-0.126	0.024
-673.135	2.506	-0.130	0.093
-672.120	426.104	0.154	0.330
-671.105	-200.000	0.004	-0.173
-670.091	-89.390	-0.206	0.061
-669.076	223.701	-0.118	-0.189
-668.062	-22.601	-0.146	-0.088
-667.047	-94.439	0.145	-0.039
-666.032	-52.227	0.228	-0.105
-665.018	-7.310	-0.194	0.131
-664.003	58.684	-0.186	-0.182
-662.989	800.000	0.057	0.163
-661.974	-36.751	-0.094	-0.050
-660.959	32.939	-0.128	-0.111
-659.945	-72.062	-0.329	0.122
-658.930	120.591	-0.119	-0.148
-657.916	-107.921	-0.335	-0.073
-656.901	-69.615	-0.146	0.056
-655.886	35.314	-0.312	-0.272
-654.872	237.358	-0.022	0.037
-653.857	-66.042	0.213	0.085
-652.843	214.695	-0.224	-0.353
-651.828	800.000	-0.037	0.133
-650.814	800.000	-0.034	0.112
-649.799	-200.000	-0.008	-0.108
-648.784	-84.284	0.327	0.103
-647.770	-183.020	-0.117	0.002
-646.755	58.694	-0.260	-0.254
-645.741	15.237	-0.213	0.166
-644.726	800.000	-0.043	-0.124
-643.711	256.080	0.198	-0.338
-642.697	-200.000	-0.026	0.164
-641.682	-107.994	-0.396	-0.086
-640.668	644.613	0.075	0.190
-639.653	324.111	-0.110	-0.209
-638.638	263.628	-0.057	-0.099
-637.624	800.000	0.017	-0.048
-636.609	194.906	-0.014	0.021
-635.595	-18.681	0.125	-0.078
-634.580	645.514	-0.039	-0.098
-633.565	-124.544	0.165	-0.026
-632.551	800.000	0.115	0.389
-631.536	-82.348	0.194	-0.063
-630.522	24.264	0.440	-0.361
-629.507	-200.000	0.000	0.030
-628.492	-89.922	0.155	-0.045
-627.478	-200.000	0.018	-0.167
-626.463	-142.850	-0.090	0.009
-625.449	-74.317	-0.173	-0.062
-624.434	-200.000	0.019	0.098
-623.419	555.242	0.055	-0.131
-622.405	-27.669	-0.217	-0.125
-621.390	93.530	0.170	-0.192
-620.376	-200.000	0.024	0.118
-619.361	144.726	-0.151	0.200
-618.346	23.069	0.206	-0.168
-617.332	133.377	-0.238	-0.305
-616.317	-200.000	0.085	-0.376
-615.303	443.821	-0.028	0.060
-614.288	800.000	0.078	0.227
-613.273	-109.179	0.210	0.044
-612.259	800.000	0.041	0.158
-611.244	-200.000	0.017	-0.211
-610.230	-78.395	0.319	-0.109
-609.215	-107.044	0.351	0.077
-608.201	-126.346	-0.024	-0.004
-607.186	-200.000	0.008	0.157
-606.171	-96.300	-0.298	-0.078
-605.157	-74.969	0.400	0.142
-604.142	800.000	-0.041	0.128
-603.128	800.000	0.079	-0.326
-602.113	-121.596	0.312	-0.051
-601.098	277.852	0.050	0.088
-600.084	17.482	0.046	-0.037
-599.069	142.550	-0.097	-0.128
-598.055	28.052	-0.340	0.285
-597.040	-14.052	-0.188	0.120
-596.025	34.893	0.281	-0.244
-595.011	-92.376	0.199	-0.055
-593.996	800.000	-0.035	-0.120
-592.982	-109.329	0.407	0.086
-591.967	-173.549	-0.060	-0.002
-590.952	123.911	-0.196	-0.244
-589.938	-200.000	-0.057	-0.308
-588.923	-90.853	-0.023	0.007
-587.909	158.790	0.252	-0.348
-586.894	87.087	-0.209	-0.229
-585.879	-200.000	-0.005	0.063
-584.865	-51.168	-0.235	0.109
-583.850	109.566	0.155	-0.185
-582.836	446.941	-0.040	0.087
-581.821	5.123	-0.166	-0.121
-580.806	34.097	0.173	-0.150
-579.792	51.147	0.272	-0.256
-578.777	-88.310	-0.167	0.050
-577.763	170.903	0.039	-0.056
-576.748	800.000	0.026	0.106
-575.733	178.791	-0.085	-0.123
-574.719	-108.621	-0.617	0.131
-573.704	-118.044	0.211	-0.037
-572.690	46.255	0.098	0.090
-571.675	-55.772	-0.117	-0.052
-570.661	118.114	-0.168	-0.205
-569.646	-43.937	0.526	-0.262
-568.631	-200.000	0.006	-0.359
-567.617	278.764	0.045	0.080
-566.602	-129.177	0.224	-0.031
-565.588	-200.000	0.003	0.222
-564.573	-200.000	0.018	0.152
-563.558	-170.015	-0.264	0.009
-562.544	-200.000	-0.019	0.128
-561.529	-200.000	-0.028	-0.242
-560.515	-72.220	-0.282	0.104
-559.500	-95.640	-0.046	0.012
-558.485	-200.000	-0.015	-0.232
-557.471	800.000	-0.041	0.134
-556.456	-200.000	0.016	-0.116
-555.442	28.824	-0.144	-0.121
-554.427	800.000	0.076	0.231
-553.412	318.492	0.070	-0.132
-552.398	107.639	-0.229	-0.270
-551.383	-200.000	0.019	-0.161
-550.369	-152.471	0.328	-0.023
-549.354	-67.969	-0.299	0.116
-548.339	637.716	-0.119	-0.300
-547.325	265.430	0.035	0.061
-546.310	-126.727	-0.463	-0.068
-545.296	800.000	-0.046	-0.146
-544.281	468.497	-0.139	-0.308
-543.266	800.000	-0.101	0.276
-542.252	-36.813	-0.112	0.059
-541.237	56.884	-0.387	-0.373
-540.223	140.745	0.031	0.040
-539.208	46.713	-0.312	0.287
-538.193	-181.613	0.186	-0.004
-537.179	358.615	0.038	0.076
-536.164	-59.459	0.183	-0.078
-535.150	52.000	-0.153	0.145
-534.135	-47.535	0.119	-0.057
-533.121	-200.000	-0.041	0.347
-532.106	800.000	0.051	-0.179
-531.091	-126.410	-0.187	0.028
-530.077	800.000	0.020	-0.062
-529.062	33.413	-0.150	0.129
-528.048	-162.763	-0.162	0.008
-527.033	-32.264	-0.273	-0.151
-526.018	-137.176	-0.116	-0.013
-525.004	440.823	0.100	0.215
-523.989	-82.818	-0.078	0.025
-522.975	-119.588	-0.094	0.016
-521.960	-200.000	0.005	-0.156
-520.945	665.467	-0.086	0.219
-519.931	4.497	-0.184	0.133
-518.916	218.410	0.169	0.266
-517.902	477.271	0.033	-0.074
-516.887	-200.000	-0.042	0.222
-515.872	512.100	0.145	-0.333
-514.858	-200.000	-0.014	0.062
-513.843	81.585	0.372	0.399
-512.829	800.000	-0.102	-0.432
-511.814	589.380	0.075	-0.182
-510.799	180.643	-0.067	0.098
-509.785	-200.000	-0.014	0.186
-508.770	800.000	-0.028	0.090
-507.756	285.341	0.170	0.303
-506.741	-135.230	0.357	0.042
-505.726	-5.758	0.209	0.142
-504.712	-42.894	-0.150	-0.075
-503.697	-2.891	-0.233	-0.161
-502.683	94.523	-0.096	-0.108
-501.668	49.075	0.306	0.284
-500.653	774.062	-0.021	0.056
-499.639	-200.000	0.009	-0.159
-498.624	205.167	0.079	-0.121
-497.610	-49.311	0.134	0.063
-496.595	192.559	-0.134	0.200
-495.581	-200.000	-0.034	-0.192
-494.566	383.123	0.107	0.218
-493.551	93.899	0.086	0.097
-492.537	787.560	0.043	-0.116
-491.522	-0.679	-0.132	0.092
-490.508	128.316	-0.079	-0.100
-489.493	-129.072	-0.238	-0.033
-488.478	121.642	0.119	-0.146
-487.464	800.000	0.106	0.374
-486.449	705.052	-0.157	0.409
-485.435	-135.104	-0.406	0.048
-484.420	9.712	-0.121	0.091
-483.405	-31.836	-0.144	-0.080
-482.391	-77.688	-0.121	0.041
-481.376	-200.000	0.018	-0.263
-480.362	-43.789	0.183	-0.091
-479.347	800.000	-0.057	-0.235
-478.332	184.879	0.081	0.118
-477.318	-128.097	0.118	0.017
-476.303	-74.678	-0.239	0.085
-475.289	103.107	-0.274	-0.318
-474.274	-37.060	-0.165	-0.087
-473.259	549.417	0.072	-0.170
-472.245	32.160	-0.196	0.167
-471.230	335.502	0.072	-0.138
-470.216	28.240	0.335	0.280
-469.201	800.000	0.088	-0.321
-468.186	-10.726	-0.241	-0.158
-467.172	-45.293	0.027	-0.013
-466.157	-34.862	0.275	0.148
-465.143	-72.964	-0.461	0.167
-464.128	-200.000	0.022	-0.197
-463.113	-200.000	0.029	-0.220
-462.099	-49.988	-0.199	-0.093
-461.084	56.884	-0.099	-0.095
-460.070	-129.292	0.279	-0.038
-459.055	-200.000	-0.103	0.521
-458.040	-54.447	-0.142	-0.063
-457.026	169.344	0.200	0.282
-456.011	112.424	0.062	0.074
-454.997	228.695	0.135	0.217
-453.982	519.647	0.141	-0.326
-452.968	-200.000	0.031	-0.195
-451.953	135.687	-0.145	-0.186
-450.938	-126.308	-0.163	0.024
-449.924	511.758	-0.089	-0.204
-448.909	116.281	-0.209	0.253
-447.895	378.793	0.108	0.217
-446.880	100.849	0.117	0.135
-445.865	-32.235	-0.119	-0.066
-444.851	88.279	0.267	-0.292
-443.836	83.531	0.119	0.128
-442.822	196.523	-0.149	0.224
-441.807	117.900	-0.181	0.220
-440.792	-42.882	-0.195	-0.098
-439.778	795.924	-0.116	0.315
-438.763	244.287	-0.167	0.276
-437.749	106.206	0.132	0.154
-436.734	290.756	0.014	-0.026
-435.719	-200.000	-0.000	-0.234
-434.705	-96.727	0.295	-0.077
-433.690	85.890	0.111	0.121
-432.676	217.233	0.217	-0.340
-431.661	-200.000	0.000	-0.032
-430.646	-200.000	-0.039	0.218
-429.632	187.924	-0.173	0.255
-428.617	-76.752	-0.299	-0.103
-427.603	-45.111	-0.333	-0.163
-426.588	464.476	-0.186	-0.409
-425.573	295.560	0.067	-0.122
-424.559	-113.134	0.146	-0.028
-423.544	800.000	-0.077	-0.214
-422.530	-98.751	0.118	0.030
-421.515	502.351	-0.127	0.289
-420.500	229.208	-0.056	0.090
-419.486	181.120	0.075	-0.108
-418.471	-120.697	-0.204	-0.034
-417.457	800.000	-0.117	0.326
-416.442	-33.649	0.126	-0.068
-415.428	304.740	-0.121	0.221
-414.413	800.000	-0.017	0.072
-413.398	309.642	-0.051	0.093
-412.384	144.338	-0.137	0.180
-411.369	800.000	-0.041	-0.128
-410.355	226.174	-0.214	0.341
-409.340	-200.000	0.001	-0.224
-408.325	-200.000	-0.024	-0.167
-407.311	-42.281	-0.198	-0.100
-406.296	-176.833	-0.148	-0.004
-405.282	33.713	0.233	0.200
-404.267	99.865	0.143	-0.163
-403.252	-117.320	0.323	-0.058
-402.238	-138.764	-0.079	-0.008
-401.223	-200.000	0.045	0.279
-400.209	-173.889	-0.525	0.015
-399.194	-95.386	-0.315	-0.083
-398.179	800.000	0.033	-0.123
-397.165	369.432	0.084	0.167
-396.150	579.139	0.099	0.238
-395.136	118.295	0.138	0.168
-394.121	-25.275	0.245	-0.143
-393.106	-62.355	-0.166	-0.068
-392.092	465.886	0.074	-0.163
-391.077	-22.288	-0.313	-0.187
-390.063	196.293	0.224	0.336
-389.048	-200.000	-0.029	0.130
-388.033	-200.000	0.061	-0.286
-387.019	-200.000	-0.009	0.043
-386.004	-18.463	-0.206	-0.127
-384.990	54.908	0.015	-0.015
-383.975	-57.923	0.239	-0.103
-382.960	-105.838	0.212	0.047
-381.946	539.816	-0.090	-0.211
-380.931	800.000	0.157	-0.448
-379.917	-118.264	0.349	0.061
-378.902	-184.513	-0.259	0.004
-377.888	102.873	0.128	0.147
-376.873	800.000	0.040	0.147
-375.858	-183.340	0.207	0.004
-374.844	14.114	0.230	-0.177
-373.829	-58.749	-0.278	0.118
-372.815	60.255	-0.014	-0.014
-371.800	-33.508	-0.412	0.224
-370.785	-121.855	0.362	0.059
-369.771	-200.000	0.048	0.272
-368.756	-41.594	-0.106	0.054
-367.742	-86.753	0.316	0.095
-366.727	-149.790	-0.086	0.007
-365.712	-200.000	-0.039	-0.222
-364.698	-117.779	-0.191	-0.034
-363.683	529.464	-0.120	0.278
-362.669	-42.643	-0.133	0.067
-361.654	-93.880	0.523	0.142
-360.639	-70.028	-0.208	0.078
-359.625	77.400	-0.172	-0.180
-358.610	-200.000	-0.031	0.257
-357.596	-157.240	-0.555	-0.033
-356.581	50.560	0.373	0.347
-355.566	72.843	-0.048	-0.049
-354.552	480.444	-0.091	0.202
-353.537	66.481	-0.320	-0.320
-352.523	-89.515	0.230	-0.066
-351.508	-200.000	0.054	0.406
-350.493	46.724	-0.215	0.196
-349.479	-200.000	0.018	-0.083
-348.464	800.000	0.121	0.331
-347.450	-3.401	-0.174	0.119
-346.435	467.133	-0.084	-0.184
-345.420	-114.685	0.217	0.041
-344.406	21.500	-0.099	-0.080
-343.391	210.481	0.039	0.061
-342.377	-1.470	0.082	0.057
-341.362	-22.728	-0.237	0.140
-340.348	317.300	0.089	0.166
-339.333	-200.000	0.002	0.239
-338.318	-83.663	0.317	-0.099
-337.304	122.228	0.060	-0.074
-336.289	800.000	0.157	-0.610
-335.275	-86.101	-0.178	-0.054
-334.260	-55.015	0.213	-0.094
-333.245	-81.160	0.157	-0.051
-332.231	-50.198	0.218	0.101
-331.216	-200.000	0.043	0.372
-330.202	-200.000	-0.019	0.177
-329.187	-108.740	-0.267	-0.056
-328.172	73.648	0.157	0.161
-327.158	81.910	0.171	-0.182
-326.143	-200.000	-0.031	-0.265
-325.129	10.154	0.109	0.081
-324.114	267.208	0.100	0.172
-323.099	-200.000	0.004	0.247
-322.085	-200.000	-0.013	-0.104
-321.070	252.520	0.060	0.100
-320.056	-200.000	-0.011	0.070
-319.041	7.260	-0.131	-0.096
-318.026	800.000	0.091	-0.283
-317.012	-24.805	-0.165	0.096
-315.997	403.672	0.110	0.228
-314.983	-48.212	0.143	0.068
-313.968	193.163	-0.181	-0.268
-312.953	16.716	-0.066	-0.051
-311.939	430.030	-0.148	0.315
-310.924	613.355	0.014	0.035
-309.910	-200.000	-0.027	-0.287
-308.895	30.759	-0.166	-0.140
-307.880	91.096	0.079	-0.087
-306.866	-133.700	0.300	0.037
-305.851	-123.763	-0.130	0.020
-304.837	404.267	0.055	-0.114
-303.822	-70.020	-0.083	0.031
-302.807	800.000	0.049	0.179
-301.793	589.682	0.060	0.145
-300.778	-200.000	0.081	-0.459
-299.764	217.195	-0.173	-0.270
-298.749	-166.476	-0.202	-0.008
-297.735	1.638	-0.274	-0.193
-296.720	32.679	-0.340	0.288
-295.705	-150.319	0.202	0.015
-294.691	-171.420	0.131	0.004
-293.676	-78.394	-0.245	-0.082
-292.662	800.000	0.026	0.080
-291.647	-11.665	0.385	0.248
-290.632	800.000	-0.066	-0.187
-289.618	-200.000	0.026	0.222
-288.603	-200.000	0.023	0.237
-287.589	89.137	-0.185	0.202
-286.574	-106.152	-0.257	0.057
-285.559	-51.585	-0.131	0.060
-284.545	-200.000	0.009	0.098
-283.530	182.364	0.084	0.122
-282.516	-56.628	0.292	-0.127
-281.501	-200.000	0.023	-0.124
-280.486	101.556	-0.155	0.177
-279.472	-200.000	0.012	0.115
-278.457	460.211	-0.199	-0.435
-277.443	-26.437	0.046	0.027
-276.428	40.931	0.129	-0.114
-275.413	173.848	0.046	-0.065
-274.399	-78.319	0.071	0.024
-273.384	-200.000	0.039	0.209
-272.370	800.000	-0.118	-0.368
-271.355	-200.000	-0.020	0.197
-270.340	104.720	-0.127	0.147
-269.326	322.260	0.128	0.239
-268.311	63.634	-0.132	0.130
-267.297	-93.276	-0.271	-0.074
-266.282	-24.670	0.213	-0.124
-265.267	-200.000	0.032	-0.163
-264.253	262.912	0.043	0.073
-263.238	-94.775	-0.119	-0.032
-262.224	5.962	0.148	0.107
-261.209	245.927	0.227	-0.375
-260.195	146.925	0.143	0.188
-259.180	-14.725	0.049	0.031
-258.165	-200.000	0.061	-0.286
-257.151	800.000	0.120	-0.375
-256.136	-101.048	0.153	0.037
-255.122	800.000	0.066	-0.272
-254.107	-200.000	0.035	0.298
-253.092	639.886	0.024	0.059
-252.078	-173.616	-0.232	0.007
-251.063	-55.381	0.126	0.055
-250.049	-124.851	0.096	-0.015
-249.034	90.668	-0.168	-0.184
-248.019	-17.896	0.254	0.156
-247.005	546.763	0.086	-0.203
-245.990	21.111	-0.083	0.066
-244.976	-200.000	0.011	-0.131
-243.961	-66.059	-0.084	-0.033
-242.946	-28.826	-0.275	0.155
-241.932	-54.039	0.391	0.174
-240.917	-200.000	-0.004	-0.497
-239.903	235.968	0.107	0.174
-238.888	532.647	-0.084	0.195
-237.873	-151.441	-0.143	0.010
-236.859	-12.603	-0.179	-0.114
-235.844	173.539	0.223	0.315
-234.830	-82.214	0.211	-0.067
-233.815	-32.127	-0.121	-0.066
-232.800	613.400	0.049	-0.120
-231.786	144.461	-0.110	0.144
-230.771	655.397	0.077	-0.193
-229.757	-200.000	0.024	0.109
-228.742	364.715	-0.045	-0.088
-227.727	-200.000	0.022	0.189
-226.713	-158.896	0.195	-0.011
-225.698	-200.000	0.009	-0.245
-224.684	-11.887	-0.165	0.106
-223.669	-119.015	0.196	0.034
-222.655	-200.000	0.060	0.325
-221.640	195.347	0.116	-0.172
-220.625	-76.958	-0.298	0.102
-219.611	800.000	0.048	0.148
-218.596	-177.905	0.031	0.001
-217.582	260.056	-0.102	0.172
-216.567	700.902	0.096	-0.248
-215.552	-70.789	0.180	-0.066
-214.538	-118.569	-0.079	-0.014
-213.523	-28.166	-0.148	0.084
-212.509	-86.554	0.095	0.029
-211.494	-76.844	-0.124	-0.042
-210.479	-200.000	0.026	-0.320
-209.465	800.000	0.049	-0.188
-208.450	-11.573	0.256	0.165
-207.436	67.118	-0.056	-0.055
-206.421	106.638	0.089	-0.103
-205.406	-137.319	0.199	0.022
-204.392	10.795	-0.100	-0.075
-203.377	-77.169	0.058	-0.020
-202.363	-122.495	-0.483	-0.077
-201.348	800.000	-0.018	0.061
-200.333	800.000	0.100	0.375
-199.319	-100.220	0.359	0.087
-198.304	371.283	0.116	0.229
-197.290	-164.981	0.371	0.016
-196.275	-73.596	-0.294	-0.105
-195.260	-200.000	-0.048	-0.292
-194.246	184.128	0.100	0.144
-193.231	-170.887	0.239	0.008
-192.217	-30.936	-0.029	-0.016
-191.202	-56.458	0.247	-0.107
-190.187	176.777	-0.120	-0.170
-189.173	191.216	0.114	0.168
-188.158	144.663	-0.248	-0.324
-187.144	-126.874	0.163	0.023
-186.129	17.632	0.163	-0.127
-185.114	-8.334	-0.102	0.067
-184.100	-23.578	0.474	-0.278
-183.085	165.110	-0.263	0.363
-182.071	-200.000	-0.042	0.221
-181.056	800.000	-0.105	0.300
-180.042	-7.220	0.139	0.092
-179.027	-8.641	-0.198	0.130
-178.012	151.123	0.078	-0.104
-176.998	800.000	-0.064	0.263
-175.983	-157.208	-0.142	0.008
-174.969	9.557	-0.170	0.126
-173.954	-122.549	0.244	0.039
-172.939	-30.773	0.348	-0.192
-171.925	76.279	-0.233	0.241
-170.910	35.446	0.249	-0.213
-169.896	30.774	-0.073	-0.061
-168.881	480.200	-0.060	-0.133
-167.866	800.000	-0.110	0.389
-166.852	-76.165	-0.159	0.055
-165.837	800.000	0.095	0.308
-164.823	49.106	-0.131	-0.120
-163.808	-200.000	-0.056	-0.265
-162.793	-200.000	-0.013	-0.095
-161.779	-35.550	-0.323	0.171
-160.764	-65.883	0.426	0.166
-159.750	35.500	0.117	0.100
-158.735	120.883	0.203	0.246
-157.720	85.286	0.216	-0.231
-156.706	19.732	-0.277	-0.218
-155.691	-139.040	0.368	-0.039
-154.677	-200.000	0.029	0.262
-153.662	-41.415	0.165	-0.083
-152.647	-18.748	-0.088	-0.053
-151.633	147.998	0.104	0.137
-150.618	-166.070	-0.161	0.007
-149.604	-200.000	-0.047	0.286
-148.589	-200.000	0.002	-0.168
-147.574	178.611	0.216	0.307
-146.560	-46.363	-0.325	-0.156
-145.545	-164.985	0.313	0.014
-144.531	-137.089	-0.149	0.017
-143.516	-62.787	-0.284	-0.115
-142.502	39.248	0.080	-0.070
-141.487	286.515	-0.110	0.193
-140.472	-169.311	-0.161	0.006
-139.458	-187.146	-0.079	-0.001
-138.443	21.102	0.172	0.136
-137.429	188.314	-0.342	0.498
-136.414	-82.130	0.089	0.028
-135.399	82.406	-0.090	0.095
-134.385	800.000	0.016	0.050
-133.370	-19.545	0.179	0.108
-132.356	706.181	-0.154	-0.395
-131.341	-16.530	0.094	-0.058
-130.326	77.883	0.131	0.136
-129.312	-67.255	0.083	-0.032
-128.297	-200.000	0.022	-0.121
-127.283	-138.088	-0.219	-0.024
-126.268	800.000	-0.028	0.091
-125.253	198.163	0.136	-0.202
-124.239	-11.685	-0.129	0.083
-123.224	-34.108	-0.284	0.152
-122.210	-57.864	0.220	-0.094
-121.195	228.941	0.151	-0.240
-120.180	186.800	0.236	0.342
-119.166	-200.000	-0.048	0.241
-118.151	649.058	-0.045	-0.113
-117.137	97.148	-0.146	-0.163
-116.122	201.377	-0.170	0.254
-115.107	-163.088	-0.076	-0.004
-114.093	-200.000	0.218	0.000
-113.078	88.580	-0.238	-0.258
-112.064	-21.008	0.142	-0.085
-111.049	800.000	0.068	-0.209
-110.034	271.300	-0.145	-0.249
-109.020	37.291	0.169	-0.146
-108.005	685.069	0.053	-0.134
-106.991	800.000	-0.036	-0.098
-105.976	-200.000	-0.029	0.200
-104.962	-91.132	0.270	-0.075
-103.947	232.427	-0.174	-0.279
-102.932	4.562	0.138	-0.099
-101.918	-103.941	0.118	0.027
-100.903	557.449	-0.097	0.227
-99.889	164.108	0.134	-0.184
-98.874	-76.915	-0.072	0.024
-97.859	-90.293	0.157	-0.044
-96.845	296.490	-0.188	0.336
-95.830	467.321	0.097	0.211
-94.816	-139.766	0.110	0.011
-93.801	-191.090	0.323	0.003
-92.786	39.754	-0.160	0.140
-91.772	120.568	0.096	-0.116
-90.757	-15.112	-0.076	0.047
-89.743	-200.000	0.025	0.128
-88.728	70.949	-0.118	-0.119
-87.713	-31.871	-0.054	-0.029
-86.699	800.000	-0.036	-0.120
-85.684	30.287	0.233	-0.193
-84.670	63.295	0.253	-0.247
-83.655	105.752	-0.082	0.095
-82.640	15.220	-0.147	-0.112
-81.626	-34.234	0.314	-0.168
-80.611	800.000	-0.084	-0.301
-79.597	-134.881	0.234	-0.028
-78.582	71.780	0.275	0.278
-77.567	-53.510	-0.234	0.104
-76.553	-120.774	-0.308	0.051
-75.538	-4.756	-0.076	-0.051
-74.524	-200.000	0.006	0.095
-73.509	20.995	0.149	-0.118
-72.494	-31.496	-0.357	-0.195
-71.480	-111.969	0.284	-0.056
-70.465	14.117	-0.322	-0.244
-69.451	-14.099	-0.102	0.064
-68.436	151.960	0.120	0.160
-67.422	-200.000	-0.007	-0.090
-66.407	175.737	-0.167	-0.235
-65.392	59.949	-0.199	-0.191
-64.378	-200.000	0.008	-0.104
-63.363	309.024	-0.064	0.115
-62.349	-54.935	-0.242	-0.106
-61.334	154.508	-1.033	-1.378
-60.319	41.662	0.708	0.623
-59.305	696.775	-0.637	-1.627
-58.290	153.411	1.272	1.693
-57.276	800.000	0.314	1.110
-56.261	-200.000	135.435	626.930
-55.246	347.584	1630.287	3120.833
-54.232	137.859	2778.300	3536.831
-53.217	76.116	2298.635	2363.727
-52.203	27.298	1905.817	1555.728
-51.188	21.808	1703.058	1348.075
-50.173	20.186	1665.953	1306.442
-49.159	41.190	1739.819	1527.580
-48.144	37.411	1749.098	1506.455
-47.130	21.336	1701.142	1342.719
-46.115	19.142	1685.916	1313.929
-45.100	19.032	1680.469	1308.789
-44.086	19.008	1678.035	1306.663
-43.071	18.908	1675.300	1303.725
-42.057	18.963	1673.068	1302.353
-41.042	18.980	1670.928	1300.765
-40.027	18.887	1669.440	1298.852
-39.013	18.937	1667.334	1297.534
-37.998	18.877	1666.373	1296.282
-36.984	18.896	1664.801	1295.151
-35.969	19.072	1662.811	1294.880
-34.954	19.018	1661.512	1293.407
-33.940	19.096	1659.617	1292.471
-32.925	18.929	1658.221	1290.076
-31.911	19.020	1656.744	1289.561
-30.896	18.990	1654.824	1287.790
-29.881	19.057	1653.515	1287.223
-28.867	18.986	1652.129	1285.557
-27.852	19.061	1650.101	1284.489
-26.838	18.944	1648.962	1282.676
-25.823	19.056	1647.929	1282.663
-24.809	19.139	1645.851	1281.606
-23.794	19.074	1645.085	1280.479
-22.779	19.108	1643.662	1279.571
-21.765	19.073	1641.682	1277.724
-20.750	19.055	1640.095	1276.298
-19.736	19.047	1639.406	1275.657
-18.721	19.165	1637.260	1274.810
-17.706	19.098	1636.243	1273.471
-16.692	19.031	1634.733	1271.747
-15.677	19.179	1633.251	1271.637
-14.663	19.149	1632.110	1270.478
-13.648	19.118	1630.541	1268.979
-12.633	19.133	1628.491	1267.446
-11.619	19.043	1627.316	1265.813
-10.604	19.095	1625.563	1264.783
-9.590	19.060	1625.213	1264.203
-8.575	19.035	1623.572	1262.692
-7.560	19.114	1622.435	1262.341
-6.546	19.102	1621.388	1261.390
-5.531	19.061	1620.471	1260.324
-4.517	19.058	1619.492	1259.488
-3.502	19.185	1618.091	1259.276
-2.487	19.173	1616.309	1257.753
-1.473	18.698	1603.651	1244.415
-0.458	15.730	1584.852	1208.481
0.556	11.278	1587.078	1178.360
1.571	9.135	1611.534	1180.670
2.586	9.087	1622.773	1188.442
3.600	8.477	1568.324	1144.103
4.615	4.929	1464.161	1044.277
5.629	1.224	1409.669	981.388
6.644	0.586	1403.742	973.065
7.659	0.575	1402.397	971.975
8.673	0.559	1401.634	971.258
9.688	0.540	1398.968	969.207
10.702	0.407	1395.351	965.761
11.717	2.220	1397.458	978.755
12.731	7.860	1405.709	1020.697
13.746	14.089	1415.689	1067.980
14.761	16.937	1419.238	1088.877
15.775	16.514	1417.615	1084.818
16.790	15.600	1414.917	1076.807
17.804	14.902	1412.649	1070.514
18.819	14.475	1411.244	1066.623
19.834	14.197	1410.315	1064.048
20.848	14.084	1408.426	1061.813
21.863	13.771	1407.740	1059.201
22.877	13.585	1406.288	1056.826
23.892	13.438	1405.756	1055.398
24.907	13.603	1404.369	1055.317
25.921	13.578	1403.534	1054.437
26.936	13.571	1402.767	1053.721
27.950	13.595	1401.823	1053.069
28.965	13.653	1401.041	1052.761
29.980	13.738	1399.836	1052.301
30.994	13.839	1398.602	1051.917
32.009	13.797	1397.530	1050.751
33.023	13.745	1396.418	1049.496
34.038	13.718	1395.414	1048.475
35.053	13.656	1394.804	1047.532
36.067	13.698	1393.039	1046.378
37.082	13.772	1392.290	1046.195
38.096	13.635	1392.271	1045.220
39.111	13.706	1390.505	1044.250
40.126	13.663	1389.723	1043.298
41.140	13.630	1388.773	1042.284
42.155	13.639	1388.094	1041.742
43.169	13.563	1388.560	1041.524
44.184	13.484	1387.977	1040.493
45.199	13.532	1387.943	1040.678
46.213	13.481	1387.209	1039.719
47.228	13.704	1385.550	1039.779
48.242	13.688	1384.448	1038.763
49.257	13.651	1382.939	1037.303
50.271	13.587	1381.681	1035.872
51.286	13.637	1380.385	1035.116
52.301	13.738	1379.068	1034.669
53.315	13.606	1378.332	1033.205
54.330	13.640	1377.230	1032.496
55.344	13.581	1376.032	1031.143
56.359	13.606	1375.104	1030.512
57.374	13.631	1373.803	1029.596
58.388	13.518	1373.394	1028.498
59.403	13.502	1372.538	1027.667
60.417	13.562	1371.487	1027.162
61.432	13.492	1371.090	1026.337
62.447	13.492	1369.724	1025.225
63.461	13.533	1368.324	1024.343
64.476	13.443	1368.028	1023.474
65.490	13.491	1366.389	1022.452
66.505	13.509	1364.548	1021.093
67.520	13.517	1363.394	1020.190
68.534	13.548	1362.266	1019.446
69.549	13.489	1361.258	1018.238
70.563	13.528	1360.427	1017.771
71.578	13.456	1358.956	1016.132
72.593	13.511	1358.037	1015.697
73.607	13.416	1357.090	1014.317
74.622	13.429	1356.745	1014.044
75.636	13.434	1355.513	1013.069
76.651	13.467	1354.579	1012.480
77.666	13.480	1354.269	1012.238
78.680	13.440	1353.993	1011.702
79.695	13.429	1352.963	1010.775
80.709	13.503	1352.015	1010.428
81.724	13.525	1351.145	1009.821
82.739	13.592	1350.028	1009.304
83.753	13.605	1349.185	1008.665
84.768	13.643	1348.324	1008.163
85.782	13.628	1346.901	1006.916
86.797	13.604	1345.503	1005.636
87.812	13.487	1344.368	1003.991
88.826	13.528	1343.194	1003.277
89.841	13.636	1341.826	1002.818
90.855	13.694	1340.903	1002.389
91.870	13.664	1340.350	1001.707
92.884	13.695	1338.915	1000.731
93.899	13.721	1338.557	1000.533
94.914	13.767	1337.703	1000.084
95.928	13.770	1336.764	999.312
96.943	13.697	1335.915	998.149
97.957	13.777	1334.625	997.578
98.972	13.670	1333.670	996.134
99.987	13.781	1332.533	995.863
101.001	13.721	1331.563	994.688
102.016	13.715	1330.440	993.725
103.030	13.694	1330.031	993.207
104.045	13.633	1328.548	991.647
105.060	13.765	1326.970	991.169
106.074	13.551	1325.406	988.636
107.089	13.586	1324.629	988.180
108.103	13.601	1323.356	987.230
109.118	13.553	1322.343	986.104
110.133	13.560	1320.537	984.710
111.147	13.609	1319.609	984.220
112.162	13.623	1318.208	983.171
113.176	13.673	1317.250	982.666
114.191	13.653	1316.454	981.871
115.206	13.749	1314.995	981.264
116.220	13.684	1313.465	979.649
117.235	13.546	1312.742	978.210
118.249	13.685	1311.153	977.756
119.264	13.618	1310.240	976.597
120.279	13.643	1309.408	976.035
121.293	13.577	1308.044	974.546
122.308	13.517	1307.501	973.700
123.322	13.548	1306.357	972.942
124.337	13.526	1304.946	971.681
125.352	13.657	1303.365	971.181
126.366	13.596	1302.284	969.935
127.381	13.646	1301.290	969.402
128.395	13.498	1300.527	967.880
129.410	13.568	1299.426	967.388
130.424	13.594	1298.193	966.537
131.439	13.674	1297.218	966.191
132.454	13.504	1296.492	964.574
133.468	13.552	1295.710	964.186
134.483	13.576	1294.664	963.461
135.497	13.612	1293.230	962.519
136.512	13.551	1292.284	961.375
137.527	13.765	1290.557	961.244
138.541	13.536	1289.173	958.800
139.556	13.648	1288.113	958.579
140.570	13.742	1286.982	958.194
141.585	13.722	1285.899	957.187
142.600	13.717	1284.917	956.344
143.614	13.831	1283.533	955.887
144.629	13.913	1282.254	955.318
145.643	13.907	1281.184	954.405
146.658	13.882	1279.929	953.239
147.673	13.795	1278.574	951.647
148.687	13.768	1277.693	950.756
149.702	13.851	1276.071	949.938
150.716	13.776	1275.090	948.694
151.731	13.726	1274.326	947.757
152.746	13.814	1272.586	946.880
153.760	13.812	1271.612	946.063
154.775	13.805	1270.287	944.952
155.789	13.909	1269.064	944.551
156.804	13.942	1267.908	943.796
157.819	13.850	1266.975	942.494
158.833	14.025	1265.719	942.469
159.848	13.976	1265.252	941.760
160.862	13.918	1264.572	940.843
161.877	13.871	1263.059	939.366
162.892	13.863	1262.218	938.609
163.906	13.856	1261.438	937.912
164.921	13.946	1260.259	937.460
165.935	13.967	1258.995	936.555
166.950	14.065	1258.420	936.594
167.964	14.054	1257.625	935.858
168.979	13.960	1256.987	934.773
169.994	13.968	1256.269	934.200
171.008	13.989	1255.686	933.803
172.023	14.038	1254.755	933.303
173.037	14.058	1253.729	932.569
174.052	14.070	1253.023	932.029
175.067	14.029	1251.996	930.951
176.081	13.969	1250.751	929.608
177.096	13.964	1250.003	928.942
178.110	14.156	1248.369	928.716
179.125	14.123	1247.287	927.647
180.140	14.115	1245.857	926.458
181.154	14.156	1245.093	926.033
182.169	14.193	1243.617	925.059
183.183	14.200	1242.454	924.150
184.198	14.119	1241.525	922.931
185.213	14.369	1239.340	922.610
186.227	14.201	1239.072	921.396
187.242	14.281	1238.055	921.003
188.256	14.349	1236.824	920.380
189.271	14.245	1235.803	918.963
190.286	14.134	1235.145	917.780
191.300	14.108	1234.340	916.957
192.315	13.999	1234.175	916.152
193.329	14.139	1233.033	915.997
194.344	14.170	1232.333	915.564
195.359	14.146	1231.694	914.879
196.373	14.179	1231.450	914.797
197.388	14.240	1230.679	914.482
198.402	14.300	1229.950	914.189
199.417	14.468	1228.952	914.284
200.432	14.440	1228.106	913.420
201.446	14.471	1227.565	913.107
202.461	14.535	1226.329	912.456
203.475	14.542	1225.174	911.557
204.490	14.481	1224.382	910.552
205.504	14.417	1223.083	909.155
206.519	14.478	1222.342	908.858
207.534	14.477	1220.722	907.571
208.548	14.498	1220.162	907.186
209.563	14.512	1219.061	906.362
210.577	14.627	1217.747	905.929
211.592	14.535	1216.878	904.703
212.607	14.673	1216.248	904.905
213.621	14.496	1215.866	903.583
214.636	14.618	1214.101	902.847
215.650	14.721	1213.336	902.758
216.665	14.657	1212.660	901.827
217.680	14.656	1211.582	900.942
218.694	14.763	1210.929	900.952
219.709	14.749	1210.078	900.163
220.723	14.703	1209.205	899.190
221.738	14.732	1208.802	898.966
222.753	14.676	1207.739	897.792
223.767	14.787	1206.998	897.762
224.782	14.889	1206.377	897.770
225.796	14.856	1205.427	896.803
226.811	14.870	1204.778	896.315
227.826	14.835	1204.109	895.552
228.840	14.846	1203.431	895.025
229.855	14.790	1202.897	894.252
230.869	14.858	1201.843	893.750
231.884	14.846	1201.113	893.069
232.899	14.858	1200.638	892.698
233.913	14.808	1199.770	891.704
234.928	14.819	1198.900	891.040
235.942	14.726	1198.036	889.824
236.957	14.766	1197.785	889.769
237.972	14.866	1196.730	889.443
238.986	14.857	1195.815	888.635
240.001	14.831	1195.592	888.254
241.015	14.982	1194.102	887.870
242.030	14.910	1193.310	886.819
243.045	14.996	1192.753	886.780
244.059	15.033	1191.860	886.237
245.074	15.014	1191.333	885.667
246.088	15.097	1190.337	885.285
247.103	15.055	1189.835	884.610
248.117	15.109	1188.861	884.092
249.132	15.121	1188.414	883.747
250.147	15.191	1187.335	883.235
251.161	15.270	1186.200	882.728
252.176	15.275	1185.881	882.437
253.190	15.231	1185.275	881.678
254.205	15.319	1184.875	881.768
255.220	15.299	1184.240	881.111
256.234	15.353	1183.651	880.875
257.249	15.351	1182.666	880.057
258.263	15.214	1182.314	879.000
259.278	15.336	1181.875	879.233
260.293	15.384	1181.025	878.772
261.307	15.353	1180.395	878.066
262.322	15.418	1179.800	877.884
263.336	15.431	1179.111	877.361
264.351	15.443	1178.351	876.781
265.366	15.494	1177.135	876.068
266.380	15.544	1176.533	875.803
267.395	15.509	1176.245	875.327
268.409	15.447	1175.573	874.427
269.424	15.517	1174.876	874.196
270.439	15.440	1174.458	873.407
271.453	15.540	1173.243	872.945
272.468	15.443	1172.779	872.017
273.482	15.533	1172.078	871.887
274.497	15.481	1171.267	870.938
275.512	15.461	1170.218	869.974
276.526	15.500	1169.418	869.506
277.541	15.437	1169.155	868.910
278.555	15.604	1168.276	869.042
279.570	15.646	1167.204	868.383
280.585	15.744	1166.324	868.158
281.599	15.627	1165.887	867.155
282.614	15.672	1164.874	866.553
283.628	15.713	1163.665	865.789
284.643	15.717	1162.567	864.916
285.657	15.693	1161.612	864.007
286.672	15.794	1160.711	863.776
287.687	15.800	1159.983	863.193
288.701	15.815	1159.243	862.640
289.716	15.768	1158.312	861.632
290.730	15.700	1158.128	861.069
291.745	15.746	1157.225	860.557
292.760	15.782	1156.194	859.896
293.774	15.853	1155.832	859.914
294.789	15.824	1155.154	859.187
295.803	15.896	1154.671	859.118
296.818	15.858	1154.051	858.389
297.833	15.754	1153.402	857.302
298.847	15.885	1152.166	856.971
299.862	15.867	1151.696	856.455
300.876	15.902	1150.568	855.720
301.891	15.971	1149.977	855.554
302.906	15.938	1149.623	855.049
303.920	16.051	1148.573	854.765
304.935	16.153	1147.797	854.625
305.949	16.261	1146.738	854.308
306.964	16.133	1146.571	853.464
307.979	16.185	1145.624	852.943
308.993	16.130	1145.202	852.275
310.008	16.222	1144.567	852.194
311.022	16.133	1143.319	850.740
312.037	16.206	1142.650	850.533
313.052	16.161	1141.941	849.704
314.066	16.093	1141.155	848.704
315.081	16.090	1140.037	847.783
316.095	16.181	1139.316	847.625
317.110	16.183	1138.352	846.845
318.125	16.199	1137.443	846.172
319.139	16.276	1137.021	846.173
320.154	16.153	1136.653	845.208
321.168	16.105	1136.158	844.524
322.183	16.259	1134.745	844.171
323.197	16.335	1134.299	844.141
324.212	16.288	1133.708	843.390
325.227	16.138	1133.463	842.385
326.241	16.197	1132.727	842.061
327.256	16.297	1131.268	841.399
328.270	16.282	1130.808	840.909
329.285	16.244	1129.882	839.953
330.300	16.305	1129.001	839.531
331.314	16.286	1127.705	838.397
332.329	16.314	1126.670	837.693
333.343	16.374	1125.984	837.403
334.358	16.305	1125.467	836.607
335.373	16.400	1124.737	836.461
336.387	16.338	1124.186	835.666
337.402	16.516	1122.878	835.503
338.416	16.414	1122.532	834.669
339.431	16.494	1121.770	834.421
340.446	16.498	1120.811	833.652
341.460	16.608	1120.431	833.841
342.475	16.560	1119.477	832.819
343.489	16.594	1118.174	831.944
344.504	16.607	1117.721	831.597
345.519	16.641	1116.798	831.001
346.533	16.687	1115.950	830.526
347.548	16.703	1115.019	829.837
348.562	16.700	1114.296	829.212
349.577	16.728	1113.450	828.642
350.592	16.669	1112.701	827.725
351.606	16.675	1112.302	827.384
352.621	16.658	1111.429	826.577
353.635	16.733	1110.736	826.355
354.650	16.693	1110.205	825.691
355.665	16.667	1109.702	825.118
356.679	16.792	1108.832	825.007
357.694	16.693	1108.558	824.248
358.708	16.817	1107.202	823.770
359.723	16.780	1106.744	823.178
360.738	16.895	1106.079	823.170
361.752	16.774	1105.871	822.356
362.767	16.809	1105.019	821.818
363.781	16.782	1104.454	821.192
364.796	16.907	1103.795	821.237
365.810	16.923	1103.486	821.009
366.825	16.986	1102.668	820.636
367.840	16.939	1102.303	820.063
368.854	17.001	1101.295	819.539
369.869	17.077	1100.714	819.400
370.883	16.962	1099.730	818.040
371.898	16.999	1099.067	817.654
372.913	17.015	1098.650	817.349
373.927	16.970	1098.073	816.633
374.942	17.085	1097.638	816.788
375.956	17.063	1096.920	816.075
376.971	17.061	1096.649	815.794
377.986	17.128	1095.704	815.341
379.000	17.239	1095.087	815.338
380.015	17.291	1094.560	815.127
381.029	17.356	1093.508	814.581
382.044	17.329	1092.827	813.871
383.059	17.412	1092.259	813.774
384.073	17.295	1091.472	812.559
385.088	17.381	1090.659	812.290
386.102	17.385	1089.717	811.535
387.117	17.288	1089.034	810.494
388.132	17.243	1087.865	809.337
389.146	17.253	1086.953	808.636
390.161	17.242	1086.434	808.123
391.175	17.282	1085.843	807.803
392.190	17.344	1085.020	807.413
393.205	17.399	1084.168	806.968
394.219	17.398	1083.295	806.242
395.234	17.521	1081.944	805.748
396.248	17.421	1081.463	804.845
397.263	17.433	1080.590	804.183
398.278	17.322	1079.903	803.075
399.292	17.377	1079.075	802.649
400.307	17.337	1078.650	802.074
401.321	17.356	1077.732	801.411
402.336	17.385	1077.202	801.082
403.350	17.565	1076.197	801.111
404.365	17.429	1075.473	799.860
405.380	17.452	1074.994	799.543
406.394	17.479	1074.379	799.139
407.409	17.587	1073.307	798.779
408.423	17.650	1072.826	798.645
409.438	17.611	1072.119	797.866
410.453	17.464	1071.915	796.955
411.467	17.623	1070.767	796.774
412.482	17.649	1069.689	796.024
413.496	17.775	1069.228	796.200
414.511	17.733	1068.569	795.439
415.526	17.702	1068.217	794.962
416.540	17.770	1067.964	795.019
417.555	17.843	1066.963	794.548
418.569	17.881	1066.624	794.398
419.584	17.720	1065.924	793.060
420.599	17.809	1065.669	793.214
421.613	109.562	1333.617	1493.939
422.628	101.294	1372.563	1494.037
