DTS Sentinel unit serial number:	SN413079Multiplexer serial number:	ORYXHardware model number:	OX4-SRSoftware version number:	ORYX F/W v4.00 Oryx Data Collector v3.7.2.0data status	okinstallation	princeton_trtdifferential loss correction	single-endedforward channel	channel 2reverse channel	N/Adate	2019/09/19time	07:59:35forward acquisition time	60.00reverse acquisition time	0.00gamma	496.2192k internal	0.2352k external	0.2352temperature offset calibration	1.0005default loss term (dB/km)	0.3790temperature slope calibration	1.0000multiplexer offset coefficient	1.0000multiplexer slope coefficient	1.0000fibre end	0.00T internal ref (°C)	19.81T ext. ref 1 (°C)	0.55T ext. ref 2 (°C)	15.31length (m)	temperature (°C)	Stokes	anti-Stokes-747.200	403.834	0.038	0.080
-746.185	467.030	0.095	0.212
-745.171	40.269	-0.103	0.093
-744.156	-104.881	0.185	-0.042
-743.142	-112.535	0.120	-0.024
-742.127	-152.516	-0.463	-0.033
-741.112	-146.375	0.078	-0.007
-740.098	-83.656	-0.159	0.051
-739.083	550.171	0.059	-0.141
-738.069	-25.442	0.058	0.034
-737.054	-62.195	-0.083	0.034
-736.039	-43.357	-0.367	-0.185
-735.025	-200.000	-0.009	0.145
-734.010	58.780	-0.156	0.153
-732.996	-200.000	-0.001	-0.072
-731.981	-200.000	0.037	0.229
-730.966	40.533	-0.278	-0.250
-729.952	506.085	0.103	0.238
-728.937	-33.616	-0.323	-0.178
-727.923	-35.204	0.089	-0.048
-726.908	212.693	0.049	0.077
-725.894	-151.270	-0.193	-0.014
-724.879	-200.000	-0.052	0.242
-723.864	-105.756	-0.181	0.041
-722.850	15.691	-0.155	0.122
-721.835	338.949	-0.104	-0.202
-720.821	-13.124	0.156	-0.101
-719.806	-200.000	-0.017	0.480
-718.791	800.000	0.076	-0.294
-717.777	-49.404	-0.103	0.049
-716.762	30.733	-0.193	-0.165
-715.748	-200.000	0.046	-0.229
-714.733	-107.007	0.212	-0.047
-713.718	-200.000	0.045	0.253
-712.704	-34.192	-0.257	0.141
-711.689	-82.529	0.087	-0.028
-710.675	-12.784	-0.168	-0.109
-709.660	55.061	-0.341	0.328
-708.645	38.364	-0.184	-0.163
-707.631	-97.259	-0.324	-0.084
-706.616	-121.649	-0.073	-0.012
-705.602	-109.554	0.143	-0.030
-704.587	-131.740	-0.364	0.048
-703.572	91.847	0.150	-0.168
-702.558	-83.795	-0.218	0.069
-701.543	-110.817	0.440	-0.090
-700.529	-79.395	-0.328	0.111
-699.514	800.000	-0.043	-0.142
-698.499	-200.000	0.003	-0.179
-697.485	52.052	0.228	-0.217
-696.470	334.051	-0.081	-0.156
-695.456	228.242	0.174	-0.282
-694.441	-178.697	0.238	-0.005
-693.426	-177.802	0.253	0.006
-692.412	23.107	-0.281	0.230
-691.397	-100.075	0.167	-0.042
-690.383	49.420	0.145	0.136
-689.368	-76.030	-0.048	-0.017
-688.354	-131.402	-0.231	-0.030
-687.339	170.343	-0.129	-0.184
-686.324	-64.480	0.085	-0.034
-685.310	22.252	-0.190	-0.155
-684.295	-200.000	-0.169	-0.001
-683.281	328.816	0.019	-0.035
-682.266	-200.000	0.070	-0.340
-681.251	406.097	0.219	-0.460
-680.237	-123.516	0.226	0.036
-679.222	-200.000	0.001	0.211
-678.208	259.328	0.059	-0.101
-677.193	-94.650	-0.219	-0.059
-676.178	-200.000	0.030	-0.472
-675.164	16.492	0.236	-0.186
-674.149	69.042	0.128	-0.131
-673.135	306.150	-0.191	-0.354
-672.120	800.000	0.050	-0.199
-671.105	-200.000	-0.034	-0.296
-670.091	-86.108	-0.411	-0.126
-669.076	-200.000	0.098	-0.461
-668.062	333.975	-0.092	-0.178
-667.047	122.628	-0.216	0.268
-666.032	42.964	-0.195	-0.176
-665.018	425.913	0.225	-0.483
-664.003	-200.000	0.027	0.125
-662.989	-63.459	0.272	0.111
-661.974	-4.673	-0.203	0.139
-660.959	-22.850	0.101	-0.061
-659.945	-200.000	-0.015	-0.270
-658.930	19.278	0.310	-0.248
-657.916	800.000	0.031	-0.124
-656.901	591.864	-0.033	0.081
-655.886	-177.502	-0.325	0.008
-654.872	-200.000	0.024	0.234
-653.857	-200.000	0.050	-0.421
-652.843	22.159	0.282	0.229
-651.828	57.587	0.238	-0.231
-650.814	-200.000	-0.003	-0.120
-649.799	38.676	0.276	-0.245
-648.784	-134.247	-0.239	-0.029
-647.770	249.602	-0.092	0.156
-646.755	-153.083	-0.100	0.007
-645.741	-134.580	-0.336	-0.041
-644.726	-62.582	-0.285	0.118
-643.711	88.697	0.173	-0.191
-642.697	146.382	-0.071	-0.095
-641.682	459.317	-0.104	-0.230
-640.668	-200.000	0.031	-0.142
-639.653	96.942	-0.098	-0.112
-638.638	160.028	-0.109	-0.151
-637.624	-200.000	-0.000	-0.194
-636.609	-98.885	-0.142	-0.036
-635.595	-115.400	-0.126	-0.024
-634.580	-96.048	0.335	-0.089
-633.565	-161.531	-0.240	-0.012
-632.551	-56.227	-0.135	-0.060
-631.536	-100.836	-0.021	-0.005
-630.522	-74.602	0.087	0.031
-629.507	-32.539	-0.246	0.136
-628.492	-61.995	-0.329	-0.136
-627.478	800.000	0.049	-0.205
-626.463	-200.000	0.014	0.306
-625.449	3.373	-0.279	0.202
-624.434	-200.000	-0.017	-0.127
-623.419	121.832	0.111	0.137
-622.405	75.867	-0.197	-0.207
-621.390	-200.000	-0.042	0.296
-620.376	-87.803	0.169	-0.050
-619.361	-200.000	0.015	-0.251
-618.346	20.500	0.280	-0.225
-617.332	559.539	-0.048	-0.115
-616.317	800.000	-0.052	-0.164
-615.303	-40.227	-0.087	-0.045
-614.288	-84.356	-0.352	-0.111
-613.273	256.447	0.168	0.286
-612.259	-62.563	-0.324	-0.133
-611.244	-112.240	0.199	-0.040
-610.230	139.067	-0.174	0.227
-609.215	800.000	0.032	-0.098
-608.201	13.094	-0.021	-0.016
-607.186	-94.050	0.174	-0.047
-606.171	111.117	-0.108	0.129
-605.157	-143.268	-0.312	0.030
-604.142	57.975	0.078	-0.075
-603.128	-200.000	0.003	-0.148
-602.113	-20.823	-0.166	0.101
-601.098	-129.614	0.485	-0.067
-600.084	-99.517	0.231	0.058
-599.069	-200.000	-0.104	0.000
-598.055	-200.000	0.019	0.409
-597.040	-50.233	0.158	0.074
-596.025	-89.028	-0.354	-0.104
-595.011	149.282	0.096	-0.129
-593.996	-200.000	-0.099	-0.482
-592.982	185.327	-0.105	-0.154
-591.967	68.597	0.043	-0.044
-590.952	30.354	0.172	0.145
-589.938	226.894	0.239	0.385
-588.923	-2.106	0.076	0.053
-587.909	-102.149	0.126	-0.030
-586.894	800.000	-0.039	-0.131
-585.879	-200.000	0.026	0.250
-584.865	-120.717	-0.207	0.035
-583.850	426.378	0.102	-0.217
-582.836	145.623	-0.136	-0.181
-581.821	-153.094	0.283	0.020
-580.806	-80.421	-0.218	-0.072
-579.792	444.951	-0.152	-0.331
-578.777	-67.029	-0.019	0.007
-577.763	-193.510	0.242	0.002
-576.748	15.609	-0.135	0.105
-575.733	-137.380	-0.100	0.011
-574.719	-67.910	0.221	0.085
-573.704	-53.676	-0.450	0.204
-572.690	180.698	0.035	-0.051
-571.675	-122.499	0.123	-0.020
-570.661	2.337	-0.350	-0.251
-569.646	-84.138	0.233	0.073
-568.631	-200.000	-0.045	0.421
-567.617	-53.252	0.442	-0.201
-566.602	343.848	0.128	-0.249
-565.588	328.110	0.112	-0.212
-564.573	800.000	0.066	-0.258
-563.558	-26.795	-0.158	0.092
-562.544	-167.339	-0.196	-0.008
-561.529	-92.914	0.168	0.047
-560.515	-142.758	0.210	-0.020
-559.500	-61.095	0.134	-0.056
-558.485	17.001	-0.179	0.141
-557.471	129.535	0.036	-0.046
-556.456	487.418	-0.134	-0.303
-555.442	-151.616	-0.191	-0.014
-554.427	800.000	0.139	-0.448
-553.412	-163.970	-0.425	0.020
-552.398	-23.760	0.202	0.120
-551.383	-200.000	-0.005	0.029
-550.369	527.554	0.055	-0.130
-549.354	208.128	0.203	-0.314
-548.339	-21.624	-0.273	-0.164
-547.325	526.257	-0.089	-0.208
-546.310	800.000	-0.112	-0.338
-545.296	575.686	-0.064	-0.154
-544.281	371.494	-0.167	0.335
-543.266	3.527	-0.062	-0.045
-542.252	800.000	-0.059	0.196
-541.237	-133.832	-0.211	-0.026
-540.223	-87.125	0.163	0.049
-539.208	-141.251	-0.230	-0.023
-538.193	800.000	0.100	0.371
-537.179	-200.000	0.050	0.224
-536.164	-95.681	-0.027	-0.007
-535.150	-200.000	0.066	-0.304
-534.135	-36.254	0.387	-0.206
-533.121	-55.748	-0.122	0.054
-532.106	800.000	0.039	0.115
-531.091	85.991	0.177	0.193
-530.077	252.781	0.209	0.353
-529.062	-152.156	0.358	-0.026
-528.048	-181.873	-0.084	-0.002
-527.033	-26.597	-0.064	-0.037
-526.018	-77.321	0.205	0.070
-525.004	-43.194	-0.263	-0.132
-523.989	357.783	0.175	-0.345
-522.975	-85.615	-0.195	0.060
-521.960	-139.121	0.185	-0.020
-520.945	197.395	0.201	0.304
-519.931	402.616	0.058	-0.121
-518.916	-22.497	0.145	-0.087
-517.902	-200.000	-0.005	-0.169
-516.887	365.328	0.071	-0.141
-515.872	-61.759	0.200	0.083
-514.858	337.103	-0.024	-0.047
-513.843	147.154	0.065	0.086
-512.829	262.364	0.102	0.175
-511.814	270.967	-0.121	0.211
-510.799	73.840	-0.073	0.075
-509.785	-200.000	0.010	-0.098
-508.770	-76.619	-0.052	-0.018
-507.756	-200.000	-0.011	0.171
-506.741	-60.722	-0.134	0.056
-505.726	-200.000	-0.014	-0.186
-504.712	-69.424	-0.043	0.016
-503.697	-145.319	-0.342	-0.030
-502.683	800.000	0.067	-0.266
-501.668	800.000	-0.082	-0.263
-500.653	-200.000	-0.023	-0.315
-499.639	-200.000	-0.042	0.240
-498.624	-21.686	0.159	0.096
-497.610	218.038	-0.114	0.179
-496.595	-115.521	-0.041	0.008
-495.581	163.419	0.177	-0.246
-494.566	-200.000	0.017	-0.380
-493.551	296.227	-0.170	0.308
-492.537	327.316	0.046	0.088
-491.522	-46.179	0.151	-0.073
-490.508	800.000	0.103	0.308
-489.493	-103.276	-0.201	0.047
-488.478	-17.432	0.288	-0.179
-487.464	-49.593	-0.110	0.052
-486.449	-200.000	-0.040	0.176
-485.435	-200.000	0.070	0.357
-484.420	-10.042	0.226	0.148
-483.405	-200.000	0.013	0.144
-482.391	702.672	-0.034	-0.089
-481.376	278.908	0.066	-0.117
-480.362	-200.000	-0.039	0.188
-479.347	237.124	-0.142	-0.232
-478.332	-26.233	0.117	0.068
-477.318	-79.719	0.224	0.075
-476.303	-200.000	0.043	-0.249
-475.289	-21.194	-0.071	0.043
-474.274	-103.385	0.168	-0.039
-473.259	57.607	0.142	-0.137
-472.245	-179.964	0.232	0.005
-471.230	-154.172	-0.216	0.014
-470.216	108.997	0.109	-0.128
-469.201	-200.000	-0.058	0.289
-468.186	-24.139	0.108	0.064
-467.172	800.000	0.103	0.368
-466.157	800.000	-0.111	-0.407
-465.143	91.279	0.182	-0.201
-464.128	-200.000	0.003	-0.175
-463.113	318.385	-0.156	-0.291
-462.099	175.102	0.140	0.200
-461.084	-200.000	-0.063	0.300
-460.070	-43.697	-0.293	-0.146
-459.055	-200.000	-0.004	0.233
-458.040	-200.000	0.036	-0.212
-457.026	-85.662	0.219	-0.067
-456.011	5.326	-0.121	0.088
-454.997	211.715	0.065	0.102
-453.982	-31.637	0.099	-0.055
-452.968	-54.521	0.074	-0.033
-451.953	800.000	-0.052	-0.186
-450.938	-94.175	-0.392	0.106
-449.924	24.037	0.075	0.061
-448.909	-117.859	-0.284	-0.050
-447.895	-200.000	0.049	0.253
-446.880	-60.392	0.051	-0.022
-445.865	-86.939	-0.148	-0.045
-444.851	-200.000	-0.036	-0.194
-443.836	7.347	-0.155	0.114
-442.822	-33.471	-0.418	-0.228
-441.807	-200.000	-0.004	0.329
-440.792	800.000	-0.044	0.165
-439.778	55.519	-0.101	-0.096
-438.763	781.268	0.046	-0.123
-437.749	155.432	0.158	0.215
-436.734	-200.000	0.003	0.163
-435.719	-200.000	0.051	0.283
-434.705	-81.746	-0.164	0.053
-433.690	-200.000	-0.007	0.234
-432.676	484.888	-0.126	-0.284
-431.661	417.964	-0.045	0.094
-430.646	-183.141	-0.301	0.005
-429.632	-13.397	-0.095	-0.061
-428.617	-169.393	-0.335	-0.012
-427.603	-81.772	0.304	-0.098
-426.588	-47.611	0.190	0.091
-425.573	45.834	0.287	-0.262
-424.559	23.764	0.163	-0.133
-423.544	-60.203	-0.180	0.075
-422.530	-2.560	0.053	0.036
-421.515	-200.000	0.011	0.108
-420.500	616.013	-0.159	-0.392
-419.486	-131.083	0.288	0.038
-418.471	-193.645	0.223	-0.002
-417.457	-46.690	0.385	0.186
-416.442	-171.790	-0.309	0.010
-415.428	800.000	-0.084	0.360
-414.413	-148.907	-0.303	0.024
-413.398	185.773	-0.092	0.134
-412.384	-114.423	-0.060	-0.011
-411.369	-62.606	-0.231	0.094
-410.355	-113.785	0.428	0.082
-409.340	50.864	-0.210	0.196
-408.325	-152.350	-0.258	-0.018
-407.311	-200.000	0.065	-0.316
-406.296	-98.604	-0.023	-0.006
-405.282	-107.069	0.160	0.035
-404.267	-123.809	0.062	0.010
-403.252	89.732	0.024	0.026
-402.238	235.233	-0.091	0.149
-401.223	87.400	0.143	0.156
-400.209	-200.000	-0.012	0.186
-399.194	-36.341	0.323	0.171
-398.179	99.529	-0.115	-0.131
-397.165	435.423	0.122	-0.262
-396.150	800.000	0.027	-0.110
-395.136	26.800	0.120	-0.099
-394.121	-71.651	-0.242	-0.089
-393.106	-200.000	0.081	-0.392
-392.092	260.666	-0.131	0.223
-391.077	-200.000	0.021	-0.134
-390.063	201.496	-0.145	0.220
-389.048	-183.930	0.268	0.004
-388.033	13.671	0.284	-0.217
-387.019	101.023	-0.219	-0.250
-386.004	454.279	-0.145	-0.316
-384.990	-107.180	0.114	-0.025
-383.975	-139.543	0.097	-0.010
-382.960	-200.000	-0.028	0.125
-381.946	-7.449	-0.150	0.100
-380.931	-18.572	0.099	0.061
-379.917	686.913	-0.053	-0.137
-378.902	-107.114	-0.140	-0.030
-377.888	-97.995	-0.228	0.058
-376.873	-200.000	0.005	0.145
-375.858	33.682	0.327	0.280
-374.844	-142.957	-0.314	0.030
-373.829	800.000	0.121	0.413
-372.815	-56.477	-0.101	0.044
-371.800	192.394	-0.105	-0.156
-370.785	-200.000	0.021	-0.184
-369.771	800.000	-0.035	-0.141
-368.756	-46.948	0.161	-0.078
-367.742	-200.000	-0.023	-0.171
-366.727	-85.636	0.133	-0.040
-365.712	20.752	0.106	0.084
-364.698	314.579	-0.068	-0.125
-363.683	-168.637	0.335	0.013
-362.669	800.000	-0.037	0.112
-361.654	800.000	-0.078	0.230
-360.639	800.000	0.085	0.307
-359.625	98.419	0.128	0.144
-358.610	213.275	-0.136	-0.211
-357.596	-50.961	0.115	0.053
-356.581	147.907	-0.232	0.308
-355.566	104.061	0.162	0.188
-354.552	364.754	0.114	0.225
-353.537	-200.000	-0.026	-0.352
-352.523	-37.790	0.274	-0.143
-351.508	-177.646	-0.207	0.005
-350.493	269.992	-0.076	0.131
-349.479	-2.328	-0.352	-0.242
-348.464	-15.130	0.021	-0.013
-347.450	84.736	0.194	0.209
-346.435	-65.155	-0.215	-0.085
-345.420	161.364	-0.199	0.273
-344.406	68.535	-0.246	0.248
-343.391	235.376	0.139	0.226
-342.377	-58.447	-0.279	-0.119
-341.362	27.344	0.345	-0.285
-340.348	-70.643	0.060	-0.022
-339.333	79.518	-0.025	-0.026
-338.318	61.611	0.098	0.096
-337.304	-103.814	0.224	0.051
-336.289	800.000	0.085	0.257
-335.275	37.163	0.255	0.222
-334.260	-10.506	0.393	-0.255
-333.245	311.721	-0.159	-0.293
-332.231	83.548	-0.158	0.169
-331.216	-130.552	-0.249	0.033
-330.202	6.029	-0.153	0.111
-329.187	485.407	0.023	-0.051
-328.172	633.915	0.145	0.361
-327.158	36.640	-0.077	0.067
-326.143	-200.000	0.055	-0.280
-325.129	171.331	0.205	-0.289
-324.114	25.660	0.115	-0.094
-323.099	-100.256	0.267	0.065
-322.085	670.676	-0.062	0.158
-321.070	5.436	-0.181	0.131
-320.056	511.340	-0.094	-0.215
-319.041	24.804	0.037	-0.030
-318.026	-192.803	0.347	0.003
-317.012	230.910	0.110	-0.177
-315.997	800.000	-0.053	0.171
-314.983	-10.771	-0.083	0.054
-313.968	800.000	-0.156	0.536
-312.953	22.405	-0.134	0.108
-311.939	-200.000	-0.010	-0.251
-310.924	38.022	0.139	0.121
-309.910	-200.000	-0.003	-0.144
-308.895	-87.195	0.269	0.080
-307.880	42.614	-0.196	-0.175
-306.866	-100.045	0.207	0.051
-305.851	-200.000	0.000	-0.050
-304.837	-120.226	0.174	-0.029
-303.822	800.000	0.053	-0.169
-302.807	-200.000	0.024	0.122
-301.793	-200.000	0.009	0.205
-300.778	-74.438	0.289	-0.102
-299.764	800.000	-0.091	-0.359
-298.749	26.636	0.363	-0.298
-297.735	-104.253	0.061	-0.014
-296.720	-200.000	-0.028	0.132
-295.705	-200.000	-0.009	0.043
-294.691	99.165	-0.180	0.204
-293.676	-77.040	0.228	-0.078
-292.662	-129.498	-0.204	0.028
-291.647	800.000	0.109	-0.377
-290.632	-137.640	0.254	-0.028
-289.618	-200.000	-0.005	-0.271
-288.603	13.565	-0.194	-0.148
-287.589	-53.001	0.187	-0.084
-286.574	270.309	0.197	0.340
-285.559	-134.773	0.100	-0.012
-284.545	-11.334	0.284	-0.184
-283.530	-116.456	0.220	0.040
-282.516	-13.187	0.263	-0.167
-281.501	-65.162	0.228	0.090
-280.486	-200.000	-0.007	-0.033
-279.472	42.816	0.142	0.127
-278.457	215.993	-0.068	0.105
-277.443	-200.000	-0.027	-0.294
-276.428	-200.000	-0.004	-0.058
-275.413	-47.520	-0.012	-0.006
-274.399	-200.000	-0.037	0.487
-273.384	800.000	-0.088	-0.311
-272.370	487.325	-0.086	0.192
-271.355	-66.646	-0.214	0.083
-270.340	-27.508	0.108	-0.062
-269.326	38.590	-0.152	0.133
-268.311	400.581	0.016	0.033
-267.297	507.269	0.089	0.203
-266.282	275.836	-0.185	0.321
-265.267	-88.636	0.069	0.020
-264.253	21.886	0.087	-0.069
-263.238	-13.654	-0.022	-0.014
-262.224	800.000	-0.009	-0.030
-261.209	286.951	0.153	-0.271
-260.195	205.819	-0.396	0.603
-259.180	-182.844	0.102	-0.002
-258.165	800.000	0.036	-0.123
-257.151	-105.251	-0.122	-0.027
-256.136	-151.748	-0.102	0.007
-255.122	210.696	0.182	0.280
-254.107	-200.000	-0.001	0.190
-253.092	7.658	0.038	-0.028
-252.078	800.000	-0.058	-0.229
-251.063	-200.000	0.001	0.041
-250.049	-146.696	0.360	-0.030
-249.034	237.302	-0.062	-0.100
-248.019	31.044	-0.063	0.053
-247.005	-51.431	-0.271	0.124
-245.990	-86.648	0.237	-0.071
-244.976	100.829	-0.228	-0.259
-243.961	-200.000	-0.039	0.197
-242.946	-200.000	-0.054	0.234
-241.932	-200.000	-0.104	0.493
-240.917	-200.000	0.017	0.707
-239.903	-109.994	-0.069	0.014
-238.888	264.322	-0.124	0.211
-237.873	8.933	-0.126	0.093
-236.859	-200.000	-0.070	0.360
-235.844	73.505	0.093	0.096
-234.830	-151.870	-0.223	0.016
-233.815	84.348	0.246	0.263
-232.800	69.681	-0.134	0.135
-231.786	-118.626	0.168	0.029
-230.771	163.848	0.124	0.170
-229.757	446.323	0.088	-0.190
-228.742	-200.000	0.017	-0.277
-227.727	-200.000	0.007	-0.048
-226.713	57.043	0.196	0.187
-225.698	41.763	-0.102	-0.090
-224.684	101.588	-0.040	0.046
-223.669	-60.005	0.106	-0.044
-222.655	23.789	-0.125	0.101
-221.640	-6.573	-0.025	0.016
-220.625	305.795	0.146	0.266
-219.611	54.443	-0.059	-0.055
-218.596	84.530	-0.213	0.228
-217.582	800.000	-0.052	-0.170
-216.567	-117.165	0.394	0.070
-215.552	98.127	0.304	0.342
-214.538	-200.000	0.049	0.243
-213.523	72.827	0.052	0.053
-212.509	498.908	0.111	-0.250
-211.494	800.000	0.106	0.330
-210.479	-85.132	-0.145	0.044
-209.465	450.924	-0.037	-0.080
-208.450	800.000	-0.015	0.062
-207.436	-200.000	-0.005	-0.321
-206.421	-142.579	-0.212	-0.020
-205.406	-6.483	-0.079	0.053
-204.392	-188.089	0.094	0.001
-203.377	-59.058	0.184	-0.078
-202.363	-200.000	-0.009	-0.438
-201.348	-99.125	-0.282	0.070
-200.333	-151.774	0.192	-0.014
-199.319	111.421	-0.126	-0.148
-198.304	26.738	-0.181	-0.148
-197.290	-16.632	0.410	-0.254
-196.275	-200.000	-0.020	0.200
-195.260	-99.530	-0.266	0.065
-194.246	42.622	-0.237	-0.211
-193.231	-75.717	-0.181	0.063
-192.217	-98.748	0.074	-0.018
-191.202	-101.293	-0.202	0.048
-190.187	-200.000	0.013	0.293
-189.173	497.273	-0.172	-0.387
-188.158	-15.986	-0.126	0.078
-187.144	-188.512	-0.126	0.002
-186.129	-200.000	0.034	-0.312
-185.114	-9.366	0.192	-0.125
-184.100	-97.859	0.269	0.068
-183.085	158.820	-0.051	0.069
-182.071	-134.183	-0.168	-0.020
-181.056	-136.926	-0.234	-0.026
-180.042	-200.000	0.043	-0.227
-179.027	41.216	0.390	-0.344
-178.012	14.142	-0.201	0.153
-176.998	-200.000	0.028	-0.143
-175.983	8.127	-0.324	0.238
-174.969	-155.075	0.180	-0.012
-173.954	-8.129	-0.147	-0.096
-172.939	204.015	0.286	-0.432
-171.925	-19.852	-0.257	-0.155
-170.910	-70.561	0.084	0.031
-169.896	-48.873	-0.133	0.062
-168.881	-33.418	-0.090	0.049
-167.866	529.518	-0.071	0.163
-166.852	11.937	-0.218	0.164
-165.837	416.995	-0.142	0.296
-164.823	-66.907	0.145	0.056
-163.808	-78.073	-0.289	-0.097
-162.793	611.411	-0.016	-0.040
-161.779	226.918	0.148	-0.235
-160.764	-200.000	-0.023	0.107
-159.750	184.152	0.157	-0.227
-158.735	225.944	-0.118	0.186
-157.720	116.401	-0.076	0.091
-156.706	162.252	0.138	-0.188
-155.691	-25.278	0.198	-0.114
-154.677	132.280	-0.256	-0.322
-153.662	-200.000	0.022	0.212
-152.647	-38.990	-0.082	-0.042
-151.633	153.569	0.088	-0.117
-150.618	265.427	0.115	-0.195
-149.604	132.256	0.169	0.212
-148.589	-36.461	-0.214	-0.112
-147.574	-110.891	0.082	0.016
-146.560	-200.000	0.031	-0.223
-145.545	-200.000	-0.047	-0.321
-144.531	508.700	-0.040	0.090
-143.516	-200.000	0.053	0.483
-142.502	800.000	0.034	0.129
-141.487	-200.000	0.009	0.107
-140.472	-45.681	-0.231	-0.111
-139.458	-200.000	0.001	0.101
-138.443	84.926	0.199	0.213
-137.429	-99.018	-0.090	0.022
-136.414	800.000	0.012	0.039
-135.399	54.517	0.196	0.184
-134.385	15.638	-0.392	0.300
-133.370	-200.000	-0.031	0.328
-132.356	-44.902	0.076	-0.037
-131.341	77.071	0.179	0.185
-130.326	168.675	0.294	0.408
-129.312	800.000	0.079	0.321
-128.297	-200.000	-0.010	0.116
-127.283	-200.000	-0.036	0.542
-126.268	800.000	-0.056	0.215
-125.253	-81.891	-0.302	-0.096
-124.239	-118.793	0.145	-0.025
-123.224	800.000	0.138	0.432
-122.210	-163.700	0.085	0.004
-121.195	800.000	-0.074	0.206
-120.180	52.376	0.108	-0.100
-119.166	800.000	0.102	0.355
-118.151	-78.854	0.225	0.075
-117.137	-112.203	0.543	-0.106
-116.122	-135.720	0.232	0.027
-115.107	324.439	-0.125	0.233
-114.093	-50.280	-0.191	-0.088
-113.078	-35.834	0.223	-0.117
-112.064	-192.344	-0.398	-0.004
-111.049	54.198	-0.278	0.261
-110.034	-200.000	-0.031	0.151
-109.020	115.902	-0.238	-0.284
-108.005	479.300	-0.106	-0.235
-106.991	-200.000	0.009	0.206
-105.976	235.602	-0.079	-0.126
-104.962	-200.000	0.017	-0.213
-103.947	46.969	-0.145	0.132
-102.932	800.000	-0.067	0.212
-101.918	-133.978	0.244	0.029
-100.903	-121.406	-0.203	0.033
-99.889	112.536	0.030	-0.036
-98.874	-38.029	0.099	-0.051
-97.859	800.000	-0.053	0.144
-96.845	300.663	0.057	-0.102
-95.830	-110.333	0.291	0.059
-94.816	567.514	0.220	0.521
-93.801	-156.194	-0.258	-0.016
-92.786	15.525	0.134	-0.103
-91.772	52.728	-0.074	-0.069
-90.757	-73.721	-0.296	-0.105
-89.743	103.192	0.168	0.191
-88.728	800.000	-0.089	0.251
-87.713	-127.693	0.294	0.041
-86.699	410.182	-0.114	0.235
-85.684	-45.977	-0.192	0.092
-84.670	-200.000	0.011	0.195
-83.655	-64.227	-0.114	0.045
-82.640	-47.792	0.259	0.122
-81.626	340.860	-0.118	-0.224
-80.611	10.819	-0.160	0.119
-79.597	-62.754	-0.024	0.010
-78.582	-200.000	0.008	0.309
-77.567	-200.000	0.016	0.179
-76.553	-60.683	0.247	0.102
-75.538	-200.000	-0.005	0.259
-74.524	65.573	0.047	0.046
-73.509	48.316	-0.092	0.084
-72.494	-200.000	0.050	0.299
-71.480	-102.690	0.488	0.113
-70.465	-200.000	0.024	-0.268
-69.451	-200.000	0.002	0.058
-68.436	-5.488	-0.082	-0.055
-67.422	-200.000	-0.074	-0.490
-66.407	-200.000	0.054	0.237
-65.392	-179.399	0.273	0.006
-64.378	-48.666	-0.015	-0.007
-63.363	175.640	0.237	-0.334
-62.349	67.110	0.226	0.223
-61.334	29.958	-1.125	-0.932
-60.319	-49.588	0.987	0.456
-59.305	800.000	-0.537	-1.681
-58.290	335.445	0.729	1.373
-57.276	295.376	0.662	1.177
-56.261	-200.000	135.785	644.481
-55.246	334.247	1663.098	3126.280
-54.232	134.202	2811.117	3537.801
-53.217	79.008	2317.545	2409.620
-52.203	28.383	1915.191	1571.712
-51.188	22.662	1708.982	1358.499
-50.173	20.939	1670.565	1314.923
-49.159	42.143	1745.576	1538.999
-48.144	38.844	1753.787	1520.661
-47.130	22.216	1705.224	1351.862
-46.115	19.847	1690.008	1321.671
-45.100	19.766	1683.988	1316.297
-44.086	19.655	1681.517	1313.471
-43.071	19.705	1678.773	1311.657
-42.057	19.629	1677.027	1309.659
-41.042	19.715	1674.478	1308.271
-40.027	19.684	1673.001	1306.829
-39.013	19.615	1671.524	1305.103
-37.998	19.583	1670.023	1303.639
-36.984	19.718	1668.122	1303.118
-35.969	19.795	1666.690	1302.532
-34.954	19.765	1665.350	1301.205
-33.940	19.798	1663.514	1299.969
-32.925	19.743	1661.898	1298.235
-31.911	19.762	1660.161	1296.972
-30.896	19.751	1658.495	1295.541
-29.881	19.802	1657.358	1294.983
-28.867	19.817	1656.200	1294.135
-27.852	19.812	1654.210	1292.495
-26.838	19.758	1652.764	1290.906
-25.823	19.843	1651.361	1290.398
-24.809	19.901	1650.210	1289.876
-23.794	19.849	1649.088	1288.564
-22.779	19.901	1647.281	1287.486
-21.765	19.771	1645.735	1285.262
-20.750	19.792	1644.244	1284.200
-19.736	19.924	1642.658	1283.887
-18.721	19.934	1641.482	1282.993
-17.706	19.842	1639.806	1280.954
-16.692	19.744	1638.393	1279.075
-15.677	19.876	1637.435	1279.245
-14.663	19.983	1635.663	1278.602
-13.648	19.949	1634.299	1277.235
-12.633	19.861	1632.837	1275.391
-11.619	19.864	1631.386	1274.231
-10.604	19.809	1629.828	1272.558
-9.590	19.851	1628.873	1272.076
-8.575	19.883	1627.011	1270.806
-7.560	19.843	1626.237	1269.855
-6.546	19.908	1625.197	1269.467
-5.531	19.797	1624.455	1268.026
-4.517	19.823	1623.228	1267.206
-3.502	19.823	1622.155	1266.323
-2.487	19.969	1619.554	1265.304
-1.473	19.662	1607.832	1253.869
-0.458	17.103	1588.587	1220.440
0.556	12.684	1591.805	1192.156
1.571	10.858	1616.212	1196.897
2.586	10.676	1628.765	1204.729
3.600	10.166	1573.232	1159.900
4.615	5.736	1467.020	1051.823
5.629	1.324	1410.995	983.039
6.644	0.574	1404.419	973.540
7.659	0.544	1403.162	972.390
8.673	0.545	1402.303	971.711
9.688	0.537	1399.806	969.843
10.702	0.403	1396.426	966.558
11.717	2.635	1398.751	982.401
12.731	8.504	1407.671	1026.348
13.746	14.450	1416.694	1071.149
14.761	16.889	1420.343	1089.507
15.775	16.428	1418.632	1085.134
16.790	15.527	1415.813	1077.108
17.804	14.802	1413.192	1070.376
18.819	14.355	1412.383	1066.809
19.834	14.259	1410.622	1064.768
20.848	14.029	1409.659	1062.478
21.863	13.665	1408.447	1059.147
22.877	13.511	1407.097	1057.053
23.892	13.451	1406.218	1055.913
24.907	13.446	1405.529	1055.275
25.921	13.448	1404.683	1054.557
26.936	13.484	1403.900	1054.103
27.950	13.508	1402.610	1053.197
28.965	13.533	1401.430	1052.377
29.980	13.662	1400.705	1052.555
30.994	13.779	1399.155	1052.039
32.009	13.728	1398.512	1051.144
33.023	13.668	1397.268	1049.730
34.038	13.714	1396.488	1049.347
35.053	13.644	1394.918	1047.628
36.067	13.726	1394.175	1047.500
37.082	13.664	1393.283	1046.346
38.096	13.676	1392.027	1045.383
39.111	13.679	1391.426	1044.860
40.126	13.564	1390.491	1043.343
41.140	13.486	1389.872	1042.292
42.155	13.520	1389.069	1041.813
43.169	13.466	1389.216	1041.488
44.184	13.490	1388.664	1041.133
45.199	13.549	1388.283	1041.126
46.213	13.450	1388.023	1040.216
47.228	13.549	1386.668	1039.730
48.242	13.492	1385.994	1038.777
49.257	13.586	1383.853	1037.672
50.271	13.640	1382.124	1036.619
51.286	13.629	1381.219	1035.778
52.301	13.512	1380.262	1034.243
53.315	13.622	1379.000	1033.890
54.330	13.467	1378.257	1032.275
55.344	13.450	1376.921	1031.075
56.359	13.469	1375.822	1030.281
57.374	13.500	1374.922	1029.711
58.388	13.499	1373.864	1028.821
59.403	13.519	1373.553	1028.617
60.417	13.543	1372.445	1027.847
61.432	13.388	1371.659	1026.203
62.447	13.418	1370.981	1025.793
63.461	13.409	1369.820	1024.779
64.476	13.438	1368.494	1023.878
65.490	13.295	1367.414	1022.091
66.505	13.427	1365.823	1021.629
67.520	13.523	1364.144	1020.875
68.534	13.481	1363.414	1019.980
69.549	13.430	1362.388	1018.809
70.563	13.391	1361.515	1017.827
71.578	13.302	1360.585	1016.489
72.593	13.354	1358.845	1015.421
73.607	13.471	1358.127	1015.512
74.622	13.425	1357.317	1014.532
75.636	13.420	1357.085	1014.241
76.651	13.384	1356.061	1013.167
77.666	13.356	1355.817	1012.721
78.680	13.352	1354.771	1011.829
79.695	13.498	1354.012	1012.064
80.709	13.505	1352.619	1010.974
81.724	13.447	1352.177	1010.203
82.739	13.426	1351.107	1009.185
83.753	13.575	1350.045	1009.211
84.768	13.552	1349.177	1008.333
85.782	13.589	1348.096	1007.658
86.797	13.616	1346.630	1006.637
87.812	13.539	1345.793	1005.455
88.826	13.584	1344.425	1004.619
89.841	13.581	1343.169	1003.571
90.855	13.649	1342.276	1003.226
91.870	13.666	1341.090	1002.357
92.884	13.622	1340.701	1001.712
93.899	13.701	1339.734	1001.378
94.914	13.716	1338.407	1000.385
95.928	13.710	1337.560	999.630
96.943	13.655	1336.705	998.570
97.957	13.751	1335.155	997.901
98.972	13.580	1335.181	996.801
99.987	13.660	1334.019	996.330
101.001	13.650	1332.918	995.361
102.016	13.668	1332.037	994.722
103.030	13.707	1330.782	993.926
104.045	13.652	1330.149	993.035
105.060	13.556	1329.040	991.545
106.074	13.521	1327.581	990.163
107.089	13.611	1326.135	989.536
108.103	13.529	1325.143	988.214
109.118	13.551	1324.038	987.436
110.133	13.589	1322.376	986.337
111.147	13.499	1321.351	984.952
112.162	13.576	1319.946	984.275
113.176	13.586	1319.037	983.566
114.191	13.622	1318.022	982.939
115.206	13.666	1316.217	981.765
116.220	13.611	1315.299	980.668
117.235	13.634	1313.832	979.623
118.249	13.631	1313.039	978.929
119.264	13.599	1312.088	977.940
120.279	13.556	1310.739	976.597
121.293	13.491	1309.759	975.396
122.308	13.510	1309.060	974.905
123.322	13.573	1307.732	974.197
124.337	13.501	1306.489	972.764
125.352	13.506	1305.270	971.799
126.366	13.555	1303.806	970.910
127.381	13.509	1302.645	969.687
128.395	13.493	1301.830	968.901
129.410	13.506	1301.163	968.398
130.424	13.591	1299.801	967.792
131.439	13.597	1298.901	967.073
132.454	13.523	1298.022	965.899
133.468	13.539	1297.191	965.289
134.483	13.615	1295.951	964.727
135.497	13.583	1295.176	963.876
136.512	13.516	1294.142	962.634
137.527	13.666	1292.190	961.969
138.541	13.539	1291.348	960.517
139.556	13.604	1289.561	959.480
140.570	13.700	1288.497	959.162
141.585	13.690	1287.264	958.099
142.600	13.625	1286.705	957.220
143.614	13.740	1285.422	956.844
144.629	13.770	1284.402	956.173
145.643	13.805	1282.518	954.891
146.658	13.693	1282.157	953.894
147.673	13.708	1280.632	952.758
148.687	13.778	1278.938	951.816
149.702	13.625	1278.516	950.541
150.716	13.755	1276.468	949.676
151.731	13.654	1275.889	948.583
152.746	13.747	1274.773	948.205
153.760	13.754	1273.185	946.977
154.775	13.763	1271.947	946.025
155.789	13.887	1270.930	945.892
156.804	13.895	1270.018	945.173
157.819	13.835	1268.714	943.777
158.833	13.840	1268.317	943.430
159.848	13.930	1267.040	942.909
160.862	14.029	1265.942	942.566
161.877	13.942	1264.716	941.079
162.892	13.831	1263.900	939.761
163.906	13.846	1263.077	939.151
164.921	13.968	1261.621	938.674
165.935	13.927	1260.902	937.825
166.950	13.967	1260.420	937.611
167.964	13.947	1259.717	936.887
168.979	13.924	1259.258	936.336
169.994	13.964	1258.138	935.645
171.008	13.977	1257.170	934.916
172.023	14.034	1256.612	934.739
173.037	13.951	1255.827	933.604
174.052	13.981	1254.931	933.026
175.067	14.021	1253.830	932.350
176.081	14.032	1252.704	931.490
177.096	13.969	1251.718	930.324
178.110	13.999	1251.031	929.897
179.125	14.056	1249.167	928.750
180.140	14.091	1248.097	928.068
181.154	14.084	1246.879	927.038
182.169	14.082	1245.688	926.062
183.183	14.199	1244.618	925.835
184.198	14.137	1243.088	924.268
185.213	14.124	1242.428	923.626
186.227	14.188	1241.281	923.044
187.242	14.255	1240.027	922.400
188.256	14.296	1238.718	921.573
189.271	14.224	1237.983	920.546
190.286	14.093	1236.995	919.005
191.300	14.132	1235.784	918.239
192.315	14.111	1235.760	918.027
193.329	14.040	1235.013	916.997
194.344	14.197	1234.115	917.117
195.359	14.267	1233.329	916.837
196.373	14.284	1233.085	916.665
197.388	14.249	1232.764	916.157
198.402	14.344	1232.268	916.230
199.417	14.378	1231.280	915.600
200.432	14.350	1230.691	914.924
201.446	14.462	1229.577	914.629
202.461	14.588	1228.332	914.318
203.475	14.496	1227.752	913.300
204.490	14.573	1226.148	912.448
205.504	14.428	1225.333	910.968
206.519	14.474	1223.735	909.949
207.534	14.430	1222.973	909.061
208.548	14.467	1221.588	908.152
209.563	14.387	1221.020	907.215
210.577	14.521	1220.042	907.137
211.592	14.530	1219.053	906.369
212.607	14.527	1218.270	905.693
213.621	14.553	1217.609	905.260
214.636	14.605	1216.580	904.700
215.650	14.515	1215.492	903.320
216.665	14.616	1214.616	903.136
217.680	14.634	1213.805	902.550
218.694	14.796	1212.186	902.142
219.709	14.691	1211.774	901.192
220.723	14.653	1211.095	900.402
221.738	14.617	1210.897	899.978
222.753	14.665	1209.683	899.254
223.767	14.695	1209.260	899.025
224.782	14.726	1208.403	898.474
225.796	14.887	1207.212	898.371
226.811	14.752	1207.129	897.505
227.826	14.797	1205.560	896.500
228.840	14.732	1205.893	896.323
229.855	14.833	1204.731	895.918
230.869	14.851	1203.958	895.365
231.884	14.912	1202.806	894.753
232.899	14.729	1202.167	893.217
233.913	14.773	1201.818	893.118
234.928	14.771	1200.787	892.260
235.942	14.956	1199.818	892.448
236.957	14.805	1198.872	890.862
237.972	14.817	1198.679	890.704
238.986	14.868	1197.440	889.976
240.001	14.795	1197.157	889.296
241.015	14.929	1196.047	889.104
242.030	14.847	1195.725	888.351
243.045	14.997	1194.482	888.145
244.059	14.875	1193.831	886.939
245.074	14.941	1193.214	886.750
246.088	14.996	1191.951	886.022
247.103	14.994	1191.162	885.348
248.117	15.045	1190.396	884.971
249.132	15.004	1190.023	884.400
250.147	15.030	1189.587	884.134
251.161	15.115	1188.335	883.574
252.176	15.186	1187.753	883.436
253.190	15.200	1187.203	883.022
254.205	15.303	1185.912	882.524
255.220	15.313	1185.653	882.307
256.234	15.334	1185.093	881.926
257.249	15.244	1184.435	880.885
258.263	15.306	1183.869	880.712
259.278	15.248	1182.922	879.623
260.293	15.403	1182.551	880.083
261.307	15.302	1182.427	879.385
262.322	15.386	1181.378	878.967
263.336	15.402	1180.877	878.600
264.351	15.479	1179.951	878.232
265.366	15.409	1179.381	877.368
266.380	15.454	1178.883	877.155
267.395	15.462	1177.583	876.148
268.409	15.460	1176.875	875.537
269.424	15.429	1176.379	874.927
270.439	15.404	1176.094	874.507
271.453	15.437	1175.356	874.056
272.468	15.477	1173.722	872.970
273.482	15.522	1173.278	872.795
274.497	15.427	1173.023	872.033
275.512	15.451	1171.995	871.319
276.526	15.429	1171.457	870.726
277.541	15.450	1170.857	870.310
278.555	15.514	1169.824	869.798
279.570	15.594	1169.210	869.678
280.585	15.640	1168.307	869.171
281.599	15.712	1166.893	868.414
282.614	15.648	1165.940	867.298
283.628	15.642	1165.051	866.526
284.643	15.712	1163.897	865.952
285.657	15.587	1163.343	864.821
286.672	15.642	1162.354	864.291
287.687	15.765	1161.301	864.063
288.701	15.733	1160.638	863.329
289.716	15.718	1159.885	862.615
290.730	15.869	1159.100	862.733
291.745	15.870	1158.231	862.014
292.760	15.707	1157.823	860.799
293.774	15.809	1157.532	861.029
294.789	15.735	1157.032	860.200
295.803	15.946	1155.683	860.199
296.818	15.779	1155.323	859.001
297.833	15.897	1154.375	858.823
298.847	15.792	1154.229	858.104
299.862	15.823	1152.977	857.253
300.876	15.955	1152.288	857.340
301.891	15.878	1151.843	856.540
302.906	15.943	1150.951	856.134
303.920	16.064	1149.546	855.624
304.935	16.069	1149.346	855.425
305.949	16.101	1148.774	855.088
306.964	16.066	1148.035	854.283
307.979	16.219	1147.241	854.390
308.993	16.131	1146.802	853.543
310.008	16.110	1146.262	852.961
311.022	16.148	1144.644	851.872
312.037	16.238	1143.755	851.592
313.052	16.150	1142.938	850.460
314.066	16.283	1141.766	850.185
315.081	16.109	1141.473	849.017
316.095	16.090	1140.696	848.268
317.110	16.056	1139.916	847.440
318.125	16.160	1139.121	847.297
319.139	16.122	1138.795	846.788
320.154	16.176	1138.036	846.422
321.168	16.147	1136.639	845.159
322.183	16.119	1136.247	844.653
323.197	16.164	1136.234	844.797
324.212	16.203	1135.126	844.091
325.227	16.192	1134.630	843.595
326.241	16.277	1134.141	843.581
327.256	16.276	1133.055	842.695
328.270	16.246	1132.262	841.879
329.285	16.253	1131.569	841.326
330.300	16.284	1130.261	840.432
331.314	16.227	1129.390	839.425
332.329	16.340	1128.473	839.234
333.343	16.366	1127.326	838.436
334.358	16.297	1126.564	837.453
335.373	16.311	1125.910	836.960
336.387	16.267	1125.405	836.292
337.402	16.472	1124.369	836.462
338.416	16.476	1123.684	835.900
339.431	16.401	1123.293	835.165
340.446	16.407	1122.682	834.666
341.460	16.478	1121.801	834.289
342.475	16.646	1120.758	834.265
343.489	16.690	1119.736	833.648
344.504	16.634	1118.760	832.571
345.519	16.641	1118.443	832.297
346.533	16.657	1117.148	831.339
347.548	16.697	1116.578	831.036
348.562	16.802	1115.566	830.724
349.577	16.670	1115.083	829.643
350.592	16.557	1114.119	828.300
351.606	16.618	1113.733	828.239
352.621	16.589	1113.106	827.560
353.635	16.615	1112.336	827.039
354.650	16.587	1111.609	826.286
355.665	16.680	1110.491	825.837
356.679	16.777	1109.807	825.728
357.694	16.786	1109.555	825.512
358.708	16.743	1109.113	824.902
359.723	16.750	1108.377	824.316
360.738	16.733	1107.537	823.535
361.752	16.791	1106.986	823.333
362.767	16.657	1106.564	822.295
363.781	16.870	1105.803	822.692
364.796	16.951	1104.945	822.373
365.810	16.927	1104.669	821.976
366.825	16.890	1104.082	821.288
367.840	16.956	1103.565	821.150
368.854	17.001	1102.625	820.599
369.869	17.044	1101.584	819.957
370.883	16.950	1100.972	818.974
371.898	16.907	1100.509	818.354
372.913	16.969	1099.784	818.037
373.927	16.965	1099.309	817.596
374.942	17.082	1098.942	817.811
375.956	16.960	1098.353	816.714
376.971	17.061	1097.613	816.580
377.986	17.280	1097.026	817.123
379.000	17.218	1095.956	815.955
380.015	17.158	1095.637	815.356
381.029	17.318	1094.827	815.448
382.044	17.244	1094.333	814.654
383.059	17.287	1093.260	813.990
384.073	17.236	1092.849	813.365
385.088	17.327	1091.803	812.952
386.102	17.202	1091.106	811.762
387.117	17.166	1090.293	810.914
388.132	17.334	1088.913	810.618
389.146	17.368	1087.989	810.020
390.161	17.367	1087.057	809.252
391.175	17.301	1086.749	808.638
392.190	17.215	1086.432	807.920
393.205	17.367	1085.474	807.856
394.219	17.384	1084.802	807.365
395.234	17.361	1083.755	806.406
396.248	17.326	1082.738	805.413
397.263	17.366	1081.608	804.688
398.278	17.265	1081.137	803.794
399.292	17.391	1080.257	803.662
400.307	17.230	1079.926	802.582
401.321	17.272	1079.375	802.299
402.336	17.358	1078.739	802.162
403.350	17.456	1077.396	801.557
404.365	17.464	1076.946	801.185
405.380	17.536	1075.888	800.667
406.394	17.488	1075.124	799.804
407.409	17.567	1074.612	799.723
408.423	17.636	1073.904	799.447
409.438	17.626	1073.421	798.972
410.453	17.617	1072.208	797.957
411.467	17.734	1071.706	798.058
412.482	17.577	1071.131	796.826
413.496	17.766	1070.206	796.950
414.511	17.729	1070.065	796.600
415.526	17.747	1069.163	795.943
416.540	17.720	1069.345	795.883
417.555	17.805	1068.296	795.427
418.569	17.798	1067.816	794.966
419.584	17.845	1067.412	794.813
420.599	17.873	1066.672	794.323
421.613	109.490	1332.827	1492.814
422.628	101.257	1371.563	1492.876
