DTS Sentinel unit serial number:	SN413079Multiplexer serial number:	ORYXHardware model number:	OX4-SRSoftware version number:	ORYX F/W v4.00 Oryx Data Collector v3.7.2.0data status	okinstallation	princeton_trtdifferential loss correction	single-endedforward channel	channel 2reverse channel	N/Adate	2019/09/17time	21:15:35forward acquisition time	60.00reverse acquisition time	0.00gamma	496.2192k internal	0.2339k external	0.2339temperature offset calibration	0.9985default loss term (dB/km)	0.3790temperature slope calibration	1.0000multiplexer offset coefficient	1.0000multiplexer slope coefficient	1.0000fibre end	0.00T internal ref (°C)	27.84T ext. ref 1 (°C)	0.19T ext. ref 2 (°C)	19.63length (m)	temperature (°C)	Stokes	anti-Stokes-747.200	-94.402	-0.176	0.048
-746.185	311.711	-0.069	0.130
-745.171	124.441	0.196	0.247
-744.156	-166.233	0.347	0.015
-743.142	-26.678	0.315	-0.185
-742.127	-11.032	-0.136	-0.090
-741.112	67.749	-0.267	-0.274
-740.098	-139.121	-0.135	0.015
-739.083	-200.000	0.005	-0.082
-738.069	-3.511	-0.172	0.120
-737.054	193.648	-0.091	0.138
-736.039	800.000	-0.045	0.135
-735.025	-165.091	0.300	-0.013
-734.010	103.638	-0.045	0.052
-732.996	-72.793	-0.122	0.045
-731.981	-51.596	-0.009	-0.004
-730.966	-200.000	-0.023	-0.194
-729.952	800.000	0.044	0.132
-728.937	-66.795	-0.289	0.115
-727.923	77.475	-0.138	0.147
-726.908	-200.000	0.002	-0.149
-725.894	-31.588	-0.346	-0.195
-724.879	-85.932	0.284	-0.088
-723.864	-168.044	-0.498	0.019
-722.850	-200.000	0.014	-0.206
-721.835	-200.000	0.005	-0.125
-720.821	-59.034	-0.503	-0.217
-719.806	423.488	0.080	0.172
-718.791	-200.000	-0.002	-0.184
-717.777	-200.000	-0.017	-0.091
-716.762	397.896	-0.095	-0.199
-715.748	-200.000	0.037	0.234
-714.733	154.968	-0.133	0.184
-713.718	434.940	0.046	0.099
-712.704	-121.581	-0.219	-0.036
-711.689	80.519	0.125	0.135
-710.675	192.420	0.048	0.073
-709.660	90.487	0.186	-0.208
-708.645	36.349	-0.076	-0.067
-707.631	-34.707	0.356	0.195
-706.616	-4.155	-0.187	-0.130
-705.602	-51.383	0.092	-0.043
-704.587	31.799	0.236	0.203
-703.572	-93.479	0.291	-0.081
-702.558	-154.331	0.050	-0.003
-701.543	111.050	0.084	0.101
-700.529	-200.000	0.009	0.129
-699.514	676.164	-0.031	-0.081
-698.499	-79.091	0.073	0.025
-697.485	800.000	0.108	-0.395
-696.470	306.851	-0.076	0.142
-695.456	-200.000	0.052	-0.379
-694.441	181.184	-0.069	0.101
-693.426	160.382	0.212	0.296
-692.412	-131.469	-0.168	0.022
-691.397	-132.898	0.101	-0.013
-690.383	-104.832	0.051	-0.012
-689.368	-64.586	0.120	0.049
-688.354	-28.099	-0.292	0.169
-687.339	2.545	-0.269	0.195
-686.324	-76.397	-0.066	-0.023
-685.310	-200.000	0.039	-0.404
-684.295	741.148	-0.150	0.405
-683.281	611.431	-0.069	0.171
-682.266	56.196	-0.267	-0.260
-681.251	71.336	-0.068	-0.071
-680.237	3.674	0.220	0.160
-679.222	367.798	0.151	0.306
-678.208	-200.000	-0.026	0.242
-677.193	-63.097	-0.049	0.020
-676.178	127.126	0.059	-0.075
-675.164	-200.000	-0.025	-0.191
-674.149	53.875	-0.243	0.234
-673.135	800.000	0.135	0.410
-672.120	-109.236	0.179	0.038
-671.105	0.543	-0.073	0.052
-670.091	-200.000	0.072	0.447
-669.076	-123.442	-0.128	0.020
-668.062	-190.148	-0.202	0.002
-667.047	-169.531	-0.262	0.010
-666.032	-50.728	-0.210	-0.099
-665.018	-200.000	-0.007	-0.053
-664.003	485.907	0.060	-0.137
-662.989	-84.518	-0.101	0.032
-661.974	348.882	-0.141	-0.278
-660.959	0.277	-0.308	-0.220
-659.945	-190.010	0.160	0.002
-658.930	-200.000	-0.011	0.055
-657.916	-62.179	-0.051	0.021
-656.901	-200.000	-0.044	-0.247
-655.886	-93.079	0.274	0.076
-654.872	-29.364	-0.105	-0.060
-653.857	-30.936	-0.267	-0.151
-652.843	800.000	0.036	-0.115
-651.828	-200.000	0.000	-0.321
-650.814	-10.207	-0.428	0.284
-649.799	-100.861	-0.307	-0.075
-648.784	25.869	-0.182	0.151
-647.770	-27.986	-0.078	-0.045
-646.755	217.020	-0.090	0.143
-645.741	-189.331	0.203	0.002
-644.726	800.000	-0.106	-0.346
-643.711	64.013	-0.194	0.195
-642.697	126.544	0.163	-0.207
-641.682	82.082	0.115	0.124
-640.668	143.714	0.074	-0.099
-639.653	-109.534	-0.293	0.062
-638.638	-53.221	-0.169	-0.078
-637.624	-114.045	-0.120	-0.023
-636.609	22.571	0.164	0.134
-635.595	800.000	-0.017	-0.067
-634.580	53.319	-0.031	0.029
-633.565	-200.000	-0.051	-0.395
-632.551	-200.000	0.069	-0.336
-631.536	-159.497	-0.312	0.017
-630.522	800.000	-0.063	0.214
-629.507	-18.659	0.095	-0.059
-628.492	-200.000	-0.036	0.240
-627.478	-35.240	0.172	0.094
-626.463	-142.544	-0.293	0.029
-625.449	-40.199	0.186	-0.097
-624.434	-159.250	-0.155	-0.009
-623.419	361.188	-0.099	0.199
-622.405	45.057	-0.171	-0.157
-621.390	4.611	0.123	0.090
-620.376	-44.008	0.131	0.066
-619.361	404.237	-0.021	0.044
-618.346	218.609	-0.259	0.413
-617.332	-52.685	-0.105	0.048
-616.317	-128.405	-0.203	-0.029
-615.303	70.985	0.226	0.234
-614.288	-200.000	-0.026	-0.191
-613.273	800.000	-0.090	-0.358
-612.259	800.000	0.103	0.299
-611.244	-43.724	-0.268	-0.135
-610.230	-200.000	0.010	-0.066
-609.215	-38.209	0.238	-0.126
-608.201	-200.000	-0.044	-0.207
-607.186	11.661	0.164	0.126
-606.171	350.975	-0.153	0.302
-605.157	156.370	0.136	-0.187
-604.142	800.000	0.077	-0.295
-603.128	306.448	-0.064	-0.119
-602.113	52.993	-0.210	-0.200
-601.098	-121.148	0.170	0.028
-600.084	138.879	0.129	-0.169
-599.069	-22.385	-0.197	-0.119
-598.055	-38.511	-0.353	0.186
-597.040	148.964	0.239	-0.322
-596.025	107.906	-0.190	-0.225
-595.011	73.125	0.150	0.156
-593.996	65.532	0.227	0.229
-592.982	800.000	-0.059	0.219
-591.967	-90.073	0.217	0.063
-590.952	198.316	0.156	-0.238
-589.938	-141.339	0.202	-0.020
-588.923	800.000	0.066	0.188
-587.909	-171.980	-0.159	-0.005
-586.894	800.000	-0.067	-0.225
-585.879	269.603	-0.187	0.327
-584.865	170.600	-0.142	0.202
-583.850	418.233	0.148	-0.314
-582.836	334.336	0.072	-0.140
-581.821	-118.950	0.479	0.084
-580.806	-102.781	0.468	0.111
-579.792	1.844	0.323	-0.232
-578.777	-200.000	-0.022	-0.184
-577.763	-200.000	0.011	0.419
-576.748	-200.000	0.026	0.138
-575.733	-22.435	-0.388	-0.234
-574.719	25.158	-0.044	0.036
-573.704	151.872	-0.112	-0.152
-572.690	110.741	0.131	-0.156
-571.675	-200.000	0.032	0.276
-570.661	-93.768	0.131	-0.036
-569.646	365.623	-0.089	-0.178
-568.631	-149.686	-0.206	0.016
-567.617	164.058	0.046	-0.064
-566.602	93.328	-0.040	0.045
-565.588	349.082	0.237	0.465
-564.573	721.620	0.039	0.103
-563.558	800.000	0.085	0.265
-562.544	800.000	-0.070	0.223
-561.529	726.090	0.120	-0.318
-560.515	-200.000	-0.025	0.196
-559.500	748.808	-0.062	-0.165
-558.485	-197.101	0.257	0.002
-557.471	800.000	0.063	0.218
-556.456	-82.139	-0.219	-0.071
-555.442	169.992	0.031	0.044
-554.427	800.000	0.055	0.210
-553.412	-120.231	-0.349	-0.059
-552.398	2.060	-0.173	-0.125
-551.383	-73.562	0.149	-0.054
-550.369	2.329	0.017	-0.012
-549.354	-14.291	0.193	0.124
-548.339	800.000	0.035	-0.127
-547.325	-169.572	0.169	0.006
-546.310	552.308	-0.093	-0.223
-545.296	-137.409	0.166	0.019
-544.281	-145.868	-0.213	-0.019
-543.266	-145.164	0.210	-0.019
-542.252	63.918	-0.097	0.097
-541.237	227.908	-0.032	0.052
-540.223	-139.138	0.225	0.024
-539.208	-49.140	-0.087	0.042
-538.193	174.556	0.109	0.156
-537.179	-200.000	-0.028	0.270
-536.164	705.505	0.097	0.255
-535.150	-136.312	-0.228	-0.026
-534.135	-200.000	0.067	-0.387
-533.121	-200.000	0.037	-0.230
-532.106	-200.000	0.006	-0.101
-531.091	75.120	-0.276	0.290
-530.077	800.000	0.053	0.207
-529.062	-200.000	0.032	0.239
-528.048	-90.978	0.376	0.107
-527.033	-156.967	0.225	0.014
-526.018	233.352	0.028	0.046
-525.004	183.352	-0.107	-0.157
-523.989	-200.000	0.021	-0.523
-522.975	800.000	-0.033	0.116
-521.960	337.372	-0.056	0.109
-520.945	-138.596	0.077	-0.008
-519.931	-77.091	-0.140	-0.049
-518.916	157.209	-0.064	-0.088
-517.902	55.240	-0.152	0.146
-516.887	78.430	0.026	-0.028
-515.872	-6.800	0.153	0.103
-514.858	151.750	0.108	-0.146
-513.843	-122.778	-0.334	0.054
-512.829	242.645	0.223	0.371
-511.814	85.351	0.070	0.076
-510.799	-200.000	0.021	-0.144
-509.785	-44.965	-0.087	-0.043
-508.770	-32.084	-0.006	0.003
-507.756	-200.000	0.081	-0.453
-506.741	637.473	0.099	-0.249
-505.726	-200.000	0.071	-0.337
-504.712	304.404	0.093	-0.172
-503.697	124.951	-0.094	-0.117
-502.683	-200.000	-0.019	0.337
-501.668	800.000	-0.033	0.103
-500.653	13.200	-0.215	-0.166
-499.639	800.000	0.099	-0.305
-498.624	122.008	-0.352	0.437
-497.610	800.000	0.052	0.146
-496.595	233.315	0.036	-0.060
-495.581	-200.000	-0.031	-0.295
-494.566	800.000	0.066	-0.236
-493.551	68.242	-0.234	0.238
-492.537	-1.798	0.283	-0.198
-491.522	-162.633	0.100	-0.005
-490.508	-27.227	-0.103	0.060
-489.493	-133.544	0.059	-0.007
-488.478	-200.000	-0.003	-0.099
-487.464	-200.000	-0.006	-0.083
-486.449	162.932	0.086	0.119
-485.435	111.081	0.166	-0.199
-484.420	-123.615	-0.228	-0.036
-483.405	-200.000	0.018	-0.203
-482.391	800.000	-0.098	0.323
-481.376	646.515	0.107	-0.272
-480.362	-29.990	0.082	0.046
-479.347	-47.471	0.035	-0.017
-478.332	468.272	0.120	-0.267
-477.318	103.004	0.162	0.188
-476.303	-200.000	-0.051	-0.391
-475.289	-94.341	-0.279	-0.076
-474.274	-200.000	0.003	-0.261
-473.259	724.312	0.101	0.267
-472.245	13.997	-0.210	0.162
-471.230	-200.000	-0.019	-0.127
-470.216	-48.493	0.061	-0.029
-469.201	-163.751	-0.073	-0.003
-468.186	-164.337	0.118	0.005
-467.172	-188.091	0.036	0.000
-466.157	-200.000	0.004	0.089
-465.143	65.938	0.312	0.314
-464.128	-200.000	0.313	0.001
-463.113	-166.125	-0.162	0.007
-462.099	-161.987	-0.162	-0.008
-461.084	166.680	-0.143	-0.202
-460.070	88.603	0.241	0.266
-459.055	50.181	-0.220	-0.206
-458.040	90.617	-0.034	-0.038
-457.026	-30.760	0.173	-0.097
-456.011	-200.000	-0.033	-0.215
-454.997	-200.000	0.001	0.176
-453.982	-97.230	-0.240	0.062
-452.968	800.000	0.064	-0.258
-451.953	-57.024	-0.025	-0.011
-450.938	5.721	-0.150	0.110
-449.924	-162.966	-0.353	0.017
-448.909	800.000	0.013	-0.044
-447.895	-118.576	0.190	-0.033
-446.880	62.087	0.160	-0.158
-445.865	23.484	0.064	-0.052
-444.851	12.786	-0.296	0.226
-443.836	-200.000	0.023	0.162
-442.822	800.000	-0.134	0.457
-441.807	-170.354	-0.178	-0.006
-440.792	-19.957	0.020	-0.012
-439.778	-10.188	-0.110	-0.073
-438.763	-200.000	0.060	-0.526
-437.749	147.991	-0.125	-0.167
-436.734	800.000	-0.060	-0.172
-435.719	-39.758	-0.120	-0.062
-434.705	-21.553	-0.029	-0.018
-433.690	-36.055	-0.254	0.136
-432.676	169.009	-0.159	0.224
-431.661	800.000	0.017	0.056
-430.646	-22.074	-0.167	0.101
-429.632	519.483	0.081	-0.188
-428.617	228.701	0.167	-0.270
-427.603	446.912	0.008	-0.018
-426.588	158.205	-0.064	-0.088
-425.573	-3.718	-0.202	-0.139
-424.559	-200.000	0.029	-0.147
-423.544	-162.838	0.349	-0.017
-422.530	-111.697	-0.261	-0.052
-421.515	800.000	0.077	0.247
-420.500	-107.713	0.296	0.064
-419.486	-127.046	-0.030	-0.004
-418.471	315.341	-0.141	0.264
-417.457	225.241	0.083	0.133
-416.442	517.210	-0.096	-0.223
-415.428	-156.128	-0.213	-0.013
-414.413	119.525	0.140	0.172
-413.398	-110.713	0.344	0.070
-412.384	-105.755	0.030	-0.007
-411.369	-134.055	0.161	0.020
-410.355	155.145	-0.075	-0.103
-409.340	591.550	-0.124	-0.303
-408.325	-73.754	0.129	0.047
-407.311	-59.870	-0.203	0.086
-406.296	48.600	-0.217	0.201
-405.282	-73.700	0.138	-0.050
-404.267	548.153	0.112	0.265
-403.252	134.836	0.295	-0.380
-402.238	546.411	-0.017	-0.041
-401.223	-39.312	0.071	-0.037
-400.209	3.595	0.096	0.069
-399.194	-200.000	0.029	-0.143
-398.179	199.455	-0.066	-0.100
-397.165	-88.790	-0.197	-0.058
-396.150	-117.097	-0.168	-0.030
-395.136	-122.734	0.052	-0.008
-394.121	-200.000	0.028	-0.149
-393.106	-200.000	-0.036	0.363
-392.092	-172.421	-0.430	0.014
-391.077	-98.632	0.277	-0.070
-390.063	79.642	0.151	0.160
-389.048	-200.000	-0.012	-0.145
-388.033	-12.884	0.269	-0.173
-387.019	34.125	-0.127	0.109
-386.004	-100.008	0.415	0.102
-384.990	-78.067	-0.143	0.049
-383.975	284.325	-0.150	-0.268
-382.960	-200.000	0.003	0.260
-381.946	113.378	0.107	-0.128
-380.931	-200.000	-0.063	0.400
-379.917	706.621	-0.053	0.138
-378.902	-143.220	0.208	-0.020
-377.888	800.000	-0.046	0.164
-376.873	800.000	0.018	-0.051
-375.858	92.401	-0.066	0.074
-374.844	478.523	0.166	0.371
-373.829	-70.113	-0.245	-0.092
-372.815	-126.600	0.354	0.052
-371.800	-200.000	0.007	-0.335
-370.785	-200.000	0.024	-0.238
-369.771	34.601	0.074	0.064
-368.756	133.153	-0.037	0.047
-367.742	800.000	0.024	-0.071
-366.727	712.382	-0.033	0.087
-365.712	395.009	0.097	0.201
-364.698	702.770	-0.082	0.213
-363.683	-200.000	0.050	0.328
-362.669	-6.709	-0.100	0.068
-361.654	-190.512	-0.140	0.001
-360.639	-3.078	-0.295	0.203
-359.625	2.324	0.213	0.152
-358.610	-47.715	-0.400	-0.192
-357.596	-200.000	0.031	-0.340
-356.581	106.323	-0.231	0.271
-355.566	-200.000	0.072	0.391
-354.552	156.493	0.118	-0.161
-353.537	149.251	-0.238	-0.318
-352.523	-23.370	0.219	-0.130
-351.508	-200.000	0.028	0.178
-350.493	-46.992	0.174	-0.084
-349.479	-200.000	-0.048	-0.246
-348.464	-51.392	0.062	0.029
-347.450	250.512	0.121	0.202
-346.435	-98.240	-0.224	-0.057
-345.420	-200.000	0.098	0.431
-344.406	-136.639	-0.232	0.026
-343.391	172.809	-0.125	-0.178
-342.377	-200.000	0.036	-0.165
-341.362	495.082	-0.117	0.266
-340.348	-30.270	-0.259	0.145
-339.333	-109.932	-0.094	-0.019
-338.318	800.000	-0.032	0.106
-337.304	-200.000	0.019	0.187
-336.289	461.703	-0.011	-0.023
-335.275	800.000	-0.036	0.101
-334.260	-123.921	-0.218	-0.034
-333.245	17.342	-0.227	-0.178
-332.231	-96.174	-0.056	0.015
-331.216	-200.000	-0.040	-0.300
-330.202	111.872	-0.088	0.104
-329.187	58.324	0.042	0.040
-328.172	157.978	0.206	0.282
-327.158	-131.527	-0.241	0.031
-326.143	-65.295	-0.050	0.020
-325.129	390.293	0.114	-0.233
-324.114	99.571	0.009	0.010
-323.099	800.000	0.178	0.505
-322.085	-121.587	0.317	0.052
-321.070	-34.696	-0.408	0.220
-320.056	335.451	-0.027	-0.051
-319.041	-200.000	0.036	0.204
-318.026	454.599	-0.219	0.478
-317.012	17.158	0.256	0.200
-315.997	-102.413	-0.346	0.082
-314.983	-10.559	-0.303	0.198
-313.968	800.000	-0.015	0.056
-312.953	-200.000	0.042	0.220
-311.939	-200.000	0.035	-0.215
-310.924	-0.913	0.073	-0.051
-309.910	372.467	0.088	-0.176
-308.895	-54.385	0.062	0.028
-307.880	462.782	0.052	0.115
-306.866	-107.202	0.068	0.015
-305.851	-200.000	0.019	-0.126
-304.837	-30.991	0.220	0.123
-303.822	-68.116	-0.435	0.167
-302.807	-124.470	0.098	-0.015
-301.793	-38.171	-0.118	-0.062
-300.778	35.834	0.150	-0.130
-299.764	-74.653	0.077	-0.027
-298.749	800.000	-0.055	-0.171
-297.735	800.000	0.057	-0.195
-296.720	363.383	-0.097	-0.192
-295.705	-74.961	0.063	-0.022
-294.691	216.590	0.115	0.180
-293.676	-200.000	0.012	-0.454
-292.662	800.000	-0.088	-0.281
-291.647	8.778	-0.076	-0.056
-290.632	800.000	0.035	-0.143
-289.618	-91.791	-0.176	-0.049
-288.603	-65.610	0.098	0.039
-287.589	43.174	0.206	-0.186
-286.574	-33.362	-0.097	-0.053
-285.559	-90.426	-0.104	-0.030
-284.545	-14.164	0.299	0.190
-283.530	4.121	-0.126	0.091
-282.516	65.880	-0.338	-0.338
-281.501	-9.090	0.076	-0.050
-280.486	-38.504	0.195	-0.102
-279.472	-103.079	0.291	-0.068
-278.457	39.462	-0.208	0.183
-277.443	-200.000	0.004	0.243
-276.428	-200.000	-0.006	-0.083
-275.413	26.961	0.060	-0.049
-274.399	-200.000	0.006	-0.222
-273.384	-170.477	0.096	0.003
-272.370	-26.068	-0.156	-0.090
-271.355	372.314	0.085	-0.170
-270.340	-51.318	-0.067	0.031
-269.326	-8.199	0.223	-0.148
-268.311	-200.000	-0.044	0.259
-267.297	-66.423	0.209	0.082
-266.282	800.000	0.044	0.151
-265.267	97.746	-0.121	0.136
-264.253	147.583	0.180	0.239
-263.238	-0.374	-0.157	-0.110
-262.224	-75.254	0.180	-0.063
-261.209	-200.000	0.004	-0.072
-260.195	71.865	-0.347	-0.356
-259.180	-67.028	-0.411	-0.160
-258.165	16.791	-0.205	-0.160
-257.151	-89.983	-0.212	-0.061
-256.136	43.432	0.171	0.154
-255.122	-35.063	0.050	-0.027
-254.107	800.000	0.047	-0.139
-253.092	-66.885	-0.399	0.155
-252.078	-15.439	0.175	-0.110
-251.063	-200.000	-0.018	-0.102
-250.049	-64.094	0.202	-0.081
-249.034	-200.000	-0.012	-0.075
-248.019	-105.544	-0.051	0.011
-247.005	-200.000	0.063	-0.473
-245.990	-148.113	-0.322	0.026
-244.976	290.913	0.077	0.138
-243.961	-123.375	-0.403	-0.063
-242.946	84.086	0.050	-0.053
-241.932	-200.000	0.017	-0.294
-240.917	-70.330	0.127	0.047
-239.903	-165.169	0.191	-0.008
-238.888	46.241	-0.164	-0.150
-237.873	-29.178	-0.169	-0.095
-236.859	-4.456	-0.170	0.116
-235.844	-200.000	-0.021	0.285
-234.830	286.347	-0.056	0.099
-233.815	207.508	0.102	-0.157
-232.800	277.429	-0.129	0.225
-231.786	-107.804	0.246	0.053
-230.771	-12.327	-0.097	-0.063
-229.757	38.050	-0.106	-0.093
-228.742	3.484	0.226	-0.162
-227.727	-121.687	-0.362	-0.059
-226.713	366.967	-0.188	-0.373
-225.698	-124.080	0.202	-0.031
-224.684	102.343	0.086	0.099
-223.669	800.000	-0.045	-0.135
-222.655	-56.657	-0.033	-0.014
-221.640	-200.000	-0.062	0.294
-220.625	-60.392	-0.127	-0.053
-219.611	48.411	-0.035	0.032
-218.596	-200.000	-0.002	0.243
-217.582	-134.443	0.330	0.040
-216.567	345.156	-0.135	0.260
-215.552	-30.043	0.267	-0.149
-214.538	-118.365	0.245	0.043
-213.523	-80.576	0.250	0.082
-212.509	109.370	0.180	0.211
-211.494	-200.000	-0.004	0.100
-210.479	397.475	0.090	0.185
-209.465	242.176	-0.170	0.279
-208.450	-103.977	0.451	0.103
-207.436	-124.157	0.260	-0.040
-206.421	31.989	0.148	-0.125
-205.406	46.653	0.391	-0.356
-204.392	113.532	0.089	-0.106
-203.377	77.340	-0.341	0.356
-202.363	-139.651	-0.185	0.019
-201.348	49.056	-0.017	-0.016
-200.333	800.000	-0.036	-0.130
-199.319	15.382	-0.050	0.039
-198.304	765.070	-0.044	0.117
-197.290	-114.343	0.170	0.032
-196.275	468.186	0.039	0.087
-195.260	800.000	0.074	-0.207
-194.246	-64.897	0.357	-0.142
-193.231	-99.080	-0.229	0.057
-192.217	-112.153	0.121	0.024
-191.202	120.759	-0.280	0.342
-190.187	-200.000	-0.024	-0.408
-189.173	363.553	-0.144	0.284
-188.158	-200.000	-0.006	0.071
-187.144	-20.182	0.413	0.250
-186.129	-73.772	-0.155	0.055
-185.114	240.010	-0.172	-0.281
-184.100	-147.268	0.227	-0.019
-183.085	-41.503	0.062	0.031
-182.071	-164.949	0.201	0.009
-181.056	-48.090	0.192	-0.091
-180.042	22.444	0.254	-0.203
-179.027	-200.000	-0.012	0.123
-178.012	-200.000	0.012	-0.175
-176.998	4.617	0.181	-0.131
-175.983	-53.000	-0.159	0.072
-174.969	32.544	0.237	0.201
-173.954	48.544	0.133	0.122
-172.939	38.464	0.143	0.125
-171.925	286.617	-0.155	0.275
-170.910	133.097	-0.162	-0.205
-169.896	362.307	0.067	0.131
-168.881	253.388	0.006	-0.010
-167.866	120.360	0.068	0.083
-166.852	-73.103	0.247	-0.089
-165.837	193.954	0.224	-0.333
-164.823	-61.776	-0.273	0.112
-163.808	-67.105	0.484	-0.187
-162.793	-59.921	0.214	0.090
-161.779	800.000	0.070	0.227
-160.764	-17.201	-0.612	0.378
-159.750	72.883	0.261	-0.267
-158.735	57.861	-0.124	-0.118
-157.720	-200.000	-0.010	0.209
-156.706	386.430	-0.132	0.267
-155.691	800.000	-0.105	-0.288
-154.677	29.949	-0.109	0.091
-153.662	-200.000	-0.000	0.203
-152.647	-179.765	0.127	0.003
-151.633	-22.986	-0.106	-0.063
-150.618	800.000	0.076	0.238
-149.604	-200.000	-0.293	-0.000
-148.589	-83.033	-0.236	-0.074
-147.574	-118.170	-0.347	0.061
-146.560	318.076	0.171	0.317
-145.545	733.061	0.110	-0.288
-144.531	305.417	0.127	-0.231
-143.516	-70.201	-0.237	0.088
-142.502	4.413	-0.346	0.249
-141.487	288.612	-0.173	-0.308
-140.472	83.663	0.241	0.257
-139.458	-42.042	0.453	-0.227
-138.443	-79.578	-0.212	0.070
-137.429	-20.621	0.135	-0.081
-136.414	301.922	-0.066	0.119
-135.399	41.165	-0.228	-0.201
-134.385	-93.926	-0.111	0.030
-133.370	51.477	-0.119	0.111
-132.356	800.000	0.037	0.118
-131.341	84.288	-0.168	0.180
-130.326	-98.536	0.357	0.089
-129.312	147.371	-0.022	0.029
-128.297	-123.469	-0.161	-0.025
-127.283	800.000	-0.013	-0.045
-126.268	11.144	0.190	-0.142
-125.253	201.392	0.174	-0.262
-124.239	-129.235	-0.312	-0.043
-123.224	195.594	-0.074	0.110
-122.210	747.936	0.124	0.326
-121.195	-24.039	0.343	0.201
-120.180	283.109	0.148	0.259
-119.166	212.618	-0.153	0.237
-118.151	27.508	0.172	0.142
-117.137	-113.679	0.187	0.036
-116.122	-200.000	-0.014	-0.132
-115.107	100.855	0.182	-0.207
-114.093	408.176	0.116	-0.240
-113.078	-200.000	-0.043	0.416
-112.064	-97.040	0.380	0.097
-111.049	287.859	-0.114	0.201
-110.034	164.665	0.154	0.212
-109.020	264.250	-0.044	-0.075
-108.005	17.804	0.041	0.032
-106.991	16.293	0.271	-0.209
-105.976	-64.028	-0.347	0.139
-104.962	4.547	-0.196	-0.141
-103.947	-73.845	-0.277	-0.098
-102.932	-87.342	0.435	-0.129
-101.918	-151.999	0.100	0.007
-100.903	-43.249	-0.057	-0.028
-99.889	-100.843	-0.239	0.057
-98.874	11.820	0.324	-0.244
-97.859	482.299	0.080	0.178
-96.845	-97.025	0.164	-0.042
-95.830	800.000	-0.048	0.128
-94.816	295.335	0.035	0.062
-93.801	-200.000	0.016	0.271
-92.786	29.651	0.278	-0.232
-91.772	-77.769	-0.144	0.049
-90.757	18.410	0.191	-0.149
-89.743	-44.305	0.230	-0.113
-88.728	155.497	0.139	-0.187
-87.713	-79.604	-0.186	-0.061
-86.699	-112.073	-0.080	-0.016
-85.684	-86.835	-0.303	0.090
-84.670	448.919	-0.008	-0.017
-83.655	190.295	0.126	-0.186
-82.640	46.141	0.288	-0.261
-81.626	-42.192	-0.115	0.057
-80.611	-51.808	-0.242	-0.110
-79.597	352.006	0.168	0.324
-78.582	-87.681	-0.340	-0.100
-77.567	162.984	0.130	0.178
-76.553	13.465	-0.116	-0.088
-75.538	-200.000	0.051	0.225
-74.524	481.810	-0.158	0.350
-73.509	-200.000	0.022	-0.289
-72.494	-200.000	0.060	-0.261
-71.480	-91.786	-0.197	-0.055
-70.465	692.237	0.133	0.339
-69.451	800.000	0.051	0.163
-68.436	800.000	-0.043	-0.173
-67.422	800.000	0.013	0.045
-66.407	-200.000	0.005	-0.103
-65.392	-200.000	0.034	-0.361
-64.378	-200.000	-0.011	0.122
-63.363	-35.928	-0.220	-0.116
-62.349	-73.486	-0.207	0.074
-61.334	91.394	-0.903	-0.990
-60.319	200.818	0.439	0.660
-59.305	689.109	-0.437	-1.117
-58.290	369.467	0.777	1.536
-57.276	800.000	0.469	1.596
-56.261	-200.000	111.569	632.615
-55.246	482.169	1478.566	3279.115
-54.232	152.212	2646.985	3526.360
-53.217	95.369	2266.366	2521.972
-52.203	36.492	1887.838	1626.162
-51.188	30.986	1684.078	1409.105
-50.173	28.593	1643.374	1357.316
-49.159	48.242	1698.465	1551.135
-48.144	47.275	1713.165	1557.218
-47.130	30.501	1672.099	1395.221
-46.115	28.057	1657.311	1364.611
-45.100	27.772	1652.878	1358.785
-44.086	27.750	1650.153	1356.329
-43.071	27.674	1647.886	1353.846
-42.057	27.712	1645.557	1352.158
-41.042	27.791	1643.235	1350.787
-40.027	27.695	1641.714	1348.771
-39.013	27.666	1640.181	1347.243
-37.998	27.633	1638.871	1345.868
-36.984	27.727	1637.324	1345.242
-35.969	27.795	1635.578	1344.255
-34.954	27.900	1634.009	1343.679
-33.940	27.863	1632.184	1341.855
-32.925	27.841	1630.843	1340.537
-31.911	27.850	1629.236	1339.234
-30.896	27.895	1627.123	1337.774
-29.881	27.817	1625.748	1336.020
-28.867	27.789	1624.308	1334.577
-27.852	27.833	1623.121	1333.867
-26.838	27.839	1621.733	1332.720
-25.823	27.884	1620.071	1331.625
-24.809	27.948	1618.542	1330.786
-23.794	27.881	1617.499	1329.385
-22.779	27.895	1616.092	1328.278
-21.765	27.999	1614.288	1327.501
-20.750	27.829	1612.665	1324.875
-19.736	27.886	1611.265	1324.087
-18.721	27.854	1609.873	1322.663
-17.706	27.862	1608.423	1321.472
-16.692	27.835	1606.997	1320.056
-15.677	27.830	1605.625	1318.840
-14.663	27.908	1604.215	1318.191
-13.648	27.787	1603.600	1316.759
-12.633	27.887	1601.436	1315.654
-11.619	27.930	1600.080	1314.798
-10.604	27.889	1598.742	1313.353
-9.590	27.882	1597.247	1312.023
-8.575	27.874	1596.125	1310.988
-7.560	27.886	1594.940	1310.051
-6.546	27.800	1593.791	1308.439
-5.531	27.931	1592.089	1307.929
-4.517	27.801	1591.488	1306.452
-3.502	27.932	1590.305	1306.365
-2.487	27.951	1588.237	1304.748
-1.473	27.369	1575.697	1290.267
-0.458	23.720	1554.734	1247.477
0.556	17.692	1555.042	1208.891
1.571	15.014	1576.551	1206.224
2.586	14.386	1587.690	1210.080
3.600	13.094	1535.097	1160.813
4.615	7.367	1430.608	1044.092
5.629	1.428	1370.089	962.302
6.644	0.287	1362.139	949.448
7.659	0.296	1360.723	948.430
8.673	0.061	1360.449	946.677
9.688	0.097	1357.922	945.060
10.702	-0.021	1354.509	941.862
11.717	2.947	1358.678	963.311
12.731	10.139	1369.440	1016.180
13.746	15.716	1377.602	1057.305
14.761	16.913	1378.650	1065.544
15.775	16.318	1376.372	1059.954
16.790	15.188	1374.074	1051.005
17.804	14.548	1371.601	1045.011
18.819	14.137	1370.322	1041.370
19.834	13.928	1369.226	1039.142
20.848	13.682	1367.917	1036.517
21.863	13.372	1366.502	1033.414
22.877	13.257	1365.251	1031.660
23.892	13.172	1364.555	1030.511
24.907	13.190	1363.667	1029.866
25.921	13.225	1362.820	1029.350
26.936	13.204	1362.159	1028.628
27.950	13.221	1360.914	1027.708
28.965	13.346	1359.926	1027.647
29.980	13.449	1358.798	1027.341
30.994	13.487	1358.118	1026.969
32.009	13.448	1357.051	1025.829
33.023	13.421	1355.855	1024.672
34.038	13.360	1354.766	1023.382
35.053	13.330	1353.980	1022.508
36.067	13.267	1353.354	1021.556
37.082	13.375	1351.941	1021.066
38.096	13.456	1350.866	1020.661
39.111	13.391	1350.471	1019.875
40.126	13.385	1349.390	1018.931
41.140	13.214	1348.901	1017.421
42.155	13.277	1348.176	1017.166
43.169	13.145	1348.293	1016.356
44.184	13.265	1347.955	1016.751
45.199	13.191	1347.480	1015.848
46.213	13.190	1347.009	1015.394
47.228	13.306	1345.721	1015.043
48.242	13.403	1344.459	1014.596
49.257	13.211	1343.574	1012.663
50.271	13.180	1342.207	1011.357
51.286	13.298	1340.162	1010.448
52.301	13.282	1339.510	1009.768
53.315	13.232	1338.318	1008.476
54.330	13.376	1336.815	1008.131
55.344	13.287	1336.054	1006.927
56.359	13.261	1334.552	1005.548
57.374	13.226	1334.025	1004.845
58.388	13.208	1333.490	1004.248
59.403	13.146	1332.981	1003.396
60.417	13.180	1332.254	1002.969
61.432	13.137	1331.425	1001.994
62.447	12.914	1330.920	1000.170
63.461	13.170	1328.988	1000.180
64.476	13.024	1328.798	999.065
65.490	13.106	1326.668	997.869
66.505	13.159	1325.494	997.220
67.520	13.110	1324.000	995.715
68.534	13.208	1323.362	995.736
69.549	13.142	1321.980	994.208
70.563	13.168	1321.264	993.742
71.578	13.072	1320.153	992.239
72.593	13.111	1319.175	991.653
73.607	13.039	1317.937	990.202
74.622	13.044	1317.171	989.571
75.636	13.066	1316.422	989.049
76.651	13.069	1315.674	988.415
77.666	13.050	1315.250	987.901
78.680	13.112	1314.781	987.827
79.695	13.042	1314.132	986.833
80.709	13.108	1313.229	986.467
81.724	13.172	1312.534	986.240
82.739	13.170	1311.368	985.261
83.753	13.105	1310.864	984.411
84.768	13.280	1309.311	984.195
85.782	13.369	1307.904	983.580
86.797	13.244	1306.967	982.047
87.812	13.197	1305.886	980.869
88.826	13.298	1304.252	980.155
89.841	13.269	1303.133	979.055
90.855	13.255	1302.666	978.534
91.870	13.447	1301.207	978.488
92.884	13.387	1300.900	977.814
93.899	13.423	1300.128	977.360
94.914	13.413	1299.534	976.766
95.928	13.405	1298.292	975.700
96.943	13.401	1297.683	975.131
97.957	13.454	1296.071	974.149
98.972	13.401	1295.353	973.212
99.987	13.448	1294.470	972.739
101.001	13.395	1293.563	971.659
102.016	13.321	1292.853	970.603
103.030	13.491	1291.395	970.422
104.045	13.396	1290.411	969.040
105.060	13.380	1289.286	968.013
106.074	13.256	1288.593	966.685
107.089	13.261	1286.900	965.357
108.103	13.220	1285.868	964.259
109.118	13.238	1284.507	963.258
110.133	13.304	1283.151	962.542
111.147	13.229	1281.600	960.854
112.162	13.271	1280.410	960.124
113.176	13.252	1279.600	959.319
114.191	13.246	1278.950	958.715
115.206	13.266	1277.593	957.728
116.220	13.216	1276.432	956.484
117.235	13.340	1275.277	956.250
118.249	13.232	1274.343	954.839
119.264	13.242	1273.103	953.886
120.279	13.263	1271.938	953.048
121.293	13.305	1270.617	952.214
122.308	13.176	1269.670	950.682
123.322	13.159	1269.185	950.135
124.337	13.272	1267.349	949.323
125.352	13.150	1266.672	948.032
126.366	13.139	1265.912	947.318
127.381	13.253	1264.306	946.686
128.395	13.164	1263.402	945.413
129.410	13.177	1262.281	944.566
130.424	13.198	1261.643	944.128
131.439	13.293	1260.421	943.673
132.454	13.253	1259.760	942.861
133.468	13.207	1258.654	941.691
134.483	13.261	1257.967	941.399
135.497	13.282	1256.705	940.490
136.512	13.261	1255.394	939.311
137.527	13.292	1254.135	938.457
138.541	13.310	1252.676	937.389
139.556	13.334	1251.585	936.626
140.570	13.377	1250.678	936.102
141.585	13.328	1249.378	934.771
142.600	13.411	1247.846	934.012
143.614	13.487	1247.082	933.787
144.629	13.513	1245.532	932.691
145.643	13.450	1244.698	931.629
146.658	13.481	1243.297	930.672
147.673	13.452	1242.290	929.674
148.687	13.412	1241.043	928.430
149.702	13.403	1239.685	927.283
150.716	13.354	1238.613	926.128
151.731	13.440	1237.286	925.535
152.746	13.384	1236.483	924.536
153.760	13.442	1234.919	923.612
154.775	13.511	1233.537	922.878
155.789	13.429	1233.209	922.097
156.804	13.533	1231.909	921.622
157.819	13.482	1231.097	920.649
158.833	13.560	1230.048	920.215
159.848	13.586	1228.859	919.386
160.862	13.591	1227.714	918.476
161.877	13.610	1226.593	917.662
162.892	13.403	1225.863	915.888
163.906	13.458	1224.567	915.147
164.921	13.536	1223.786	914.910
165.935	13.601	1222.677	914.358
166.950	13.618	1222.245	914.049
167.964	13.679	1221.245	913.557
168.979	13.617	1221.183	913.087
169.994	13.513	1220.703	912.074
171.008	13.605	1219.762	911.798
172.023	13.650	1218.200	910.798
173.037	13.715	1217.454	910.514
174.052	13.729	1216.432	909.747
175.067	13.616	1215.711	908.508
176.081	13.551	1214.905	907.471
177.096	13.656	1213.543	906.947
178.110	13.606	1212.555	905.853
179.125	13.716	1211.209	905.372
180.140	13.603	1210.210	903.928
181.154	13.646	1208.781	903.014
182.169	13.689	1207.849	902.469
183.183	13.674	1206.602	901.379
184.198	13.814	1205.318	901.098
185.213	13.855	1204.356	900.523
186.227	13.792	1203.002	899.092
187.242	13.874	1202.289	898.922
188.256	13.890	1201.563	898.387
189.271	13.993	1199.571	897.374
190.286	13.849	1199.042	896.121
191.300	13.612	1198.686	894.496
192.315	13.630	1197.991	893.995
193.329	13.623	1197.173	893.265
194.344	13.771	1196.578	893.543
195.359	13.707	1195.848	892.575
196.373	13.811	1195.180	892.553
197.388	13.832	1194.874	892.362
198.402	13.917	1194.155	892.203
199.417	13.995	1193.433	892.003
200.432	14.050	1192.519	891.535
201.446	14.060	1191.974	891.104
202.461	14.042	1191.107	890.278
203.475	14.127	1189.685	889.591
204.490	14.081	1188.788	888.596
205.504	14.050	1187.507	887.395
206.519	14.035	1186.382	886.394
207.534	14.061	1184.976	885.406
208.548	14.049	1184.087	884.599
209.563	14.034	1183.597	884.073
210.577	14.064	1182.717	883.501
211.592	14.246	1181.455	883.441
212.607	14.272	1180.565	882.838
213.621	14.130	1180.227	881.756
214.636	14.132	1179.470	881.120
215.650	14.140	1177.861	879.885
216.665	14.134	1177.459	879.475
217.680	14.290	1176.333	879.379
218.694	14.314	1175.175	878.563
219.709	14.246	1174.968	877.971
220.723	14.259	1174.265	877.434
221.738	14.258	1173.655	876.896
222.753	14.339	1172.329	876.257
223.767	14.222	1172.034	875.340
224.782	14.446	1171.113	875.752
225.796	14.449	1170.752	875.421
226.811	14.437	1169.760	874.539
227.826	14.402	1169.241	873.891
228.840	14.325	1168.639	872.960
229.855	14.418	1167.694	872.663
230.869	14.363	1167.149	871.890
231.884	14.380	1165.894	870.967
232.899	14.371	1165.388	870.466
233.913	14.271	1164.608	869.281
234.928	14.267	1163.954	868.693
235.942	14.457	1162.978	868.881
236.957	14.421	1162.034	867.914
237.972	14.397	1161.331	867.184
238.986	14.432	1161.086	867.107
240.001	14.472	1160.094	866.498
241.015	14.430	1159.161	865.506
242.030	14.478	1158.309	865.045
243.045	14.443	1157.647	864.292
244.059	14.596	1156.815	864.383
245.074	14.569	1156.037	863.587
246.088	14.509	1155.147	862.535
247.103	14.531	1154.515	862.101
248.117	14.627	1153.611	861.847
249.132	14.738	1153.170	862.012
250.147	14.683	1153.007	861.531
251.161	14.713	1151.689	860.622
252.176	14.777	1150.895	860.285
253.190	14.909	1149.920	860.157
254.205	14.948	1149.611	860.051
255.220	14.899	1149.226	859.436
256.234	14.793	1148.726	858.443
257.249	14.861	1147.938	858.126
258.263	14.898	1147.121	857.631
259.278	14.930	1146.413	857.187
260.293	14.954	1146.212	857.085
261.307	15.009	1145.464	856.731
262.322	15.048	1145.079	856.569
263.336	14.996	1144.079	855.475
264.351	15.046	1143.761	855.416
265.366	15.065	1142.526	854.519
266.380	15.018	1142.117	853.897
267.395	15.091	1141.059	853.402
268.409	15.082	1140.450	852.826
269.424	15.112	1139.572	852.246
270.439	15.064	1139.349	851.760
271.453	15.066	1138.678	851.194
272.468	15.085	1137.514	850.345
273.482	15.010	1137.358	849.772
274.497	15.004	1136.173	848.778
275.512	15.098	1135.644	848.783
276.526	15.083	1135.045	848.184
277.541	15.117	1134.227	847.671
278.555	15.099	1133.522	846.978
279.570	15.236	1132.792	847.049
280.585	15.204	1131.991	846.216
281.599	15.306	1131.274	846.120
282.614	15.070	1130.503	844.277
283.628	15.133	1129.094	843.468
284.643	15.233	1128.108	843.160
285.657	15.302	1127.453	842.941
286.672	15.233	1126.360	841.702
287.687	15.232	1125.780	841.190
288.701	15.365	1124.643	840.936
289.716	15.239	1124.084	839.812
290.730	15.387	1123.318	839.905
291.745	15.298	1122.530	838.797
292.760	15.277	1122.064	838.268
293.774	15.452	1121.622	838.739
294.789	15.453	1120.918	838.142
295.803	15.419	1120.431	837.534
296.818	15.458	1119.500	836.961
297.833	15.382	1118.832	836.006
298.847	15.469	1117.833	835.620
299.862	15.578	1116.835	835.342
300.876	15.509	1116.232	834.477
301.891	15.618	1115.462	834.365
302.906	15.570	1115.367	833.983
303.920	15.490	1114.471	832.842
304.935	15.663	1113.909	833.206
305.949	15.667	1113.089	832.539
306.964	15.589	1112.760	831.833
307.979	15.670	1111.954	831.557
308.993	15.607	1110.772	830.290
310.008	15.713	1110.043	830.193
311.022	15.685	1109.408	829.509
312.037	15.780	1108.546	829.258
313.052	15.794	1107.711	828.629
314.066	15.602	1107.189	827.221
315.081	15.630	1105.795	826.242
316.095	15.616	1105.252	825.696
317.110	15.739	1104.535	825.692
318.125	15.640	1103.980	824.714
319.139	15.707	1103.204	824.395
320.154	15.662	1102.735	823.748
321.168	15.706	1101.925	823.286
322.183	15.752	1101.299	822.972
323.197	15.691	1100.903	822.304
324.212	15.772	1100.034	821.978
325.227	15.748	1099.743	821.569
326.241	15.918	1098.752	821.586
327.256	15.858	1098.285	820.874
328.270	15.821	1097.122	819.751
329.285	15.794	1096.485	819.069
330.300	15.850	1095.383	818.448
331.314	15.916	1093.888	817.578
332.329	15.834	1093.295	816.665
333.343	15.801	1092.583	815.900
334.358	15.907	1091.820	815.770
335.373	15.917	1091.215	815.298
336.387	15.970	1090.089	814.641
337.402	16.035	1089.433	814.389
338.416	16.020	1089.056	813.964
339.431	15.973	1088.247	813.061
340.446	16.079	1087.793	813.163
341.460	16.085	1087.016	812.538
342.475	16.224	1085.707	812.155
343.489	16.035	1085.654	811.132
344.504	16.217	1084.102	810.779
345.519	16.179	1083.653	810.189
346.533	16.299	1082.623	809.923
347.548	16.200	1082.389	809.201
348.562	16.292	1081.146	808.642
349.577	16.309	1080.405	808.097
350.592	16.222	1079.681	807.069
351.606	16.204	1079.149	806.509
352.621	16.245	1078.606	806.228
353.635	16.252	1077.794	805.587
354.650	16.235	1077.359	805.107
355.665	16.306	1076.293	804.579
356.679	16.329	1076.072	804.451
357.694	16.347	1075.198	803.811
358.708	16.319	1074.783	803.297
359.723	16.343	1073.947	802.717
360.738	16.421	1073.209	802.465
361.752	16.352	1072.827	801.779
362.767	16.342	1072.420	801.355
363.781	16.347	1071.878	800.906
364.796	16.364	1071.240	800.438
365.810	16.347	1070.903	800.033
366.825	16.418	1070.220	799.788
367.840	16.615	1069.367	800.012
368.854	16.514	1068.715	798.977
369.869	16.642	1068.184	799.114
370.883	16.581	1067.038	797.901
371.898	16.538	1066.202	797.000
372.913	16.670	1065.705	797.180
373.927	16.592	1065.181	796.352
374.942	16.574	1064.496	795.685
375.956	16.651	1064.037	795.633
376.971	16.688	1063.547	795.368
377.986	16.619	1063.416	794.876
379.000	16.624	1062.866	794.419
380.015	16.719	1062.258	794.340
381.029	16.799	1061.197	793.850
382.044	16.781	1060.861	793.445
383.059	16.761	1060.185	792.773
384.073	16.752	1059.715	792.311
385.088	16.818	1058.593	791.710
386.102	16.981	1057.185	791.348
387.117	16.822	1056.332	789.898
388.132	16.821	1055.652	789.314
389.146	16.803	1054.692	788.445
390.161	16.775	1054.398	788.024
391.175	16.883	1053.542	787.817
392.190	16.930	1052.580	787.247
393.205	16.910	1051.966	786.623
394.219	16.961	1051.237	786.245
395.234	16.939	1050.309	785.380
396.248	16.929	1049.533	784.683
397.263	16.946	1048.368	783.823
398.278	16.997	1047.744	783.520
399.292	16.886	1047.348	782.643
400.307	16.917	1046.465	782.056
401.321	16.860	1046.198	781.524
402.336	16.911	1045.051	780.837
403.350	16.938	1044.877	780.762
404.365	16.988	1043.703	780.043
405.380	17.035	1043.120	779.756
406.394	17.080	1042.224	779.223
407.409	17.038	1041.674	778.550
408.423	17.139	1040.647	778.175
409.438	17.160	1040.387	778.010
410.453	17.313	1039.477	777.962
411.467	17.286	1038.952	777.378
412.482	17.315	1038.026	776.746
413.496	17.337	1037.609	776.468
414.511	17.249	1037.169	775.667
415.526	17.292	1036.710	775.450
416.540	17.345	1036.360	775.360
417.555	17.450	1035.425	775.073
418.569	17.454	1034.587	774.392
419.584	17.365	1034.363	773.750
420.599	17.408	1034.005	773.611
421.613	106.178	1325.708	1479.043
422.628	97.293	1368.172	1479.138
