DTS Sentinel unit serial number:	SN413079Multiplexer serial number:	ORYXHardware model number:	OX4-SRSoftware version number:	ORYX F/W v4.00 Oryx Data Collector v3.7.2.0data status	okinstallation	princeton_trtdifferential loss correction	single-endedforward channel	channel 2reverse channel	N/Adate	2019/09/19time	08:55:35forward acquisition time	60.00reverse acquisition time	0.00gamma	496.2192k internal	0.2353k external	0.2353temperature offset calibration	1.0003default loss term (dB/km)	0.3790temperature slope calibration	1.0000multiplexer offset coefficient	1.0000multiplexer slope coefficient	1.0000fibre end	0.00T internal ref (°C)	21.33T ext. ref 1 (°C)	0.59T ext. ref 2 (°C)	17.27length (m)	temperature (°C)	Stokes	anti-Stokes-747.200	77.497	0.117	-0.124
-746.185	-200.000	0.033	0.453
-745.171	800.000	-0.047	0.178
-744.156	-4.175	0.121	0.084
-743.142	17.216	-0.097	-0.077
-742.127	134.725	-0.072	0.093
-741.112	-135.118	0.100	0.012
-740.098	100.722	-0.181	0.210
-739.083	-137.481	-0.109	0.012
-738.069	-200.000	-0.015	0.128
-737.054	-64.742	0.179	-0.072
-736.039	-23.194	-0.492	0.295
-735.025	800.000	-0.079	0.218
-734.010	604.075	-0.039	0.097
-732.996	377.406	-0.159	-0.325
-731.981	150.312	-0.238	-0.322
-730.966	-200.000	-0.014	-0.060
-729.952	-120.880	-0.313	0.053
-728.937	800.000	-0.020	0.083
-727.923	-200.000	-0.042	-0.296
-726.908	-200.000	-0.046	0.270
-725.894	-1.727	0.193	-0.136
-724.879	-200.000	0.035	-0.326
-723.864	-192.966	-0.397	0.004
-722.850	521.815	0.072	-0.169
-721.835	-159.797	-0.230	-0.013
-720.821	-200.000	0.007	-0.345
-719.806	114.229	-0.147	-0.179
-718.791	-139.207	-0.191	-0.020
-717.777	-200.000	-0.023	0.107
-716.762	800.000	-0.093	0.277
-715.748	34.210	0.157	-0.136
-714.733	800.000	-0.070	-0.296
-713.718	191.833	-0.232	-0.348
-712.704	-200.000	-0.008	-0.060
-711.689	40.987	-0.089	0.080
-710.675	74.886	-0.167	-0.175
-709.660	-134.972	0.089	-0.011
-708.645	-200.000	-0.001	-0.218
-707.631	-200.000	0.036	0.192
-706.616	-200.000	0.025	-0.461
-705.602	-99.777	-0.325	-0.081
-704.587	800.000	0.073	-0.212
-703.572	-141.540	0.317	0.032
-702.558	90.577	0.062	-0.069
-701.543	313.051	0.130	0.244
-700.529	-76.398	0.075	0.026
-699.514	-19.901	-0.029	-0.018
-698.499	-76.281	0.077	-0.027
-697.485	800.000	-0.031	0.093
-696.470	401.370	0.155	-0.323
-695.456	73.143	0.232	0.241
-694.441	-53.725	-0.292	-0.133
-693.426	-111.001	-0.256	-0.052
-692.412	-200.000	0.048	-0.226
-691.397	403.035	-0.105	-0.219
-690.383	29.992	-0.060	-0.051
-689.368	-200.000	0.017	0.142
-688.354	-200.000	-0.010	0.050
-687.339	119.408	-0.051	-0.062
-686.324	46.722	-0.207	0.192
-685.310	86.911	-0.064	0.071
-684.295	791.941	0.060	-0.165
-683.281	-185.537	-0.167	-0.003
-682.266	-10.495	0.284	0.187
-681.251	644.669	0.039	0.100
-680.237	800.000	-0.061	0.242
-679.222	-115.138	-0.164	-0.031
-678.208	-112.371	0.163	0.032
-677.193	250.555	-0.084	-0.142
-676.178	-26.798	0.078	0.045
-675.164	-38.375	-0.196	0.103
-674.149	-24.506	0.170	-0.101
-673.135	-29.003	0.039	0.022
-672.120	-134.481	0.421	-0.051
-671.105	624.438	-0.078	0.197
-670.091	-109.300	0.280	-0.059
-669.076	50.557	-0.200	0.188
-668.062	129.415	-0.069	0.088
-667.047	-185.907	-0.211	0.003
-666.032	-53.894	0.179	-0.081
-665.018	-58.720	0.363	-0.156
-664.003	-40.924	0.001	-0.000
-662.989	325.620	0.025	0.047
-661.974	106.365	0.184	0.216
-660.959	259.236	-0.224	0.385
-659.945	182.683	0.071	-0.104
-658.930	287.209	0.054	0.096
-657.916	-200.000	-0.004	-0.208
-656.901	-200.000	0.030	-0.236
-655.886	-197.769	-0.150	0.001
-654.872	126.406	-0.133	-0.167
-653.857	-200.000	0.015	0.151
-652.843	57.486	0.165	0.161
-651.828	181.854	-0.078	-0.113
-650.814	90.843	0.076	-0.085
-649.799	-141.493	-0.284	0.029
-648.784	800.000	0.104	-0.288
-647.770	-76.280	-0.341	0.119
-646.755	-56.457	-0.162	0.071
-645.741	-55.397	-0.273	0.122
-644.726	-200.000	0.008	0.145
-643.711	484.089	0.109	-0.246
-642.697	-62.765	-0.040	-0.017
-641.682	-200.000	0.015	0.280
-640.668	-21.173	0.085	0.051
-639.653	-57.863	-0.256	0.111
-638.638	1.488	0.147	-0.105
-637.624	298.802	-0.141	-0.258
-636.609	84.520	-0.120	0.130
-635.595	-33.928	-0.079	-0.043
-634.580	-118.772	-0.212	-0.037
-633.565	800.000	0.061	-0.210
-632.551	-45.943	-0.110	-0.054
-631.536	15.410	0.051	0.040
-630.522	46.324	0.033	0.030
-629.507	165.322	0.226	0.318
-628.492	-30.025	-0.173	-0.098
-627.478	-63.926	-0.237	0.096
-626.463	800.000	-0.017	0.069
-625.449	-73.298	0.265	0.096
-624.434	-24.239	0.074	-0.044
-623.419	18.453	-0.048	-0.038
-622.405	-47.072	0.051	0.025
-621.390	-200.000	0.048	0.270
-620.376	3.114	0.098	0.071
-619.361	-192.983	-0.318	0.003
-618.346	-62.359	-0.265	-0.110
-617.332	425.764	0.190	0.405
-616.317	-58.749	0.369	-0.158
-615.303	123.231	-0.423	-0.526
-614.288	236.109	0.036	0.059
-613.273	-31.667	0.238	-0.132
-612.259	31.141	0.177	-0.151
-611.244	-5.306	-0.036	0.024
-610.230	-59.040	-0.191	0.082
-609.215	800.000	-0.036	-0.118
-608.201	360.325	-0.138	-0.274
-607.186	101.646	-0.129	-0.149
-606.171	127.050	0.177	-0.223
-605.157	-200.000	0.030	-0.284
-604.142	483.807	-0.057	-0.128
-603.128	-3.266	0.217	0.150
-602.113	420.356	0.186	-0.394
-601.098	-84.471	-0.277	0.087
-600.084	-27.587	0.181	-0.104
-599.069	96.919	-0.223	-0.253
-598.055	-130.430	0.283	0.038
-597.040	-120.452	-0.426	-0.072
-596.025	-88.606	-0.111	0.033
-595.011	800.000	0.075	-0.209
-593.996	-200.000	0.007	0.060
-592.982	415.012	-0.185	-0.391
-591.967	800.000	0.038	0.164
-590.952	68.384	-0.083	0.084
-589.938	53.212	0.190	-0.180
-588.923	-200.000	0.010	-0.071
-587.909	46.385	0.346	-0.318
-586.894	63.625	0.112	-0.112
-585.879	140.755	-0.247	-0.323
-584.865	-81.230	0.040	-0.013
-583.850	93.587	-0.079	0.088
-582.836	8.597	0.056	0.042
-581.821	-148.434	-0.108	0.009
-580.806	800.000	0.127	-0.384
-579.792	691.374	-0.068	0.178
-578.777	10.494	0.121	-0.091
-577.763	13.316	0.137	0.105
-576.748	-113.896	-0.259	0.050
-575.733	-83.797	-0.232	0.073
-574.719	-58.463	0.170	-0.073
-573.704	-144.245	-0.090	-0.008
-572.690	-116.368	-0.101	0.018
-571.675	149.654	-0.183	-0.246
-570.661	406.944	-0.146	-0.305
-569.646	-95.045	0.229	0.061
-568.631	-18.696	-0.062	-0.038
-567.617	800.000	-0.076	0.278
-566.602	-10.189	-0.340	-0.224
-565.588	-40.825	0.261	0.134
-564.573	-200.000	-0.047	0.257
-563.558	264.763	0.221	-0.381
-562.544	800.000	-0.021	-0.080
-561.529	18.825	-0.041	-0.033
-560.515	-32.401	-0.410	-0.226
-559.500	-101.401	-0.090	0.022
-558.485	-170.970	0.343	0.012
-557.471	-200.000	-0.012	0.241
-556.456	-39.985	-0.190	0.098
-555.442	-200.000	0.011	0.107
-554.427	-200.000	0.004	0.039
-553.412	-153.034	-0.243	0.017
-552.398	-57.634	-0.070	0.030
-551.383	-200.000	-0.011	0.120
-550.369	273.434	-0.245	-0.428
-549.354	562.679	-0.126	-0.302
-548.339	156.236	-0.107	-0.146
-547.325	100.534	0.013	0.015
-546.310	434.282	-0.089	-0.191
-545.296	-105.998	0.217	0.048
-544.281	-34.177	-0.249	-0.135
-543.266	139.055	-0.092	-0.120
-542.252	184.108	0.124	-0.181
-541.237	-200.000	0.020	0.218
-540.223	-85.837	0.169	-0.052
-539.208	117.502	0.119	0.144
-538.193	-200.000	-0.064	0.382
-537.179	-55.027	-0.187	-0.083
-536.164	-200.000	0.022	-0.119
-535.150	-200.000	-0.004	-0.034
-534.135	-9.124	0.250	-0.166
-533.121	619.872	0.088	-0.218
-532.106	360.190	-0.083	-0.164
-531.091	-117.699	-0.278	0.050
-530.077	-113.114	0.043	-0.008
-529.062	171.237	0.111	0.158
-528.048	766.321	-0.054	-0.144
-527.033	143.490	0.077	0.101
-526.018	-33.282	-0.244	-0.134
-525.004	714.392	-0.045	0.119
-523.989	800.000	-0.004	-0.019
-522.975	217.872	0.032	-0.050
-521.960	-2.708	-0.169	-0.117
-520.945	-168.693	0.261	0.010
-519.931	243.316	-0.088	-0.147
-518.916	-200.000	0.017	-0.313
-517.902	-107.227	0.437	0.095
-516.887	82.688	-0.102	0.110
-515.872	-200.000	-0.044	-0.234
-514.858	-133.030	0.168	0.021
-513.843	35.915	0.183	0.159
-512.829	-200.000	-0.098	0.000
-511.814	-161.103	-0.132	-0.007
-510.799	55.472	-0.127	0.121
-509.785	41.638	0.183	-0.164
-508.770	-145.213	0.174	0.016
-507.756	-200.000	-0.003	-0.196
-506.741	-4.638	-0.474	-0.323
-505.726	-200.000	-0.087	-0.386
-504.712	800.000	-0.041	0.128
-503.697	800.000	0.018	-0.055
-502.683	283.383	-0.096	-0.171
-501.668	293.323	-0.066	0.120
-500.653	396.512	0.091	0.188
-499.639	106.630	-0.184	0.216
-498.624	-133.513	-0.296	0.037
-497.610	-200.000	-0.068	-0.342
-496.595	127.014	-0.158	-0.197
-495.581	320.969	-0.089	-0.166
-494.566	-78.867	0.178	0.060
-493.551	-61.549	0.229	-0.095
-492.537	-34.734	-0.145	-0.078
-491.522	117.329	0.024	-0.029
-490.508	495.685	-0.222	-0.505
-489.493	11.398	0.085	-0.064
-488.478	-200.000	-0.017	0.086
-487.464	800.000	0.008	0.024
-486.449	122.388	-0.204	0.251
-485.435	800.000	0.037	-0.124
-484.420	800.000	0.040	0.169
-483.405	-81.463	-0.184	-0.060
-482.391	-200.000	0.000	0.094
-481.376	-77.619	0.102	0.035
-480.362	-89.548	-0.277	-0.080
-479.347	-88.347	0.172	0.051
-478.332	800.000	0.048	-0.167
-477.318	128.067	-0.082	-0.103
-476.303	800.000	0.047	-0.186
-475.289	800.000	-0.032	-0.137
-474.274	-57.153	-0.294	-0.128
-473.259	90.923	0.102	-0.113
-472.245	-46.105	0.231	0.112
-471.230	-21.707	-0.316	0.190
-470.216	-22.561	0.153	-0.091
-469.201	-200.000	-0.001	0.310
-468.186	94.438	0.194	-0.217
-467.172	108.552	0.280	-0.329
-466.157	366.692	-0.126	0.251
-465.143	748.748	0.099	0.262
-464.128	-200.000	-0.013	0.103
-463.113	-200.000	-0.001	-0.029
-462.099	162.048	-0.294	-0.406
-461.084	-200.000	0.001	0.076
-460.070	-67.502	0.312	0.121
-459.055	-11.780	0.072	0.046
-458.040	13.302	-0.320	0.244
-457.026	-76.626	0.061	0.021
-456.011	-200.000	0.063	-0.344
-454.997	148.251	0.089	0.118
-453.982	-53.215	-0.263	0.119
-452.968	19.421	0.341	-0.270
-451.953	-200.000	0.008	-0.070
-450.938	-20.917	-0.222	0.134
-449.924	267.878	0.180	-0.311
-448.909	297.222	-0.090	-0.163
-447.895	15.241	0.408	0.315
-446.880	-54.458	-0.252	0.112
-445.865	-164.800	0.235	-0.010
-444.851	-200.000	-0.120	-0.567
-443.836	800.000	-0.027	-0.101
-442.822	-7.284	-0.262	-0.175
-441.807	-135.792	0.325	0.038
-440.792	47.541	0.113	0.104
-439.778	-78.091	0.333	0.113
-438.763	686.088	0.130	-0.335
-437.749	-68.781	-0.239	-0.091
-436.734	658.175	0.106	0.270
-435.719	-145.821	0.278	-0.024
-434.705	60.507	0.199	-0.194
-433.690	-151.290	-0.204	-0.015
-432.676	-22.719	-0.480	-0.286
-431.661	549.211	-0.077	0.181
-430.646	731.805	0.080	0.211
-429.632	100.584	-0.273	-0.312
-428.617	-56.248	-0.119	-0.052
-427.603	-84.992	-0.071	0.022
-426.588	-200.000	0.006	0.178
-425.573	-77.670	-0.361	0.123
-424.559	800.000	-0.114	0.424
-423.544	291.262	-0.081	0.144
-422.530	341.047	-0.167	-0.322
-421.515	394.484	0.105	0.215
-420.500	502.294	0.094	-0.213
-419.486	-200.000	0.019	-0.129
-418.471	382.354	-0.150	0.303
-417.457	800.000	-0.110	0.350
-416.442	279.579	0.093	0.163
-415.428	-200.000	0.028	0.430
-414.413	-55.854	0.157	0.069
-413.398	-1.304	-0.215	0.150
-412.384	-133.716	0.204	-0.025
-411.369	-189.928	-0.428	0.005
-410.355	-6.964	0.223	-0.149
-409.340	800.000	-0.047	0.146
-408.325	-87.697	0.144	-0.043
-407.311	-82.315	-0.294	-0.094
-406.296	425.287	-0.011	0.023
-405.282	-53.603	-0.074	-0.033
-404.267	52.277	-0.140	0.132
-403.252	800.000	0.083	0.349
-402.238	-200.000	-0.038	0.355
-401.223	-13.618	-0.312	-0.199
-400.209	13.336	0.166	-0.127
-399.194	595.688	-0.040	-0.098
-398.179	98.869	0.089	0.101
-397.165	-94.493	0.140	0.038
-396.150	-126.167	0.075	0.011
-395.136	-53.844	0.181	0.081
-394.121	-62.662	0.254	0.103
-393.106	800.000	-0.047	0.154
-392.092	-149.412	0.211	0.016
-391.077	-38.847	-0.295	-0.153
-390.063	48.946	-0.215	-0.199
-389.048	255.715	-0.086	0.145
-388.033	4.832	-0.092	-0.066
-387.019	-200.000	-0.331	-0.000
-386.004	-161.690	0.266	0.013
-384.990	74.588	0.193	-0.199
-383.975	-22.013	-0.315	0.188
-382.960	-29.602	0.127	0.071
-381.946	-113.055	0.254	-0.049
-380.931	341.150	-0.154	-0.295
-379.917	123.440	-0.203	-0.250
-378.902	800.000	0.054	0.217
-377.888	-44.137	0.132	-0.065
-376.873	-68.894	-0.315	0.119
-375.858	-200.000	0.093	0.527
-374.844	-19.348	-0.449	0.274
-373.829	-200.000	0.024	-0.168
-372.815	-200.000	0.032	-0.170
-371.800	800.000	0.126	-0.346
-370.785	-59.906	0.354	-0.149
-369.771	-200.000	-0.016	-0.236
-368.756	-119.626	0.366	-0.062
-367.742	800.000	0.144	0.445
-366.727	-120.208	-0.393	0.066
-365.712	-82.910	-0.085	0.027
-364.698	800.000	0.047	0.150
-363.683	80.062	0.088	0.093
-362.669	-36.958	-0.161	-0.085
-361.654	-200.000	0.000	-0.144
-360.639	157.810	-0.201	0.274
-359.625	-77.457	0.315	-0.107
-358.610	-102.872	-0.221	0.052
-357.596	-116.536	0.266	-0.048
-356.581	-77.068	-0.079	0.027
-355.566	-130.665	0.084	0.011
-354.552	101.350	0.127	-0.146
-353.537	234.378	-0.125	0.203
-352.523	317.845	0.023	0.042
-351.508	-200.000	0.011	-0.051
-350.493	-200.000	-0.053	0.229
-349.479	-200.000	0.030	-0.223
-348.464	-83.461	0.230	-0.072
-347.450	-164.227	0.112	0.005
-346.435	-121.077	0.362	0.060
-345.420	-166.852	0.161	-0.007
-344.406	65.981	0.130	0.129
-343.391	664.118	-0.141	0.358
-342.377	416.429	0.111	-0.232
-341.362	155.247	0.047	0.063
-340.348	800.000	0.032	0.113
-339.333	254.713	-0.148	0.248
-338.318	-29.919	0.343	-0.192
-337.304	-200.000	0.007	0.261
-336.289	800.000	0.069	0.285
-335.275	-200.000	-0.045	0.293
-334.260	-136.518	-0.224	0.026
-333.245	411.992	0.086	-0.179
-332.231	-47.907	0.215	0.102
-331.216	-84.481	-0.032	0.010
-330.202	800.000	-0.047	0.183
-329.187	206.171	0.011	0.016
-328.172	-200.000	0.023	-0.181
-327.158	800.000	0.028	0.114
-326.143	63.019	-0.219	-0.215
-325.129	547.665	-0.061	-0.143
-324.114	-200.000	-0.025	0.279
-323.099	-106.339	-0.307	0.067
-322.085	-43.073	0.179	-0.089
-321.070	-99.656	-0.382	-0.094
-320.056	258.321	0.123	-0.209
-319.041	4.979	0.022	0.016
-318.026	-200.000	0.009	-0.111
-317.012	287.855	-0.132	0.234
-315.997	-71.899	-0.198	0.072
-314.983	126.980	-0.169	-0.210
-313.968	89.973	-0.191	-0.209
-312.953	66.799	-0.013	0.013
-311.939	-200.000	-0.056	0.330
-310.924	-20.019	-0.091	-0.055
-309.910	781.143	-0.046	-0.124
-308.895	-98.169	0.121	0.031
-307.880	447.118	0.103	0.222
-306.866	484.566	0.027	0.060
-305.851	-33.611	-0.359	-0.194
-304.837	-68.645	0.030	-0.011
-303.822	-97.073	-0.195	-0.050
-302.807	-122.432	0.291	-0.046
-301.793	-107.739	-0.087	0.019
-300.778	65.823	0.326	0.324
-299.764	586.861	0.047	-0.114
-298.749	110.416	-0.075	-0.088
-297.735	-200.000	0.010	-0.334
-296.720	-128.992	0.063	0.009
-295.705	-200.000	-0.011	-0.181
-294.691	614.002	-0.079	0.193
-293.676	66.195	0.380	-0.378
-292.662	132.607	-0.078	-0.099
-291.647	-66.181	-0.287	-0.112
-290.632	133.779	-0.035	0.045
-289.618	184.935	-0.078	0.114
-288.603	30.589	0.131	0.110
-287.589	-8.845	-0.022	0.015
-286.574	-87.623	0.218	0.065
-285.559	-200.000	0.023	-0.128
-284.545	800.000	0.094	0.292
-283.530	138.003	-0.080	0.103
-282.516	-200.000	-0.005	0.142
-281.501	-95.718	0.284	0.074
-280.486	-200.000	-0.017	0.263
-279.472	56.413	-0.124	0.118
-278.457	-200.000	0.040	0.232
-277.443	-200.000	-0.016	0.107
-276.428	140.105	-0.148	-0.191
-275.413	75.289	0.192	-0.199
-274.399	-200.000	0.069	0.380
-273.384	92.831	0.119	0.131
-272.370	-6.646	-0.225	0.150
-271.355	-66.346	0.237	0.092
-270.340	-200.000	0.010	-0.395
-269.326	-63.148	0.084	-0.034
-268.311	110.010	-0.120	-0.141
-267.297	-5.246	-0.206	0.139
-266.282	228.135	-0.195	0.310
-265.267	-200.000	-0.024	0.128
-264.253	-200.000	0.072	0.316
-263.238	-144.704	-0.130	0.012
-262.224	-45.613	0.149	0.072
-261.209	-84.801	0.371	-0.114
-260.195	-200.000	0.038	-0.308
-259.180	-8.751	0.154	-0.101
-258.165	-162.817	0.156	0.007
-257.151	-200.000	-0.003	0.041
-256.136	-26.117	0.213	0.122
-255.122	-33.284	0.154	0.083
-254.107	-23.622	-0.355	0.208
-253.092	800.000	0.103	0.300
-252.078	-34.570	0.269	0.144
-251.063	687.972	-0.203	0.519
-250.049	-200.000	0.002	-0.072
-249.034	356.311	0.133	0.259
-248.019	233.690	0.226	0.365
-247.005	-53.595	-0.246	-0.110
-245.990	800.000	0.063	0.267
-244.976	31.683	0.176	-0.148
-243.961	-27.274	-0.243	0.138
-242.946	222.777	0.055	0.087
-241.932	-95.450	0.128	-0.034
-240.917	-200.000	0.004	-0.511
-239.903	-200.000	0.096	0.427
-238.888	-200.000	0.015	-0.291
-237.873	-74.308	-0.187	0.066
-236.859	740.800	-0.094	0.246
-235.844	-122.970	0.061	-0.010
-234.830	-200.000	0.027	0.183
-233.815	54.233	0.209	0.197
-232.800	-200.000	0.025	0.186
-231.786	-200.000	0.046	0.311
-230.771	126.370	-0.098	-0.121
-229.757	367.022	-0.062	-0.123
-228.742	-200.000	0.045	-0.294
-227.727	-200.000	-0.008	0.226
-226.713	215.427	-0.034	-0.053
-225.698	17.962	0.285	0.222
-224.684	800.000	0.036	-0.115
-223.669	155.014	-0.205	-0.276
-222.655	5.574	0.193	0.139
-221.640	-39.560	-0.127	0.065
-220.625	175.684	0.050	0.071
-219.611	76.588	-0.061	-0.063
-218.596	222.359	-0.178	0.280
-217.582	-159.836	0.119	0.006
-216.567	-6.165	0.152	-0.102
-215.552	-200.000	0.033	-0.204
-214.538	672.321	-0.127	0.323
-213.523	-118.180	-0.144	0.025
-212.509	-200.000	-0.031	-0.142
-211.494	-20.628	0.148	-0.088
-210.479	35.617	0.189	0.162
-209.465	-82.388	-0.070	-0.022
-208.450	-66.374	0.192	-0.075
-207.436	-25.614	0.206	-0.119
-206.421	-124.092	0.424	-0.065
-205.406	614.254	0.164	0.402
-204.392	441.337	0.090	0.192
-203.377	-4.159	-0.182	0.123
-202.363	135.850	0.066	0.084
-201.348	14.771	0.395	0.301
-200.333	-200.000	-0.047	-0.316
-199.319	800.000	-0.118	-0.332
-198.304	247.835	0.108	-0.179
-197.290	-45.023	0.061	0.029
-196.275	-51.775	0.058	0.027
-195.260	-41.127	-0.169	-0.085
-194.246	-200.000	0.067	-0.361
-193.231	289.049	-0.106	-0.188
-192.217	-200.000	0.040	0.240
-191.202	800.000	-0.068	-0.217
-190.187	195.538	-0.099	-0.148
-189.173	-170.056	-0.060	-0.002
-188.158	-200.000	0.042	-0.239
-187.144	-89.627	0.226	-0.065
-186.129	202.386	-0.056	0.084
-185.114	32.128	-0.060	-0.051
-184.100	-77.472	0.147	-0.050
-183.085	-149.447	0.128	-0.010
-182.071	90.080	0.107	0.117
-181.056	-15.942	-0.127	-0.079
-180.042	-200.000	0.054	0.361
-179.027	15.116	-0.321	0.245
-178.012	-200.000	-0.007	-0.157
-176.998	-110.812	0.105	0.021
-175.983	-88.075	0.248	-0.072
-174.969	-200.000	0.009	0.439
-173.954	236.251	-0.116	0.188
-172.939	37.621	-0.087	0.076
-171.925	133.703	-0.107	-0.135
-170.910	-2.935	0.152	0.103
-169.896	-175.064	0.175	0.005
-168.881	-200.000	0.020	-0.218
-167.866	-44.078	-0.186	-0.091
-166.852	-146.468	0.248	-0.021
-165.837	-96.328	0.363	-0.094
-164.823	25.342	0.077	0.062
-163.808	-200.000	0.010	0.174
-162.793	-113.753	0.139	0.026
-161.779	-36.974	0.074	0.038
-160.764	-200.000	-0.042	-0.206
-159.750	574.357	0.098	0.232
-158.735	519.963	0.112	0.255
-157.720	104.037	0.111	0.127
-156.706	-110.803	-0.147	-0.030
-155.691	-50.591	0.140	0.064
-154.677	-131.495	0.366	0.047
-153.662	53.009	-0.185	-0.172
-152.647	-139.011	0.355	-0.038
-151.633	800.000	-0.089	0.307
-150.618	-20.223	-0.134	0.080
-149.604	800.000	-0.055	-0.158
-148.589	-153.117	-0.254	0.017
-147.574	-110.008	-0.137	0.028
-146.560	34.661	-0.212	0.180
-145.545	800.000	0.055	0.194
-144.531	-49.432	0.220	0.102
-143.516	10.208	-0.031	0.023
-142.502	185.321	0.022	0.032
-141.487	-72.974	-0.288	-0.103
-140.472	-85.713	0.290	-0.088
-139.458	-122.968	-0.130	-0.020
-138.443	-5.561	-0.169	-0.113
-137.429	118.509	-0.140	0.168
-136.414	225.215	0.084	-0.133
-135.399	22.826	-0.095	-0.076
-134.385	-200.000	0.000	0.244
-133.370	47.877	0.224	0.203
-132.356	490.183	-0.064	-0.144
-131.341	-131.196	-0.348	-0.045
-130.326	-200.000	0.019	-0.149
-129.312	800.000	0.093	-0.299
-128.297	196.818	0.106	0.157
-127.283	-200.000	-0.027	0.131
-126.268	-19.085	0.278	-0.168
-125.253	415.387	-0.115	-0.238
-124.239	-124.992	0.203	-0.030
-123.224	57.018	-0.319	-0.302
-122.210	16.445	0.249	0.191
-121.195	279.947	-0.050	-0.087
-120.180	-93.968	-0.221	-0.059
-119.166	-64.135	0.122	0.048
-118.151	60.308	0.154	0.148
-117.137	83.472	-0.147	-0.156
-116.122	312.534	-0.048	-0.087
-115.107	56.910	-0.132	-0.125
-114.093	-131.121	-0.227	0.029
-113.078	-200.000	0.018	0.142
-112.064	4.014	0.184	0.131
-111.049	87.513	0.227	-0.244
-110.034	-74.766	-0.040	0.014
-109.020	-61.573	-0.336	0.137
-108.005	416.618	0.146	-0.303
-106.991	35.107	0.184	0.157
-105.976	-101.209	0.404	-0.096
-104.962	236.117	-0.076	0.122
-103.947	100.012	0.358	0.403
-102.932	653.927	0.067	-0.167
-101.918	-200.000	-0.028	0.145
-100.903	-85.621	-0.116	0.035
-99.889	11.989	-0.121	-0.091
-98.874	695.760	0.155	-0.397
-97.859	800.000	0.044	-0.167
-96.845	-48.574	-0.170	0.079
-95.830	-200.000	0.009	-0.089
-94.816	-70.379	-0.367	0.135
-93.801	-83.307	0.109	-0.034
-92.786	105.698	0.292	-0.336
-91.772	429.067	-0.111	0.234
-90.757	333.388	-0.259	-0.486
-89.743	800.000	-0.012	-0.046
-88.728	-87.926	-0.540	0.158
-87.713	-100.430	0.126	0.030
-86.699	37.078	-0.061	0.052
-85.684	76.305	0.169	0.174
-84.670	800.000	-0.101	0.320
-83.655	-5.959	-0.081	0.054
-82.640	171.010	-0.050	0.069
-81.626	23.878	0.076	0.061
-80.611	431.067	0.136	-0.286
-79.597	5.803	0.148	0.106
-78.582	800.000	0.060	0.235
-77.567	247.709	0.173	-0.283
-76.553	-145.918	-0.312	-0.027
-75.538	-92.666	0.287	-0.078
-74.524	669.401	0.214	0.537
-73.509	-175.194	-0.337	-0.009
-72.494	-200.000	0.015	0.191
-71.480	800.000	0.063	-0.207
-70.465	219.765	-0.045	0.070
-69.451	-200.000	0.018	0.194
-68.436	-101.215	0.423	-0.100
-67.422	-200.000	-0.039	-0.216
-66.407	49.872	0.123	0.112
-65.392	24.590	0.258	0.208
-64.378	-200.000	-0.009	-0.041
-63.363	-137.905	0.070	0.008
-62.349	-66.704	-0.047	0.018
-61.334	79.072	-1.156	-1.202
-60.319	128.230	0.709	0.876
-59.305	780.248	-0.550	-1.460
-58.290	771.462	0.618	1.636
-57.276	449.291	0.650	1.390
-56.261	-200.000	132.688	660.423
-55.246	336.934	1671.706	3152.054
-54.232	131.336	2835.537	3535.914
-53.217	83.690	2331.485	2467.989
-52.203	30.459	1921.887	1594.173
-51.188	24.396	1712.208	1373.675
-50.173	22.340	1673.421	1327.020
-49.159	43.973	1747.966	1554.311
-48.144	41.380	1756.893	1542.166
-47.130	23.915	1706.528	1365.210
-46.115	21.299	1691.080	1332.872
-45.100	21.209	1685.715	1327.901
-44.086	21.201	1683.136	1325.762
-43.071	21.208	1680.729	1323.861
-42.057	21.187	1678.576	1321.953
-41.042	21.136	1676.645	1319.997
-40.027	21.125	1674.932	1318.515
-39.013	21.251	1672.693	1317.649
-37.998	21.232	1670.971	1316.094
-36.984	21.227	1669.861	1315.134
-35.969	21.315	1668.242	1314.464
-34.954	21.330	1666.535	1313.185
-33.940	21.250	1664.644	1311.038
-32.925	21.308	1663.319	1310.377
-31.911	21.324	1661.341	1308.890
-30.896	21.267	1659.845	1307.234
-29.881	21.290	1658.577	1306.356
-28.867	21.341	1656.288	1304.880
-27.852	21.309	1655.549	1304.010
-26.838	21.323	1653.845	1302.721
-25.823	21.281	1653.009	1301.692
-24.809	21.398	1651.232	1301.111
-23.794	21.299	1649.866	1299.253
-22.779	21.333	1648.036	1298.007
-21.765	21.345	1647.060	1297.282
-20.750	21.282	1644.657	1294.864
-19.736	21.440	1643.338	1294.948
-18.721	21.438	1641.807	1293.678
-17.706	21.321	1640.658	1291.855
-16.692	21.337	1638.977	1290.600
-15.677	21.360	1637.688	1289.700
-14.663	21.445	1636.003	1288.945
-13.648	21.340	1635.240	1287.520
-12.633	21.369	1633.915	1286.642
-11.619	21.384	1632.195	1285.347
-10.604	21.467	1630.028	1284.200
-9.590	21.415	1629.146	1283.070
-8.575	21.301	1627.974	1281.261
-7.560	21.264	1627.399	1280.487
-6.546	21.403	1625.811	1280.202
-5.531	21.394	1624.653	1279.174
-4.517	21.384	1623.343	1278.023
-3.502	21.330	1622.704	1277.070
-2.487	21.384	1620.636	1275.786
-1.473	21.172	1608.244	1264.450
-0.458	18.754	1589.955	1232.685
0.556	14.517	1592.987	1205.887
1.571	12.365	1617.974	1208.869
2.586	12.250	1629.474	1216.504
3.600	11.421	1574.763	1169.613
4.615	6.401	1467.575	1056.307
5.629	1.491	1409.857	982.981
6.644	0.712	1402.488	972.746
7.659	0.606	1401.483	971.281
8.673	0.480	1401.059	970.087
9.688	0.552	1398.096	968.412
10.702	0.392	1394.851	965.056
11.717	2.848	1398.068	982.938
12.731	9.220	1407.244	1030.262
13.746	14.809	1415.371	1072.069
14.761	16.932	1418.512	1087.987
15.775	16.501	1417.079	1084.033
16.790	15.576	1414.301	1075.888
17.804	14.877	1411.942	1069.530
18.819	14.428	1410.563	1065.524
19.834	14.187	1409.359	1062.981
20.848	13.903	1408.034	1060.071
21.863	13.708	1406.556	1057.621
22.877	13.500	1404.887	1054.946
23.892	13.444	1404.222	1053.996
24.907	13.543	1403.253	1053.807
25.921	13.427	1402.701	1052.565
26.936	13.651	1401.475	1052.973
27.950	13.614	1400.354	1051.800
28.965	13.579	1399.737	1051.026
29.980	13.668	1398.649	1050.674
30.994	13.679	1397.562	1049.840
32.009	13.686	1396.756	1049.182
33.023	13.648	1395.617	1047.994
34.038	13.660	1394.728	1047.309
35.053	13.656	1392.913	1045.829
36.067	13.586	1392.590	1045.051
37.082	13.600	1391.077	1043.911
38.096	13.660	1389.929	1043.337
39.111	13.647	1388.868	1042.364
40.126	13.570	1388.612	1041.597
41.140	13.530	1387.639	1040.528
42.155	13.525	1387.703	1040.449
43.169	13.518	1387.216	1039.951
44.184	13.468	1387.029	1039.403
45.199	13.463	1386.617	1038.970
46.213	13.527	1385.870	1038.720
47.228	13.548	1385.036	1038.133
48.242	13.503	1384.245	1037.167
49.257	13.527	1382.592	1035.987
50.271	13.592	1380.347	1034.623
51.286	13.589	1379.354	1033.767
52.301	13.579	1377.899	1032.522
53.315	13.616	1376.778	1031.823
54.330	13.487	1376.177	1030.479
55.344	13.602	1374.331	1029.714
56.359	13.527	1373.600	1028.610
57.374	13.459	1372.160	1027.021
58.388	13.408	1372.144	1026.601
59.403	13.401	1371.645	1026.097
60.417	13.428	1370.922	1025.628
61.432	13.439	1369.955	1024.884
62.447	13.395	1369.094	1023.879
63.461	13.454	1367.223	1022.754
64.476	13.440	1366.547	1022.071
65.490	13.346	1365.709	1020.770
66.505	13.444	1363.463	1019.604
67.520	13.423	1362.624	1018.760
68.534	13.509	1360.910	1017.914
69.549	13.458	1359.830	1016.709
70.563	13.337	1359.413	1015.564
71.578	13.443	1357.624	1014.786
72.593	13.450	1356.594	1013.970
73.607	13.345	1356.561	1013.211
74.622	13.389	1355.172	1012.350
75.636	13.310	1354.966	1011.627
76.651	13.325	1353.977	1010.890
77.666	13.375	1353.318	1010.615
78.680	13.425	1352.838	1010.473
79.695	13.343	1351.532	1008.904
80.709	13.449	1351.172	1009.195
81.724	13.494	1350.020	1008.521
82.739	13.438	1349.014	1007.338
83.753	13.540	1348.021	1007.127
84.768	13.552	1346.950	1006.307
85.782	13.486	1346.048	1005.147
86.797	13.476	1344.585	1003.904
87.812	13.604	1343.052	1003.445
88.826	13.471	1342.110	1001.846
89.841	13.401	1340.955	1000.476
90.855	13.504	1340.075	1000.350
91.870	13.584	1339.062	999.989
92.884	13.651	1337.806	999.368
93.899	13.648	1337.505	999.036
94.914	13.703	1336.749	998.713
95.928	13.755	1335.222	997.798
96.943	13.572	1335.105	996.520
97.957	13.729	1333.371	996.085
98.972	13.609	1332.927	994.945
99.987	13.648	1331.701	994.175
101.001	13.572	1330.824	992.978
102.016	13.669	1329.640	992.582
103.030	13.679	1328.860	991.973
104.045	13.538	1328.351	990.663
105.060	13.514	1327.001	989.423
106.074	13.625	1325.376	988.787
107.089	13.623	1323.688	987.431
108.103	13.429	1323.549	986.084
109.118	13.517	1321.502	984.996
110.133	13.583	1319.871	984.082
111.147	13.543	1318.652	982.852
112.162	13.455	1317.557	981.428
113.176	13.635	1316.202	981.394
114.191	13.626	1315.100	980.432
115.206	13.537	1314.329	979.246
116.220	13.621	1312.839	978.543
117.235	13.549	1311.650	977.148
118.249	13.594	1310.558	976.510
119.264	13.568	1309.573	975.538
120.279	13.542	1308.067	974.175
121.293	13.457	1307.828	973.411
122.308	13.550	1306.292	972.730
123.322	13.498	1305.136	971.476
124.337	13.601	1303.897	971.074
125.352	13.481	1303.790	970.206
126.366	13.565	1302.046	969.312
127.381	13.426	1301.320	967.872
128.395	13.550	1299.783	967.371
129.410	13.527	1299.071	966.620
130.424	13.541	1297.904	965.749
131.439	13.711	1296.614	965.693
132.454	13.593	1296.182	964.599
133.468	13.580	1295.066	963.606
134.483	13.501	1294.259	962.465
135.497	13.567	1293.271	962.026
136.512	13.596	1291.620	960.878
137.527	13.566	1290.443	959.749
138.541	13.496	1289.357	958.450
139.556	13.520	1287.668	957.249
140.570	13.634	1286.746	957.136
141.585	13.664	1285.549	956.332
142.600	13.727	1283.986	955.449
143.614	13.767	1282.774	954.690
144.629	13.799	1281.830	954.089
145.643	13.807	1281.062	953.478
146.658	13.746	1279.994	952.250
147.673	13.712	1278.279	950.697
148.687	13.660	1277.549	949.770
149.702	13.706	1275.861	948.693
150.716	13.774	1274.266	947.811
151.731	13.768	1273.657	947.244
152.746	13.714	1272.218	945.778
153.760	13.797	1271.020	945.278
154.775	13.786	1269.821	944.242
155.789	13.789	1268.619	943.279
156.804	13.796	1267.845	942.659
157.819	13.817	1267.049	942.106
158.833	13.905	1265.940	941.696
159.848	13.917	1264.899	940.905
160.862	13.961	1263.588	940.095
161.877	13.823	1262.851	938.686
162.892	13.892	1261.394	937.907
163.906	13.867	1260.485	937.010
164.921	13.833	1260.016	936.388
165.935	13.881	1258.464	935.421
166.950	13.907	1258.063	935.185
167.964	13.925	1257.018	934.429
168.979	13.880	1256.494	933.702
169.994	13.867	1255.787	933.018
171.008	14.015	1254.567	932.864
172.023	14.073	1253.371	932.217
173.037	13.994	1253.148	931.523
174.052	14.086	1252.051	931.143
175.067	14.065	1251.128	930.254
176.081	13.928	1250.226	928.734
177.096	13.969	1248.919	927.915
178.110	14.089	1247.991	927.813
179.125	14.009	1246.606	926.255
180.140	13.958	1245.847	925.321
181.154	13.983	1244.383	924.292
182.169	14.116	1242.831	923.795
183.183	14.116	1241.745	922.910
184.198	14.060	1240.906	921.892
185.213	14.047	1239.783	920.902
186.227	14.164	1238.523	920.533
187.242	14.260	1237.334	920.102
188.256	14.259	1236.195	919.167
189.271	14.255	1235.227	918.344
190.286	14.137	1234.337	916.952
191.300	14.079	1233.678	916.060
192.315	14.023	1232.813	915.031
193.329	14.121	1232.064	914.928
194.344	14.074	1231.742	914.351
195.359	14.117	1230.976	913.936
196.373	14.296	1230.274	914.317
197.388	14.188	1230.224	913.610
198.402	14.349	1229.121	913.591
199.417	14.425	1228.561	913.514
200.432	14.392	1227.824	912.704
201.446	14.413	1226.915	912.058
202.461	14.467	1225.890	911.514
203.475	14.537	1224.408	910.710
204.490	14.469	1223.877	909.868
205.504	14.379	1222.569	908.319
206.519	14.414	1220.825	907.138
207.534	14.435	1220.126	906.650
208.548	14.408	1219.302	905.812
209.563	14.370	1218.711	905.085
210.577	14.424	1217.743	904.579
211.592	14.484	1217.244	904.455
212.607	14.542	1215.634	903.491
213.621	14.448	1214.985	902.424
214.636	14.449	1213.929	901.562
215.650	14.558	1212.996	901.379
216.665	14.619	1211.955	900.857
217.680	14.567	1210.857	899.677
218.694	14.659	1210.256	899.647
219.709	14.633	1209.351	898.759
220.723	14.679	1208.359	898.186
221.738	14.656	1207.986	897.706
222.753	14.619	1207.334	896.946
223.767	14.726	1206.629	896.918
224.782	14.783	1205.680	896.435
225.796	14.723	1205.308	895.759
226.811	14.797	1204.322	895.343
227.826	14.736	1204.218	894.858
228.840	14.768	1203.245	894.230
229.855	14.718	1202.286	893.169
230.869	14.772	1201.358	892.691
231.884	14.836	1200.447	892.274
232.899	14.735	1200.065	891.372
233.913	14.753	1198.915	890.535
234.928	14.677	1198.604	889.824
235.942	14.817	1197.282	889.509
236.957	14.822	1196.295	888.720
237.972	14.780	1195.806	888.055
238.986	14.779	1195.453	887.712
240.001	14.828	1194.709	887.340
241.015	14.732	1193.853	886.117
242.030	14.767	1193.046	885.625
243.045	14.856	1192.343	885.495
244.059	14.946	1191.264	885.091
245.074	14.951	1190.343	884.354
246.088	14.885	1189.807	883.530
247.103	15.054	1188.379	883.285
248.117	14.906	1188.333	882.392
249.132	14.997	1187.125	881.897
250.147	14.962	1186.744	881.350
251.161	15.185	1185.629	881.618
252.176	15.105	1185.160	880.772
253.190	15.268	1184.503	881.063
254.205	15.316	1183.923	880.805
255.220	15.161	1183.614	879.681
256.234	15.313	1182.224	879.369
257.249	15.190	1181.986	878.469
258.263	15.251	1181.191	878.117
259.278	15.325	1180.275	877.749
260.293	15.326	1179.840	877.353
261.307	15.413	1179.470	877.451
262.322	15.419	1178.657	876.800
263.336	15.280	1178.352	875.770
264.351	15.350	1177.809	875.654
265.366	15.348	1176.979	874.952
266.380	15.412	1175.963	874.451
267.395	15.387	1174.904	873.455
268.409	15.374	1174.625	873.103
269.424	15.337	1174.178	872.505
270.439	15.379	1173.563	872.186
271.453	15.446	1172.591	871.736
272.468	15.365	1171.686	870.562
273.482	15.405	1170.987	870.175
274.497	15.413	1170.455	869.748
275.512	15.457	1169.387	869.104
276.526	15.483	1168.682	868.636
277.541	15.533	1167.695	868.085
278.555	15.511	1167.061	867.424
279.570	15.699	1166.319	867.765
280.585	15.519	1166.071	866.577
281.599	15.537	1165.067	865.845
282.614	15.635	1163.604	865.186
283.628	15.666	1162.484	864.437
284.643	15.655	1161.875	863.851
285.657	15.647	1161.396	863.378
286.672	15.691	1160.120	862.574
287.687	15.696	1159.037	861.720
288.701	15.716	1158.364	861.247
289.716	15.765	1157.187	860.548
290.730	15.734	1157.031	860.194
291.745	15.759	1156.002	859.480
292.760	15.764	1155.427	859.003
293.774	15.657	1155.119	858.153
294.789	15.738	1154.537	858.056
295.803	15.666	1154.182	857.351
296.818	15.763	1152.947	856.851
297.833	15.863	1151.788	856.425
298.847	15.823	1151.575	855.985
299.862	15.882	1150.353	855.300
300.876	15.928	1149.429	854.774
301.891	15.947	1149.027	854.496
302.906	15.961	1148.166	853.851
303.920	15.976	1147.623	853.445
304.935	15.989	1146.916	852.911
305.949	15.989	1146.185	852.290
306.964	16.064	1145.373	851.993
307.979	16.058	1144.709	851.391
308.993	16.139	1143.773	851.030
310.008	16.044	1143.438	850.226
311.022	16.159	1142.361	849.927
312.037	16.105	1141.423	848.884
313.052	16.161	1140.390	848.324
314.066	16.142	1139.382	847.402
315.081	16.013	1138.968	846.369
316.095	16.071	1138.711	846.393
317.110	16.040	1137.774	845.468
318.125	16.062	1136.906	844.861
319.139	16.084	1136.104	844.297
320.154	16.171	1135.397	844.132
321.168	16.053	1135.428	843.493
322.183	16.174	1133.650	842.700
323.197	16.210	1133.447	842.656
324.212	16.179	1132.798	841.945
325.227	16.184	1132.143	841.408
326.241	16.185	1131.604	840.935
327.256	16.246	1130.500	840.344
328.270	16.184	1129.740	839.398
329.285	16.191	1128.862	838.705
330.300	16.180	1128.148	838.045
331.314	16.378	1126.844	837.985
332.329	16.315	1125.981	836.959
333.343	16.268	1125.194	836.065
334.358	16.240	1124.423	835.280
335.373	16.390	1123.371	835.166
336.387	16.463	1122.580	834.866
337.402	16.420	1121.853	834.039
338.416	16.362	1121.330	833.290
339.431	16.420	1120.621	832.976
340.446	16.343	1120.481	832.418
341.460	16.483	1119.477	832.290
342.475	16.609	1118.342	831.991
343.489	16.697	1117.150	831.463
344.504	16.587	1116.750	830.552
345.519	16.588	1115.590	829.620
346.533	16.606	1115.393	829.490
347.548	16.527	1114.627	828.457
348.562	16.608	1113.554	827.984
349.577	16.521	1113.166	827.194
350.592	16.598	1112.370	826.906
351.606	16.668	1111.194	826.302
352.621	16.638	1110.558	825.610
353.635	16.620	1110.119	825.122
354.650	16.658	1109.352	824.665
355.665	16.586	1108.574	823.663
356.679	16.628	1108.181	823.503
357.694	16.802	1107.079	823.458
358.708	16.734	1106.410	822.557
359.723	16.710	1106.087	822.127
360.738	16.753	1105.444	821.785
361.752	16.683	1104.932	820.990
362.767	16.793	1104.417	821.070
363.781	16.730	1103.674	820.139
364.796	16.902	1102.596	820.095
365.810	16.953	1101.988	819.817
366.825	16.913	1101.327	819.060
367.840	16.980	1100.810	818.927
368.854	16.926	1100.328	818.236
369.869	17.013	1099.657	818.084
370.883	17.001	1098.429	817.039
371.898	16.840	1098.136	815.974
372.913	16.809	1097.668	815.408
373.927	17.150	1096.865	816.378
374.942	17.017	1096.308	815.251
375.956	17.030	1095.997	815.008
376.971	17.107	1095.037	814.593
377.986	17.200	1094.253	814.386
379.000	17.066	1094.603	813.932
380.015	17.064	1093.833	813.273
381.029	17.123	1092.832	812.744
382.044	17.245	1091.947	812.594
383.059	17.179	1091.242	811.685
384.073	17.191	1090.498	811.113
385.088	17.191	1089.662	810.423
386.102	17.273	1088.774	810.083
387.117	17.249	1087.752	809.134
388.132	17.189	1087.146	808.326
389.146	17.154	1086.100	807.309
390.161	17.202	1085.813	807.255
391.175	17.255	1084.665	806.581
392.190	17.334	1083.801	806.242
393.205	17.369	1083.267	805.937
394.219	17.385	1082.447	805.331
395.234	17.349	1081.837	804.640
396.248	17.401	1080.451	803.781
397.263	17.341	1079.288	802.562
398.278	17.393	1078.972	802.502
399.292	17.319	1078.113	801.441
400.307	17.266	1077.647	800.774
401.321	17.281	1077.383	800.577
402.336	17.371	1076.248	800.088
403.350	17.349	1075.303	799.209
404.365	17.402	1075.195	799.311
405.380	17.520	1073.868	798.808
406.394	17.506	1073.105	798.101
407.409	17.438	1072.728	797.432
408.423	17.503	1071.903	797.053
409.438	17.589	1071.451	797.047
410.453	17.476	1070.600	795.817
411.467	17.607	1069.397	795.465
412.482	17.656	1068.992	795.321
413.496	17.686	1068.369	794.925
414.511	17.606	1067.818	794.074
415.526	17.712	1067.691	794.403
416.540	17.756	1066.702	793.801
417.555	17.800	1066.321	793.651
418.569	17.734	1065.908	792.968
419.584	17.802	1065.225	792.704
420.599	17.834	1064.883	792.531
421.613	108.959	1332.446	1489.169
422.628	100.717	1371.350	1489.264
