DTS Sentinel unit serial number:	SN413079Multiplexer serial number:	ORYXHardware model number:	OX4-SRSoftware version number:	ORYX F/W v4.00 Oryx Data Collector v3.7.2.0data status	okinstallation	princeton_trtdifferential loss correction	single-endedforward channel	channel 2reverse channel	N/Adate	2019/09/13time	06:39:35forward acquisition time	60.00reverse acquisition time	0.00gamma	496.2192k internal	0.2338k external	0.2338temperature offset calibration	1.0196default loss term (dB/km)	0.3790temperature slope calibration	1.0000multiplexer offset coefficient	1.0000multiplexer slope coefficient	1.0000fibre end	0.00T internal ref (°C)	26.03T ext. ref 1 (°C)	4.10T ext. ref 2 (°C)	20.63length (m)	temperature (°C)	Stokes	anti-Stokes-747.200	89.582	0.257	0.288
-746.185	-68.985	-0.175	0.068
-745.171	154.592	-0.132	0.183
-744.156	166.156	-0.077	0.110
-743.142	446.473	-0.047	0.103
-742.127	338.021	0.173	0.338
-741.112	-126.511	-0.236	0.035
-740.098	169.950	-0.214	0.307
-739.083	-200.000	0.087	-0.433
-738.069	-200.000	-0.018	0.423
-737.054	71.430	-0.200	0.208
-736.039	-2.471	-0.230	-0.162
-735.025	-98.934	0.308	-0.078
-734.010	-66.221	0.092	-0.037
-732.996	37.671	-0.142	-0.127
-731.981	-22.916	-0.388	-0.235
-730.966	327.261	-0.108	0.208
-729.952	4.413	-0.201	-0.148
-728.937	-85.980	-0.503	-0.156
-727.923	2.619	0.260	-0.189
-726.908	-87.671	0.227	-0.069
-725.894	405.689	-0.073	0.155
-724.879	-13.825	-0.316	0.205
-723.864	73.831	0.063	0.066
-722.850	-149.997	0.387	-0.030
-721.835	-3.143	-0.185	-0.130
-720.821	-200.000	-0.046	-0.326
-719.806	-64.852	0.188	-0.076
-718.791	800.000	0.062	-0.245
-717.777	-200.000	-0.033	-0.300
-716.762	-200.000	0.035	0.527
-715.748	-200.000	-0.004	-0.032
-714.733	-47.074	0.255	0.125
-713.718	800.000	-0.109	-0.361
-712.704	184.954	0.024	-0.036
-711.689	312.188	-0.171	-0.321
-710.675	-200.000	0.015	-0.152
-709.660	4.783	0.172	-0.127
-708.645	-67.908	-0.285	-0.112
-707.631	-120.785	-0.126	0.021
-706.616	120.533	0.045	-0.056
-705.602	-200.000	-0.026	0.120
-704.587	6.779	-0.348	-0.259
-703.572	468.017	-0.115	0.259
-702.558	-200.000	0.026	-0.177
-701.543	-88.977	0.180	-0.053
-700.529	-103.683	-0.605	-0.142
-699.514	-128.526	0.157	-0.022
-698.499	9.234	0.032	-0.024
-697.485	141.959	0.108	0.143
-696.470	-44.159	-0.200	0.100
-695.456	-25.909	-0.142	-0.084
-694.441	-143.818	-0.027	0.003
-693.426	198.127	-0.095	0.145
-692.412	800.000	0.039	0.148
-691.397	-75.207	0.286	-0.102
-690.383	-141.091	-0.392	-0.040
-689.368	327.253	0.136	-0.261
-688.354	-58.901	-0.145	0.063
-687.339	489.582	-0.153	-0.350
-686.324	130.482	-0.140	-0.180
-685.310	-200.000	0.028	0.188
-684.295	-200.000	0.015	-0.092
-683.281	-45.476	0.303	-0.150
-682.266	-62.839	-0.085	-0.035
-681.251	-66.281	-0.252	-0.100
-680.237	187.759	-0.075	-0.112
-679.222	-125.793	-0.070	0.011
-678.208	-51.579	-0.387	0.181
-677.193	800.000	0.070	-0.217
-676.178	21.672	-0.319	-0.260
-675.164	-156.480	-0.261	-0.016
-674.149	395.341	-0.075	0.156
-673.135	-127.642	-0.075	-0.011
-672.120	-146.078	0.322	-0.028
-671.105	232.839	0.242	-0.398
-670.091	-29.202	-0.254	-0.145
-669.076	160.557	-0.091	0.127
-668.062	-200.000	0.023	-0.301
-667.047	577.458	0.053	-0.131
-666.032	360.882	-0.125	-0.251
-665.018	255.669	0.073	-0.125
-664.003	89.355	0.017	0.019
-662.989	-134.032	0.328	0.041
-661.974	575.200	-0.191	0.465
-660.959	29.169	-0.261	0.222
-659.945	-10.971	0.064	-0.043
-658.930	322.951	0.040	-0.077
-657.916	582.509	0.119	0.292
-656.901	-200.000	-0.075	-0.463
-655.886	-89.026	0.188	0.056
-654.872	-200.000	0.036	0.416
-653.857	-200.000	0.259	0.000
-652.843	54.498	-0.290	-0.280
-651.828	-18.058	-0.172	-0.107
-650.814	19.499	0.322	0.259
-649.799	613.835	0.049	0.122
-648.784	-114.889	-0.183	0.035
-647.770	-200.000	-0.000	-0.209
-646.755	209.257	-0.108	-0.169
-645.741	220.647	-0.163	-0.262
-644.726	23.147	0.021	0.017
-643.711	143.788	-0.179	-0.238
-642.697	-200.000	0.040	-0.205
-641.682	-200.000	0.057	-0.298
-640.668	-108.653	-0.311	0.067
-639.653	-200.000	-0.052	-0.254
-638.638	800.000	-0.032	0.137
-637.624	-4.631	-0.123	-0.085
-636.609	748.237	0.090	0.242
-635.595	-200.000	-0.039	0.332
-634.580	-30.706	-0.119	-0.067
-633.565	800.000	0.008	0.027
-632.551	-52.059	-0.094	-0.044
-631.536	101.834	0.090	-0.105
-630.522	104.219	0.177	-0.208
-629.507	48.020	-0.241	-0.225
-628.492	183.313	-0.136	-0.200
-627.478	3.469	-0.330	-0.241
-626.463	54.065	0.300	-0.288
-625.449	305.889	-0.147	-0.274
-624.434	85.236	0.256	-0.280
-623.419	-66.519	0.122	-0.048
-622.405	94.237	-0.231	0.262
-621.390	-146.749	0.300	0.026
-620.376	-168.292	-0.088	-0.003
-619.361	800.000	-0.056	0.155
-618.346	714.519	-0.059	-0.155
-617.332	800.000	0.025	0.100
-616.317	294.136	0.075	-0.136
-615.303	-38.969	0.067	-0.035
-614.288	-101.741	-0.203	-0.049
-613.273	-18.751	-0.218	-0.136
-612.259	-200.000	-0.011	0.125
-611.244	-200.000	-0.029	-0.480
-610.230	-148.963	-0.429	-0.035
-609.215	800.000	0.065	0.221
-608.201	77.026	0.179	0.190
-607.186	169.917	-0.112	0.160
-606.171	-51.576	-0.268	0.125
-605.157	792.160	0.032	0.087
-604.142	-200.000	0.051	0.246
-603.128	-57.533	-0.284	-0.124
-602.113	-21.920	-0.083	0.050
-601.098	800.000	-0.121	0.370
-600.084	-200.000	-0.026	0.141
-599.069	-200.000	-0.012	0.228
-598.055	404.882	-0.106	0.224
-597.040	161.739	0.167	0.233
-596.025	425.532	0.119	0.255
-595.011	-113.692	0.152	0.030
-593.996	-200.000	-0.034	-0.181
-592.982	48.667	-0.056	0.052
-591.967	123.789	-0.103	-0.129
-590.952	-200.000	0.058	0.272
-589.938	60.457	-0.142	0.140
-588.923	93.170	-0.058	-0.066
-587.909	-102.871	0.257	0.061
-586.894	151.144	-0.188	0.255
-585.879	-31.059	-0.174	0.098
-584.865	-200.000	-0.040	0.302
-583.850	212.166	0.054	0.086
-582.836	67.025	0.103	0.105
-581.821	-38.779	-0.107	-0.056
-580.806	8.072	0.216	0.161
-579.792	49.774	0.113	-0.106
-578.777	5.812	-0.149	-0.110
-577.763	128.248	-0.161	0.205
-576.748	537.071	0.159	-0.376
-575.733	-70.189	0.175	0.066
-574.719	267.754	-0.059	0.103
-573.704	602.235	-0.089	0.221
-572.690	46.160	0.087	0.080
-571.675	-181.667	0.087	0.002
-570.661	589.382	0.115	-0.284
-569.646	98.355	0.233	0.267
-568.631	-117.111	0.174	0.032
-567.617	399.594	0.095	-0.198
-566.602	327.828	-0.101	-0.193
-565.588	-28.423	-0.032	-0.018
-564.573	-147.860	-0.407	0.034
-563.558	-92.254	-0.312	-0.088
-562.544	85.443	0.184	-0.201
-561.529	14.632	0.146	0.113
-560.515	539.733	-0.078	0.185
-559.500	800.000	-0.033	0.114
-558.485	-97.210	0.110	0.029
-557.471	-53.023	-0.341	-0.156
-556.456	301.838	-0.078	0.143
-555.442	-62.442	0.437	0.181
-554.427	749.454	0.130	-0.348
-553.412	106.934	0.052	-0.062
-552.398	-200.000	0.010	-0.104
-551.383	-92.457	0.423	-0.119
-550.369	118.879	0.461	-0.568
-549.354	-130.663	0.545	0.073
-548.339	48.608	0.142	0.133
-547.325	61.376	0.130	-0.128
-546.310	-110.883	-0.364	0.075
-545.296	337.042	0.095	0.184
-544.281	99.502	-0.066	-0.077
-543.266	231.353	-0.060	0.097
-542.252	-46.254	-0.167	-0.082
-541.237	-161.581	-0.348	-0.018
-540.223	-200.000	0.051	0.294
-539.208	46.077	-0.166	-0.153
-538.193	111.924	0.337	-0.405
-537.179	-91.490	0.297	0.084
-536.164	-61.867	-0.126	-0.053
-535.150	-200.000	0.022	0.124
-534.135	321.661	0.236	-0.447
-533.121	-200.000	0.052	-0.238
-532.106	-200.000	0.007	0.121
-531.091	28.187	-0.210	0.176
-530.077	274.905	-0.098	0.172
-529.062	800.000	-0.090	0.304
-528.048	164.651	-0.110	-0.154
-527.033	11.844	-0.117	-0.090
-526.018	-77.954	-0.028	-0.009
-525.004	-44.710	0.091	0.045
-523.989	119.926	0.030	-0.037
-522.975	-37.691	0.239	-0.127
-521.960	51.546	-0.147	-0.139
-520.945	-158.629	-0.145	-0.008
-519.931	-200.000	-0.005	0.229
-518.916	800.000	-0.063	0.189
-517.902	-1.745	0.182	-0.128
-516.887	-18.907	-0.053	-0.033
-515.872	-72.060	-0.128	-0.047
-514.858	-71.660	-0.226	-0.084
-513.843	-200.000	-0.009	0.211
-512.829	-169.680	-0.209	-0.008
-511.814	-83.139	-0.226	-0.072
-510.799	-92.935	-0.160	0.044
-509.785	800.000	-0.092	-0.279
-508.770	4.996	-0.202	0.148
-507.756	800.000	0.053	-0.166
-506.741	800.000	-0.085	0.237
-505.726	-14.925	-0.284	-0.181
-504.712	-200.000	-0.007	0.223
-503.697	-200.000	-0.011	-0.062
-502.683	-6.841	-0.105	0.071
-501.668	163.578	-0.220	0.308
-500.653	-103.399	0.258	-0.061
-499.639	800.000	-0.032	-0.103
-498.624	-188.553	-0.081	-0.001
-497.610	-74.291	-0.390	0.140
-496.595	388.016	0.010	0.021
-495.581	69.900	0.197	0.202
-494.566	-172.441	-0.319	-0.010
-493.551	11.530	-0.135	0.103
-492.537	5.551	0.213	-0.156
-491.522	562.590	0.017	-0.041
-490.508	79.627	0.068	0.073
-489.493	-200.000	-0.043	0.000
-488.478	800.000	0.007	-0.026
-487.464	-77.646	0.471	0.162
-486.449	-88.913	0.188	0.055
-485.435	62.724	-0.044	-0.044
-484.420	-200.000	-0.033	0.606
-483.405	451.713	0.057	-0.126
-482.391	800.000	-0.034	-0.141
-481.376	-200.000	0.009	0.073
-480.362	-28.398	0.274	-0.157
-479.347	-200.000	0.374	0.001
-478.332	-200.000	-0.011	-0.086
-477.318	-89.999	0.099	0.029
-476.303	93.995	0.100	-0.113
-475.289	314.356	0.061	-0.114
-474.274	-130.368	0.178	0.024
-473.259	800.000	-0.088	-0.280
-472.245	-200.000	0.015	0.082
-471.230	800.000	-0.032	0.119
-470.216	317.014	-0.086	0.160
-469.201	-12.604	0.325	-0.210
-468.186	-62.228	0.139	0.057
-467.172	800.000	-0.105	-0.351
-466.157	-200.000	0.013	-0.217
-465.143	-37.259	-0.276	-0.146
-464.128	-33.663	-0.119	0.065
-463.113	-116.495	0.124	0.023
-462.099	-42.988	-0.089	-0.045
-461.084	18.323	-0.304	-0.241
-460.070	8.359	-0.018	0.013
-459.055	-56.679	0.268	-0.118
-458.040	-200.000	0.074	-0.437
-457.026	566.495	-0.080	-0.191
-456.011	-76.053	-0.097	-0.034
-454.997	135.868	0.318	-0.411
-453.982	800.000	-0.098	-0.302
-452.968	-200.000	0.030	-0.271
-451.953	169.416	0.115	0.163
-450.938	-85.315	0.172	0.053
-449.924	358.562	0.172	-0.340
-448.909	-78.567	0.082	-0.028
-447.895	26.616	-0.139	0.115
-446.880	30.759	-0.171	-0.145
-445.865	83.317	0.245	-0.264
-444.851	409.550	-0.099	-0.208
-443.836	107.014	0.096	-0.113
-442.822	56.518	-0.050	-0.048
-441.807	222.924	-0.010	-0.016
-440.792	-179.891	0.152	-0.003
-439.778	4.371	0.263	-0.191
-438.763	-200.000	-0.012	-0.186
-437.749	169.393	-0.164	-0.232
-436.734	83.707	0.006	-0.007
-435.719	-140.518	-0.181	-0.019
-434.705	439.426	0.130	-0.281
-433.690	800.000	-0.019	0.061
-432.676	663.208	-0.047	-0.120
-431.661	-64.941	0.302	-0.121
-430.646	-139.606	-0.241	-0.025
-429.632	-133.755	0.323	-0.040
-428.617	330.807	-0.060	-0.115
-427.603	176.248	0.171	0.246
-426.588	-200.000	0.003	0.072
-425.573	-200.000	0.002	0.177
-424.559	97.738	-0.220	0.251
-423.544	253.152	0.189	0.319
-422.530	295.627	0.081	-0.146
-421.515	-18.754	0.306	0.189
-420.500	129.715	-0.125	-0.159
-419.486	243.807	-0.161	-0.267
-418.471	-20.593	-0.186	0.113
-417.457	800.000	-0.030	0.099
-416.442	-47.733	0.184	-0.088
-415.428	-98.542	-0.260	0.066
-414.413	17.034	0.246	0.193
-413.398	176.038	-0.053	-0.076
-412.384	187.970	-0.266	0.393
-411.369	-153.240	0.207	-0.014
-410.355	18.699	0.248	0.197
-409.340	-52.501	-0.202	0.092
-408.325	506.407	-0.045	-0.103
-407.311	-172.249	-0.333	0.011
-406.296	165.252	0.118	0.164
-405.282	0.319	0.119	-0.084
-404.267	44.623	-0.265	0.241
-403.252	800.000	-0.023	-0.097
-402.238	-135.437	0.134	-0.016
-401.223	-29.157	0.137	0.078
-400.209	275.398	0.082	-0.144
-399.194	-30.126	-0.255	-0.143
-398.179	773.604	0.034	0.091
-397.165	98.650	0.052	0.059
-396.150	290.243	-0.131	0.235
-395.136	-127.263	-0.240	-0.035
-394.121	-200.000	0.041	0.296
-393.106	-49.622	-0.432	-0.203
-392.092	-104.679	0.140	0.032
-391.077	-179.423	0.124	0.003
-390.063	276.834	-0.109	0.192
-389.048	-200.000	-0.018	0.337
-388.033	-94.203	-0.325	0.088
-387.019	-200.000	0.093	-0.432
-386.004	-200.000	-0.023	0.186
-384.990	-61.148	-0.258	0.108
-383.975	800.000	0.102	0.312
-382.960	-200.000	0.012	-0.344
-381.946	800.000	0.083	-0.288
-380.931	37.719	-0.213	-0.187
-379.917	-49.920	-0.090	-0.042
-378.902	46.052	-0.143	0.131
-377.888	143.543	0.065	0.086
-376.873	69.749	0.077	-0.078
-375.858	-100.337	-0.135	-0.033
-374.844	-16.677	0.416	0.261
-373.829	-41.288	-0.188	-0.096
-372.815	-115.865	0.031	-0.006
-371.800	-200.000	0.030	0.232
-370.785	-200.000	-0.006	0.160
-369.771	-7.805	-0.219	0.147
-368.756	-19.955	0.328	0.200
-367.742	105.500	0.142	-0.166
-366.727	45.110	0.041	0.037
-365.712	306.105	-0.207	0.380
-364.698	375.225	0.088	0.178
-363.683	717.706	-0.123	0.324
-362.669	67.918	0.149	-0.151
-361.654	-200.000	-0.003	-0.021
-360.639	-200.000	0.010	0.119
-359.625	-200.000	-0.010	0.068
-358.610	62.292	0.104	0.102
-357.596	222.892	-0.155	0.247
-356.581	-200.000	0.050	0.252
-355.566	448.663	-0.143	-0.312
-354.552	-48.565	0.019	0.009
-353.537	33.017	0.080	0.069
-352.523	-200.000	-0.013	-0.303
-351.508	-20.633	0.109	-0.066
-350.493	220.123	-0.044	0.070
-349.479	-172.326	-0.220	-0.007
-348.464	-200.000	0.028	-0.142
-347.450	-172.439	0.422	0.013
-346.435	-200.000	-0.011	0.092
-345.420	-200.000	0.028	0.163
-344.406	69.319	0.101	-0.102
-343.391	-161.818	0.140	0.007
-342.377	-4.847	-0.311	0.212
-341.362	26.821	-0.216	0.178
-340.348	-108.887	-0.198	-0.042
-339.333	-44.310	-0.279	-0.138
-338.318	-80.171	0.396	0.131
-337.304	-200.000	0.013	-0.123
-336.289	121.196	-0.082	-0.101
-335.275	-36.723	0.125	-0.066
-334.260	-140.447	-0.289	0.030
-333.245	116.507	0.132	0.160
-332.231	76.663	-0.105	-0.110
-331.216	-200.000	0.085	-0.465
-330.202	-200.000	0.021	-0.119
-329.187	-104.957	0.229	0.052
-328.172	-146.280	-0.266	0.023
-327.158	-56.598	-0.226	0.099
-326.143	51.733	0.193	0.181
-325.129	16.425	0.128	-0.099
-324.114	25.612	-0.195	-0.160
-323.099	117.856	0.326	-0.396
-322.085	-200.000	0.007	-0.042
-321.070	-77.932	0.083	-0.028
-320.056	83.107	0.231	-0.248
-319.041	800.000	0.107	0.459
-318.026	210.298	0.046	-0.071
-317.012	-122.385	0.221	-0.036
-315.997	-82.944	0.552	0.176
-314.983	74.853	0.103	0.107
-313.968	-200.000	-0.015	-0.181
-312.953	154.207	-0.056	0.076
-311.939	-200.000	-0.011	0.181
-310.924	-52.379	0.121	0.055
-309.910	-79.840	-0.506	0.168
-308.895	244.136	0.170	-0.281
-307.880	-200.000	0.005	0.084
-306.866	-200.000	-0.040	0.219
-305.851	314.411	-0.059	-0.110
-304.837	-143.570	0.271	-0.025
-303.822	544.524	-0.056	-0.133
-302.807	-152.402	-0.185	0.013
-301.793	557.419	0.176	0.419
-300.778	-36.611	-0.139	0.074
-299.764	-22.688	0.133	0.079
-298.749	81.423	-0.094	-0.101
-297.735	-200.000	-0.035	0.231
-296.720	800.000	0.161	-0.588
-295.705	223.903	-0.106	0.169
-294.691	-200.000	-0.002	0.137
-293.676	-200.000	-0.005	0.131
-292.662	201.222	-0.163	0.247
-291.647	4.390	0.214	0.155
-290.632	223.476	0.075	0.119
-289.618	187.506	-0.047	-0.069
-288.603	-54.186	0.185	-0.083
-287.589	-57.681	-0.343	-0.148
-286.574	95.316	-0.214	0.240
-285.559	-200.000	0.019	0.127
-284.545	-9.283	0.021	-0.014
-283.530	-47.406	-0.362	-0.173
-282.516	102.402	0.173	-0.200
-281.501	-37.360	0.152	-0.080
-280.486	-161.530	-0.185	0.009
-279.472	-124.037	-0.222	0.034
-278.457	-103.707	0.270	0.062
-277.443	41.419	-0.064	0.057
-276.428	-184.137	-0.456	0.007
-275.413	64.352	0.065	0.065
-274.399	-200.000	0.014	0.384
-273.384	48.565	0.239	-0.221
-272.370	16.761	-0.186	0.145
-271.355	26.998	0.203	-0.168
-270.340	103.974	0.018	-0.021
-269.326	-104.436	0.147	-0.033
-268.311	-70.311	-0.241	-0.090
-267.297	473.613	-0.157	0.348
-266.282	87.382	0.221	0.240
-265.267	14.680	0.243	0.187
-264.253	-100.863	0.224	-0.054
-263.238	-200.000	-0.041	-0.266
-262.224	-67.212	-0.115	-0.045
-261.209	-68.978	0.139	-0.053
-260.195	-18.526	-0.249	0.153
-259.180	49.711	0.048	0.045
-258.165	285.650	-0.116	-0.206
-257.151	800.000	0.128	-0.394
-256.136	27.171	0.241	-0.199
-255.122	-63.432	-0.329	0.133
-254.107	-200.000	-0.001	0.160
-253.092	-200.000	0.002	-0.011
-252.078	-85.162	-0.092	-0.028
-251.063	239.618	-0.092	0.152
-250.049	16.614	0.125	-0.097
-249.034	-200.000	-0.027	-0.220
-248.019	-58.823	0.314	0.134
-247.005	800.000	-0.056	-0.220
-245.990	-87.015	0.217	0.065
-244.976	-133.018	-0.489	-0.061
-243.961	-200.000	-0.023	0.251
-242.946	-200.000	-0.011	-0.073
-241.932	18.578	-0.093	0.073
-240.917	-64.415	0.246	-0.098
-239.903	96.714	0.110	0.124
-238.888	-154.777	0.095	-0.006
-237.873	332.227	-0.170	-0.323
-236.859	40.945	-0.209	-0.185
-235.844	260.424	-0.085	0.145
-234.830	-43.098	0.256	0.128
-233.815	800.000	-0.114	0.319
-232.800	97.820	0.086	0.097
-231.786	-30.540	0.068	0.038
-230.771	800.000	-0.080	0.239
-229.757	11.208	0.227	-0.171
-228.742	-100.775	0.141	-0.034
-227.727	80.121	0.079	-0.083
-226.713	-200.000	-0.035	0.248
-225.698	-179.326	-0.289	0.006
-224.684	-63.798	0.141	-0.057
-223.669	-6.873	-0.332	0.222
-222.655	53.463	-0.059	-0.055
-221.640	-200.000	-0.065	0.286
-220.625	-200.000	-0.025	0.150
-219.611	27.043	-0.248	0.205
-218.596	213.331	0.118	0.184
-217.582	-2.072	-0.157	-0.109
-216.567	34.754	-0.105	-0.090
-215.552	-16.218	0.280	-0.175
-214.538	-69.250	0.074	-0.028
-213.523	-200.000	0.044	-0.284
-212.509	87.006	0.075	-0.081
-211.494	-24.988	-0.276	-0.161
-210.479	156.825	0.097	0.132
-209.465	433.983	-0.135	-0.288
-208.450	-120.848	-0.201	-0.033
-207.436	14.038	0.286	0.219
-206.421	170.452	-0.201	0.283
-205.406	-143.217	0.377	0.036
-204.392	221.144	-0.074	-0.117
-203.377	-37.625	-0.192	0.101
-202.363	494.676	-0.043	0.098
-201.348	43.846	0.152	0.137
-200.333	-55.369	0.158	0.070
-199.319	403.377	-0.018	-0.038
-198.304	-200.000	-0.047	0.241
-197.290	89.255	0.178	0.195
-196.275	800.000	0.069	-0.244
-195.260	800.000	0.097	0.395
-194.246	-113.641	0.325	0.062
-193.231	326.825	-0.029	0.055
-192.217	-93.099	-0.266	-0.073
-191.202	197.016	0.205	0.307
-190.187	-42.288	-0.062	-0.031
-189.173	-200.000	0.046	0.436
-188.158	641.115	-0.052	-0.129
-187.144	-149.617	0.400	-0.031
-186.129	-200.000	-0.008	-0.129
-185.114	45.615	0.071	-0.064
-184.100	-14.922	0.145	-0.092
-183.085	-86.613	0.119	-0.036
-182.071	-92.340	0.050	0.014
-181.056	517.277	-0.118	0.271
-180.042	555.979	-0.098	-0.232
-179.027	541.519	-0.111	0.259
-178.012	-200.000	0.043	-0.225
-176.998	800.000	0.041	0.160
-175.983	-17.675	0.263	-0.162
-174.969	-37.493	0.291	-0.152
-173.954	800.000	0.046	0.172
-172.939	461.313	-0.116	-0.253
-171.925	800.000	0.187	-0.519
-170.910	471.230	-0.147	-0.325
-169.896	53.270	0.054	-0.051
-168.881	108.218	0.017	-0.020
-167.866	268.985	-0.007	0.011
-166.852	112.961	-0.071	-0.085
-165.837	287.488	0.071	0.126
-164.823	-108.924	-0.283	0.059
-163.808	800.000	0.083	-0.328
-162.793	-129.143	0.189	-0.026
-161.779	800.000	0.054	-0.197
-160.764	-29.383	0.077	0.043
-159.750	-175.319	-0.252	-0.007
-158.735	-64.552	0.271	0.108
-157.720	145.079	0.112	0.147
-156.706	-200.000	-0.002	0.229
-155.691	150.518	0.048	-0.064
-154.677	-172.374	-0.269	-0.008
-153.662	-145.977	-0.300	0.026
-152.647	-200.000	0.020	-0.237
-151.633	66.059	-0.100	-0.100
-150.618	93.089	-0.103	-0.114
-149.604	-146.383	-0.244	-0.021
-148.589	800.000	0.149	-0.588
-147.574	7.571	0.071	-0.052
-146.560	800.000	0.060	-0.235
-145.545	-200.000	-0.067	0.304
-144.531	-200.000	-0.051	0.303
-143.516	628.356	0.091	0.226
-142.502	-200.000	-0.048	0.456
-141.487	-101.769	-0.077	0.018
-140.472	-157.938	0.093	0.005
-139.458	111.245	0.157	-0.185
-138.443	-200.000	-0.001	-0.109
-137.429	-97.592	0.353	-0.090
-136.414	-45.688	0.258	-0.125
-135.399	101.474	-0.074	0.085
-134.385	-49.434	0.119	0.056
-133.370	-111.117	-0.308	0.062
-132.356	-79.794	0.207	-0.068
-131.341	-200.000	0.066	0.457
-130.326	-142.875	-0.290	-0.028
-129.312	-200.000	0.015	-0.178
-128.297	312.142	0.118	0.216
-127.283	345.357	-0.094	0.181
-126.268	49.578	0.320	0.296
-125.253	20.265	-0.054	-0.042
-124.239	196.439	-0.032	0.047
-123.224	-96.023	-0.207	-0.054
-122.210	104.320	0.073	0.084
-121.195	92.939	0.203	0.225
-120.180	-109.483	0.165	-0.034
-119.166	-200.000	-0.032	-0.349
-118.151	800.000	-0.133	0.400
-117.137	-150.746	0.112	0.008
-116.122	205.498	-0.138	-0.209
-115.107	-200.000	0.033	0.321
-114.093	-77.655	-0.135	0.046
-113.078	-4.145	0.291	-0.197
-112.064	-15.640	-0.166	0.103
-111.049	800.000	0.144	0.436
-110.034	-47.428	-0.226	0.107
-109.020	-103.063	0.270	0.063
-108.005	256.192	-0.075	0.125
-106.991	63.356	0.251	0.246
-105.976	-143.922	0.144	-0.013
-104.962	451.890	0.139	0.302
-103.947	-200.000	-0.078	0.427
-102.932	-181.557	0.158	0.003
-101.918	0.552	0.094	0.066
-100.903	-200.000	0.054	0.238
-99.889	800.000	0.083	0.323
-98.874	-200.000	0.007	0.108
-97.859	-107.802	0.403	0.086
-96.845	1.043	-0.137	-0.096
-95.830	-55.721	-0.229	0.100
-94.816	-26.743	0.208	-0.119
-93.801	-158.753	0.047	-0.003
-92.786	297.225	-0.139	-0.250
-91.772	-200.000	0.014	0.063
-90.757	11.468	0.180	-0.135
-89.743	800.000	-0.027	-0.074
-88.728	74.812	-0.211	0.217
-87.713	-178.787	0.178	-0.004
-86.699	-159.568	0.411	0.022
-85.684	800.000	-0.051	0.194
-84.670	800.000	0.035	0.129
-83.655	-200.000	-0.000	-0.170
-82.640	149.504	0.166	-0.219
-81.626	57.059	-0.204	0.195
-80.611	87.426	0.113	-0.122
-79.597	-104.709	-0.356	0.080
-78.582	800.000	0.069	-0.215
-77.567	-23.419	0.233	0.137
-76.553	-139.221	0.155	-0.016
-75.538	-200.000	0.024	0.129
-74.524	-200.000	0.018	0.290
-73.509	437.020	0.055	0.117
-72.494	179.663	-0.097	0.138
-71.480	199.462	0.012	0.018
-70.465	-200.000	0.038	0.308
-69.451	-200.000	-0.005	0.101
-68.436	-120.621	-0.266	-0.044
-67.422	105.377	-0.241	-0.278
-66.407	-200.000	0.021	0.113
-65.392	257.969	0.058	-0.097
-64.378	16.893	0.121	0.094
-63.363	390.722	0.069	0.141
-62.349	58.109	0.057	0.054
-61.334	59.124	-1.238	-1.190
-60.319	196.969	0.466	0.695
-59.305	451.432	-0.499	-1.077
-58.290	42.855	1.094	0.973
-57.276	488.937	0.612	1.366
-56.261	-200.000	118.324	640.848
-55.246	476.787	1558.039	3440.286
-54.232	172.459	2734.520	3842.597
-53.217	97.713	2296.594	2578.333
-52.203	35.075	1902.733	1627.512
-51.188	29.134	1697.289	1406.512
-50.173	26.735	1656.558	1354.799
-49.159	46.656	1715.419	1555.193
-48.144	45.487	1728.375	1557.986
-47.130	28.692	1684.841	1392.625
-46.115	26.030	1670.869	1360.965
-45.100	25.979	1665.757	1356.365
-44.086	25.966	1662.960	1353.939
-43.071	25.864	1661.211	1351.692
-42.057	25.904	1658.098	1349.409
-41.042	25.892	1656.187	1347.709
-40.027	25.914	1653.967	1346.011
-39.013	25.883	1651.959	1344.097
-37.998	25.883	1650.740	1343.050
-36.984	25.928	1649.838	1342.595
-35.969	26.054	1647.660	1341.710
-34.954	26.035	1646.130	1340.269
-33.940	25.906	1645.261	1338.550
-32.925	25.980	1642.976	1337.186
-31.911	26.017	1641.239	1335.994
-30.896	26.058	1639.452	1334.792
-29.881	25.959	1638.119	1332.919
-28.867	25.979	1636.322	1331.555
-27.852	26.018	1635.245	1330.911
-26.838	26.052	1633.389	1329.600
-25.823	26.138	1632.206	1329.213
-24.809	26.083	1631.005	1327.779
-23.794	26.057	1629.809	1326.566
-22.779	26.046	1627.960	1324.923
-21.765	25.987	1626.595	1323.331
-20.750	25.999	1624.784	1321.892
-19.736	25.976	1623.678	1320.766
-18.721	26.078	1622.114	1320.192
-17.706	25.987	1620.792	1318.396
-16.692	26.108	1618.796	1317.602
-15.677	26.136	1617.494	1316.693
-14.663	26.077	1616.599	1315.488
-13.648	26.050	1614.476	1313.510
-12.633	26.066	1613.069	1312.431
-11.619	26.050	1611.649	1311.107
-10.604	26.100	1610.164	1310.206
-9.590	26.126	1608.998	1309.400
-8.575	26.119	1607.282	1307.898
-7.560	26.158	1605.761	1306.890
-6.546	26.156	1604.755	1306.003
-5.531	26.052	1603.932	1304.533
-4.517	26.022	1603.269	1303.724
-3.502	25.969	1602.107	1302.347
-2.487	26.097	1600.030	1301.529
-1.473	25.720	1588.147	1289.108
-0.458	22.967	1568.747	1253.806
0.556	21.408	1570.139	1221.813
1.571	19.049	1593.287	1222.973
2.586	18.561	1606.355	1229.396
3.600	16.896	1551.653	1175.887
4.615	10.642	1445.206	1054.602
5.629	5.038	1386.464	976.629
6.644	4.047	1379.094	965.181
7.659	4.022	1377.950	964.140
8.673	4.155	1377.108	964.288
9.688	4.166	1374.947	962.758
10.702	4.191	1371.856	960.664
11.717	6.715	1376.774	979.707
12.731	14.193	1390.383	1036.021
13.746	20.688	1401.335	1084.718
14.761	22.604	1403.509	1098.252
15.775	22.116	1401.930	1093.883
16.790	21.132	1399.449	1085.733
17.804	20.414	1397.295	1079.501
18.819	20.055	1396.047	1076.213
19.834	20.056	1395.118	1075.407
20.848	20.024	1394.124	1074.348
21.863	19.787	1392.981	1071.905
22.877	19.759	1391.705	1070.656
23.892	19.746	1390.462	1069.519
24.907	19.678	1389.777	1068.479
25.921	19.675	1388.744	1067.572
26.936	19.710	1387.839	1066.998
27.950	19.766	1386.951	1066.569
28.965	19.767	1386.505	1066.138
29.980	19.983	1385.193	1066.362
30.994	20.003	1384.321	1065.723
32.009	20.110	1383.401	1065.574
33.023	20.120	1381.769	1064.283
34.038	20.005	1380.576	1062.570
35.053	19.953	1379.279	1061.154
36.067	19.843	1378.321	1059.651
37.082	19.963	1377.236	1059.460
38.096	19.867	1377.023	1058.614
39.111	19.990	1375.710	1058.260
40.126	19.749	1374.726	1055.937
41.140	19.499	1373.573	1053.437
42.155	19.317	1372.892	1051.712
43.169	19.307	1373.138	1051.742
44.184	19.313	1372.297	1051.039
45.199	19.217	1372.335	1050.392
46.213	19.539	1371.919	1051.944
47.228	19.738	1371.461	1052.712
48.242	19.780	1370.217	1051.920
49.257	19.677	1368.894	1050.186
50.271	19.691	1367.408	1049.039
51.286	19.735	1365.959	1048.097
52.301	19.699	1364.463	1046.643
53.315	19.573	1363.602	1045.127
54.330	19.464	1362.427	1043.471
55.344	19.343	1361.509	1041.944
56.359	19.363	1360.191	1040.964
57.374	19.411	1358.972	1040.229
58.388	19.247	1358.495	1038.783
59.403	19.295	1357.928	1038.549
60.417	19.202	1357.211	1037.349
61.432	19.150	1356.157	1036.139
62.447	19.126	1355.036	1035.044
63.461	19.021	1354.239	1033.713
64.476	18.955	1353.227	1032.453
65.490	19.017	1352.049	1031.838
66.505	19.046	1349.842	1030.234
67.520	19.085	1348.993	1029.726
68.534	19.117	1347.877	1028.977
69.549	19.099	1346.985	1028.095
70.563	18.896	1345.987	1026.034
71.578	18.869	1344.746	1024.838
72.593	18.783	1343.872	1023.567
73.607	18.760	1343.253	1022.867
74.622	18.762	1342.405	1022.142
75.636	18.888	1341.887	1022.406
76.651	18.892	1341.093	1021.737
77.666	18.959	1340.817	1021.834
78.680	19.094	1340.154	1022.040
79.695	19.294	1339.157	1022.375
80.709	19.231	1338.801	1021.639
81.724	19.355	1337.961	1021.644
82.739	19.413	1337.333	1021.414
83.753	19.590	1336.896	1022.042
84.768	19.808	1336.044	1022.588
85.782	19.830	1334.940	1021.784
86.797	19.910	1334.024	1021.464
87.812	19.718	1332.667	1019.202
88.826	19.805	1331.177	1018.481
89.841	19.774	1330.391	1017.607
90.855	19.886	1329.647	1017.608
91.870	20.089	1328.322	1017.697
92.884	20.137	1327.386	1017.172
93.899	20.052	1326.991	1016.278
94.914	20.087	1326.551	1016.059
95.928	20.068	1325.852	1015.324
96.943	20.011	1324.266	1013.681
97.957	19.909	1323.748	1012.601
98.972	19.856	1322.767	1011.451
99.987	19.909	1321.856	1010.977
101.001	19.949	1320.473	1010.061
102.016	19.870	1319.824	1009.013
103.030	19.879	1318.838	1008.222
104.045	19.881	1317.853	1007.395
105.060	19.743	1316.699	1005.618
106.074	19.553	1314.470	1002.724
107.089	19.108	1313.465	999.287
108.103	19.010	1312.202	997.668
109.118	19.077	1310.468	996.649
110.133	19.138	1309.102	995.873
111.147	19.091	1308.134	994.779
112.162	19.291	1306.667	994.730
113.176	19.209	1305.771	993.490
114.191	19.381	1304.657	993.543
115.206	19.345	1303.826	992.616
116.220	19.267	1302.425	991.011
117.235	19.185	1301.193	989.517
118.249	19.094	1300.501	988.378
119.264	19.119	1298.844	987.176
120.279	19.058	1297.686	985.861
121.293	18.889	1297.157	984.403
122.308	18.872	1295.855	983.231
123.322	18.648	1295.051	981.250
124.337	18.793	1293.362	980.711
125.352	18.771	1292.359	979.742
126.366	18.752	1291.639	978.998
127.381	18.744	1290.717	978.169
128.395	18.764	1289.597	977.347
129.410	18.817	1288.869	977.010
130.424	19.003	1287.676	977.077
131.439	19.084	1287.337	977.193
132.454	19.152	1286.090	976.543
133.468	19.155	1285.882	976.320
134.483	19.307	1285.058	976.467
135.497	19.333	1283.810	975.580
136.512	19.257	1282.761	974.264
137.527	19.257	1281.445	973.182
138.541	19.313	1280.032	972.336
139.556	19.360	1278.962	971.705
140.570	19.531	1278.183	971.990
141.585	19.642	1277.079	971.684
142.600	19.607	1276.365	970.859
143.614	19.837	1275.600	971.485
144.629	19.938	1274.504	971.131
145.643	19.843	1273.491	969.743
146.658	19.576	1272.186	967.165
147.673	19.527	1270.201	965.298
148.687	19.407	1268.990	963.622
149.702	19.269	1267.266	961.457
150.716	19.284	1266.428	960.821
151.731	19.273	1265.189	959.736
152.746	19.225	1264.511	958.870
153.760	19.374	1263.152	958.578
154.775	19.481	1261.995	958.211
155.789	19.609	1261.297	958.306
156.804	19.570	1260.625	957.498
157.819	19.656	1259.621	957.127
158.833	19.725	1258.803	956.800
159.848	19.976	1257.365	957.010
160.862	19.881	1256.963	956.095
161.877	19.586	1255.178	953.022
162.892	19.292	1253.929	950.372
163.906	19.280	1253.273	949.722
164.921	19.274	1252.519	949.034
165.935	19.372	1251.680	948.853
166.950	19.548	1250.838	949.102
167.964	19.425	1250.030	947.729
168.979	19.409	1249.208	946.932
169.994	19.387	1248.791	946.412
171.008	19.354	1248.235	945.726
172.023	19.617	1247.239	946.330
173.037	19.759	1246.509	946.471
174.052	19.724	1245.404	945.353
175.067	19.536	1244.363	943.451
176.081	19.320	1243.101	941.236
177.096	19.315	1242.418	940.603
178.110	19.290	1241.587	939.756
179.125	19.407	1240.072	939.164
180.140	19.551	1238.400	938.598
181.154	19.703	1237.885	938.949
182.169	19.741	1236.668	938.150
183.183	19.795	1235.613	937.561
184.198	19.894	1234.506	937.172
185.213	19.840	1233.597	936.106
186.227	19.857	1232.581	935.344
187.242	19.970	1231.679	935.190
188.256	19.977	1230.842	934.511
189.271	20.082	1230.026	934.371
190.286	19.835	1228.436	931.752
191.300	19.397	1227.098	928.300
192.315	19.199	1226.553	926.737
193.329	19.306	1226.120	926.902
194.344	19.434	1225.536	927.067
195.359	19.530	1225.251	927.285
196.373	19.628	1224.980	927.527
197.388	19.758	1224.069	927.453
198.402	19.944	1223.914	928.247
199.417	20.097	1223.211	928.457
200.432	20.267	1223.064	929.173
201.446	20.358	1221.978	928.750
202.461	20.417	1221.208	928.398
203.475	20.404	1220.602	927.788
204.490	20.115	1218.889	924.861
205.504	19.899	1217.645	922.685
206.519	19.826	1216.324	921.210
207.534	19.923	1214.781	920.480
208.548	19.827	1214.188	919.436
209.563	19.860	1213.429	918.956
210.577	19.802	1212.666	917.988
211.592	19.947	1211.946	918.130
212.607	20.141	1211.123	918.453
213.621	20.086	1210.251	917.422
214.636	20.121	1209.668	917.081
215.650	20.176	1208.248	916.217
216.665	20.301	1207.756	916.422
217.680	20.411	1207.052	916.387
218.694	20.440	1206.196	915.811
219.709	20.337	1205.603	914.735
220.723	20.390	1204.506	914.102
221.738	20.215	1203.751	912.528
222.753	20.229	1202.534	911.594
223.767	20.257	1202.444	911.593
224.782	20.441	1201.771	911.970
225.796	20.623	1201.095	912.330
226.811	20.571	1200.458	911.496
227.826	20.372	1199.824	909.890
228.840	20.241	1198.981	908.484
229.855	20.236	1197.915	907.568
230.869	20.157	1197.249	906.573
231.884	20.040	1196.614	905.397
232.899	20.029	1194.932	903.989
233.913	19.979	1194.531	903.342
234.928	19.908	1193.814	902.351
235.942	19.840	1192.900	901.229
236.957	19.904	1192.185	900.941
237.972	19.894	1191.589	900.358
238.986	19.970	1190.692	899.994
240.001	19.913	1190.221	899.265
241.015	20.000	1189.338	898.967
242.030	20.066	1188.470	898.577
243.045	20.120	1187.554	898.084
244.059	20.277	1186.852	898.284
245.074	20.345	1186.067	897.965
246.088	20.302	1186.058	897.653
247.103	20.402	1185.223	897.458
248.117	20.634	1184.188	897.796
249.132	20.716	1184.413	898.311
250.147	21.020	1183.762	899.303
251.161	21.125	1182.850	899.072
252.176	21.124	1182.240	898.523
253.190	21.256	1181.991	898.933
254.205	21.281	1181.332	898.485
255.220	21.303	1180.547	897.918
256.234	21.378	1179.787	897.645
257.249	21.252	1179.122	896.413
258.263	21.243	1178.653	895.935
259.278	21.181	1177.732	894.834
260.293	21.140	1177.361	894.267
261.307	21.316	1176.860	894.707
262.322	21.322	1176.412	894.318
263.336	21.480	1175.650	894.468
264.351	21.480	1175.051	893.931
265.366	21.339	1174.457	892.679
266.380	21.461	1173.431	892.446
267.395	21.307	1172.309	890.729
268.409	21.241	1171.656	889.815
269.424	21.088	1171.146	888.573
270.439	21.249	1170.372	888.721
271.453	21.034	1169.756	887.086
272.468	20.931	1168.124	885.246
273.482	20.877	1167.561	884.464
274.497	20.852	1167.307	884.068
275.512	20.925	1166.450	883.711
276.526	20.922	1165.514	882.911
277.541	20.919	1164.773	882.254
278.555	21.037	1164.404	882.491
279.570	21.243	1164.102	883.231
280.585	21.493	1162.811	883.433
281.599	21.411	1161.970	882.304
282.614	21.247	1160.633	880.382
283.628	21.093	1159.426	878.615
284.643	21.112	1158.398	877.852
285.657	21.097	1157.934	877.349
286.672	21.048	1156.880	876.224
287.687	21.097	1156.090	875.796
288.701	21.086	1155.712	875.375
289.716	21.219	1154.521	875.061
290.730	21.118	1154.143	874.195
291.745	21.165	1153.341	873.742
292.760	21.193	1152.819	873.414
293.774	21.405	1152.341	874.033
294.789	21.527	1151.863	874.203
295.803	21.460	1151.112	873.217
296.818	21.256	1150.192	871.429
297.833	21.192	1148.855	870.018
298.847	21.170	1148.370	869.462
299.862	21.159	1148.023	869.071
300.876	21.207	1147.302	868.685
301.891	21.317	1146.713	868.709
302.906	21.419	1146.565	869.027
303.920	21.531	1145.836	868.954
304.935	21.667	1145.349	869.182
305.949	21.767	1144.866	869.236
306.964	21.681	1143.817	867.938
307.979	21.667	1142.926	867.112
308.993	21.575	1142.050	865.916
310.008	21.760	1141.433	866.285
311.022	21.750	1140.668	865.579
312.037	21.807	1139.409	864.832
313.052	21.546	1138.846	863.039
314.066	21.383	1137.544	861.171
315.081	21.189	1136.488	859.342
316.095	21.163	1135.713	858.553
317.110	21.134	1135.356	858.066
318.125	21.243	1134.304	857.727
319.139	21.143	1133.803	856.782
320.154	21.079	1133.239	855.968
321.168	21.291	1132.157	856.112
322.183	21.351	1131.405	855.764
323.197	21.273	1131.459	855.346
324.212	21.359	1130.898	855.268
325.227	21.465	1130.404	855.338
326.241	21.309	1129.579	853.872
327.256	21.454	1128.518	853.703
328.270	21.213	1127.811	851.916
329.285	21.189	1126.794	850.959
330.300	21.313	1125.453	850.471
331.314	21.383	1124.673	850.151
332.329	21.327	1123.554	848.956
333.343	21.519	1122.998	849.395
334.358	21.654	1122.009	849.227
335.373	21.614	1121.694	848.717
336.387	21.730	1120.667	848.426
337.402	21.688	1120.397	847.945
338.416	21.718	1120.059	847.758
339.431	21.926	1118.931	847.836
340.446	21.924	1119.128	847.900
341.460	22.207	1118.286	848.552
342.475	22.276	1116.862	847.730
343.489	22.205	1116.430	846.983
344.504	22.359	1115.474	846.925
345.519	22.318	1114.863	846.188
346.533	22.355	1114.219	845.804
347.548	22.336	1113.850	845.358
348.562	22.356	1112.584	844.418
349.577	22.049	1111.731	842.220
350.592	21.937	1110.381	840.591
351.606	21.769	1109.685	839.182
352.621	21.751	1108.757	838.320
353.635	21.637	1108.288	837.348
354.650	21.575	1107.421	836.320
355.665	21.733	1107.024	836.703
356.679	21.882	1106.376	836.848
357.694	22.012	1105.875	837.015
358.708	21.986	1105.375	836.439
359.723	21.985	1104.758	835.893
360.738	22.033	1103.974	835.455
361.752	21.966	1103.348	834.589
362.767	22.132	1102.610	834.744
363.781	22.020	1102.204	833.832
364.796	22.246	1102.034	834.702
365.810	22.446	1101.120	834.887
366.825	22.507	1100.706	834.787
367.840	22.604	1100.740	835.199
368.854	22.734	1100.150	835.291
369.869	22.700	1099.228	834.357
370.883	22.613	1098.072	832.996
371.898	22.462	1097.445	831.731
372.913	22.410	1096.903	831.002
373.927	22.399	1096.440	830.528
374.942	22.621	1095.819	831.030
375.956	22.572	1095.411	830.419
376.971	22.492	1094.489	829.267
377.986	22.581	1094.254	829.437
379.000	22.682	1093.820	829.506
380.015	22.810	1093.405	829.723
381.029	22.944	1092.338	829.469
382.044	22.804	1091.742	828.285
383.059	22.780	1090.836	827.410
384.073	22.741	1090.242	826.705
385.088	22.809	1089.264	826.207
386.102	22.765	1088.780	825.561
387.117	22.557	1086.629	822.889
388.132	22.499	1085.562	821.734
389.146	22.402	1084.979	820.770
390.161	22.359	1084.675	820.266
391.175	22.361	1083.781	819.528
392.190	22.597	1083.075	820.018
393.205	22.772	1082.370	820.225
394.219	22.675	1081.996	819.418
395.234	22.543	1080.642	817.709
396.248	22.443	1079.532	816.331
397.263	22.440	1078.386	815.378
398.278	22.330	1077.726	814.301
399.292	22.177	1076.906	812.901
400.307	22.115	1076.150	811.972
401.321	22.145	1075.614	811.636
402.336	22.283	1074.308	811.215
403.350	22.280	1073.676	810.649
404.365	22.353	1073.317	810.645
405.380	22.396	1072.864	810.428
406.394	22.465	1072.036	810.049
407.409	22.629	1071.767	810.526
408.423	22.753	1071.044	810.477
409.438	22.934	1070.451	810.788
410.453	22.977	1070.051	810.613
411.467	23.094	1069.156	810.397
412.482	23.107	1068.724	810.056
413.496	23.032	1068.131	809.192
414.511	23.260	1067.894	809.987
415.526	23.312	1067.288	809.694
416.540	23.277	1067.115	809.327
417.555	23.312	1065.979	808.554
418.569	23.239	1065.308	807.640
419.584	23.161	1064.878	806.890
420.599	23.301	1063.881	806.698
421.613	157.948	1405.440	1797.400
422.628	145.346	1455.213	1797.491
