DTS Sentinel unit serial number:	SN413079Multiplexer serial number:	ORYXHardware model number:	OX4-SRSoftware version number:	ORYX F/W v4.00 Oryx Data Collector v3.7.2.0data status	okinstallation	princeton_trtdifferential loss correction	single-endedforward channel	channel 2reverse channel	N/Adate	2019/09/13time	12:19:35forward acquisition time	60.00reverse acquisition time	0.00gamma	496.2192k internal	0.2315k external	0.2315temperature offset calibration	1.0214default loss term (dB/km)	0.3790temperature slope calibration	1.0000multiplexer offset coefficient	1.0000multiplexer slope coefficient	1.0000fibre end	0.00T internal ref (°C)	34.11T ext. ref 1 (°C)	4.62T ext. ref 2 (°C)	30.70length (m)	temperature (°C)	Stokes	anti-Stokes-747.200	-36.198	-0.128	0.070
-746.185	-162.957	-0.119	0.006
-745.171	104.294	-0.211	0.252
-744.156	-200.000	0.081	0.376
-743.142	456.695	0.074	0.166
-742.127	131.093	-0.368	0.478
-741.112	259.410	0.075	-0.131
-740.098	-200.000	0.052	0.354
-739.083	-2.797	-0.101	0.071
-738.069	-200.000	-0.027	0.285
-737.054	-146.434	0.556	-0.049
-736.039	13.440	-0.286	0.225
-735.025	-5.517	-0.132	0.092
-734.010	252.351	-0.152	-0.262
-732.996	-36.562	-0.216	-0.118
-731.981	95.560	-0.258	-0.298
-730.966	800.000	-0.014	0.046
-729.952	750.893	0.039	-0.107
-728.937	-70.027	-0.258	0.099
-727.923	250.575	-0.211	0.363
-726.908	41.947	-0.313	0.288
-725.894	-128.130	-0.378	-0.055
-724.879	65.386	-0.246	0.252
-723.864	-149.745	0.145	-0.012
-722.850	-200.000	0.012	-0.223
-721.835	552.867	0.052	0.126
-720.821	-75.298	-0.165	0.060
-719.806	-116.805	0.064	0.012
-718.791	-135.086	0.265	-0.032
-717.777	559.650	0.058	-0.143
-716.762	21.167	-0.116	-0.095
-715.748	-200.000	0.000	0.148
-714.733	800.000	0.040	0.144
-713.718	800.000	0.024	-0.087
-712.704	345.555	-0.017	0.034
-711.689	-115.465	-0.411	-0.078
-710.675	130.217	-0.254	-0.329
-709.660	-69.189	-0.256	-0.100
-708.645	168.149	0.286	-0.412
-707.631	-58.148	0.218	0.096
-706.616	-200.000	-0.020	0.231
-705.602	-184.430	-0.059	-0.001
-704.587	800.000	-0.027	0.077
-703.572	449.825	-0.088	0.197
-702.558	800.000	-0.014	0.040
-701.543	-36.475	0.247	-0.134
-700.529	-85.849	-0.104	-0.033
-699.514	97.144	-0.274	0.317
-698.499	51.366	-0.268	-0.258
-697.485	-138.073	0.189	0.021
-696.470	135.100	0.119	-0.157
-695.456	-92.797	-0.248	-0.070
-694.441	108.079	0.144	-0.174
-693.426	19.738	-0.280	0.228
-692.412	-154.543	-0.295	-0.020
-691.397	193.131	0.045	-0.068
-690.383	-200.000	-0.012	0.354
-689.368	-52.259	-0.080	-0.038
-688.354	8.770	-0.295	-0.225
-687.339	222.940	0.200	0.327
-686.324	-44.422	-0.046	-0.023
-685.310	-200.000	-0.038	0.361
-684.295	-53.910	0.057	-0.026
-683.281	430.356	-0.075	-0.164
-682.266	-200.000	0.050	-0.407
-681.251	193.190	0.085	-0.130
-680.237	-94.003	0.329	0.091
-679.222	-124.487	-0.162	-0.025
-678.208	722.415	0.108	-0.291
-677.193	-114.322	0.152	-0.030
-676.178	-104.079	-0.260	0.061
-675.164	-200.000	0.001	-0.168
-674.149	-31.662	0.149	-0.085
-673.135	-200.000	0.046	0.249
-672.120	472.208	-0.073	0.165
-671.105	-200.000	0.038	-0.245
-670.091	800.000	-0.082	-0.279
-669.076	197.554	-0.114	-0.175
-668.062	65.715	-0.128	0.131
-667.047	-101.175	0.087	-0.021
-666.032	120.672	-0.208	-0.262
-665.018	-200.000	0.001	-0.246
-664.003	-11.964	-0.072	-0.048
-662.989	-200.000	-0.015	0.226
-661.974	-98.833	-0.292	0.075
-660.959	34.889	-0.205	-0.181
-659.945	-200.000	0.066	-0.299
-658.930	14.041	0.143	0.113
-657.916	685.723	0.084	-0.220
-656.901	800.000	-0.119	-0.355
-655.886	-200.000	0.032	-0.323
-654.872	42.589	-0.272	-0.250
-653.857	128.405	-0.189	-0.243
-652.843	282.687	-0.090	0.162
-651.828	-200.000	-0.002	0.122
-650.814	-200.000	-0.003	-0.066
-649.799	-106.833	-0.034	0.008
-648.784	-200.000	-0.011	0.208
-647.770	35.360	-0.150	0.133
-646.755	800.000	0.045	0.128
-645.741	-200.000	0.005	-0.176
-644.726	-72.290	-0.059	0.022
-643.711	-75.353	0.107	-0.038
-642.697	-149.837	-0.087	-0.007
-641.682	264.642	0.098	-0.173
-640.668	-31.684	0.134	-0.076
-639.653	-44.876	-0.195	-0.098
-638.638	-106.113	0.163	0.037
-637.624	220.275	0.045	0.072
-636.609	-162.841	-0.216	-0.011
-635.595	-27.145	-0.142	0.083
-634.580	-200.000	-0.001	-0.259
-633.565	6.503	-0.322	-0.241
-632.551	-4.715	0.050	-0.035
-631.536	-110.218	0.107	0.022
-630.522	225.428	-0.110	-0.180
-629.507	582.068	-0.112	0.278
-628.492	-200.000	0.002	0.194
-627.478	800.000	-0.055	-0.228
-626.463	0.403	0.251	-0.181
-625.449	594.875	0.064	0.159
-624.434	-14.049	0.093	-0.060
-623.419	-138.563	0.182	0.020
-622.405	70.269	-0.318	0.332
-621.390	-88.547	0.299	-0.090
-620.376	-109.174	-0.079	-0.017
-619.361	-41.439	0.197	0.102
-618.346	-200.000	0.021	0.143
-617.332	32.218	0.237	0.206
-616.317	-24.032	0.144	0.087
-615.303	-200.000	-0.045	0.272
-614.288	267.339	-0.198	0.349
-613.273	115.154	-0.307	-0.378
-612.259	-147.270	0.022	0.002
-611.244	-60.406	-0.324	-0.139
-610.230	59.347	0.094	-0.093
-609.215	81.047	0.178	0.194
-608.201	-28.139	0.188	-0.109
-607.186	-116.960	0.484	-0.089
-606.171	-200.000	-0.011	-0.221
-605.157	-200.000	-0.030	0.187
-604.142	619.314	-0.079	-0.200
-603.128	-36.413	0.232	-0.126
-602.113	338.589	0.033	-0.064
-601.098	-76.483	-0.067	0.024
-600.084	503.239	-0.046	-0.107
-599.069	-76.769	0.370	0.130
-598.055	800.000	0.068	0.227
-597.040	279.576	0.088	-0.157
-596.025	666.640	-0.091	-0.236
-595.011	-145.319	-0.204	-0.019
-593.996	-90.692	-0.124	-0.036
-592.982	167.453	0.058	0.083
-591.967	71.827	0.045	0.047
-590.952	-34.868	0.104	0.057
-589.938	181.233	-0.252	-0.374
-588.923	-112.287	-0.260	-0.052
-587.909	58.554	0.135	-0.134
-586.894	-113.509	-0.148	0.029
-585.879	-131.667	-0.070	0.009
-584.865	-81.565	-0.275	-0.091
-583.850	800.000	0.048	-0.185
-582.836	-200.000	0.018	-0.182
-581.821	-169.336	-0.319	-0.012
-580.806	126.435	0.215	-0.274
-579.792	11.647	-0.052	-0.040
-578.777	-200.000	-0.021	0.214
-577.763	29.536	0.297	-0.254
-576.748	-200.000	0.001	0.090
-575.733	238.216	-0.046	0.077
-574.719	-74.061	0.260	0.095
-573.704	-19.580	0.309	-0.193
-572.690	-122.134	0.357	-0.059
-571.675	800.000	0.089	-0.297
-570.661	-200.000	0.040	0.208
-569.646	160.211	-0.097	0.137
-568.631	-200.000	-0.182	0.001
-567.617	-200.000	-0.058	-0.263
-566.602	54.097	-0.154	-0.149
-565.588	103.967	-0.168	-0.199
-564.573	228.723	0.033	-0.054
-563.558	-200.000	0.034	-0.215
-562.544	687.949	-0.088	-0.231
-561.529	-18.769	-0.093	-0.058
-560.515	-60.435	-0.110	-0.047
-559.500	40.173	-0.257	-0.233
-558.485	241.818	0.088	0.148
-557.471	43.048	-0.089	0.082
-556.456	59.242	0.190	-0.188
-555.442	-38.940	-0.128	-0.068
-554.427	-190.067	0.121	-0.001
-553.412	556.122	-0.139	0.336
-552.398	243.853	-0.177	0.299
-551.383	-200.000	-0.026	0.203
-550.369	-124.347	-0.241	-0.038
-549.354	-128.357	-0.087	0.012
-548.339	-87.511	-0.301	0.091
-547.325	106.452	0.113	-0.134
-546.310	-100.110	-0.104	-0.026
-545.296	-55.434	-0.059	-0.027
-544.281	-182.509	-0.312	0.006
-543.266	474.100	0.132	-0.300
-542.252	-47.311	-0.217	0.106
-541.237	-105.832	0.291	-0.066
-540.223	429.648	-0.059	0.129
-539.208	-18.434	0.096	0.060
-538.193	-61.269	0.300	0.127
-537.179	-62.146	0.265	-0.111
-536.164	-183.752	-0.088	-0.002
-535.150	-9.252	-0.052	0.035
-534.135	156.493	0.124	0.171
-533.121	800.000	-0.044	0.165
-532.106	-68.050	0.245	-0.096
-531.091	-34.115	-0.226	-0.125
-530.077	298.766	0.133	-0.246
-529.062	800.000	0.146	-0.447
-528.048	-58.628	0.051	-0.022
-527.033	-18.267	-0.241	0.151
-526.018	-71.993	-0.300	0.112
-525.004	-99.354	0.194	-0.049
-523.989	-200.000	0.018	0.187
-522.975	800.000	-0.019	0.085
-521.960	-10.396	-0.232	-0.154
-520.945	-200.000	0.041	0.231
-519.931	-200.000	-0.025	0.162
-518.916	800.000	-0.072	0.244
-517.902	-170.957	0.064	0.002
-516.887	118.395	-0.240	-0.297
-515.872	-200.000	0.010	0.153
-514.858	800.000	0.029	-0.101
-513.843	800.000	0.030	0.084
-512.829	-117.430	-0.270	0.049
-511.814	342.481	-0.093	-0.183
-510.799	-133.628	-0.256	0.032
-509.785	800.000	-0.084	-0.241
-508.770	-53.715	-0.455	-0.209
-507.756	20.429	-0.304	-0.247
-506.741	448.881	-0.094	-0.208
-505.726	-108.264	-0.294	0.064
-504.712	164.858	-0.044	-0.063
-503.697	148.680	-0.179	-0.242
-502.683	580.019	0.025	-0.061
-501.668	800.000	0.065	0.276
-500.653	-95.027	-0.083	0.023
-499.639	-200.000	0.000	0.364
-498.624	800.000	0.023	0.068
-497.610	-79.928	0.208	-0.070
-496.595	800.000	-0.158	0.464
-495.581	267.146	-0.070	0.123
-494.566	318.490	0.086	-0.163
-493.551	750.495	0.059	0.159
-492.537	110.572	-0.128	0.155
-491.522	252.533	-0.039	0.067
-490.508	29.339	-0.175	-0.149
-489.493	-200.000	-0.036	0.176
-488.478	-90.615	0.134	-0.039
-487.464	105.847	-0.148	-0.175
-486.449	609.006	0.019	-0.048
-485.435	-200.000	-0.001	-0.096
-484.420	800.000	0.069	-0.210
-483.405	-108.736	-0.129	0.028
-482.391	-200.000	0.021	0.224
-481.376	333.093	0.151	0.293
-480.362	-38.587	0.209	0.111
-479.347	315.285	0.128	0.241
-478.332	106.278	-0.139	0.165
-477.318	148.305	-0.069	0.093
-476.303	388.147	-0.081	0.167
-475.289	-145.616	-0.142	0.013
-474.274	-54.055	-0.249	-0.114
-473.259	-120.569	-0.055	-0.009
-472.245	112.991	0.061	0.074
-471.230	136.572	0.153	0.200
-470.216	-199.214	-0.123	0.001
-469.201	-73.562	0.183	0.067
-468.186	-103.485	0.161	-0.038
-467.172	-104.964	-0.191	0.044
-466.157	88.166	-0.250	-0.278
-465.143	-200.000	0.001	-0.226
-464.128	75.364	0.082	-0.086
-463.113	-58.031	0.199	0.087
-462.099	-50.027	-0.190	-0.090
-461.084	-200.000	-0.015	-0.122
-460.070	800.000	0.038	-0.136
-459.055	-3.369	-0.109	0.076
-458.040	37.294	0.132	-0.117
-457.026	800.000	-0.039	-0.164
-456.011	-200.000	0.020	-0.289
-454.997	-94.287	0.129	0.035
-453.982	-200.000	0.010	0.149
-452.968	-59.478	-0.099	-0.043
-451.953	27.933	0.200	0.169
-450.938	3.254	0.090	0.065
-449.924	404.279	0.086	0.181
-448.909	-183.985	-0.220	0.004
-447.895	-12.963	0.120	-0.078
-446.880	13.105	-0.208	-0.162
-445.865	-115.332	-0.235	-0.044
-444.851	147.276	0.149	0.200
-443.836	-134.528	-0.123	0.015
-442.822	-111.355	0.189	-0.039
-441.807	148.754	-0.182	-0.247
-440.792	-52.783	-0.343	-0.158
-439.778	-93.455	0.181	0.050
-438.763	128.686	-0.125	-0.160
-437.749	-200.000	0.003	-0.166
-436.734	-200.000	0.003	-0.086
-435.719	-1.877	-0.308	-0.217
-434.705	-86.911	0.437	-0.133
-433.690	-119.835	0.145	-0.025
-432.676	-200.000	-0.119	-0.639
-431.661	-200.000	-0.020	-0.147
-430.646	-188.133	-0.222	-0.003
-429.632	-45.973	0.037	0.018
-428.617	-38.301	0.205	-0.108
-427.603	77.207	-0.150	-0.160
-426.588	-200.000	0.007	-0.117
-425.573	221.303	-0.111	0.179
-424.559	-132.067	-0.201	-0.026
-423.544	337.522	0.059	0.114
-422.530	-200.000	0.020	-0.111
-421.515	800.000	-0.065	0.184
-420.500	-36.221	0.092	0.050
-419.486	-107.367	0.404	-0.089
-418.471	-62.052	0.136	0.057
-417.457	8.642	-0.270	0.203
-416.442	800.000	0.038	-0.124
-415.428	99.172	-0.089	-0.103
-414.413	800.000	0.005	-0.013
-413.398	247.764	-0.143	-0.241
-412.384	20.745	-0.254	0.206
-411.369	25.461	0.338	0.281
-410.355	-200.000	-0.046	-0.523
-409.340	58.993	-0.158	-0.155
-408.325	-0.185	-0.260	-0.185
-407.311	-103.011	0.285	-0.067
-406.296	800.000	-0.036	0.144
-405.282	800.000	0.080	-0.223
-404.267	797.361	0.043	0.120
-403.252	78.482	0.212	0.226
-402.238	-200.000	-0.030	-0.504
-401.223	77.977	-0.113	0.121
-400.209	-83.311	0.329	0.105
-399.194	-200.000	0.006	-0.252
-398.179	-139.640	0.078	0.008
-397.165	-75.853	0.282	0.100
-396.150	-200.000	0.036	0.264
-395.136	800.000	-0.061	0.231
-394.121	6.812	-0.127	-0.094
-393.106	800.000	-0.109	0.390
-392.092	36.545	-0.254	0.224
-391.077	-54.319	0.097	-0.044
-390.063	40.688	0.031	0.028
-389.048	-200.000	0.001	-0.046
-388.033	-112.493	0.351	0.070
-387.019	-200.000	0.014	0.109
-386.004	800.000	-0.087	0.247
-384.990	-90.248	-0.227	0.066
-383.975	184.570	0.209	-0.309
-382.960	-114.228	0.376	0.073
-381.946	67.230	-0.081	0.083
-380.931	-91.157	-0.176	-0.050
-379.917	105.633	-0.182	0.215
-378.902	-108.493	-0.275	0.059
-377.888	2.340	0.406	-0.294
-376.873	-58.063	-0.045	-0.020
-375.858	-55.995	0.274	-0.122
-374.844	-200.000	0.010	-0.173
-373.829	749.576	0.067	0.179
-372.815	-92.528	0.292	0.082
-371.800	-200.000	-0.003	0.114
-370.785	-87.316	0.255	0.077
-369.771	52.365	0.076	-0.072
-368.756	-200.000	0.012	0.058
-367.742	800.000	0.034	-0.098
-366.727	-63.061	-0.318	0.131
-365.712	800.000	0.042	-0.154
-364.698	-64.419	0.201	0.082
-363.683	-2.050	-0.058	0.040
-362.669	-20.540	0.206	-0.126
-361.654	-200.000	-0.004	-0.378
-360.639	-34.535	-0.249	-0.136
-359.625	22.921	0.185	-0.151
-358.610	138.174	-0.114	0.149
-357.596	34.947	-0.143	-0.125
-356.581	125.657	0.158	0.199
-355.566	-26.450	-0.130	0.076
-354.552	-200.000	0.037	0.197
-353.537	-101.898	0.146	-0.035
-352.523	-157.642	0.335	0.020
-351.508	66.794	-0.050	0.051
-350.493	-200.000	-0.034	-0.155
-349.479	-152.696	0.117	-0.008
-348.464	-136.727	-0.350	0.040
-347.450	0.534	0.282	0.201
-346.435	-90.580	0.189	0.054
-345.420	252.580	0.195	0.332
-344.406	-127.771	0.254	-0.037
-343.391	-30.785	-0.152	0.086
-342.377	38.105	0.068	-0.060
-341.362	-33.271	0.249	0.138
-340.348	-200.000	-0.024	0.315
-339.333	-41.832	0.168	-0.086
-338.318	-97.298	0.205	-0.053
-337.304	101.383	-0.077	0.090
-336.289	-7.022	-0.144	0.098
-335.275	50.583	0.112	0.105
-334.260	745.008	0.118	0.316
-333.245	-72.205	-0.182	-0.067
-332.231	-12.901	0.151	0.098
-331.216	-63.057	-0.303	0.125
-330.202	80.845	0.271	0.291
-329.187	221.610	-0.109	-0.174
-328.172	723.405	-0.036	0.095
-327.158	665.246	-0.069	0.178
-326.143	275.890	0.039	-0.070
-325.129	-28.859	-0.187	-0.107
-324.114	74.296	-0.137	0.144
-323.099	-200.000	0.038	0.180
-322.085	800.000	-0.035	0.132
-321.070	-139.235	-0.129	-0.014
-320.056	-150.701	-0.338	-0.026
-319.041	800.000	-0.095	0.394
-318.026	-10.283	-0.069	0.045
-317.012	-200.000	-0.002	-0.300
-315.997	39.430	-0.267	-0.239
-314.983	-70.154	0.416	0.158
-313.968	-53.435	-0.046	0.021
-312.953	76.432	0.290	-0.306
-311.939	-117.739	0.127	-0.023
-310.924	39.446	0.201	-0.179
-309.910	102.671	0.215	0.250
-308.895	-200.000	-0.028	-0.159
-307.880	-104.733	0.466	0.107
-306.866	81.833	-0.091	0.098
-305.851	-36.754	0.390	-0.208
-304.837	-200.000	-0.028	0.314
-303.822	800.000	0.066	-0.208
-302.807	104.279	-0.249	-0.291
-301.793	-108.887	0.069	-0.015
-300.778	800.000	0.096	0.286
-299.764	-117.305	0.283	0.051
-298.749	364.760	0.142	0.284
-297.735	141.606	0.133	-0.176
-296.720	589.823	-0.020	0.049
-295.705	135.319	0.021	0.028
-294.691	30.011	0.099	-0.084
-293.676	-93.597	0.174	-0.048
-292.662	-158.714	-0.442	0.025
-291.647	800.000	-0.120	-0.379
-290.632	-32.723	0.222	-0.123
-289.618	-200.000	0.046	-0.493
-288.603	-89.138	-0.116	0.034
-287.589	-55.878	0.144	-0.064
-286.574	-15.125	-0.079	-0.050
-285.559	800.000	-0.016	0.053
-284.545	-73.589	-0.417	-0.151
-283.530	-200.000	0.074	-0.372
-282.516	48.892	-0.248	-0.232
-281.501	-124.593	0.340	-0.053
-280.486	284.174	-0.156	0.280
-279.472	-181.591	-0.135	-0.003
-278.457	-167.538	0.373	0.015
-277.443	262.664	-0.036	-0.062
-276.428	-200.000	-0.069	-0.490
-275.413	-200.000	-0.018	0.397
-274.399	137.520	-0.143	-0.187
-273.384	800.000	0.008	-0.031
-272.370	133.366	0.158	0.203
-271.355	140.232	-0.081	0.106
-270.340	-200.000	-0.012	-0.194
-269.326	276.604	0.036	0.064
-268.311	-113.336	-0.117	0.023
-267.297	-7.051	-0.210	-0.141
-266.282	331.704	0.122	0.234
-265.267	522.867	0.078	0.182
-264.253	312.036	0.092	0.172
-263.238	503.934	-0.083	0.190
-262.224	-59.485	0.121	0.052
-261.209	-30.592	-0.212	-0.119
-260.195	-158.868	0.158	-0.009
-259.180	128.282	0.200	0.254
-258.165	800.000	0.058	-0.180
-257.151	800.000	-0.013	-0.050
-256.136	-200.000	0.007	-0.060
-255.122	-20.924	-0.046	-0.028
-254.107	12.847	0.047	0.036
-253.092	221.697	0.133	-0.213
-252.078	265.366	-0.119	-0.206
-251.063	-111.779	-0.257	-0.052
-250.049	-200.000	0.000	-0.113
-249.034	32.473	-0.058	-0.050
-248.019	714.512	0.071	-0.186
-247.005	101.182	-0.114	0.132
-245.990	-200.000	-0.000	-0.138
-244.976	293.485	0.085	-0.154
-243.961	-200.000	-0.026	-0.150
-242.946	290.507	-0.193	-0.348
-241.932	-200.000	0.100	0.000
-240.917	-16.493	0.101	-0.063
-239.903	-13.842	0.203	0.130
-238.888	-140.281	-0.364	-0.038
-237.873	-92.483	-0.258	0.072
-236.859	-86.681	-0.224	-0.068
-235.844	-82.911	0.150	0.048
-234.830	-200.000	0.012	0.263
-233.815	-200.000	-0.066	-0.394
-232.800	62.434	-0.136	-0.135
-231.786	-12.838	-0.258	-0.167
-230.771	140.285	0.143	0.188
-229.757	-27.078	-0.078	-0.045
-228.742	-200.000	-0.035	0.272
-227.727	100.317	0.251	0.289
-226.713	124.007	0.189	0.236
-225.698	-70.568	0.151	-0.057
-224.684	-200.000	0.157	-0.000
-223.669	-0.632	-0.135	0.095
-222.655	-123.417	0.460	0.073
-221.640	-21.299	0.146	-0.088
-220.625	-110.458	0.103	-0.021
-219.611	-47.845	-0.220	0.106
-218.596	-142.427	0.092	-0.009
-217.582	-41.971	0.035	-0.018
-216.567	334.409	-0.075	-0.144
-215.552	92.692	0.160	-0.180
-214.538	-50.940	0.180	-0.084
-213.523	-200.000	-0.002	0.109
-212.509	56.925	0.096	-0.093
-211.494	800.000	-0.065	-0.263
-210.479	-66.687	0.331	-0.130
-209.465	-94.838	-0.409	0.110
-208.450	800.000	0.076	0.265
-207.436	32.471	-0.134	0.115
-206.421	-6.784	-0.455	0.307
-205.406	-200.000	0.034	-0.166
-204.392	527.775	-0.060	0.141
-203.377	98.519	-0.273	0.312
-202.363	-84.407	0.102	0.032
-201.348	-116.640	0.156	0.028
-200.333	-12.301	0.149	0.097
-199.319	118.899	0.117	-0.143
-198.304	-145.920	-0.051	0.005
-197.290	20.358	-0.131	0.105
-196.275	-45.339	0.199	0.098
-195.260	-46.821	0.213	0.103
-194.246	140.087	0.173	0.226
-193.231	-86.782	-0.415	0.126
-192.217	119.812	-0.292	0.359
-191.202	83.181	0.101	-0.109
-190.187	-200.000	0.049	-0.415
-189.173	87.788	0.129	0.141
-188.158	-12.304	0.168	0.109
-187.144	-153.578	0.141	-0.010
-186.129	103.910	0.098	-0.114
-185.114	-47.893	0.338	0.162
-184.100	-119.777	-0.260	-0.044
-183.085	265.251	-0.153	0.264
-182.071	149.908	-0.225	0.302
-181.056	-200.000	0.345	-0.002
-180.042	117.665	-0.077	-0.094
-179.027	672.984	0.146	0.374
-178.012	-12.161	-0.160	-0.104
-176.998	-37.932	-0.173	0.091
-175.983	-200.000	-0.008	-0.261
-174.969	50.944	0.048	0.045
-173.954	177.464	-0.101	0.146
-172.939	-77.589	-0.164	-0.056
-171.925	800.000	-0.063	0.182
-170.910	-0.509	0.359	-0.252
-169.896	208.980	-0.201	0.312
-168.881	-130.321	-0.207	0.028
-167.866	354.431	0.093	0.182
-166.852	465.727	0.031	-0.069
-165.837	-56.124	-0.166	-0.073
-164.823	-156.797	0.278	-0.017
-163.808	-200.000	-0.014	-0.275
-162.793	309.845	0.054	-0.100
-161.779	800.000	0.047	0.149
-160.764	119.400	0.104	-0.127
-159.750	214.470	0.022	-0.034
-158.735	-200.000	0.052	0.270
-157.720	576.004	-0.157	0.380
-156.706	244.394	0.066	0.109
-155.691	-200.000	0.059	0.374
-154.677	-146.315	-0.292	0.025
-153.662	-80.754	0.202	0.067
-152.647	381.885	-0.179	0.364
-151.633	-72.068	-0.078	0.029
-150.618	-200.000	-0.378	-0.001
-149.604	-200.000	-0.049	-0.255
-148.589	-81.928	0.041	0.013
-147.574	-200.000	0.010	-0.242
-146.560	-90.656	0.197	-0.056
-145.545	800.000	-0.046	0.191
-144.531	-200.000	-0.069	0.348
-143.516	-200.000	-0.017	0.181
-142.502	800.000	-0.081	-0.243
-141.487	-200.000	0.031	-0.207
-140.472	-113.984	-0.220	-0.042
-139.458	179.464	0.059	0.086
-138.443	541.360	-0.017	-0.040
-137.429	-182.656	0.236	-0.004
-136.414	765.571	0.144	-0.387
-135.399	-200.000	-0.011	0.250
-134.385	-172.143	0.065	0.002
-133.370	63.537	0.074	0.074
-132.356	-38.756	-0.101	-0.053
-131.341	-99.856	-0.145	0.036
-130.326	800.000	-0.096	-0.296
-129.312	296.793	0.244	-0.442
-128.297	800.000	0.030	-0.119
-127.283	-118.674	-0.198	0.035
-126.268	50.941	0.087	0.081
-125.253	47.577	-0.072	-0.066
-124.239	-152.398	0.058	0.004
-123.224	-200.000	-0.041	0.280
-122.210	-200.000	0.011	0.279
-121.195	-86.780	-0.151	0.046
-120.180	-37.732	0.233	-0.123
-119.166	-102.532	-0.466	-0.110
-118.151	800.000	-0.078	0.222
-117.137	800.000	0.045	-0.132
-116.122	-200.000	-0.014	0.151
-115.107	79.711	0.122	0.129
-114.093	214.218	0.078	-0.122
-113.078	35.607	-0.361	0.314
-112.064	-200.000	0.026	0.127
-111.049	-199.886	0.137	-0.001
-110.034	704.219	0.108	0.281
-109.020	-200.000	-0.052	-0.261
-108.005	32.088	-0.083	0.071
-106.991	-134.935	0.274	-0.033
-105.976	-200.000	-0.013	0.185
-104.962	-6.395	-0.187	0.126
-103.947	800.000	0.121	0.339
-102.932	509.843	-0.061	-0.140
-101.918	425.634	0.047	-0.099
-100.903	170.823	-0.040	0.056
-99.889	392.619	0.153	0.314
-98.874	127.163	0.214	0.268
-97.859	134.927	-0.198	0.254
-96.845	800.000	-0.053	0.216
-95.830	-200.000	0.286	-0.000
-94.816	133.491	-0.102	0.131
-93.801	81.451	-0.110	0.117
-92.786	-105.578	-0.169	-0.038
-91.772	539.848	0.079	0.186
-90.757	-200.000	0.000	-0.013
-89.743	42.818	0.130	0.117
-88.728	44.130	0.267	0.242
-87.713	-200.000	0.000	0.223
-86.699	800.000	0.029	0.078
-85.684	524.028	0.104	-0.243
-84.670	-200.000	-0.025	-0.295
-83.655	-200.000	0.061	-0.304
-82.640	125.641	0.062	-0.077
-81.626	672.973	0.028	0.071
-80.611	800.000	0.075	-0.287
-79.597	800.000	0.063	-0.206
-78.582	-89.737	0.231	0.067
-77.567	149.864	0.118	0.158
-76.553	-109.784	0.063	-0.013
-75.538	-200.000	-0.007	-0.033
-74.524	-200.000	0.038	-0.233
-73.509	-36.071	0.231	0.123
-72.494	800.000	0.042	0.150
-71.480	800.000	-0.067	0.230
-70.465	-200.000	0.061	-0.291
-69.451	632.815	-0.073	-0.183
-68.436	-200.000	0.106	0.506
-67.422	166.239	-0.103	-0.143
-66.407	-77.778	-0.099	0.034
-65.392	-25.753	0.075	0.043
-64.378	-124.409	-0.122	-0.019
-63.363	-200.000	0.040	0.228
-62.349	560.599	0.189	0.451
-61.334	110.838	-0.791	-0.939
-60.319	-200.000	0.105	0.521
-59.305	619.447	-0.436	-1.081
-58.290	272.288	0.479	0.834
-57.276	542.341	0.623	1.464
-56.261	-200.000	97.223	570.545
-55.246	620.731	1407.836	3492.197
-54.232	182.575	2638.094	3837.286
-53.217	113.822	2325.856	2787.940
-52.203	43.709	1933.533	1745.042
-51.188	37.296	1720.082	1502.920
-50.173	34.548	1675.172	1442.878
-49.159	51.448	1723.644	1614.605
-48.144	54.589	1740.868	1654.742
-47.130	37.038	1696.864	1480.431
-46.115	34.171	1682.037	1445.700
-45.100	33.974	1677.254	1440.037
-44.086	33.884	1674.726	1437.131
-43.071	33.951	1671.908	1435.164
-42.057	33.908	1669.619	1432.817
-41.042	33.969	1667.583	1431.467
-40.027	34.049	1665.405	1430.146
-39.013	34.022	1663.538	1428.283
-37.998	33.920	1661.996	1426.141
-36.984	33.865	1660.995	1424.812
-35.969	34.092	1658.915	1424.669
-34.954	34.111	1656.944	1423.065
-33.940	34.082	1654.983	1421.101
-32.925	34.181	1653.111	1420.181
-31.911	34.067	1651.544	1417.923
-30.896	34.040	1649.898	1416.252
-29.881	34.089	1648.316	1415.207
-28.867	34.089	1646.527	1413.612
-27.852	34.083	1645.045	1412.240
-26.838	34.117	1643.009	1410.692
-25.823	34.194	1642.094	1410.417
-24.809	34.213	1641.072	1409.629
-23.794	34.128	1639.065	1407.220
-22.779	34.159	1637.671	1406.193
-21.765	34.195	1635.881	1404.867
-20.750	34.144	1634.654	1403.378
-19.736	34.201	1632.982	1402.310
-18.721	34.149	1631.838	1400.891
-17.706	34.192	1629.655	1399.276
-16.692	34.126	1628.333	1397.600
-15.677	34.101	1627.172	1396.363
-14.663	34.139	1625.593	1395.229
-13.648	34.257	1624.044	1394.711
-12.633	34.084	1623.200	1392.667
-11.619	34.121	1621.356	1391.295
-10.604	34.098	1619.782	1389.727
-9.590	34.122	1618.587	1388.819
-8.575	34.181	1617.246	1388.043
-7.560	34.093	1616.502	1386.706
-6.546	34.132	1615.043	1385.688
-5.531	34.187	1613.513	1384.720
-4.517	34.131	1612.280	1383.199
-3.502	34.117	1611.090	1382.021
-2.487	34.259	1609.839	1381.924
-1.473	34.064	1598.726	1370.924
-0.458	31.363	1578.594	1334.352
0.556	29.992	1578.079	1298.265
1.571	27.267	1601.983	1298.390
2.586	25.830	1614.466	1298.046
3.600	22.342	1559.791	1229.652
4.615	13.733	1447.598	1085.020
5.629	6.030	1382.319	987.722
6.644	4.650	1373.641	972.807
7.659	4.551	1372.564	971.337
8.673	4.643	1371.081	970.773
9.688	4.656	1369.783	969.852
10.702	4.629	1366.789	967.478
11.717	8.233	1374.265	995.198
12.731	17.030	1389.897	1061.695
13.746	22.535	1398.485	1102.719
14.761	22.894	1398.039	1104.512
15.775	22.041	1396.016	1097.489
16.790	21.145	1392.969	1089.405
17.804	20.303	1390.438	1082.085
18.819	19.917	1389.813	1079.092
19.834	19.753	1388.671	1077.091
20.848	19.650	1388.083	1075.895
21.863	19.574	1385.918	1073.652
22.877	19.361	1385.495	1071.908
23.892	19.311	1384.323	1070.595
24.907	19.297	1383.450	1069.737
25.921	19.347	1382.410	1069.148
26.936	19.364	1381.406	1068.384
27.950	19.418	1380.874	1068.208
28.965	19.432	1379.994	1067.525
29.980	19.605	1378.523	1067.361
30.994	19.692	1377.540	1067.039
32.009	19.762	1376.612	1066.662
33.023	19.678	1375.509	1065.195
34.038	19.619	1373.946	1063.525
35.053	19.514	1372.444	1061.620
36.067	19.539	1371.703	1061.111
37.082	19.589	1370.590	1060.459
38.096	19.602	1369.748	1059.798
39.111	19.547	1369.075	1058.844
40.126	19.534	1367.852	1057.723
41.140	19.248	1366.462	1054.807
42.155	19.087	1366.374	1053.658
43.169	19.083	1366.249	1053.446
44.184	19.069	1365.455	1052.655
45.199	19.015	1365.414	1052.199
46.213	19.235	1365.075	1053.191
47.228	19.317	1364.710	1053.318
48.242	19.524	1362.981	1053.151
49.257	19.466	1361.151	1051.287
50.271	19.478	1360.221	1050.550
51.286	19.494	1358.607	1049.310
52.301	19.414	1357.932	1048.208
53.315	19.261	1356.812	1046.322
54.330	19.106	1355.781	1044.492
55.344	19.199	1354.134	1043.697
56.359	19.074	1353.866	1042.642
57.374	19.122	1352.324	1041.652
58.388	19.103	1351.359	1040.701
59.403	18.991	1350.912	1039.588
60.417	19.000	1350.009	1038.856
61.432	19.007	1348.853	1037.918
62.447	18.821	1348.110	1036.131
63.461	18.779	1347.054	1034.977
64.476	18.919	1345.746	1034.723
65.490	18.871	1344.379	1033.290
66.505	18.795	1343.019	1031.696
67.520	18.817	1342.139	1031.060
68.534	18.874	1341.028	1030.458
69.549	18.832	1340.140	1029.431
70.563	18.776	1339.178	1028.270
71.578	18.671	1337.968	1026.620
72.593	18.653	1336.843	1025.556
73.607	18.601	1336.314	1024.750
74.622	18.617	1335.031	1023.771
75.636	18.681	1334.601	1023.735
76.651	18.706	1334.527	1023.734
77.666	18.768	1333.779	1023.438
78.680	18.815	1333.616	1023.503
79.695	18.791	1332.867	1022.696
80.709	18.964	1331.997	1022.965
81.724	19.079	1331.458	1023.147
82.739	19.277	1330.567	1023.551
83.753	19.314	1329.824	1023.107
84.768	19.475	1329.209	1023.497
85.782	19.652	1327.862	1023.419
86.797	19.613	1326.550	1022.086
87.812	19.449	1325.267	1020.034
88.826	19.401	1324.077	1018.745
89.841	19.447	1323.309	1018.340
90.855	19.627	1322.273	1018.510
91.870	19.584	1322.040	1017.990
92.884	19.705	1320.523	1017.440
93.899	19.605	1320.029	1016.381
94.914	19.836	1318.538	1016.504
95.928	19.657	1318.352	1015.217
96.943	19.622	1317.388	1014.180
97.957	19.660	1316.122	1013.337
98.972	19.576	1315.224	1012.063
99.987	19.563	1314.107	1011.041
101.001	19.543	1313.493	1010.360
102.016	19.667	1312.115	1009.934
103.030	19.641	1311.267	1009.041
104.045	19.513	1310.536	1007.642
105.060	19.485	1309.175	1006.344
106.074	19.115	1307.679	1002.952
107.089	18.860	1306.089	1000.157
108.103	18.861	1304.716	999.025
109.118	18.834	1303.319	997.710
110.133	18.850	1301.911	996.637
111.147	18.828	1300.846	995.606
112.162	19.030	1299.257	995.473
113.176	19.009	1298.584	994.743
114.191	19.016	1297.998	994.249
115.206	19.006	1296.482	992.943
116.220	19.034	1295.101	991.957
117.235	18.871	1294.141	990.197
118.249	18.960	1292.767	989.571
119.264	18.830	1291.764	987.968
120.279	18.901	1290.415	987.256
121.293	18.846	1289.322	986.012
122.308	18.777	1288.039	984.549
123.322	18.688	1287.356	983.434
124.337	18.653	1286.405	982.419
125.352	18.577	1285.087	980.889
126.366	18.645	1283.859	980.253
127.381	18.655	1283.152	979.684
128.395	18.682	1281.910	978.805
129.410	18.699	1281.343	978.383
130.424	18.870	1280.361	978.518
131.439	18.906	1279.437	977.931
132.454	18.971	1278.930	977.826
133.468	19.025	1277.839	977.214
134.483	19.058	1277.076	976.728
135.497	18.990	1276.126	975.532
136.512	19.110	1274.714	975.045
137.527	19.044	1273.718	973.825
138.541	19.135	1272.220	973.108
139.556	19.177	1270.995	972.322
140.570	19.267	1270.045	972.014
141.585	19.379	1269.162	971.885
142.600	19.575	1267.891	971.927
143.614	19.559	1267.305	971.304
144.629	19.627	1266.291	970.825
145.643	19.587	1264.859	969.415
146.658	19.469	1263.501	967.629
147.673	19.281	1261.973	965.320
148.687	19.153	1260.840	963.649
149.702	19.077	1259.510	962.123
150.716	19.007	1258.075	960.550
151.731	19.040	1256.630	959.544
152.746	18.978	1255.921	958.573
153.760	19.193	1254.588	958.671
154.775	19.305	1253.523	958.392
155.789	19.408	1252.240	957.901
156.804	19.336	1251.651	956.967
157.819	19.394	1250.636	956.428
158.833	19.476	1249.878	956.216
159.848	19.702	1248.753	956.521
160.862	19.643	1247.949	955.492
161.877	19.297	1246.845	952.653
162.892	19.068	1245.395	950.195
163.906	19.088	1244.421	949.478
164.921	19.096	1243.705	948.892
165.935	19.176	1242.346	948.215
166.950	19.279	1242.276	948.643
167.964	19.257	1241.386	947.760
168.979	19.294	1240.506	947.207
169.994	19.238	1239.584	946.113
171.008	19.249	1238.950	945.605
172.023	19.269	1238.418	945.224
173.037	19.518	1237.804	946.036
174.052	19.432	1237.115	944.952
175.067	19.273	1235.723	942.937
176.081	19.187	1234.260	941.268
177.096	19.118	1233.699	940.377
178.110	19.170	1232.424	939.609
179.125	19.139	1230.892	938.189
180.140	19.279	1230.064	938.235
181.154	19.355	1229.434	938.086
182.169	19.604	1227.839	938.141
183.183	19.579	1226.880	937.186
184.198	19.613	1226.062	936.668
185.213	19.625	1224.551	935.491
186.227	19.618	1223.556	934.612
187.242	19.641	1223.007	934.232
188.256	19.800	1221.511	933.867
189.271	19.837	1221.018	933.610
190.286	19.628	1219.903	931.544
191.300	19.178	1218.854	928.235
192.315	19.058	1217.826	926.725
193.329	19.093	1217.113	926.291
194.344	19.214	1216.681	926.530
195.359	19.270	1216.243	926.418
196.373	19.443	1215.849	926.963
197.388	19.483	1215.645	926.939
198.402	19.684	1215.288	927.666
199.417	19.884	1214.770	928.259
200.432	20.015	1213.817	928.152
201.446	20.107	1213.355	928.210
202.461	20.050	1212.393	927.086
203.475	20.199	1211.280	926.950
204.490	19.962	1209.732	924.417
205.504	19.775	1208.439	922.353
206.519	19.775	1207.125	921.265
207.534	19.710	1205.820	919.841
208.548	19.646	1205.258	918.991
209.563	19.647	1204.640	918.445
210.577	19.681	1203.506	917.682
211.592	19.834	1202.989	918.016
212.607	20.003	1201.991	918.068
213.621	19.985	1201.321	917.383
214.636	19.900	1200.208	916.003
215.650	19.933	1199.282	915.387
216.665	19.953	1198.539	914.843
217.680	20.222	1198.002	915.773
218.694	20.174	1197.178	914.809
219.709	20.149	1196.021	913.713
220.723	20.088	1195.557	912.955
221.738	20.023	1195.065	912.158
222.753	20.079	1193.274	911.003
223.767	20.161	1193.226	911.317
224.782	20.156	1192.821	910.900
225.796	20.314	1191.996	911.023
226.811	20.200	1191.358	909.855
227.826	20.107	1190.446	908.592
228.840	20.099	1189.481	907.732
229.855	20.053	1189.276	907.255
230.869	20.037	1188.068	906.171
231.884	19.962	1187.322	905.127
232.899	19.927	1186.372	904.141
233.913	19.791	1185.739	902.869
234.928	19.759	1184.589	901.745
235.942	19.647	1184.075	900.692
236.957	19.769	1183.309	900.663
237.972	19.705	1183.017	900.031
238.986	19.872	1181.683	899.801
240.001	19.938	1180.943	899.504
241.015	19.858	1180.239	898.472
242.030	19.947	1179.515	898.301
243.045	19.959	1179.019	897.908
244.059	19.927	1178.669	897.393
245.074	20.100	1177.645	897.431
246.088	20.249	1176.664	897.378
247.103	20.220	1176.355	896.909
248.117	20.322	1175.418	896.645
249.132	20.481	1174.610	896.771
250.147	20.680	1174.340	897.507
251.161	20.861	1173.909	898.035
252.176	20.848	1173.370	897.474
253.190	20.953	1172.215	897.053
254.205	21.106	1171.851	897.480
255.220	20.959	1171.517	896.388
256.234	20.894	1170.722	895.368
257.249	20.977	1169.969	895.143
258.263	20.876	1169.190	893.949
259.278	20.946	1168.322	893.562
260.293	20.970	1168.042	893.393
261.307	20.993	1167.724	893.187
262.322	21.014	1167.261	892.862
263.336	21.013	1166.305	892.049
264.351	21.137	1165.673	892.120
265.366	21.117	1165.083	891.486
266.380	21.109	1164.415	890.854
267.395	20.984	1163.665	889.565
268.409	21.007	1162.573	888.769
269.424	20.884	1161.505	887.248
270.439	20.926	1161.391	887.296
271.453	20.940	1160.176	886.361
272.468	20.765	1159.325	884.741
273.482	20.600	1158.739	883.377
274.497	20.702	1158.044	883.287
275.512	20.725	1157.689	883.055
276.526	20.777	1156.600	882.410
277.541	20.870	1155.670	882.093
278.555	20.901	1155.446	882.001
279.570	20.887	1155.161	881.635
280.585	21.079	1154.592	882.094
281.599	21.240	1153.233	881.790
282.614	20.989	1151.996	879.502
283.628	21.002	1150.771	878.554
284.643	20.743	1150.005	876.589
285.657	20.915	1149.198	876.760
286.672	21.038	1147.930	876.332
287.687	20.985	1147.210	875.437
288.701	21.092	1146.322	875.220
289.716	20.847	1145.798	873.514
290.730	20.961	1144.658	873.142
291.745	21.103	1144.193	873.419
292.760	21.048	1143.755	872.734
293.774	21.225	1142.783	872.796
294.789	21.326	1142.815	873.251
295.803	21.265	1142.150	872.359
296.818	21.100	1141.176	870.716
297.833	20.891	1140.583	869.143
298.847	21.090	1139.598	869.306
299.862	20.983	1138.892	868.160
300.876	21.042	1138.316	867.937
301.891	21.131	1137.873	867.963
302.906	21.223	1136.788	867.519
303.920	21.395	1136.463	868.049
304.935	21.435	1136.038	867.846
305.949	21.701	1135.083	868.357
306.964	21.509	1134.952	867.227
307.979	21.326	1133.940	865.469
308.993	21.402	1132.829	864.923
310.008	21.397	1132.254	864.384
311.022	21.588	1131.552	864.712
312.037	21.528	1130.250	863.345
313.052	21.363	1129.657	862.005
314.066	21.253	1128.357	860.391
315.081	21.130	1127.780	859.270
316.095	21.033	1127.018	858.135
317.110	21.029	1126.376	857.554
318.125	21.061	1125.710	857.128
319.139	21.113	1125.127	856.865
320.154	21.154	1124.254	856.324
321.168	20.981	1124.350	855.472
322.183	21.210	1123.336	855.747
323.197	21.217	1122.510	855.075
324.212	21.283	1121.966	854.911
325.227	21.353	1121.449	854.781
326.241	21.392	1120.598	854.249
327.256	21.339	1119.665	853.201
328.270	21.278	1118.457	851.910
329.285	21.196	1117.947	851.044
330.300	21.286	1116.990	850.682
331.314	21.182	1116.615	849.812
332.329	21.142	1115.461	848.665
333.343	21.289	1114.136	848.296
334.358	21.483	1113.877	848.967
335.373	21.456	1113.489	848.461
336.387	21.577	1112.514	848.230
337.402	21.580	1112.072	847.836
338.416	21.637	1111.400	847.523
339.431	21.667	1110.507	846.912
340.446	21.781	1110.278	847.212
341.460	21.888	1109.785	847.278
342.475	21.957	1108.697	846.707
343.489	21.898	1107.821	845.680
344.504	22.133	1106.771	845.935
345.519	22.043	1106.287	845.054
346.533	22.178	1105.407	844.957
347.548	22.180	1104.778	844.409
348.562	22.102	1103.910	843.300
349.577	21.915	1102.436	841.199
350.592	21.712	1101.934	839.770
351.606	21.643	1101.059	838.699
352.621	21.489	1100.380	837.369
353.635	21.572	1099.862	837.298
354.650	21.654	1099.096	837.035
355.665	21.712	1098.263	836.604
356.679	21.791	1097.739	836.504
357.694	21.727	1097.718	836.110
358.708	21.828	1096.616	835.679
359.723	21.973	1095.855	835.714
360.738	21.911	1095.396	834.996
361.752	21.834	1095.148	834.368
362.767	21.918	1094.525	834.218
363.781	21.993	1093.870	834.003
364.796	22.130	1093.175	834.048
365.810	22.192	1092.697	833.903
366.825	22.319	1092.333	834.154
367.840	22.416	1091.829	834.154
368.854	22.528	1091.086	834.047
369.869	22.419	1090.398	832.931
370.883	22.307	1089.342	831.521
371.898	22.206	1088.195	830.095
372.913	22.295	1087.815	830.152
373.927	22.345	1087.715	830.237
374.942	22.536	1087.141	830.623
375.956	22.337	1086.355	829.015
376.971	22.327	1085.831	828.494
377.986	22.420	1085.513	828.617
379.000	22.431	1085.154	828.318
380.015	22.562	1084.330	828.234
381.029	22.691	1083.567	828.184
382.044	22.659	1082.993	827.522
383.059	22.630	1082.057	826.594
384.073	22.540	1081.484	825.662
385.088	22.567	1080.334	824.840
386.102	22.617	1079.578	824.422
387.117	22.484	1078.317	822.765
388.132	22.181	1077.726	820.827
389.146	22.304	1076.603	820.473
390.161	22.177	1076.066	819.399
391.175	22.394	1074.956	819.489
392.190	22.273	1074.864	818.785
393.205	22.556	1074.225	819.543
394.219	22.492	1073.249	818.428
395.234	22.435	1072.166	817.266
396.248	22.347	1071.162	816.018
397.263	22.248	1070.021	814.621
398.278	22.247	1069.290	813.987
399.292	22.143	1068.649	812.947
400.307	22.102	1067.500	811.810
401.321	22.083	1067.197	811.421
402.336	22.127	1066.410	810.954
403.350	22.126	1065.960	810.536
404.365	22.243	1065.184	810.412
405.380	22.354	1064.719	810.500
406.394	22.474	1063.850	810.314
407.409	22.558	1063.334	810.240
408.423	22.710	1062.698	810.382
409.438	22.613	1062.192	809.475
410.453	22.901	1061.298	810.045
411.467	22.852	1060.428	809.086
412.482	22.960	1059.962	809.154
413.496	22.956	1059.566	808.760
414.511	23.080	1058.954	808.788
415.526	23.070	1058.704	808.481
416.540	23.190	1058.016	808.431
417.555	23.214	1057.326	807.941
418.569	23.040	1056.745	806.636
419.584	23.022	1056.041	805.944
420.599	23.031	1055.930	805.828
421.613	154.523	1401.216	1789.719
422.628	141.958	1451.509	1789.818
