DTS Sentinel unit serial number:	SN413079Multiplexer serial number:	ORYXHardware model number:	OX4-SRSoftware version number:	ORYX F/W v4.00 Oryx Data Collector v3.7.2.0data status	okinstallation	princeton_trtdifferential loss correction	single-endedforward channel	channel 2reverse channel	N/Adate	2019/09/11time	09:01:11forward acquisition time	60.00reverse acquisition time	0.00gamma	496.2192k internal	0.2318k external	0.2318temperature offset calibration	0.9968default loss term (dB/km)	0.3790temperature slope calibration	1.0000multiplexer offset coefficient	1.0000multiplexer slope coefficient	1.0000fibre end	0.00T internal ref (°C)	34.11T ext. ref 1 (°C)	0.09T ext. ref 2 (°C)	30.49length (m)	temperature (°C)	Stokes	anti-Stokes-747.200	31.982	0.253	-0.221
-746.185	-200.000	0.073	0.361
-745.171	-92.752	0.336	-0.095
-744.156	-45.022	0.288	0.145
-743.142	77.338	-0.087	0.094
-742.127	-200.000	-0.004	0.253
-741.112	626.369	-0.067	0.171
-740.098	-7.642	0.015	0.010
-739.083	-55.232	0.115	0.052
-738.069	319.930	0.112	0.216
-737.054	167.846	0.044	0.063
-736.039	-200.000	-0.031	-0.280
-735.025	-32.341	0.163	-0.092
-734.010	-89.560	0.051	0.015
-732.996	692.125	-0.089	-0.237
-731.981	53.122	-0.165	-0.159
-730.966	-153.177	-0.121	-0.009
-729.952	-64.072	0.039	-0.016
-728.937	226.265	-0.056	-0.092
-727.923	629.083	-0.120	0.308
-726.908	-59.594	-0.222	0.097
-725.894	174.248	-0.083	-0.121
-724.879	800.000	-0.096	-0.412
-723.864	332.683	0.140	-0.273
-722.850	-80.799	-0.217	-0.073
-721.835	19.226	-0.094	-0.076
-720.821	401.320	0.120	0.256
-719.806	-169.942	-0.245	0.009
-718.791	555.650	0.206	-0.503
-717.777	800.000	0.077	-0.226
-716.762	139.924	-0.151	0.201
-715.748	40.089	0.303	-0.276
-714.733	800.000	0.052	0.221
-713.718	-81.468	-0.112	-0.037
-712.704	23.565	0.332	-0.277
-711.689	349.822	-0.164	0.327
-710.675	-200.000	0.003	0.133
-709.660	-93.786	0.157	-0.044
-708.645	148.984	-0.069	-0.094
-707.631	-105.495	0.025	0.006
-706.616	-200.000	-0.006	-0.140
-705.602	800.000	0.083	-0.251
-704.587	-200.000	0.005	0.075
-703.572	-109.061	0.205	-0.044
-702.558	55.945	-0.120	-0.118
-701.543	-59.316	-0.157	-0.068
-700.529	-52.049	0.357	-0.168
-699.514	-10.221	-0.080	0.054
-698.499	800.000	-0.056	-0.191
-697.485	-200.000	-0.018	-0.206
-696.470	670.847	0.087	0.229
-695.456	-44.064	0.194	-0.099
-694.441	-92.866	-0.162	0.046
-693.426	-120.096	-0.299	-0.052
-692.412	-123.113	-0.106	-0.017
-691.397	-200.000	0.002	0.089
-690.383	268.662	-0.065	-0.116
-689.368	14.464	-0.096	-0.076
-688.354	-200.000	-0.055	-0.266
-687.339	-200.000	-0.047	0.227
-686.324	-200.000	0.012	-0.305
-685.310	-70.965	0.177	-0.067
-684.295	354.787	0.020	-0.041
-683.281	-200.000	0.024	0.143
-682.266	136.073	-0.127	-0.167
-681.251	-200.000	-0.089	0.448
-680.237	-200.000	0.047	-0.227
-679.222	-200.000	-0.012	0.160
-678.208	-200.000	0.025	-0.115
-677.193	133.788	-0.129	0.169
-676.178	275.452	0.112	-0.200
-675.164	-200.000	-0.008	-0.096
-674.149	51.862	-0.102	-0.098
-673.135	55.196	-0.072	-0.070
-672.120	220.448	-0.212	0.343
-671.105	800.000	-0.053	-0.220
-670.091	518.297	0.087	-0.206
-669.076	-200.000	-0.015	-0.129
-668.062	-169.670	-0.126	0.005
-667.047	-200.000	-0.036	-0.160
-666.032	-200.000	-0.036	0.204
-665.018	-87.357	0.302	0.093
-664.003	52.117	-0.212	0.204
-662.989	-133.571	0.212	0.027
-661.974	-93.797	-0.206	-0.057
-660.959	44.248	0.170	0.158
-659.945	-61.528	0.137	0.058
-658.930	-25.501	-0.207	0.123
-657.916	-200.000	-0.012	-0.222
-656.901	-7.271	0.283	-0.194
-655.886	-169.799	0.086	-0.003
-654.872	-75.168	-0.167	0.060
-653.857	-200.000	0.044	-0.274
-652.843	-7.267	0.159	0.108
-651.828	153.555	0.079	0.110
-650.814	-200.000	-0.022	0.532
-649.799	449.211	0.074	0.165
-648.784	183.076	0.105	0.156
-647.770	-119.009	-0.070	-0.012
-646.755	37.002	0.202	0.180
-645.741	-84.598	0.390	-0.124
-644.726	-42.725	-0.264	0.136
-643.711	-97.182	0.155	0.041
-642.697	-118.123	-0.255	0.046
-641.682	-200.000	0.027	-0.337
-640.668	80.681	-0.389	-0.423
-639.653	-158.963	-0.231	-0.013
-638.638	-107.025	-0.249	0.055
-637.624	577.872	-0.057	-0.141
-636.609	-200.000	0.032	0.155
-635.595	-42.924	-0.248	0.127
-634.580	-105.249	0.198	-0.045
-633.565	-106.221	0.200	-0.045
-632.551	234.596	-0.025	0.042
-631.536	-200.000	0.017	-0.082
-630.522	555.247	0.182	-0.441
-629.507	-170.392	0.315	0.011
-628.492	45.498	-0.125	-0.116
-627.478	43.781	-0.272	0.250
-626.463	-200.000	0.014	0.073
-625.449	-79.619	0.106	-0.036
-624.434	137.735	-0.235	-0.310
-623.419	-16.301	0.278	-0.178
-622.405	-138.109	-0.204	0.023
-621.390	18.622	0.187	-0.151
-620.376	-190.057	0.090	0.001
-619.361	69.301	0.049	-0.051
-618.346	13.695	0.108	-0.085
-617.332	800.000	-0.017	0.061
-616.317	786.020	0.094	0.261
-615.303	402.558	0.029	0.062
-614.288	800.000	-0.053	-0.148
-613.273	419.556	0.065	0.140
-612.259	-99.079	0.170	0.043
-611.244	-142.652	-0.131	-0.013
-610.230	-60.455	0.190	0.081
-609.215	-118.673	-0.475	0.084
-608.201	-67.866	-0.178	-0.070
-607.186	86.599	-0.154	-0.171
-606.171	14.722	0.324	0.255
-605.157	-115.794	-0.059	0.011
-604.142	136.701	0.245	-0.323
-603.128	-200.000	-0.012	0.096
-602.113	-62.185	-0.274	-0.115
-601.098	215.698	0.193	0.309
-600.084	-39.755	0.251	0.132
-599.069	-113.389	-0.455	-0.090
-598.055	-155.164	-0.203	-0.013
-597.040	-22.535	0.098	-0.060
-596.025	800.000	-0.028	0.097
-595.011	-184.305	0.143	0.002
-593.996	-200.000	-0.011	-0.176
-592.982	-151.004	0.133	0.010
-591.967	-200.000	-0.004	0.579
-590.952	-200.000	0.036	-0.175
-589.938	800.000	-0.051	0.144
-588.923	-200.000	0.014	0.202
-587.909	-54.138	-0.093	-0.043
-586.894	-55.513	0.158	-0.071
-585.879	800.000	0.093	-0.283
-584.865	182.292	0.110	-0.163
-583.850	-4.389	-0.109	-0.076
-582.836	215.604	-0.145	0.231
-581.821	-42.223	0.603	-0.310
-580.806	621.498	-0.101	0.257
-579.792	800.000	0.026	0.097
-578.777	124.570	0.284	0.359
-577.763	-118.380	0.182	-0.033
-576.748	118.313	-0.039	0.048
-575.733	-79.155	-0.339	-0.116
-574.719	-4.639	0.335	-0.233
-573.704	-200.000	-0.014	0.157
-572.690	-168.107	-0.459	-0.018
-571.675	-200.000	0.026	0.117
-570.661	-73.820	0.381	-0.139
-569.646	-200.000	0.068	0.375
-568.631	23.355	-0.063	0.052
-567.617	20.204	-0.044	0.036
-566.602	-64.193	0.364	0.149
-565.588	-200.000	-0.037	-0.288
-564.573	129.444	-0.194	0.249
-563.558	-36.548	0.168	-0.091
-562.544	-200.000	-0.033	-0.210
-561.529	30.092	-0.122	0.104
-560.515	-12.861	0.229	-0.150
-559.500	-131.884	0.266	0.035
-558.485	440.708	0.140	-0.308
-557.471	-105.572	0.125	0.029
-556.456	-200.000	-0.014	-0.238
-555.442	-141.341	0.176	0.018
-554.427	32.114	-0.182	-0.158
-553.412	800.000	0.062	-0.246
-552.398	-71.581	-0.340	-0.128
-551.383	530.616	0.015	-0.036
-550.369	-65.861	-0.291	-0.117
-549.354	487.222	0.149	-0.342
-548.339	-53.443	0.089	-0.041
-547.325	-146.828	0.123	0.011
-546.310	17.198	-0.136	0.109
-545.296	-200.000	0.018	0.260
-544.281	-200.000	0.164	-0.001
-543.266	-7.448	-0.126	0.085
-542.252	-84.206	-0.238	0.076
-541.237	105.810	-0.171	-0.203
-540.223	800.000	-0.033	-0.099
-539.208	85.963	0.085	-0.094
-538.193	-77.914	-0.242	0.084
-537.179	-19.085	0.183	-0.114
-536.164	-141.790	-0.200	0.020
-535.150	248.444	-0.077	0.132
-534.135	164.248	0.021	-0.029
-533.121	7.884	0.087	-0.066
-532.106	-75.011	-0.282	-0.101
-531.091	-63.918	-0.145	-0.059
-530.077	136.900	-0.110	0.144
-529.062	-37.420	0.375	-0.201
-528.048	-8.226	-0.114	0.077
-527.033	145.528	-0.180	-0.242
-526.018	-200.000	-0.084	-0.536
-525.004	-200.000	-0.026	-0.190
-523.989	19.426	-0.024	-0.019
-522.975	-200.000	0.017	-0.111
-521.960	-94.440	0.207	-0.057
-520.945	135.282	0.317	-0.413
-519.931	-52.029	0.459	-0.214
-518.916	-102.289	-0.255	0.061
-517.902	41.438	0.206	0.187
-516.887	-96.733	0.287	-0.076
-515.872	800.000	-0.115	0.351
-514.858	6.393	-0.433	-0.323
-513.843	107.029	0.133	-0.159
-512.829	260.774	-0.262	-0.454
-511.814	-167.835	0.289	-0.011
-510.799	-119.998	-0.344	0.059
-509.785	-54.975	-0.097	0.044
-508.770	800.000	0.031	-0.134
-507.756	-111.993	-0.276	0.056
-506.741	-200.000	0.016	0.173
-505.726	74.670	-0.024	0.026
-504.712	184.219	0.119	-0.177
-503.697	140.539	-0.158	0.210
-502.683	-24.495	0.263	-0.157
-501.668	512.953	-0.200	-0.467
-500.653	254.981	-0.119	-0.205
-499.639	-68.310	-0.081	0.031
-498.624	-21.870	0.190	-0.116
-497.610	30.498	-0.256	-0.219
-496.595	165.658	0.079	0.112
-495.581	-11.086	0.208	0.138
-494.566	264.424	-0.120	0.210
-493.551	338.427	0.082	-0.159
-492.537	800.000	0.024	-0.090
-491.522	800.000	-0.082	0.300
-490.508	-105.175	-0.462	-0.106
-489.493	58.219	0.033	-0.032
-488.478	515.607	-0.079	0.184
-487.464	800.000	0.079	0.230
-486.449	253.503	0.032	0.056
-485.435	183.409	0.069	0.103
-484.420	-62.404	0.172	-0.072
-483.405	155.122	-0.093	-0.128
-482.391	138.429	-0.165	-0.218
-481.376	483.653	-0.084	0.192
-480.362	-108.781	-0.203	-0.044
-479.347	40.063	-0.236	-0.213
-478.332	-200.000	-0.030	0.209
-477.318	82.061	-0.185	0.201
-476.303	81.448	0.166	0.180
-475.289	169.206	-0.085	-0.121
-474.274	346.292	-0.067	-0.133
-473.259	164.361	-0.085	-0.120
-472.245	17.571	-0.161	0.128
-471.230	41.411	-0.188	0.170
-470.216	-70.006	0.134	0.051
-469.201	-200.000	0.017	0.151
-468.186	49.430	0.115	-0.108
-467.172	-200.000	-0.005	0.175
-466.157	30.896	0.044	-0.037
-465.143	97.816	0.182	-0.210
-464.128	-200.000	0.010	-0.312
-463.113	29.844	-0.190	-0.162
-462.099	-200.000	-0.041	0.207
-461.084	84.474	0.182	-0.200
-460.070	-200.000	0.031	0.254
-459.055	-162.715	-0.221	-0.011
-458.040	-59.143	0.139	0.060
-457.026	27.806	0.068	-0.057
-456.011	-81.347	-0.110	0.036
-454.997	-200.000	0.071	-0.338
-453.982	-200.000	0.031	-0.229
-452.968	674.041	-0.124	-0.323
-451.953	-35.805	-0.075	-0.041
-450.938	-55.507	0.138	0.062
-449.924	257.301	0.050	0.086
-448.909	-200.000	0.037	0.542
-447.895	-65.891	-0.115	0.046
-446.880	49.458	0.142	0.134
-445.865	-200.000	-0.009	0.287
-444.851	118.223	0.088	0.109
-443.836	-14.698	0.271	0.174
-442.822	-164.860	-0.410	-0.018
-441.807	147.538	-0.301	0.406
-440.792	397.646	-0.120	0.251
-439.778	463.630	-0.085	-0.190
-438.763	-141.613	-0.199	-0.020
-437.749	-116.630	-0.387	0.071
-436.734	33.493	0.167	-0.145
-435.719	-80.134	0.102	-0.034
-434.705	151.264	0.023	-0.032
-433.690	-200.000	-0.010	-0.143
-432.676	-184.166	-0.152	0.003
-431.661	96.163	-0.085	-0.097
-430.646	93.158	0.144	-0.163
-429.632	244.046	0.172	0.288
-428.617	-88.417	0.373	-0.111
-427.603	-58.100	-0.126	-0.055
-426.588	-22.224	-0.284	0.172
-425.573	140.909	-0.130	0.171
-424.559	-124.459	-0.189	0.029
-423.544	405.727	0.159	0.336
-422.530	-135.855	-0.448	-0.053
-421.515	-2.183	-0.365	-0.256
-420.500	304.233	0.149	0.277
-419.486	-200.000	-0.024	0.141
-418.471	-200.000	0.034	-0.151
-417.457	-200.000	-0.040	-0.199
-416.442	103.702	-0.128	-0.151
-415.428	-200.000	-0.092	0.408
-414.413	-200.000	0.012	-0.106
-413.398	469.914	0.033	-0.075
-412.384	800.000	0.065	-0.220
-411.369	800.000	0.002	0.007
-410.355	-97.745	-0.332	0.086
-409.340	35.058	-0.072	-0.063
-408.325	606.714	-0.054	0.135
-407.311	13.261	-0.064	0.049
-406.296	-64.322	0.275	-0.112
-405.282	-107.764	0.156	0.034
-404.267	-87.088	0.381	0.116
-403.252	-200.000	-0.054	0.316
-402.238	45.648	-0.196	-0.181
-401.223	168.428	-0.129	-0.183
-400.209	-75.615	-0.296	-0.105
-399.194	102.380	0.135	-0.158
-398.179	275.477	-0.104	0.185
-397.165	-200.000	-0.003	-0.034
-396.150	92.013	-0.216	0.243
-395.136	-164.342	-0.127	-0.006
-394.121	-200.000	-0.005	0.021
-393.106	21.341	0.119	0.096
-392.092	-78.953	0.093	-0.032
-391.077	-95.144	0.237	0.064
-390.063	490.292	0.085	0.195
-389.048	88.177	-0.279	0.309
-388.033	602.440	-0.144	0.358
-387.019	800.000	-0.060	-0.195
-386.004	-200.000	-0.035	-0.181
-384.990	-112.049	0.031	-0.006
-383.975	-200.000	-0.016	0.431
-382.960	-200.000	-0.020	-0.262
-381.946	800.000	-0.017	0.075
-380.931	-28.578	-0.097	0.056
-379.917	800.000	-0.029	-0.098
-378.902	-147.642	0.127	0.011
-377.888	-200.000	0.026	0.197
-376.873	306.618	0.071	0.132
-375.858	-72.532	0.049	0.018
-374.844	-200.000	-0.066	0.296
-373.829	800.000	-0.028	0.084
-372.815	-119.636	0.188	-0.032
-371.800	-200.000	0.019	0.113
-370.785	0.629	0.229	0.164
-369.771	158.148	0.292	0.404
-368.756	-43.713	0.153	-0.077
-367.742	-200.000	-0.008	0.201
-366.727	54.715	-0.102	0.098
-365.712	-44.255	-0.248	0.124
-364.698	-168.493	0.178	0.007
-363.683	-47.730	-0.041	0.020
-362.669	-200.000	-0.046	-0.260
-361.654	800.000	-0.047	-0.150
-360.639	129.228	0.206	0.262
-359.625	248.177	-0.112	0.189
-358.610	-165.135	-0.345	0.015
-357.596	-200.000	-0.013	0.062
-356.581	-151.100	-0.394	-0.030
-355.566	-200.000	0.094	0.421
-354.552	-44.430	0.030	0.015
-353.537	217.172	0.084	0.133
-352.523	-110.140	-0.177	0.037
-351.508	11.540	0.177	-0.136
-350.493	-128.954	-0.378	-0.053
-349.479	-7.301	-0.345	0.233
-348.464	297.882	-0.074	0.136
-347.450	-67.147	0.187	0.073
-346.435	800.000	-0.008	-0.029
-345.420	-200.000	-0.001	-0.110
-344.406	-200.000	-0.009	-0.140
-343.391	800.000	-0.086	-0.288
-342.377	29.316	0.072	-0.061
-341.362	800.000	0.016	-0.046
-340.348	-200.000	0.040	-0.393
-339.333	-46.739	-0.339	0.165
-338.318	-200.000	-0.002	-0.157
-337.304	173.823	0.184	0.264
-336.289	-89.475	0.337	0.099
-335.275	-200.000	-0.037	-0.292
-334.260	-200.000	0.009	-0.239
-333.245	800.000	0.029	0.095
-332.231	237.114	0.044	-0.072
-331.216	-200.000	-0.017	-0.178
-330.202	800.000	-0.086	0.269
-329.187	30.122	0.316	-0.268
-328.172	18.829	-0.011	0.009
-327.158	-9.199	0.107	-0.071
-326.143	-18.073	-0.222	0.139
-325.129	-66.479	-0.031	-0.012
-324.114	-39.869	0.284	-0.148
-323.099	379.765	0.144	-0.294
-322.085	70.639	0.238	-0.245
-321.070	-135.722	0.214	-0.025
-320.056	26.837	-0.143	-0.119
-319.041	-55.749	0.264	-0.118
-318.026	-3.237	0.203	0.141
-317.012	-57.991	0.145	0.063
-315.997	595.983	0.030	0.074
-314.983	1.273	0.271	0.194
-313.968	-112.407	0.242	-0.048
-312.953	-18.109	-0.344	-0.214
-311.939	-31.634	0.235	0.132
-310.924	153.866	0.098	-0.134
-309.910	800.000	-0.013	-0.037
-308.895	276.172	-0.137	-0.243
-307.880	-137.837	-0.171	-0.019
-306.866	556.587	0.165	-0.395
-305.851	-200.000	-0.026	-0.229
-304.837	22.359	-0.353	-0.287
-303.822	100.401	-0.012	-0.014
-302.807	-43.264	0.066	-0.033
-301.793	1.069	0.215	0.153
-300.778	-200.000	-0.035	0.235
-299.764	800.000	0.092	0.396
-298.749	402.053	0.068	-0.141
-297.735	-106.919	0.283	-0.062
-296.720	-90.824	0.123	-0.035
-295.705	622.202	0.047	-0.117
-294.691	-177.515	-0.220	-0.005
-293.676	-200.000	0.020	0.248
-292.662	-88.619	-0.196	0.058
-291.647	493.646	0.119	0.272
-290.632	800.000	0.025	-0.097
-289.618	719.035	-0.113	-0.300
-288.603	-28.612	-0.332	0.190
-287.589	121.102	0.170	0.211
-286.574	259.353	0.096	0.165
-285.559	-43.260	-0.253	0.127
-284.545	91.919	-0.025	0.028
-283.530	347.931	0.123	-0.241
-282.516	71.054	0.167	-0.172
-281.501	-200.000	-0.022	-0.407
-280.486	-6.674	-0.241	-0.163
-279.472	800.000	-0.079	0.251
-278.457	-107.930	-0.056	-0.012
-277.443	-41.142	0.364	0.187
-276.428	800.000	-0.037	0.104
-275.413	-119.743	-0.237	0.041
-274.399	206.378	0.145	0.224
-273.384	617.369	0.190	0.474
-272.370	12.293	-0.248	-0.190
-271.355	130.081	0.133	0.169
-270.340	46.905	0.217	-0.201
-269.326	-200.000	-0.055	0.330
-268.311	-154.979	0.352	-0.023
-267.297	-31.626	0.188	0.105
-266.282	-200.000	-0.033	0.256
-265.267	-66.624	-0.191	-0.075
-264.253	44.574	0.095	-0.087
-263.238	-120.381	-0.317	0.054
-262.224	39.158	-0.098	0.087
-261.209	800.000	0.083	0.321
-260.195	-83.070	-0.223	0.071
-259.180	19.732	0.132	-0.105
-258.165	642.131	-0.022	0.055
-257.151	-200.000	0.007	-0.298
-256.136	-200.000	-0.082	-0.402
-255.122	-200.000	-0.010	-0.057
-254.107	-162.297	0.198	0.010
-253.092	-105.158	-0.176	0.040
-252.078	-61.120	-0.320	-0.134
-251.063	-23.351	-0.173	0.103
-250.049	-66.027	-0.202	0.080
-249.034	800.000	-0.035	-0.096
-248.019	-142.318	0.241	0.024
-247.005	-56.079	0.374	-0.166
-245.990	-200.000	-0.027	0.185
-244.976	-122.229	-0.322	0.052
-243.961	403.126	0.029	0.060
-242.946	-200.000	0.012	-0.120
-241.932	800.000	-0.077	0.264
-240.917	-17.886	-0.060	-0.037
-239.903	-128.017	0.142	0.020
-238.888	48.919	0.188	-0.175
-237.873	800.000	-0.144	0.404
-236.859	-9.400	0.337	-0.223
-235.844	5.479	0.110	0.081
-234.830	185.251	-0.113	-0.166
-233.815	-200.000	0.012	-0.148
-232.800	-47.818	0.120	0.058
-231.786	800.000	-0.020	0.061
-230.771	-200.000	-0.003	0.050
-229.757	-37.228	-0.204	0.108
-228.742	-110.912	0.167	0.034
-227.727	43.774	-0.058	0.053
-226.713	800.000	0.051	0.216
-225.698	-163.032	0.105	0.005
-224.684	-200.000	-0.001	0.086
-223.669	41.387	-0.219	0.197
-222.655	564.413	0.039	-0.095
-221.640	-29.218	-0.342	0.194
-220.625	-193.060	0.248	0.002
-219.611	-200.000	-0.061	-0.463
-218.596	-130.568	0.142	0.019
-217.582	77.360	0.266	0.280
-216.567	-111.728	0.173	0.035
-215.552	-72.925	-0.186	0.068
-214.538	800.000	-0.037	0.145
-213.523	-134.639	0.082	-0.010
-212.509	135.329	-0.176	0.227
-211.494	43.680	-0.078	-0.071
-210.479	-69.964	-0.220	0.083
-209.465	-31.454	-0.123	0.068
-208.450	-200.000	0.017	-0.075
-207.436	-9.536	0.452	-0.299
-206.421	57.399	-0.073	-0.070
-205.406	-86.400	0.162	-0.049
-204.392	800.000	0.068	0.227
-203.377	164.162	-0.089	-0.124
-202.363	-148.029	-0.406	-0.033
-201.348	-79.998	0.197	-0.066
-200.333	-200.000	-0.000	-0.113
-199.319	107.104	-0.046	0.054
-198.304	44.274	-0.151	0.137
-197.290	-33.093	0.122	-0.067
-196.275	-18.077	0.193	-0.120
-195.260	137.341	-0.027	0.034
-194.246	-200.000	0.050	0.229
-193.231	205.581	0.145	-0.223
-192.217	-200.000	-0.030	0.189
-191.202	-58.400	-0.068	-0.029
-190.187	100.612	-0.080	0.092
-189.173	-135.657	0.347	0.041
-188.158	17.202	0.130	0.102
-187.144	-62.591	0.057	-0.023
-186.129	-165.261	-0.415	-0.018
-185.114	-91.290	0.384	0.109
-184.100	-130.345	0.201	0.027
-183.085	-200.000	0.009	-0.172
-182.071	-166.241	0.068	-0.003
-181.056	154.102	-0.098	0.133
-180.042	-200.000	0.006	0.041
-179.027	-14.314	0.286	0.183
-178.012	-84.922	-0.316	0.098
-176.998	-4.176	0.291	-0.199
-175.983	249.949	-0.029	-0.049
-174.969	-82.111	-0.076	-0.024
-173.954	59.429	-0.204	-0.199
-172.939	116.321	-0.125	0.152
-171.925	-141.904	-0.080	-0.008
-170.910	118.594	0.175	-0.214
-169.896	-54.063	-0.275	0.124
-168.881	-81.065	0.263	0.086
-167.866	800.000	0.069	-0.195
-166.852	-155.718	0.407	-0.026
-165.837	-152.098	0.283	-0.020
-164.823	-200.000	-0.021	-0.124
-163.808	-200.000	0.026	-0.440
-162.793	-133.197	-0.064	-0.008
-161.779	-20.186	0.289	0.176
-160.764	61.624	0.096	-0.094
-159.750	800.000	-0.069	-0.296
-158.735	163.206	0.127	0.176
-157.720	-6.647	-0.164	0.111
-156.706	-26.445	0.125	-0.073
-155.691	-105.415	-0.446	-0.100
-154.677	-5.566	0.034	-0.023
-153.662	800.000	0.060	0.198
-152.647	-200.000	0.003	-0.066
-151.633	139.375	0.134	0.175
-150.618	82.786	0.242	0.260
-149.604	-200.000	0.045	-0.240
-148.589	783.172	0.021	-0.058
-147.574	-129.852	-0.343	0.047
-146.560	800.000	0.058	-0.170
-145.545	-151.850	0.379	-0.027
-144.531	-200.000	0.020	-0.145
-143.516	-200.000	0.033	-0.151
-142.502	-200.000	0.031	0.234
-141.487	-84.411	0.217	0.068
-140.472	199.217	0.119	0.180
-139.458	800.000	0.047	-0.136
-138.443	386.883	0.078	-0.158
-137.429	800.000	0.067	-0.190
-136.414	201.027	0.039	0.059
-135.399	184.805	0.216	-0.316
-134.385	30.028	-0.075	0.064
-133.370	233.669	0.102	0.166
-132.356	-12.905	-0.382	-0.246
-131.341	118.034	0.182	0.221
-130.326	-134.963	-0.280	-0.033
-129.312	758.685	-0.029	-0.077
-128.297	-78.459	0.124	0.042
-127.283	-199.995	0.188	-0.001
-126.268	45.971	-0.090	0.082
-125.253	-84.387	-0.140	-0.044
-124.239	335.935	0.110	-0.211
-123.224	97.309	-0.051	-0.058
-122.210	424.837	-0.160	0.340
-121.195	-133.780	0.119	0.015
-120.180	-200.000	-0.004	-0.197
-119.166	-200.000	-0.034	-0.167
-118.151	152.245	-0.092	-0.124
-117.137	-83.193	0.026	-0.008
-116.122	800.000	-0.061	-0.203
-115.107	800.000	-0.049	-0.161
-114.093	-122.234	-0.174	0.028
-113.078	800.000	0.030	0.086
-112.064	689.189	0.061	0.158
-111.049	-148.757	0.113	-0.009
-110.034	-26.870	-0.192	-0.111
-109.020	231.770	0.135	-0.218
-108.005	-108.032	0.154	-0.033
-106.991	125.712	0.160	-0.199
-105.976	800.000	0.051	-0.201
-104.962	-200.000	-0.000	0.156
-103.947	-30.983	-0.087	-0.048
-102.932	-200.000	-0.035	-0.241
-101.918	-4.351	0.123	0.084
-100.903	-89.728	0.248	0.072
-99.889	-18.408	-0.043	-0.027
-98.874	-200.000	-0.026	0.200
-97.859	-200.000	0.001	0.053
-96.845	800.000	-0.058	-0.216
-95.830	-68.466	0.112	-0.043
-94.816	-57.985	-0.071	-0.031
-93.801	-82.210	0.217	-0.070
-92.786	-172.921	0.309	0.009
-91.772	-42.579	0.120	-0.061
-90.757	800.000	0.083	0.240
-89.743	-64.083	0.075	0.030
-88.728	-200.000	0.001	0.124
-87.713	-200.000	-0.047	0.211
-86.699	-100.981	-0.163	0.040
-85.684	70.352	-0.291	0.297
-84.670	800.000	0.043	0.171
-83.655	237.228	-0.157	0.257
-82.640	546.638	-0.133	0.313
-81.626	30.481	-0.220	0.186
-80.611	-200.000	0.024	-0.135
-79.597	-200.000	0.039	-0.390
-78.582	624.431	0.035	-0.087
-77.567	-113.104	-0.442	0.086
-76.553	800.000	0.064	0.175
-75.538	-99.163	-0.132	0.033
-74.524	24.988	0.116	-0.095
-73.509	17.252	-0.093	0.073
-72.494	22.421	-0.113	0.091
-71.480	359.524	-0.036	-0.072
-70.465	675.591	0.161	-0.413
-69.451	281.454	0.207	-0.366
-68.436	364.890	0.012	0.024
-67.422	-78.911	0.104	0.035
-66.407	-200.000	0.007	0.340
-65.392	800.000	0.060	0.169
-64.378	-59.978	0.107	-0.045
-63.363	376.126	0.122	-0.246
-62.349	35.802	0.289	-0.250
-61.334	-14.413	-1.169	-0.742
-60.319	800.000	0.208	0.601
-59.305	520.049	-0.314	-0.724
-58.290	66.739	0.911	0.913
-57.276	736.010	0.741	1.955
-56.261	-200.000	97.810	548.967
-55.246	589.554	1397.414	3393.919
-54.232	182.989	2640.481	3840.511
-53.217	112.163	2329.058	2773.481
-52.203	43.581	1938.297	1746.395
-51.188	37.375	1722.582	1504.135
-50.173	34.525	1677.095	1442.838
-49.159	51.244	1726.438	1613.967
-48.144	54.442	1742.826	1653.730
-47.130	37.059	1698.929	1480.833
-46.115	34.109	1684.027	1445.413
-45.100	33.982	1678.980	1440.063
-44.086	33.930	1676.634	1437.603
-43.071	33.870	1674.017	1434.845
-42.057	33.852	1671.605	1432.589
-41.042	33.955	1669.120	1431.172
-40.027	33.936	1667.426	1429.525
-39.013	33.914	1665.100	1427.305
-37.998	33.916	1663.647	1426.022
-36.984	33.903	1662.617	1424.986
-35.969	34.054	1660.950	1424.631
-34.954	34.083	1659.221	1423.309
-33.940	34.145	1657.149	1421.937
-32.925	34.118	1655.458	1420.230
-31.911	34.033	1654.433	1418.656
-30.896	34.076	1652.064	1416.887
-29.881	34.049	1650.893	1415.630
-28.867	34.146	1648.739	1414.448
-27.852	34.121	1647.487	1413.129
-26.838	34.052	1645.868	1411.176
-25.823	34.112	1644.388	1410.292
-24.809	34.131	1643.017	1409.200
-23.794	34.108	1641.760	1407.898
-22.779	34.129	1640.509	1406.924
-21.765	34.202	1638.282	1405.500
-20.750	34.079	1636.593	1403.090
-19.736	34.166	1634.979	1402.289
-18.721	34.128	1633.588	1400.758
-17.706	34.238	1632.191	1400.318
-16.692	34.094	1630.401	1397.667
-15.677	34.197	1629.568	1397.656
-14.663	34.208	1627.978	1396.312
-13.648	34.253	1626.425	1395.259
-12.633	34.239	1624.927	1393.811
-11.619	34.092	1623.422	1391.393
-10.604	34.198	1621.453	1390.424
-9.590	34.168	1620.592	1389.409
-8.575	34.192	1619.462	1388.564
-7.560	34.133	1618.370	1387.142
-6.546	34.139	1616.872	1385.844
-5.531	34.160	1615.537	1384.802
-4.517	34.169	1614.510	1383.932
-3.502	34.094	1613.511	1382.472
-2.487	34.173	1611.796	1381.526
-1.473	34.098	1600.367	1371.133
-0.458	31.660	1581.310	1337.364
0.556	26.507	1582.097	1307.255
1.571	24.400	1607.261	1312.450
2.586	23.819	1621.971	1320.029
3.600	20.711	1566.839	1252.711
4.615	10.471	1451.707	1091.918
5.629	1.774	1382.722	983.941
6.644	0.245	1374.311	968.049
7.659	0.096	1372.606	965.806
8.673	0.007	1372.105	964.801
9.688	0.032	1369.228	962.851
10.702	-0.163	1366.871	959.864
11.717	3.095	1374.453	986.015
12.731	13.262	1393.526	1065.426
13.746	21.228	1407.774	1127.878
14.761	23.002	1409.066	1140.272
15.775	23.209	1409.011	1141.460
16.790	23.281	1408.423	1141.347
17.804	23.381	1407.543	1141.179
18.819	23.595	1407.097	1142.090
19.834	23.608	1406.618	1141.687
20.848	23.599	1406.673	1141.571
21.863	23.580	1405.262	1140.205
22.877	23.631	1404.191	1139.558
23.892	23.584	1403.290	1138.429
24.907	23.497	1403.127	1137.634
25.921	23.646	1401.519	1137.188
26.936	23.677	1400.428	1136.398
27.950	23.583	1399.848	1135.225
28.965	23.523	1398.592	1133.725
29.980	23.580	1397.368	1132.996
30.994	23.598	1395.831	1131.761
32.009	23.608	1394.496	1130.642
33.023	23.544	1393.467	1129.304
34.038	23.539	1392.498	1128.384
35.053	23.585	1391.178	1127.508
36.067	23.598	1390.092	1126.614
37.082	23.547	1389.509	1125.712
38.096	23.565	1388.340	1124.786
39.111	23.656	1387.626	1124.682
40.126	23.528	1386.863	1123.153
41.140	23.566	1386.689	1123.153
42.155	23.529	1386.101	1122.345
43.169	23.569	1386.172	1122.557
44.184	23.550	1385.935	1122.140
45.199	23.631	1385.240	1121.996
46.213	23.555	1385.055	1121.265
47.228	23.573	1383.945	1120.379
48.242	23.577	1382.175	1118.872
49.257	23.533	1381.257	1117.755
50.271	23.503	1380.104	1116.534
51.286	23.476	1378.382	1114.869
52.301	23.573	1377.225	1114.449
53.315	23.567	1376.562	1113.773
54.330	23.505	1375.733	1112.618
55.344	23.604	1374.214	1111.910
56.359	23.689	1373.040	1111.393
57.374	23.464	1372.602	1109.533
58.388	23.495	1371.931	1109.082
59.403	23.383	1371.956	1108.308
60.417	23.579	1370.837	1108.530
61.432	23.528	1369.982	1107.424
62.447	23.497	1369.494	1106.734
63.461	23.512	1368.002	1105.523
64.476	23.689	1366.892	1105.632
65.490	23.693	1365.349	1104.310
66.505	23.539	1364.256	1102.374
67.520	23.524	1363.146	1101.283
68.534	23.622	1362.132	1100.978
69.549	23.526	1361.476	1099.751
70.563	23.556	1360.171	1098.786
71.578	23.608	1359.125	1098.170
72.593	23.582	1358.023	1097.018
73.607	23.556	1357.739	1096.534
74.622	23.645	1356.704	1096.151
75.636	23.542	1356.546	1095.287
76.651	23.622	1355.422	1094.775
77.666	23.591	1354.785	1093.977
78.680	23.606	1354.309	1093.586
79.695	23.629	1353.785	1093.205
80.709	23.625	1352.657	1092.173
81.724	23.579	1351.795	1091.100
82.739	23.665	1350.993	1090.882
83.753	23.660	1349.630	1089.655
84.768	23.615	1348.527	1088.392
85.782	23.575	1348.125	1087.725
86.797	23.646	1346.701	1086.918
87.812	23.614	1345.271	1085.474
88.826	23.642	1344.311	1084.770
89.841	23.697	1343.338	1084.226
90.855	23.694	1342.424	1083.374
91.870	23.602	1341.810	1082.219
92.884	23.604	1340.974	1081.463
93.899	23.670	1339.331	1080.446
94.914	23.624	1339.292	1080.038
95.928	23.685	1338.352	1079.553
96.943	23.667	1337.413	1078.592
97.957	23.744	1336.565	1078.283
98.972	23.616	1335.846	1076.829
99.987	23.576	1335.019	1075.824
101.001	23.631	1333.616	1074.934
102.016	23.551	1332.564	1073.507
103.030	23.601	1332.126	1073.362
104.045	23.586	1331.201	1072.429
105.060	23.680	1330.334	1072.204
106.074	23.734	1329.191	1071.510
107.089	23.674	1328.298	1070.335
108.103	23.658	1327.014	1069.108
109.118	23.683	1326.171	1068.485
110.133	23.633	1324.892	1067.064
111.147	23.680	1323.865	1066.423
112.162	23.727	1322.802	1065.753
113.176	23.748	1321.559	1064.783
114.191	23.759	1320.639	1064.014
115.206	23.725	1319.626	1062.904
116.220	23.645	1318.752	1061.624
117.235	23.736	1317.539	1061.097
118.249	23.693	1317.006	1060.320
119.264	23.709	1315.937	1059.456
120.279	23.656	1315.307	1058.541
121.293	23.718	1314.396	1058.084
122.308	23.788	1313.566	1057.737
123.322	23.711	1312.589	1056.403
124.337	23.721	1311.737	1055.679
125.352	23.804	1310.440	1055.036
126.366	23.833	1309.720	1054.538
127.381	23.739	1308.798	1053.141
128.395	23.789	1307.708	1052.468
129.410	23.851	1306.687	1051.920
130.424	23.720	1306.639	1051.013
131.439	23.758	1305.425	1050.169
132.454	23.688	1304.995	1049.317
133.468	23.740	1304.131	1048.833
134.483	23.716	1303.561	1048.143
135.497	23.702	1302.729	1047.301
136.512	23.706	1301.392	1046.152
137.527	23.871	1300.269	1046.132
138.541	23.714	1298.955	1044.061
139.556	23.694	1297.430	1042.624
140.570	23.774	1296.920	1042.591
141.585	23.655	1296.204	1041.221
142.600	23.697	1294.532	1040.033
143.614	23.732	1293.834	1039.587
144.629	23.658	1292.852	1038.273
145.643	23.592	1291.999	1037.109
146.658	23.685	1290.509	1036.364
147.673	23.603	1289.642	1035.102
148.687	23.740	1288.622	1034.986
149.702	23.606	1287.414	1033.144
150.716	23.647	1286.474	1032.540
151.731	23.752	1285.604	1032.362
152.746	23.700	1284.506	1031.086
153.760	23.720	1283.660	1030.428
154.775	23.624	1283.192	1029.405
155.789	23.749	1281.587	1028.750
156.804	23.799	1280.671	1028.217
157.819	23.724	1279.470	1026.726
158.833	23.773	1279.103	1026.626
159.848	23.807	1278.044	1025.879
160.862	23.783	1277.558	1025.261
161.877	23.805	1276.451	1024.407
162.892	23.737	1275.996	1023.563
163.906	23.711	1275.538	1022.950
164.921	23.857	1274.283	1022.693
165.935	23.704	1273.844	1021.371
166.950	23.762	1273.261	1021.147
167.964	23.890	1272.250	1020.984
168.979	23.899	1271.718	1020.517
169.994	23.951	1271.248	1020.345
171.008	23.893	1270.373	1019.221
172.023	23.833	1269.673	1018.228
173.037	23.861	1268.938	1017.705
174.052	23.821	1268.003	1016.637
175.067	23.878	1267.357	1016.354
176.081	23.848	1266.516	1015.419
177.096	23.898	1265.609	1014.891
178.110	23.885	1264.978	1014.221
179.125	23.853	1263.899	1013.083
180.140	24.017	1262.524	1012.826
181.154	23.902	1261.734	1011.447
182.169	23.826	1260.509	1009.944
183.183	23.906	1259.735	1009.688
184.198	23.935	1258.688	1008.924
185.213	23.926	1257.579	1007.897
186.227	23.918	1256.797	1007.131
187.242	24.011	1256.009	1006.937
188.256	23.908	1255.157	1005.582
189.271	23.918	1254.163	1004.756
190.286	24.009	1253.564	1004.701
191.300	23.909	1253.036	1003.626
192.315	23.949	1252.398	1003.250
193.329	23.903	1252.202	1002.747
194.344	24.040	1251.443	1002.823
195.359	23.945	1250.926	1001.783
196.373	23.928	1249.942	1000.812
197.388	23.978	1250.042	1001.081
198.402	23.971	1249.588	1000.590
199.417	23.930	1249.122	999.899
200.432	23.860	1248.955	999.286
201.446	24.016	1247.695	999.061
202.461	23.901	1247.339	998.044
203.475	23.975	1246.807	997.943
204.490	24.064	1244.965	996.881
205.504	23.983	1244.130	995.669
206.519	24.066	1243.522	995.562
207.534	24.028	1242.623	994.537
208.548	24.105	1241.297	993.820
209.563	23.913	1241.333	992.688
210.577	24.037	1239.941	992.177
211.592	23.956	1239.335	991.155
212.607	24.005	1238.900	990.992
213.621	24.046	1237.867	990.307
214.636	23.944	1237.343	989.232
215.650	24.039	1236.270	988.817
216.665	24.157	1234.830	988.228
217.680	24.133	1234.001	987.345
218.694	24.067	1233.527	986.517
219.709	24.051	1232.985	985.906
220.723	24.107	1232.388	985.649
221.738	24.130	1230.840	984.450
222.753	23.931	1230.671	983.128
223.767	23.991	1230.118	982.936
224.782	24.151	1229.512	983.245
225.796	24.143	1229.248	982.904
226.811	24.096	1228.291	981.794
227.826	24.149	1227.828	981.629
228.840	24.138	1227.440	981.170
229.855	24.054	1226.912	980.198
230.869	24.201	1225.856	980.077
231.884	24.105	1225.170	978.911
232.899	24.057	1224.451	977.990
233.913	24.103	1224.069	977.849
234.928	24.226	1223.516	977.994
235.942	24.276	1222.563	977.423
236.957	24.248	1222.178	976.872
237.972	24.212	1221.338	975.922
238.986	24.232	1220.592	975.346
240.001	24.233	1220.250	974.990
241.015	24.210	1219.160	973.909
242.030	24.301	1218.262	973.605
243.045	24.355	1217.584	973.269
244.059	24.263	1216.707	971.982
245.074	24.322	1215.769	971.468
246.088	24.346	1215.209	971.065
247.103	24.336	1214.771	970.573
248.117	24.391	1213.728	969.951
249.132	24.266	1213.418	968.938
250.147	24.393	1212.566	968.866
251.161	24.462	1211.302	968.141
252.176	24.376	1210.955	967.312
253.190	24.411	1210.227	966.838
254.205	24.463	1209.445	966.406
255.220	24.355	1209.043	965.416
256.234	24.432	1208.903	965.635
257.249	24.360	1208.111	964.529
258.263	24.480	1207.394	964.519
259.278	24.461	1206.961	963.986
260.293	24.487	1206.342	963.545
261.307	24.465	1205.802	962.908
262.322	24.472	1205.267	962.433
263.336	24.358	1204.597	961.200
264.351	24.399	1204.142	960.971
265.366	24.553	1203.069	960.861
266.380	24.511	1202.350	959.974
267.395	24.505	1201.582	959.245
268.409	24.560	1200.880	958.896
269.424	24.462	1200.584	958.050
270.439	24.399	1200.437	957.507
271.453	24.562	1199.531	957.573
272.468	24.522	1198.486	956.442
273.482	24.430	1198.164	955.606
274.497	24.539	1197.517	955.590
275.512	24.559	1197.074	955.257
276.526	24.425	1196.139	953.711
277.541	24.448	1195.483	953.229
278.555	24.620	1194.950	953.636
279.570	24.546	1194.700	952.957
280.585	24.584	1193.327	951.980
281.599	24.581	1192.458	951.186
282.614	24.510	1191.749	950.158
283.628	24.547	1190.878	949.580
284.643	24.560	1190.237	949.053
285.657	24.573	1188.979	948.034
286.672	24.552	1188.078	947.119
287.687	24.567	1187.764	946.864
288.701	24.700	1187.022	946.892
289.716	24.825	1185.872	946.554
290.730	24.678	1185.206	945.160
291.745	24.680	1184.866	944.817
292.760	24.700	1184.363	944.438
293.774	24.729	1183.529	943.843
294.789	24.788	1183.285	943.877
295.803	24.723	1182.698	942.983
296.818	24.744	1181.742	942.245
297.833	24.844	1180.688	941.850
298.847	24.827	1180.399	941.446
299.862	24.831	1179.407	940.592
300.876	24.820	1178.772	939.947
301.891	24.836	1178.300	939.568
302.906	24.850	1177.769	939.137
303.920	24.827	1176.933	938.266
304.935	24.744	1176.519	937.416
305.949	24.814	1175.931	937.231
306.964	24.852	1175.102	936.690
307.979	24.937	1174.428	936.512
308.993	24.964	1173.737	936.021
310.008	24.914	1172.880	934.993
311.022	24.822	1172.379	934.030
312.037	24.905	1171.784	933.906
313.052	24.837	1170.600	932.528
314.066	24.928	1169.312	931.890
315.081	24.913	1169.215	931.653
316.095	24.849	1168.466	930.639
317.110	25.036	1167.872	931.058
318.125	24.923	1167.267	929.906
319.139	25.086	1166.476	930.040
320.154	25.090	1165.490	929.190
321.168	24.992	1165.496	928.608
322.183	25.078	1164.494	928.172
323.197	24.951	1164.266	927.248
324.212	25.002	1163.707	926.986
325.227	25.063	1163.192	926.810
326.241	25.063	1162.727	926.356
327.256	25.007	1162.029	925.428
328.270	25.099	1160.636	924.712
329.285	25.109	1160.317	924.429
330.300	25.039	1159.473	923.312
331.314	25.010	1158.741	922.500
332.329	25.166	1157.973	922.611
333.343	25.127	1157.169	921.684
334.358	25.157	1156.284	921.052
335.373	25.052	1155.823	920.067
336.387	25.186	1154.806	919.865
337.402	25.193	1154.431	919.521
338.416	25.219	1153.557	918.874
339.431	25.228	1153.125	918.495
340.446	25.272	1152.241	917.937
341.460	25.305	1151.401	917.354
342.475	25.370	1150.781	917.111
343.489	25.163	1150.046	915.387
344.504	25.169	1149.603	914.984
345.519	25.185	1148.779	914.327
346.533	25.325	1147.386	913.851
347.548	25.281	1146.802	913.080
348.562	25.346	1145.997	912.688
349.577	25.210	1145.798	911.759
350.592	25.255	1144.790	911.104
351.606	25.217	1144.272	910.417
352.621	25.239	1143.530	909.859
353.635	25.387	1142.927	910.050
354.650	25.377	1142.077	909.243
355.665	25.357	1141.841	908.872
356.679	25.353	1141.325	908.363
357.694	25.458	1140.507	908.162
358.708	25.469	1139.967	907.705
359.723	25.385	1139.146	906.549
360.738	25.391	1138.210	905.751
361.752	25.347	1138.120	905.379
362.767	25.595	1137.321	905.913
363.781	25.428	1137.125	904.837
364.796	25.492	1136.299	904.419
365.810	25.562	1135.502	904.058
366.825	25.657	1134.492	903.651
367.840	25.536	1134.614	903.058
368.854	25.524	1133.863	902.324
369.869	25.564	1133.135	901.864
370.883	25.553	1132.256	901.029
371.898	25.641	1131.641	900.902
372.913	25.658	1131.050	900.437
373.927	25.646	1130.775	900.078
374.942	25.571	1130.521	899.417
375.956	25.638	1129.810	899.109
376.971	25.625	1128.916	898.252
377.986	25.714	1128.390	898.201
379.000	25.744	1127.784	897.790
380.015	25.767	1127.193	897.350
381.029	25.641	1127.017	896.506
382.044	25.701	1126.242	896.109
383.059	25.635	1125.416	895.042
384.073	25.565	1125.183	894.432
385.088	25.598	1124.073	893.630
386.102	25.816	1122.923	893.720
387.117	25.636	1122.282	892.238
388.132	25.787	1121.432	892.231
389.146	25.792	1120.719	891.613
390.161	25.741	1119.803	890.554
391.175	25.778	1119.504	890.416
392.190	25.730	1118.850	889.579
393.205	25.667	1118.269	888.729
394.219	25.759	1117.170	888.234
395.234	25.745	1116.502	887.550
396.248	25.866	1115.843	887.547
397.263	25.871	1114.920	886.760
398.278	25.911	1114.146	886.263
399.292	25.960	1113.453	885.874
400.307	25.969	1112.940	885.429
401.321	25.897	1112.601	884.730
402.336	25.860	1111.722	883.770
403.350	25.907	1110.783	883.174
404.365	26.001	1110.246	883.128
405.380	26.006	1109.627	882.584
406.394	25.999	1108.733	881.761
407.409	25.976	1108.407	881.309
408.423	26.140	1107.284	881.140
409.438	25.952	1106.816	879.772
410.453	25.982	1106.127	879.293
411.467	25.963	1105.592	878.696
412.482	26.041	1104.865	878.423
413.496	26.040	1104.169	877.785
414.511	26.157	1103.540	877.776
415.526	26.038	1103.018	876.706
416.540	26.013	1102.430	876.042
417.555	26.115	1101.927	876.060
418.569	26.076	1101.424	875.393
419.584	26.106	1100.952	875.083
420.599	26.143	1100.769	875.041
421.613	146.357	1402.887	1793.302
422.628	135.733	1446.895	1793.418
