DTS Sentinel unit serial number:	SN413079Multiplexer serial number:	ORYXHardware model number:	OX4-SRSoftware version number:	ORYX F/W v4.00 Oryx Data Collector v3.7.2.0data status	okinstallation	princeton_trtdifferential loss correction	single-endedforward channel	channel 2reverse channel	N/Adate	2019/09/18time	21:59:34forward acquisition time	60.00reverse acquisition time	0.00gamma	496.2192k internal	0.2348k external	0.2348temperature offset calibration	1.0018default loss term (dB/km)	0.3790temperature slope calibration	1.0000multiplexer offset coefficient	1.0000multiplexer slope coefficient	1.0000fibre end	0.00T internal ref (°C)	24.61T ext. ref 1 (°C)	0.81T ext. ref 2 (°C)	18.28length (m)	temperature (°C)	Stokes	anti-Stokes-747.200	-200.000	0.029	0.223
-746.185	137.062	0.033	-0.043
-745.171	800.000	-0.041	-0.138
-744.156	473.104	-0.236	0.531
-743.142	139.403	0.101	-0.133
-742.127	-86.436	-0.124	-0.038
-741.112	132.632	0.186	0.239
-740.098	-38.336	-0.350	0.185
-739.083	52.146	0.400	0.381
-738.069	-152.254	-0.098	-0.007
-737.054	-141.448	0.151	-0.015
-736.039	-25.928	-0.319	-0.188
-735.025	-50.559	0.279	-0.132
-734.010	-16.960	0.195	0.123
-732.996	-160.345	-0.317	-0.017
-731.981	285.483	-0.133	0.240
-730.966	421.778	0.097	0.207
-729.952	-117.006	0.233	0.043
-728.937	-68.767	-0.191	0.074
-727.923	79.057	-0.160	-0.171
-726.908	298.418	-0.141	-0.259
-725.894	-96.552	-0.215	0.057
-724.879	281.894	0.011	0.020
-723.864	31.367	0.077	-0.066
-722.850	800.000	0.061	0.174
-721.835	-200.000	-0.009	-0.045
-720.821	94.639	-0.080	0.091
-719.806	-147.192	-0.232	0.020
-718.791	-46.730	-0.228	-0.111
-717.777	125.353	0.021	0.027
-716.762	-200.000	0.016	0.082
-715.748	-160.152	-0.126	0.007
-714.733	-116.473	-0.115	0.021
-713.718	-90.565	0.242	-0.070
-712.704	800.000	0.038	-0.153
-711.689	-54.695	0.159	-0.072
-710.675	-31.924	0.082	0.046
-709.660	-97.755	0.134	-0.035
-708.645	-14.304	-0.187	0.120
-707.631	-52.496	0.263	-0.121
-706.616	51.467	0.101	-0.096
-705.602	652.246	-0.091	-0.233
-704.587	-200.000	-0.013	-0.152
-703.572	34.845	0.195	-0.170
-702.558	-192.364	0.333	-0.003
-701.543	-12.008	0.474	-0.310
-700.529	-101.372	-0.236	0.058
-699.514	-200.000	-0.025	0.187
-698.499	229.341	0.158	0.258
-697.485	-33.821	-0.071	-0.039
-696.470	-158.918	0.363	0.021
-695.456	12.575	0.106	0.082
-694.441	-200.000	-0.022	-0.146
-693.426	-114.107	-0.094	-0.018
-692.412	424.634	-0.029	-0.063
-691.397	-149.957	-0.170	-0.013
-690.383	-52.965	-0.246	-0.113
-689.368	101.391	0.095	0.110
-688.354	158.398	-0.130	-0.180
-687.339	461.518	-0.034	0.075
-686.324	-45.208	0.195	-0.097
-685.310	-111.542	-0.167	0.034
-684.295	-200.000	0.017	0.156
-683.281	-200.000	-0.003	0.083
-682.266	-29.296	0.272	-0.155
-681.251	-200.000	-0.019	-0.093
-680.237	-102.020	0.231	0.056
-679.222	-74.574	0.295	-0.106
-678.208	-117.949	0.292	-0.052
-677.193	-200.000	-0.032	0.149
-676.178	231.704	0.144	0.235
-675.164	-200.000	0.021	-0.129
-674.149	92.689	0.153	0.172
-673.135	160.029	-0.075	-0.105
-672.120	-85.527	-0.057	0.018
-671.105	101.824	-0.109	-0.127
-670.091	608.636	0.079	-0.196
-669.076	-15.736	-0.166	0.106
-668.062	800.000	-0.055	0.199
-667.047	800.000	0.092	-0.273
-666.032	-166.580	0.261	-0.011
-665.018	379.485	0.113	-0.230
-664.003	264.113	0.156	-0.271
-662.989	106.881	0.222	0.262
-661.974	-200.000	0.009	0.277
-660.959	800.000	-0.114	0.344
-659.945	-121.424	-0.085	-0.014
-658.930	-66.123	0.133	0.053
-657.916	-155.221	0.210	-0.014
-656.901	-35.442	-0.343	0.186
-655.886	-131.846	-0.149	-0.019
-654.872	18.976	-0.156	-0.124
-653.857	480.498	-0.058	-0.132
-652.843	31.195	-0.235	-0.201
-651.828	-0.670	0.470	-0.332
-650.814	-81.629	0.108	0.035
-649.799	800.000	-0.037	-0.141
-648.784	673.933	0.096	-0.248
-647.770	-47.767	0.353	-0.171
-646.755	-155.012	-0.354	-0.023
-645.741	-200.000	-0.006	0.112
-644.726	800.000	-0.043	-0.184
-643.711	120.691	-0.034	-0.042
-642.697	-114.813	0.332	0.063
-641.682	-60.575	-0.194	0.082
-640.668	232.227	0.238	0.389
-639.653	22.981	0.087	-0.071
-638.638	-147.361	-0.459	-0.039
-637.624	800.000	0.089	-0.321
-636.609	227.885	-0.113	0.184
-635.595	800.000	-0.057	0.216
-634.580	241.224	-0.088	0.146
-633.565	-157.855	-0.093	-0.006
-632.551	800.000	-0.055	0.202
-631.536	800.000	0.112	0.339
-630.522	800.000	0.023	-0.076
-629.507	800.000	-0.031	-0.132
-628.492	107.453	0.078	0.093
-627.478	555.747	0.020	-0.047
-626.463	192.366	0.011	0.016
-625.449	-200.000	-0.012	-0.137
-624.434	-200.000	0.023	0.140
-623.419	-200.000	-0.117	-0.640
-622.405	97.064	-0.114	-0.130
-621.390	-166.146	0.049	0.002
-620.376	129.571	0.146	0.185
-619.361	-200.000	0.003	-0.358
-618.346	-41.757	-0.294	0.150
-617.332	74.154	0.123	0.129
-616.317	-65.379	0.365	-0.146
-615.303	57.010	0.195	0.189
-614.288	-135.396	0.358	-0.043
-613.273	800.000	-0.030	0.092
-612.259	-169.034	0.116	0.004
-611.244	-200.000	-0.068	-0.318
-610.230	28.221	-0.126	0.105
-609.215	-76.879	0.100	-0.035
-608.201	86.094	0.074	-0.081
-607.186	-102.578	-0.553	0.131
-606.171	450.466	-0.179	-0.393
-605.157	169.874	-0.117	-0.166
-604.142	-99.849	-0.134	-0.033
-603.128	-51.067	-0.212	-0.099
-602.113	-28.152	-0.226	0.130
-601.098	209.976	0.221	0.344
-600.084	435.763	-0.071	-0.154
-599.069	186.775	-0.126	-0.187
-598.055	800.000	-0.008	0.027
-597.040	-58.054	-0.268	-0.116
-596.025	504.800	0.187	-0.429
-595.011	449.173	-0.175	-0.384
-593.996	326.650	0.086	-0.163
-592.982	-130.246	-0.404	0.055
-591.967	190.641	-0.100	-0.149
-590.952	265.926	-0.130	-0.225
-589.938	-54.812	0.138	0.062
-588.923	-200.000	-0.027	0.146
-587.909	-164.459	0.164	0.007
-586.894	800.000	-0.099	0.277
-585.879	-17.791	-0.208	-0.130
-584.865	-35.499	0.226	-0.122
-583.850	-10.013	0.226	0.149
-582.836	222.308	0.078	-0.124
-581.821	800.000	-0.106	-0.395
-580.806	800.000	-0.022	0.071
-579.792	-77.283	-0.393	-0.136
-578.777	-167.591	-0.461	0.018
-577.763	-7.532	-0.196	0.132
-576.748	-87.950	0.193	-0.058
-575.733	-200.000	0.009	-0.461
-574.719	103.279	-0.282	-0.329
-573.704	-200.000	-0.003	-0.084
-572.690	-46.302	0.422	-0.206
-571.675	-64.681	0.318	-0.128
-570.661	92.864	-0.058	0.065
-569.646	-200.000	-0.028	-0.265
-568.631	593.240	-0.105	0.258
-567.617	-131.745	-0.321	-0.042
-566.602	130.551	-0.012	-0.016
-565.588	119.906	-0.146	-0.180
-564.573	-100.889	-0.202	0.049
-563.558	458.299	0.076	-0.168
-562.544	70.141	0.162	-0.166
-561.529	800.000	0.131	-0.400
-560.515	-200.000	-0.018	-0.268
-559.500	-200.000	-0.017	0.266
-558.485	100.505	0.224	-0.258
-557.471	-77.989	0.294	0.101
-556.456	-102.684	-0.337	-0.080
-555.442	160.539	0.155	-0.215
-554.427	-80.950	-0.500	-0.164
-553.412	-180.662	-0.109	-0.002
-552.398	-62.153	0.157	0.065
-551.383	8.329	0.213	0.159
-550.369	88.553	0.304	0.335
-549.354	-33.597	-0.290	0.159
-548.339	800.000	-0.104	-0.365
-547.325	766.141	-0.064	-0.173
-546.310	-109.451	0.086	-0.018
-545.296	-57.225	-0.135	0.059
-544.281	53.250	0.055	0.052
-543.266	-41.414	0.312	0.159
-542.252	-200.000	0.037	-0.192
-541.237	-39.760	0.232	0.120
-540.223	73.100	-0.104	-0.108
-539.208	335.933	-0.126	-0.242
-538.193	-76.397	-0.311	0.108
-537.179	210.991	-0.112	0.174
-536.164	1.532	0.096	0.069
-535.150	-200.000	0.006	0.297
-534.135	-200.000	0.037	0.426
-533.121	-82.172	0.106	0.034
-532.106	-146.709	-0.396	0.034
-531.091	-25.744	-0.319	-0.186
-530.077	-200.000	0.014	-0.200
-529.062	42.067	-0.089	-0.080
-528.048	-46.524	0.557	-0.271
-527.033	-103.793	-0.349	0.081
-526.018	-46.549	-0.129	-0.063
-525.004	325.611	-0.133	-0.253
-523.989	800.000	-0.007	-0.027
-522.975	84.147	-0.075	0.082
-521.960	-200.000	0.010	0.177
-520.945	800.000	-0.058	-0.248
-519.931	800.000	0.051	0.197
-518.916	193.198	-0.069	-0.103
-517.902	800.000	0.078	0.275
-516.887	-42.933	0.215	0.108
-515.872	113.256	-0.200	-0.241
-514.858	-200.000	-0.011	0.127
-513.843	74.341	0.528	0.550
-512.829	-200.000	-0.019	-0.226
-511.814	117.060	0.212	0.258
-510.799	100.244	0.068	-0.078
-509.785	-99.421	0.422	0.105
-508.770	-200.000	0.005	0.062
-507.756	-80.157	0.179	-0.059
-506.741	800.000	-0.086	0.272
-505.726	-33.088	0.131	-0.072
-504.712	-54.561	-0.083	-0.037
-503.697	-60.069	0.351	-0.148
-502.683	-130.673	0.043	0.006
-501.668	-108.985	0.302	-0.064
-500.653	174.482	0.092	0.131
-499.639	38.082	-0.188	0.166
-498.624	-200.000	0.001	0.140
-497.610	160.397	-0.106	0.146
-496.595	800.000	-0.013	0.046
-495.581	-75.357	-0.174	-0.061
-494.566	-5.142	0.252	-0.171
-493.551	-48.209	-0.661	0.316
-492.537	-79.634	0.242	0.081
-491.522	-200.000	-0.111	0.497
-490.508	51.627	-0.316	0.297
-489.493	-30.125	-0.351	-0.197
-488.478	-50.616	0.296	0.138
-487.464	800.000	-0.057	-0.220
-486.449	265.346	-0.122	-0.210
-485.435	800.000	-0.104	-0.308
-484.420	426.759	0.063	-0.135
-483.405	652.059	0.062	-0.157
-482.391	-200.000	-0.021	0.247
-481.376	-157.355	-0.410	-0.024
-480.362	-107.288	-0.234	-0.051
-479.347	303.779	-0.043	0.079
-478.332	-200.000	0.059	-0.259
-477.318	6.740	-0.345	-0.254
-476.303	-7.574	0.043	-0.029
-475.289	82.381	-0.052	-0.055
-474.274	159.554	0.134	0.184
-473.259	-200.000	-0.194	-0.001
-472.245	-84.202	-0.557	0.175
-471.230	-85.037	0.291	0.090
-470.216	-115.337	0.098	-0.018
-469.201	661.044	-0.067	-0.170
-468.186	-200.000	0.032	0.164
-467.172	-136.233	0.298	0.034
-466.157	-200.000	0.020	0.164
-465.143	800.000	-0.041	-0.166
-464.128	800.000	-0.045	0.153
-463.113	119.428	0.194	0.237
-462.099	800.000	-0.069	0.273
-461.084	-33.218	0.254	-0.139
-460.070	-4.458	0.328	-0.224
-459.055	-71.423	0.248	0.092
-458.040	571.216	0.057	-0.136
-457.026	-200.000	-0.045	0.194
-456.011	-90.723	0.188	0.054
-454.997	373.032	-0.133	-0.266
-453.982	-42.451	0.099	0.050
-452.968	-83.410	0.210	0.066
-451.953	-56.973	-0.072	0.031
-450.938	259.117	0.129	0.220
-449.924	-200.000	-0.018	0.238
-448.909	800.000	0.036	0.128
-447.895	-27.681	-0.228	0.131
-446.880	-92.637	-0.324	-0.090
-445.865	-141.457	-0.282	0.028
-444.851	-90.975	-0.098	0.028
-443.836	-20.877	-0.201	0.121
-442.822	-177.654	0.205	-0.005
-441.807	686.598	-0.088	0.226
-440.792	320.161	-0.023	0.043
-439.778	511.404	-0.027	0.063
-438.763	-200.000	-0.004	-0.384
-437.749	18.269	0.194	-0.153
-436.734	-88.302	0.639	0.189
-435.719	121.965	0.156	-0.193
-434.705	-27.652	0.232	0.133
-433.690	204.865	0.193	-0.295
-432.676	-14.885	0.150	0.095
-431.661	-108.381	0.392	0.083
-430.646	-54.877	0.173	0.077
-429.632	2.446	-0.261	-0.186
-428.617	190.775	0.233	-0.346
-427.603	482.899	0.107	0.239
-426.588	-16.484	0.037	0.023
-425.573	-200.000	0.004	0.056
-424.559	411.935	-0.054	0.112
-423.544	79.301	-0.136	0.144
-422.530	-147.327	0.163	-0.014
-421.515	800.000	0.065	-0.218
-420.500	-200.000	0.003	-0.066
-419.486	244.130	-0.158	0.261
-418.471	-16.615	-0.205	0.128
-417.457	-200.000	-0.016	0.206
-416.442	3.954	0.219	-0.158
-415.428	-21.260	0.055	0.033
-414.413	-200.000	0.057	-0.248
-413.398	-11.928	-0.166	0.108
-412.384	114.914	-0.158	0.191
-411.369	-87.865	-0.323	0.096
-410.355	155.466	-0.177	0.240
-409.340	-200.000	0.034	0.160
-408.325	-22.882	0.058	-0.034
-407.311	800.000	0.047	0.142
-406.296	-200.000	0.007	0.107
-405.282	-200.000	-0.054	-0.326
-404.267	-200.000	0.020	0.200
-403.252	-60.402	0.181	0.076
-402.238	82.813	0.075	0.081
-401.223	-59.215	-0.187	-0.080
-400.209	-200.000	0.048	0.259
-399.194	15.538	0.166	0.128
-398.179	166.002	-0.139	-0.194
-397.165	26.268	0.241	-0.199
-396.150	-200.000	-0.003	0.186
-395.136	69.139	0.264	-0.267
-394.121	140.129	0.048	-0.062
-393.106	580.756	0.105	-0.254
-392.092	800.000	0.051	0.205
-391.077	396.327	0.059	0.121
-390.063	213.908	-0.025	0.039
-389.048	-171.402	0.072	-0.002
-388.033	14.131	-0.117	0.090
-387.019	670.611	0.036	0.091
-386.004	30.456	-0.203	0.171
-384.990	-200.000	0.011	-0.382
-383.975	-27.745	-0.177	-0.101
-382.960	800.000	-0.053	-0.191
-381.946	687.270	0.053	0.137
-380.931	800.000	-0.014	-0.058
-379.917	226.601	0.247	0.395
-378.902	749.979	-0.062	0.164
-377.888	-53.837	0.372	0.167
-376.873	800.000	0.065	0.230
-375.858	-80.365	-0.027	-0.009
-374.844	352.846	-0.086	-0.169
-373.829	800.000	0.154	0.454
-372.815	117.440	0.278	0.337
-371.800	197.120	-0.125	0.187
-370.785	507.801	0.085	0.195
-369.771	-68.716	0.035	0.013
-368.756	48.779	0.183	-0.169
-367.742	-196.945	0.257	-0.002
-366.727	718.262	0.141	-0.369
-365.712	162.179	-0.037	-0.051
-364.698	44.104	0.046	-0.041
-363.683	-81.710	-0.243	0.079
-362.669	800.000	-0.048	0.168
-361.654	-87.138	-0.205	-0.061
-360.639	134.169	0.098	0.126
-359.625	88.557	-0.054	0.059
-358.610	-57.965	0.305	0.131
-357.596	-98.811	-0.177	0.044
-356.581	800.000	-0.026	-0.105
-355.566	214.192	-0.079	0.124
-354.552	-200.000	0.052	-0.428
-353.537	607.475	-0.099	0.242
-352.523	134.625	0.103	-0.131
-351.508	552.215	-0.067	-0.158
-350.493	-200.000	-0.038	0.203
-349.479	-137.592	-0.273	-0.030
-348.464	101.928	0.170	-0.195
-347.450	-108.354	0.368	-0.078
-346.435	-200.000	0.031	-0.284
-345.420	800.000	-0.045	-0.133
-344.406	75.455	0.124	0.129
-343.391	145.386	0.094	0.124
-342.377	76.291	-0.039	0.041
-341.362	712.719	0.066	-0.172
-340.348	465.776	-0.034	-0.076
-339.333	-12.681	0.098	0.063
-338.318	-121.785	0.165	-0.027
-337.304	788.547	0.121	-0.328
-336.289	-25.794	-0.202	-0.117
-335.275	800.000	0.102	-0.279
-334.260	-200.000	0.007	-0.087
-333.245	62.872	-0.091	0.089
-332.231	12.147	-0.153	0.116
-331.216	-186.364	0.263	-0.004
-330.202	66.804	0.011	0.011
-329.187	61.660	0.073	0.071
-328.172	224.747	-0.097	0.154
-327.158	102.292	0.043	0.050
-326.143	-56.589	-0.028	0.012
-325.129	136.401	0.140	-0.180
-324.114	800.000	-0.045	0.175
-323.099	-200.000	-0.063	-0.347
-322.085	-80.563	-0.050	0.016
-321.070	264.322	-0.060	-0.102
-320.056	800.000	-0.111	-0.339
-319.041	26.641	0.202	-0.166
-318.026	138.255	-0.072	-0.093
-317.012	50.434	0.130	-0.121
-315.997	55.178	-0.065	-0.062
-314.983	45.321	-0.147	-0.133
-313.968	249.050	-0.085	-0.142
-312.953	57.961	-0.291	-0.280
-311.939	-184.345	-0.295	0.005
-310.924	-72.300	0.419	0.152
-309.910	140.254	-0.216	0.280
-308.895	-85.539	-0.175	0.054
-307.880	165.924	-0.074	0.102
-306.866	-200.000	0.020	0.102
-305.851	-56.851	0.034	-0.015
-304.837	-200.000	0.009	0.321
-303.822	-23.592	-0.312	0.184
-302.807	652.094	0.111	0.279
-301.793	240.457	0.147	0.240
-300.778	188.305	0.087	0.128
-299.764	-4.320	0.038	-0.026
-298.749	800.000	-0.043	0.167
-297.735	-50.321	-0.306	0.142
-296.720	61.126	-0.212	-0.206
-295.705	-200.000	0.030	-0.187
-294.691	800.000	0.085	-0.257
-293.676	-102.158	-0.157	-0.037
-292.662	0.337	-0.150	-0.105
-291.647	-100.551	0.090	0.022
-290.632	800.000	-0.111	0.362
-289.618	-200.000	-0.072	-0.325
-288.603	-26.741	-0.208	0.120
-287.589	-200.000	-0.011	0.477
-286.574	-114.694	0.138	-0.026
-285.559	579.212	0.053	-0.128
-284.545	96.058	0.116	0.131
-283.530	-200.000	0.059	-0.256
-282.516	800.000	0.082	-0.281
-281.501	-82.600	-0.145	0.046
-280.486	143.985	0.089	-0.116
-279.472	-153.568	-0.238	0.016
-278.457	20.756	-0.284	0.226
-277.443	80.356	-0.221	-0.233
-276.428	241.724	-0.037	-0.060
-275.413	-53.127	-0.218	0.098
-274.399	-112.610	-0.072	-0.014
-273.384	-200.000	-0.003	-0.506
-272.370	-200.000	-0.026	-0.394
-271.355	157.192	0.124	-0.168
-270.340	-200.000	0.077	-0.000
-269.326	-119.466	0.280	0.048
-268.311	24.743	-0.239	-0.194
-267.297	-3.644	-0.206	-0.140
-266.282	128.065	-0.072	0.090
-265.267	131.059	-0.175	0.221
-264.253	-33.495	-0.134	-0.072
-263.238	-121.735	0.299	0.048
-262.224	-21.116	0.254	-0.152
-261.209	-7.545	0.163	0.108
-260.195	-62.490	0.181	0.074
-259.180	-200.000	0.031	0.320
-258.165	-165.832	0.334	0.014
-257.151	-14.780	-0.131	-0.082
-256.136	103.166	-0.066	-0.076
-255.122	376.085	0.042	0.083
-254.107	-67.721	-0.132	-0.051
-253.092	423.138	0.024	0.050
-252.078	-27.534	-0.307	0.175
-251.063	-26.619	0.378	-0.217
-250.049	-200.000	-0.024	-0.128
-249.034	65.258	0.116	0.114
-248.019	427.337	0.044	0.093
-247.005	86.675	0.231	0.250
-245.990	-200.000	-0.005	0.121
-244.976	22.268	0.274	-0.219
-243.961	14.388	-0.170	-0.130
-242.946	-82.251	0.039	-0.012
-241.932	-162.864	0.311	-0.015
-240.917	-111.509	-0.257	0.051
-239.903	800.000	0.055	-0.233
-238.888	-84.508	-0.146	0.045
-237.873	-93.352	0.246	-0.067
-236.859	451.051	-0.079	0.171
-235.844	800.000	0.062	-0.217
-234.830	370.963	-0.257	-0.510
-233.815	-94.543	-0.135	-0.036
-232.800	162.892	-0.135	0.186
-231.786	-78.023	-0.284	-0.096
-230.771	-75.842	0.191	0.066
-229.757	-63.788	0.286	-0.115
-228.742	-31.006	-0.053	0.030
-227.727	-89.861	-0.111	0.032
-226.713	-200.000	0.068	0.353
-225.698	-200.000	-0.091	0.402
-224.684	-109.604	0.203	0.042
-223.669	226.633	0.217	0.345
-222.655	-65.112	0.102	-0.040
-221.640	-60.457	0.040	-0.017
-220.625	31.093	0.147	-0.124
-219.611	73.793	0.200	0.205
-218.596	198.794	0.059	0.089
-217.582	226.879	-0.163	0.259
-216.567	-92.185	-0.174	0.048
-215.552	40.759	0.272	-0.240
-214.538	457.026	-0.057	-0.124
-213.523	171.978	0.079	-0.112
-212.509	15.985	0.300	-0.231
-211.494	103.115	0.109	0.126
-210.479	800.000	0.038	0.157
-209.465	-200.000	-0.039	-0.270
-208.450	251.466	0.125	0.208
-207.436	-132.807	0.052	0.007
-206.421	-124.053	0.171	-0.026
-205.406	-200.000	-0.056	0.430
-204.392	800.000	-0.058	-0.184
-203.377	-5.921	0.194	0.130
-202.363	-79.051	0.196	-0.065
-201.348	81.462	-0.111	0.117
-200.333	-200.000	0.028	-0.140
-199.319	-82.315	0.134	0.043
-198.304	-139.155	-0.317	0.034
-197.290	52.760	0.201	-0.188
-196.275	-29.404	0.156	0.087
-195.260	-200.000	0.030	0.244
-194.246	139.975	-0.100	0.129
-193.231	800.000	-0.029	-0.118
-192.217	94.378	-0.378	-0.419
-191.202	112.263	0.240	-0.284
-190.187	98.864	-0.222	-0.251
-189.173	66.618	0.145	-0.144
-188.158	-97.623	-0.101	-0.026
-187.144	260.328	-0.213	-0.360
-186.129	800.000	0.065	-0.241
-185.114	-200.000	0.033	0.201
-184.100	-37.719	-0.155	-0.081
-183.085	-44.839	-0.082	0.040
-182.071	-121.256	-0.050	0.008
-181.056	-108.122	0.169	-0.036
-180.042	-132.474	0.300	-0.038
-179.027	-146.486	0.190	0.016
-178.012	800.000	-0.135	0.416
-176.998	-61.265	-0.501	0.206
-175.983	-92.601	0.378	-0.104
-174.969	-147.576	-0.042	-0.003
-173.954	131.796	0.086	0.109
-172.939	68.400	-0.045	-0.045
-171.925	299.182	0.217	0.391
-170.910	78.715	-0.080	0.083
-169.896	-200.000	0.011	0.185
-168.881	-97.149	-0.229	0.058
-167.866	-19.997	0.174	0.105
-166.852	-22.553	-0.251	0.148
-165.837	142.083	-0.157	-0.203
-164.823	177.236	-0.154	0.219
-163.808	711.186	0.102	0.263
-162.793	-106.846	-0.229	-0.050
-161.779	800.000	0.092	0.372
-160.764	-200.000	-0.000	0.211
-159.750	-84.222	-0.216	0.067
-158.735	188.318	-0.063	-0.092
-157.720	-200.000	-0.003	0.249
-156.706	-81.969	-0.219	-0.070
-155.691	470.951	0.115	0.252
-154.677	87.654	-0.034	-0.036
-153.662	-124.143	-0.088	-0.013
-152.647	-200.000	-0.000	0.156
-151.633	-43.247	-0.140	0.069
-150.618	800.000	0.007	-0.020
-149.604	800.000	0.089	0.289
-148.589	-200.000	-0.052	-0.235
-147.574	16.467	-0.209	-0.161
-146.560	-200.000	0.023	0.165
-145.545	385.534	-0.075	0.152
-144.531	33.310	0.141	-0.119
-143.516	23.840	-0.150	-0.121
-142.502	-138.290	0.095	0.010
-141.487	315.155	-0.019	0.034
-140.472	135.975	0.192	-0.244
-139.458	800.000	-0.060	0.168
-138.443	-0.237	-0.249	-0.173
-137.429	-85.356	0.095	0.029
-136.414	-103.527	0.337	0.077
-135.399	-3.396	-0.253	0.172
-134.385	-200.000	0.005	0.044
-133.370	-66.839	0.183	-0.070
-132.356	-200.000	-0.034	-0.213
-131.341	-141.431	0.459	0.045
-130.326	-61.293	0.242	-0.100
-129.312	302.324	0.233	0.421
-128.297	-200.000	0.029	0.140
-127.283	-75.224	-0.171	0.060
-126.268	17.111	-0.215	0.166
-125.253	-28.366	0.234	-0.132
-124.239	27.540	-0.075	0.062
-123.224	-133.076	0.219	0.027
-122.210	-200.000	0.077	-0.348
-121.195	56.133	-0.279	-0.265
-120.180	-200.000	0.044	0.235
-119.166	-200.000	0.039	0.266
-118.151	-147.180	0.455	-0.038
-117.137	-200.000	0.016	0.081
-116.122	11.319	-0.102	0.076
-115.107	-114.048	-0.219	-0.041
-114.093	-200.000	-0.000	-0.163
-113.078	-33.060	0.131	0.071
-112.064	-200.000	-0.059	-0.260
-111.049	-64.049	0.341	-0.136
-110.034	-200.000	-0.021	-0.462
-109.020	800.000	-0.084	0.229
-108.005	453.508	0.119	0.256
-106.991	-2.533	0.146	0.100
-105.976	-13.807	-0.039	0.024
-104.962	-50.203	0.168	0.077
-103.947	800.000	0.033	0.097
-102.932	-12.824	-0.151	-0.096
-101.918	9.713	-0.171	0.126
-100.903	96.854	-0.044	-0.050
-99.889	-81.723	-0.098	-0.031
-98.874	-200.000	0.049	0.325
-97.859	579.491	-0.145	-0.347
-96.845	283.139	0.180	0.315
-95.830	344.555	0.097	0.186
-94.816	1.462	0.177	-0.124
-93.801	-134.878	-0.112	0.013
-92.786	-95.921	0.192	-0.050
-91.772	-37.130	0.299	0.156
-90.757	-49.506	-0.494	-0.229
-89.743	-94.870	0.064	-0.017
-88.728	-56.121	0.067	0.029
-87.713	92.690	-0.172	-0.190
-86.699	800.000	-0.059	-0.187
-85.684	-172.777	0.313	-0.010
-84.670	50.941	-0.212	0.195
-83.655	780.566	0.038	-0.102
-82.640	58.764	0.120	0.115
-81.626	-200.000	0.004	0.444
-80.611	29.300	0.285	-0.235
-79.597	64.183	0.106	-0.104
-78.582	-51.497	0.101	0.046
-77.567	-123.193	0.365	-0.057
-76.553	13.981	0.412	-0.312
-75.538	19.754	-0.121	0.095
-74.524	-200.000	-0.008	0.038
-73.509	274.675	0.185	-0.319
-72.494	-73.671	0.169	0.060
-71.480	-37.936	-0.149	-0.077
-70.465	12.108	0.263	0.197
-69.451	-200.000	-0.043	-0.190
-68.436	-72.409	0.117	0.042
-67.422	132.915	0.124	-0.156
-66.407	-57.530	-0.290	-0.124
-65.392	12.090	-0.148	0.111
-64.378	-31.115	-0.248	-0.136
-63.363	37.414	0.044	-0.038
-62.349	-153.669	0.042	-0.003
-61.334	124.282	-0.895	-1.095
-60.319	306.534	0.499	0.903
-59.305	-200.000	-0.243	-1.324
-58.290	227.150	0.827	1.308
-57.276	-200.000	0.166	1.563
-56.261	-200.000	120.205	640.649
-55.246	438.914	1528.564	3245.488
-54.232	149.202	2686.443	3536.351
-53.217	93.725	2269.108	2500.678
-52.203	33.629	1887.892	1596.222
-51.188	27.651	1685.661	1380.092
-50.173	25.441	1646.475	1331.596
-49.159	46.183	1712.955	1543.217
-48.144	44.134	1725.285	1538.746
-47.130	27.174	1677.507	1369.605
-46.115	24.729	1662.107	1338.702
-45.100	24.491	1657.199	1332.920
-44.086	24.486	1655.216	1331.229
-43.071	24.456	1653.062	1329.221
-42.057	24.473	1650.174	1326.972
-41.042	24.500	1648.122	1325.474
-40.027	24.515	1646.045	1323.862
-39.013	24.414	1644.663	1321.946
-37.998	24.513	1642.706	1321.053
-36.984	24.463	1641.567	1319.714
-35.969	24.502	1640.330	1318.961
-34.954	24.587	1639.139	1318.579
-33.940	24.623	1636.974	1317.049
-32.925	24.588	1635.578	1315.613
-31.911	24.646	1633.557	1314.365
-30.896	24.523	1631.895	1312.073
-29.881	24.591	1630.672	1311.533
-28.867	24.671	1628.817	1310.573
-27.852	24.633	1627.700	1309.343
-26.838	24.624	1626.208	1308.029
-25.823	24.697	1624.688	1307.289
-24.809	24.680	1623.054	1305.800
-23.794	24.572	1622.248	1304.307
-22.779	24.650	1620.384	1303.329
-21.765	24.581	1618.951	1301.617
-20.750	24.632	1616.946	1300.330
-19.736	24.683	1615.931	1299.831
-18.721	24.755	1614.116	1298.840
-17.706	24.655	1613.278	1297.388
-16.692	24.566	1611.206	1295.026
-15.677	24.570	1610.192	1294.191
-14.663	24.643	1608.964	1293.680
-13.648	24.655	1607.835	1292.805
-12.633	24.639	1606.460	1291.537
-11.619	24.740	1604.017	1290.250
-10.604	24.568	1603.222	1288.314
-9.590	24.643	1601.832	1287.687
-8.575	24.670	1600.589	1286.831
-7.560	24.663	1599.523	1285.878
-6.546	24.688	1598.335	1285.051
-5.531	24.631	1597.614	1284.007
-4.517	24.632	1596.284	1282.899
-3.502	24.592	1595.131	1281.628
-2.487	24.691	1593.477	1280.964
-1.473	24.226	1581.789	1268.208
-0.458	21.139	1563.171	1231.486
0.556	16.430	1564.174	1198.591
1.571	14.071	1587.767	1199.557
2.586	13.870	1600.054	1207.277
3.600	13.213	1547.252	1162.709
4.615	7.683	1442.101	1047.245
5.629	1.971	1382.666	967.832
6.644	0.816	1375.545	955.469
7.659	0.810	1374.465	954.592
8.673	0.823	1373.136	953.672
9.688	0.781	1371.217	951.987
10.702	0.654	1367.666	948.642
11.717	3.460	1371.673	968.990
12.731	10.315	1382.567	1019.898
13.746	15.975	1390.073	1061.088
14.761	17.424	1391.059	1070.876
15.775	16.798	1389.512	1065.655
16.790	15.848	1386.870	1057.566
17.804	15.078	1384.772	1051.040
18.819	14.701	1383.174	1047.368
19.834	14.392	1382.145	1044.562
20.848	14.148	1381.068	1042.129
21.863	13.889	1379.650	1039.345
22.877	13.738	1378.054	1037.105
23.892	13.761	1377.165	1036.489
24.907	13.669	1376.690	1035.462
25.921	13.771	1375.568	1035.165
26.936	13.780	1374.566	1034.373
27.950	13.782	1374.021	1033.888
28.965	13.798	1372.844	1033.007
29.980	13.893	1371.992	1032.869
30.994	13.963	1370.666	1032.215
32.009	13.948	1370.029	1031.551
33.023	13.911	1369.186	1030.590
34.038	13.865	1367.669	1029.076
35.053	13.872	1366.809	1028.382
36.067	13.830	1365.457	1027.010
37.082	13.864	1364.778	1026.620
38.096	13.916	1363.606	1025.970
39.111	13.846	1363.287	1025.207
40.126	13.815	1361.883	1023.866
41.140	13.773	1361.177	1022.987
42.155	13.694	1361.029	1022.302
43.169	13.651	1360.907	1021.854
44.184	13.680	1360.440	1021.592
45.199	13.733	1360.180	1021.630
46.213	13.705	1359.481	1020.840
47.228	13.806	1358.028	1020.285
48.242	13.762	1357.610	1019.608
49.257	13.753	1355.914	1018.186
50.271	13.803	1354.322	1017.211
51.286	13.853	1352.891	1016.353
52.301	13.824	1351.436	1014.988
53.315	13.830	1350.814	1014.471
54.330	13.733	1349.858	1013.073
55.344	13.639	1348.806	1011.615
56.359	13.778	1347.224	1011.190
57.374	13.709	1346.564	1010.186
58.388	13.714	1345.566	1009.376
59.403	13.632	1345.643	1008.846
60.417	13.637	1344.870	1008.209
61.432	13.572	1343.697	1006.842
62.447	13.608	1342.544	1006.106
63.461	13.642	1341.130	1005.168
64.476	13.552	1340.630	1004.159
65.490	13.636	1338.827	1003.227
66.505	13.680	1337.020	1002.051
67.520	13.643	1336.298	1001.197
68.534	13.659	1335.167	1000.358
69.549	13.609	1334.230	999.262
70.563	13.614	1333.131	998.385
71.578	13.713	1331.543	997.698
72.593	13.587	1331.193	996.594
73.607	13.609	1329.923	995.683
74.622	13.543	1329.159	994.632
75.636	13.589	1328.721	994.491
76.651	13.577	1327.557	993.457
77.666	13.598	1327.547	993.488
78.680	13.535	1327.301	992.838
79.695	13.579	1326.086	992.104
80.709	13.650	1324.910	991.566
81.724	13.758	1324.162	991.561
82.739	13.737	1323.320	990.716
83.753	13.777	1321.788	989.723
84.768	13.794	1320.882	989.055
85.782	13.947	1319.744	989.028
86.797	13.760	1318.675	987.028
87.812	13.751	1317.258	985.828
88.826	13.674	1316.286	984.553
89.841	13.696	1315.503	984.010
90.855	13.881	1313.849	983.786
91.870	13.836	1313.572	983.225
92.884	13.798	1312.354	982.001
93.899	13.914	1311.292	981.807
94.914	13.904	1310.749	981.252
95.928	13.919	1309.899	980.618
96.943	13.904	1309.023	979.784
97.957	13.779	1308.379	978.478
98.972	13.896	1306.890	977.971
99.987	13.906	1305.957	977.242
101.001	13.855	1305.164	976.264
102.016	13.729	1304.317	974.804
103.030	13.915	1302.917	974.762
104.045	13.923	1301.896	973.961
105.060	13.830	1301.052	972.697
106.074	13.736	1300.110	971.358
107.089	13.653	1298.980	969.939
108.103	13.694	1297.313	968.848
109.118	13.779	1295.976	968.258
110.133	13.751	1294.796	967.131
111.147	13.740	1293.394	965.932
112.162	13.725	1292.034	964.746
113.176	13.735	1291.353	964.212
114.191	13.767	1290.297	963.521
115.206	13.760	1289.361	962.699
116.220	13.806	1287.482	961.474
117.235	13.688	1286.496	959.971
118.249	13.773	1285.794	959.854
119.264	13.744	1284.468	958.611
120.279	13.813	1282.948	957.788
121.293	13.771	1282.382	957.042
122.308	13.706	1281.500	955.925
123.322	13.758	1280.172	955.146
124.337	13.670	1279.326	953.928
125.352	13.838	1277.679	953.577
126.366	13.803	1276.388	952.332
127.381	13.784	1275.457	951.440
128.395	13.665	1274.233	949.763
129.410	13.764	1273.843	949.953
130.424	13.839	1272.502	949.298
131.439	13.793	1271.867	948.481
132.454	13.834	1270.579	947.668
133.468	13.761	1269.809	946.596
134.483	13.776	1269.651	946.480
135.497	13.875	1267.796	945.575
136.512	13.820	1266.506	944.219
137.527	13.745	1265.288	942.796
138.541	13.794	1263.928	941.981
139.556	13.748	1263.038	940.973
140.570	13.863	1261.448	940.355
141.585	13.904	1260.165	939.548
142.600	13.923	1259.005	938.709
143.614	13.926	1258.575	938.319
144.629	13.932	1257.887	937.757
145.643	14.051	1256.009	936.946
146.658	13.890	1255.033	935.230
147.673	13.981	1253.696	934.665
148.687	13.878	1253.059	933.528
149.702	13.892	1251.329	932.233
150.716	13.908	1250.040	931.282
151.731	13.968	1249.251	930.943
152.746	13.928	1247.889	929.626
153.760	13.969	1246.798	928.958
154.775	14.086	1245.256	928.381
155.789	14.105	1244.329	927.713
156.804	14.029	1243.477	926.571
157.819	14.084	1242.143	925.801
158.833	14.090	1241.733	925.447
159.848	14.167	1240.259	924.694
160.862	14.184	1239.365	924.042
161.877	14.174	1238.098	922.961
162.892	14.038	1237.403	921.608
163.906	14.005	1236.608	920.754
164.921	14.068	1235.647	920.301
165.935	14.137	1234.365	919.649
166.950	14.153	1234.048	919.419
167.964	14.214	1233.192	919.038
168.979	14.152	1232.560	918.143
169.994	14.073	1231.351	916.727
171.008	14.136	1230.853	916.622
172.023	14.224	1229.960	916.357
173.037	14.177	1229.459	915.644
174.052	14.144	1228.543	914.703
175.067	14.278	1226.798	914.056
176.081	14.155	1226.185	912.842
177.096	14.207	1225.141	912.269
178.110	14.252	1223.732	911.388
179.125	14.230	1222.940	910.595
180.140	14.198	1222.179	909.774
181.154	14.231	1220.318	908.486
182.169	14.355	1219.620	908.563
183.183	14.284	1218.652	907.375
184.198	14.358	1216.905	906.396
185.213	14.405	1216.002	905.902
186.227	14.345	1215.190	904.888
187.242	14.436	1214.121	904.507
188.256	14.443	1213.347	903.890
189.271	14.418	1212.435	902.996
190.286	14.334	1211.335	901.638
191.300	14.255	1210.299	900.362
192.315	14.243	1210.060	900.041
193.329	14.324	1209.405	899.913
194.344	14.246	1208.728	898.904
195.359	14.391	1207.770	898.895
196.373	14.400	1207.242	898.475
197.388	14.447	1206.919	898.406
198.402	14.501	1206.394	898.227
199.417	14.549	1205.504	897.744
200.432	14.566	1204.801	897.230
201.446	14.647	1203.874	896.898
202.461	14.566	1203.350	895.994
203.475	14.659	1202.114	895.493
204.490	14.626	1200.792	894.248
205.504	14.531	1199.754	892.889
206.519	14.545	1198.848	892.210
207.534	14.639	1197.066	891.311
208.548	14.662	1196.156	890.678
209.563	14.624	1195.603	889.983
210.577	14.699	1194.533	889.507
211.592	14.674	1193.640	888.626
212.607	14.688	1193.143	888.256
213.621	14.721	1192.143	887.605
214.636	14.789	1191.047	887.074
215.650	14.745	1190.478	886.340
216.665	14.722	1189.442	885.367
217.680	14.882	1188.342	885.316
218.694	14.924	1187.609	884.913
219.709	14.863	1187.031	884.083
220.723	14.890	1185.960	883.349
221.738	14.826	1185.614	882.675
222.753	14.804	1184.723	881.820
223.767	14.833	1183.852	881.244
224.782	14.817	1183.838	881.071
225.796	14.946	1182.806	880.906
226.811	14.991	1182.068	880.514
227.826	15.080	1181.092	880.178
228.840	15.035	1180.251	879.234
229.855	15.033	1179.275	878.423
230.869	15.052	1178.859	878.135
231.884	14.848	1178.380	876.630
232.899	15.049	1177.237	876.753
233.913	14.953	1176.145	875.359
234.928	14.936	1175.776	874.922
235.942	15.030	1174.755	874.572
236.957	14.973	1174.330	873.881
237.972	14.920	1173.720	873.072
238.986	14.981	1173.081	872.842
240.001	15.056	1172.265	872.545
241.015	15.014	1171.300	871.532
242.030	14.985	1170.528	870.731
243.045	15.038	1169.815	870.398
244.059	15.066	1169.123	869.953
245.074	15.070	1168.198	869.208
246.088	15.165	1167.201	868.882
247.103	15.244	1166.180	868.455
248.117	15.182	1165.578	867.610
249.132	15.169	1165.244	867.214
250.147	15.307	1164.195	867.071
251.161	15.321	1163.565	866.599
252.176	15.246	1163.054	865.755
253.190	15.291	1162.226	865.294
254.205	15.325	1161.851	865.114
255.220	15.403	1160.944	864.763
256.234	15.445	1160.674	864.702
257.249	15.439	1159.748	863.904
258.263	15.479	1159.159	863.593
259.278	15.470	1158.646	863.090
260.293	15.583	1157.772	862.942
261.307	15.517	1157.282	862.161
262.322	15.564	1156.475	861.724
263.336	15.681	1155.481	861.508
264.351	15.566	1155.108	860.563
265.366	15.629	1154.514	860.369
266.380	15.791	1153.660	860.483
267.395	15.576	1152.911	858.752
268.409	15.687	1152.209	858.717
269.424	15.563	1152.115	857.940
270.439	15.551	1151.257	857.164
271.453	15.676	1150.632	857.262
272.468	15.604	1149.498	855.970
273.482	15.620	1148.919	855.549
274.497	15.594	1148.211	854.811
275.512	15.581	1147.741	854.319
276.526	15.674	1146.681	853.929
277.541	15.683	1146.141	853.496
278.555	15.655	1145.623	852.890
279.570	15.723	1144.422	852.265
280.585	15.764	1143.825	851.957
281.599	15.768	1143.049	851.321
282.614	15.833	1141.876	850.703
283.628	15.793	1140.827	849.646
284.643	15.935	1139.865	849.566
285.657	15.774	1139.269	848.236
286.672	15.845	1138.076	847.631
287.687	15.953	1136.863	847.194
288.701	15.947	1136.439	846.774
289.716	15.808	1135.974	845.653
290.730	15.972	1135.527	846.070
291.745	15.978	1134.277	845.094
292.760	16.021	1133.369	844.561
293.774	15.975	1133.269	844.182
294.789	15.941	1133.096	843.806
295.803	15.995	1132.442	843.512
296.818	16.006	1131.067	842.470
297.833	16.010	1130.097	841.691
298.847	16.067	1129.637	841.559
299.862	16.082	1128.516	840.725
300.876	16.100	1127.897	840.281
301.891	16.066	1127.616	839.828
302.906	16.139	1126.842	839.539
303.920	16.166	1125.936	838.924
304.935	16.162	1125.470	838.481
305.949	16.269	1124.775	838.420
306.964	16.269	1123.994	837.765
307.979	16.257	1123.094	836.962
308.993	16.355	1122.346	836.816
310.008	16.292	1121.634	835.899
311.022	16.242	1121.159	835.223
312.037	16.278	1119.912	834.400
313.052	16.285	1119.047	833.716
314.066	16.315	1118.339	833.262
315.081	16.181	1117.802	832.125
316.095	16.192	1116.698	831.284
317.110	16.292	1116.045	831.220
318.125	16.209	1115.094	830.026
319.139	16.296	1114.407	829.871
320.154	16.352	1114.051	829.809
321.168	16.217	1113.687	828.802
322.183	16.350	1113.019	828.883
323.197	16.322	1112.163	828.035
324.212	16.195	1111.644	826.953
325.227	16.354	1111.203	827.331
326.241	16.396	1110.172	826.696
327.256	16.341	1109.746	826.035
328.270	16.457	1108.414	825.538
329.285	16.450	1107.533	824.773
330.300	16.328	1107.023	823.727
331.314	16.408	1105.837	823.162
332.329	16.408	1105.111	822.547
333.343	16.549	1103.968	822.307
334.358	16.491	1103.137	821.335
335.373	16.578	1102.458	821.178
336.387	16.452	1102.363	820.424
337.402	16.573	1100.758	819.746
338.416	16.561	1100.395	819.343
339.431	16.612	1100.033	819.250
340.446	16.646	1098.800	818.424
341.460	16.761	1098.239	818.489
342.475	16.756	1097.373	817.746
343.489	16.706	1096.640	816.884
344.504	16.719	1095.737	816.205
345.519	16.749	1095.334	815.976
346.533	16.757	1094.126	815.040
347.548	16.769	1093.950	814.897
348.562	16.775	1092.996	814.141
349.577	16.805	1092.086	813.536
350.592	16.823	1091.050	812.778
351.606	16.838	1090.028	812.018
352.621	16.842	1089.493	811.567
353.635	16.692	1089.256	810.598
354.650	16.826	1088.418	810.545
355.665	16.811	1088.039	810.119
356.679	16.821	1086.729	809.119
357.694	16.838	1086.520	808.973
358.708	16.810	1086.087	808.447
359.723	16.875	1085.512	808.260
360.738	16.843	1084.903	807.578
361.752	16.964	1084.218	807.577
362.767	16.827	1083.881	806.600
363.781	16.958	1083.238	806.674
364.796	16.990	1082.174	805.963
365.810	17.053	1081.686	805.827
366.825	17.089	1081.037	805.444
367.840	17.093	1080.729	805.159
368.854	17.157	1079.733	804.653
369.869	17.217	1078.721	804.109
370.883	17.134	1078.190	803.247
371.898	17.082	1077.726	802.585
372.913	17.246	1076.677	802.508
373.927	17.163	1076.524	801.930
374.942	17.211	1075.798	801.549
375.956	17.182	1075.130	800.842
376.971	17.232	1074.756	800.726
377.986	17.354	1074.003	800.670
379.000	17.299	1073.365	799.865
380.015	17.396	1072.804	799.832
381.029	17.247	1072.708	798.991
382.044	17.404	1071.646	798.866
383.059	17.404	1070.875	798.218
384.073	17.323	1070.178	797.250
385.088	17.451	1069.371	797.176
386.102	17.351	1068.354	795.883
387.117	17.312	1067.730	795.162
388.132	17.381	1066.696	794.643
389.146	17.473	1065.707	794.270
390.161	17.384	1065.158	793.375
391.175	17.373	1064.733	792.935
392.190	17.475	1063.522	792.438
393.205	17.544	1062.693	792.070
394.219	17.593	1061.694	791.483
395.234	17.697	1061.055	791.421
396.248	17.442	1060.156	789.495
397.263	17.406	1059.292	788.617
398.278	17.476	1058.706	788.435
399.292	17.559	1057.702	788.002
400.307	17.665	1056.749	787.711
401.321	17.415	1056.803	786.526
402.336	17.541	1055.901	786.369
403.350	17.549	1055.289	785.878
404.365	17.623	1054.557	785.606
405.380	17.579	1053.515	784.558
406.394	17.615	1053.306	784.497
407.409	17.713	1052.036	783.933
408.423	17.800	1051.106	783.571
409.438	17.776	1050.322	782.809
410.453	17.811	1050.546	783.065
411.467	17.722	1049.374	781.716
412.482	17.738	1049.083	781.504
413.496	17.866	1048.393	781.504
414.511	17.803	1047.535	780.507
415.526	17.956	1046.877	780.649
416.540	17.933	1046.302	780.043
417.555	17.945	1046.070	779.856
418.569	17.832	1045.806	779.075
419.584	17.972	1045.095	779.117
420.599	18.058	1044.459	778.963
421.613	109.526	1328.663	1488.981
422.628	100.732	1370.015	1489.068
