DTS Sentinel unit serial number:	SN413079Multiplexer serial number:	ORYXHardware model number:	OX4-SRSoftware version number:	ORYX F/W v4.00 Oryx Data Collector v3.7.2.0data status	okinstallation	princeton_trtdifferential loss correction	single-endedforward channel	channel 2reverse channel	N/Adate	2019/09/12time	19:40:49forward acquisition time	15.00reverse acquisition time	0.00gamma	496.2192k internal	0.2326k external	0.2326temperature offset calibration	1.0157default loss term (dB/km)	0.3790temperature slope calibration	1.0000multiplexer offset coefficient	1.0000multiplexer slope coefficient	1.0000fibre end	0.00T internal ref (°C)	32.06T ext. ref 1 (°C)	3.39T ext. ref 2 (°C)	26.64length (m)	temperature (°C)	Stokes	anti-Stokes-747.200	219.674	0.217	-0.351
-746.185	-159.171	0.409	-0.023
-745.171	173.102	0.479	-0.696
-744.156	-200.000	0.025	-0.125
-743.142	369.110	0.105	0.214
-742.127	184.884	-0.079	0.119
-741.112	-97.754	0.768	-0.200
-740.098	366.835	0.133	0.270
-739.083	-41.683	0.406	0.210
-738.069	-200.000	0.112	-1.150
-737.054	285.587	-0.063	0.115
-736.039	-102.942	0.199	0.048
-735.025	800.000	-0.104	0.407
-734.010	800.000	-0.099	0.333
-732.996	92.754	0.205	0.233
-731.981	261.424	0.308	0.537
-730.966	-85.659	-0.232	-0.073
-729.952	800.000	0.140	0.454
-728.937	-200.000	0.002	-0.178
-727.923	102.854	0.342	-0.404
-726.908	-61.471	-0.313	-0.133
-725.894	-189.753	0.822	-0.009
-724.879	7.680	0.403	-0.304
-723.864	26.718	0.037	-0.031
-722.850	-134.308	-0.493	-0.061
-721.835	-108.369	1.294	0.281
-720.821	2.574	0.149	-0.109
-719.806	-34.262	-0.312	-0.172
-718.791	137.355	-0.471	0.621
-717.777	-16.610	0.380	-0.243
-716.762	-200.000	0.028	-0.705
-715.748	471.137	-0.098	0.221
-714.733	469.600	-0.450	-1.018
-713.718	800.000	0.154	-0.514
-712.704	800.000	0.142	-0.432
-711.689	-11.713	0.222	-0.147
-710.675	182.130	0.481	-0.713
-709.660	60.959	-0.323	-0.323
-708.645	800.000	0.265	0.883
-707.631	-200.000	0.009	-0.634
-706.616	20.873	0.522	-0.426
-705.602	-57.663	0.518	-0.229
-704.587	-8.682	0.624	-0.422
-703.572	-21.251	0.918	-0.565
-702.558	123.033	0.399	0.503
-701.543	-113.283	0.417	0.083
-700.529	-85.320	-0.198	0.062
-699.514	481.382	-0.126	0.287
-698.499	746.608	-0.044	0.119
-697.485	800.000	0.057	-0.175
-696.470	-6.372	0.406	0.279
-695.456	-80.056	-0.667	-0.225
-694.441	-55.019	-0.681	0.309
-693.426	-102.158	0.549	0.133
-692.412	-56.663	0.443	-0.198
-691.397	322.148	0.068	-0.131
-690.383	-69.098	0.347	0.134
-689.368	78.006	0.296	-0.318
-688.354	800.000	-0.067	-0.268
-687.339	-106.972	-0.403	0.090
-686.324	800.000	0.063	-0.245
-685.310	800.000	-0.211	-0.896
-684.295	-200.000	0.012	0.272
-683.281	17.442	1.150	-0.919
-682.266	-109.682	0.873	0.185
-681.251	94.999	0.204	0.233
-680.237	-83.190	0.797	-0.258
-679.222	-72.766	-0.297	-0.110
-678.208	338.436	0.310	0.607
-677.193	800.000	-0.257	-0.797
-676.178	-200.000	-0.022	0.125
-675.164	-15.265	-0.545	-0.351
-674.149	781.082	0.240	-0.659
-673.135	598.145	0.421	-1.049
-672.120	-7.434	-0.378	0.257
-671.105	-32.974	-0.269	0.150
-670.091	693.222	-0.319	0.841
-669.076	-75.232	0.262	-0.094
-668.062	25.340	0.914	0.764
-667.047	135.020	0.103	0.134
-666.032	-30.176	0.401	-0.229
-665.018	-4.976	-0.183	-0.127
-664.003	141.468	0.168	0.224
-662.989	-144.733	-0.629	0.058
-661.974	-200.000	-0.032	-0.339
-660.959	-151.977	0.800	0.059
-659.945	26.972	0.515	0.434
-658.930	-80.948	0.447	-0.149
-657.916	-111.580	-0.109	-0.022
-656.901	-57.931	0.548	0.241
-655.886	-188.513	0.586	-0.007
-654.872	126.136	-0.075	0.095
-653.857	49.631	0.314	-0.297
-652.843	111.455	0.724	-0.877
-651.828	52.679	0.553	0.531
-650.814	-125.399	0.183	-0.028
-649.799	136.207	0.887	1.162
-648.784	-200.000	0.048	0.611
-647.770	263.001	-0.288	0.502
-646.755	800.000	-0.126	-0.387
-645.741	413.304	-0.062	-0.133
-644.726	658.531	0.234	0.606
-643.711	800.000	-0.170	-0.529
-642.697	77.406	-0.399	-0.426
-641.682	152.681	0.299	0.411
-640.668	-123.710	1.097	0.174
-639.653	800.000	0.203	-0.827
-638.638	-138.377	-0.069	0.008
-637.624	800.000	0.130	-0.370
-636.609	-200.000	0.047	0.342
-635.595	175.700	0.399	-0.581
-634.580	-176.277	-0.628	0.016
-633.565	-89.623	0.234	0.069
-632.551	224.711	0.503	0.817
-631.536	593.478	0.022	-0.056
-630.522	-4.326	-0.676	0.470
-629.507	-43.654	-0.438	0.221
-628.492	-103.398	-0.286	-0.068
-627.478	-98.477	-0.029	0.007
-626.463	800.000	-0.150	-0.625
-625.449	-27.502	-1.023	0.597
-624.434	-200.000	-0.004	0.603
-623.419	-200.000	-0.005	0.073
-622.405	-200.000	-0.035	0.421
-621.390	159.082	-0.086	-0.121
-620.376	10.876	-0.395	-0.303
-619.361	-92.546	0.396	-0.112
-618.346	800.000	-0.100	-0.395
-617.332	800.000	-0.146	-0.609
-616.317	-200.000	0.015	0.197
-615.303	-91.092	-0.359	0.104
-614.288	688.985	-0.340	0.893
-613.273	793.849	-0.100	-0.276
-612.259	62.921	-0.634	0.637
-611.244	-10.327	0.966	-0.643
-610.230	800.000	0.110	-0.427
-609.215	800.000	0.149	-0.588
-608.201	83.690	0.530	-0.580
-607.186	-93.336	0.824	-0.229
-606.171	70.683	-0.782	-0.811
-605.157	-200.000	-0.021	-0.783
-604.142	167.086	0.445	0.633
-603.128	-200.000	0.077	0.612
-602.113	-5.959	0.686	0.471
-601.098	214.225	-0.284	0.451
-600.084	-119.648	-0.239	0.041
-599.069	-200.000	-0.140	-1.007
-598.055	800.000	0.176	-0.563
-597.040	-106.865	0.463	0.103
-596.025	800.000	-0.164	-0.498
-595.011	-200.000	0.429	-0.002
-593.996	187.274	-0.169	0.253
-592.982	205.744	-0.457	0.712
-591.967	62.734	0.287	-0.288
-590.952	-181.036	0.809	0.016
-589.938	65.681	-0.776	-0.788
-588.923	35.270	0.515	-0.452
-587.909	-200.000	-0.049	-0.477
-586.894	-35.266	0.162	0.088
-585.879	393.858	0.206	0.431
-584.865	-112.983	-0.470	0.093
-583.850	-90.492	-0.422	0.122
-582.836	-89.484	-1.020	0.301
-581.821	-46.767	-0.659	-0.323
-580.806	199.314	0.019	0.030
-579.792	-200.000	-0.009	-0.267
-578.777	101.955	-0.298	-0.348
-577.763	328.080	-0.182	-0.351
-576.748	55.191	-0.635	0.615
-575.733	-37.641	-0.647	-0.345
-574.719	-62.321	0.665	0.277
-573.704	-142.951	0.112	0.011
-572.690	-200.000	0.037	1.069
-571.675	25.990	-0.357	-0.298
-570.661	-23.829	-0.205	-0.123
-569.646	-200.000	0.027	0.129
-568.631	-200.000	0.003	0.433
-567.617	-139.616	-1.206	0.129
-566.602	445.661	-0.108	-0.238
-565.588	59.876	-0.725	0.717
-564.573	234.774	-0.170	0.281
-563.558	-37.101	0.783	-0.420
-562.544	-7.396	0.337	0.229
-561.529	-48.496	-0.817	-0.394
-560.515	800.000	-0.051	0.143
-559.500	13.276	-0.540	0.419
-558.485	453.388	-0.210	-0.464
-557.471	-49.294	-0.342	-0.163
-556.456	-89.793	0.256	0.075
-555.442	489.431	0.219	-0.501
-554.427	-33.578	-0.351	-0.194
-553.412	-200.000	0.096	-0.545
-552.398	600.745	0.300	-0.746
-551.383	800.000	0.222	0.624
-550.369	248.323	-0.307	0.519
-549.354	800.000	-0.318	-1.156
-548.339	-19.276	-0.616	-0.383
-547.325	-166.239	-0.574	-0.024
-546.310	281.606	-0.102	-0.183
-545.296	-200.000	-0.034	0.261
-544.281	-106.386	0.526	-0.118
-543.266	37.438	0.686	-0.609
-542.252	800.000	-0.136	-0.465
-541.237	-64.768	0.432	0.175
-540.223	-200.000	0.021	0.206
-539.208	234.197	-0.181	0.299
-538.193	-115.963	0.337	0.063
-537.179	-79.705	0.587	0.198
-536.164	-200.000	-0.006	0.197
-535.150	-46.603	-0.224	0.110
-534.135	-176.460	-0.736	0.019
-533.121	-81.737	-0.597	-0.196
-532.106	38.456	0.435	0.388
-531.091	800.000	-0.058	0.181
-530.077	127.456	0.408	-0.518
-529.062	-200.000	-0.024	0.246
-528.048	-45.111	-0.625	-0.311
-527.033	-105.713	0.147	0.033
-526.018	263.773	-0.383	0.666
-525.004	391.876	0.232	-0.482
-523.989	800.000	-0.136	-0.425
-522.975	-109.465	0.539	-0.114
-521.960	85.344	0.580	0.637
-520.945	-83.574	0.652	-0.208
-519.931	-121.828	-0.863	-0.142
-518.916	-52.836	-1.063	-0.490
-517.902	-200.000	0.126	0.568
-516.887	-58.845	0.264	0.114
-515.872	-134.876	-0.834	-0.101
-514.858	-24.128	0.096	-0.057
-513.843	-200.000	0.077	0.419
-512.829	800.000	0.155	-0.489
-511.814	5.292	0.273	0.201
-510.799	-200.000	0.012	-0.378
-509.785	800.000	0.142	0.504
-508.770	-200.000	-0.165	0.792
-507.756	-200.000	-0.009	-0.301
-506.741	-33.459	-0.718	-0.397
-505.726	358.031	0.098	-0.195
-504.712	-120.594	0.826	-0.140
-503.697	11.341	-0.095	0.073
-502.683	88.524	0.368	0.408
-501.668	236.279	-0.091	0.151
-500.653	429.390	-0.191	-0.412
-499.639	779.952	-0.244	-0.668
-498.624	-119.888	0.865	0.149
-497.610	-61.088	0.712	-0.300
-496.595	61.820	-0.278	0.276
-495.581	120.985	-0.428	-0.532
-494.566	-3.964	-0.303	-0.210
-493.551	-33.580	0.429	-0.237
-492.537	262.210	-0.093	0.161
-491.522	7.205	-0.252	0.188
-490.508	-101.482	0.947	-0.230
-489.493	250.343	0.591	1.002
-488.478	24.090	-0.385	-0.317
-487.464	97.780	-0.210	0.241
-486.449	800.000	-0.233	0.670
-485.435	-54.871	-0.717	-0.323
-484.420	153.237	-0.150	-0.205
-483.405	223.887	0.069	-0.112
-482.391	89.264	0.573	0.638
-481.376	-32.447	-0.267	-0.149
-480.362	-89.446	0.149	0.044
-479.347	77.028	-0.192	0.203
-478.332	13.214	-0.193	-0.149
-477.318	800.000	0.181	-0.522
-476.303	-123.596	0.286	-0.045
-475.289	82.774	0.459	-0.498
-474.274	800.000	-0.060	0.254
-473.259	182.697	-0.195	0.287
-472.245	-122.364	-0.382	-0.062
-471.230	-133.060	0.808	-0.102
-470.216	542.807	-0.218	0.518
-469.201	400.806	0.085	-0.177
-468.186	-200.000	0.056	-0.733
-467.172	238.134	0.464	0.768
-466.157	800.000	-0.109	0.408
-465.143	750.683	0.163	-0.439
-464.128	772.551	-0.046	-0.126
-463.113	-81.041	0.433	0.143
-462.099	800.000	-0.082	0.277
-461.084	-18.732	-0.471	-0.293
-460.070	-51.071	0.561	-0.263
-459.055	-200.000	-0.020	0.127
-458.040	0.841	-0.364	0.260
-457.026	542.028	-0.203	0.482
-456.011	41.409	0.291	0.262
-454.997	-71.406	-0.336	-0.125
-453.982	336.493	0.474	0.917
-452.968	800.000	0.226	0.799
-451.953	19.313	-0.405	-0.325
-450.938	800.000	-0.199	0.636
-449.924	51.253	-0.140	0.133
-448.909	-163.281	0.294	0.014
-447.895	800.000	-0.201	-0.643
-446.880	-5.121	-0.391	-0.268
-445.865	364.438	0.285	0.572
-444.851	156.980	0.540	0.744
-443.836	26.520	0.431	0.359
-442.822	800.000	-0.068	0.230
-441.807	-106.707	0.292	0.065
-440.792	-111.655	0.546	0.110
-439.778	-200.000	0.167	1.145
-438.763	800.000	0.256	0.780
-437.749	115.331	0.553	0.673
-436.734	522.245	0.308	0.722
-435.719	160.983	0.189	0.263
-434.705	135.738	0.807	-1.046
-433.690	-98.731	-1.049	0.266
-432.676	-200.000	0.064	-0.000
-431.661	173.204	0.232	0.333
-430.646	-121.140	-0.590	-0.098
-429.632	50.749	0.189	0.178
-428.617	24.768	0.552	0.456
-427.603	-13.853	0.882	-0.568
-426.588	800.000	-0.106	0.386
-425.573	-200.000	0.014	-0.154
-424.559	-200.000	0.192	-0.906
-423.544	17.804	0.349	-0.277
-422.530	-51.132	-0.926	0.432
-421.515	159.027	0.326	0.451
-420.500	-200.000	-0.046	1.268
-419.486	-57.206	0.902	0.396
-418.471	800.000	0.197	0.543
-417.457	-20.487	-0.130	-0.079
-416.442	-21.933	-0.840	-0.509
-415.428	359.267	0.194	-0.387
-414.413	-36.086	0.451	-0.243
-413.398	280.762	0.369	-0.657
-412.384	-13.198	-0.631	0.408
-411.369	-79.758	-0.457	-0.153
-410.355	-200.000	0.089	-0.693
-409.340	-51.227	0.708	-0.330
-408.325	322.739	-0.418	-0.793
-407.311	-200.000	0.046	-0.662
-406.296	307.804	-0.187	-0.347
-405.282	-39.036	0.505	0.264
-404.267	77.495	-0.404	0.428
-403.252	0.725	-0.769	-0.548
-402.238	541.445	-0.136	-0.323
-401.223	323.769	0.448	-0.851
-400.209	59.560	0.242	-0.238
-399.194	145.833	0.350	-0.467
-398.179	-30.409	-0.651	0.367
-397.165	800.000	0.054	0.221
-396.150	12.676	0.211	0.162
-395.136	192.395	0.296	0.445
-394.121	-77.244	-0.714	-0.247
-393.106	461.827	0.119	0.265
-392.092	35.821	0.291	0.255
-391.077	611.620	0.191	-0.476
-390.063	-164.259	-0.368	0.017
-389.048	-104.537	1.080	-0.248
-388.033	800.000	0.166	-0.607
-387.019	108.148	-0.314	0.372
-386.004	30.098	0.491	0.416
-384.990	-200.000	0.043	-0.460
-383.975	-125.769	0.509	-0.077
-382.960	-200.000	-0.097	0.758
-381.946	-200.000	-0.016	0.686
-380.931	115.331	0.295	-0.358
-379.917	-145.576	0.802	0.071
-378.902	-46.748	-0.873	0.425
-377.888	-200.000	-0.029	0.158
-376.873	69.697	-0.401	-0.410
-375.858	140.905	-0.041	0.054
-374.844	321.543	-0.283	0.536
-373.829	-153.882	-1.004	0.068
-372.815	63.041	-0.213	0.212
-371.800	196.927	-0.303	-0.459
-370.785	-65.036	-0.844	0.339
-369.771	-102.304	-0.671	-0.160
-368.756	-54.762	0.294	0.132
-367.742	22.381	0.078	0.063
-366.727	-200.000	-0.120	-0.950
-365.712	-10.528	-1.253	-0.825
-364.698	-200.000	-0.130	-0.604
-363.683	86.374	-0.174	0.191
-362.669	582.153	0.091	0.222
-361.654	-182.324	0.700	0.013
-360.639	14.271	-1.309	-1.014
-359.625	56.756	0.527	0.510
-358.610	54.567	-0.795	0.761
-357.596	133.076	-0.180	-0.231
-356.581	31.016	-0.114	0.097
-355.566	-154.937	0.415	-0.027
-354.552	0.195	0.284	0.201
-353.537	-181.826	-0.621	0.012
-352.523	-90.308	0.807	-0.233
-351.508	86.085	0.189	0.206
-350.493	-76.890	-0.450	-0.156
-349.479	156.811	-0.275	0.377
-348.464	-105.806	0.961	-0.216
-347.450	-200.000	0.121	0.928
-346.435	109.203	-0.288	0.342
-345.420	-104.758	0.260	0.059
-344.406	-200.000	-0.070	0.821
-343.391	31.350	-0.176	0.150
-342.377	671.282	-0.091	0.234
-341.362	82.230	0.154	-0.166
-340.348	800.000	0.108	0.364
-339.333	-125.617	-0.863	0.130
-338.318	-150.259	0.164	0.013
-337.304	-200.000	-0.141	0.691
-336.289	-96.700	-0.473	0.124
-335.275	-21.456	0.049	-0.029
-334.260	-200.000	-0.235	-1.207
-333.245	800.000	-0.195	-0.580
-332.231	52.030	-0.521	-0.493
-331.216	467.289	0.403	0.898
-330.202	800.000	-0.084	-0.232
-329.187	117.710	-0.325	-0.397
-328.172	-157.886	-0.702	-0.041
-327.158	-200.000	-0.044	0.811
-326.143	-95.447	0.536	-0.143
-325.129	-48.763	0.682	0.325
-324.114	-118.525	1.118	0.196
-323.099	-139.412	0.631	-0.067
-322.085	-151.429	0.334	0.025
-321.070	-71.300	0.617	-0.229
-320.056	-8.718	0.301	-0.200
-319.041	800.000	0.097	0.365
-318.026	329.268	-0.203	-0.387
-317.012	-200.000	0.053	-0.504
-315.997	-85.755	-0.585	-0.180
-314.983	411.617	0.135	0.283
-313.968	247.195	0.196	-0.328
-312.953	-51.337	-0.659	0.306
-311.939	618.692	-0.042	0.105
-310.924	216.590	0.376	0.593
-309.910	419.018	-0.110	-0.234
-308.895	287.264	-0.294	0.527
-307.880	-96.189	-1.023	-0.269
-306.866	72.250	0.596	-0.616
-305.851	528.837	0.350	-0.819
-304.837	-6.940	0.267	-0.180
-303.822	-200.000	0.062	0.484
-302.807	45.384	-0.211	0.193
-301.793	-43.317	0.359	-0.180
-300.778	68.884	0.379	-0.386
-299.764	-200.000	0.034	0.552
-298.749	-100.157	-0.361	0.089
-297.735	-200.000	-0.013	-0.101
-296.720	-112.648	-0.620	-0.122
-295.705	50.619	-0.343	0.322
-294.691	-112.157	0.803	-0.160
-293.676	-200.000	-0.110	0.847
-292.662	-131.102	-0.596	-0.079
-291.647	-123.580	1.002	0.158
-290.632	-200.000	-0.070	-0.566
-289.618	459.874	-0.156	0.345
-288.603	76.931	-0.327	-0.344
-287.589	-58.973	0.829	-0.355
-286.574	-66.537	-0.640	0.252
-285.559	253.224	-0.187	0.316
-284.545	28.187	0.523	-0.437
-283.530	800.000	-0.132	-0.535
-282.516	3.543	-0.564	-0.407
-281.501	-70.268	-0.101	0.038
-280.486	153.063	0.429	-0.581
-279.472	-123.253	0.330	-0.052
-278.457	18.062	0.326	-0.257
-277.443	147.057	0.303	-0.403
-276.428	-200.000	-0.035	-0.505
-275.413	-7.951	0.246	0.165
-274.399	-200.000	-0.007	-0.191
-273.384	46.278	0.637	0.584
-272.370	-116.561	-0.765	0.139
-271.355	159.869	-0.272	-0.375
-270.340	-159.696	0.637	0.035
-269.326	495.836	0.407	0.925
-268.311	-86.592	0.646	-0.196
-267.297	20.691	-0.776	-0.622
-266.282	483.168	0.311	-0.700
-265.267	52.740	-0.719	-0.681
-264.253	338.044	0.275	-0.530
-263.238	-60.274	0.387	-0.163
-262.224	63.852	-0.149	-0.149
-261.209	591.743	-0.430	1.050
-260.195	-44.850	0.257	0.127
-259.180	-3.743	-0.514	0.353
-258.165	107.231	0.248	-0.291
-257.151	25.262	0.338	0.278
-256.136	-200.000	-0.100	0.926
-255.122	341.246	-0.246	0.475
-254.107	800.000	-0.024	-0.101
-253.092	108.797	0.721	-0.852
-252.078	64.949	0.102	-0.102
-251.063	800.000	0.161	-0.675
-250.049	-200.000	0.166	0.885
-249.034	-147.916	-0.409	-0.034
-248.019	180.551	0.342	0.497
-247.005	-102.002	-0.657	0.157
-245.990	-30.546	0.189	0.106
-244.976	628.918	-0.114	0.285
-243.961	108.308	-0.419	-0.494
-242.946	-200.000	0.020	-0.305
-241.932	2.118	-0.839	-0.599
-240.917	-103.487	0.341	0.079
-239.903	97.885	0.503	0.572
-238.888	-175.844	-0.484	-0.013
-237.873	482.739	-0.242	0.543
-236.859	126.747	-0.162	0.203
-235.844	-99.931	-0.176	-0.043
-234.830	-148.685	-1.002	0.081
-233.815	800.000	-0.140	-0.462
-232.800	-200.000	-0.010	0.200
-231.786	25.515	-0.051	-0.042
-230.771	-41.781	0.215	-0.109
-229.757	-156.639	-0.596	0.037
-228.742	41.163	1.088	-0.972
-227.727	120.745	-0.798	-0.980
-226.713	-200.000	-0.083	0.550
-225.698	-150.605	0.885	0.067
-224.684	65.249	0.321	0.320
-223.669	-38.783	-0.110	0.058
-222.655	-76.170	1.058	-0.369
-221.640	-200.000	0.050	-0.837
-220.625	279.876	0.323	0.571
-219.611	-65.178	0.148	0.059
-218.596	-122.273	0.585	-0.094
-217.582	167.783	0.111	0.156
-216.567	638.477	-0.043	-0.108
-215.552	800.000	0.110	-0.411
-214.538	-63.939	-0.278	0.112
-213.523	312.810	0.292	0.542
-212.509	800.000	0.151	-0.502
-211.494	167.723	-0.213	0.299
-210.479	-200.000	0.057	-0.572
-209.465	-186.210	-0.303	0.004
-208.450	490.602	0.074	-0.168
-207.436	37.301	-0.302	-0.264
-206.421	-147.161	-0.219	0.018
-205.406	101.157	0.259	-0.297
-204.392	-200.000	-0.128	0.799
-203.377	-200.000	-0.659	-0.002
-202.363	126.423	0.313	-0.391
-201.348	14.215	0.199	-0.153
-200.333	18.734	-0.311	0.246
-199.319	800.000	-0.140	0.497
-198.304	-21.221	-0.846	-0.510
-197.290	-200.000	0.048	-0.768
-196.275	74.522	-0.042	-0.043
-195.260	20.998	0.146	-0.117
-194.246	-111.042	-0.278	-0.056
-193.231	-89.169	-0.039	-0.011
-192.217	220.047	-0.132	-0.209
-191.202	203.788	0.626	0.957
-190.187	-152.191	0.688	0.049
-189.173	-10.464	-0.263	-0.172
-188.158	-200.000	0.043	0.959
-187.144	-1.439	0.209	-0.145
-186.129	-200.000	0.067	0.554
-185.114	54.344	0.531	0.504
-184.100	32.826	0.410	0.350
-183.085	-48.217	-0.534	-0.254
-182.071	218.065	-0.272	-0.428
-181.056	-10.976	0.504	-0.328
-180.042	-200.000	0.052	0.350
-179.027	-176.766	0.244	0.006
-178.012	9.652	0.565	0.423
-176.998	-200.000	0.026	0.497
-175.983	-200.000	0.102	1.084
-174.969	77.930	0.588	-0.618
-173.954	-74.205	-0.526	-0.188
-172.939	-200.000	-0.032	-0.147
-171.925	-200.000	-0.008	-0.059
-170.910	-57.075	-1.156	-0.502
-169.896	-92.667	1.194	0.330
-168.881	-62.054	-0.448	0.184
-167.866	45.563	-0.320	0.291
-166.852	-33.339	0.015	-0.008
-165.837	-163.523	0.514	-0.024
-164.823	-26.360	0.597	-0.346
-163.808	-200.000	-0.021	0.332
-162.793	-32.504	0.615	-0.338
-161.779	147.355	-0.365	-0.484
-160.764	360.896	0.198	-0.391
-159.750	30.324	-0.499	0.420
-158.735	-200.000	-0.072	-0.410
-157.720	297.786	-0.374	-0.678
-156.706	-107.046	-0.151	-0.033
-155.691	-47.186	-0.340	0.163
-154.677	77.779	-0.202	0.212
-153.662	94.592	0.320	-0.359
-152.647	242.389	-0.226	0.372
-151.633	-200.000	-0.000	-0.387
-150.618	-128.217	-0.226	-0.032
-149.604	479.922	0.217	0.485
-148.589	-200.000	-0.042	-0.437
-147.574	-164.456	0.674	0.030
-146.560	-200.000	-0.058	-0.552
-145.545	673.758	0.076	0.195
-144.531	339.028	-0.261	-0.500
-143.516	-200.000	-0.012	-0.071
-142.502	65.291	-0.094	-0.094
-141.487	22.510	1.084	-0.873
-140.472	86.662	0.287	-0.312
-139.458	-3.822	0.199	0.136
-138.443	-61.187	0.404	-0.168
-137.429	-131.062	-0.278	-0.037
-136.414	800.000	-0.120	-0.442
-135.399	30.991	-0.326	0.275
-134.385	127.555	-0.300	0.375
-133.370	-200.000	0.143	-1.078
-132.356	165.610	-0.096	0.133
-131.341	-118.990	1.000	0.173
-130.326	-101.989	0.047	-0.011
-129.312	724.106	-0.023	-0.061
-128.297	800.000	0.253	0.789
-127.283	800.000	-0.020	0.077
-126.268	157.248	0.469	-0.639
-125.253	-200.000	-0.076	-1.147
-124.239	800.000	-0.152	0.503
-123.224	-1.217	-0.580	-0.403
-122.210	-6.388	-0.481	0.323
-121.195	191.194	0.379	-0.562
-120.180	-3.981	-0.177	-0.121
-119.166	-194.029	-0.833	-0.007
-118.151	-200.000	0.034	-0.491
-117.137	-126.765	-1.138	-0.165
-116.122	-115.539	0.511	0.095
-115.107	-102.164	-1.055	-0.250
-114.093	105.914	0.085	-0.099
-113.078	-120.154	0.571	0.096
-112.064	209.510	-0.660	-1.018
-111.049	166.005	-0.326	-0.454
-110.034	-134.587	-0.608	0.073
-109.020	410.760	0.267	-0.557
-108.005	-77.962	-0.514	0.174
-106.991	-5.615	-0.343	0.232
-105.976	-72.669	0.366	-0.133
-104.962	800.000	0.207	0.713
-103.947	535.457	-0.205	-0.479
-102.932	-109.803	-1.154	0.239
-101.918	162.327	-0.155	0.214
-100.903	800.000	0.191	-0.594
-99.889	196.853	0.189	-0.283
-98.874	-138.635	-0.596	0.064
-97.859	62.192	0.275	0.270
-96.845	190.134	0.372	-0.549
-95.830	238.092	0.424	0.693
-94.816	-96.292	-0.800	0.208
-93.801	-51.658	0.522	0.239
-92.786	-22.048	-0.215	-0.128
-91.772	800.000	0.204	-0.664
-90.757	800.000	0.046	0.189
-89.743	2.202	0.371	-0.264
-88.728	-200.000	-0.063	-0.313
-87.713	654.700	-0.292	0.736
-86.699	672.726	0.233	0.594
-85.684	50.616	-0.365	-0.339
-84.670	721.816	-0.113	0.295
-83.655	800.000	-0.127	-0.506
-82.640	198.261	0.520	-0.781
-81.626	-114.890	-0.360	-0.067
-80.611	90.592	-0.554	0.610
-79.597	259.914	0.173	0.294
-78.582	800.000	0.381	-1.290
-77.567	-60.725	-0.608	0.253
-76.553	499.655	0.120	0.272
-75.538	17.876	-0.310	0.243
-74.524	800.000	0.167	-0.494
-73.509	-200.000	-0.113	-0.496
-72.494	-14.710	-0.861	0.544
-71.480	211.862	0.178	0.276
-70.465	-149.407	0.488	0.038
-69.451	-200.000	-0.030	-0.195
-68.436	800.000	0.032	-0.115
-67.422	199.186	-0.287	-0.431
-66.407	-200.000	0.009	-0.059
-65.392	-200.000	0.119	0.554
-64.378	42.703	0.618	-0.553
-63.363	-179.229	0.342	0.007
-62.349	-50.905	0.362	-0.167
-61.334	-200.000	0.008	-1.116
-60.319	-9.212	0.761	-0.500
-59.305	-200.000	0.199	-1.182
-58.290	-105.075	1.417	0.318
-57.276	374.528	1.039	2.077
-56.261	-200.000	95.858	597.490
-55.246	667.002	1354.781	3437.698
-54.232	203.442	2528.672	3839.878
-53.217	113.325	2246.561	2676.015
-52.203	41.730	1880.474	1672.759
-51.188	35.160	1673.686	1439.588
-50.173	32.705	1629.556	1383.587
-49.159	51.426	1679.286	1565.611
-48.144	51.893	1695.847	1584.463
-47.130	34.730	1656.716	1421.565
-46.115	32.128	1641.614	1389.333
-45.100	32.112	1636.359	1384.714
-44.086	32.133	1633.388	1382.301
-43.071	31.939	1631.427	1379.156
-42.057	32.122	1628.080	1377.621
-41.042	31.892	1627.933	1375.753
-40.027	32.055	1625.264	1374.637
-39.013	31.914	1623.274	1371.864
-37.998	32.057	1621.633	1371.469
-36.984	31.648	1621.160	1368.029
-35.969	31.950	1618.567	1367.991
-34.954	32.177	1617.496	1368.683
-33.940	32.145	1615.159	1366.420
-32.925	32.073	1613.290	1364.257
-31.911	31.970	1611.312	1361.783
-30.896	32.258	1609.962	1362.680
-29.881	31.989	1608.649	1359.565
-28.867	31.944	1606.528	1357.391
-27.852	32.146	1605.753	1358.148
-26.838	32.007	1604.808	1356.286
-25.823	31.915	1603.391	1354.371
-24.809	32.177	1600.946	1354.141
-23.794	32.080	1599.778	1352.400
-22.779	32.016	1598.816	1351.069
-21.765	32.125	1596.240	1349.623
-20.750	31.930	1594.978	1347.107
-19.736	32.168	1593.827	1347.789
-18.721	32.279	1592.253	1347.199
-17.706	32.067	1591.338	1344.851
-16.692	31.999	1590.186	1343.337
-15.677	31.806	1589.627	1341.432
-14.663	32.163	1585.484	1340.428
-13.648	32.229	1585.206	1340.614
-12.633	32.115	1583.362	1338.190
-11.619	31.896	1582.311	1335.683
-10.604	32.118	1581.115	1336.204
-9.590	32.179	1579.633	1335.333
-8.575	32.258	1577.961	1334.427
-7.560	32.202	1577.639	1333.701
-6.546	32.188	1576.686	1332.745
-5.531	32.179	1574.381	1330.680
-4.517	32.078	1572.898	1328.660
-3.502	32.168	1571.833	1328.346
-2.487	32.082	1571.978	1327.804
-1.473	31.783	1559.374	1315.007
-0.458	29.109	1538.773	1279.037
0.556	26.933	1538.894	1246.276
1.571	24.137	1563.829	1246.811
2.586	23.663	1576.053	1253.101
3.600	21.135	1523.118	1193.645
4.615	12.489	1414.504	1053.272
5.629	4.820	1350.645	958.573
6.644	3.546	1342.829	945.138
7.659	3.169	1342.177	942.286
8.673	3.430	1340.553	942.658
9.688	3.416	1338.986	941.388
10.702	3.112	1336.375	937.617
11.717	6.658	1342.500	963.519
12.731	15.899	1359.013	1032.176
13.746	23.239	1371.829	1087.062
14.761	24.908	1372.457	1097.704
15.775	24.731	1372.508	1096.565
16.790	24.550	1370.531	1093.782
17.804	24.118	1369.105	1089.906
18.819	24.315	1368.032	1090.154
19.834	24.257	1367.415	1089.215
20.848	23.992	1367.261	1087.374
21.863	24.100	1366.636	1087.439
22.877	24.550	1364.736	1088.578
23.892	24.359	1363.555	1086.378
24.907	24.292	1363.483	1085.814
25.921	24.268	1362.767	1085.001
26.936	24.381	1361.712	1084.755
27.950	24.373	1359.638	1082.958
28.965	23.934	1359.815	1080.334
29.980	24.205	1359.646	1081.754
30.994	24.509	1357.291	1081.623
32.009	24.267	1357.443	1080.186
33.023	24.303	1355.673	1078.897
34.038	24.295	1354.871	1078.116
35.053	24.291	1354.236	1077.489
36.067	23.860	1353.376	1074.108
37.082	24.344	1352.311	1076.085
38.096	24.464	1350.079	1074.939
39.111	24.277	1350.239	1073.845
40.126	23.940	1349.772	1071.348
41.140	23.976	1348.441	1070.417
42.155	23.757	1348.780	1069.272
43.169	23.738	1348.635	1068.945
44.184	23.903	1348.163	1069.470
45.199	23.664	1347.356	1067.300
46.213	24.059	1346.908	1069.226
47.228	24.281	1346.951	1070.497
48.242	24.262	1345.464	1069.107
49.257	24.254	1344.512	1068.206
50.271	24.311	1343.517	1067.660
51.286	24.281	1339.801	1064.437
52.301	24.309	1340.676	1065.203
53.315	24.093	1339.418	1062.824
54.330	24.150	1338.053	1061.982
55.344	23.969	1337.447	1060.331
56.359	23.869	1336.109	1058.583
57.374	24.000	1334.724	1058.169
58.388	24.043	1334.389	1058.064
59.403	23.733	1335.024	1056.632
60.417	23.595	1333.267	1054.325
61.432	23.747	1332.636	1054.636
62.447	23.759	1331.668	1053.849
63.461	23.679	1329.817	1051.818
64.476	23.885	1328.747	1052.097
65.490	23.881	1327.477	1050.975
66.505	23.600	1327.634	1049.342
67.520	23.806	1325.784	1049.005
68.534	23.788	1324.828	1048.052
69.549	23.907	1323.272	1047.427
70.563	23.555	1322.127	1044.357
71.578	23.383	1322.268	1043.365
72.593	23.534	1320.810	1043.006
73.607	23.434	1320.843	1042.356
74.622	23.576	1319.922	1042.370
75.636	23.708	1318.141	1041.645
76.651	23.825	1317.972	1042.105
77.666	23.573	1317.873	1040.459
78.680	23.699	1318.114	1041.297
79.695	23.618	1316.395	1039.372
80.709	23.827	1316.027	1040.212
81.724	23.926	1314.901	1039.805
82.739	23.866	1315.131	1039.546
83.753	24.058	1314.004	1039.685
84.768	24.603	1312.301	1041.423
85.782	24.445	1312.425	1040.509
86.797	24.325	1311.994	1039.373
87.812	24.294	1310.525	1037.938
88.826	24.406	1308.411	1036.824
89.841	24.363	1307.547	1035.795
90.855	24.602	1307.715	1037.227
91.870	24.571	1305.910	1035.521
92.884	24.632	1305.915	1035.792
93.899	24.654	1304.509	1034.711
94.914	24.366	1303.886	1032.460
95.928	24.683	1303.666	1034.024
96.943	24.550	1302.530	1032.265
97.957	24.515	1302.167	1031.684
98.972	24.262	1300.979	1029.190
99.987	24.434	1299.570	1028.977
101.001	24.260	1300.583	1028.685
102.016	24.264	1298.463	1026.941
103.030	24.273	1297.265	1025.956
104.045	24.455	1296.264	1026.118
105.060	24.401	1294.586	1024.389
106.074	23.973	1293.094	1020.663
107.089	23.682	1292.362	1018.323
108.103	23.925	1290.772	1018.371
109.118	23.923	1289.967	1017.637
110.133	23.613	1288.522	1014.635
111.147	23.779	1287.219	1014.467
112.162	23.708	1286.134	1013.115
113.176	23.806	1285.732	1013.271
114.191	23.683	1285.433	1012.242
115.206	23.761	1284.891	1012.170
116.220	23.986	1283.522	1012.285
117.235	23.630	1282.387	1009.273
118.249	23.674	1280.074	1007.615
119.264	23.624	1280.041	1007.216
120.279	23.694	1278.863	1006.599
121.293	23.649	1278.223	1005.749
122.308	23.600	1277.168	1004.552
123.322	23.546	1275.394	1002.762
124.337	23.611	1274.531	1002.364
125.352	23.426	1274.019	1000.827
126.366	23.462	1273.317	1000.390
127.381	23.554	1272.742	1000.367
128.395	23.345	1270.558	997.389
129.410	23.313	1269.523	996.307
130.424	23.336	1269.616	996.422
131.439	23.619	1268.990	997.430
132.454	23.478	1269.233	996.739
133.468	23.874	1268.115	997.998
134.483	23.734	1267.854	996.917
135.497	23.755	1266.673	996.020
136.512	24.070	1265.247	996.576
137.527	23.639	1263.997	993.089
138.541	23.886	1263.119	993.693
139.556	23.784	1261.542	991.797
140.570	23.897	1260.976	991.894
141.585	24.086	1260.461	992.455
142.600	24.544	1258.852	993.649
143.614	24.510	1259.469	993.858
144.629	24.572	1257.350	992.446
145.643	24.392	1256.200	990.447
146.658	24.282	1255.260	989.012
147.673	24.178	1254.297	987.589
148.687	24.156	1252.644	986.075
149.702	24.110	1250.937	984.391
150.716	23.699	1251.173	982.218
151.731	23.377	1249.472	979.017
152.746	23.786	1248.065	980.083
153.760	24.052	1246.866	980.523
154.775	24.079	1247.261	980.892
155.789	24.109	1246.066	980.034
156.804	23.832	1245.860	978.259
157.819	24.059	1244.135	978.065
158.833	24.370	1242.885	978.705
159.848	24.131	1243.058	977.443
160.862	24.081	1241.699	976.013
161.877	23.829	1240.731	973.782
162.892	23.875	1239.105	972.673
163.906	23.802	1237.614	971.018
164.921	23.759	1237.271	970.427
165.935	24.072	1235.752	970.856
166.950	24.149	1235.991	971.381
167.964	24.159	1235.326	970.827
168.979	24.081	1235.826	970.706
169.994	23.932	1234.344	968.646
171.008	24.007	1233.120	968.011
172.023	23.926	1232.557	967.037
173.037	24.187	1232.281	968.154
174.052	24.323	1230.209	967.178
175.067	23.996	1230.255	965.358
176.081	23.631	1229.723	962.876
177.096	23.615	1228.826	962.002
178.110	23.734	1227.804	961.757
179.125	23.594	1226.529	959.916
180.140	23.837	1225.855	960.617
181.154	24.162	1225.638	962.119
182.169	23.881	1224.900	959.940
183.183	24.107	1222.533	959.218
184.198	24.172	1221.699	958.827
185.213	24.349	1219.617	958.057
186.227	23.998	1220.505	956.788
187.242	24.138	1219.935	957.007
188.256	24.375	1217.074	955.946
189.271	24.408	1216.412	955.519
190.286	24.066	1216.781	953.891
191.300	23.975	1214.490	951.526
192.315	23.818	1215.139	951.109
193.329	24.070	1214.232	951.660
194.344	24.037	1213.025	950.457
195.359	23.587	1212.486	947.550
196.373	23.601	1211.919	947.095
197.388	23.709	1211.586	947.327
198.402	24.016	1211.825	949.067
199.417	24.338	1211.653	950.567
200.432	24.307	1211.908	950.514
201.446	24.373	1210.835	949.940
202.461	24.499	1210.058	949.917
203.475	24.347	1209.140	948.307
204.490	24.207	1206.836	945.674
205.504	24.005	1205.708	943.634
206.519	24.080	1203.640	942.330
207.534	23.495	1204.301	939.663
208.548	23.609	1203.389	939.474
209.563	23.689	1202.830	939.378
210.577	23.870	1200.525	938.452
211.592	23.796	1200.644	938.067
212.607	24.350	1200.074	940.460
213.621	24.320	1199.206	939.539
214.636	23.794	1198.311	935.987
215.650	24.230	1196.802	937.017
216.665	24.047	1197.084	936.194
217.680	24.509	1197.136	938.580
218.694	24.319	1196.483	936.984
219.709	24.285	1194.979	935.547
220.723	24.488	1192.913	934.913
221.738	24.355	1193.558	934.636
222.753	24.115	1191.823	931.938
223.767	24.042	1192.047	931.650
224.782	24.432	1190.938	932.740
225.796	24.165	1191.065	931.359
226.811	24.484	1189.135	931.432
227.826	24.232	1190.008	930.717
228.840	24.124	1188.976	929.268
229.855	24.012	1187.611	927.536
230.869	23.909	1187.888	927.131
231.884	23.970	1185.203	925.269
232.899	23.871	1184.672	924.259
233.913	23.858	1185.089	924.437
234.928	23.890	1183.271	923.102
235.942	23.603	1183.643	921.821
236.957	23.873	1181.169	921.212
237.972	23.299	1182.119	918.892
238.986	23.694	1180.743	919.787
240.001	23.753	1180.310	919.674
241.015	23.654	1178.868	917.957
242.030	23.895	1178.339	918.709
243.045	23.832	1178.451	918.390
244.059	23.945	1178.260	918.743
245.074	24.199	1176.060	918.255
246.088	24.352	1175.817	918.773
247.103	24.654	1175.070	919.661
248.117	24.549	1174.526	918.617
249.132	24.739	1173.551	918.747
250.147	24.793	1173.767	919.116
251.161	25.033	1173.781	920.278
252.176	24.840	1173.772	919.200
253.190	25.183	1172.259	919.691
254.205	25.294	1171.463	919.554
255.220	25.165	1171.230	918.627
256.234	25.162	1170.449	917.917
257.249	25.237	1170.352	918.143
258.263	25.081	1168.477	915.797
259.278	24.988	1168.517	915.269
260.293	25.237	1168.318	916.304
261.307	25.238	1167.529	915.611
262.322	25.119	1167.620	914.993
263.336	25.114	1166.383	913.916
264.351	25.316	1165.990	914.557
265.366	24.937	1166.086	912.623
266.380	25.239	1164.169	912.576
267.395	25.005	1163.453	910.747
268.409	24.539	1163.182	908.083
269.424	24.733	1162.200	908.223
270.439	24.650	1163.050	908.385
271.453	24.639	1161.850	907.313
272.468	24.993	1159.098	906.873
273.482	24.731	1158.789	905.227
274.497	24.380	1158.742	903.329
275.512	24.659	1157.739	903.880
276.526	24.849	1156.180	903.544
277.541	24.565	1155.752	901.695
278.555	24.601	1156.508	902.385
279.570	24.654	1155.875	902.082
280.585	25.167	1155.737	904.480
281.599	25.108	1153.894	902.664
282.614	24.940	1152.122	900.352
283.628	24.761	1151.613	898.976
284.643	24.598	1150.751	897.403
285.657	24.532	1150.098	896.482
286.672	24.883	1148.940	897.260
287.687	24.861	1148.382	896.638
288.701	25.014	1147.039	896.275
289.716	24.657	1147.600	894.847
290.730	24.913	1145.646	894.523
291.745	24.876	1145.398	894.064
292.760	25.111	1143.562	893.724
293.774	24.914	1144.869	893.682
294.789	25.213	1143.973	894.394
295.803	25.211	1142.718	893.324
296.818	24.924	1142.090	891.325
297.833	25.065	1142.111	891.965
298.847	24.790	1140.786	889.487
299.862	24.720	1139.850	888.329
300.876	24.770	1139.325	888.091
301.891	24.798	1139.507	888.292
302.906	25.158	1138.255	889.020
303.920	25.210	1138.488	889.386
304.935	24.991	1138.207	887.998
305.949	25.304	1137.960	889.279
306.964	25.530	1135.957	888.755
307.979	25.420	1134.477	886.971
308.993	25.200	1135.038	886.247
310.008	25.599	1133.933	887.271
311.022	25.255	1133.988	885.540
312.037	24.942	1133.474	883.518
313.052	25.065	1130.898	882.036
314.066	24.997	1130.149	881.042
315.081	24.479	1130.238	878.485
316.095	24.644	1128.853	878.138
317.110	24.938	1127.559	878.499
318.125	24.828	1125.932	876.613
319.139	24.713	1126.165	876.153
320.154	24.906	1125.660	876.628
321.168	24.563	1125.498	874.745
322.183	24.581	1125.161	874.493
323.197	24.945	1125.034	876.098
324.212	24.727	1123.990	874.145
325.227	24.556	1123.138	872.568
326.241	24.974	1123.624	874.909
327.256	24.651	1123.155	872.890
328.270	24.513	1121.275	870.679
329.285	24.560	1120.147	869.954
330.300	25.141	1118.879	871.719
331.314	24.737	1118.727	869.561
332.329	24.546	1117.351	867.486
333.343	24.686	1117.292	868.041
334.358	24.986	1116.059	868.465
335.373	24.854	1116.627	868.186
336.387	25.212	1115.492	868.965
337.402	25.028	1114.152	866.951
338.416	25.367	1113.866	868.292
339.431	25.372	1113.656	868.077
340.446	25.496	1112.715	867.865
341.460	25.532	1112.791	868.021
342.475	25.767	1112.230	868.641
343.489	25.383	1111.059	865.800
344.504	25.509	1110.526	865.914
345.519	25.826	1108.214	865.556
346.533	25.997	1108.448	866.485
347.548	25.986	1107.962	865.977
348.562	25.819	1106.739	864.144
349.577	25.992	1105.136	863.641
350.592	25.241	1105.223	860.036
351.606	24.851	1104.942	857.875
352.621	25.100	1103.296	857.711
353.635	25.182	1102.169	857.148
354.650	24.826	1101.916	855.174
355.665	25.232	1100.505	855.944
356.679	25.443	1100.346	856.748
357.694	25.311	1101.019	856.570
358.708	25.561	1099.295	856.342
359.723	25.547	1098.772	855.794
360.738	25.202	1098.639	853.968
361.752	25.428	1097.789	854.309
362.767	25.409	1097.125	853.628
363.781	25.343	1096.427	852.692
364.796	25.604	1096.840	854.180
365.810	25.862	1095.941	854.627
366.825	25.897	1095.572	854.431
367.840	26.062	1094.615	854.390
368.854	26.100	1094.655	854.524
369.869	26.157	1093.699	853.973
370.883	26.374	1092.060	853.641
371.898	26.092	1090.994	851.404
372.913	25.592	1091.617	849.454
373.927	25.714	1091.301	849.710
374.942	26.112	1091.197	851.431
375.956	25.942	1090.091	849.692
376.971	25.634	1089.632	847.808
377.986	25.766	1089.050	847.902
379.000	26.282	1088.630	849.924
380.015	25.881	1088.178	847.610
381.029	26.104	1087.498	848.054
382.044	26.499	1086.358	848.946
383.059	26.080	1086.272	846.837
384.073	25.968	1085.686	845.781
385.088	26.192	1084.278	845.659
386.102	26.151	1082.631	844.104
387.117	25.614	1082.122	841.124
388.132	25.649	1080.620	840.044
389.146	25.984	1079.427	840.608
390.161	25.492	1079.889	838.597
391.175	25.642	1077.782	837.583
392.190	25.819	1078.872	839.182
393.205	26.305	1077.935	840.640
394.219	26.060	1078.205	839.637
395.234	25.577	1077.440	836.721
396.248	25.676	1075.069	835.264
397.263	25.883	1073.479	834.912
398.278	25.560	1073.301	833.204
399.292	25.748	1072.927	833.713
400.307	25.712	1071.904	832.679
401.321	25.627	1071.533	831.922
402.336	25.313	1071.316	830.228
403.350	25.439	1070.202	829.875
404.365	25.571	1069.856	830.141
405.380	26.083	1068.981	831.750
406.394	25.434	1068.647	828.427
407.409	25.896	1067.795	829.817
408.423	26.411	1067.044	831.528
409.438	25.942	1067.847	829.925
410.453	26.005	1066.709	829.254
411.467	26.278	1065.821	829.746
412.482	25.907	1065.149	827.445
413.496	26.206	1065.018	828.644
414.511	26.538	1063.831	829.170
415.526	26.587	1063.159	828.796
416.540	26.474	1063.409	828.398
417.555	26.384	1062.526	827.226
418.569	26.302	1062.048	826.407
419.584	26.438	1061.029	826.159
420.599	26.336	1061.101	825.678
421.613	154.081	1403.934	1792.762
422.628	141.666	1453.808	1792.868
