DTS Sentinel unit serial number:	SN413079Multiplexer serial number:	ORYXHardware model number:	OX4-SRSoftware version number:	ORYX F/W v4.00 Oryx Data Collector v3.7.2.0data status	okinstallation	princeton_trtdifferential loss correction	single-endedforward channel	channel 2reverse channel	N/Adate	2019/09/18time	01:03:35forward acquisition time	60.00reverse acquisition time	0.00gamma	496.2192k internal	0.2349k external	0.2349temperature offset calibration	0.9986default loss term (dB/km)	0.3790temperature slope calibration	1.0000multiplexer offset coefficient	1.0000multiplexer slope coefficient	1.0000fibre end	0.00T internal ref (°C)	23.25T ext. ref 1 (°C)	0.17T ext. ref 2 (°C)	16.97length (m)	temperature (°C)	Stokes	anti-Stokes-747.200	266.371	0.093	0.163
-746.185	800.000	0.067	0.248
-745.171	-200.000	0.012	0.229
-744.156	800.000	-0.024	0.100
-743.142	800.000	-0.025	-0.079
-742.127	57.596	-0.152	-0.148
-741.112	71.658	0.064	0.067
-740.098	-200.000	-0.045	0.216
-739.083	-39.149	-0.136	0.071
-738.069	83.838	-0.207	-0.226
-737.054	-83.075	0.165	0.053
-736.039	230.466	-0.149	-0.243
-735.025	800.000	-0.101	0.426
-734.010	-200.000	0.088	-0.531
-732.996	-30.338	0.161	0.091
-731.981	-133.613	0.113	0.014
-730.966	21.636	-0.135	-0.109
-729.952	214.483	-0.082	-0.130
-728.937	-46.852	-0.099	-0.048
-727.923	0.355	-0.238	-0.170
-726.908	-42.949	-0.198	0.100
-725.894	414.823	0.072	0.152
-724.879	257.085	-0.094	0.161
-723.864	47.613	-0.046	0.043
-722.850	73.159	-0.232	-0.242
-721.835	308.163	-0.152	-0.283
-720.821	-25.082	-0.295	-0.175
-719.806	800.000	0.093	-0.405
-718.791	57.348	0.278	0.271
-717.777	24.971	-0.123	0.102
-716.762	800.000	0.030	-0.109
-715.748	136.650	0.159	-0.207
-714.733	-43.918	-0.064	0.032
-713.718	-200.000	-0.026	-0.305
-712.704	-64.066	0.450	0.183
-711.689	23.118	0.121	-0.099
-710.675	19.004	-0.124	0.099
-709.660	-10.485	-0.222	-0.147
-708.645	15.741	0.302	-0.237
-707.631	-64.568	-0.094	-0.038
-706.616	800.000	0.039	0.166
-705.602	77.631	0.030	0.032
-704.587	-161.222	-0.122	0.006
-703.572	-108.104	-0.292	0.063
-702.558	-88.335	-0.147	0.044
-701.543	-200.000	0.032	-0.188
-700.529	-200.000	0.036	0.423
-699.514	3.880	-0.078	-0.057
-698.499	-76.730	0.074	-0.026
-697.485	-200.000	0.033	-0.188
-696.470	-60.142	0.024	0.010
-695.456	558.400	0.079	-0.190
-694.441	134.091	-0.113	0.146
-693.426	141.687	0.180	0.237
-692.412	565.292	-0.068	0.165
-691.397	-59.501	-0.419	0.180
-690.383	-14.317	-0.179	-0.115
-689.368	77.481	-0.182	0.193
-688.354	31.311	-0.085	0.073
-687.339	485.227	-0.095	-0.216
-686.324	383.862	-0.081	-0.166
-685.310	-36.650	-0.319	-0.171
-684.295	257.506	0.023	0.040
-683.281	-200.000	0.047	0.290
-682.266	-200.000	-0.014	-0.153
-681.251	800.000	0.021	-0.087
-680.237	-32.720	0.146	0.081
-679.222	586.116	0.113	0.278
-678.208	-135.124	0.351	0.042
-677.193	-57.511	0.237	0.103
-676.178	-91.667	0.200	-0.057
-675.164	-28.208	-0.394	-0.227
-674.149	441.567	-0.084	-0.184
-673.135	93.213	-0.170	0.191
-672.120	-37.556	-0.429	0.228
-671.105	484.947	-0.098	-0.222
-670.091	-188.884	0.117	0.001
-669.076	-43.198	0.213	-0.107
-668.062	-136.743	-0.307	0.035
-667.047	60.524	-0.176	0.174
-666.032	17.510	0.042	0.033
-665.018	-90.672	0.261	-0.075
-664.003	20.365	-0.225	-0.181
-662.989	14.393	-0.202	-0.157
-661.974	-59.281	-0.214	-0.092
-660.959	-112.907	0.243	0.048
-659.945	-61.672	0.055	0.023
-658.930	-18.946	0.191	-0.118
-657.916	3.293	0.257	0.186
-656.901	-0.616	-0.069	-0.049
-655.886	5.056	0.112	-0.082
-654.872	169.455	-0.078	0.111
-653.857	-52.856	0.199	-0.091
-652.843	-9.230	0.346	0.230
-651.828	-200.000	0.083	-0.377
-650.814	137.136	-0.213	-0.277
-649.799	-10.049	-0.183	-0.121
-648.784	252.139	-0.056	-0.095
-647.770	-80.971	0.343	0.113
-646.755	90.057	-0.181	0.201
-645.741	-62.613	-0.027	-0.011
-644.726	-69.135	0.027	-0.010
-643.711	800.000	0.042	-0.176
-642.697	800.000	-0.062	-0.206
-641.682	-200.000	0.078	0.347
-640.668	-94.838	0.216	0.058
-639.653	17.774	0.309	0.245
-638.638	92.251	0.061	-0.068
-637.624	708.709	0.024	-0.062
-636.609	705.593	-0.037	0.096
-635.595	579.243	0.090	-0.219
-634.580	-37.283	-0.176	0.094
-633.565	-146.390	0.124	-0.011
-632.551	48.500	-0.326	-0.303
-631.536	569.301	-0.186	-0.450
-630.522	95.992	-0.222	-0.252
-629.507	93.609	0.091	-0.102
-628.492	800.000	-0.064	-0.208
-627.478	800.000	-0.101	-0.314
-626.463	-126.208	0.027	0.004
-625.449	-2.108	0.138	0.097
-624.434	-200.000	0.021	-0.200
-623.419	-102.530	0.185	-0.044
-622.405	-200.000	-0.017	0.272
-621.390	-200.000	-0.008	-0.135
-620.376	14.656	-0.230	-0.179
-619.361	507.195	0.120	0.276
-618.346	-149.516	0.297	-0.023
-617.332	290.413	0.059	0.106
-616.317	-42.285	0.219	-0.111
-615.303	-105.372	-0.127	-0.029
-614.288	58.130	-0.015	-0.014
-613.273	-200.000	-0.010	-0.316
-612.259	-200.000	-0.010	0.070
-611.244	313.070	-0.148	0.277
-610.230	757.265	0.095	0.254
-609.215	224.995	-0.240	-0.386
-608.201	40.970	-0.152	-0.136
-607.186	187.934	-0.100	0.148
-606.171	-46.805	0.158	0.077
-605.157	-167.455	-0.143	-0.006
-604.142	226.705	0.073	-0.118
-603.128	800.000	0.099	0.365
-602.113	-61.625	-0.150	-0.062
-601.098	800.000	0.122	0.346
-600.084	800.000	-0.088	-0.266
-599.069	122.201	-0.120	-0.149
-598.055	-60.111	0.194	0.082
-597.040	437.292	-0.082	-0.176
-596.025	56.328	-0.087	-0.084
-595.011	-172.277	-0.095	-0.003
-593.996	-200.000	0.020	-0.308
-592.982	-6.600	0.266	-0.180
-591.967	101.195	-0.155	-0.179
-590.952	59.657	-0.237	0.232
-589.938	-6.562	0.170	-0.115
-588.923	-90.275	-0.147	-0.042
-587.909	410.154	0.058	0.122
-586.894	33.149	-0.084	-0.073
-585.879	34.442	0.337	0.292
-584.865	19.303	-0.244	-0.195
-583.850	-165.592	0.187	0.008
-582.836	800.000	0.070	0.273
-581.821	-101.640	-0.374	-0.090
-580.806	22.759	0.147	0.120
-579.792	-14.222	-0.170	0.109
-578.777	7.827	0.166	-0.123
-577.763	-9.415	-0.238	-0.158
-576.748	-103.879	0.187	0.043
-575.733	82.426	-0.130	0.140
-574.719	5.409	-0.193	-0.141
-573.704	-200.000	0.065	0.317
-572.690	-41.193	0.211	-0.108
-571.675	80.115	0.285	0.305
-570.661	351.552	-0.243	-0.477
-569.646	629.887	-0.115	-0.289
-568.631	89.046	0.162	-0.179
-567.617	-86.689	-0.453	0.138
-566.602	200.907	0.153	-0.234
-565.588	13.589	-0.040	-0.031
-564.573	73.834	0.128	0.133
-563.558	91.400	-0.236	0.263
-562.544	-67.522	0.036	-0.014
-561.529	117.576	-0.146	-0.178
-560.515	-200.000	-0.020	0.126
-559.500	-200.000	0.047	0.214
-558.485	-200.000	-0.073	-0.361
-557.471	377.356	-0.088	-0.178
-556.456	800.000	-0.115	-0.457
-555.442	-200.000	0.000	0.321
-554.427	800.000	-0.085	-0.335
-553.412	84.219	0.300	-0.325
-552.398	-200.000	0.011	-0.150
-551.383	148.342	0.113	0.151
-550.369	-114.206	-0.281	-0.054
-549.354	-71.067	-0.178	-0.066
-548.339	-129.749	0.380	0.052
-547.325	65.421	-0.075	-0.075
-546.310	-127.536	0.038	-0.005
-545.296	-15.378	-0.314	0.199
-544.281	-100.480	0.215	-0.053
-543.266	219.348	0.095	0.151
-542.252	-200.000	-0.007	0.212
-541.237	-200.000	0.013	0.100
-540.223	-65.382	0.391	0.156
-539.208	9.783	-0.328	-0.247
-538.193	-47.725	0.129	0.062
-537.179	-101.689	0.167	-0.040
-536.164	91.987	0.103	0.115
-535.150	800.000	-0.065	-0.200
-534.135	336.545	0.263	0.505
-533.121	785.920	-0.017	-0.045
-532.106	381.449	-0.058	-0.118
-531.091	-200.000	-0.036	0.430
-530.077	-42.581	0.218	0.110
-529.062	244.137	-0.184	-0.305
-528.048	195.762	-0.039	0.058
-527.033	595.054	0.093	-0.227
-526.018	143.612	-0.081	-0.107
-525.004	212.950	-0.053	0.082
-523.989	-59.711	-0.290	0.123
-522.975	-122.748	0.505	0.081
-521.960	-154.532	-0.190	0.013
-520.945	800.000	0.093	-0.356
-519.931	-200.000	-0.040	-0.269
-518.916	128.224	-0.100	0.126
-517.902	158.224	0.068	0.094
-516.887	-45.992	0.205	0.100
-515.872	-4.026	-0.016	0.011
-514.858	-4.611	-0.108	0.073
-513.843	-81.131	0.541	-0.177
-512.829	-142.932	0.398	-0.038
-511.814	-127.987	-0.129	-0.018
-510.799	-149.167	0.166	-0.013
-509.785	-86.804	0.420	-0.127
-508.770	-83.432	-0.315	0.100
-507.756	421.378	-0.138	0.292
-506.741	739.758	0.079	0.210
-505.726	220.079	-0.139	0.221
-504.712	114.801	0.125	-0.151
-503.697	17.061	-0.131	0.102
-502.683	304.268	0.120	-0.220
-501.668	164.134	-0.186	-0.259
-500.653	-131.010	0.181	-0.024
-499.639	-47.795	0.120	-0.057
-498.624	-200.000	0.011	-0.072
-497.610	-200.000	-0.003	0.094
-496.595	-169.852	-0.144	0.005
-495.581	-200.000	-0.004	0.132
-494.566	-163.124	-0.058	-0.003
-493.551	-167.746	-0.180	-0.007
-492.537	113.441	0.148	-0.178
-491.522	800.000	0.016	0.065
-490.508	800.000	-0.150	0.436
-489.493	141.727	-0.271	-0.354
-488.478	51.226	0.203	0.190
-487.464	-200.000	0.063	0.421
-486.449	-200.000	0.029	-0.211
-485.435	-86.613	-0.157	-0.048
-484.420	800.000	-0.036	-0.147
-483.405	-112.565	0.215	-0.042
-482.391	-200.000	0.031	0.199
-481.376	-40.567	0.446	-0.229
-480.362	230.337	0.086	0.138
-479.347	261.287	-0.059	-0.100
-478.332	800.000	0.047	-0.197
-477.318	90.076	-0.238	0.263
-476.303	-122.788	-0.128	0.020
-475.289	0.772	0.259	0.183
-474.274	761.368	0.089	-0.239
-473.259	-4.176	-0.297	-0.203
-472.245	-162.731	0.106	-0.005
-471.230	590.736	0.086	-0.210
-470.216	36.587	0.156	0.136
-469.201	-106.642	0.183	0.040
-468.186	-198.788	-0.230	-0.001
-467.172	57.918	0.062	-0.060
-466.157	-13.644	0.261	-0.167
-465.143	-128.726	-0.428	0.060
-464.128	58.731	-0.143	0.139
-463.113	38.352	-0.082	0.072
-462.099	-200.000	-0.019	0.102
-461.084	204.704	0.162	-0.248
-460.070	297.583	0.086	-0.155
-459.055	800.000	-0.044	-0.130
-458.040	174.982	0.040	-0.057
-457.026	-200.000	-0.008	0.099
-456.011	138.130	-0.065	0.084
-454.997	-200.000	-0.046	0.357
-453.982	-200.000	0.009	0.138
-452.968	800.000	0.061	-0.179
-451.953	25.805	-0.131	0.108
-450.938	800.000	-0.053	0.171
-449.924	800.000	0.051	-0.201
-448.909	25.235	-0.259	-0.212
-447.895	-28.367	0.050	-0.029
-446.880	-200.000	0.005	0.036
-445.865	30.210	0.125	-0.105
-444.851	241.484	-0.163	-0.268
-443.836	-200.000	0.005	0.066
-442.822	-200.000	0.041	-0.215
-441.807	50.724	0.055	-0.052
-440.792	-37.598	0.002	-0.001
-439.778	32.561	0.112	-0.096
-438.763	-30.378	-0.083	-0.046
-437.749	800.000	0.046	-0.199
-436.734	129.949	-0.202	0.255
-435.719	-87.783	-0.085	0.025
-434.705	-143.484	-0.286	0.027
-433.690	-12.696	0.142	-0.091
-432.676	108.367	-0.034	-0.040
-431.661	-200.000	0.009	0.211
-430.646	-200.000	-0.016	-0.372
-429.632	6.878	-0.428	-0.314
-428.617	578.929	-0.112	0.270
-427.603	-124.589	-0.267	-0.041
-426.588	7.932	-0.120	0.088
-425.573	-185.460	0.369	0.006
-424.559	-200.000	0.015	0.180
-423.544	-200.000	-0.070	0.363
-422.530	-3.124	0.124	0.085
-421.515	-200.000	-0.009	-0.292
-420.500	-134.031	-0.094	0.012
-419.486	90.140	0.131	0.145
-418.471	-200.000	-0.030	-0.132
-417.457	206.342	0.077	-0.119
-416.442	-200.000	-0.023	-0.107
-415.428	44.763	-0.219	0.199
-414.413	-144.455	-0.269	0.025
-413.398	800.000	-0.037	0.145
-412.384	-133.990	0.211	0.026
-411.369	45.512	0.131	-0.119
-410.355	800.000	-0.053	-0.196
-409.340	153.276	-0.143	0.193
-408.325	119.642	0.081	0.099
-407.311	58.707	-0.091	0.088
-406.296	800.000	-0.063	-0.256
-405.282	-200.000	0.048	-0.219
-404.267	-200.000	0.019	0.289
-403.252	-200.000	-0.032	-0.147
-402.238	-151.547	0.054	0.004
-401.223	-14.096	-0.078	0.050
-400.209	-200.000	-0.032	0.188
-399.194	-200.000	0.006	0.208
-398.179	-200.000	-0.050	0.245
-397.165	130.091	-0.102	-0.129
-396.150	18.406	0.241	0.189
-395.136	129.284	0.111	0.140
-394.121	410.357	-0.170	0.355
-393.106	-200.000	-0.078	0.421
-392.092	-50.863	-0.143	0.066
-391.077	-200.000	-0.051	-0.328
-390.063	125.656	0.185	0.230
-389.048	116.008	0.218	0.263
-388.033	-108.648	-0.373	-0.079
-387.019	610.272	0.103	0.252
-386.004	582.992	-0.063	-0.152
-384.990	800.000	0.075	0.267
-383.975	250.845	0.168	-0.282
-382.960	-42.840	0.025	-0.013
-381.946	82.111	0.197	0.210
-380.931	-200.000	0.092	0.000
-379.917	-18.305	-0.184	-0.113
-378.902	800.000	-0.037	-0.155
-377.888	375.798	0.149	0.299
-376.873	-107.904	0.115	-0.025
-375.858	399.455	-0.121	-0.250
-374.844	57.456	-0.233	0.224
-373.829	-86.933	-0.454	0.136
-372.815	-81.714	-0.352	0.114
-371.800	-200.000	-0.014	0.394
-370.785	565.811	0.126	-0.300
-369.771	-123.653	0.273	-0.043
-368.756	-139.321	-0.156	-0.017
-367.742	13.570	-0.262	0.200
-366.727	-97.732	0.212	0.054
-365.712	142.722	0.081	0.106
-364.698	800.000	0.035	-0.112
-363.683	-5.853	0.142	-0.095
-362.669	800.000	-0.091	-0.278
-361.654	-200.000	-0.003	-0.342
-360.639	-200.000	-0.017	0.339
-359.625	-149.431	-0.125	0.010
-358.610	75.045	-0.294	0.305
-357.596	779.949	-0.051	-0.138
-356.581	11.922	-0.315	-0.238
-355.566	-200.000	0.019	-0.118
-354.552	800.000	0.081	-0.272
-353.537	-200.000	0.016	-0.235
-352.523	-68.339	-0.114	-0.044
-351.508	111.434	-0.147	-0.174
-350.493	199.294	-0.178	-0.269
-349.479	800.000	0.030	0.126
-348.464	-132.640	-0.138	0.017
-347.450	-200.000	0.030	0.146
-346.435	301.248	-0.107	0.194
-345.420	-200.000	0.010	-0.142
-344.406	-146.309	-0.158	-0.014
-343.391	18.215	0.127	0.100
-342.377	-65.171	-0.102	-0.041
-341.362	-71.863	0.260	0.095
-340.348	137.602	0.210	0.270
-339.333	-38.173	-0.274	0.143
-338.318	235.378	-0.065	0.105
-337.304	180.105	-0.150	0.216
-336.289	-191.667	-0.327	-0.003
-335.275	800.000	0.081	0.275
-334.260	-156.900	0.151	-0.009
-333.245	32.429	-0.067	-0.057
-332.231	-200.000	0.014	-0.173
-331.216	-58.793	-0.187	0.080
-330.202	84.284	-0.089	-0.095
-329.187	-65.601	-0.084	0.033
-328.172	390.485	-0.098	0.200
-327.158	480.390	0.068	0.150
-326.143	-23.820	0.242	-0.142
-325.129	-15.456	0.129	-0.081
-324.114	-157.220	0.290	0.017
-323.099	155.578	0.132	-0.179
-322.085	-50.865	0.124	-0.057
-321.070	-200.000	0.009	0.059
-320.056	-72.404	-0.281	-0.102
-319.041	-47.998	-0.227	0.108
-318.026	-139.283	0.356	0.038
-317.012	-123.357	-0.378	0.059
-315.997	-165.178	0.200	0.009
-314.983	329.174	0.082	0.155
-313.968	-142.225	0.138	-0.013
-312.953	-50.171	-0.290	-0.135
-311.939	800.000	-0.009	0.035
-310.924	199.924	0.138	0.207
-309.910	-133.108	-0.158	-0.020
-308.895	800.000	-0.123	-0.349
-307.880	-200.000	0.027	0.162
-306.866	-200.000	0.006	-0.083
-305.851	-101.384	-0.233	0.056
-304.837	-48.666	-0.303	-0.143
-303.822	439.581	0.120	0.258
-302.807	-200.000	-0.057	0.309
-301.793	694.500	-0.059	-0.151
-300.778	800.000	0.049	-0.140
-299.764	-101.922	0.261	-0.062
-298.749	-200.000	-0.033	-0.155
-297.735	-181.440	-0.220	-0.004
-296.720	-171.474	0.043	0.001
-295.705	-61.671	-0.261	0.107
-294.691	79.065	0.140	-0.147
-293.676	-41.541	0.099	-0.050
-292.662	43.968	0.050	0.045
-291.647	46.201	0.151	0.137
-290.632	-200.000	0.043	0.259
-289.618	153.922	0.229	0.307
-288.603	-70.578	-0.352	0.131
-287.589	10.250	-0.239	-0.178
-286.574	519.024	0.122	0.279
-285.559	-48.270	-0.163	0.077
-284.545	124.931	0.180	-0.223
-283.530	344.532	0.107	0.205
-282.516	122.650	-0.027	-0.033
-281.501	-200.000	0.143	-0.617
-280.486	36.853	0.237	-0.206
-279.472	-200.000	-0.001	0.130
-278.457	-99.476	0.122	-0.030
-277.443	-200.000	-0.014	-0.138
-276.428	-41.059	0.189	-0.096
-275.413	-144.070	0.086	0.008
-274.399	-51.905	-0.213	0.097
-273.384	-200.000	-0.006	-0.083
-272.370	-126.076	0.186	-0.027
-271.355	-148.252	0.177	0.014
-270.340	-200.000	0.021	0.326
-269.326	800.000	0.085	0.338
-268.311	-200.000	-0.012	0.172
-267.297	16.016	0.081	0.063
-266.282	-118.012	0.235	0.041
-265.267	280.001	-0.043	0.076
-264.253	-60.928	0.042	0.017
-263.238	421.310	0.081	0.171
-262.224	-96.106	-0.106	0.028
-261.209	-200.000	0.021	-0.309
-260.195	-200.000	-0.016	-0.132
-259.180	21.799	-0.241	0.192
-258.165	-17.525	-0.148	0.091
-257.151	-200.000	-0.046	-0.296
-256.136	-200.000	-0.047	0.264
-255.122	800.000	0.079	0.243
-254.107	0.147	-0.153	0.107
-253.092	800.000	0.104	-0.386
-252.078	156.759	-0.104	0.140
-251.063	800.000	0.009	-0.033
-250.049	800.000	-0.014	0.059
-249.034	203.450	0.148	0.224
-248.019	800.000	0.007	0.023
-247.005	39.437	-0.065	-0.057
-245.990	-17.545	-0.049	-0.030
-244.976	-63.406	0.187	0.075
-243.961	418.357	-0.051	0.107
-242.946	-97.720	0.177	-0.045
-241.932	-5.536	0.184	0.124
-240.917	-89.198	-0.122	-0.035
-239.903	85.360	0.090	0.096
-238.888	597.702	-0.111	0.268
-237.873	-200.000	0.039	-0.240
-236.859	800.000	-0.073	-0.226
-235.844	187.815	0.160	-0.233
-234.830	-200.000	-0.021	0.128
-233.815	-14.243	-0.239	0.151
-232.800	-144.585	0.557	0.050
-231.786	800.000	0.044	-0.141
-230.771	108.807	-0.120	-0.140
-229.757	800.000	0.043	0.162
-228.742	800.000	-0.108	-0.400
-227.727	92.325	0.347	-0.383
-226.713	264.720	0.068	-0.116
-225.698	11.159	-0.152	0.114
-224.684	-108.756	0.042	-0.009
-223.669	-200.000	0.014	0.135
-222.655	601.493	-0.049	-0.119
-221.640	-174.565	-0.193	-0.005
-220.625	800.000	0.072	-0.276
-219.611	800.000	0.056	0.175
-218.596	-200.000	-0.022	-0.155
-217.582	189.858	-0.119	0.175
-216.567	89.968	0.168	-0.184
-215.552	182.518	0.071	-0.103
-214.538	-30.809	0.147	-0.081
-213.523	-10.268	0.261	-0.170
-212.509	800.000	-0.056	0.212
-211.494	19.975	0.230	-0.181
-210.479	-25.123	0.283	0.164
-209.465	-59.498	0.236	0.099
-208.450	107.425	-0.078	-0.091
-207.436	507.492	-0.136	-0.309
-206.421	0.878	0.112	-0.078
-205.406	800.000	0.073	-0.292
-204.392	-200.000	0.002	-0.091
-203.377	-108.411	-0.131	0.028
-202.363	328.528	0.156	-0.293
-201.348	-96.867	0.409	-0.105
-200.333	-18.486	-0.304	0.186
-199.319	-77.231	-0.396	-0.135
-198.304	48.583	-0.093	-0.085
-197.290	-200.000	0.010	-0.073
-196.275	280.286	0.085	-0.148
-195.260	340.955	-0.141	0.270
-194.246	-200.000	0.013	0.173
-193.231	70.015	0.314	-0.317
-192.217	-37.365	-0.266	0.139
-191.202	-64.587	-0.399	0.158
-190.187	445.152	-0.055	0.118
-189.173	37.964	-0.241	0.209
-188.158	-53.321	-0.237	-0.106
-187.144	-149.936	0.458	-0.035
-186.129	-200.000	-0.016	0.132
-185.114	-200.000	-0.041	-0.316
-184.100	-200.000	0.005	-0.243
-183.085	800.000	-0.010	-0.034
-182.071	-34.378	-0.193	0.103
-181.056	-127.570	-0.359	-0.051
-180.042	-200.000	-0.062	0.515
-179.027	-73.501	-0.183	-0.065
-178.012	-56.629	0.270	-0.117
-176.998	59.899	0.447	0.431
-175.983	-200.000	-0.055	0.424
-174.969	-114.761	0.016	0.003
-173.954	-30.692	0.135	0.075
-172.939	-15.732	0.107	-0.066
-171.925	-197.417	-0.133	-0.001
-170.910	800.000	0.029	-0.084
-169.896	800.000	-0.028	0.095
-168.881	502.934	0.075	-0.170
-167.866	-25.957	0.270	-0.155
-166.852	-0.799	-0.144	0.100
-165.837	-56.335	0.247	-0.107
-164.823	-88.815	0.064	0.019
-163.808	800.000	-0.071	0.255
-162.793	-3.308	-0.225	-0.153
-161.779	-193.799	0.099	0.001
-160.764	-121.263	0.162	0.026
-159.750	-106.716	-0.390	-0.085
-158.735	138.257	0.157	0.201
-157.720	-182.701	0.071	0.001
-156.706	-200.000	-0.039	0.312
-155.691	441.907	0.173	0.369
-154.677	-48.761	0.275	0.129
-153.662	261.121	0.026	-0.045
-152.647	-1.812	0.253	-0.174
-151.633	-200.000	-0.003	0.148
-150.618	-74.273	-0.311	-0.110
-149.604	-111.901	0.103	0.020
-148.589	-76.771	-0.421	-0.144
-147.574	-22.570	0.242	-0.143
-146.560	-200.000	-0.061	0.279
-145.545	53.807	0.173	-0.162
-144.531	-51.152	0.085	0.039
-143.516	523.703	-0.195	0.447
-142.502	449.105	0.130	-0.280
-141.487	-200.000	-0.023	0.525
-140.472	73.255	-0.161	0.164
-139.458	800.000	-0.052	0.183
-138.443	36.182	-0.197	0.169
-137.429	538.010	0.063	0.146
-136.414	-62.365	-0.048	0.020
-135.399	-117.154	-0.218	-0.039
-134.385	244.557	0.064	0.106
-133.370	-89.209	-0.116	0.033
-132.356	-22.647	0.072	-0.042
-131.341	-142.894	-0.156	-0.015
-130.326	87.271	-0.043	0.047
-129.312	800.000	0.103	0.280
-128.297	512.940	-0.119	0.270
-127.283	-132.189	-0.171	-0.022
-126.268	-140.899	-0.218	-0.022
-125.253	-200.000	-0.023	0.237
-124.239	226.293	0.067	-0.107
-123.224	-47.544	0.117	0.055
-122.210	27.812	0.085	-0.070
-121.195	-96.946	-0.174	-0.044
-120.180	800.000	0.032	-0.125
-119.166	169.161	0.021	0.030
-118.151	-170.805	-0.241	-0.008
-117.137	159.930	0.225	-0.306
-116.122	346.663	0.138	-0.265
-115.107	30.745	0.047	-0.039
-114.093	-90.492	0.345	-0.097
-113.078	-15.655	-0.086	-0.053
-112.064	574.374	-0.111	-0.265
-111.049	-88.891	0.138	-0.040
-110.034	-3.120	0.047	0.032
-109.020	-200.000	-0.036	0.185
-108.005	43.110	0.255	-0.226
-106.991	800.000	-0.067	-0.224
-105.976	-168.859	-0.217	0.008
-104.962	213.290	-0.024	0.037
-103.947	-161.004	-0.378	-0.019
-102.932	-200.000	0.040	0.204
-101.918	136.064	0.071	0.090
-100.903	45.585	-0.202	-0.181
-99.889	475.689	0.016	-0.036
-98.874	-65.819	0.436	0.170
-97.859	148.646	-0.154	0.203
-96.845	286.053	-0.019	0.033
-95.830	-186.353	-0.112	0.002
-94.816	-1.503	0.121	-0.083
-93.801	124.531	0.036	0.044
-92.786	-137.662	0.198	-0.022
-91.772	800.000	0.107	0.390
-90.757	-105.560	-0.197	-0.044
-89.743	-200.000	0.016	0.110
-88.728	184.630	-0.079	0.114
-87.713	128.052	-0.058	-0.072
-86.699	-200.000	0.015	-0.161
-85.684	-200.000	0.008	-0.073
-84.670	-51.863	-0.258	-0.117
-83.655	-75.740	0.025	-0.009
-82.640	518.254	0.019	-0.042
-81.626	-70.113	0.193	0.071
-80.611	337.155	0.026	0.050
-79.597	91.847	-0.059	0.065
-78.582	72.778	0.166	0.169
-77.567	773.664	-0.091	0.242
-76.553	-143.544	-0.202	0.019
-75.538	-200.000	-0.019	0.259
-74.524	-46.577	-0.213	0.102
-73.509	22.519	-0.005	-0.004
-72.494	122.863	0.032	0.040
-71.480	-15.315	0.224	-0.139
-70.465	-75.648	-0.201	-0.069
-69.451	-98.306	0.327	-0.082
-68.436	-161.478	-0.309	-0.015
-67.422	122.425	-0.097	0.118
-66.407	165.675	0.175	0.240
-65.392	-0.319	-0.309	-0.214
-64.378	-49.850	0.163	-0.075
-63.363	800.000	-0.106	-0.351
-62.349	-22.334	-0.106	0.063
-61.334	45.272	-1.033	-0.926
-60.319	10.329	1.009	0.746
-59.305	-200.000	-0.313	-1.353
-58.290	195.733	0.908	1.342
-57.276	508.424	0.577	1.303
-56.261	-200.000	125.271	669.718
-55.246	432.336	1571.183	3312.095
-54.232	143.418	2731.420	3534.943
-53.217	91.000	2288.735	2495.192
-52.203	32.360	1899.046	1593.809
-51.188	26.321	1695.908	1377.405
-50.173	24.154	1657.790	1330.228
-49.159	45.943	1726.893	1552.893
-48.144	43.280	1738.890	1543.283
-47.130	25.920	1689.680	1369.076
-46.115	23.436	1674.403	1337.929
-45.100	23.097	1669.614	1331.491
-44.086	23.243	1666.626	1330.156
-43.071	23.227	1664.219	1328.060
-42.057	23.059	1663.059	1325.823
-41.042	23.147	1660.549	1324.429
-40.027	23.150	1658.610	1322.855
-39.013	23.109	1656.550	1320.848
-37.998	23.025	1655.761	1319.544
-36.984	23.231	1653.883	1319.532
-35.969	23.216	1652.540	1318.290
-34.954	23.259	1650.944	1317.285
-33.940	23.143	1649.834	1315.490
-32.925	23.144	1647.326	1313.443
-31.911	23.297	1645.816	1313.319
-30.896	23.304	1644.017	1311.887
-29.881	23.240	1642.824	1310.410
-28.867	23.306	1641.071	1309.442
-27.852	23.292	1639.749	1308.234
-26.838	23.169	1638.333	1306.145
-25.823	23.238	1636.822	1305.398
-24.809	23.304	1635.718	1304.954
-23.794	23.247	1635.089	1303.975
-22.779	23.318	1633.168	1302.917
-21.765	23.227	1631.380	1300.769
-20.750	23.293	1629.578	1299.765
-19.736	23.293	1628.572	1298.912
-18.721	23.251	1627.272	1297.518
-17.706	23.277	1625.609	1296.328
-16.692	23.245	1623.916	1294.697
-15.677	23.317	1622.512	1294.048
-14.663	23.330	1620.943	1292.844
-13.648	23.307	1620.209	1292.035
-12.633	23.248	1618.818	1290.445
-11.619	23.322	1617.111	1289.575
-10.604	23.279	1615.319	1287.782
-9.590	23.417	1614.254	1287.880
-8.575	23.326	1613.263	1286.383
-7.560	23.223	1611.751	1284.377
-6.546	23.267	1610.930	1283.992
-5.531	23.276	1609.541	1282.898
-4.517	23.320	1608.750	1282.538
-3.502	23.311	1607.171	1281.159
-2.487	23.303	1605.236	1279.505
-1.473	22.863	1593.245	1266.744
-0.458	19.981	1573.674	1230.680
0.556	14.987	1574.793	1199.479
1.571	12.680	1598.779	1200.831
2.586	12.337	1610.989	1207.374
3.600	11.421	1556.440	1159.881
4.615	6.332	1450.866	1047.326
5.629	1.179	1392.871	972.392
6.644	0.263	1386.073	961.713
7.659	0.110	1384.801	959.771
8.673	0.121	1383.929	959.151
9.688	0.187	1380.646	957.211
10.702	-0.031	1377.934	953.865
11.717	2.552	1381.056	972.350
12.731	9.331	1391.829	1023.097
13.746	15.117	1400.387	1066.239
14.761	16.742	1402.348	1077.988
15.775	16.169	1400.256	1072.643
16.790	15.246	1397.604	1064.657
17.804	14.490	1395.173	1057.917
18.819	14.044	1394.169	1054.230
19.834	13.848	1392.853	1051.902
20.848	13.674	1391.848	1049.950
21.863	13.458	1390.033	1047.117
22.877	13.293	1388.985	1045.193
23.892	13.131	1388.412	1043.645
24.907	13.111	1387.428	1042.688
25.921	13.242	1386.338	1042.602
26.936	13.235	1385.358	1041.734
27.950	13.276	1384.422	1041.190
28.965	13.423	1383.129	1041.051
29.980	13.295	1382.659	1039.800
30.994	13.429	1381.544	1039.713
32.009	13.483	1380.851	1039.441
33.023	13.357	1379.673	1037.671
34.038	13.341	1378.633	1036.697
35.053	13.285	1377.643	1035.507
36.067	13.330	1376.245	1034.649
37.082	13.228	1375.342	1033.240
38.096	13.360	1374.700	1033.491
39.111	13.375	1373.407	1032.520
40.126	13.357	1372.130	1031.355
41.140	13.149	1372.072	1029.925
42.155	13.070	1371.578	1028.973
43.169	13.165	1371.403	1029.344
44.184	13.246	1370.336	1028.954
45.199	13.196	1370.350	1028.564
46.213	13.201	1369.660	1027.983
47.228	13.233	1368.864	1027.495
48.242	13.356	1367.401	1027.069
49.257	13.177	1366.213	1024.978
50.271	13.337	1364.295	1024.437
51.286	13.342	1362.766	1023.227
52.301	13.286	1361.965	1022.192
53.315	13.169	1361.036	1020.681
54.330	13.163	1360.158	1019.895
55.344	13.217	1358.571	1018.945
56.359	13.202	1357.221	1017.751
57.374	13.201	1356.903	1017.416
58.388	13.080	1356.066	1015.954
59.403	13.086	1355.441	1015.433
60.417	13.237	1353.731	1014.990
61.432	13.153	1353.600	1014.284
62.447	13.042	1352.954	1013.034
63.461	13.165	1350.655	1011.976
64.476	13.068	1350.438	1011.129
65.490	13.001	1349.552	1009.967
66.505	13.144	1346.908	1008.773
67.520	13.170	1345.915	1008.095
68.534	13.149	1344.773	1007.023
69.549	13.133	1344.041	1006.289
70.563	13.133	1342.845	1005.303
71.578	13.103	1341.519	1004.040
72.593	13.120	1340.789	1003.510
73.607	13.002	1340.086	1002.175
74.622	12.992	1339.588	1001.656
75.636	12.982	1338.694	1000.838
76.651	13.061	1337.612	1000.420
77.666	13.015	1337.255	999.787
78.680	13.109	1336.481	999.688
79.695	13.090	1335.805	998.980
80.709	13.134	1334.545	998.213
81.724	13.264	1333.339	998.006
82.739	13.128	1332.893	996.762
83.753	13.277	1331.513	996.540
84.768	13.250	1330.998	995.909
85.782	13.295	1329.780	995.179
86.797	13.308	1328.341	994.090
87.812	13.171	1327.401	992.480
88.826	13.165	1326.188	991.446
89.841	13.316	1324.753	991.190
90.855	13.265	1324.105	990.312
91.870	13.335	1322.979	989.801
92.884	13.396	1321.976	989.328
93.899	13.402	1321.313	988.778
94.914	13.386	1320.517	988.004
95.928	13.441	1320.081	987.914
96.943	13.312	1318.904	986.181
97.957	13.404	1318.025	985.985
98.972	13.348	1316.798	984.642
99.987	13.360	1316.051	984.068
101.001	13.290	1315.311	983.012
102.016	13.297	1314.008	981.993
103.030	13.414	1312.918	981.785
104.045	13.450	1311.940	981.180
105.060	13.270	1310.546	978.989
106.074	13.294	1309.511	978.271
107.089	13.238	1308.106	976.803
108.103	13.173	1306.963	975.475
109.118	13.210	1305.596	974.587
110.133	13.209	1304.008	973.315
111.147	13.205	1302.855	972.345
112.162	13.234	1301.794	971.637
113.176	13.175	1301.595	971.051
114.191	13.220	1299.818	969.904
115.206	13.262	1298.776	969.290
116.220	13.213	1297.428	967.910
117.235	13.250	1296.244	967.159
118.249	13.299	1295.185	966.570
119.264	13.211	1294.156	965.199
120.279	13.190	1293.093	964.203
121.293	13.256	1291.829	963.556
122.308	13.127	1290.854	961.994
123.322	13.212	1289.876	961.674
124.337	13.263	1288.610	960.940
125.352	13.177	1287.636	959.633
126.366	13.146	1286.557	958.560
127.381	13.132	1285.647	957.715
128.395	13.197	1284.294	957.002
129.410	13.217	1283.260	956.262
130.424	13.183	1282.778	955.620
131.439	13.332	1281.148	955.182
132.454	13.259	1280.648	954.306
133.468	13.081	1279.989	952.700
134.483	13.261	1279.065	952.969
135.497	13.203	1277.945	951.713
136.512	13.226	1276.764	950.882
137.527	13.194	1275.364	949.573
138.541	13.225	1273.799	948.504
139.556	13.326	1272.160	947.779
140.570	13.339	1270.996	946.900
141.585	13.404	1270.005	946.447
142.600	13.317	1269.157	945.239
143.614	13.451	1268.360	945.326
144.629	13.449	1267.045	944.252
145.643	13.356	1266.063	942.903
146.658	13.507	1264.569	942.570
147.673	13.348	1263.298	940.631
148.687	13.391	1262.005	939.833
149.702	13.307	1260.973	938.501
150.716	13.297	1259.686	937.407
151.731	13.409	1257.992	936.694
152.746	13.455	1256.918	936.074
153.760	13.416	1256.070	935.137
154.775	13.457	1254.837	934.367
155.789	13.533	1253.417	933.660
156.804	13.480	1252.743	932.774
157.819	13.538	1251.623	932.184
158.833	13.524	1250.718	931.348
159.848	13.522	1249.707	930.503
160.862	13.499	1248.714	929.550
161.877	13.539	1247.417	928.729
162.892	13.514	1246.287	927.667
163.906	13.482	1245.515	926.827
164.921	13.587	1244.668	926.706
165.935	13.593	1243.572	925.841
166.950	13.669	1242.521	925.399
167.964	13.466	1242.570	924.219
168.979	13.570	1241.472	923.902
169.994	13.524	1241.011	923.220
171.008	13.548	1239.801	922.372
172.023	13.643	1238.363	921.747
173.037	13.694	1237.851	921.571
174.052	13.648	1237.169	920.728
175.067	13.611	1236.239	919.748
176.081	13.645	1235.296	919.155
177.096	13.650	1234.401	918.436
178.110	13.540	1233.386	916.987
179.125	13.696	1231.800	916.591
180.140	13.603	1230.930	915.346
181.154	13.810	1229.144	915.079
182.169	13.669	1228.771	913.944
183.183	13.759	1227.411	913.345
184.198	13.761	1225.920	912.169
185.213	13.773	1224.743	911.279
186.227	13.842	1223.773	910.855
187.242	13.810	1223.205	910.174
188.256	13.910	1222.086	909.812
189.271	13.881	1220.986	908.752
190.286	13.817	1219.683	907.353
191.300	13.659	1218.756	905.719
192.315	13.690	1218.653	905.732
193.329	13.703	1217.629	904.959
194.344	13.782	1216.897	904.768
195.359	13.817	1216.448	904.544
196.373	13.810	1216.000	904.091
197.388	13.863	1215.723	904.098
198.402	13.909	1215.255	903.921
199.417	14.127	1213.913	904.024
200.432	13.975	1213.418	902.750
201.446	13.963	1212.559	901.964
202.461	14.170	1211.484	902.208
203.475	14.160	1210.396	901.266
204.490	14.045	1208.754	899.341
205.504	13.991	1207.637	898.137
206.519	14.112	1206.264	897.692
207.534	14.133	1205.109	896.863
208.548	14.031	1204.589	895.850
209.563	14.171	1203.600	895.789
210.577	14.044	1202.953	894.545
211.592	14.166	1201.689	894.179
212.607	14.176	1201.417	893.954
213.621	14.159	1200.155	892.843
214.636	14.166	1199.352	892.207
215.650	14.210	1198.344	891.610
216.665	14.279	1197.504	891.280
217.680	14.285	1196.617	890.569
218.694	14.190	1196.257	889.717
219.709	14.302	1194.929	889.248
220.723	14.377	1194.388	889.168
221.738	14.262	1193.514	887.823
222.753	14.356	1192.977	887.849
223.767	14.276	1192.375	886.895
224.782	14.288	1191.610	886.310
225.796	14.455	1190.730	886.465
226.811	14.393	1189.910	885.447
227.826	14.432	1189.443	885.231
228.840	14.450	1188.784	884.755
229.855	14.366	1188.504	884.026
230.869	14.430	1186.854	883.055
231.884	14.474	1186.129	882.674
232.899	14.451	1185.091	881.703
233.913	14.464	1184.692	881.392
234.928	14.375	1184.384	880.617
235.942	14.322	1183.372	879.506
236.957	14.513	1182.028	879.436
237.972	14.361	1182.021	878.551
238.986	14.287	1181.442	877.654
240.001	14.496	1180.321	877.846
241.015	14.605	1179.408	877.659
242.030	14.523	1178.419	876.415
243.045	14.590	1177.483	875.994
244.059	14.579	1177.126	875.593
245.074	14.598	1176.370	875.055
246.088	14.533	1175.837	874.237
247.103	14.611	1174.753	873.762
248.117	14.735	1173.664	873.523
249.132	14.690	1173.673	873.222
250.147	14.758	1172.439	872.576
251.161	14.889	1171.587	872.551
252.176	14.865	1170.960	871.880
253.190	14.723	1170.784	870.933
254.205	14.790	1170.063	870.671
255.220	14.867	1169.399	870.497
256.234	14.837	1168.953	869.936
257.249	14.906	1168.321	869.746
258.263	14.930	1167.184	868.946
259.278	14.904	1166.798	868.449
260.293	15.065	1165.877	868.518
261.307	15.003	1165.414	867.779
262.322	15.068	1164.599	867.431
263.336	15.090	1164.112	867.106
264.351	15.116	1163.818	866.944
265.366	15.156	1162.673	866.219
266.380	15.115	1161.908	865.360
267.395	15.038	1161.021	864.226
268.409	15.120	1160.401	864.113
269.424	15.090	1160.012	863.593
270.439	15.114	1159.488	863.249
271.453	15.115	1158.684	862.580
272.468	15.089	1157.422	861.432
273.482	15.123	1156.966	861.189
274.497	15.081	1156.437	860.504
275.512	15.165	1155.887	860.447
276.526	15.164	1154.967	859.683
277.541	15.116	1154.146	858.748
278.555	15.213	1153.296	858.536
279.570	15.272	1152.701	858.321
280.585	15.189	1151.889	857.217
281.599	15.267	1150.930	856.825
282.614	15.332	1149.947	856.351
283.628	15.338	1148.341	855.108
284.643	15.398	1147.842	854.966
285.657	15.365	1147.204	854.249
286.672	15.338	1146.061	853.183
287.687	15.365	1145.312	852.689
288.701	15.301	1144.690	851.823
289.716	15.409	1143.709	851.565
290.730	15.424	1142.816	850.903
291.745	15.437	1142.399	850.583
292.760	15.458	1141.891	850.238
293.774	15.337	1141.360	849.155
294.789	15.528	1140.221	849.198
295.803	15.486	1140.091	848.810
296.818	15.537	1139.256	848.373
297.833	15.526	1138.461	847.650
298.847	15.465	1137.888	846.840
299.862	15.538	1136.751	846.286
300.876	15.617	1136.045	846.085
301.891	15.542	1135.441	845.183
302.906	15.620	1134.899	845.099
303.920	15.634	1133.980	844.407
304.935	15.598	1133.633	843.894
305.949	15.646	1132.662	843.339
306.964	15.729	1132.128	843.284
307.979	15.633	1131.734	842.432
308.993	15.707	1130.835	842.060
310.008	15.578	1130.453	841.054
311.022	15.833	1129.173	841.300
312.037	15.841	1128.312	840.627
313.052	15.806	1127.407	839.702
314.066	15.683	1126.557	838.383
315.081	15.675	1125.902	837.782
316.095	15.665	1125.073	837.038
317.110	15.690	1124.712	836.821
318.125	15.682	1123.513	835.818
319.139	15.708	1122.874	835.397
320.154	15.761	1122.092	835.006
321.168	15.649	1121.974	834.289
322.183	15.789	1120.760	834.003
323.197	15.800	1120.664	833.914
324.212	15.727	1120.150	833.097
325.227	15.864	1118.858	832.739
326.241	15.769	1118.649	832.039
327.256	15.767	1117.608	831.183
328.270	15.881	1116.884	831.133
329.285	15.794	1115.742	829.781
330.300	15.998	1114.571	829.841
331.314	15.863	1114.433	828.999
332.329	15.756	1113.380	827.614
333.343	15.872	1112.357	827.351
334.358	15.973	1111.236	826.940
335.373	15.863	1110.993	826.147
336.387	15.975	1109.815	825.749
337.402	16.002	1108.839	825.082
338.416	16.098	1108.257	825.043
339.431	16.031	1107.432	824.029
340.446	16.100	1106.956	823.938
341.460	16.183	1106.478	823.914
342.475	16.093	1106.111	823.129
343.489	16.134	1104.881	822.344
344.504	16.171	1104.225	821.962
345.519	16.332	1102.792	821.608
346.533	16.391	1101.744	821.038
347.548	16.326	1101.390	820.385
348.562	16.316	1100.842	819.857
349.577	16.213	1100.219	818.820
350.592	16.168	1099.438	817.949
351.606	16.168	1098.295	817.024
352.621	16.143	1097.893	816.534
353.635	16.197	1097.386	816.344
354.650	16.185	1096.222	815.352
355.665	16.115	1095.675	814.534
356.679	16.267	1095.058	814.737
357.694	16.390	1094.464	814.813
358.708	16.454	1093.352	814.225
359.723	16.411	1092.996	813.681
360.738	16.363	1092.551	813.047
361.752	16.495	1091.694	812.968
362.767	16.443	1091.020	812.146
363.781	16.305	1090.873	811.301
364.796	16.389	1090.476	811.336
365.810	16.577	1089.311	811.300
366.825	16.621	1088.750	811.022
367.840	16.594	1088.105	810.339
368.854	16.763	1087.225	810.424
369.869	16.647	1086.971	809.608
370.883	16.676	1086.001	808.953
371.898	16.622	1085.698	808.394
372.913	16.618	1084.696	807.560
373.927	16.723	1084.170	807.597
374.942	16.678	1083.744	806.994
375.956	16.721	1083.347	806.830
376.971	16.664	1082.677	805.991
377.986	16.719	1082.226	805.846
379.000	16.801	1081.326	805.495
380.015	16.916	1080.463	805.324
381.029	16.733	1080.262	804.236
382.044	16.723	1079.645	803.657
383.059	16.972	1078.704	804.066
384.073	16.861	1077.927	802.889
385.088	16.869	1077.032	802.190
386.102	16.982	1075.781	801.723
387.117	16.955	1075.219	801.105
388.132	16.792	1074.456	799.693
389.146	16.905	1073.751	799.633
390.161	16.848	1073.262	798.930
391.175	17.075	1071.811	798.846
392.190	17.070	1071.342	798.401
393.205	16.988	1070.878	797.602
394.219	16.926	1070.337	796.836
395.234	16.853	1069.525	795.820
396.248	16.869	1068.237	794.865
397.263	16.940	1067.096	794.277
398.278	16.947	1066.440	793.750
399.292	16.866	1065.585	792.669
400.307	17.041	1064.893	792.900
401.321	16.891	1064.715	791.996
402.336	16.903	1063.966	791.424
403.350	17.050	1063.154	791.437
404.365	17.056	1062.352	790.800
405.380	16.973	1061.700	789.857
406.394	17.010	1060.976	789.418
407.409	17.207	1060.306	789.765
408.423	17.159	1059.500	788.875
409.438	17.305	1058.595	788.809
410.453	17.201	1058.282	788.024
411.467	17.181	1057.401	787.204
412.482	17.391	1056.566	787.483
413.496	17.244	1056.069	786.366
414.511	17.441	1055.096	786.483
415.526	17.327	1055.305	786.040
416.540	17.288	1054.807	785.420
417.555	17.364	1054.144	785.205
418.569	17.318	1053.631	784.544
419.584	17.362	1053.086	784.269
420.599	17.335	1052.981	783.999
421.613	108.029	1330.803	1487.599
422.628	99.507	1371.216	1487.682
