DTS Sentinel unit serial number:	SN413079Multiplexer serial number:	ORYXHardware model number:	OX4-SRSoftware version number:	ORYX F/W v4.00 Oryx Data Collector v3.7.2.0data status	okinstallation	princeton_trtdifferential loss correction	single-endedforward channel	channel 2reverse channel	N/Adate	2019/09/18time	08:03:34forward acquisition time	60.00reverse acquisition time	0.00gamma	496.2192k internal	0.2346k external	0.2346temperature offset calibration	0.9976default loss term (dB/km)	0.3790temperature slope calibration	1.0000multiplexer offset coefficient	1.0000multiplexer slope coefficient	1.0000fibre end	0.00T internal ref (°C)	23.69T ext. ref 1 (°C)	0.20T ext. ref 2 (°C)	19.35length (m)	temperature (°C)	Stokes	anti-Stokes-747.200	317.469	0.158	0.299
-746.185	388.507	-0.244	0.506
-745.171	-200.000	0.009	0.251
-744.156	648.085	0.081	0.207
-743.142	256.033	-0.171	-0.293
-742.127	-177.155	-0.214	0.005
-741.112	338.232	0.119	0.232
-740.098	-151.434	-0.471	0.035
-739.083	800.000	0.053	-0.196
-738.069	-10.193	-0.263	0.174
-737.054	-34.578	-0.207	-0.113
-736.039	-34.644	-0.181	-0.099
-735.025	47.584	0.097	0.090
-734.010	14.600	-0.254	-0.198
-732.996	-200.000	-0.085	-0.410
-731.981	28.990	-0.249	0.211
-730.966	172.471	-0.061	-0.087
-729.952	-62.497	-0.142	-0.059
-728.937	-200.000	-0.010	-0.045
-727.923	-122.239	-0.315	0.051
-726.908	800.000	-0.033	-0.104
-725.894	212.774	-0.102	-0.161
-724.879	800.000	-0.083	0.256
-723.864	-18.397	-0.128	0.080
-722.850	36.313	0.150	0.132
-721.835	-125.780	-0.247	-0.037
-720.821	-8.842	-0.096	-0.064
-719.806	265.790	0.064	-0.112
-718.791	125.137	0.065	-0.082
-717.777	-200.000	0.007	-0.125
-716.762	-156.273	0.262	-0.016
-715.748	188.476	0.042	-0.062
-714.733	-101.933	0.095	-0.023
-713.718	-75.166	-0.319	0.114
-712.704	-25.501	-0.165	-0.098
-711.689	42.168	-0.160	-0.145
-710.675	-41.228	0.242	-0.125
-709.660	114.005	-0.090	-0.110
-708.645	800.000	0.153	-0.547
-707.631	94.187	-0.172	-0.195
-706.616	-200.000	0.038	-0.185
-705.602	-134.655	0.189	0.023
-704.587	-12.949	0.136	-0.088
-703.572	-81.734	0.141	-0.046
-702.558	-200.000	-0.040	-0.292
-701.543	-89.415	-0.228	0.067
-700.529	545.449	-0.053	-0.127
-699.514	-80.654	-0.184	-0.061
-698.499	205.465	-0.148	-0.229
-697.485	800.000	0.114	-0.403
-696.470	46.501	-0.086	-0.080
-695.456	-200.000	0.038	-0.312
-694.441	-51.912	-0.110	-0.051
-693.426	-200.000	0.015	-0.128
-692.412	800.000	-0.047	0.159
-691.397	-200.000	0.043	-0.199
-690.383	284.029	-0.104	0.187
-689.368	800.000	0.013	-0.054
-688.354	-70.251	-0.376	-0.142
-687.339	-200.000	0.038	0.191
-686.324	-47.879	-0.180	-0.087
-685.310	800.000	0.108	-0.390
-684.295	-47.370	-0.144	-0.070
-683.281	113.520	-0.064	0.078
-682.266	134.248	-0.119	0.154
-681.251	392.969	0.072	-0.149
-680.237	-200.000	-0.283	0.001
-679.222	663.188	0.043	-0.110
-678.208	-78.263	-0.121	-0.041
-677.193	266.979	0.176	-0.307
-676.178	-200.000	-0.037	0.171
-675.164	-66.160	0.163	-0.065
-674.149	79.801	-0.079	-0.085
-673.135	91.330	0.113	0.126
-672.120	124.755	-0.177	0.222
-671.105	10.496	0.250	-0.190
-670.091	-42.351	0.300	-0.153
-669.076	33.627	0.019	0.016
-668.062	100.425	-0.057	0.066
-667.047	-144.213	-0.185	0.017
-666.032	-24.343	-0.092	0.054
-665.018	479.096	0.134	0.302
-664.003	-3.224	-0.128	-0.089
-662.989	-200.000	0.001	-0.018
-661.974	-9.901	0.127	0.084
-660.959	-41.817	-0.196	0.100
-659.945	620.332	0.080	0.199
-658.930	-41.449	0.070	0.036
-657.916	63.529	-0.059	-0.059
-656.901	67.184	-0.034	-0.035
-655.886	45.070	-0.155	0.142
-654.872	-136.765	-0.247	-0.028
-653.857	667.230	-0.110	-0.284
-652.843	304.478	0.102	-0.189
-651.828	800.000	0.063	-0.175
-650.814	800.000	0.118	0.354
-649.799	-42.064	-0.081	-0.041
-648.784	-200.000	-0.039	-0.177
-647.770	102.923	-0.160	0.186
-646.755	129.261	-0.167	-0.212
-645.741	-97.894	0.136	0.035
-644.726	-86.577	-0.395	0.121
-643.711	-200.000	-0.030	-0.325
-642.697	104.338	0.076	-0.089
-641.682	-161.362	0.198	-0.010
-640.668	138.447	-0.064	-0.084
-639.653	-74.841	-0.321	-0.115
-638.638	-147.387	0.186	-0.016
-637.624	59.404	-0.369	0.362
-636.609	800.000	-0.078	-0.223
-635.595	-98.989	0.180	0.045
-634.580	-200.000	0.008	-0.163
-633.565	-136.784	-0.446	0.051
-632.551	800.000	-0.009	-0.030
-631.536	-82.462	0.318	0.103
-630.522	63.551	-0.040	0.040
-629.507	237.538	0.085	0.140
-628.492	-200.000	-0.023	0.173
-627.478	25.772	0.045	0.038
-626.463	86.407	-0.170	-0.187
-625.449	-125.031	-0.072	-0.011
-624.434	196.755	0.042	-0.063
-623.419	105.315	-0.220	-0.258
-622.405	333.119	-0.224	-0.432
-621.390	3.848	-0.188	0.136
-620.376	-154.112	0.242	-0.016
-619.361	800.000	-0.010	0.044
-618.346	28.700	-0.186	0.156
-617.332	-200.000	-0.016	-0.258
-616.317	-138.042	0.222	0.025
-615.303	-66.088	-0.149	-0.059
-614.288	-146.443	0.391	0.034
-613.273	476.079	0.154	0.346
-612.259	81.562	-0.190	0.205
-611.244	-200.000	0.001	0.162
-610.230	16.713	-0.190	-0.150
-609.215	13.892	0.030	0.023
-608.201	426.501	-0.110	0.237
-607.186	-101.942	0.194	-0.047
-606.171	-41.625	-0.172	-0.088
-605.157	420.608	-0.123	-0.263
-604.142	38.459	0.162	0.143
-603.128	401.052	0.052	0.108
-602.113	-200.000	-0.030	0.275
-601.098	85.451	-0.094	0.103
-600.084	554.482	-0.038	-0.091
-599.069	-141.769	-0.174	-0.017
-598.055	-129.201	0.331	-0.046
-597.040	-54.944	-0.539	-0.242
-596.025	-11.508	-0.249	-0.163
-595.011	800.000	-0.115	0.359
-593.996	55.869	-0.207	0.200
-592.982	-200.000	0.025	-0.261
-591.967	-200.000	0.013	0.162
-590.952	800.000	-0.113	-0.388
-589.938	-165.397	0.228	0.010
-588.923	-118.730	0.233	-0.041
-587.909	-152.776	-0.195	-0.014
-586.894	20.641	0.236	0.190
-585.879	653.465	0.115	-0.292
-584.865	-200.000	-0.009	-0.105
-583.850	74.951	0.140	-0.147
-582.836	111.354	0.071	0.085
-581.821	-146.270	-0.061	0.005
-580.806	-39.335	-0.155	-0.081
-579.792	-25.975	-0.303	0.177
-578.777	92.114	0.084	-0.094
-577.763	-80.565	0.057	0.019
-576.748	408.406	-0.126	-0.264
-575.733	337.395	-0.145	0.281
-574.719	296.108	-0.067	-0.123
-573.704	-167.696	0.237	0.009
-572.690	-9.700	-0.317	-0.210
-571.675	-91.123	0.224	-0.064
-570.661	98.605	0.179	0.205
-569.646	273.540	-0.128	-0.225
-568.631	-200.000	0.021	-0.104
-567.617	-80.531	-0.110	0.036
-566.602	800.000	0.115	-0.336
-565.588	203.009	0.155	0.238
-564.573	67.614	-0.171	0.173
-563.558	731.693	-0.052	-0.138
-562.544	38.846	0.126	0.112
-561.529	16.058	-0.195	-0.153
-560.515	-200.000	-0.044	-0.381
-559.500	291.380	0.042	-0.075
-558.485	14.733	-0.075	0.058
-557.471	714.979	-0.066	0.175
-556.456	-50.646	0.240	-0.112
-555.442	621.783	-0.137	0.343
-554.427	-143.944	0.113	0.011
-553.412	-70.782	0.269	-0.101
-552.398	-99.807	0.244	0.061
-551.383	261.673	-0.036	-0.062
-550.369	-153.182	0.276	0.019
-549.354	246.972	-0.047	0.079
-548.339	-96.354	-0.077	0.020
-547.325	-126.648	0.079	0.012
-546.310	800.000	0.068	-0.221
-545.296	800.000	-0.155	0.507
-544.281	668.997	0.130	0.334
-543.266	-172.259	0.355	0.011
-542.252	-200.000	-0.051	-0.232
-541.237	-126.786	0.262	-0.038
-540.223	-13.655	0.224	-0.144
-539.208	35.648	-0.175	0.152
-538.193	12.598	-0.205	-0.157
-537.179	-21.310	-0.312	0.189
-536.164	800.000	-0.042	0.128
-535.150	486.668	0.145	-0.328
-534.135	-47.067	0.060	0.029
-533.121	-200.000	-0.007	0.143
-532.106	-200.000	0.160	0.001
-531.091	131.175	0.293	-0.374
-530.077	-66.297	0.309	-0.122
-529.062	114.837	-0.059	-0.071
-528.048	37.455	-0.158	0.139
-527.033	-200.000	-0.018	-0.116
-526.018	213.118	-0.243	-0.381
-525.004	800.000	-0.105	0.353
-523.989	-47.894	-0.156	-0.075
-522.975	-21.888	0.286	-0.172
-521.960	18.650	0.131	0.104
-520.945	800.000	-0.096	-0.306
-519.931	-200.000	-0.007	-0.080
-518.916	-200.000	0.020	-0.309
-517.902	-27.106	-0.125	0.072
-516.887	-138.513	0.295	-0.032
-515.872	-17.166	0.064	0.040
-514.858	457.856	0.101	-0.221
-513.843	-140.120	-0.201	0.021
-512.829	800.000	0.086	0.242
-511.814	168.898	0.183	-0.259
-510.799	-106.832	0.157	0.034
-509.785	117.191	0.044	0.053
-508.770	-200.000	-0.001	0.026
-507.756	-200.000	0.024	-0.190
-506.741	463.737	0.058	-0.128
-505.726	590.078	0.033	-0.080
-504.712	-41.934	0.225	-0.114
-503.697	-23.368	0.291	-0.173
-502.683	800.000	-0.004	-0.019
-501.668	39.476	-0.169	-0.150
-500.653	38.408	0.227	0.201
-499.639	800.000	0.072	0.271
-498.624	-200.000	0.013	0.224
-497.610	298.295	-0.032	-0.058
-496.595	-70.042	-0.055	-0.021
-495.581	-12.947	0.115	-0.074
-494.566	-200.000	0.027	0.148
-493.551	140.395	-0.147	-0.193
-492.537	11.735	-0.368	-0.280
-491.522	10.018	0.220	0.165
-490.508	83.024	-0.090	0.097
-489.493	800.000	-0.039	-0.125
-488.478	-47.992	0.087	-0.042
-487.464	219.514	-0.062	-0.098
-486.449	-122.512	0.146	-0.024
-485.435	-200.000	-0.057	0.334
-484.420	209.660	-0.164	-0.255
-483.405	266.937	-0.122	0.212
-482.391	-200.000	-0.030	0.239
-481.376	-65.744	-0.335	-0.133
-480.362	-29.058	-0.170	-0.097
-479.347	242.251	0.135	-0.223
-478.332	-49.181	0.281	-0.133
-477.318	145.877	0.135	0.179
-476.303	-200.000	0.008	0.033
-475.289	-1.460	0.036	-0.025
-474.274	153.522	-0.170	-0.230
-473.259	-102.645	-0.234	0.055
-472.245	85.722	0.048	0.052
-471.230	-200.000	0.028	0.134
-470.216	93.007	-0.029	0.032
-469.201	730.179	-0.028	-0.074
-468.186	-19.877	-0.212	-0.130
-467.172	166.616	0.068	0.096
-466.157	585.859	0.082	-0.200
-465.143	-200.000	0.019	-0.230
-464.128	252.219	-0.061	0.102
-463.113	-192.985	0.071	0.001
-462.099	800.000	0.051	-0.142
-461.084	223.179	0.135	0.216
-460.070	-93.349	0.135	0.037
-459.055	-200.000	-0.037	0.348
-458.040	800.000	-0.084	-0.236
-457.026	-97.258	0.361	-0.093
-456.011	-110.493	0.372	0.076
-454.997	-200.000	0.042	0.295
-453.982	-158.415	0.207	-0.012
-452.968	608.456	-0.160	0.394
-451.953	356.365	0.056	0.111
-450.938	-181.105	0.171	-0.003
-449.924	800.000	0.024	0.085
-448.909	800.000	-0.044	-0.153
-447.895	-58.587	-0.250	0.107
-446.880	800.000	-0.062	-0.232
-445.865	-40.006	-0.113	-0.058
-444.851	14.167	-0.116	0.090
-443.836	800.000	-0.064	-0.207
-442.822	-200.000	-0.059	-0.271
-441.807	-200.000	-0.008	0.203
-440.792	93.253	-0.264	0.295
-439.778	-195.261	-0.301	0.002
-438.763	80.179	-0.068	-0.073
-437.749	107.760	-0.233	-0.274
-436.734	519.393	-0.118	0.272
-435.719	800.000	0.111	0.396
-434.705	18.515	0.170	-0.135
-433.690	-132.187	0.197	-0.025
-432.676	-62.732	0.227	-0.093
-431.661	420.176	0.063	-0.134
-430.646	392.938	0.190	0.391
-429.632	300.504	-0.098	0.179
-428.617	-200.000	0.044	-0.200
-427.603	135.752	0.209	0.269
-426.588	-200.000	0.044	-0.589
-425.573	12.133	0.088	0.067
-424.559	-90.761	0.256	0.073
-423.544	237.047	0.019	-0.032
-422.530	-200.000	0.065	0.387
-421.515	238.664	-0.156	0.257
-420.500	101.860	-0.193	0.222
-419.486	-187.209	-0.100	0.001
-418.471	-73.301	0.303	-0.109
-417.457	-74.318	-0.171	0.061
-416.442	-149.579	0.355	-0.028
-415.428	-89.534	-0.041	-0.012
-414.413	-138.062	0.343	-0.038
-413.398	800.000	0.024	0.080
-412.384	-90.427	-0.200	0.057
-411.369	800.000	0.060	0.176
-410.355	219.027	0.060	0.095
-409.340	-0.173	0.187	0.131
-408.325	28.403	0.072	0.060
-407.311	-153.910	-0.165	0.011
-406.296	-200.000	-0.010	0.270
-405.282	154.289	0.078	0.105
-404.267	5.735	-0.122	-0.089
-403.252	122.968	-0.205	-0.253
-402.238	800.000	-0.049	0.179
-401.223	-132.842	-0.409	0.051
-400.209	-200.000	-0.007	0.146
-399.194	-41.712	-0.527	-0.267
-398.179	198.443	-0.098	0.148
-397.165	51.411	-0.177	0.166
-396.150	-45.606	-0.134	-0.065
-395.136	-32.159	0.192	-0.106
-394.121	-41.557	0.229	-0.116
-393.106	-104.506	-0.234	-0.053
-392.092	455.864	-0.080	0.176
-391.077	-19.240	0.065	0.040
-390.063	134.810	-0.257	-0.329
-389.048	-113.301	-0.314	0.061
-388.033	-104.359	0.135	-0.031
-387.019	-143.612	0.104	-0.010
-386.004	127.816	-0.232	-0.291
-384.990	199.095	0.052	-0.079
-383.975	58.715	0.272	-0.264
-382.960	-117.365	-0.256	-0.046
-381.946	800.000	0.059	0.250
-380.931	-147.149	0.111	0.009
-379.917	-108.579	-0.305	0.065
-378.902	189.664	0.139	-0.206
-377.888	-36.358	-0.121	-0.064
-376.873	-110.785	0.136	-0.028
-375.858	44.880	-0.134	-0.122
-374.844	328.573	0.184	-0.349
-373.829	800.000	-0.009	-0.034
-372.815	-119.772	-0.080	-0.014
-371.800	161.698	0.134	0.185
-370.785	10.330	0.352	0.264
-369.771	504.477	-0.058	-0.133
-368.756	-78.070	-0.247	0.084
-367.742	65.865	0.173	0.173
-366.727	-145.925	0.076	-0.007
-365.712	800.000	0.067	0.222
-364.698	247.617	0.137	0.228
-363.683	422.701	0.070	-0.149
-362.669	-167.672	0.444	0.017
-361.654	-83.279	-0.178	-0.056
-360.639	-200.000	0.008	-0.165
-359.625	-45.179	-0.271	-0.133
-358.610	133.127	-0.210	0.268
-357.596	800.000	0.102	0.305
-356.581	-200.000	0.012	0.174
-355.566	-200.000	-0.005	-0.146
-354.552	-200.000	0.079	-0.000
-353.537	30.680	-0.264	-0.223
-352.523	800.000	0.035	0.129
-351.508	-78.120	0.245	0.083
-350.493	-55.372	-0.074	-0.033
-349.479	-67.933	0.044	-0.017
-348.464	-34.189	0.146	0.079
-347.450	311.576	-0.082	0.152
-346.435	410.558	0.028	-0.058
-345.420	19.421	-0.239	-0.189
-344.406	400.981	-0.093	0.192
-343.391	-200.000	-0.022	0.193
-342.377	800.000	0.040	0.137
-341.362	61.540	-0.308	-0.301
-340.348	800.000	-0.026	-0.082
-339.333	349.822	0.067	-0.130
-338.318	47.561	-0.018	0.017
-337.304	800.000	0.149	0.465
-336.289	-41.220	0.254	-0.129
-335.275	169.968	-0.066	-0.093
-334.260	67.372	-0.062	-0.062
-333.245	258.035	0.163	0.276
-332.231	724.265	-0.080	-0.210
-331.216	-200.000	0.027	-0.413
-330.202	-32.051	0.068	0.037
-329.187	-200.000	-0.008	-0.183
-328.172	-92.097	0.224	-0.062
-327.158	20.737	0.291	-0.232
-326.143	-200.000	-0.001	-0.111
-325.129	800.000	0.067	-0.195
-324.114	800.000	0.112	0.325
-323.099	-106.533	-0.303	0.066
-322.085	-88.892	-0.024	0.007
-321.070	-200.000	-0.003	0.110
-320.056	-48.161	0.493	-0.234
-319.041	-53.008	-0.173	0.078
-318.026	-200.000	0.051	-0.394
-317.012	-91.912	-0.098	-0.027
-315.997	6.785	-0.125	0.092
-314.983	-120.132	0.328	-0.055
-313.968	-200.000	-0.029	-0.167
-312.953	-200.000	0.002	-0.241
-311.939	104.460	0.135	-0.156
-310.924	-18.590	0.111	0.068
-309.910	260.140	0.057	0.097
-308.895	-200.000	0.004	-0.046
-307.880	-30.130	0.086	0.048
-306.866	-40.752	0.266	-0.136
-305.851	-200.000	-0.019	-0.131
-304.837	800.000	0.022	-0.063
-303.822	40.907	-0.037	-0.033
-302.807	-19.767	0.228	-0.139
-301.793	35.735	0.202	0.175
-300.778	-61.796	0.252	0.104
-299.764	-1.244	-0.227	0.157
-298.749	5.356	0.331	-0.240
-297.735	138.490	0.311	0.401
-296.720	-53.353	-0.337	0.152
-295.705	-200.000	-0.039	0.180
-294.691	-200.000	-0.016	0.223
-293.676	-19.799	0.093	0.056
-292.662	-88.454	0.065	0.019
-291.647	-200.000	-0.007	-0.223
-290.632	235.775	-0.097	0.158
-289.618	73.214	-0.129	0.132
-288.603	-121.718	0.094	0.015
-287.589	-71.185	-0.356	-0.131
-286.574	-200.000	-0.012	0.199
-285.559	131.986	-0.157	-0.199
-284.545	-128.744	0.166	-0.023
-283.530	-200.000	-0.062	0.288
-282.516	800.000	-0.049	-0.147
-281.501	134.838	-0.144	-0.183
-280.486	-200.000	-0.022	-0.194
-279.472	800.000	-0.054	0.215
-278.457	514.125	0.119	0.272
-277.443	130.410	0.064	-0.080
-276.428	-200.000	-0.023	0.226
-275.413	42.188	0.329	0.293
-274.399	16.985	0.108	-0.084
-273.384	800.000	-0.071	0.275
-272.370	21.683	-0.119	-0.095
-271.355	48.192	-0.089	0.082
-270.340	-54.424	-0.136	0.061
-269.326	-200.000	-0.032	-0.330
-268.311	800.000	0.070	0.280
-267.297	-136.942	-0.273	0.031
-266.282	-55.558	-0.258	-0.114
-265.267	151.974	0.153	-0.204
-264.253	127.450	-0.088	-0.110
-263.238	-200.000	0.000	0.285
-262.224	-128.015	-0.106	-0.015
-261.209	-200.000	-0.010	-0.227
-260.195	-94.910	0.170	-0.045
-259.180	-121.287	0.207	-0.034
-258.165	-200.000	-0.038	-0.460
-257.151	-111.397	0.139	-0.028
-256.136	-200.000	0.019	0.301
-255.122	-61.148	0.160	0.066
-254.107	357.618	-0.019	-0.038
-253.092	-22.965	0.183	-0.108
-252.078	504.599	-0.071	0.160
-251.063	91.154	0.055	-0.060
-250.049	-181.967	-0.110	-0.002
-249.034	-156.166	0.420	-0.026
-248.019	800.000	0.092	0.370
-247.005	-200.000	0.024	0.168
-245.990	-200.000	0.007	0.044
-244.976	-16.733	0.286	0.178
-243.961	-200.000	0.024	0.203
-242.946	-90.177	0.151	-0.043
-241.932	-106.396	-0.131	0.029
-240.917	-137.045	0.071	0.008
-239.903	-64.701	-0.140	0.055
-238.888	105.291	-0.207	-0.240
-237.873	-70.462	0.353	-0.131
-236.859	270.963	0.040	0.070
-235.844	21.144	0.141	-0.112
-234.830	-200.000	-0.034	-0.164
-233.815	45.150	-0.056	0.051
-232.800	-25.142	-0.084	0.049
-231.786	-57.867	-0.138	-0.059
-230.771	132.479	-0.113	-0.143
-229.757	161.577	0.104	-0.142
-228.742	-200.000	0.007	-0.275
-227.727	90.172	-0.427	-0.468
-226.713	335.864	0.274	-0.521
-225.698	-135.533	-0.194	-0.023
-224.684	-91.949	-0.195	0.054
-223.669	-115.676	0.362	0.067
-222.655	-107.377	0.371	-0.080
-221.640	68.507	0.173	-0.174
-220.625	-142.546	-0.214	-0.021
-219.611	220.607	0.065	0.102
-218.596	157.066	-0.177	-0.239
-217.582	113.529	-0.146	-0.173
-216.567	-57.984	-0.234	-0.100
-215.552	23.010	0.404	-0.325
-214.538	-49.768	0.180	0.084
-213.523	-88.292	0.145	-0.042
-212.509	89.634	-0.057	0.062
-211.494	114.211	-0.029	0.035
-210.479	116.155	-0.174	-0.209
-209.465	800.000	0.030	0.122
-208.450	-48.124	-0.283	0.134
-207.436	-105.900	0.207	-0.046
-206.421	800.000	-0.001	-0.004
-205.406	143.542	0.250	0.326
-204.392	-123.563	-0.358	0.056
-203.377	263.363	-0.113	-0.191
-202.363	127.484	-0.180	0.224
-201.348	-200.000	-0.047	0.296
-200.333	89.065	0.124	-0.135
-199.319	87.833	-0.184	0.200
-198.304	-69.292	-0.073	-0.027
-197.290	-126.234	-0.192	0.028
-196.275	800.000	0.063	-0.258
-195.260	151.944	0.013	0.018
-194.246	800.000	0.159	-0.589
-193.231	-24.107	0.144	0.084
-192.217	455.478	-0.077	0.167
-191.202	307.262	0.094	0.171
-190.187	256.477	-0.051	0.086
-189.173	51.042	-0.157	0.146
-188.158	800.000	-0.039	-0.149
-187.144	-61.462	-0.052	0.021
-186.129	-191.706	-0.046	-0.000
-185.114	136.237	0.058	0.074
-184.100	-200.000	-0.018	0.258
-183.085	-200.000	0.004	-0.165
-182.071	-0.350	-0.127	-0.088
-181.056	-146.694	-0.059	-0.005
-180.042	800.000	0.171	0.484
-179.027	800.000	-0.059	0.180
-178.012	-98.317	-0.205	-0.051
-176.998	-40.720	-0.139	0.071
-175.983	-30.307	-0.343	0.190
-174.969	657.893	-0.160	-0.402
-173.954	-4.059	-0.123	0.083
-172.939	479.547	0.002	-0.005
-171.925	-54.624	0.199	-0.088
-170.910	111.620	0.206	0.243
-169.896	-200.000	-0.011	-0.158
-168.881	-17.158	-0.194	0.120
-167.866	305.552	-0.043	0.077
-166.852	289.148	0.105	0.185
-165.837	-13.572	-0.156	0.099
-164.823	-156.343	-0.194	0.012
-163.808	349.497	0.070	0.134
-162.793	-63.690	-0.131	-0.052
-161.779	-200.000	0.017	-0.156
-160.764	374.802	-0.122	0.244
-159.750	-200.000	0.080	0.346
-158.735	462.583	-0.082	0.178
-157.720	286.229	0.056	0.098
-156.706	397.092	-0.056	0.113
-155.691	-200.000	0.042	0.446
-154.677	38.078	-0.072	0.063
-153.662	-200.000	-0.014	0.228
-152.647	474.195	-0.034	0.075
-151.633	-80.626	-0.160	0.052
-150.618	90.843	-0.379	0.415
-149.604	-159.360	-0.228	0.012
-148.589	-50.730	-0.307	0.141
-147.574	-200.000	0.051	0.439
-146.560	116.601	0.033	0.039
-145.545	183.878	0.118	0.171
-144.531	-59.547	-0.196	0.082
-143.516	-200.000	0.008	0.109
-142.502	-66.081	-0.385	0.150
-141.487	-200.000	-0.009	0.055
-140.472	-200.000	-0.025	0.218
-139.458	137.177	0.025	-0.032
-138.443	126.504	0.091	-0.113
-137.429	-14.741	0.085	-0.053
-136.414	414.575	-0.107	-0.223
-135.399	82.588	0.253	0.268
-134.385	-70.708	-0.123	0.045
-133.370	-200.000	0.025	-0.216
-132.356	800.000	0.074	0.246
-131.341	504.435	-0.171	0.388
-130.326	-79.974	-0.296	0.097
-129.312	-92.168	-0.262	-0.072
-128.297	-50.597	0.200	-0.092
-127.283	385.705	0.057	-0.114
-126.268	385.982	-0.065	-0.131
-125.253	-200.000	0.036	0.248
-124.239	-200.000	-0.002	0.153
-123.224	-172.524	0.192	0.006
-122.210	-132.573	0.246	0.031
-121.195	-120.878	-0.108	0.018
-120.180	95.284	0.010	-0.011
-119.166	-108.071	0.052	0.011
-118.151	11.626	-0.466	0.349
-117.137	-8.470	-0.248	0.163
-116.122	79.066	-0.137	0.143
-115.107	439.322	-0.121	0.258
-114.093	54.644	-0.329	0.310
-113.078	109.079	-0.031	0.036
-112.064	-200.000	0.103	0.000
-111.049	19.695	-0.293	0.230
-110.034	-115.670	0.286	0.052
-109.020	114.781	0.241	-0.287
-108.005	800.000	-0.060	0.195
-106.991	222.220	-0.172	-0.270
-105.976	206.641	-0.144	-0.219
-104.962	245.423	0.125	0.205
-103.947	-148.163	0.361	0.029
-102.932	-150.781	-0.290	-0.021
-101.918	59.314	-0.278	-0.267
-100.903	30.884	-0.118	0.099
-99.889	-122.522	0.214	0.034
-98.874	-40.699	0.445	-0.225
-97.859	-142.930	-0.290	0.027
-96.845	-200.000	-0.015	0.080
-95.830	-135.466	0.137	0.016
-94.816	83.468	-0.166	-0.176
-93.801	10.795	0.145	-0.108
-92.786	637.732	0.168	-0.415
-91.772	-200.000	-0.015	0.130
-90.757	800.000	0.034	0.120
-89.743	-134.349	-0.116	-0.014
-88.728	-91.912	-0.084	0.023
-87.713	-200.000	-0.040	-0.195
-86.699	88.692	-0.047	0.051
-85.684	71.682	0.173	0.175
-84.670	373.460	-0.062	0.123
-83.655	-11.900	-0.254	-0.162
-82.640	-196.417	-0.246	0.002
-81.626	37.583	0.100	0.086
-80.611	-200.000	0.050	-0.216
-79.597	258.666	-0.101	-0.170
-78.582	-136.492	0.271	0.031
-77.567	236.384	0.080	0.128
-76.553	-16.286	-0.042	0.026
-75.538	-117.682	-0.160	-0.028
-74.524	-88.026	-0.438	0.128
-73.509	-29.639	0.434	0.241
-72.494	-200.000	0.039	0.364
-71.480	88.811	-0.120	0.130
-70.465	613.234	-0.079	0.194
-69.451	-131.129	0.253	0.033
-68.436	-59.950	0.128	-0.053
-67.422	543.748	0.023	-0.053
-66.407	-51.363	0.344	-0.157
-65.392	-200.000	-0.024	0.114
-64.378	124.805	-0.149	-0.182
-63.363	450.429	-0.079	-0.170
-62.349	-35.354	-0.146	0.077
-61.334	45.039	-1.110	-0.995
-60.319	103.988	0.549	0.629
-59.305	-200.000	-0.255	-1.112
-58.290	281.856	0.692	1.207
-57.276	800.000	0.472	1.692
-56.261	-200.000	122.087	619.499
-55.246	402.875	1556.446	3186.454
-54.232	142.990	2729.682	3533.327
-53.217	89.221	2309.814	2504.899
-52.203	32.636	1917.705	1614.094
-51.188	26.650	1710.868	1394.035
-50.173	24.521	1671.195	1345.633
-49.159	44.753	1738.395	1556.343
-48.144	42.932	1750.099	1552.734
-47.130	26.227	1702.265	1383.566
-46.115	23.751	1686.943	1352.236
-45.100	23.592	1682.298	1347.250
-44.086	23.606	1679.628	1345.166
-43.071	23.622	1677.497	1343.531
-42.057	23.531	1675.146	1340.907
-41.042	23.618	1672.603	1339.471
-40.027	23.530	1671.096	1337.550
-39.013	23.516	1668.944	1335.670
-37.998	23.522	1667.670	1334.643
-36.984	23.603	1666.217	1334.032
-35.969	23.714	1664.802	1333.680
-34.954	23.758	1662.782	1332.338
-33.940	23.729	1660.968	1330.618
-32.925	23.704	1659.757	1329.405
-31.911	23.645	1657.936	1327.457
-30.896	23.642	1656.164	1325.958
-29.881	23.678	1654.901	1325.167
-28.867	23.647	1653.308	1323.605
-27.852	23.719	1651.610	1322.729
-26.838	23.700	1650.287	1321.478
-25.823	23.689	1649.058	1320.355
-24.809	23.690	1647.779	1319.288
-23.794	23.631	1646.645	1317.893
-22.779	23.684	1645.300	1317.157
-21.765	23.702	1643.178	1315.541
-20.750	23.692	1641.143	1313.779
-19.736	23.704	1640.463	1313.276
-18.721	23.718	1638.812	1312.008
-17.706	23.806	1636.525	1310.774
-16.692	23.747	1635.099	1309.143
-15.677	23.731	1634.217	1308.263
-14.663	23.816	1632.282	1307.289
-13.648	23.738	1631.730	1306.224
-12.633	23.628	1629.932	1303.920
-11.619	23.657	1628.081	1302.600
-10.604	23.727	1627.148	1302.316
-9.590	23.754	1625.313	1300.996
-8.575	23.761	1623.714	1299.717
-7.560	23.740	1623.157	1299.063
-6.546	23.661	1622.456	1297.873
-5.531	23.746	1620.741	1297.070
-4.517	23.695	1619.902	1295.974
-3.502	23.781	1618.723	1295.611
-2.487	23.807	1617.410	1294.697
-1.473	23.581	1605.090	1283.151
-0.458	20.957	1587.245	1250.045
0.556	16.154	1589.647	1222.060
1.571	14.134	1613.771	1225.624
2.586	13.839	1626.090	1232.682
3.600	12.685	1571.740	1183.086
4.615	6.981	1462.875	1062.806
5.629	1.459	1402.946	983.508
6.644	0.250	1396.146	970.864
7.659	0.223	1394.763	969.643
8.673	0.140	1394.040	968.524
9.688	0.178	1391.516	966.925
10.702	0.004	1388.294	963.486
11.717	2.760	1392.605	984.091
12.731	9.722	1403.319	1036.453
13.746	15.213	1411.125	1077.525
14.761	16.612	1412.700	1087.628
15.775	16.238	1410.039	1083.085
16.790	15.250	1407.687	1074.850
17.804	14.344	1406.034	1067.685
18.819	14.068	1404.415	1064.599
19.834	13.843	1402.834	1061.861
20.848	13.570	1401.812	1059.249
21.863	13.453	1400.151	1057.153
22.877	13.234	1398.762	1054.619
23.892	13.100	1398.309	1053.329
24.907	13.063	1397.687	1052.526
25.921	13.138	1396.284	1051.854
26.936	13.226	1395.608	1051.814
27.950	13.198	1395.254	1051.278
28.965	13.273	1393.679	1050.472
29.980	13.254	1392.812	1049.610
30.994	13.331	1391.996	1049.386
32.009	13.374	1390.883	1048.730
33.023	13.388	1389.809	1047.912
34.038	13.322	1388.511	1046.424
35.053	13.328	1387.429	1045.554
36.067	13.333	1386.824	1045.039
37.082	13.310	1385.329	1043.677
38.096	13.305	1384.272	1042.754
39.111	13.323	1383.681	1042.328
40.126	13.227	1382.889	1041.035
41.140	13.175	1382.029	1039.967
42.155	13.171	1381.324	1039.320
43.169	13.106	1381.472	1038.932
44.184	13.117	1380.887	1038.468
45.199	13.135	1380.316	1038.059
46.213	13.200	1380.114	1038.226
47.228	13.176	1378.723	1036.939
48.242	13.280	1377.346	1036.460
49.257	13.191	1375.910	1034.733
50.271	13.268	1374.434	1034.014
51.286	13.229	1373.148	1032.709
52.301	13.150	1372.230	1031.434
53.315	13.118	1371.267	1030.419
54.330	13.146	1370.129	1029.648
55.344	13.137	1368.695	1028.426
56.359	13.215	1367.427	1027.865
57.374	13.118	1367.010	1026.858
58.388	12.963	1366.232	1025.219
59.403	13.029	1365.640	1025.091
60.417	13.048	1364.515	1024.277
61.432	13.151	1363.733	1024.239
62.447	13.013	1363.014	1022.753
63.461	12.992	1361.661	1021.516
64.476	12.991	1360.586	1020.614
65.490	13.057	1358.717	1019.526
66.505	13.041	1357.681	1018.564
67.520	13.052	1356.499	1017.651
68.534	13.108	1355.330	1017.029
69.549	13.072	1354.337	1015.976
70.563	13.052	1353.726	1015.305
71.578	12.979	1352.324	1013.711
72.593	13.001	1351.251	1012.955
73.607	13.082	1350.199	1012.571
74.622	12.933	1350.055	1011.463
75.636	13.012	1348.574	1010.748
76.651	12.991	1348.264	1010.295
77.666	12.964	1347.623	1009.563
78.680	12.972	1347.034	1009.082
79.695	12.986	1345.911	1008.234
80.709	13.040	1345.015	1007.806
81.724	13.095	1343.810	1007.150
82.739	13.124	1342.866	1006.526
83.753	13.291	1342.084	1006.869
84.768	13.265	1340.927	1005.753
85.782	13.181	1340.377	1004.744
86.797	13.217	1338.733	1003.641
87.812	13.155	1337.687	1002.389
88.826	13.229	1336.843	1002.116
89.841	13.077	1335.673	1000.228
90.855	13.290	1334.379	1000.461
91.870	13.273	1333.432	999.558
92.884	13.244	1332.857	998.863
93.899	13.221	1332.195	998.145
94.914	13.330	1331.303	998.041
95.928	13.392	1330.046	997.387
96.943	13.290	1329.077	995.956
97.957	13.293	1328.504	995.456
98.972	13.183	1327.230	993.753
99.987	13.281	1326.206	993.487
101.001	13.326	1325.001	992.770
102.016	13.179	1324.116	991.133
103.030	13.261	1322.998	990.703
104.045	13.340	1321.839	990.221
105.060	13.227	1320.832	988.699
106.074	13.196	1319.387	987.349
107.089	13.125	1318.370	986.077
108.103	13.126	1316.849	984.858
109.118	13.043	1315.744	983.450
110.133	13.179	1314.235	983.040
111.147	13.129	1312.955	981.700
112.162	13.150	1311.636	980.751
113.176	13.194	1310.409	980.009
114.191	13.254	1309.479	979.584
115.206	13.290	1308.332	978.848
116.220	13.174	1307.492	977.449
117.235	13.200	1306.098	976.474
118.249	13.153	1304.777	975.125
119.264	13.153	1304.212	974.613
120.279	13.185	1302.616	973.522
121.293	13.161	1301.670	972.590
122.308	13.128	1300.713	971.592
123.322	13.131	1299.396	970.541
124.337	13.141	1298.454	969.810
125.352	13.079	1297.422	968.593
126.366	13.123	1296.270	967.905
127.381	13.117	1294.903	966.761
128.395	13.157	1293.797	966.083
129.410	13.143	1292.893	965.244
130.424	13.206	1292.165	964.982
131.439	13.146	1291.237	963.851
132.454	13.272	1289.879	963.490
133.468	13.149	1289.163	962.151
134.483	13.227	1288.274	961.858
135.497	13.184	1287.369	960.849
136.512	13.100	1286.264	959.450
137.527	13.266	1284.310	958.870
138.541	13.209	1283.038	957.503
139.556	13.207	1281.606	956.337
140.570	13.181	1280.932	955.599
141.585	13.245	1279.818	955.056
142.600	13.269	1278.438	954.081
143.614	13.256	1277.846	953.480
144.629	13.447	1276.025	953.137
145.643	13.353	1275.212	951.901
146.658	13.305	1274.211	950.797
147.673	13.290	1272.795	949.567
148.687	13.265	1271.565	948.424
149.702	13.228	1270.405	947.261
150.716	13.252	1268.947	946.228
151.731	13.239	1267.936	945.318
152.746	13.288	1266.473	944.422
153.760	13.371	1265.130	943.811
154.775	13.339	1264.308	942.935
155.789	13.388	1263.312	942.386
156.804	13.435	1261.691	941.358
157.819	13.432	1261.071	940.794
158.833	13.511	1259.649	940.100
159.848	13.502	1259.017	939.494
160.862	13.466	1258.010	938.455
161.877	13.376	1256.740	936.916
162.892	13.387	1256.028	936.366
163.906	13.387	1254.914	935.454
164.921	13.360	1253.807	934.391
165.935	13.425	1252.807	933.929
166.950	13.564	1252.370	934.306
167.964	13.456	1251.680	933.099
168.979	13.595	1250.715	933.083
169.994	13.416	1250.621	931.920
171.008	13.598	1249.071	931.705
172.023	13.573	1248.250	930.870
173.037	13.664	1247.295	930.588
174.052	13.674	1246.326	929.838
175.067	13.581	1245.703	928.768
176.081	13.612	1244.780	928.173
177.096	13.500	1243.682	926.645
178.110	13.520	1242.259	925.613
179.125	13.540	1241.299	924.927
180.140	13.616	1240.158	924.423
181.154	13.609	1239.097	923.510
182.169	13.622	1237.630	922.407
183.183	13.685	1236.089	921.526
184.198	13.700	1235.227	920.887
185.213	13.626	1234.134	919.579
186.227	13.776	1232.981	919.472
187.242	13.878	1231.557	918.891
188.256	13.786	1231.108	917.966
189.271	13.879	1229.776	917.404
190.286	13.722	1228.706	915.659
191.300	13.615	1228.052	914.500
192.315	13.651	1227.342	914.088
193.329	13.600	1227.029	913.495
194.344	13.708	1226.033	913.266
195.359	13.650	1225.672	912.598
196.373	13.761	1224.899	912.552
197.388	13.734	1224.689	912.165
198.402	13.903	1223.888	912.416
199.417	13.924	1223.328	912.035
200.432	14.016	1222.205	911.619
201.446	13.977	1221.470	910.779
202.461	14.016	1220.491	910.181
203.475	13.975	1219.602	909.216
204.490	13.998	1218.451	908.400
205.504	14.023	1216.942	907.335
206.519	14.025	1215.522	906.204
207.534	14.064	1214.290	905.418
208.548	14.025	1213.501	904.537
209.563	14.046	1212.978	904.184
210.577	14.044	1212.030	903.382
211.592	14.131	1211.220	903.176
212.607	14.077	1210.198	902.036
213.621	14.137	1209.520	901.777
214.636	14.118	1208.690	900.977
215.650	14.097	1207.698	900.042
216.665	14.115	1206.585	899.232
217.680	14.108	1206.102	898.752
218.694	14.334	1205.091	899.140
219.709	14.169	1204.169	897.485
220.723	14.170	1203.435	896.864
221.738	14.239	1202.317	896.322
222.753	14.295	1201.757	896.130
223.767	14.278	1201.188	895.534
224.782	14.352	1200.327	895.208
225.796	14.434	1199.677	895.085
226.811	14.384	1199.262	894.426
227.826	14.307	1198.478	893.350
228.840	14.386	1197.579	893.025
229.855	14.326	1197.290	892.410
230.869	14.441	1195.967	891.961
231.884	14.366	1195.052	890.797
232.899	14.306	1194.340	889.865
233.913	14.310	1193.969	889.530
234.928	14.334	1193.054	888.900
235.942	14.324	1192.303	888.207
236.957	14.336	1191.568	887.646
237.972	14.422	1190.063	886.903
238.986	14.428	1189.942	886.767
240.001	14.327	1189.611	885.905
241.015	14.495	1188.296	885.739
242.030	14.461	1187.454	884.854
243.045	14.408	1187.257	884.350
244.059	14.415	1186.117	883.457
245.074	14.368	1185.370	882.575
246.088	14.436	1184.372	882.116
247.103	14.535	1183.444	881.867
248.117	14.629	1182.840	881.837
249.132	14.596	1182.206	881.110
250.147	14.755	1181.447	881.309
251.161	14.617	1180.959	880.134
252.176	14.601	1180.141	879.367
253.190	14.683	1179.247	879.051
254.205	14.819	1178.560	879.180
255.220	14.862	1177.850	878.797
256.234	14.881	1177.552	878.596
257.249	14.796	1177.024	877.679
258.263	14.789	1176.062	876.845
259.278	14.781	1175.464	876.283
260.293	14.977	1174.991	876.880
261.307	14.866	1174.678	875.983
262.322	14.969	1173.757	875.759
263.336	14.998	1172.854	875.162
264.351	15.004	1172.210	874.632
265.366	14.981	1171.869	874.185
266.380	15.127	1170.689	873.989
267.395	15.046	1170.156	873.090
268.409	15.031	1169.141	872.175
269.424	15.122	1168.694	872.239
270.439	15.013	1168.099	871.149
271.453	15.077	1167.519	870.974
272.468	15.061	1166.145	869.787
273.482	15.030	1165.674	869.202
274.497	14.979	1165.081	868.417
275.512	15.034	1164.674	868.322
276.526	15.007	1163.859	867.495
277.541	15.172	1162.709	867.420
278.555	15.079	1162.376	866.613
279.570	15.157	1161.608	866.367
280.585	15.240	1160.573	865.944
281.599	15.224	1159.930	865.307
282.614	15.224	1158.720	864.327
283.628	15.259	1157.814	863.753
284.643	15.267	1156.952	863.078
285.657	15.191	1156.030	861.920
286.672	15.194	1155.093	861.163
287.687	15.234	1154.068	860.527
288.701	15.323	1153.320	860.349
289.716	15.231	1152.855	859.458
290.730	15.303	1152.063	859.158
291.745	15.282	1150.880	858.090
292.760	15.324	1150.379	857.857
293.774	15.376	1150.073	857.820
294.789	15.428	1149.408	857.513
295.803	15.396	1148.772	856.797
296.818	15.405	1147.994	856.189
297.833	15.369	1147.196	855.333
298.847	15.398	1146.485	854.875
299.862	15.388	1145.448	853.977
300.876	15.463	1144.439	853.529
301.891	15.438	1143.995	852.995
302.906	15.610	1143.379	853.335
303.920	15.662	1142.408	852.797
304.935	15.548	1142.085	851.904
305.949	15.634	1141.070	851.508
306.964	15.599	1140.500	850.828
307.979	15.651	1139.369	850.174
308.993	15.596	1139.118	849.635
310.008	15.700	1138.389	849.537
311.022	15.741	1137.108	848.716
312.037	15.698	1136.572	848.022
313.052	15.565	1135.736	846.654
314.066	15.663	1134.406	846.079
315.081	15.661	1133.761	845.515
316.095	15.678	1133.103	845.036
317.110	15.684	1132.464	844.514
318.125	15.677	1131.886	843.972
319.139	15.628	1131.040	843.019
320.154	15.553	1130.618	842.259
321.168	15.705	1129.593	842.179
322.183	15.709	1129.046	841.719
323.197	15.751	1128.935	841.772
324.212	15.700	1128.037	840.772
325.227	15.784	1127.235	840.517
326.241	15.674	1127.033	839.746
327.256	15.701	1126.063	839.084
328.270	15.859	1124.754	838.821
329.285	15.771	1124.096	837.815
330.300	15.723	1123.187	836.825
331.314	15.873	1121.785	836.453
332.329	15.785	1120.956	835.322
333.343	15.971	1120.298	835.680
334.358	15.828	1119.613	834.387
335.373	15.958	1118.583	834.189
336.387	15.899	1117.913	833.327
337.402	15.889	1117.374	832.800
338.416	15.874	1116.992	832.368
339.431	15.929	1115.974	831.809
340.446	16.079	1114.874	831.654
341.460	16.055	1114.346	831.070
342.475	16.080	1113.513	830.498
343.489	16.056	1112.972	829.901
344.504	16.069	1112.157	829.283
345.519	16.181	1111.101	828.972
346.533	16.213	1110.179	828.372
347.548	16.179	1109.940	827.950
348.562	16.116	1109.037	826.895
349.577	16.239	1107.728	826.449
350.592	16.132	1107.404	825.608
351.606	16.148	1106.807	825.170
352.621	16.118	1105.898	824.271
353.635	16.172	1105.054	823.833
354.650	16.200	1104.195	823.260
355.665	16.225	1103.690	822.930
356.679	16.224	1103.231	822.511
357.694	16.334	1102.515	822.437
358.708	16.163	1101.959	821.121
359.723	16.340	1100.765	821.019
360.738	16.327	1100.134	820.411
361.752	16.293	1099.968	820.050
362.767	16.245	1099.818	819.633
363.781	16.370	1098.536	819.212
364.796	16.423	1098.307	819.226
365.810	16.445	1097.330	818.532
366.825	16.504	1096.679	818.259
367.840	16.413	1096.585	817.672
368.854	16.624	1095.546	817.848
369.869	16.602	1094.443	816.846
370.883	16.557	1093.915	816.161
371.898	16.654	1092.892	815.796
372.913	16.549	1092.893	815.216
373.927	16.564	1092.433	814.874
374.942	16.578	1091.968	814.523
375.956	16.628	1091.358	814.234
376.971	16.607	1090.572	813.477
377.986	16.603	1090.387	813.245
379.000	16.789	1089.278	813.243
380.015	16.717	1088.760	812.434
381.029	16.817	1088.096	812.348
382.044	16.690	1087.713	811.383
383.059	16.857	1086.933	811.527
384.073	16.730	1085.754	809.967
385.088	16.708	1085.018	809.241
386.102	16.860	1084.043	809.171
387.117	16.783	1083.485	808.312
388.132	16.794	1082.090	807.254
389.146	16.673	1081.671	806.293
390.161	16.732	1080.851	805.894
391.175	16.726	1080.318	805.397
392.190	16.698	1079.431	804.530
393.205	16.813	1078.647	804.420
394.219	16.942	1077.671	804.232
395.234	16.901	1076.764	803.289
396.248	16.845	1075.701	802.159
397.263	16.835	1074.915	801.457
398.278	16.899	1074.010	801.014
399.292	16.876	1073.820	800.691
400.307	16.892	1072.988	800.076
401.321	16.809	1072.496	799.247
402.336	16.959	1071.183	798.907
403.350	16.859	1070.945	798.185
404.365	16.893	1070.162	797.694
405.380	16.981	1069.605	797.621
406.394	16.970	1068.625	796.764
407.409	17.010	1067.769	796.244
408.423	17.015	1067.111	795.709
409.438	17.095	1066.436	795.508
410.453	17.152	1065.533	795.033
411.467	17.194	1064.662	794.508
412.482	17.229	1064.356	794.372
413.496	17.322	1063.391	794.015
414.511	17.244	1062.792	793.137
415.526	17.201	1062.880	792.932
416.540	17.251	1062.346	792.697
417.555	17.371	1061.533	792.579
418.569	17.192	1061.447	791.611
419.584	17.376	1060.761	791.883
420.599	17.405	1060.267	791.580
421.613	107.107	1330.684	1486.215
422.628	98.847	1370.004	1486.298
