DTS Sentinel unit serial number:	SN413079Multiplexer serial number:	ORYXHardware model number:	OX4-SRSoftware version number:	ORYX F/W v4.00 Oryx Data Collector v3.7.2.0data status	okinstallation	princeton_trtdifferential loss correction	single-endedforward channel	channel 2reverse channel	N/Adate	2019/09/15time	22:11:34forward acquisition time	60.00reverse acquisition time	0.00gamma	496.2192k internal	0.2335k external	0.2335temperature offset calibration	0.9946default loss term (dB/km)	0.3790temperature slope calibration	1.0000multiplexer offset coefficient	1.0000multiplexer slope coefficient	1.0000fibre end	0.00T internal ref (°C)	29.56T ext. ref 1 (°C)	8.61T ext. ref 2 (°C)	22.93length (m)	temperature (°C)	Stokes	anti-Stokes-747.200	-19.967	-0.292	0.181
-746.185	242.372	-0.291	0.489
-745.171	473.142	-0.047	-0.107
-744.156	-169.964	-0.254	0.009
-743.142	102.121	-0.092	0.108
-742.127	-200.000	-0.017	-0.079
-741.112	-145.348	-0.057	0.005
-740.098	-200.000	0.028	0.376
-739.083	-200.000	-0.014	0.126
-738.069	-99.830	0.294	-0.074
-737.054	-133.442	-0.138	0.017
-736.039	-50.401	-0.349	-0.166
-735.025	-50.344	0.143	0.068
-734.010	-8.896	-0.057	0.038
-732.996	232.623	0.023	0.038
-731.981	-200.000	-0.007	-0.196
-730.966	-200.000	0.015	0.100
-729.952	-200.000	0.084	0.437
-728.937	-148.837	-0.186	-0.015
-727.923	-56.035	-0.047	-0.021
-726.908	286.359	0.037	0.068
-725.894	17.216	-0.067	0.053
-724.879	-55.686	-0.148	0.066
-723.864	-200.000	-0.026	-0.313
-722.850	-200.000	0.001	0.016
-721.835	-114.588	0.083	-0.016
-720.821	121.343	0.220	-0.275
-719.806	193.609	-0.023	-0.034
-718.791	-107.302	-0.409	-0.090
-717.777	-36.774	0.194	-0.105
-716.762	-200.000	0.045	-0.283
-715.748	345.957	-0.186	-0.368
-714.733	800.000	0.010	0.036
-713.718	-83.565	-0.268	0.086
-712.704	43.382	0.262	0.240
-711.689	-200.000	0.070	-0.333
-710.675	-51.229	-0.348	0.164
-709.660	-156.387	-0.235	0.015
-708.645	-155.767	0.368	-0.024
-707.631	-50.798	0.130	-0.061
-706.616	14.651	0.178	0.140
-705.602	800.000	0.060	0.195
-704.587	-200.000	0.014	0.126
-703.572	-200.000	0.027	-0.122
-702.558	-71.872	-0.141	-0.052
-701.543	-15.582	0.505	0.323
-700.529	174.793	0.245	-0.356
-699.514	-142.015	0.094	0.009
-698.499	522.833	0.018	-0.043
-697.485	27.538	-0.148	-0.125
-696.470	800.000	-0.099	-0.318
-695.456	410.860	0.086	-0.183
-694.441	-170.844	-0.255	0.009
-693.426	76.666	0.065	0.069
-692.412	396.222	-0.128	0.268
-691.397	-200.000	-0.048	0.357
-690.383	82.797	0.211	-0.230
-689.368	-68.464	-0.187	0.073
-688.354	800.000	0.061	0.263
-687.339	-124.735	-0.220	-0.034
-686.324	-119.496	0.329	0.057
-685.310	206.567	-0.172	0.268
-684.295	151.872	0.163	-0.223
-683.281	-105.128	-0.455	-0.104
-682.266	194.004	0.060	0.090
-681.251	-200.000	0.050	0.561
-680.237	155.237	0.209	-0.288
-679.222	186.274	-0.230	-0.343
-678.208	-200.000	-0.046	-0.393
-677.193	183.652	-0.144	0.213
-676.178	246.451	-0.133	-0.225
-675.164	100.681	-0.339	-0.395
-674.149	-105.555	0.446	-0.101
-673.135	-48.852	-0.075	0.036
-672.120	110.710	-0.105	0.127
-671.105	800.000	0.037	-0.144
-670.091	184.710	-0.169	-0.250
-669.076	-200.000	0.022	0.179
-668.062	-200.000	0.003	0.083
-667.047	318.393	-0.101	-0.192
-666.032	-86.252	-0.298	0.092
-665.018	78.418	-0.147	-0.157
-664.003	49.089	0.106	0.099
-662.989	-200.000	0.060	-0.341
-661.974	-200.000	0.200	-0.001
-660.959	-145.975	-0.300	0.027
-659.945	-200.000	-0.040	0.201
-658.930	64.811	0.240	0.242
-657.916	-29.244	0.210	0.121
-656.901	163.300	-0.112	0.157
-655.886	-200.000	0.027	-0.256
-654.872	-98.567	-0.150	0.038
-653.857	200.795	-0.080	0.124
-652.843	-53.856	-0.149	0.068
-651.828	-200.000	0.052	-0.458
-650.814	-120.789	-0.108	0.018
-649.799	431.756	-0.183	-0.396
-648.784	-200.000	0.029	0.284
-647.770	575.842	-0.127	0.311
-646.755	-48.732	-0.092	-0.044
-645.741	-166.083	0.132	-0.006
-644.726	45.432	-0.171	0.158
-643.711	33.869	-0.159	0.139
-642.697	555.631	0.146	-0.351
-641.682	-200.000	0.018	-0.165
-640.668	71.790	-0.192	-0.200
-639.653	-31.628	-0.335	0.188
-638.638	-200.000	-0.032	-0.236
-637.624	800.000	0.121	-0.382
-636.609	-9.159	0.101	-0.068
-635.595	800.000	-0.084	0.252
-634.580	2.027	0.141	0.102
-633.565	-178.356	0.260	-0.006
-632.551	-200.000	-0.038	0.299
-631.536	445.199	-0.014	-0.031
-630.522	-94.512	-0.226	0.062
-629.507	750.960	-0.104	-0.281
-628.492	800.000	0.032	0.098
-627.478	-117.550	-0.182	0.033
-626.463	2.341	-0.350	0.253
-625.449	217.094	-0.113	-0.180
-624.434	76.873	-0.111	-0.118
-623.419	-200.000	-0.025	-0.164
-622.405	-25.048	-0.304	-0.180
-621.390	220.826	0.117	-0.188
-620.376	-68.553	-0.369	0.143
-619.361	-79.947	-0.182	-0.061
-618.346	137.659	-0.022	0.029
-617.332	586.471	-0.038	-0.093
-616.317	47.120	0.236	0.220
-615.303	-134.586	-0.202	0.025
-614.288	19.157	0.299	0.240
-613.273	-1.208	-0.237	-0.167
-612.259	-41.280	0.316	-0.163
-611.244	-24.002	0.171	-0.102
-610.230	441.666	-0.125	-0.273
-609.215	-200.000	0.010	-0.254
-608.201	-45.411	0.119	-0.059
-607.186	800.000	0.067	-0.193
-606.171	259.881	-0.164	0.282
-605.157	410.123	0.130	-0.276
-604.142	-136.159	0.214	-0.025
-603.128	-192.895	-0.147	-0.001
-602.113	-99.222	-0.243	-0.061
-601.098	-7.867	-0.152	-0.102
-600.084	-80.062	-0.194	0.065
-599.069	-108.677	0.379	0.081
-598.055	267.021	-0.173	-0.302
-597.040	-140.919	0.298	-0.031
-596.025	-73.607	-0.183	0.067
-595.011	281.338	0.091	0.162
-593.996	800.000	-0.082	-0.244
-592.982	457.595	-0.049	-0.109
-591.967	-12.185	-0.221	0.144
-590.952	-107.300	-0.383	-0.084
-589.938	-132.114	0.088	0.011
-588.923	800.000	0.051	-0.194
-587.909	-200.000	0.021	-0.157
-586.894	-24.908	0.333	-0.197
-585.879	149.405	-0.096	-0.129
-584.865	138.789	-0.213	-0.280
-583.850	-135.277	0.178	0.021
-582.836	-136.492	0.070	-0.008
-581.821	580.548	0.009	-0.021
-580.806	155.609	-0.136	-0.187
-579.792	-170.436	0.071	-0.002
-578.777	18.037	0.056	-0.045
-577.763	-75.243	0.482	0.172
-576.748	-200.000	0.024	-0.214
-575.733	-88.940	0.406	-0.120
-574.719	-54.458	0.376	-0.170
-573.704	-156.909	-0.125	-0.008
-572.690	-109.529	-0.268	0.057
-571.675	-200.000	-0.024	0.323
-570.661	800.000	0.049	0.136
-569.646	-61.809	0.177	0.074
-568.631	66.852	-0.162	0.165
-567.617	-126.580	-0.209	-0.031
-566.602	592.756	0.053	-0.130
-565.588	207.939	-0.163	-0.253
-564.573	-163.352	-0.053	-0.003
-563.558	83.929	0.120	0.130
-562.544	-59.247	-0.358	0.154
-561.529	-200.000	-0.000	-0.011
-560.515	50.538	-0.083	0.078
-559.500	-200.000	-0.019	-0.171
-558.485	8.937	-0.252	0.190
-557.471	-119.778	-0.161	-0.028
-556.456	559.867	-0.082	0.196
-555.442	-179.520	-0.417	0.009
-554.427	800.000	-0.014	0.047
-553.412	-64.483	0.224	0.091
-552.398	-200.000	-0.025	-0.230
-551.383	-82.483	0.395	0.128
-550.369	-152.954	0.205	0.014
-549.354	-70.425	-0.261	0.099
-548.339	800.000	-0.029	-0.116
-547.325	-90.409	-0.276	0.080
-546.310	-200.000	0.004	0.078
-545.296	-200.000	0.003	0.066
-544.281	122.491	-0.066	-0.082
-543.266	800.000	0.034	0.125
-542.252	337.197	0.034	-0.066
-541.237	-95.428	0.363	-0.097
-540.223	-163.082	0.382	-0.018
-539.208	375.585	0.095	-0.194
-538.193	-29.704	0.042	-0.024
-537.179	6.622	0.189	-0.140
-536.164	-9.251	-0.124	-0.083
-535.150	59.521	0.083	-0.082
-534.135	11.093	0.354	0.270
-533.121	-200.000	0.013	0.130
-532.106	-200.000	-0.029	-0.260
-531.091	-200.000	0.028	-0.151
-530.077	-200.000	-0.004	0.080
-529.062	66.053	-0.109	0.110
-528.048	56.254	0.111	-0.108
-527.033	-200.000	-0.050	0.238
-526.018	-138.142	0.271	-0.030
-525.004	-200.000	-0.007	0.080
-523.989	-125.745	-0.141	0.021
-522.975	-32.359	-0.160	0.089
-521.960	345.407	0.036	-0.070
-520.945	-146.618	0.044	-0.004
-519.931	127.453	0.141	-0.179
-518.916	-119.308	-0.301	0.052
-517.902	-8.009	0.101	0.068
-516.887	800.000	0.037	-0.138
-515.872	10.715	0.148	-0.112
-514.858	357.578	0.069	-0.137
-513.843	-17.176	0.295	0.185
-512.829	-200.000	-0.010	0.113
-511.814	-200.000	-0.012	-0.186
-510.799	-200.000	-0.012	-0.100
-509.785	261.594	0.094	-0.162
-508.770	-200.000	0.031	-0.404
-507.756	-65.748	-0.208	-0.083
-506.741	-200.000	0.072	0.314
-505.726	706.198	0.098	-0.258
-504.712	433.755	-0.085	-0.184
-503.697	33.692	-0.090	-0.078
-502.683	-75.210	-0.196	0.070
-501.668	-21.590	0.281	0.171
-500.653	24.928	-0.130	0.107
-499.639	-37.519	-0.165	0.088
-498.624	460.865	-0.099	0.220
-497.610	187.246	0.104	-0.154
-496.595	-172.453	-0.180	0.006
-495.581	183.334	0.216	0.318
-494.566	-200.000	0.024	-0.161
-493.551	-67.130	-0.193	-0.076
-492.537	372.273	0.092	-0.185
-491.522	-55.978	-0.149	0.066
-490.508	133.186	0.179	0.231
-489.493	-26.341	0.072	-0.042
-488.478	192.846	-0.051	-0.077
-487.464	-200.000	0.034	-0.288
-486.449	800.000	-0.069	0.247
-485.435	-63.214	0.258	-0.106
-484.420	-125.489	-0.076	0.011
-483.405	746.070	-0.084	-0.226
-482.391	-200.000	-0.006	0.034
-481.376	643.095	0.032	0.081
-480.362	-200.000	0.004	-0.078
-479.347	-54.730	-0.181	0.081
-478.332	-173.845	-0.542	-0.016
-477.318	427.592	-0.186	-0.399
-476.303	-85.638	-0.201	0.062
-475.289	-103.710	-0.176	-0.041
-474.274	170.107	-0.062	-0.088
-473.259	-120.266	0.054	-0.009
-472.245	352.538	0.109	0.214
-471.230	-31.314	-0.257	-0.144
-470.216	-168.235	-0.329	0.013
-469.201	1.778	0.171	0.122
-468.186	770.518	0.098	0.264
-467.172	-57.492	-0.241	0.105
-466.157	163.292	0.150	-0.209
-465.143	-200.000	-0.011	-0.255
-464.128	-152.990	-0.389	-0.027
-463.113	800.000	-0.092	0.322
-462.099	88.309	-0.205	0.227
-461.084	-200.000	-0.006	0.322
-460.070	330.521	0.106	0.202
-459.055	-200.000	-0.032	0.143
-458.040	226.264	0.118	0.190
-457.026	-200.000	0.014	0.242
-456.011	-200.000	-0.056	-0.254
-454.997	-28.254	0.079	-0.045
-453.982	-157.690	-0.094	0.006
-452.968	-37.400	0.236	-0.125
-451.953	163.968	0.140	-0.195
-450.938	36.447	-0.355	-0.311
-449.924	-3.180	-0.171	-0.118
-448.909	18.862	-0.232	0.185
-447.895	-138.147	0.058	0.006
-446.880	-47.058	0.108	-0.052
-445.865	-200.000	0.007	-0.277
-444.851	800.000	0.151	0.416
-443.836	-186.852	-0.122	0.002
-442.822	17.536	-0.029	0.023
-441.807	-200.000	0.010	0.117
-440.792	-116.504	-0.168	0.031
-439.778	-82.276	0.129	-0.042
-438.763	-9.185	0.165	-0.109
-437.749	-200.000	-0.003	0.079
-436.734	-200.000	0.006	-0.033
-435.719	3.770	0.268	-0.194
-434.705	111.832	-0.052	-0.062
-433.690	800.000	0.035	-0.146
-432.676	-146.189	0.044	-0.004
-431.661	280.826	-0.102	0.181
-430.646	-35.309	0.237	0.128
-429.632	18.895	-0.224	-0.178
-428.617	-41.912	0.234	0.119
-427.603	70.851	0.055	-0.056
-426.588	100.106	0.161	-0.186
-425.573	677.118	-0.047	0.122
-424.559	-108.975	0.095	0.020
-423.544	285.990	0.143	-0.256
-422.530	-101.314	0.118	0.028
-421.515	-75.838	0.251	-0.088
-420.500	800.000	0.121	-0.360
-419.486	-200.000	0.014	0.095
-418.471	48.458	-0.060	-0.056
-417.457	-200.000	0.036	-0.234
-416.442	-98.687	-0.171	-0.043
-415.428	-74.529	-0.290	-0.103
-414.413	800.000	-0.169	0.496
-413.398	-11.417	0.526	-0.343
-412.384	10.146	-0.053	-0.040
-411.369	-30.230	0.199	0.112
-410.355	-83.374	-0.217	0.069
-409.340	-200.000	-0.049	0.301
-408.325	140.246	-0.134	0.176
-407.311	16.114	0.096	-0.075
-406.296	-200.000	0.016	-0.078
-405.282	-113.193	0.010	0.002
-404.267	88.902	0.072	0.079
-403.252	167.038	-0.196	0.275
-402.238	-82.962	0.185	0.059
-401.223	800.000	-0.041	-0.170
-400.209	-66.232	0.209	0.082
-399.194	-154.608	0.360	0.024
-398.179	415.546	-0.043	-0.090
-397.165	-129.630	0.165	-0.023
-396.150	-162.451	-0.275	-0.013
-395.136	-175.138	0.176	-0.005
-394.121	88.158	-0.161	0.177
-393.106	-99.881	0.192	-0.048
-392.092	-200.000	0.014	0.099
-391.077	0.429	0.195	0.138
-390.063	-9.166	-0.138	0.091
-389.048	-113.004	0.147	0.029
-388.033	-125.552	0.206	0.031
-387.019	74.684	-0.162	-0.169
-386.004	-113.716	-0.352	0.068
-384.990	-200.000	-0.024	-0.117
-383.975	539.559	-0.090	0.212
-382.960	-200.000	-0.009	-0.285
-381.946	-75.721	-0.207	-0.073
-380.931	11.750	0.189	0.144
-379.917	-149.794	-0.294	0.023
-378.902	-85.292	0.052	0.016
-377.888	-120.769	-0.226	0.038
-376.873	-40.206	-0.099	-0.051
-375.858	19.484	-0.155	0.124
-374.844	-144.231	0.084	-0.008
-373.829	-66.242	0.166	0.066
-372.815	-139.351	-0.169	0.018
-371.800	24.524	-0.186	-0.152
-370.785	-200.000	0.015	-0.290
-369.771	-200.000	-0.010	-0.131
-368.756	-68.016	0.145	-0.056
-367.742	311.138	-0.192	0.356
-366.727	52.704	-0.118	0.112
-365.712	13.393	-0.043	-0.033
-364.698	97.949	-0.065	0.074
-363.683	-116.263	0.123	-0.023
-362.669	-200.000	0.043	-0.227
-361.654	106.584	0.244	0.286
-360.639	-118.199	0.346	-0.061
-359.625	-19.646	0.159	-0.097
-358.610	215.996	-0.205	0.322
-357.596	-200.000	-0.062	-0.388
-356.581	-151.979	-0.383	0.028
-355.566	-42.729	-0.164	-0.083
-354.552	-6.980	-0.178	0.120
-353.537	436.015	-0.023	-0.049
-352.523	-130.424	0.265	-0.036
-351.508	-148.799	-0.074	0.006
-350.493	-42.419	-0.142	-0.072
-349.479	800.000	0.152	-0.429
-348.464	800.000	0.014	0.055
-347.450	64.937	0.258	0.258
-346.435	-110.172	0.255	0.053
-345.420	-55.361	0.215	-0.095
-344.406	-72.620	0.142	0.052
-343.391	-46.844	-0.095	-0.046
-342.377	213.839	0.084	0.131
-341.362	322.777	0.159	0.300
-340.348	10.683	-0.185	0.139
-339.333	-200.000	0.040	0.205
-338.318	-118.365	-0.338	0.059
-337.304	-95.782	-0.273	0.072
-336.289	-97.045	0.147	0.038
-335.275	800.000	0.066	-0.242
-334.260	-200.000	-0.003	0.101
-333.245	-0.672	-0.250	0.175
-332.231	-156.416	-0.186	-0.012
-331.216	-200.000	-0.002	-0.179
-330.202	-41.469	0.187	-0.095
-329.187	-159.432	-0.255	-0.014
-328.172	800.000	0.025	-0.073
-327.158	-200.000	-0.037	-0.297
-326.143	485.476	0.109	0.246
-325.129	-200.000	-0.016	-0.072
-324.114	-78.296	-0.179	-0.061
-323.099	800.000	0.037	-0.154
-322.085	-68.853	0.125	-0.048
-321.070	-22.100	-0.160	0.096
-320.056	741.450	0.042	-0.110
-319.041	39.460	0.095	-0.084
-318.026	-77.460	0.065	0.022
-317.012	4.378	0.177	-0.128
-315.997	648.462	0.061	-0.154
-314.983	-155.993	0.109	0.007
-313.968	209.361	0.130	-0.202
-312.953	-103.806	-0.341	0.079
-311.939	-110.489	-0.266	0.054
-310.924	-200.000	0.013	0.067
-309.910	326.452	-0.047	0.090
-308.895	-200.000	-0.007	-0.131
-307.880	55.996	-0.210	0.201
-306.866	-200.000	-0.031	0.409
-305.851	-142.226	0.137	0.013
-304.837	-55.651	0.268	0.118
-303.822	800.000	0.039	-0.147
-302.807	-200.000	-0.006	0.075
-301.793	15.704	-0.193	0.150
-300.778	69.769	-0.220	0.223
-299.764	-8.172	-0.061	-0.040
-298.749	-13.083	-0.057	-0.037
-297.735	13.299	0.189	0.145
-296.720	800.000	0.129	-0.357
-295.705	8.192	0.316	-0.235
-294.691	-58.400	-0.112	-0.048
-293.676	-200.000	0.010	0.199
-292.662	227.355	0.118	0.189
-291.647	445.763	-0.102	0.220
-290.632	227.221	0.185	0.296
-289.618	-200.000	0.012	0.123
-288.603	-200.000	-0.042	0.231
-287.589	-200.000	-0.029	-0.143
-286.574	104.744	0.194	-0.225
-285.559	83.242	0.092	-0.099
-284.545	-200.000	-0.474	0.002
-283.530	326.859	0.083	-0.157
-282.516	337.774	0.052	-0.100
-281.501	800.000	0.046	0.171
-280.486	11.825	-0.273	0.207
-279.472	-140.121	0.120	-0.012
-278.457	-43.683	0.384	-0.191
-277.443	-81.737	0.208	-0.067
-276.428	-25.515	0.221	0.129
-275.413	-32.207	-0.215	0.119
-274.399	-113.458	-0.292	0.057
-273.384	-136.567	0.306	0.035
-272.370	800.000	0.099	0.361
-271.355	135.580	0.195	-0.250
-270.340	-200.000	0.009	0.154
-269.326	-52.298	0.126	-0.057
-268.311	-31.448	0.283	0.157
-267.297	-24.960	-0.192	-0.112
-266.282	330.023	0.050	0.095
-265.267	-200.000	0.025	0.283
-264.253	100.184	0.193	0.221
-263.238	-200.000	-0.002	-0.045
-262.224	448.971	0.087	0.190
-261.209	128.890	0.073	-0.091
-260.195	-46.231	0.050	0.024
-259.180	-200.000	-0.051	0.373
-258.165	85.075	-0.177	0.191
-257.151	-200.000	-0.033	0.198
-256.136	67.461	0.045	0.045
-255.122	336.065	0.089	-0.169
-254.107	56.685	-0.152	-0.146
-253.092	266.654	-0.149	0.256
-252.078	639.139	0.140	0.351
-251.063	756.699	0.082	0.220
-250.049	-200.000	-0.014	0.416
-249.034	800.000	-0.049	-0.208
-248.019	-65.249	-0.214	-0.085
-247.005	51.781	0.195	0.182
-245.990	91.232	0.254	-0.281
-244.976	168.735	0.130	-0.183
-243.961	61.416	0.147	-0.144
-242.946	54.652	0.071	-0.067
-241.932	142.765	0.085	0.111
-240.917	800.000	0.045	-0.127
-239.903	-200.000	-0.000	-0.085
-238.888	328.739	-0.160	-0.303
-237.873	146.252	-0.094	0.124
-236.859	-200.000	0.002	0.040
-235.844	-200.000	0.008	-0.058
-234.830	177.330	-0.140	0.201
-233.815	-155.079	0.140	0.009
-232.800	-49.743	-0.219	-0.102
-231.786	92.072	0.056	0.062
-230.771	-66.663	0.499	-0.195
-229.757	130.382	-0.152	0.191
-228.742	1.081	-0.064	0.045
-227.727	-66.113	0.101	0.040
-226.713	-200.000	-0.013	-0.300
-225.698	-200.000	-0.061	-0.352
-224.684	-200.000	0.008	0.100
-223.669	-44.221	-0.089	0.044
-222.655	-94.303	0.103	0.028
-221.640	800.000	0.036	0.151
-220.625	-68.832	0.034	-0.013
-219.611	234.331	-0.169	-0.275
-218.596	82.062	-0.058	0.061
-217.582	0.394	0.199	0.140
-216.567	800.000	0.040	-0.147
-215.552	-200.000	0.017	0.352
-214.538	-69.810	0.212	-0.080
-213.523	-3.189	0.140	0.096
-212.509	329.322	0.167	0.315
-211.494	-200.000	0.064	0.314
-210.479	238.481	-0.094	-0.154
-209.465	-48.361	0.201	-0.095
-208.450	52.168	0.066	-0.062
-207.436	-119.176	0.197	-0.034
-206.421	-94.259	-0.345	0.093
-205.406	800.000	-0.061	0.172
-204.392	-164.007	0.102	0.005
-203.377	-50.295	-0.147	0.069
-202.363	45.643	-0.169	-0.153
-201.348	19.750	0.153	-0.121
-200.333	-200.000	0.007	-0.337
-199.319	-141.527	0.214	0.021
-198.304	93.570	0.018	-0.021
-197.290	-200.000	0.017	-0.186
-196.275	265.772	0.072	0.124
-195.260	105.927	-0.296	0.344
-194.246	25.130	0.064	-0.053
-193.231	-61.929	0.159	0.066
-192.217	-97.960	-0.083	0.021
-191.202	-151.087	-0.301	-0.022
-190.187	17.356	-0.180	0.140
-189.173	30.227	0.073	0.061
-188.158	-3.308	-0.350	0.240
-187.144	-67.864	0.078	-0.030
-186.129	204.833	-0.045	0.069
-185.114	-45.645	0.179	0.087
-184.100	117.630	0.263	0.318
-183.085	117.223	-0.190	0.229
-182.071	-24.313	-0.052	-0.031
-181.056	201.250	0.042	-0.063
-180.042	310.652	0.229	0.422
-179.027	194.925	-0.134	-0.199
-178.012	800.000	-0.049	0.161
-176.998	70.277	0.195	-0.198
-175.983	269.652	0.132	0.228
-174.969	-15.996	0.153	-0.095
-173.954	-73.947	-0.065	-0.023
-172.939	-200.000	-0.007	0.168
-171.925	62.352	0.153	-0.150
-170.910	-200.000	-0.004	-0.168
-169.896	-200.000	-0.012	-0.068
-168.881	-100.989	-0.085	0.020
-167.866	63.364	-0.176	-0.174
-166.852	77.489	-0.093	0.097
-165.837	-200.000	-0.017	0.399
-164.823	-119.719	0.490	-0.083
-163.808	-27.397	0.080	-0.046
-162.793	283.121	-0.189	0.333
-161.779	-16.614	-0.213	-0.132
-160.764	800.000	0.034	-0.138
-159.750	37.491	0.078	0.068
-158.735	190.873	0.151	-0.223
-157.720	626.907	0.185	-0.459
-156.706	-129.984	-0.331	0.044
-155.691	-23.753	-0.257	-0.151
-154.677	800.000	0.081	-0.292
-153.662	315.209	0.132	-0.245
-152.647	557.215	0.084	0.198
-151.633	-93.413	-0.212	-0.058
-150.618	-200.000	-0.039	0.237
-149.604	224.975	-0.020	0.032
-148.589	-52.194	0.075	0.034
-147.574	728.774	0.164	-0.430
-146.560	-164.690	-0.321	0.014
-145.545	210.597	-0.137	-0.211
-144.531	800.000	0.061	-0.245
-143.516	-200.000	-0.002	0.301
-142.502	391.511	-0.018	0.036
-141.487	454.363	0.113	-0.246
-140.472	126.094	0.054	0.067
-139.458	111.776	0.125	0.148
-138.443	-105.149	0.263	-0.059
-137.429	-170.751	0.407	-0.014
-136.414	55.518	-0.206	0.195
-135.399	-79.300	-0.326	-0.108
-134.385	369.288	-0.066	-0.131
-133.370	-200.000	-0.018	0.239
-132.356	-200.000	-0.009	0.152
-131.341	229.103	-0.075	-0.119
-130.326	-27.411	-0.189	0.108
-129.312	16.441	0.079	-0.061
-128.297	-46.537	0.251	0.121
-127.283	-89.515	0.223	-0.064
-126.268	297.988	-0.115	0.207
-125.253	-148.074	-0.408	-0.033
-124.239	329.524	-0.186	0.351
-123.224	800.000	-0.009	0.031
-122.210	-0.704	0.076	0.053
-121.195	-200.000	-0.037	-0.167
-120.180	65.672	0.175	0.174
-119.166	433.521	0.092	0.195
-118.151	800.000	-0.062	-0.173
-117.137	800.000	0.022	0.069
-116.122	-9.226	0.148	0.097
-115.107	-57.892	0.167	0.072
-114.093	800.000	-0.053	-0.170
-113.078	-200.000	-0.032	-0.149
-112.064	-2.680	-0.147	-0.101
-111.049	369.737	-0.083	0.164
-110.034	300.139	0.185	0.335
-109.020	98.177	-0.008	0.009
-108.005	-200.000	0.044	-0.209
-106.991	-120.749	-0.471	-0.078
-105.976	65.401	0.294	0.292
-104.962	420.091	0.105	-0.220
-103.947	-200.000	-0.133	-0.583
-102.932	46.316	-0.166	0.151
-101.918	17.002	0.221	0.172
-100.903	800.000	-0.044	0.154
-99.889	-35.060	0.272	0.145
-98.874	-106.324	0.025	0.006
-97.859	-158.823	0.127	0.007
-96.845	-110.496	0.253	0.051
-95.830	442.439	0.067	-0.144
-94.816	800.000	0.075	0.262
-93.801	273.887	-0.038	0.066
-92.786	73.985	-0.277	-0.284
-91.772	186.729	-0.138	-0.202
-90.757	-200.000	-0.027	0.120
-89.743	171.111	-0.142	0.200
-88.728	4.123	-0.371	-0.266
-87.713	32.620	0.228	-0.193
-86.699	82.333	-0.086	-0.091
-85.684	494.199	-0.098	-0.219
-84.670	-142.511	-0.297	0.029
-83.655	-37.783	0.105	-0.055
-82.640	131.977	0.167	0.211
-81.626	-149.943	0.103	0.008
-80.611	-76.382	0.176	0.061
-79.597	213.047	0.095	0.147
-78.582	-154.174	0.350	0.023
-77.567	-49.539	-0.328	0.153
-76.553	175.756	0.045	-0.063
-75.538	187.915	-0.061	-0.089
-74.524	-60.467	0.379	0.158
-73.509	-200.000	0.004	-0.056
-72.494	698.584	0.089	-0.230
-71.480	134.631	0.009	-0.011
-70.465	712.949	0.016	-0.041
-69.451	-200.000	0.047	0.303
-68.436	377.007	0.235	0.470
-67.422	-64.747	0.162	0.064
-66.407	42.976	0.200	-0.179
-65.392	484.850	0.168	0.374
-64.378	87.093	-0.201	0.217
-63.363	12.401	0.173	0.131
-62.349	152.638	0.153	0.204
-61.334	51.703	-0.853	-0.793
-60.319	19.391	0.740	0.581
-59.305	800.000	-0.304	-0.962
-58.290	318.429	0.654	1.211
-57.276	272.512	0.781	1.348
-56.261	-200.000	108.616	609.048
-55.246	464.167	1483.415	3242.604
-54.232	148.290	2666.503	3519.527
-53.217	101.195	2270.968	2584.664
-52.203	38.622	1885.986	1645.029
-51.188	32.879	1677.188	1419.806
-50.173	30.225	1634.458	1364.087
-49.159	50.086	1688.544	1558.154
-48.144	50.613	1703.901	1576.202
-47.130	32.408	1661.990	1403.201
-46.115	29.606	1647.312	1370.005
-45.100	29.492	1642.784	1365.348
-44.086	29.447	1639.835	1362.505
-43.071	29.411	1637.817	1360.511
-42.057	29.381	1634.920	1357.829
-41.042	29.439	1633.268	1356.827
-40.027	29.517	1631.245	1355.671
-39.013	29.395	1629.619	1353.369
-37.998	29.433	1627.473	1351.811
-36.984	29.521	1626.201	1351.346
-35.969	29.578	1624.449	1350.250
-34.954	29.715	1622.909	1349.919
-33.940	29.584	1621.629	1347.844
-32.925	29.667	1619.936	1346.993
-31.911	29.522	1618.462	1344.655
-30.896	29.522	1616.555	1343.014
-29.881	29.465	1615.377	1341.571
-28.867	29.636	1613.244	1340.990
-27.852	29.569	1612.249	1339.624
-26.838	29.569	1610.589	1338.186
-25.823	29.566	1609.180	1336.946
-24.809	29.565	1608.015	1335.916
-23.794	29.548	1606.945	1334.848
-22.779	29.481	1605.275	1332.928
-21.765	29.504	1603.565	1331.621
-20.750	29.486	1602.082	1330.203
-19.736	29.620	1600.476	1329.786
-18.721	29.686	1599.287	1329.219
-17.706	29.676	1597.589	1327.678
-16.692	29.665	1596.082	1326.301
-15.677	29.569	1594.915	1324.589
-14.663	29.574	1593.430	1323.339
-13.648	29.624	1591.771	1322.263
-12.633	29.632	1590.648	1321.334
-11.619	29.527	1589.306	1319.414
-10.604	29.515	1587.819	1318.045
-9.590	29.673	1586.310	1317.865
-8.575	29.673	1585.363	1317.028
-7.560	29.561	1584.560	1315.511
-6.546	29.504	1583.348	1314.046
-5.531	29.527	1581.805	1312.882
-4.517	29.558	1580.633	1312.074
-3.502	29.620	1579.335	1311.381
-2.487	29.659	1578.023	1310.521
-1.473	29.092	1566.214	1296.670
-0.458	26.095	1546.099	1259.093
0.556	20.003	1546.332	1225.073
1.571	17.501	1569.160	1225.066
2.586	17.016	1581.636	1231.177
3.600	16.112	1530.695	1185.067
4.615	12.790	1432.873	1087.347
5.629	9.429	1376.588	1023.204
6.644	8.646	1369.637	1012.988
7.659	8.650	1368.219	1011.880
8.673	8.600	1367.031	1010.592
9.688	8.555	1365.159	1008.834
10.702	8.462	1362.084	1005.890
11.717	10.015	1365.084	1017.804
12.731	13.963	1371.548	1047.471
13.746	16.850	1376.036	1069.044
14.761	17.048	1375.155	1069.512
15.775	16.253	1372.356	1062.241
16.790	15.107	1369.816	1052.980
17.804	14.195	1368.033	1045.783
18.819	13.811	1365.853	1041.616
19.834	13.523	1364.805	1038.918
20.848	13.357	1363.590	1036.863
21.863	13.144	1362.068	1034.281
22.877	12.986	1360.956	1032.356
23.892	12.865	1360.798	1031.383
24.907	12.910	1359.749	1030.778
25.921	12.900	1358.253	1029.490
26.936	12.911	1358.110	1029.364
27.950	12.897	1356.482	1027.950
28.965	13.045	1355.711	1028.197
29.980	13.188	1354.304	1027.927
30.994	13.267	1352.549	1026.993
32.009	13.243	1351.917	1026.278
33.023	13.210	1350.831	1025.156
34.038	13.217	1349.533	1024.125
35.053	13.159	1348.350	1022.774
36.067	13.102	1347.536	1021.717
37.082	13.106	1345.972	1020.463
38.096	13.179	1344.993	1020.084
39.111	13.249	1344.406	1019.981
40.126	13.054	1343.914	1018.312
41.140	12.976	1342.679	1016.807
42.155	12.814	1342.536	1015.611
43.169	12.925	1342.318	1016.039
44.184	12.926	1341.619	1015.428
45.199	12.898	1341.972	1015.431
46.213	12.961	1340.821	1014.860
47.228	13.061	1339.928	1014.708
48.242	13.151	1338.925	1014.413
49.257	13.030	1337.205	1012.272
50.271	12.975	1335.760	1010.754
51.286	13.068	1334.665	1010.406
52.301	13.067	1333.514	1009.440
53.315	13.029	1332.397	1008.274
54.330	12.958	1331.374	1006.973
55.344	12.929	1330.234	1005.846
56.359	12.942	1328.775	1004.736
57.374	12.977	1327.833	1004.144
58.388	12.829	1327.508	1002.912
59.403	12.829	1326.690	1002.203
60.417	12.775	1326.342	1001.523
61.432	12.919	1325.377	1001.584
62.447	12.779	1324.218	999.767
63.461	12.794	1322.778	998.685
64.476	12.738	1322.252	997.858
65.490	12.829	1320.971	997.354
66.505	12.815	1319.567	996.120
67.520	12.872	1318.086	995.262
68.534	12.798	1317.252	994.094
69.549	12.908	1316.217	993.888
70.563	12.841	1315.175	992.609
71.578	12.815	1313.496	991.101
72.593	12.667	1313.083	989.813
73.607	12.717	1312.298	989.429
74.622	12.712	1311.414	988.648
75.636	12.742	1310.591	988.118
76.651	12.747	1310.134	987.718
77.666	12.757	1309.492	987.208
78.680	12.761	1309.363	987.046
79.695	12.775	1308.439	986.346
80.709	12.854	1307.521	986.036
81.724	12.980	1306.348	985.819
82.739	12.956	1305.711	985.109
83.753	12.909	1305.084	984.266
84.768	12.993	1304.068	983.914
85.782	13.023	1303.076	983.255
86.797	13.149	1301.649	982.842
87.812	13.015	1300.309	980.948
88.826	12.896	1299.928	979.869
89.841	13.029	1298.244	979.302
90.855	12.994	1297.483	978.432
91.870	13.113	1296.171	978.061
92.884	13.091	1295.738	977.517
93.899	13.132	1295.027	977.140
94.914	13.242	1293.846	976.810
95.928	13.143	1293.327	975.745
96.943	13.125	1292.307	974.785
97.957	13.110	1291.320	973.863
98.972	13.114	1290.474	973.164
99.987	13.103	1289.285	972.117
101.001	13.096	1287.951	970.984
102.016	13.060	1287.085	970.033
103.030	13.211	1286.081	970.076
104.045	13.080	1285.322	968.652
105.060	13.068	1283.597	967.193
106.074	12.966	1282.456	965.656
107.089	12.951	1281.219	964.546
108.103	12.966	1280.023	963.652
109.118	12.853	1278.622	961.851
110.133	12.870	1277.419	960.959
111.147	12.888	1275.638	959.639
112.162	12.856	1274.980	958.877
113.176	13.034	1273.376	958.616
114.191	12.879	1272.962	957.319
115.206	12.920	1271.531	956.395
116.220	12.923	1270.264	955.379
117.235	13.026	1269.173	955.069
118.249	12.947	1268.360	953.915
119.264	12.905	1267.189	952.708
120.279	12.863	1266.064	951.534
121.293	13.016	1264.560	951.203
122.308	12.886	1264.092	950.015
123.322	12.804	1263.415	948.954
124.337	12.723	1262.550	947.751
125.352	12.849	1261.000	947.232
126.366	12.912	1259.232	946.179
127.381	12.722	1259.202	944.982
128.395	12.908	1257.314	944.546
129.410	12.922	1257.029	944.330
130.424	12.823	1256.455	943.246
131.439	12.843	1255.555	942.604
132.454	12.908	1254.554	942.138
133.468	13.064	1253.286	941.996
134.483	12.904	1252.923	940.723
135.497	12.981	1251.789	940.229
136.512	12.902	1250.505	938.732
137.527	13.111	1248.897	938.630
138.541	12.940	1247.889	936.819
139.556	12.906	1246.583	935.561
140.570	13.087	1245.352	935.580
141.585	13.150	1244.466	935.188
142.600	13.093	1243.649	934.169
143.614	13.269	1242.139	933.948
144.629	13.263	1240.899	932.898
145.643	13.084	1240.460	931.477
146.658	13.156	1239.289	930.921
147.673	13.117	1237.777	929.485
148.687	13.025	1236.861	928.196
149.702	13.046	1235.446	927.170
150.716	13.061	1233.795	925.933
151.731	13.228	1232.287	925.656
152.746	13.020	1231.701	923.966
153.760	13.100	1230.606	923.512
154.775	13.113	1229.608	922.758
155.789	13.236	1228.492	922.521
156.804	13.165	1227.576	921.358
157.819	13.216	1226.541	920.782
158.833	13.322	1225.006	920.141
159.848	13.333	1224.474	919.719
160.862	13.360	1223.766	919.255
161.877	13.315	1222.348	917.862
162.892	13.071	1221.511	915.795
163.906	13.132	1220.759	915.488
164.921	13.104	1219.532	914.332
165.935	13.278	1218.401	914.365
166.950	13.279	1217.713	913.773
167.964	13.182	1216.949	912.588
168.979	13.122	1216.593	911.906
169.994	13.318	1215.915	912.398
171.008	13.338	1214.847	911.630
172.023	13.263	1214.113	910.585
173.037	13.441	1213.038	910.674
174.052	13.361	1212.117	909.466
175.067	13.282	1210.997	908.106
176.081	13.265	1210.209	907.343
177.096	13.341	1209.134	906.874
178.110	13.332	1208.191	906.036
179.125	13.367	1206.839	905.136
180.140	13.306	1205.765	903.918
181.154	13.409	1204.517	903.463
182.169	13.386	1203.664	902.616
183.183	13.472	1202.189	901.901
184.198	13.511	1201.420	901.458
185.213	13.526	1200.145	900.500
186.227	13.549	1198.847	899.571
187.242	13.461	1198.229	898.554
188.256	13.555	1197.575	898.495
189.271	13.499	1196.655	897.419
190.286	13.505	1195.277	896.337
191.300	13.292	1194.211	894.305
192.315	13.215	1193.650	893.393
193.329	13.285	1193.059	893.247
194.344	13.339	1192.450	893.006
195.359	13.430	1191.380	892.618
196.373	13.494	1191.245	892.784
197.388	13.659	1190.966	893.382
198.402	13.710	1190.397	893.149
199.417	13.767	1189.711	892.863
200.432	13.756	1188.943	892.148
201.446	13.769	1187.896	891.357
202.461	13.860	1187.065	891.140
203.475	13.858	1185.735	890.053
204.490	13.789	1184.814	888.912
205.504	13.713	1183.834	887.694
206.519	13.681	1182.593	886.511
207.534	13.728	1181.199	885.642
208.548	13.639	1180.759	884.755
209.563	13.743	1179.898	884.589
210.577	13.771	1178.981	883.973
211.592	13.735	1178.197	883.111
212.607	13.828	1176.871	882.536
213.621	13.907	1176.102	882.303
214.636	13.925	1175.014	881.505
215.650	13.838	1174.483	880.564
216.665	13.963	1173.657	880.528
217.680	13.987	1172.605	879.789
218.694	14.085	1171.886	879.691
219.709	14.026	1170.930	878.583
220.723	14.005	1170.313	877.931
221.738	13.960	1170.139	877.487
222.753	14.047	1169.103	877.089
223.767	14.049	1168.388	876.490
224.782	14.004	1167.974	875.859
225.796	14.075	1167.244	875.610
226.811	14.041	1166.369	874.699
227.826	14.034	1165.580	873.994
228.840	14.041	1164.814	873.375
229.855	14.113	1163.901	872.994
230.869	14.005	1162.579	871.358
231.884	14.074	1162.428	871.529
232.899	13.921	1161.612	870.039
233.913	14.081	1160.819	870.208
234.928	14.110	1159.668	869.419
235.942	13.975	1159.266	868.332
236.957	14.002	1158.602	867.902
237.972	13.964	1157.699	866.948
238.986	14.006	1157.260	866.761
240.001	14.013	1156.586	866.220
241.015	14.045	1155.863	865.765
242.030	14.107	1154.866	865.263
243.045	14.109	1154.356	864.817
244.059	14.237	1153.314	864.623
245.074	14.287	1152.280	864.033
246.088	14.203	1151.838	863.191
247.103	14.318	1150.844	862.965
248.117	14.490	1150.110	863.229
249.132	14.413	1149.778	862.505
250.147	14.493	1149.216	862.421
251.161	14.561	1148.251	861.968
252.176	14.468	1147.645	860.958
253.190	14.532	1147.039	860.758
254.205	14.558	1146.810	860.645
255.220	14.632	1145.792	860.189
256.234	14.642	1145.356	859.834
257.249	14.716	1143.916	859.057
258.263	14.764	1143.449	858.875
259.278	14.633	1143.490	858.159
260.293	14.694	1142.780	857.863
261.307	14.707	1142.196	857.417
262.322	14.661	1141.431	856.529
263.336	14.823	1140.625	856.682
264.351	14.745	1140.089	855.801
265.366	14.857	1139.583	855.917
266.380	14.821	1138.446	854.806
267.395	14.854	1137.612	854.270
268.409	14.779	1137.064	853.402
269.424	14.796	1136.188	852.756
270.439	14.767	1136.017	852.405
271.453	14.763	1135.075	851.603
272.468	14.701	1134.546	850.815
273.482	14.818	1133.532	850.572
274.497	14.697	1132.963	849.455
275.512	14.833	1132.462	849.699
276.526	14.944	1131.299	849.314
277.541	14.798	1131.031	848.296
278.555	14.823	1130.454	847.914
279.570	14.904	1129.793	847.752
280.585	14.969	1129.094	847.482
281.599	15.003	1127.812	846.618
282.614	14.977	1126.692	845.570
283.628	15.008	1125.610	844.843
284.643	15.010	1124.871	844.220
285.657	14.972	1123.790	843.143
286.672	14.933	1123.101	842.356
287.687	14.994	1122.468	842.111
288.701	14.926	1121.908	841.278
289.716	15.122	1120.608	841.212
290.730	15.063	1120.330	840.633
291.745	15.060	1119.585	839.982
292.760	15.040	1118.770	839.197
293.774	15.101	1118.526	839.245
294.789	15.163	1118.126	839.186
295.803	15.101	1117.348	838.216
296.818	15.081	1116.526	837.422
297.833	15.074	1115.503	836.550
298.847	15.024	1115.021	835.864
299.862	15.153	1114.296	835.891
300.876	15.114	1113.460	834.995
301.891	15.391	1112.717	835.741
302.906	15.325	1112.188	834.943
303.920	15.303	1111.225	834.038
304.935	15.380	1110.848	834.063
305.949	15.423	1110.388	833.858
306.964	15.463	1109.318	833.180
307.979	15.339	1108.657	831.992
308.993	15.423	1107.736	831.646
310.008	15.428	1107.136	831.146
311.022	15.386	1106.337	830.264
312.037	15.412	1105.557	829.733
313.052	15.331	1104.643	828.573
314.066	15.381	1103.636	827.990
315.081	15.471	1102.537	827.537
316.095	15.395	1101.907	826.618
317.110	15.306	1101.416	825.738
318.125	15.423	1100.206	825.334
319.139	15.379	1100.026	824.909
320.154	15.403	1099.170	824.313
321.168	15.348	1098.372	823.368
322.183	15.392	1098.405	823.535
323.197	15.427	1097.655	823.074
324.212	15.377	1097.120	822.355
325.227	15.517	1096.302	822.356
326.241	15.494	1095.867	821.841
327.256	15.478	1094.869	820.943
328.270	15.397	1094.007	819.830
329.285	15.420	1093.042	819.147
330.300	15.372	1091.992	818.052
331.314	15.454	1091.173	817.768
332.329	15.353	1090.661	816.819
333.343	15.587	1089.409	816.945
334.358	15.596	1088.539	816.264
335.373	15.558	1087.676	815.361
336.387	15.601	1087.092	815.060
337.402	15.683	1086.292	814.784
338.416	15.693	1085.633	814.266
339.431	15.755	1085.175	814.150
340.446	15.820	1084.593	813.959
341.460	15.858	1083.891	813.543
342.475	15.854	1083.235	812.960
343.489	15.841	1082.105	811.977
344.504	15.818	1081.174	811.096
345.519	15.954	1080.343	811.057
346.533	15.936	1080.032	810.663
347.548	15.913	1079.090	809.776
348.562	16.066	1078.034	809.645
349.577	15.849	1077.687	808.271
350.592	15.982	1076.467	807.919
351.606	15.815	1075.592	806.395
352.621	15.789	1075.082	805.813
353.635	15.810	1074.537	805.435
354.650	15.817	1073.801	804.847
355.665	15.895	1072.879	804.456
356.679	15.933	1072.471	804.262
357.694	16.001	1071.670	803.916
358.708	15.984	1070.831	803.130
359.723	15.883	1070.766	802.532
360.738	16.038	1070.014	802.636
361.752	16.020	1069.817	802.330
362.767	16.017	1069.277	801.837
363.781	16.050	1068.515	801.355
364.796	16.090	1067.888	801.004
365.810	16.113	1067.248	800.562
366.825	16.285	1066.583	800.807
367.840	16.320	1066.147	800.574
368.854	16.319	1065.543	800.048
369.869	16.270	1064.907	799.264
370.883	16.209	1063.746	798.036
371.898	16.242	1063.021	797.575
372.913	16.314	1062.437	797.409
373.927	16.259	1062.027	796.772
374.942	16.359	1061.417	796.715
375.956	16.351	1061.200	796.442
376.971	16.177	1060.486	795.014
377.986	16.439	1059.953	795.778
379.000	16.429	1059.350	795.210
380.015	16.549	1058.790	795.282
381.029	16.527	1058.040	794.545
382.044	16.599	1057.218	794.198
383.059	16.538	1056.603	793.378
384.073	16.520	1055.922	792.710
385.088	16.496	1055.621	792.302
386.102	16.611	1053.868	791.458
387.117	16.453	1052.974	789.975
388.132	16.401	1052.375	789.214
389.146	16.375	1051.660	788.485
390.161	16.455	1050.635	788.024
391.175	16.460	1050.240	787.678
392.190	16.475	1049.825	787.367
393.205	16.669	1048.740	787.385
394.219	16.538	1047.845	786.035
395.234	16.594	1047.243	785.776
396.248	16.538	1046.487	784.880
397.263	16.681	1045.008	784.365
398.278	16.545	1044.605	783.358
399.292	16.501	1043.722	782.424
400.307	16.468	1043.023	781.679
401.321	16.543	1042.279	781.398
402.336	16.481	1041.839	780.714
403.350	16.533	1041.095	780.327
404.365	16.556	1040.449	779.882
405.380	16.718	1039.663	779.967
406.394	16.684	1039.123	779.339
407.409	16.785	1038.452	779.231
408.423	16.832	1037.626	778.756
409.438	16.821	1037.106	778.250
410.453	16.812	1036.479	777.665
411.467	16.959	1035.603	777.616
412.482	16.826	1035.088	776.550
413.496	16.860	1034.644	776.303
414.511	16.876	1034.053	775.863
415.526	17.064	1033.415	776.175
416.540	17.059	1033.165	775.899
417.555	17.091	1032.363	775.374
418.569	17.081	1031.913	774.920
419.584	17.067	1031.681	774.616
420.599	17.019	1031.081	773.876
421.613	103.720	1323.111	1471.620
422.628	94.925	1365.616	1471.722
