DTS Sentinel unit serial number:	SN413079Multiplexer serial number:	ORYXHardware model number:	OX4-SRSoftware version number:	ORYX F/W v4.00 Oryx Data Collector v3.7.2.0data status	okinstallation	princeton_trtdifferential loss correction	single-endedforward channel	channel 2reverse channel	N/Adate	2019/09/13time	01:19:35forward acquisition time	60.00reverse acquisition time	0.00gamma	496.2192k internal	0.2334k external	0.2334temperature offset calibration	1.0168default loss term (dB/km)	0.3790temperature slope calibration	1.0000multiplexer offset coefficient	1.0000multiplexer slope coefficient	1.0000fibre end	0.00T internal ref (°C)	27.87T ext. ref 1 (°C)	3.70T ext. ref 2 (°C)	22.48length (m)	temperature (°C)	Stokes	anti-Stokes-747.200	-77.175	-0.289	-0.101
-746.185	209.202	-0.185	0.292
-745.171	450.482	0.056	-0.124
-744.156	-136.592	-0.126	0.015
-743.142	-80.341	0.451	0.151
-742.127	74.120	-0.143	0.151
-741.112	99.073	-0.071	0.082
-740.098	-45.663	0.149	0.074
-739.083	79.640	-0.127	0.138
-738.069	-135.332	-0.321	0.039
-737.054	-200.000	0.029	-0.187
-736.039	322.007	-0.174	-0.333
-735.025	-168.762	0.436	0.017
-734.010	270.367	-0.291	-0.514
-732.996	800.000	0.034	0.135
-731.981	23.577	0.085	0.070
-730.966	88.706	0.205	-0.229
-729.952	377.742	0.043	-0.088
-728.937	-41.148	-0.240	-0.125
-727.923	-25.751	-0.314	-0.186
-726.908	800.000	0.087	-0.295
-725.894	64.503	-0.105	-0.106
-724.879	-99.282	-0.347	0.088
-723.864	144.383	0.168	0.225
-722.850	-200.000	0.028	0.190
-721.835	-47.141	0.099	0.049
-720.821	-137.981	-0.076	-0.009
-719.806	76.450	0.096	-0.102
-718.791	-103.419	-0.184	-0.044
-717.777	-101.316	-0.295	-0.072
-716.762	-43.061	-0.211	-0.108
-715.748	-162.839	-0.228	0.011
-714.733	-101.021	-0.220	-0.054
-713.718	266.848	-0.082	-0.144
-712.704	116.144	0.236	-0.291
-711.689	474.854	-0.080	0.181
-710.675	176.633	-0.078	-0.113
-709.660	-92.388	-0.068	0.019
-708.645	-114.360	-0.192	-0.037
-707.631	-76.819	0.128	0.045
-706.616	155.893	0.123	-0.170
-705.602	-99.641	-0.157	-0.040
-704.587	800.000	0.128	-0.473
-703.572	-137.302	-0.247	0.028
-702.558	35.801	-0.043	-0.038
-701.543	415.115	0.248	-0.530
-700.529	-200.000	0.030	-0.237
-699.514	33.157	-0.288	-0.251
-698.499	-135.812	0.236	0.028
-697.485	226.376	-0.158	0.258
-696.470	643.343	0.050	-0.128
-695.456	490.623	0.049	-0.113
-694.441	-46.679	-0.301	0.148
-693.426	-6.906	-0.044	-0.030
-692.412	375.355	-0.147	-0.301
-691.397	800.000	0.031	0.133
-690.383	32.798	-0.196	0.170
-689.368	800.000	0.026	0.082
-688.354	-49.504	-0.143	0.068
-687.339	-118.151	-0.134	0.024
-686.324	94.388	0.190	-0.216
-685.310	-13.078	-0.075	0.049
-684.295	-200.000	-0.072	-0.371
-683.281	-200.000	-0.027	-0.258
-682.266	-65.458	0.043	0.017
-681.251	329.931	0.001	-0.002
-680.237	-136.999	0.080	0.009
-679.222	434.267	0.144	-0.314
-678.208	-30.763	-0.194	-0.110
-677.193	800.000	0.023	-0.088
-676.178	800.000	-0.048	0.166
-675.164	128.217	-0.342	-0.436
-674.149	-45.133	-0.508	0.253
-673.135	-143.664	0.372	-0.035
-672.120	-200.000	-0.028	-0.141
-671.105	-145.986	-0.179	0.016
-670.091	-200.000	-0.008	-0.306
-669.076	-141.579	0.277	-0.028
-668.062	-42.443	0.483	-0.247
-667.047	-126.792	-0.200	-0.030
-666.032	-101.352	0.174	0.042
-665.018	579.316	0.051	0.125
-664.003	695.559	0.126	0.330
-662.989	76.745	-0.124	-0.132
-661.974	498.523	0.100	-0.231
-660.959	-200.000	-0.034	0.270
-659.945	-139.429	0.120	0.013
-658.930	-200.000	-0.042	-0.299
-657.916	800.000	-0.025	-0.081
-656.901	27.337	0.095	-0.080
-655.886	70.532	-0.094	0.097
-654.872	-44.592	-0.293	-0.147
-653.857	13.673	-0.266	-0.207
-652.843	-54.248	-0.160	0.073
-651.828	-17.970	0.104	-0.065
-650.814	-200.000	0.015	0.201
-649.799	-52.024	-0.404	-0.188
-648.784	800.000	-0.086	-0.298
-647.770	85.855	0.028	-0.031
-646.755	349.055	0.143	-0.282
-645.741	-200.000	-0.007	-0.216
-644.726	-66.132	-0.163	-0.065
-643.711	-200.000	-0.018	-0.141
-642.697	42.244	-0.398	-0.362
-641.682	-89.548	-0.057	-0.017
-640.668	-153.096	-0.177	-0.012
-639.653	155.921	-0.195	-0.269
-638.638	-101.425	0.037	-0.009
-637.624	-145.831	-0.229	-0.020
-636.609	-200.000	0.089	-0.443
-635.595	-14.968	-0.364	-0.234
-634.580	-138.667	-0.313	0.034
-633.565	-200.000	0.003	-0.393
-632.551	317.935	-0.067	-0.128
-631.536	-152.506	0.022	-0.002
-630.522	-165.925	0.200	-0.009
-629.507	58.396	0.121	-0.119
-628.492	17.347	0.088	0.070
-627.478	-200.000	-0.014	-0.399
-626.463	24.468	-0.161	-0.133
-625.449	-44.707	-0.137	-0.068
-624.434	-200.000	-0.031	-0.196
-623.419	37.910	-0.344	-0.306
-622.405	-75.287	0.195	0.070
-621.390	41.230	-0.287	0.260
-620.376	-143.388	0.086	0.008
-619.361	492.721	-0.045	0.102
-618.346	-7.129	-0.186	-0.126
-617.332	-82.125	-0.306	-0.100
-616.317	-200.000	0.011	0.159
-615.303	41.481	0.152	-0.137
-614.288	6.513	-0.158	-0.118
-613.273	150.175	0.096	0.131
-612.259	800.000	-0.024	0.097
-611.244	-200.000	-0.047	0.250
-610.230	-78.807	-0.414	-0.141
-609.215	-107.019	-0.271	-0.060
-608.201	-139.445	0.222	0.024
-607.186	-60.326	0.294	-0.125
-606.171	800.000	0.050	-0.174
-605.157	11.603	0.147	0.113
-604.142	800.000	-0.046	-0.153
-603.128	-146.521	0.343	-0.030
-602.113	-200.000	0.016	0.117
-601.098	-200.000	0.013	0.209
-600.084	253.146	0.142	0.242
-599.069	455.033	0.090	-0.199
-598.055	-200.000	-0.014	0.176
-597.040	219.029	0.139	-0.222
-596.025	-116.158	-0.130	0.024
-595.011	-30.317	-0.181	-0.103
-593.996	-117.627	-0.235	-0.042
-592.982	-75.755	0.075	-0.026
-591.967	22.714	-0.156	0.127
-590.952	-121.846	0.144	-0.024
-589.938	-100.744	-0.225	-0.055
-588.923	178.874	0.184	0.269
-587.909	-147.231	-0.234	0.020
-586.894	100.085	-0.233	0.270
-585.879	-81.009	-0.264	0.087
-584.865	-200.000	-0.031	0.356
-583.850	-188.116	0.090	-0.001
-582.836	-126.282	0.062	-0.009
-581.821	354.085	0.075	0.149
-580.806	381.293	-0.112	0.230
-579.792	-127.207	0.243	0.035
-578.777	-157.837	-0.335	0.020
-577.763	-200.000	0.055	-0.296
-576.748	-200.000	-0.017	0.126
-575.733	-80.630	-0.308	-0.102
-574.719	-10.503	0.119	-0.079
-573.704	-49.356	-0.184	-0.088
-572.690	74.094	0.189	0.198
-571.675	649.245	-0.044	0.114
-570.661	-200.000	0.009	-0.103
-569.646	-95.428	-0.047	0.013
-568.631	64.625	-0.171	0.173
-567.617	-130.068	-0.212	-0.029
-566.602	107.656	0.183	-0.217
-565.588	-82.297	0.043	0.014
-564.573	-168.301	-0.175	-0.007
-563.558	2.589	0.216	-0.156
-562.544	162.454	0.155	-0.217
-561.529	107.509	-0.084	-0.099
-560.515	449.269	0.058	-0.127
-559.500	17.444	-0.137	-0.109
-558.485	-133.232	0.265	-0.033
-557.471	355.068	0.097	0.193
-556.456	-200.000	-0.005	0.429
-555.442	-129.637	0.157	-0.022
-554.427	677.114	0.022	-0.058
-553.412	279.029	-0.108	0.193
-552.398	800.000	-0.062	0.240
-551.383	-200.000	-0.073	0.455
-550.369	563.171	-0.112	-0.270
-549.354	-150.572	-0.241	-0.018
-548.339	-54.020	0.034	0.016
-547.325	-164.521	0.279	0.013
-546.310	66.052	0.064	0.065
-545.296	-16.622	-0.177	0.112
-544.281	-43.385	-0.184	0.093
-543.266	-88.333	-0.312	0.093
-542.252	-30.249	0.169	-0.096
-541.237	-112.452	-0.068	0.014
-540.223	350.855	-0.093	-0.184
-539.208	11.994	-0.263	0.202
-538.193	-131.668	-0.262	-0.034
-537.179	-8.913	-0.066	0.044
-536.164	758.949	0.033	-0.088
-535.150	153.439	0.070	0.096
-534.135	-158.169	0.103	0.006
-533.121	174.333	-0.273	0.394
-532.106	232.932	-0.111	0.182
-531.091	-200.000	0.009	0.085
-530.077	137.527	0.129	0.168
-529.062	-102.761	-0.132	-0.031
-528.048	-187.855	0.417	0.005
-527.033	-200.000	0.055	-0.288
-526.018	204.860	-0.048	0.074
-525.004	-200.000	0.033	0.323
-523.989	-200.000	-0.028	-0.220
-522.975	5.626	-0.029	-0.022
-521.960	800.000	0.087	0.269
-520.945	800.000	-0.020	-0.057
-519.931	800.000	-0.114	-0.471
-518.916	-25.141	-0.133	-0.079
-517.902	133.202	0.168	0.216
-516.887	800.000	-0.054	-0.186
-515.872	-122.819	-0.245	-0.039
-514.858	-103.877	-0.069	-0.016
-513.843	800.000	-0.005	0.019
-512.829	-66.934	0.160	0.063
-511.814	-57.320	-0.305	0.133
-510.799	63.079	-0.144	-0.143
-509.785	-200.000	0.012	-0.056
-508.770	-111.808	-0.317	-0.064
-507.756	-31.220	-0.045	0.025
-506.741	-83.749	0.080	0.026
-505.726	-71.812	0.164	0.061
-504.712	275.483	0.019	0.034
-503.697	-105.557	-0.162	-0.037
-502.683	-69.946	-0.098	0.037
-501.668	-200.000	0.028	-0.246
-500.653	333.441	0.074	-0.143
-499.639	-123.593	-0.136	-0.021
-498.624	118.302	0.072	-0.088
-497.610	-171.170	-0.280	-0.009
-496.595	-192.653	0.117	0.001
-495.581	-200.000	0.023	-0.146
-494.566	400.152	0.103	-0.214
-493.551	800.000	0.076	0.327
-492.537	-44.464	-0.210	0.104
-491.522	-7.092	-0.397	0.268
-490.508	53.472	0.217	-0.207
-489.493	60.400	-0.282	0.278
-488.478	-200.000	0.024	-0.134
-487.464	-200.000	-0.008	0.178
-486.449	10.269	-0.115	0.087
-485.435	286.922	-0.060	-0.108
-484.420	84.945	0.185	0.202
-483.405	8.966	0.207	0.156
-482.391	222.172	-0.040	-0.064
-481.376	7.145	-0.028	0.021
-480.362	-200.000	-0.013	-0.142
-479.347	800.000	-0.055	-0.188
-478.332	-140.059	0.014	-0.001
-477.318	287.021	-0.115	-0.207
-476.303	224.787	0.114	-0.183
-475.289	-117.202	-0.116	-0.021
-474.274	6.064	0.162	0.119
-473.259	115.481	0.152	-0.185
-472.245	-163.446	-0.137	-0.006
-471.230	-193.671	-0.343	0.003
-470.216	800.000	0.040	-0.171
-469.201	304.629	0.087	0.160
-468.186	-147.203	0.042	0.004
-467.172	52.740	0.146	0.139
-466.157	-27.871	0.066	-0.038
-465.143	-147.398	0.149	-0.013
-464.128	34.837	0.129	-0.112
-463.113	-100.112	-0.263	-0.065
-462.099	-93.578	0.248	0.068
-461.084	496.441	0.063	0.145
-460.070	68.508	-0.220	-0.224
-459.055	-11.469	-0.230	-0.151
-458.040	800.000	-0.060	0.188
-457.026	-56.893	0.216	-0.095
-456.011	-200.000	-0.006	-0.156
-454.997	38.338	-0.132	0.117
-453.982	788.268	0.091	-0.249
-452.968	-75.899	-0.087	-0.030
-451.953	-103.137	0.043	-0.010
-450.938	-68.671	0.043	-0.017
-449.924	-180.585	0.049	-0.001
-448.909	276.777	0.149	0.263
-447.895	152.356	0.152	0.206
-446.880	-200.000	-0.064	-0.293
-445.865	-69.635	-0.199	-0.076
-444.851	-200.000	0.030	-0.298
-443.836	-126.875	-0.259	-0.038
-442.822	-117.676	0.150	-0.027
-441.807	69.244	0.377	-0.386
-440.792	728.879	0.061	-0.163
-439.778	60.689	-0.232	-0.228
-438.763	-147.659	0.268	0.022
-437.749	800.000	-0.028	-0.088
-436.734	117.067	0.179	-0.219
-435.719	143.916	-0.065	0.086
-434.705	-4.362	0.149	0.102
-433.690	-78.383	-0.475	-0.162
-432.676	7.590	0.254	0.189
-431.661	-118.950	-0.222	0.039
-430.646	118.537	0.166	0.203
-429.632	-146.364	-0.322	-0.028
-428.617	800.000	-0.160	0.470
-427.603	-200.000	0.003	-0.345
-426.588	19.753	-0.212	0.170
-425.573	-128.379	0.363	-0.051
-424.559	217.510	0.070	0.110
-423.544	63.072	-0.109	-0.108
-422.530	-139.281	-0.213	0.023
-421.515	149.877	0.123	0.166
-420.500	-200.000	0.072	0.335
-419.486	-6.453	-0.326	0.221
-418.471	84.690	-0.059	-0.064
-417.457	69.410	-0.033	-0.034
-416.442	-200.000	-0.117	0.000
-415.428	-18.156	0.085	-0.053
-414.413	-200.000	-0.001	-0.370
-413.398	-28.753	0.271	-0.155
-412.384	800.000	-0.077	0.302
-411.369	-200.000	-0.005	0.334
-410.355	81.258	-0.168	-0.180
-409.340	-26.656	-0.111	-0.064
-408.325	412.333	-0.017	0.035
-407.311	-125.771	0.380	-0.057
-406.296	130.560	-0.070	-0.089
-405.282	555.886	0.057	0.136
-404.267	-138.249	0.311	-0.034
-403.252	99.553	0.251	-0.288
-402.238	-152.193	0.065	-0.005
-401.223	382.351	0.115	0.235
-400.209	-62.451	-0.205	-0.085
-399.194	-57.387	-0.235	0.102
-398.179	-53.708	0.173	0.079
-397.165	-107.521	0.361	-0.078
-396.150	135.901	0.221	-0.286
-395.136	-38.678	-0.018	0.009
-394.121	800.000	0.162	-0.454
-393.106	-53.616	0.426	-0.193
-392.092	77.988	0.081	0.086
-391.077	-78.642	-0.187	0.063
-390.063	-109.920	-0.123	-0.026
-389.048	-125.048	0.218	0.033
-388.033	439.667	0.049	-0.106
-387.019	-66.754	0.201	-0.079
-386.004	-200.000	-0.071	-0.355
-384.990	681.229	-0.060	0.155
-383.975	406.806	0.071	-0.149
-382.960	-112.361	0.153	-0.030
-381.946	699.552	-0.144	0.375
-380.931	150.107	-0.101	0.136
-379.917	118.361	0.206	-0.252
-378.902	54.088	-0.058	-0.055
-377.888	-200.000	0.043	0.250
-376.873	-95.502	-0.181	-0.048
-375.858	-70.708	-0.117	-0.044
-374.844	-200.000	0.017	-0.335
-373.829	-124.526	0.282	0.043
-372.815	401.380	-0.028	0.059
-371.800	-99.606	0.323	-0.080
-370.785	278.531	-0.062	-0.110
-369.771	303.802	0.059	0.108
-368.756	-39.083	0.382	-0.199
-367.742	135.065	0.183	-0.235
-366.727	800.000	0.033	-0.100
-365.712	-200.000	0.005	-0.226
-364.698	10.788	-0.182	0.137
-363.683	39.390	-0.196	-0.174
-362.669	708.044	-0.106	0.278
-361.654	-76.890	-0.165	0.057
-360.639	-14.168	-0.226	0.145
-359.625	-200.000	-0.004	-0.038
-358.610	800.000	0.185	0.626
-357.596	-166.933	0.202	-0.008
-356.581	-91.646	0.123	0.035
-355.566	-148.198	0.210	0.017
-354.552	800.000	-0.015	-0.058
-353.537	7.398	0.269	0.199
-352.523	800.000	-0.099	0.295
-351.508	-145.776	-0.337	0.030
-350.493	-121.032	-0.419	0.070
-349.479	106.129	0.169	-0.198
-348.464	37.984	-0.181	-0.159
-347.450	-40.119	0.262	-0.135
-346.435	-71.418	-0.387	0.143
-345.420	-24.428	-0.061	-0.036
-344.406	-200.000	-0.021	-0.318
-343.391	565.373	-0.103	0.247
-342.377	-200.000	0.138	0.000
-341.362	-96.977	-0.146	0.038
-340.348	-200.000	-0.021	0.156
-339.333	-200.000	0.032	-0.172
-338.318	-32.742	-0.195	-0.107
-337.304	24.027	-0.121	-0.098
-336.289	-200.000	-0.003	-0.216
-335.275	-200.000	0.039	0.286
-334.260	-200.000	0.004	0.160
-333.245	331.427	0.265	0.506
-332.231	-65.669	0.144	0.057
-331.216	124.633	-0.164	0.204
-330.202	11.104	-0.232	0.176
-329.187	67.903	0.078	-0.079
-328.172	457.631	0.155	0.340
-327.158	-200.000	0.030	0.165
-326.143	800.000	-0.076	-0.211
-325.129	-200.000	-0.004	-0.168
-324.114	181.120	0.184	0.268
-323.099	-105.231	-0.050	-0.011
-322.085	83.668	0.033	-0.036
-321.070	153.177	-0.168	-0.227
-320.056	-108.640	0.065	-0.014
-319.041	-200.000	-0.032	0.183
-318.026	3.538	-0.090	-0.065
-317.012	-81.656	-0.481	-0.156
-315.997	153.156	0.136	-0.184
-314.983	-121.830	-0.106	0.017
-313.968	-200.000	0.049	0.258
-312.953	690.431	-0.204	0.527
-311.939	202.706	-0.186	0.284
-310.924	2.104	-0.376	0.268
-309.910	277.697	0.141	0.248
-308.895	31.507	-0.165	-0.140
-307.880	-148.708	0.327	0.026
-306.866	-155.026	-0.216	0.014
-305.851	145.004	0.128	-0.169
-304.837	366.656	-0.047	-0.093
-303.822	800.000	0.069	0.211
-302.807	800.000	-0.088	0.254
-301.793	-31.794	-0.327	0.181
-300.778	-88.159	-0.099	-0.029
-299.764	-200.000	0.045	0.199
-298.749	119.195	-0.113	-0.138
-297.735	800.000	-0.105	-0.363
-296.720	-2.279	0.079	0.055
-295.705	-97.910	0.296	0.075
-294.691	-181.913	0.303	-0.006
-293.676	-200.000	0.007	-0.062
-292.662	-200.000	-0.004	0.238
-291.647	800.000	-0.112	0.351
-290.632	-50.555	-0.474	0.221
-289.618	-116.432	-0.272	-0.050
-288.603	33.557	0.195	-0.168
-287.589	-200.000	-0.019	-0.184
-286.574	107.226	0.102	-0.119
-285.559	5.505	0.217	0.158
-284.545	681.762	0.139	0.357
-283.530	800.000	-0.089	0.378
-282.516	-28.694	-0.125	-0.071
-281.501	-200.000	-0.022	-0.347
-280.486	-95.570	0.274	-0.072
-279.472	800.000	-0.090	0.263
-278.457	-200.000	0.020	-0.241
-277.443	358.840	0.040	-0.079
-276.428	-98.491	0.021	-0.005
-275.413	214.343	-0.121	0.190
-274.399	-65.274	-0.234	-0.093
-273.384	-32.288	-0.062	-0.034
-272.370	341.027	-0.088	-0.170
-271.355	-200.000	0.009	0.323
-270.340	-18.657	-0.162	0.100
-269.326	429.487	-0.087	0.185
-268.311	223.863	0.157	-0.250
-267.297	800.000	-0.029	0.102
-266.282	800.000	-0.022	-0.094
-265.267	78.051	-0.120	0.126
-264.253	800.000	-0.021	-0.061
-263.238	-119.726	0.353	0.060
-262.224	168.024	-0.049	-0.069
-261.209	-200.000	0.008	-0.175
-260.195	407.329	0.084	0.175
-259.180	-155.916	0.283	-0.018
-258.165	311.354	0.088	0.162
-257.151	800.000	0.099	0.271
-256.136	320.367	-0.105	0.197
-255.122	-200.000	-0.036	-0.407
-254.107	800.000	0.085	0.247
-253.092	-76.362	0.174	0.061
-252.078	584.971	-0.059	0.142
-251.063	-200.000	-0.062	0.422
-250.049	-200.000	-0.026	0.120
-249.034	-83.861	0.274	-0.086
-248.019	-200.000	0.002	-0.562
-247.005	-200.000	-0.095	-0.498
-245.990	101.844	0.117	-0.134
-244.976	152.994	0.169	-0.228
-243.961	-40.771	0.224	0.114
-242.946	167.541	-0.176	-0.247
-241.932	-32.282	0.194	0.107
-240.917	309.162	-0.032	0.060
-239.903	-200.000	0.052	-0.379
-238.888	-79.802	0.254	0.084
-237.873	29.756	-0.256	-0.215
-236.859	-4.986	-0.063	-0.043
-235.844	53.282	-0.235	-0.222
-234.830	-200.000	-0.020	-0.195
-233.815	-200.000	0.093	0.402
-232.800	72.817	-0.094	0.097
-231.786	749.362	-0.035	-0.092
-230.771	-200.000	0.014	-0.128
-229.757	117.931	-0.225	-0.273
-228.742	-58.075	-0.305	-0.131
-227.727	800.000	-0.021	0.085
-226.713	-32.766	0.424	-0.232
-225.698	-15.359	0.168	-0.106
-224.684	800.000	-0.076	0.220
-223.669	115.172	0.049	-0.059
-222.655	249.280	0.138	-0.231
-221.640	800.000	-0.186	0.557
-220.625	-200.000	0.036	0.287
-219.611	800.000	0.114	0.328
-218.596	-55.273	-0.146	0.065
-217.582	-114.451	0.406	-0.077
-216.567	686.671	-0.076	-0.196
-215.552	-125.939	-0.259	-0.038
-214.538	-45.580	0.234	-0.114
-213.523	71.312	0.302	-0.309
-212.509	734.068	-0.044	-0.115
-211.494	524.002	0.076	0.177
-210.479	298.793	-0.060	-0.109
-209.465	-200.000	-0.019	-0.092
-208.450	-135.699	0.116	0.014
-207.436	-114.177	0.053	0.010
-206.421	-116.181	0.378	0.069
-205.406	-147.919	0.437	0.036
-204.392	324.850	0.027	-0.050
-203.377	32.152	0.038	0.032
-202.363	159.992	0.196	0.269
-201.348	-4.642	0.160	0.109
-200.333	-18.253	0.175	-0.108
-199.319	-64.678	0.072	-0.029
-198.304	800.000	0.048	0.177
-197.290	19.425	-0.038	-0.030
-196.275	84.242	0.223	-0.240
-195.260	-86.805	-0.172	-0.052
-194.246	800.000	0.034	-0.118
-193.231	800.000	0.062	-0.194
-192.217	8.969	0.188	-0.140
-191.202	119.531	-0.162	-0.198
-190.187	139.821	-0.171	-0.222
-189.173	800.000	-0.015	-0.064
-188.158	367.421	0.239	0.475
-187.144	-200.000	0.002	-0.129
-186.129	-200.000	0.067	-0.356
-185.114	216.158	-0.087	0.136
-184.100	-200.000	0.006	-0.265
-183.085	-111.368	-0.512	-0.103
-182.071	16.462	0.156	-0.121
-181.056	2.869	0.463	0.331
-180.042	-200.000	-0.054	0.494
-179.027	800.000	0.182	0.499
-178.012	-4.054	0.238	0.162
-176.998	-101.470	0.420	-0.100
-175.983	-136.762	0.250	0.028
-174.969	-47.033	0.278	0.133
-173.954	-200.000	-0.022	-0.265
-172.939	-84.928	0.156	0.048
-171.925	-34.563	-0.028	-0.015
-170.910	517.165	-0.074	0.169
-169.896	122.887	0.225	0.277
-168.881	337.028	-0.049	0.094
-167.866	-79.135	0.339	0.113
-166.852	-200.000	0.017	-0.152
-165.837	-87.745	0.185	0.055
-164.823	-200.000	-0.015	0.093
-163.808	13.992	-0.173	0.132
-162.793	329.585	0.039	0.074
-161.779	-69.220	-0.377	0.142
-160.764	140.447	0.116	-0.150
-159.750	-6.671	0.129	0.086
-158.735	-65.127	0.461	-0.183
-157.720	-61.633	0.159	-0.066
-156.706	476.094	-0.059	-0.130
-155.691	-200.000	-0.089	0.417
-154.677	800.000	0.001	-0.002
-153.662	-186.414	0.287	0.004
-152.647	449.019	0.225	0.488
-151.633	800.000	-0.055	0.167
-150.618	-45.228	-0.263	-0.128
-149.604	-200.000	-0.024	0.160
-148.589	-200.000	-0.020	0.208
-147.574	-61.052	0.135	0.056
-146.560	-45.222	0.483	0.236
-145.545	159.816	-0.121	-0.166
-144.531	320.498	0.144	-0.269
-143.516	241.594	-0.177	-0.290
-142.502	-200.000	-0.044	-0.391
-141.487	-64.332	0.119	-0.047
-140.472	24.539	-0.178	-0.145
-139.458	8.529	-0.053	0.039
-138.443	229.590	-0.208	-0.334
-137.429	-19.801	0.167	0.101
-136.414	-200.000	-0.013	0.078
-135.399	-10.212	-0.120	-0.078
-134.385	-200.000	-0.043	0.325
-133.370	63.961	-0.172	-0.170
-132.356	-200.000	0.017	0.121
-131.341	-140.390	-0.246	-0.025
-130.326	583.425	0.039	0.093
-129.312	30.480	-0.075	-0.063
-128.297	-200.000	-0.024	0.166
-127.283	-22.306	0.269	-0.160
-126.268	38.551	-0.121	0.106
-125.253	234.494	0.085	0.137
-124.239	-108.526	0.279	0.059
-123.224	18.148	0.277	-0.216
-122.210	183.288	0.047	0.068
-121.195	-96.155	0.187	-0.049
-120.180	71.119	-0.154	-0.156
-119.166	-70.053	-0.306	-0.114
-118.151	-200.000	-0.011	0.061
-117.137	-200.000	-0.048	0.214
-116.122	-108.678	-0.190	-0.040
-115.107	-145.116	0.262	0.023
-114.093	-32.634	-0.240	-0.131
-113.078	363.158	0.075	0.147
-112.064	-75.464	0.160	0.056
-111.049	354.839	-0.130	-0.254
-110.034	-200.000	-0.032	-0.378
-109.020	-81.045	-0.063	0.021
-108.005	132.366	-0.113	-0.143
-106.991	119.794	-0.149	0.181
-105.976	800.000	-0.021	0.077
-104.962	-10.834	0.062	0.040
-103.947	633.019	0.150	0.373
-102.932	-200.000	-0.008	-0.313
-101.918	800.000	0.032	0.133
-100.903	69.243	-0.148	0.150
-99.889	359.741	-0.079	0.156
-98.874	168.391	-0.211	0.295
-97.859	-200.000	-0.016	-0.130
-96.845	158.761	0.024	-0.033
-95.830	-200.000	0.028	-0.367
-94.816	-104.919	-0.109	0.025
-93.801	173.043	0.053	0.075
-92.786	-200.000	0.034	0.273
-91.772	236.157	-0.192	-0.311
-90.757	13.604	-0.093	-0.071
-89.743	11.658	0.087	0.065
-88.728	-65.303	0.353	-0.139
-87.713	138.976	0.052	-0.067
-86.699	220.099	-0.125	0.196
-85.684	-86.344	0.314	-0.095
-84.670	-176.063	0.150	0.004
-83.655	231.634	0.022	0.035
-82.640	59.534	0.288	-0.278
-81.626	800.000	0.123	0.367
-80.611	220.183	-0.168	0.263
-79.597	301.833	0.035	-0.063
-78.582	-200.000	0.011	-0.413
-77.567	-84.027	-0.140	-0.044
-76.553	521.578	0.033	-0.076
-75.538	-66.632	0.102	-0.040
-74.524	53.182	0.160	0.150
-73.509	49.334	0.101	0.093
-72.494	-173.163	0.246	-0.007
-71.480	-0.966	0.238	-0.165
-70.465	-70.840	0.417	0.154
-69.451	-200.000	0.044	0.258
-68.436	-200.000	-0.052	0.240
-67.422	115.952	0.161	0.193
-66.407	35.866	-0.266	0.229
-65.392	-200.000	0.012	0.166
-64.378	-200.000	-0.001	0.316
-63.363	-200.000	0.001	-0.023
-62.349	202.803	0.143	0.216
-61.334	91.576	-0.957	-1.053
-60.319	86.102	0.557	0.600
-59.305	800.000	-0.342	-1.118
-58.290	800.000	0.300	1.219
-57.276	800.000	0.395	1.298
-56.261	-200.000	113.426	647.842
-55.246	543.554	1517.903	3544.926
-54.232	178.554	2690.686	3845.798
-53.217	104.337	2283.021	2629.152
-52.203	37.134	1890.836	1637.927
-51.188	31.171	1679.821	1410.192
-50.173	28.510	1637.760	1355.192
-49.159	50.298	1693.579	1565.529
-48.144	49.392	1707.243	1571.311
-47.130	30.717	1665.248	1394.337
-46.115	27.999	1650.789	1361.951
-45.100	27.771	1645.996	1356.244
-44.086	27.748	1642.984	1353.539
-43.071	27.737	1640.468	1351.334
-42.057	27.775	1637.905	1349.448
-41.042	27.692	1636.017	1347.230
-40.027	27.704	1634.421	1345.949
-39.013	27.828	1631.766	1344.624
-37.998	27.786	1630.856	1343.512
-36.984	27.735	1629.565	1342.017
-35.969	27.828	1627.455	1340.906
-34.954	27.926	1625.926	1340.317
-33.940	27.823	1624.603	1338.419
-32.925	27.893	1622.517	1337.158
-31.911	27.774	1621.341	1335.262
-30.896	27.912	1618.371	1333.776
-29.881	27.814	1617.614	1332.380
-28.867	27.930	1615.040	1331.053
-27.852	27.848	1614.263	1329.763
-26.838	27.843	1612.704	1328.387
-25.823	27.853	1611.247	1327.207
-24.809	27.908	1610.118	1326.624
-23.794	27.852	1609.294	1325.485
-22.779	27.892	1607.349	1324.121
-21.765	27.935	1605.759	1323.071
-20.750	27.788	1605.053	1321.372
-19.736	27.850	1603.339	1320.359
-18.721	28.023	1601.373	1319.939
-17.706	27.893	1600.424	1318.165
-16.692	27.900	1598.314	1316.427
-15.677	27.915	1597.076	1315.463
-14.663	27.939	1595.910	1314.622
-13.648	27.898	1594.378	1313.015
-12.633	27.934	1592.975	1312.064
-11.619	27.980	1591.313	1310.970
-10.604	27.896	1589.821	1309.087
-9.590	27.860	1589.113	1308.195
-8.575	27.954	1587.532	1307.516
-7.560	27.969	1586.320	1306.571
-6.546	27.975	1585.558	1305.936
-5.531	27.846	1584.764	1304.307
-4.517	27.855	1583.156	1303.000
-3.502	27.907	1582.067	1302.423
-2.487	28.034	1580.225	1301.757
-1.473	27.556	1568.522	1288.685
-0.458	24.663	1549.128	1252.459
0.556	22.626	1551.129	1221.161
1.571	20.286	1574.241	1222.779
2.586	19.723	1586.807	1228.434
3.600	17.799	1533.321	1173.694
4.615	10.912	1427.625	1048.433
5.629	4.744	1367.640	966.095
6.644	3.632	1360.090	953.810
7.659	3.713	1358.524	953.128
8.673	3.735	1358.047	952.845
9.688	3.710	1356.417	951.464
10.702	3.681	1352.963	948.780
11.717	6.519	1358.850	970.315
12.731	14.442	1373.076	1029.496
13.746	21.381	1383.816	1080.502
14.761	23.136	1385.907	1092.890
15.775	22.606	1384.414	1088.345
16.790	21.776	1381.775	1081.054
17.804	21.026	1380.163	1075.078
18.819	20.785	1379.242	1072.782
19.834	20.751	1378.557	1071.944
20.848	20.714	1377.339	1070.670
21.863	20.620	1376.291	1069.187
22.877	20.499	1375.595	1067.806
23.892	20.591	1373.974	1067.016
24.907	20.447	1373.195	1065.439
25.921	20.384	1372.356	1064.307
26.936	20.402	1371.667	1063.787
27.950	20.471	1370.762	1063.412
28.965	20.619	1369.623	1063.340
29.980	20.689	1368.896	1063.107
30.994	20.834	1367.867	1063.100
32.009	20.974	1366.306	1062.649
33.023	20.835	1365.624	1061.175
34.038	20.725	1364.223	1059.324
35.053	20.734	1362.621	1058.039
36.067	20.572	1361.939	1056.437
37.082	20.606	1361.376	1056.112
38.096	20.761	1360.274	1056.103
39.111	20.624	1359.675	1054.712
40.126	20.473	1358.767	1053.002
41.140	20.225	1357.243	1050.224
42.155	19.856	1356.892	1047.625
43.169	19.995	1356.384	1047.985
44.184	20.135	1356.112	1048.526
45.199	20.148	1356.221	1048.599
46.213	20.342	1356.245	1049.698
47.228	20.504	1355.663	1050.132
48.242	20.511	1353.918	1048.728
49.257	20.634	1351.979	1047.875
50.271	20.538	1350.654	1046.176
51.286	20.419	1349.956	1044.829
52.301	20.517	1348.481	1044.184
53.315	20.273	1347.457	1041.831
54.330	20.273	1346.094	1040.686
55.344	20.114	1344.909	1038.726
56.359	20.131	1343.919	1037.969
57.374	20.016	1343.652	1036.987
58.388	20.029	1342.024	1035.713
59.403	19.905	1342.212	1035.024
60.417	19.880	1341.158	1033.973
61.432	19.832	1340.203	1032.857
62.447	19.792	1339.067	1031.650
63.461	19.755	1337.998	1030.516
64.476	19.565	1337.431	1028.857
65.490	19.747	1335.643	1028.474
66.505	19.773	1334.207	1027.432
67.520	19.724	1332.907	1026.047
68.534	19.787	1332.179	1025.769
69.549	19.633	1331.203	1024.017
70.563	19.565	1330.359	1022.876
71.578	19.529	1328.803	1021.376
72.593	19.437	1328.018	1020.139
73.607	19.507	1327.208	1019.838
74.622	19.457	1326.557	1018.951
75.636	19.462	1326.327	1018.713
76.651	19.615	1325.079	1018.570
77.666	19.574	1325.139	1018.282
78.680	19.685	1324.556	1018.396
79.695	19.808	1323.923	1018.544
80.709	20.011	1323.278	1019.154
81.724	20.109	1322.545	1019.076
82.739	20.087	1322.473	1018.798
83.753	20.364	1321.653	1019.708
84.768	20.525	1320.977	1020.042
85.782	20.708	1319.836	1020.142
86.797	20.751	1318.963	1019.626
87.812	20.572	1317.788	1017.582
88.826	20.537	1316.473	1016.269
89.841	20.646	1315.158	1015.805
90.855	20.753	1314.910	1016.145
91.870	20.826	1313.968	1015.752
92.884	20.797	1313.298	1014.978
93.899	20.853	1312.171	1014.341
94.914	20.864	1311.654	1013.916
95.928	20.823	1310.762	1012.901
96.943	20.810	1309.852	1012.033
97.957	20.690	1308.903	1010.511
98.972	20.679	1308.137	1009.768
99.987	20.718	1306.991	1009.020
101.001	20.713	1305.825	1008.002
102.016	20.746	1304.672	1007.212
103.030	20.734	1304.403	1006.846
104.045	20.617	1303.384	1005.296
105.060	20.582	1301.720	1003.718
106.074	20.168	1299.868	999.816
107.089	19.905	1298.365	997.054
108.103	19.716	1297.696	995.366
109.118	19.601	1296.631	993.800
110.133	19.779	1294.673	993.233
111.147	19.711	1293.500	991.855
112.162	19.768	1292.652	991.444
113.176	19.964	1291.290	991.436
114.191	19.887	1290.943	990.638
115.206	19.914	1289.835	989.855
116.220	19.884	1288.380	988.480
117.235	19.792	1287.026	986.829
118.249	19.786	1286.138	986.026
119.264	19.785	1284.226	984.470
120.279	19.528	1283.592	982.434
121.293	19.500	1282.565	981.401
122.308	19.436	1281.791	980.358
123.322	19.393	1280.065	978.707
124.337	19.296	1279.540	977.672
125.352	19.405	1277.704	976.800
126.366	19.373	1276.967	975.966
127.381	19.352	1275.875	974.924
128.395	19.231	1275.200	973.641
129.410	19.226	1274.276	972.822
130.424	19.341	1273.747	972.982
131.439	19.594	1272.900	973.672
132.454	19.779	1272.304	974.172
133.468	19.804	1271.266	973.434
134.483	19.747	1271.229	973.001
135.497	19.920	1269.716	972.727
136.512	19.895	1268.581	971.631
137.527	19.932	1267.714	971.086
138.541	20.009	1266.012	970.131
139.556	20.090	1264.829	969.589
140.570	20.135	1264.293	969.345
141.585	20.232	1263.166	968.935
142.600	20.382	1262.384	969.091
143.614	20.639	1261.645	969.868
144.629	20.609	1260.840	969.000
145.643	20.657	1259.813	968.390
146.658	20.373	1258.278	965.543
147.673	20.243	1256.665	963.501
148.687	20.067	1255.332	961.418
149.702	19.926	1254.029	959.550
150.716	19.820	1252.285	957.543
151.731	19.785	1251.568	956.719
152.746	19.794	1250.426	955.811
153.760	20.041	1249.307	956.233
154.775	20.054	1248.875	955.890
155.789	20.315	1247.629	956.292
156.804	20.207	1247.106	955.209
157.819	20.275	1246.005	954.656
158.833	20.564	1244.868	955.292
159.848	20.691	1244.445	955.578
160.862	20.668	1243.485	954.633
161.877	20.213	1241.874	950.817
162.892	19.930	1240.042	947.777
163.906	19.811	1239.899	946.933
164.921	19.761	1238.906	945.822
165.935	19.897	1238.262	945.988
166.950	19.982	1237.572	945.840
167.964	20.196	1236.549	946.141
168.979	20.040	1236.027	944.808
169.994	19.973	1235.359	943.851
171.008	19.955	1234.538	943.039
172.023	20.287	1233.782	944.189
173.037	20.442	1233.294	944.572
174.052	20.412	1232.195	943.486
175.067	20.048	1230.943	940.465
176.081	19.904	1229.319	938.362
177.096	19.761	1228.816	937.120
178.110	19.786	1227.729	936.343
179.125	19.952	1226.426	936.166
180.140	20.015	1226.384	936.393
181.154	20.284	1224.868	936.601
182.169	20.393	1223.881	936.350
183.183	20.563	1222.827	936.376
184.198	20.510	1221.839	935.254
185.213	20.468	1220.704	934.075
186.227	20.538	1219.912	933.765
187.242	20.663	1219.302	933.886
188.256	20.623	1218.423	932.917
189.271	20.816	1217.249	932.969
190.286	20.529	1216.262	930.594
191.300	19.976	1215.048	926.624
192.315	19.963	1214.055	925.712
193.329	20.029	1213.043	925.211
194.344	19.956	1212.981	924.696
195.359	20.081	1212.343	924.790
196.373	20.023	1211.921	924.078
197.388	20.101	1212.229	924.651
198.402	20.616	1211.527	926.776
199.417	20.765	1211.276	927.294
200.432	21.015	1210.793	928.173
201.446	21.026	1210.086	927.612
202.461	21.137	1209.265	927.490
203.475	21.025	1208.347	926.110
204.490	20.748	1206.608	923.224
205.504	20.489	1205.273	920.746
206.519	20.477	1203.834	919.504
207.534	20.410	1202.674	918.183
208.548	20.374	1201.978	917.382
209.563	20.337	1201.283	916.571
210.577	20.366	1200.545	916.082
211.592	20.654	1199.234	916.516
212.607	20.752	1199.088	916.844
213.621	20.700	1198.290	915.876
214.636	20.660	1197.276	914.810
215.650	20.737	1196.776	914.753
216.665	20.802	1195.810	914.275
217.680	21.006	1195.445	914.986
218.694	21.077	1194.617	914.642
219.709	20.916	1193.570	912.918
220.723	20.929	1192.813	912.325
221.738	20.942	1191.928	911.633
222.753	20.894	1190.911	910.526
223.767	20.862	1190.687	910.105
224.782	20.982	1190.714	910.671
225.796	21.127	1190.439	911.138
226.811	21.078	1189.088	909.768
227.826	20.941	1188.122	908.236
228.840	20.776	1187.503	906.822
229.855	20.658	1186.377	905.269
230.869	20.752	1185.525	905.025
231.884	20.600	1184.904	903.683
232.899	20.530	1183.807	902.402
233.913	20.481	1182.749	901.261
234.928	20.386	1182.355	900.388
235.942	20.264	1181.602	899.108
236.957	20.288	1180.749	898.499
237.972	20.332	1179.559	897.746
238.986	20.381	1179.262	897.690
240.001	20.320	1178.645	896.827
241.015	20.418	1177.532	896.406
242.030	20.509	1177.112	896.478
243.045	20.764	1176.289	897.087
244.059	20.792	1175.680	896.683
245.074	20.816	1174.875	896.118
246.088	20.929	1173.946	895.907
247.103	21.050	1173.952	896.458
248.117	21.153	1173.222	896.350
249.132	21.322	1172.762	896.785
250.147	21.645	1172.474	898.144
251.161	21.854	1171.896	898.692
252.176	21.749	1171.264	897.590
253.190	21.920	1170.846	898.066
254.205	21.976	1170.482	897.993
255.220	22.005	1169.774	897.518
256.234	21.977	1168.985	896.690
257.249	21.911	1168.189	895.664
258.263	21.830	1167.620	894.733
259.278	21.817	1166.565	893.783
260.293	21.967	1166.354	894.303
261.307	22.100	1165.713	894.410
262.322	21.965	1165.503	893.483
263.336	22.043	1164.686	893.176
264.351	22.120	1163.905	892.887
265.366	22.082	1163.745	892.491
266.380	22.053	1162.753	891.503
267.395	21.829	1162.039	889.742
268.409	21.786	1160.770	888.474
269.424	21.789	1160.122	887.916
270.439	21.751	1159.820	887.411
271.453	21.640	1158.700	885.915
272.468	21.400	1157.776	883.919
273.482	21.407	1156.959	883.254
274.497	21.408	1156.429	882.774
275.512	21.563	1155.369	882.667
276.526	21.482	1154.762	881.719
277.541	21.418	1154.706	881.274
278.555	21.631	1153.544	881.384
279.570	21.798	1153.483	882.098
280.585	21.936	1152.729	882.138
281.599	22.030	1151.387	881.504
282.614	21.755	1150.282	879.200
283.628	21.668	1148.748	877.514
284.643	21.695	1147.920	876.941
285.657	21.558	1147.349	875.743
286.672	21.615	1146.562	875.349
287.687	21.622	1145.907	874.802
288.701	21.680	1144.906	874.253
289.716	21.718	1143.909	873.603
290.730	21.682	1143.574	873.091
291.745	21.771	1142.812	872.876
292.760	21.751	1142.072	872.133
293.774	21.825	1142.073	872.427
294.789	22.067	1141.170	872.859
295.803	21.987	1140.816	872.114
296.818	21.755	1139.672	870.013
297.833	21.648	1138.596	868.581
298.847	21.730	1138.211	868.617
299.862	21.826	1137.185	868.234
300.876	21.743	1136.415	867.159
301.891	21.861	1136.174	867.483
302.906	22.084	1135.504	867.997
303.920	22.229	1135.007	868.254
304.935	22.426	1134.636	868.868
305.949	22.385	1134.495	868.481
306.964	22.436	1133.330	867.764
307.979	22.243	1132.552	866.137
308.993	22.043	1132.252	864.848
310.008	22.229	1130.972	864.709
311.022	22.313	1130.486	864.677
312.037	22.212	1129.586	863.414
313.052	21.968	1128.537	861.338
314.066	21.856	1127.110	859.625
315.081	21.578	1126.293	857.560
316.095	21.572	1125.192	856.619
317.110	21.584	1124.571	856.129
318.125	21.623	1123.416	855.365
319.139	21.527	1123.012	854.511
320.154	21.624	1122.585	854.583
321.168	21.601	1121.994	853.947
322.183	21.638	1121.699	853.830
323.197	21.674	1120.913	853.330
324.212	21.883	1120.137	853.681
325.227	21.831	1119.924	853.188
326.241	21.733	1119.197	852.085
327.256	21.800	1118.170	851.553
328.270	21.686	1117.147	850.146
329.285	21.770	1116.094	849.677
330.300	21.740	1115.313	848.861
331.314	21.744	1114.584	848.251
332.329	21.762	1113.708	847.592
333.343	21.725	1112.912	846.734
334.358	21.994	1112.513	847.655
335.373	22.169	1111.795	847.876
336.387	22.185	1110.881	847.185
337.402	22.130	1110.472	846.533
338.416	22.338	1109.691	846.865
339.431	22.345	1109.381	846.584
340.446	22.399	1109.294	846.702
341.460	22.678	1108.928	847.691
342.475	22.796	1107.879	847.381
343.489	22.820	1106.988	846.740
344.504	22.816	1106.215	846.053
345.519	22.873	1105.753	845.897
346.533	22.910	1104.877	845.331
347.548	22.891	1104.413	844.811
348.562	22.813	1103.278	843.495
349.577	22.592	1101.780	841.217
350.592	22.317	1100.614	838.944
351.606	22.089	1100.181	837.454
352.621	22.033	1099.039	836.240
353.635	21.950	1098.483	835.352
354.650	22.017	1097.547	834.882
355.665	22.090	1097.496	835.117
356.679	22.267	1096.759	835.323
357.694	22.396	1095.989	835.273
358.708	22.343	1096.048	834.994
359.723	22.522	1094.942	834.926
360.738	22.529	1094.144	834.276
361.752	22.468	1093.598	833.498
362.767	22.492	1093.092	833.151
363.781	22.545	1092.501	832.881
364.796	22.638	1092.467	833.218
365.810	22.997	1091.658	834.222
366.825	23.036	1091.803	834.441
367.840	23.114	1091.333	834.377
368.854	23.235	1091.024	834.638
369.869	23.296	1089.691	833.831
370.883	23.141	1088.989	832.495
371.898	22.886	1088.012	830.473
372.913	22.767	1087.291	829.291
373.927	22.984	1086.514	829.643
374.942	23.205	1086.190	830.358
375.956	23.197	1085.290	829.558
376.971	22.968	1084.925	828.135
377.986	23.127	1084.427	828.427
379.000	23.208	1084.275	828.615
380.015	23.386	1083.655	828.903
381.029	23.374	1083.093	828.341
382.044	23.407	1082.306	827.822
383.059	23.361	1081.556	826.959
384.073	23.285	1080.716	825.888
385.088	23.382	1080.069	825.776
386.102	23.309	1078.983	824.530
387.117	22.994	1077.969	822.220
388.132	22.750	1076.796	820.115
389.146	22.864	1075.950	819.929
390.161	22.762	1075.141	818.764
391.175	22.785	1074.508	818.318
392.190	22.946	1074.150	818.717
393.205	23.072	1073.869	819.017
394.219	23.135	1072.831	818.443
395.234	23.034	1071.795	817.113
396.248	22.829	1070.874	815.393
397.263	22.949	1069.386	814.743
398.278	22.771	1068.788	813.392
399.292	22.626	1068.126	812.149
400.307	22.518	1067.296	810.952
401.321	22.607	1066.653	810.800
402.336	22.428	1066.287	809.624
403.350	22.558	1065.430	809.500
404.365	22.767	1064.728	809.857
405.380	22.833	1064.128	809.632
406.394	22.919	1063.306	809.327
407.409	23.080	1063.034	809.783
408.423	23.277	1062.777	810.419
409.438	23.404	1061.945	810.295
410.453	23.397	1061.507	809.857
411.467	23.627	1060.490	810.061
412.482	23.423	1060.492	809.059
413.496	23.660	1059.384	809.223
414.511	23.719	1059.133	809.226
415.526	23.831	1058.875	809.467
416.540	23.947	1058.496	809.635
417.555	23.839	1057.902	808.619
418.569	23.736	1056.526	807.025
419.584	23.658	1056.249	806.387
420.599	23.606	1055.468	805.486
421.613	156.929	1404.058	1799.198
422.628	144.137	1454.810	1799.290
