DTS Sentinel unit serial number:	SN413079Multiplexer serial number:	ORYXHardware model number:	OX4-SRSoftware version number:	ORYX F/W v4.00 Oryx Data Collector v3.7.2.0data status	okinstallation	princeton_trtdifferential loss correction	single-endedforward channel	channel 2reverse channel	N/Adate	2019/09/18time	07:11:35forward acquisition time	60.00reverse acquisition time	0.00gamma	496.2192k internal	0.2349k external	0.2349temperature offset calibration	0.9986default loss term (dB/km)	0.3790temperature slope calibration	1.0000multiplexer offset coefficient	1.0000multiplexer slope coefficient	1.0000fibre end	0.00T internal ref (°C)	23.17T ext. ref 1 (°C)	0.19T ext. ref 2 (°C)	17.30length (m)	temperature (°C)	Stokes	anti-Stokes-747.200	103.787	-0.037	-0.044
-746.185	-200.000	-0.003	0.115
-745.171	288.668	0.099	-0.180
-744.156	-200.000	0.010	-0.348
-743.142	760.933	0.024	-0.065
-742.127	800.000	0.060	0.212
-741.112	-191.335	0.222	0.002
-740.098	342.435	-0.044	0.087
-739.083	-50.034	0.167	0.079
-738.069	-26.699	0.234	-0.137
-737.054	213.356	0.146	-0.230
-736.039	142.455	-0.094	-0.124
-735.025	232.731	0.139	0.227
-734.010	-86.766	-0.187	-0.057
-732.996	-40.391	0.034	0.018
-731.981	27.881	-0.254	0.214
-730.966	800.000	-0.096	-0.272
-729.952	425.304	-0.125	-0.268
-728.937	-200.000	0.026	-0.247
-727.923	-200.000	0.048	0.352
-726.908	208.792	-0.033	-0.052
-725.894	392.615	-0.084	-0.173
-724.879	-18.004	0.306	-0.192
-723.864	147.560	-0.090	0.121
-722.850	498.404	-0.066	0.152
-721.835	-77.986	0.190	-0.065
-720.821	-13.063	0.179	0.116
-719.806	297.317	-0.138	0.253
-718.791	-123.923	-0.162	0.025
-717.777	110.789	-0.091	-0.110
-716.762	-200.000	-0.009	-0.198
-715.748	-200.000	-0.040	0.312
-714.733	-200.000	0.000	-0.066
-713.718	-200.000	0.050	0.355
-712.704	95.593	-0.070	-0.080
-711.689	286.841	-0.157	-0.282
-710.675	800.000	0.092	0.283
-709.660	-131.357	-0.281	0.037
-708.645	-13.610	-0.076	-0.049
-707.631	112.714	0.122	-0.147
-706.616	-104.396	-0.144	0.033
-705.602	267.370	0.204	0.356
-704.587	800.000	0.054	-0.206
-703.572	366.562	-0.055	0.111
-702.558	-40.603	0.120	0.062
-701.543	800.000	0.068	-0.199
-700.529	6.693	-0.159	-0.118
-699.514	368.797	-0.102	-0.205
-698.499	-15.482	0.216	-0.138
-697.485	-50.275	-0.261	-0.123
-696.470	-30.676	0.211	0.119
-695.456	-200.000	0.019	-0.106
-694.441	800.000	0.093	-0.281
-693.426	89.209	-0.227	0.253
-692.412	70.805	0.156	0.161
-691.397	474.663	0.137	-0.309
-690.383	-17.295	0.112	-0.071
-689.368	-30.791	-0.362	-0.204
-688.354	643.899	-0.050	-0.128
-687.339	-58.059	0.133	-0.058
-686.324	149.875	-0.138	-0.187
-685.310	-56.638	0.242	-0.107
-684.295	800.000	0.015	0.042
-683.281	788.709	-0.160	0.437
-682.266	-200.000	-0.041	-0.188
-681.251	-132.562	0.116	0.015
-680.237	23.776	0.249	0.205
-679.222	535.960	-0.023	-0.053
-678.208	-200.000	-0.022	-0.439
-677.193	21.388	-0.074	0.060
-676.178	800.000	-0.086	-0.334
-675.164	-23.130	0.147	0.088
-674.149	-38.919	-0.094	-0.049
-673.135	-200.000	-0.333	0.001
-672.120	-120.369	0.212	0.036
-671.105	404.195	-0.103	-0.215
-670.091	-200.000	0.007	0.281
-669.076	-111.782	0.144	0.029
-668.062	-200.000	0.014	0.123
-667.047	157.930	0.106	0.146
-666.032	-200.000	0.013	-0.071
-665.018	-144.852	-0.360	0.033
-664.003	800.000	-0.038	0.151
-662.989	31.893	0.121	0.104
-661.974	-124.612	0.266	-0.041
-660.959	627.666	0.190	-0.478
-659.945	-84.498	0.169	0.053
-658.930	-158.640	0.128	-0.007
-657.916	217.116	0.153	-0.242
-656.901	-200.000	-0.011	0.103
-655.886	-200.000	-0.091	0.446
-654.872	-55.452	0.084	0.038
-653.857	-167.877	0.086	-0.003
-652.843	-2.373	-0.146	-0.102
-651.828	-200.000	-0.020	-0.246
-650.814	0.551	-0.253	-0.180
-649.799	-200.000	-0.007	-0.039
-648.784	-102.213	0.202	0.048
-647.770	-130.122	0.296	-0.040
-646.755	-117.673	-0.187	0.033
-645.741	-15.712	0.097	-0.061
-644.726	-111.679	-0.244	0.049
-643.711	155.250	-0.205	-0.280
-642.697	-86.261	0.105	-0.032
-641.682	-164.186	0.112	-0.005
-640.668	208.442	0.032	0.050
-639.653	-200.000	0.002	-0.206
-638.638	-94.598	-0.297	-0.080
-637.624	56.484	-0.329	0.318
-636.609	-117.571	0.253	-0.045
-635.595	38.998	-0.331	-0.295
-634.580	-200.000	-0.009	0.207
-633.565	1.388	-0.159	-0.114
-632.551	800.000	-0.055	-0.223
-631.536	-29.161	-0.175	-0.100
-630.522	84.330	0.175	0.190
-629.507	-105.485	0.428	0.097
-628.492	356.387	0.079	0.156
-627.478	-57.794	-0.177	0.077
-626.463	4.231	-0.207	-0.151
-625.449	-200.000	-0.050	-0.280
-624.434	-12.620	-0.300	0.195
-623.419	-200.000	-0.012	0.236
-622.405	-24.238	0.187	-0.111
-621.390	85.577	0.272	-0.297
-620.376	-72.182	0.378	-0.139
-619.361	-200.000	-0.003	-0.177
-618.346	10.111	0.203	0.154
-617.332	62.489	-0.071	-0.070
-616.317	-200.000	-0.089	0.509
-615.303	-89.434	0.134	-0.039
-614.288	-93.087	-0.181	0.050
-613.273	-200.000	0.010	-0.310
-612.259	73.113	0.106	0.110
-611.244	800.000	-0.038	-0.166
-610.230	84.511	-0.193	0.210
-609.215	-200.000	-0.055	0.248
-608.201	-200.000	-0.120	0.527
-607.186	-15.631	-0.072	-0.046
-606.171	-83.192	-0.260	0.083
-605.157	-200.000	-0.014	0.409
-604.142	481.259	-0.028	-0.062
-603.128	232.822	-0.282	0.461
-602.113	215.283	0.120	0.189
-601.098	30.473	0.085	-0.072
-600.084	21.974	0.082	-0.067
-599.069	-200.000	-0.014	0.336
-598.055	436.504	0.135	-0.292
-597.040	438.691	-0.094	-0.203
-596.025	7.472	0.185	-0.138
-595.011	-81.695	-0.339	-0.111
-593.996	-145.522	0.036	-0.003
-592.982	369.255	0.060	0.120
-591.967	174.702	-0.056	-0.081
-590.952	-105.178	-0.131	0.030
-589.938	323.597	-0.049	0.092
-588.923	-200.000	0.007	-0.193
-587.909	-200.000	-0.009	0.214
-586.894	-200.000	0.026	-0.154
-585.879	36.263	-0.085	0.074
-584.865	-200.000	-0.040	0.296
-583.850	-64.651	-0.247	-0.099
-582.836	-200.000	-0.003	0.097
-581.821	-200.000	-0.047	0.421
-580.806	-154.062	0.227	0.015
-579.792	132.755	-0.250	0.321
-578.777	-200.000	0.021	-0.121
-577.763	116.295	0.138	0.168
-576.748	-103.522	0.147	-0.034
-575.733	-200.000	-0.007	0.335
-574.719	63.286	-0.163	0.162
-573.704	264.534	-0.092	-0.159
-572.690	2.717	0.198	-0.142
-571.675	695.015	-0.056	-0.145
-570.661	0.235	0.132	0.093
-569.646	-200.000	0.004	0.090
-568.631	-3.237	0.100	-0.069
-567.617	800.000	0.074	0.221
-566.602	73.375	-0.206	-0.214
-565.588	-44.638	-0.325	0.161
-564.573	678.931	-0.072	-0.187
-563.558	-73.394	0.103	0.037
-562.544	800.000	0.040	0.134
-561.529	800.000	0.041	-0.116
-560.515	141.751	-0.142	0.187
-559.500	-200.000	0.052	-0.319
-558.485	103.206	-0.051	-0.059
-557.471	1.704	0.369	-0.264
-556.456	-27.215	0.260	-0.150
-555.442	191.293	0.120	-0.180
-554.427	800.000	0.012	-0.042
-553.412	-29.572	0.036	-0.020
-552.398	-138.086	0.103	0.011
-551.383	56.069	-0.158	-0.152
-550.369	-105.657	0.271	0.061
-549.354	-80.042	0.149	0.049
-548.339	-0.570	-0.113	-0.080
-547.325	552.514	-0.066	0.158
-546.310	-129.502	-0.236	0.032
-545.296	55.940	0.128	-0.123
-544.281	-200.000	-0.030	0.135
-543.266	77.715	0.223	0.236
-542.252	66.952	-0.193	0.195
-541.237	-120.888	0.072	-0.012
-540.223	-59.344	0.263	-0.112
-539.208	800.000	-0.057	-0.175
-538.193	-200.000	-0.023	0.103
-537.179	800.000	0.177	0.564
-536.164	362.993	-0.095	-0.190
-535.150	509.281	-0.104	-0.239
-534.135	333.035	0.187	0.358
-533.121	298.302	-0.209	0.380
-532.106	-200.000	-0.015	0.193
-531.091	302.136	-0.215	-0.393
-530.077	-77.059	-0.179	-0.062
-529.062	-200.000	-0.086	0.397
-528.048	78.632	-0.250	0.265
-527.033	50.990	-0.372	0.349
-526.018	195.857	0.027	-0.041
-525.004	62.077	0.087	0.086
-523.989	134.850	-0.138	0.178
-522.975	-90.626	0.148	-0.042
-521.960	-120.170	0.131	-0.022
-520.945	-200.000	0.059	-0.288
-519.931	-200.000	-0.028	-0.376
-518.916	306.407	-0.064	0.118
-517.902	-114.109	-0.103	-0.020
-516.887	-200.000	-0.034	-0.184
-515.872	-200.000	0.008	-0.313
-514.858	324.110	0.053	-0.099
-513.843	88.788	0.192	0.211
-512.829	92.936	0.124	-0.139
-511.814	-156.389	0.188	0.012
-510.799	-200.000	0.004	-0.106
-509.785	86.834	-0.133	0.145
-508.770	-200.000	0.010	-0.111
-507.756	-84.050	-0.545	0.171
-506.741	-150.409	-0.167	0.013
-505.726	-8.944	0.199	0.132
-504.712	-200.000	-0.028	-0.208
-503.697	-116.782	-0.107	0.019
-502.683	39.304	-0.075	-0.066
-501.668	84.016	-0.316	0.341
-500.653	-68.546	-0.124	-0.048
-499.639	-200.000	-0.009	-0.047
-498.624	-94.550	-0.265	-0.071
-497.610	296.660	-0.048	-0.086
-496.595	-72.099	-0.196	0.072
-495.581	-200.000	0.041	-0.302
-494.566	83.999	0.302	-0.326
-493.551	-181.186	0.221	0.004
-492.537	175.676	-0.074	-0.106
-491.522	36.788	0.169	-0.148
-490.508	207.889	0.152	0.235
-489.493	44.685	-0.096	0.088
-488.478	-132.044	-0.255	0.033
-487.464	-200.000	-0.025	-0.137
-486.449	-48.624	0.253	-0.120
-485.435	219.615	-0.173	0.274
-484.420	-51.041	0.318	0.147
-483.405	133.841	-0.148	-0.190
-482.391	87.211	0.157	-0.172
-481.376	-94.557	0.486	0.131
-480.362	-91.572	-0.347	-0.098
-479.347	800.000	0.040	0.118
-478.332	-4.955	0.275	0.187
-477.318	177.225	-0.077	0.110
-476.303	-151.702	-0.133	0.010
-475.289	800.000	0.010	-0.037
-474.274	65.050	-0.145	0.145
-473.259	-52.914	0.055	-0.025
-472.245	10.846	-0.100	-0.075
-471.230	-88.819	-0.107	0.031
-470.216	-28.827	0.251	0.142
-469.201	193.124	0.055	0.082
-468.186	-63.690	-0.297	-0.120
-467.172	800.000	0.018	0.059
-466.157	800.000	-0.086	0.279
-465.143	3.953	0.135	0.097
-464.128	478.454	-0.065	-0.146
-463.113	-148.378	0.360	-0.029
-462.099	-200.000	0.013	-0.081
-461.084	-123.237	-0.114	0.018
-460.070	-157.901	0.149	-0.009
-459.055	-200.000	0.027	-0.171
-458.040	-91.502	-0.309	-0.087
-457.026	-200.000	0.017	0.089
-456.011	-4.526	0.167	0.114
-454.997	-200.000	0.045	-0.220
-453.982	-200.000	-0.030	0.209
-452.968	-59.905	0.092	0.039
-451.953	800.000	-0.060	-0.212
-450.938	-112.403	-0.283	-0.056
-449.924	-18.551	0.254	0.157
-448.909	798.639	-0.047	0.127
-447.895	800.000	0.111	0.374
-446.880	-114.259	-0.102	0.019
-445.865	-158.654	0.155	0.009
-444.851	-152.219	-0.173	0.012
-443.836	139.970	0.108	0.140
-442.822	-125.452	-0.212	-0.032
-441.807	-200.000	-0.004	0.449
-440.792	-72.421	0.447	-0.163
-439.778	562.119	0.106	-0.253
-438.763	-88.809	-0.039	0.011
-437.749	-66.467	-0.108	-0.042
-436.734	-21.610	-0.230	-0.138
-435.719	-122.825	-0.233	0.037
-434.705	175.780	-0.180	-0.257
-433.690	40.571	-0.177	0.157
-432.676	479.785	0.087	-0.194
-431.661	-56.447	0.212	0.093
-430.646	-15.514	-0.416	0.262
-429.632	-44.881	0.248	0.122
-428.617	-200.000	-0.026	-0.170
-427.603	258.306	-0.075	-0.128
-426.588	800.000	-0.038	-0.148
-425.573	-23.306	0.264	-0.157
-424.559	-156.766	0.146	-0.009
-423.544	29.287	0.057	-0.048
-422.530	502.561	0.178	-0.406
-421.515	71.854	0.074	-0.076
-420.500	-47.753	-0.269	-0.129
-419.486	-2.812	0.347	0.239
-418.471	28.891	0.284	-0.238
-417.457	-155.087	-0.226	0.015
-416.442	235.916	0.084	-0.137
-415.428	-108.204	-0.096	0.021
-414.413	-200.000	-0.028	0.137
-413.398	616.343	0.077	-0.190
-412.384	800.000	-0.061	-0.187
-411.369	-200.000	-0.161	-0.000
-410.355	-92.798	-0.072	0.020
-409.340	-200.000	-0.023	-0.240
-408.325	118.182	0.083	0.101
-407.311	133.152	0.152	0.193
-406.296	29.307	0.256	0.215
-405.282	-200.000	-0.239	-0.000
-404.267	-200.000	-0.010	-0.319
-403.252	-4.618	0.296	-0.201
-402.238	64.992	-0.108	-0.108
-401.223	222.922	-0.146	0.231
-400.209	542.333	0.047	0.111
-399.194	118.187	-0.180	-0.219
-398.179	34.712	0.084	-0.073
-397.165	-200.000	0.018	0.085
-396.150	-200.000	0.018	0.124
-395.136	-200.000	-0.012	-0.181
-394.121	-62.652	-0.121	-0.050
-393.106	-200.000	-0.016	0.073
-392.092	-200.000	-0.015	0.368
-391.077	73.659	-0.094	0.097
-390.063	-151.722	0.278	-0.020
-389.048	-63.212	-0.178	0.072
-388.033	135.915	-0.026	0.033
-387.019	-200.000	0.017	0.528
-386.004	-14.565	0.185	0.117
-384.990	8.386	0.167	0.123
-383.975	156.522	-0.049	0.066
-382.960	-1.424	-0.170	-0.118
-381.946	28.601	-0.349	-0.291
-380.931	-200.000	0.018	-0.356
-379.917	-71.914	-0.187	-0.068
-378.902	141.158	0.197	-0.257
-377.888	-57.490	-0.173	-0.075
-376.873	563.909	-0.082	-0.196
-375.858	-200.000	0.027	-0.123
-374.844	184.661	-0.116	-0.169
-373.829	242.515	-0.168	-0.277
-372.815	800.000	-0.102	-0.307
-371.800	-57.447	0.106	-0.046
-370.785	-59.421	-0.239	0.101
-369.771	800.000	0.002	0.010
-368.756	-200.000	-0.081	0.358
-367.742	-100.510	0.049	-0.012
-366.727	800.000	0.086	-0.235
-365.712	-200.000	-0.040	0.244
-364.698	-200.000	0.005	0.211
-363.683	-177.573	-0.246	-0.006
-362.669	-200.000	0.004	0.084
-361.654	800.000	0.067	-0.217
-360.639	-54.466	0.273	0.122
-359.625	505.837	-0.009	-0.020
-358.610	-41.999	-0.374	0.188
-357.596	-200.000	0.003	0.090
-356.581	15.077	-0.206	-0.159
-355.566	410.561	-0.135	-0.282
-354.552	9.864	0.164	0.122
-353.537	463.144	0.116	-0.254
-352.523	-72.904	0.127	-0.046
-351.508	800.000	0.105	0.304
-350.493	-200.000	-0.031	0.141
-349.479	90.161	0.224	0.247
-348.464	-78.245	0.264	-0.089
-347.450	421.933	-0.091	0.193
-346.435	-56.145	-0.242	-0.106
-345.420	83.337	0.212	0.227
-344.406	-200.000	0.000	0.158
-343.391	-78.189	-0.123	0.041
-342.377	49.033	-0.075	0.069
-341.362	-1.804	-0.153	-0.106
-340.348	-156.382	0.161	-0.010
-339.333	800.000	0.062	-0.193
-338.318	800.000	0.049	0.138
-337.304	-123.004	0.141	-0.022
-336.289	-200.000	-0.002	0.111
-335.275	15.933	-0.102	0.079
-334.260	696.732	0.017	0.043
-333.245	-122.065	0.436	-0.070
-332.231	-82.735	0.133	0.042
-331.216	-60.105	0.134	-0.056
-330.202	87.487	-0.106	-0.115
-329.187	-45.440	0.048	0.023
-328.172	-200.000	0.033	0.141
-327.158	-96.309	0.179	-0.047
-326.143	19.797	0.257	-0.203
-325.129	-18.873	-0.271	0.166
-324.114	-190.162	-0.414	0.005
-323.099	-166.919	-0.356	-0.014
-322.085	-85.259	0.186	0.057
-321.070	-200.000	0.010	0.073
-320.056	-14.253	-0.257	-0.163
-319.041	20.532	-0.122	-0.097
-318.026	-38.373	0.075	0.039
-317.012	-200.000	-0.025	0.221
-315.997	-200.000	0.021	-0.196
-314.983	-75.913	-0.240	0.083
-313.968	-1.445	0.190	0.132
-312.953	85.554	-0.106	-0.115
-311.939	-124.398	-0.083	0.013
-310.924	50.513	0.140	0.130
-309.910	-122.551	-0.199	-0.032
-308.895	-132.583	-0.206	0.026
-307.880	302.960	-0.070	0.127
-306.866	-135.206	-0.066	0.008
-305.851	-113.918	0.225	-0.043
-304.837	345.872	-0.097	0.188
-303.822	-117.661	-0.166	-0.029
-302.807	-104.522	0.488	-0.111
-301.793	193.131	-0.120	-0.178
-300.778	-200.000	0.104	0.483
-299.764	-73.536	-0.296	-0.106
-298.749	34.931	0.043	-0.037
-297.735	-200.000	0.019	-0.264
-296.720	800.000	-0.085	0.276
-295.705	-129.502	0.122	-0.017
-294.691	765.589	-0.090	0.239
-293.676	181.743	-0.153	-0.221
-292.662	-19.298	0.181	-0.110
-291.647	362.687	-0.107	-0.210
-290.632	-108.690	0.077	-0.016
-289.618	-7.064	-0.060	0.040
-288.603	-149.934	-0.227	0.017
-287.589	-200.000	-0.010	-0.069
-286.574	26.680	-0.173	0.142
-285.559	19.140	0.179	0.141
-284.545	-28.517	0.270	0.152
-283.530	29.277	0.360	0.300
-282.516	351.577	0.079	-0.153
-281.501	-3.880	0.126	0.086
-280.486	168.129	0.141	0.197
-279.472	-99.086	0.138	0.034
-278.457	-200.000	0.033	-0.186
-277.443	-54.134	-0.151	-0.067
-276.428	800.000	-0.089	0.366
-275.413	-200.000	-0.002	-0.322
-274.399	358.337	-0.096	0.188
-273.384	-200.000	-0.020	-0.419
-272.370	-81.748	0.327	-0.105
-271.355	132.588	0.045	0.056
-270.340	800.000	-0.129	0.351
-269.326	125.346	0.114	0.142
-268.311	-200.000	-0.031	-0.246
-267.297	-200.000	-0.085	-0.412
-266.282	-24.271	0.220	-0.129
-265.267	477.299	-0.119	0.264
-264.253	68.982	-0.203	-0.204
-263.238	-8.221	0.595	-0.392
-262.224	-70.335	-0.132	0.049
-261.209	-200.000	0.039	-0.254
-260.195	-200.000	0.010	0.265
-259.180	-156.790	-0.048	0.003
-258.165	-66.872	0.329	-0.127
-257.151	-27.802	-0.047	0.026
-256.136	-200.000	0.043	-0.251
-255.122	189.435	-0.039	0.057
-254.107	-44.694	-0.291	-0.142
-253.092	42.544	0.156	0.139
-252.078	-82.538	0.201	-0.064
-251.063	-125.223	0.132	-0.020
-250.049	54.420	-0.125	-0.118
-249.034	576.285	0.076	-0.181
-248.019	-78.390	-0.080	-0.027
-247.005	-200.000	-0.003	0.207
-245.990	-55.658	0.226	0.099
-244.976	532.016	0.184	0.427
-243.961	143.271	0.155	0.202
-242.946	197.079	-0.096	-0.143
-241.932	-200.000	-0.014	-0.080
-240.917	19.811	0.155	0.123
-239.903	-200.000	0.024	0.245
-238.888	-24.256	-0.143	-0.083
-237.873	-42.661	0.096	-0.048
-236.859	259.530	-0.068	-0.115
-235.844	-33.474	-0.089	0.048
-234.830	150.931	-0.063	-0.084
-233.815	-171.795	0.320	0.010
-232.800	-149.156	-0.090	0.007
-231.786	59.269	0.047	0.046
-230.771	800.000	0.027	0.074
-229.757	96.348	-0.426	0.477
-228.742	-200.000	0.007	0.031
-227.727	-150.961	0.179	0.013
-226.713	-200.000	-0.050	-0.282
-225.698	303.437	0.168	-0.305
-224.684	-15.787	-0.116	-0.073
-223.669	232.772	0.014	-0.022
-222.655	-151.160	0.142	0.010
-221.640	319.673	-0.072	-0.134
-220.625	-114.627	0.129	-0.024
-219.611	-69.512	-0.082	-0.031
-218.596	-40.795	-0.110	0.056
-217.582	71.741	0.193	-0.197
-216.567	229.527	-0.094	0.150
-215.552	-33.708	0.297	0.160
-214.538	132.073	0.072	-0.091
-213.523	800.000	-0.065	-0.206
-212.509	-116.373	-0.341	0.062
-211.494	167.072	-0.068	-0.094
-210.479	-23.757	-0.164	-0.096
-209.465	-200.000	-0.046	0.297
-208.450	800.000	0.053	-0.195
-207.436	-44.262	-0.158	0.077
-206.421	-200.000	-0.030	-0.406
-205.406	154.647	0.146	-0.196
-204.392	-71.869	0.075	-0.027
-203.377	-59.437	0.157	-0.066
-202.363	-57.820	0.039	-0.017
-201.348	-200.000	0.048	-0.394
-200.333	-10.044	0.270	0.175
-199.319	37.780	-0.259	0.225
-198.304	82.450	0.218	-0.231
-197.290	5.143	-0.192	0.138
-196.275	458.076	0.151	-0.328
-195.260	144.866	0.169	-0.220
-194.246	-64.162	-0.072	-0.029
-193.231	-200.000	-0.056	0.267
-192.217	-61.064	-0.058	-0.024
-191.202	343.937	0.159	-0.304
-190.187	8.681	0.377	-0.277
-189.173	228.480	0.146	0.232
-188.158	-60.475	0.276	-0.115
-187.144	68.063	-0.035	0.035
-186.129	800.000	0.110	0.324
-185.114	320.473	0.097	0.180
-184.100	-50.073	-0.202	0.094
-183.085	46.326	-0.240	-0.217
-182.071	-138.314	-0.053	0.006
-181.056	309.936	-0.105	-0.191
-180.042	57.391	-0.153	-0.146
-179.027	105.198	-0.201	0.231
-178.012	-117.121	-0.240	0.043
-176.998	-137.630	0.526	-0.058
-175.983	-87.321	0.040	-0.012
-174.969	-48.239	-0.216	0.102
-173.954	-194.005	-0.063	0.001
-172.939	548.469	0.054	0.127
-171.925	34.397	-0.074	-0.063
-170.910	800.000	-0.039	0.163
-169.896	800.000	-0.091	-0.345
-168.881	-200.000	-0.004	0.262
-167.866	-89.113	-0.167	-0.048
-166.852	-59.388	-0.158	0.066
-165.837	-32.898	0.116	-0.063
-164.823	-145.949	-0.112	0.010
-163.808	-98.021	0.401	0.101
-162.793	-161.654	0.056	-0.003
-161.779	211.823	-0.116	0.178
-160.764	-93.610	0.229	-0.062
-159.750	-99.737	0.083	0.020
-158.735	-88.281	0.235	-0.069
-157.720	-23.252	-0.051	0.030
-156.706	800.000	0.045	0.164
-155.691	59.629	-0.154	0.148
-154.677	-200.000	-0.061	-0.314
-153.662	-2.407	-0.064	-0.044
-152.647	372.283	0.180	-0.356
-151.633	-200.000	0.014	-0.199
-150.618	-44.967	0.212	0.103
-149.604	-200.000	0.001	-0.182
-148.589	-66.783	-0.150	0.058
-147.574	502.396	0.039	0.089
-146.560	41.167	-0.180	0.159
-145.545	38.652	-0.349	0.303
-144.531	99.931	0.065	0.074
-143.516	-104.913	-0.143	-0.032
-142.502	-135.219	0.081	0.010
-141.487	13.613	0.167	0.126
-140.472	-20.800	0.081	0.049
-139.458	164.415	0.066	-0.090
-138.443	-29.141	-0.184	0.103
-137.429	800.000	-0.028	0.119
-136.414	155.942	0.066	0.089
-135.399	-200.000	-0.048	0.255
-134.385	800.000	-0.072	-0.201
-133.370	800.000	0.110	-0.301
-132.356	800.000	0.079	0.258
-131.341	729.559	0.097	0.252
-130.326	800.000	-0.077	0.308
-129.312	800.000	0.084	-0.307
-128.297	322.114	0.143	0.266
-127.283	-28.501	0.086	-0.049
-126.268	287.449	0.020	0.034
-125.253	380.129	-0.067	0.135
-124.239	-200.000	-0.011	0.180
-123.224	-78.594	0.305	-0.102
-122.210	166.285	0.196	0.271
-121.195	-94.600	0.379	0.100
-120.180	43.590	-0.118	-0.105
-119.166	72.641	0.094	-0.096
-118.151	-200.000	0.024	-0.196
-117.137	-95.639	-0.154	-0.040
-116.122	260.798	0.115	-0.195
-115.107	31.061	0.137	0.115
-114.093	-156.037	-0.526	-0.032
-113.078	800.000	-0.039	0.128
-112.064	255.856	-0.072	-0.120
-111.049	222.874	0.085	0.134
-110.034	-138.515	-0.217	-0.023
-109.020	9.562	0.150	0.110
-108.005	202.368	0.140	-0.210
-106.991	-200.000	0.003	-0.087
-105.976	634.962	-0.033	0.081
-104.962	58.808	0.168	0.161
-103.947	82.290	-0.148	-0.157
-102.932	-42.063	-0.104	0.052
-101.918	-60.659	-0.135	-0.056
-100.903	166.522	0.222	-0.307
-99.889	-150.450	0.242	0.018
-98.874	117.489	-0.083	-0.099
-97.859	-136.201	0.310	-0.035
-96.845	-71.286	-0.367	0.134
-95.830	-200.000	-0.079	-0.336
-94.816	407.214	-0.055	0.113
-93.801	-12.530	-0.129	-0.082
-92.786	-200.000	0.005	0.085
-91.772	76.757	0.277	0.286
-90.757	391.138	-0.152	-0.306
-89.743	-152.694	-0.470	-0.033
-88.728	45.573	0.250	0.225
-87.713	-200.000	-0.020	-0.252
-86.699	-165.659	0.079	-0.003
-85.684	-200.000	0.046	0.341
-84.670	-120.000	-0.418	0.070
-83.655	-34.544	0.128	0.068
-82.640	-100.445	0.424	0.102
-81.626	-99.288	-0.240	0.059
-80.611	-94.963	-0.003	-0.001
-79.597	22.865	0.195	-0.155
-78.582	-46.070	-0.116	0.056
-77.567	192.747	-0.071	0.104
-76.553	43.028	0.123	0.109
-75.538	-88.751	-0.308	-0.089
-74.524	177.541	0.064	0.091
-73.509	-150.647	0.079	-0.006
-72.494	-46.889	0.479	0.228
-71.480	-73.098	0.286	-0.102
-70.465	-200.000	-0.011	-0.078
-69.451	446.864	0.013	-0.028
-68.436	9.714	0.303	0.223
-67.422	276.856	0.137	0.237
-66.407	-147.519	-0.212	0.017
-65.392	-107.466	0.433	-0.092
-64.378	-96.528	0.119	-0.030
-63.363	493.466	0.058	0.130
-62.349	474.596	-0.022	-0.049
-61.334	93.517	-0.838	-0.922
-60.319	137.761	0.495	0.631
-59.305	260.721	-0.503	-0.845
-58.290	800.000	0.449	1.478
-57.276	207.368	0.946	1.435
-56.261	-200.000	125.624	653.216
-55.246	405.048	1585.498	3249.041
-54.232	140.108	2757.237	3534.517
-53.217	89.020	2312.837	2502.781
-52.203	32.318	1917.422	1608.886
-51.188	26.218	1712.426	1390.038
-50.173	24.083	1673.862	1342.598
-49.159	45.915	1743.129	1567.290
-48.144	43.295	1754.438	1557.215
-47.130	25.833	1706.046	1381.688
-46.115	23.321	1690.423	1349.864
-45.100	23.145	1685.510	1344.551
-44.086	23.117	1683.497	1342.681
-43.071	23.100	1680.852	1340.387
-42.057	23.051	1678.645	1338.202
-41.042	23.104	1676.472	1336.821
-40.027	23.072	1674.638	1335.062
-39.013	22.990	1672.879	1332.985
-37.998	23.042	1671.450	1332.185
-36.984	22.986	1670.711	1331.120
-35.969	23.135	1668.821	1330.684
-34.954	23.141	1667.362	1329.516
-33.940	23.167	1665.049	1327.812
-32.925	23.185	1663.254	1326.462
-31.911	23.098	1661.827	1324.622
-30.896	23.121	1659.971	1323.264
-29.881	23.220	1658.393	1322.694
-28.867	23.122	1657.248	1320.995
-27.852	23.178	1655.797	1320.198
-26.838	23.100	1654.529	1318.554
-25.823	23.172	1653.187	1317.972
-24.809	23.153	1652.184	1316.981
-23.794	23.268	1649.921	1315.978
-22.779	23.249	1648.488	1314.637
-21.765	23.120	1647.209	1312.608
-20.750	23.164	1645.086	1311.197
-19.736	23.248	1643.965	1310.873
-18.721	23.299	1642.498	1310.024
-17.706	23.190	1641.006	1307.981
-16.692	23.239	1639.261	1306.899
-15.677	23.186	1638.631	1305.949
-14.663	23.186	1636.894	1304.514
-13.648	23.179	1635.763	1303.511
-12.633	23.202	1633.994	1302.222
-11.619	23.216	1632.422	1301.020
-10.604	23.197	1631.073	1299.748
-9.590	23.205	1629.910	1298.829
-8.575	23.336	1628.105	1298.301
-7.560	23.275	1627.237	1297.113
-6.546	23.275	1625.983	1296.063
-5.531	23.231	1624.999	1294.905
-4.517	23.196	1623.892	1293.716
-3.502	23.226	1622.830	1293.033
-2.487	23.273	1620.889	1291.782
-1.473	22.804	1608.457	1278.428
-0.458	19.895	1588.534	1241.701
0.556	14.907	1590.425	1210.779
1.571	12.716	1614.133	1212.608
2.586	12.553	1626.212	1220.362
3.600	11.621	1571.286	1172.358
4.615	6.456	1464.216	1057.775
5.629	1.159	1406.025	981.429
6.644	0.312	1398.299	970.493
7.659	0.131	1397.934	968.988
8.673	0.231	1396.645	968.652
9.688	0.097	1394.395	966.151
10.702	0.006	1390.800	962.990
11.717	2.600	1394.426	982.055
12.731	9.264	1404.611	1032.045
13.746	14.947	1412.565	1074.400
14.761	16.656	1415.078	1087.204
15.775	16.171	1413.431	1082.727
16.790	15.184	1410.559	1074.107
17.804	14.549	1407.781	1067.834
18.819	14.036	1407.295	1064.086
19.834	13.893	1405.327	1061.593
20.848	13.650	1404.427	1059.262
21.863	13.401	1402.985	1056.490
22.877	13.160	1401.905	1054.046
23.892	13.228	1400.550	1053.373
24.907	13.076	1400.359	1052.163
25.921	13.151	1399.507	1051.907
26.936	13.206	1398.480	1051.393
27.950	13.251	1397.194	1050.620
28.965	13.305	1396.106	1050.052
29.980	13.363	1395.500	1049.873
30.994	13.360	1394.321	1048.872
32.009	13.497	1393.227	1048.823
33.023	13.528	1391.890	1047.922
34.038	13.384	1390.867	1046.146
35.053	13.358	1390.050	1045.278
36.067	13.297	1388.837	1043.890
37.082	13.356	1387.705	1043.317
38.096	13.338	1387.039	1042.609
39.111	13.424	1385.638	1042.003
40.126	13.382	1385.090	1041.237
41.140	13.226	1384.515	1039.731
42.155	13.203	1383.718	1038.897
43.169	13.160	1383.722	1038.536
44.184	13.164	1382.986	1037.915
45.199	13.296	1382.494	1038.283
46.213	13.198	1382.657	1037.698
47.228	13.212	1381.359	1036.720
48.242	13.282	1379.821	1035.913
49.257	13.214	1378.727	1034.574
50.271	13.294	1376.852	1033.576
51.286	13.255	1375.726	1032.398
52.301	13.335	1373.994	1031.505
53.315	13.278	1372.975	1030.291
54.330	13.213	1372.550	1029.480
55.344	13.200	1370.964	1028.116
56.359	13.275	1369.750	1027.580
57.374	13.269	1368.937	1026.846
58.388	13.207	1368.210	1025.821
59.403	13.127	1367.879	1024.989
60.417	13.155	1366.663	1024.156
61.432	13.169	1365.423	1023.226
62.447	13.144	1364.911	1022.596
63.461	13.076	1363.714	1021.192
64.476	13.106	1362.493	1020.373
65.490	13.160	1360.764	1019.321
66.505	13.141	1359.754	1018.357
67.520	13.200	1358.387	1017.605
68.534	13.158	1357.218	1016.378
69.549	13.068	1356.540	1015.227
70.563	13.143	1355.001	1014.450
71.578	13.069	1354.024	1013.174
72.593	13.004	1353.409	1012.223
73.607	13.087	1352.319	1011.826
74.622	13.115	1351.575	1011.354
75.636	13.086	1350.758	1010.476
76.651	13.038	1349.795	1009.369
77.666	12.954	1349.557	1008.592
78.680	13.060	1348.689	1008.499
79.695	13.106	1347.889	1008.091
80.709	13.169	1346.398	1007.271
81.724	13.102	1346.573	1006.904
82.739	13.242	1344.889	1006.413
83.753	13.281	1343.734	1005.694
84.768	13.308	1342.828	1005.091
85.782	13.254	1341.956	1004.025
86.797	13.308	1340.736	1003.348
87.812	13.129	1339.507	1001.254
88.826	13.258	1338.146	1000.932
89.841	13.357	1336.616	1000.297
90.855	13.261	1335.913	999.098
91.870	13.307	1334.901	998.531
92.884	13.289	1334.616	998.122
93.899	13.251	1333.429	996.916
94.914	13.307	1332.988	996.840
95.928	13.328	1331.786	995.978
96.943	13.320	1330.532	994.900
97.957	13.321	1329.907	994.354
98.972	13.327	1329.240	993.806
99.987	13.439	1327.160	992.832
101.001	13.401	1326.583	992.086
102.016	13.324	1325.596	990.798
103.030	13.397	1324.897	990.626
104.045	13.376	1323.986	989.728
105.060	13.318	1322.792	988.401
106.074	13.150	1321.488	986.338
107.089	13.222	1320.025	985.586
108.103	13.115	1319.066	984.148
109.118	13.248	1317.466	983.659
110.133	13.316	1315.704	982.660
111.147	13.184	1314.895	981.184
112.162	13.205	1313.762	980.380
113.176	13.287	1312.151	979.576
114.191	13.302	1311.654	979.208
115.206	13.183	1310.477	977.536
116.220	13.283	1309.438	977.265
117.235	13.229	1307.761	975.608
118.249	13.227	1307.183	975.082
119.264	13.258	1305.748	974.103
120.279	13.246	1304.549	973.054
121.293	13.151	1303.954	971.964
122.308	13.168	1302.842	971.147
123.322	13.243	1301.283	970.340
124.337	13.137	1300.453	969.015
125.352	13.219	1299.076	968.384
126.366	13.222	1297.827	967.384
127.381	13.186	1296.768	966.298
128.395	13.248	1295.711	965.788
129.410	13.258	1294.341	964.744
130.424	13.200	1293.999	964.060
131.439	13.238	1293.146	963.565
132.454	13.292	1291.663	962.686
133.468	13.199	1291.011	961.576
134.483	13.202	1290.563	961.176
135.497	13.325	1289.128	960.733
136.512	13.293	1287.431	959.197
137.527	13.223	1286.831	958.261
138.541	13.286	1284.914	957.115
139.556	13.249	1283.774	955.966
140.570	13.390	1283.172	956.248
141.585	13.335	1281.841	954.855
142.600	13.452	1280.107	954.151
143.614	13.440	1279.401	953.470
144.629	13.535	1277.940	952.844
145.643	13.468	1277.081	951.733
146.658	13.384	1275.893	950.284
147.673	13.494	1274.255	949.613
148.687	13.401	1273.179	948.194
149.702	13.376	1271.855	946.979
150.716	13.328	1270.778	945.821
151.731	13.470	1269.575	945.654
152.746	13.438	1268.369	944.488
153.760	13.501	1266.987	943.730
154.775	13.436	1266.277	942.750
155.789	13.547	1264.882	942.259
156.804	13.494	1263.854	941.111
157.819	13.577	1263.099	940.938
158.833	13.436	1262.596	939.675
159.848	13.485	1261.413	938.989
160.862	13.585	1260.125	938.516
161.877	13.512	1258.746	936.995
162.892	13.484	1257.755	936.015
163.906	13.544	1256.372	935.240
164.921	13.491	1256.054	934.621
165.935	13.462	1255.478	933.948
166.950	13.593	1253.941	933.462
167.964	13.644	1253.388	933.251
168.979	13.615	1252.897	932.642
169.994	13.513	1252.151	931.431
171.008	13.647	1251.052	931.281
172.023	13.731	1250.451	931.223
173.037	13.794	1249.146	930.525
174.052	13.768	1247.959	929.411
175.067	13.570	1247.690	928.018
176.081	13.644	1246.461	927.440
177.096	13.682	1245.551	926.891
178.110	13.628	1244.793	925.945
179.125	13.664	1243.030	924.751
180.140	13.691	1242.018	924.064
181.154	13.762	1240.786	923.464
182.169	13.861	1239.413	922.911
183.183	13.848	1238.340	921.958
184.198	13.835	1237.447	921.139
185.213	13.849	1236.030	920.077
186.227	13.825	1235.145	919.205
187.242	13.987	1233.894	919.089
188.256	13.910	1233.172	918.044
189.271	13.903	1232.043	917.083
190.286	13.817	1230.767	915.580
191.300	13.734	1230.287	914.682
192.315	13.770	1229.409	914.151
193.329	13.673	1229.135	913.333
194.344	13.780	1227.836	912.872
195.359	13.811	1227.471	912.690
196.373	13.829	1227.073	912.415
197.388	13.752	1227.105	911.931
198.402	13.946	1226.008	912.104
199.417	14.011	1225.377	911.908
200.432	14.069	1224.239	911.299
201.446	14.058	1223.688	910.750
202.461	14.155	1222.412	910.250
203.475	14.174	1220.969	909.200
204.490	14.187	1219.955	908.434
205.504	14.087	1218.788	906.938
206.519	14.109	1217.499	906.021
207.534	14.026	1216.839	904.993
208.548	14.025	1215.508	903.921
209.563	14.165	1214.666	903.975
210.577	14.134	1213.875	903.137
211.592	14.123	1213.197	902.491
212.607	14.149	1212.396	901.959
213.621	14.228	1211.325	901.513
214.636	14.319	1210.310	901.167
215.650	14.276	1209.408	900.182
216.665	14.362	1208.471	899.872
217.680	14.323	1207.498	898.859
218.694	14.432	1206.383	898.534
219.709	14.358	1206.229	897.940
220.723	14.161	1205.525	896.279
221.738	14.433	1204.227	896.694
222.753	14.405	1203.673	896.052
223.767	14.293	1203.221	895.037
224.782	14.499	1202.324	895.394
225.796	14.385	1201.714	894.253
226.811	14.440	1200.879	893.844
227.826	14.399	1200.614	893.351
228.840	14.461	1199.504	892.777
229.855	14.494	1198.522	892.142
230.869	14.513	1198.106	891.854
231.884	14.462	1197.009	890.686
232.899	14.385	1196.454	889.788
233.913	14.457	1196.024	889.773
234.928	14.425	1195.055	888.802
235.942	14.459	1194.186	888.259
236.957	14.378	1193.541	887.265
237.972	14.334	1192.763	886.376
238.986	14.439	1192.022	886.303
240.001	14.447	1191.128	885.607
241.015	14.429	1190.485	884.954
242.030	14.441	1189.439	884.163
243.045	14.596	1188.402	884.134
244.059	14.621	1188.248	884.074
245.074	14.551	1186.959	882.665
246.088	14.697	1186.211	882.804
247.103	14.764	1185.289	882.391
248.117	14.679	1184.756	881.468
249.132	14.739	1184.195	881.289
250.147	14.722	1183.403	880.533
251.161	14.740	1182.653	879.993
252.176	14.847	1182.095	880.063
253.190	14.846	1181.326	879.407
254.205	14.851	1180.966	879.087
255.220	14.892	1180.192	878.646
256.234	14.869	1179.826	878.178
257.249	14.958	1178.664	877.699
258.263	14.859	1178.160	876.730
259.278	14.960	1177.667	876.816
260.293	15.095	1176.565	876.624
261.307	15.058	1176.365	876.204
262.322	15.138	1175.398	875.822
263.336	15.017	1174.921	874.757
264.351	15.092	1174.734	874.935
265.366	15.148	1173.812	874.461
266.380	15.116	1173.020	873.629
267.395	15.070	1172.157	872.668
268.409	15.094	1171.504	872.232
269.424	15.111	1170.687	871.634
270.439	15.090	1170.286	871.149
271.453	15.024	1169.411	870.076
272.468	15.058	1168.613	869.580
273.482	15.192	1167.212	869.155
274.497	15.112	1166.963	868.481
275.512	14.975	1166.640	867.452
276.526	15.120	1165.713	867.437
277.541	15.177	1164.796	866.974
278.555	15.206	1163.651	866.194
279.570	15.362	1163.165	866.563
280.585	15.197	1162.816	865.374
281.599	15.324	1161.291	864.819
282.614	15.233	1160.586	863.746
283.628	15.254	1159.782	863.181
284.643	15.325	1158.878	862.797
285.657	15.315	1157.752	861.827
286.672	15.331	1156.524	860.923
287.687	15.314	1155.872	860.274
288.701	15.428	1155.094	860.199
289.716	15.505	1153.953	859.668
290.730	15.405	1153.576	858.800
291.745	15.413	1152.758	858.155
292.760	15.469	1152.101	857.879
293.774	15.455	1151.406	857.215
294.789	15.606	1150.939	857.562
295.803	15.419	1150.716	856.362
296.818	15.492	1149.857	856.022
297.833	15.545	1148.573	855.262
298.847	15.439	1148.389	854.510
299.862	15.422	1147.532	853.708
300.876	15.594	1146.299	853.591
301.891	15.584	1145.878	853.147
302.906	15.623	1145.418	852.927
303.920	15.698	1144.303	852.402
304.935	15.700	1143.496	851.739
305.949	15.773	1142.971	851.641
306.964	15.866	1142.100	851.387
307.979	15.755	1142.099	850.748
308.993	15.803	1141.102	850.174
310.008	15.732	1140.309	849.149
311.022	15.807	1139.467	848.823
312.037	15.770	1138.374	847.749
313.052	15.721	1137.613	846.860
314.066	15.740	1136.623	846.145
315.081	15.713	1136.218	845.632
316.095	15.737	1135.282	844.982
317.110	15.860	1134.368	844.843
318.125	15.761	1133.697	843.774
319.139	15.778	1133.237	843.440
320.154	15.718	1132.230	842.315
321.168	15.688	1131.870	841.825
322.183	15.775	1131.488	841.900
323.197	15.851	1130.420	841.410
324.212	15.685	1129.853	840.083
325.227	15.821	1129.096	840.127
326.241	15.895	1128.377	839.887
327.256	15.814	1128.106	839.210
328.270	15.948	1126.781	838.814
329.285	15.899	1125.488	837.535
330.300	15.902	1124.603	836.819
331.314	15.863	1123.963	836.074
332.329	15.938	1122.844	835.537
333.343	15.930	1122.394	835.089
334.358	15.870	1121.565	834.103
335.373	15.937	1120.851	833.830
336.387	16.032	1119.521	833.237
337.402	16.004	1118.886	832.550
338.416	16.058	1118.551	832.494
339.431	16.156	1118.026	832.513
340.446	16.148	1117.417	831.949
341.460	16.210	1116.648	831.607
342.475	16.303	1115.487	831.128
343.489	16.188	1114.698	829.901
344.504	16.168	1113.854	829.100
345.519	16.148	1112.934	828.241
346.533	16.291	1112.196	828.322
347.548	16.291	1111.403	827.659
348.562	16.366	1110.537	827.306
349.577	16.323	1109.700	826.400
350.592	16.183	1109.393	825.415
351.606	16.186	1108.495	824.686
352.621	16.184	1107.925	824.179
353.635	16.212	1107.124	823.647
354.650	16.305	1106.403	823.492
355.665	16.342	1105.565	822.975
356.679	16.521	1104.461	822.951
357.694	16.239	1104.389	821.452
358.708	16.418	1103.654	821.703
359.723	16.358	1103.170	820.980
360.738	16.353	1102.524	820.403
361.752	16.398	1101.996	820.154
362.767	16.391	1101.476	819.662
363.781	16.514	1100.617	819.548
364.796	16.403	1100.047	818.511
365.810	16.514	1099.609	818.652
366.825	16.542	1098.982	818.247
367.840	16.515	1098.591	817.751
368.854	16.626	1097.763	817.600
369.869	16.555	1097.075	816.673
370.883	16.571	1096.015	815.891
371.898	16.652	1095.529	815.845
372.913	16.664	1094.776	815.268
373.927	16.642	1094.513	814.897
374.942	16.702	1093.695	814.506
375.956	16.670	1093.400	814.056
376.971	16.711	1092.531	813.536
377.986	16.813	1091.546	813.222
379.000	16.799	1091.321	812.916
380.015	16.818	1090.944	812.653
381.029	16.779	1090.404	811.988
382.044	16.891	1089.365	811.683
383.059	16.922	1088.451	811.075
384.073	16.889	1087.856	810.406
385.088	16.910	1087.152	809.909
386.102	16.851	1086.119	808.784
387.117	16.992	1084.718	808.343
388.132	16.914	1084.128	807.458
389.146	16.859	1083.314	806.519
390.161	16.837	1082.777	805.944
391.175	16.860	1082.047	805.439
392.190	16.974	1081.126	805.224
393.205	16.998	1080.655	804.916
394.219	16.930	1080.175	804.165
395.234	17.002	1078.727	803.357
396.248	16.992	1077.883	802.610
397.263	16.910	1076.924	801.434
398.278	17.012	1076.015	801.170
399.292	17.045	1075.040	800.532
400.307	16.958	1074.787	799.859
401.321	17.009	1073.886	799.357
402.336	16.944	1073.781	798.905
403.350	16.983	1072.446	798.023
404.365	17.081	1072.017	798.095
405.380	17.083	1071.161	797.397
406.394	17.100	1070.579	796.972
407.409	17.158	1070.038	796.769
408.423	17.156	1069.191	796.061
409.438	17.238	1068.276	795.694
410.453	17.221	1067.492	794.957
411.467	17.230	1066.925	794.509
412.482	17.326	1066.714	794.730
413.496	17.346	1065.553	793.890
414.511	17.337	1064.953	793.329
415.526	17.470	1064.441	793.496
416.540	17.379	1063.886	792.589
417.555	17.377	1063.562	792.267
418.569	17.340	1063.104	791.686
419.584	17.559	1062.261	792.006
420.599	17.448	1062.189	791.364
421.613	107.869	1331.228	1487.234
422.628	99.619	1370.362	1487.325
