DTS Sentinel unit serial number:	SN413079Multiplexer serial number:	ORYXHardware model number:	OX4-SRSoftware version number:	ORYX F/W v4.00 Oryx Data Collector v3.7.2.0data status	okinstallation	princeton_trtdifferential loss correction	single-endedforward channel	channel 2reverse channel	N/Adate	2019/09/13time	05:51:34forward acquisition time	60.00reverse acquisition time	0.00gamma	496.2192k internal	0.2338k external	0.2338temperature offset calibration	1.0190default loss term (dB/km)	0.3790temperature slope calibration	1.0000multiplexer offset coefficient	1.0000multiplexer slope coefficient	1.0000fibre end	0.00T internal ref (°C)	26.17T ext. ref 1 (°C)	4.05T ext. ref 2 (°C)	20.96length (m)	temperature (°C)	Stokes	anti-Stokes-747.200	-5.574	-0.157	0.108
-746.185	227.471	-0.101	0.166
-745.171	659.485	0.034	-0.087
-744.156	-68.969	-0.148	0.057
-743.142	800.000	0.157	0.524
-742.127	-147.515	-0.302	-0.026
-741.112	-200.000	-0.056	-0.273
-740.098	-45.034	0.148	-0.074
-739.083	-45.750	0.219	-0.108
-738.069	800.000	0.086	0.313
-737.054	117.802	-0.166	0.205
-736.039	-101.314	-0.181	-0.044
-735.025	-126.239	0.087	-0.013
-734.010	42.320	-0.050	0.045
-732.996	-68.763	-0.184	-0.071
-731.981	730.718	-0.033	0.088
-730.966	-34.575	-0.350	0.192
-729.952	-200.000	0.061	-0.457
-728.937	85.566	-0.113	0.125
-727.923	149.733	-0.190	-0.259
-726.908	162.683	-0.049	0.069
-725.894	-52.876	-0.381	0.176
-724.879	515.348	0.124	-0.289
-723.864	-144.453	0.157	0.015
-722.850	-81.371	-0.236	-0.078
-721.835	800.000	0.131	-0.394
-720.821	-137.055	-0.074	-0.008
-719.806	41.033	-0.252	-0.229
-718.791	-77.820	0.322	0.112
-717.777	-60.969	-0.279	-0.118
-716.762	-200.000	-0.008	0.077
-715.748	-200.000	-0.029	0.161
-714.733	27.326	-0.400	0.337
-713.718	-79.774	-0.377	-0.127
-712.704	88.924	-0.118	-0.132
-711.689	-106.936	-0.231	-0.051
-710.675	-200.000	0.055	-0.257
-709.660	-92.924	0.222	-0.062
-708.645	800.000	0.008	0.025
-707.631	20.234	0.162	-0.131
-706.616	-200.000	0.014	0.269
-705.602	-115.888	-0.270	-0.050
-704.587	28.448	-0.066	0.056
-703.572	-88.703	-0.053	0.016
-702.558	-50.257	-0.150	-0.071
-701.543	-122.868	-0.306	-0.049
-700.529	-117.914	-0.082	0.015
-699.514	670.568	-0.045	-0.117
-698.499	102.539	-0.134	-0.157
-697.485	-173.032	0.272	0.008
-696.470	-4.425	-0.432	0.299
-695.456	-66.249	0.159	-0.064
-694.441	-19.895	-0.517	-0.320
-693.426	800.000	-0.097	-0.415
-692.412	-85.038	0.385	-0.121
-691.397	-200.000	-0.017	-0.272
-690.383	-200.000	-0.034	0.419
-689.368	-200.000	0.001	0.155
-688.354	15.593	0.391	-0.308
-687.339	409.755	0.131	-0.278
-686.324	-0.039	0.109	0.078
-685.310	-36.823	-0.109	0.059
-684.295	-61.967	0.175	-0.073
-683.281	-30.832	-0.081	-0.046
-682.266	-57.390	-0.202	-0.089
-681.251	-12.186	0.274	-0.179
-680.237	518.642	0.053	-0.125
-679.222	-106.253	0.180	-0.040
-678.208	173.337	-0.070	-0.101
-677.193	-200.000	-0.037	-0.203
-676.178	88.677	-0.169	0.189
-675.164	-161.335	-0.174	0.009
-674.149	449.251	0.033	-0.073
-673.135	800.000	-0.090	-0.328
-672.120	-200.000	0.001	-0.033
-671.105	224.778	-0.089	-0.144
-670.091	-63.278	0.178	0.074
-669.076	-64.281	-0.284	-0.116
-668.062	-200.000	0.004	-0.380
-667.047	-111.062	-0.390	0.080
-666.032	-16.208	-0.269	0.171
-665.018	-76.526	-0.161	0.057
-664.003	171.048	-0.156	0.224
-662.989	800.000	0.025	-0.107
-661.974	-88.445	0.121	-0.036
-660.959	-85.628	-0.286	0.089
-659.945	541.843	0.075	-0.179
-658.930	-90.921	0.063	-0.018
-657.916	-182.287	-0.224	-0.004
-656.901	800.000	-0.078	-0.307
-655.886	57.554	0.144	-0.141
-654.872	80.257	0.245	0.264
-653.857	-200.000	0.011	0.138
-652.843	-102.151	0.210	0.051
-651.828	-104.211	-0.138	0.032
-650.814	-25.905	-0.034	0.020
-649.799	62.569	0.244	0.243
-648.784	-200.000	-0.058	-0.457
-647.770	-80.557	0.206	-0.069
-646.755	-200.000	-0.020	0.234
-645.741	-94.782	-0.196	-0.053
-644.726	-28.998	0.201	-0.116
-643.711	-78.081	-0.290	-0.100
-642.697	-109.565	-0.303	0.064
-641.682	-31.113	-0.238	-0.134
-640.668	-200.000	-0.037	0.205
-639.653	273.517	-0.043	0.075
-638.638	-200.000	0.023	-0.160
-637.624	-100.669	-0.180	-0.044
-636.609	-200.000	0.027	-0.310
-635.595	-150.565	-0.165	-0.013
-634.580	-200.000	-0.039	0.175
-633.565	-200.000	-0.005	0.219
-632.551	-200.000	-0.015	0.103
-631.536	-123.835	0.288	-0.045
-630.522	0.907	0.425	0.304
-629.507	558.096	0.037	0.089
-628.492	49.608	0.093	0.088
-627.478	15.700	0.165	0.130
-626.463	81.763	-0.189	0.204
-625.449	677.258	-0.030	-0.079
-624.434	-57.870	0.329	-0.144
-623.419	43.506	-0.384	-0.351
-622.405	108.579	0.359	0.428
-621.390	-113.095	-0.146	0.029
-620.376	-88.781	0.144	-0.043
-619.361	185.370	-0.214	-0.317
-618.346	-200.000	-0.021	-0.158
-617.332	-65.307	0.259	-0.104
-616.317	-53.009	0.187	0.086
-615.303	176.561	0.092	-0.133
-614.288	-200.000	0.013	-0.195
-613.273	-200.000	-0.047	-0.236
-612.259	-0.695	-0.100	-0.071
-611.244	-48.249	-0.314	-0.151
-610.230	1.996	0.131	0.094
-609.215	-137.667	0.230	0.026
-608.201	-137.125	-0.160	-0.018
-607.186	-200.000	0.031	-0.358
-606.171	64.465	0.112	-0.113
-605.157	69.945	-0.120	0.123
-604.142	105.903	0.092	0.108
-603.128	228.936	0.047	0.076
-602.113	128.267	-0.060	-0.077
-601.098	-150.648	0.407	-0.031
-600.084	-129.812	-0.262	-0.036
-599.069	-200.000	-0.025	-0.109
-598.055	-19.398	-0.041	0.026
-597.040	-66.997	-0.495	-0.195
-596.025	800.000	-0.083	0.290
-595.011	-51.570	0.301	0.140
-593.996	-81.503	-0.313	-0.103
-592.982	5.291	-0.040	-0.029
-591.967	800.000	0.079	0.237
-590.952	118.905	0.200	-0.246
-589.938	-85.148	-0.056	0.017
-588.923	-63.216	-0.389	-0.160
-587.909	-200.000	-0.028	-0.290
-586.894	339.102	-0.141	0.274
-585.879	-10.448	0.238	0.158
-584.865	800.000	-0.051	0.155
-583.850	166.337	-0.159	0.224
-582.836	-200.000	0.016	0.233
-581.821	631.709	-0.064	-0.161
-580.806	98.006	-0.082	-0.094
-579.792	10.935	-0.106	-0.081
-578.777	-109.774	0.317	-0.066
-577.763	-200.000	-0.016	0.129
-576.748	-152.381	-0.126	0.009
-575.733	149.329	-0.187	-0.252
-574.719	-67.996	0.300	-0.117
-573.704	143.128	-0.083	-0.110
-572.690	35.365	-0.113	0.099
-571.675	44.053	-0.167	-0.152
-570.661	-58.906	0.347	0.149
-569.646	1.874	-0.230	-0.166
-568.631	-116.780	-0.111	0.020
-567.617	-40.355	0.178	-0.092
-566.602	229.244	0.132	-0.214
-565.588	-7.945	-0.362	-0.244
-564.573	32.112	-0.096	-0.082
-563.558	-22.176	-0.044	-0.027
-562.544	460.306	0.125	0.278
-561.529	34.276	-0.218	0.190
-560.515	155.391	-0.066	-0.090
-559.500	14.154	-0.114	0.088
-558.485	291.938	0.243	-0.440
-557.471	-195.432	0.227	-0.002
-556.456	119.128	-0.250	0.309
-555.442	-37.501	0.183	-0.097
-554.427	73.938	-0.222	-0.232
-553.412	304.136	-0.144	-0.267
-552.398	-2.889	0.260	0.181
-551.383	-115.140	0.070	-0.013
-550.369	35.753	0.066	-0.057
-549.354	800.000	-0.089	0.357
-548.339	202.359	-0.085	-0.131
-547.325	800.000	0.049	-0.208
-546.310	567.545	0.145	0.350
-545.296	418.916	0.026	-0.055
-544.281	-200.000	-0.017	-0.537
-543.266	-200.000	-0.025	-0.194
-542.252	25.405	-0.131	-0.108
-541.237	545.971	0.156	0.370
-540.223	800.000	0.043	-0.166
-539.208	800.000	-0.049	0.148
-538.193	-117.345	0.136	0.025
-537.179	-108.261	0.068	-0.015
-536.164	11.947	0.411	0.314
-535.150	-200.000	-0.047	0.224
-534.135	299.989	-0.145	0.265
-533.121	44.168	-0.097	-0.089
-532.106	-46.094	-0.274	-0.134
-531.091	-200.000	0.032	-0.297
-530.077	-200.000	-0.060	-0.328
-529.062	-200.000	-0.084	0.497
-528.048	97.764	-0.215	0.246
-527.033	-200.000	-0.010	-0.091
-526.018	107.948	0.057	0.067
-525.004	-200.000	0.008	-0.226
-523.989	-21.125	0.237	0.144
-522.975	199.021	0.221	0.336
-521.960	-96.467	-0.252	-0.066
-520.945	-200.000	0.009	-0.318
-519.931	800.000	0.095	0.363
-518.916	-90.630	0.099	0.028
-517.902	-63.934	-0.047	-0.019
-516.887	33.753	-0.075	0.065
-515.872	-17.498	-0.241	-0.151
-514.858	392.451	-0.186	0.385
-513.843	-200.000	0.022	-0.204
-512.829	30.884	0.195	-0.166
-511.814	-137.187	0.102	-0.012
-510.799	-14.471	-0.461	0.295
-509.785	475.702	0.084	-0.189
-508.770	227.344	-0.130	-0.210
-507.756	-96.774	0.135	0.035
-506.741	20.141	-0.033	-0.026
-505.726	-6.887	0.316	-0.213
-504.712	-133.437	-0.363	0.045
-503.697	138.675	0.162	0.211
-502.683	-21.208	0.226	0.137
-501.668	-200.000	-0.051	-0.246
-500.653	-37.703	-0.276	-0.146
-499.639	-123.379	0.254	0.040
-498.624	-60.111	-0.069	-0.029
-497.610	29.920	-0.213	0.181
-496.595	800.000	0.009	0.030
-495.581	108.533	0.061	-0.073
-494.566	-68.177	-0.599	0.232
-493.551	-200.000	0.004	0.204
-492.537	-129.499	-0.358	-0.049
-491.522	-153.668	0.071	0.005
-490.508	-147.150	-0.078	0.007
-489.493	-35.912	0.149	0.080
-488.478	-60.540	0.209	-0.088
-487.464	-25.175	-0.255	-0.150
-486.449	-200.000	0.042	0.292
-485.435	19.596	0.153	-0.122
-484.420	339.428	0.024	-0.047
-483.405	-165.303	0.230	0.010
-482.391	-136.784	-0.132	0.015
-481.376	480.487	-0.137	0.308
-480.362	-118.841	-0.042	-0.007
-479.347	-200.000	0.003	-0.342
-478.332	-200.000	0.036	-0.208
-477.318	-200.000	-0.000	0.125
-476.303	73.939	-0.183	0.191
-475.289	-12.857	0.137	0.089
-474.274	800.000	-0.101	0.282
-473.259	-193.408	0.359	0.003
-472.245	-85.492	0.227	-0.070
-471.230	-200.000	0.064	-0.382
-470.216	-22.907	-0.004	-0.002
-469.201	6.878	-0.058	-0.043
-468.186	-48.315	0.140	-0.067
-467.172	-91.837	-0.245	0.069
-466.157	-56.045	0.319	-0.141
-465.143	191.347	-0.144	-0.215
-464.128	-49.356	-0.211	0.100
-463.113	-148.811	-0.319	0.026
-462.099	185.655	0.117	-0.173
-461.084	-200.000	0.043	0.429
-460.070	-200.000	-0.010	0.099
-459.055	-70.491	0.228	0.086
-458.040	364.240	0.078	0.157
-457.026	169.983	-0.157	0.223
-456.011	-200.000	0.000	-0.124
-454.997	-120.265	-0.136	-0.023
-453.982	-75.257	-0.341	0.121
-452.968	-200.000	0.030	0.296
-451.953	504.902	-0.045	-0.103
-450.938	-69.500	-0.043	-0.016
-449.924	-70.715	0.316	0.118
-448.909	800.000	0.109	0.433
-447.895	-23.637	0.204	0.122
-446.880	-14.574	-0.023	-0.015
-445.865	-67.696	-0.081	0.031
-444.851	-89.434	-0.270	0.079
-443.836	-200.000	-0.058	-0.291
-442.822	-80.119	0.230	0.077
-441.807	293.369	-0.047	-0.085
-440.792	-200.000	-0.061	-0.443
-439.778	-64.365	-0.146	0.059
-438.763	-44.298	-0.149	0.074
-437.749	-99.992	-0.275	-0.068
-436.734	6.841	-0.302	-0.223
-435.719	-200.000	0.019	-0.193
-434.705	-87.898	0.044	0.013
-433.690	-61.467	0.182	-0.076
-432.676	-200.000	0.035	-0.217
-431.661	11.246	0.058	-0.044
-430.646	-58.214	0.021	0.009
-429.632	-200.000	-0.031	0.291
-428.617	285.400	-0.032	0.057
-427.603	-56.810	-0.093	-0.041
-426.588	104.868	-0.251	-0.294
-425.573	39.616	-0.093	-0.083
-424.559	156.516	0.117	0.161
-423.544	210.780	0.033	0.052
-422.530	800.000	0.109	-0.308
-421.515	-200.000	-0.029	-0.228
-420.500	-200.000	-0.000	0.031
-419.486	-71.990	-0.096	0.035
-418.471	-104.032	0.280	0.065
-417.457	-30.738	0.312	0.175
-416.442	-200.000	0.020	-0.339
-415.428	800.000	-0.062	-0.170
-414.413	797.491	-0.063	0.171
-413.398	800.000	-0.108	0.323
-412.384	67.015	-0.127	0.129
-411.369	164.378	-0.097	-0.136
-410.355	565.034	0.157	0.376
-409.340	-73.427	-0.154	-0.056
-408.325	-86.735	-0.096	0.029
-407.311	170.036	-0.063	-0.089
-406.296	-108.480	-0.141	-0.030
-405.282	800.000	-0.066	0.272
-404.267	800.000	0.073	0.260
-403.252	-4.043	0.293	-0.201
-402.238	477.684	0.114	-0.255
-401.223	-187.581	0.105	-0.001
-400.209	692.545	-0.090	0.235
-399.194	-56.981	-0.145	-0.064
-398.179	439.293	-0.085	-0.183
-397.165	601.187	0.171	-0.420
-396.150	8.838	0.194	-0.145
-395.136	321.341	0.136	0.257
-394.121	-200.000	-0.011	0.059
-393.106	-200.000	-0.013	0.086
-392.092	-162.107	0.379	-0.019
-391.077	635.582	0.027	-0.068
-390.063	-26.199	0.118	-0.069
-389.048	-121.403	-0.280	0.046
-388.033	-8.074	-0.250	0.167
-387.019	707.461	0.076	0.199
-386.004	-104.743	-0.410	0.093
-384.990	-75.166	0.187	-0.066
-383.975	-81.029	0.254	0.083
-382.960	-108.648	0.084	0.018
-381.946	44.762	0.099	-0.090
-380.931	-106.510	-0.345	0.076
-379.917	-200.000	0.017	-0.104
-378.902	-200.000	-0.045	-0.292
-377.888	387.485	0.051	0.105
-376.873	-200.000	-0.002	-0.164
-375.858	124.445	0.164	-0.205
-374.844	256.666	-0.069	0.118
-373.829	14.712	0.029	-0.022
-372.815	-200.000	-0.020	-0.195
-371.800	270.873	-0.075	0.130
-370.785	-200.000	0.008	-0.349
-369.771	-142.769	-0.266	-0.026
-368.756	-48.096	-0.152	-0.073
-367.742	-200.000	0.013	-0.157
-366.727	297.232	-0.196	-0.356
-365.712	-200.000	-0.012	-0.250
-364.698	-200.000	-0.015	-0.140
-363.683	209.009	-0.062	0.096
-362.669	-26.717	0.124	-0.072
-361.654	307.181	-0.046	-0.084
-360.639	-74.578	-0.045	-0.016
-359.625	-67.539	0.176	-0.068
-358.610	-84.959	-0.083	0.026
-357.596	-200.000	0.079	0.441
-356.581	-200.000	-0.016	0.250
-355.566	45.626	-0.203	-0.185
-354.552	11.924	-0.300	0.228
-353.537	98.154	-0.078	0.089
-352.523	-200.000	-0.025	-0.233
-351.508	-200.000	-0.001	0.129
-350.493	-12.565	0.213	0.137
-349.479	138.721	0.151	-0.196
-348.464	800.000	-0.062	-0.173
-347.450	775.921	-0.111	0.300
-346.435	-94.817	0.122	0.033
-345.420	58.607	-0.133	-0.129
-344.406	-122.317	0.348	0.056
-343.391	-164.134	-0.348	-0.016
-342.377	-154.345	-0.396	-0.026
-341.362	-200.000	-0.008	-0.093
-340.348	218.110	-0.136	-0.214
-339.333	-200.000	-0.257	-0.001
-338.318	89.963	-0.216	-0.239
-337.304	-26.102	0.251	-0.146
-336.289	800.000	0.163	0.524
-335.275	-113.972	-0.245	-0.047
-334.260	3.283	-0.143	-0.103
-333.245	-198.140	-0.232	-0.001
-332.231	-200.000	0.043	-0.210
-331.216	29.001	0.240	-0.201
-330.202	800.000	-0.026	-0.077
-329.187	369.977	-0.112	0.223
-328.172	-80.336	0.263	-0.087
-327.158	-127.631	0.083	0.012
-326.143	-105.299	0.242	0.054
-325.129	800.000	0.049	-0.152
-324.114	116.525	0.168	-0.203
-323.099	-87.709	0.085	-0.025
-322.085	19.557	-0.158	-0.126
-321.070	-144.645	0.122	-0.011
-320.056	800.000	0.041	-0.164
-319.041	-76.367	-0.217	0.075
-318.026	-117.958	0.400	-0.071
-317.012	-136.661	0.170	0.019
-315.997	76.523	0.285	0.298
-314.983	160.291	-0.025	-0.034
-313.968	800.000	0.052	-0.220
-312.953	-87.197	0.072	-0.022
-311.939	764.393	-0.113	0.302
-310.924	-200.000	0.012	0.279
-309.910	-103.694	0.264	-0.061
-308.895	-151.877	-0.066	0.005
-307.880	-104.326	0.188	-0.043
-306.866	-200.000	-0.008	-0.225
-305.851	800.000	-0.012	-0.045
-304.837	-200.000	-0.014	0.144
-303.822	475.037	0.146	0.326
-302.807	-43.558	-0.069	0.035
-301.793	-1.712	0.105	-0.073
-300.778	348.934	0.101	0.196
-299.764	142.951	0.160	0.210
-298.749	266.094	-0.212	-0.365
-297.735	299.986	0.035	-0.063
-296.720	-200.000	0.050	0.261
-295.705	-130.708	0.167	0.022
-294.691	22.861	-0.054	0.044
-293.676	495.449	0.207	0.468
-292.662	-200.000	0.003	0.151
-291.647	-115.863	-0.009	0.002
-290.632	-200.000	0.049	0.363
-289.618	-200.000	0.032	0.175
-288.603	-83.717	-0.143	0.045
-287.589	751.865	-0.059	-0.158
-286.574	77.774	0.186	-0.195
-285.559	-62.618	0.366	-0.150
-284.545	800.000	0.084	-0.265
-283.530	-48.778	-0.186	-0.088
-282.516	-137.247	-0.238	0.027
-281.501	-149.395	0.184	-0.014
-280.486	149.754	-0.083	0.112
-279.472	501.451	-0.025	0.057
-278.457	-25.453	0.108	0.063
-277.443	-200.000	0.022	-0.222
-276.428	-9.434	0.022	-0.015
-275.413	-23.682	0.310	-0.183
-274.399	-181.853	0.275	0.005
-273.384	167.872	-0.262	0.367
-272.370	-200.000	-0.057	-0.248
-271.355	-116.382	0.085	0.016
-270.340	307.456	0.050	0.092
-269.326	800.000	0.073	-0.266
-268.311	-200.000	-0.079	-0.367
-267.297	-111.668	-0.080	0.016
-266.282	-200.000	-0.025	0.214
-265.267	800.000	-0.096	-0.315
-264.253	-200.000	0.058	-0.312
-263.238	516.054	-0.127	0.292
-262.224	-48.577	-0.199	-0.094
-261.209	-200.000	0.041	0.280
-260.195	-200.000	-0.094	-0.000
-259.180	-200.000	0.019	-0.290
-258.165	-200.000	0.330	-0.000
-257.151	-125.459	-0.283	0.042
-256.136	800.000	0.085	0.334
-255.122	86.142	0.145	-0.158
-254.107	-123.615	-0.353	-0.055
-253.092	-7.678	0.265	-0.176
-252.078	800.000	-0.014	-0.058
-251.063	-55.890	0.322	-0.142
-250.049	-120.209	-0.175	0.029
-249.034	-17.154	-0.262	0.163
-248.019	-116.800	-0.137	0.025
-247.005	-150.470	0.460	-0.035
-245.990	-200.000	-0.001	0.660
-244.976	15.437	-0.188	-0.145
-243.961	-173.419	-0.105	-0.003
-242.946	57.151	0.145	0.139
-241.932	-145.002	-0.139	-0.012
-240.917	-65.138	0.463	0.184
-239.903	149.356	-0.214	0.285
-238.888	277.008	0.060	0.105
-237.873	313.851	0.123	0.228
-236.859	114.550	0.223	0.267
-235.844	-200.000	-0.066	0.298
-234.830	-25.491	0.133	0.077
-233.815	112.278	-0.194	-0.231
-232.800	-56.086	-0.295	0.129
-231.786	6.465	0.116	-0.085
-230.771	-25.354	-0.123	-0.071
-229.757	132.810	0.092	0.117
-228.742	-0.814	0.134	0.093
-227.727	131.374	0.270	-0.341
-226.713	556.062	0.186	-0.440
-225.698	-123.628	0.360	0.056
-224.684	-23.575	-0.414	0.244
-223.669	800.000	-0.030	0.108
-222.655	-132.806	-0.427	0.054
-221.640	-200.000	0.024	0.351
-220.625	-200.000	0.026	-0.154
-219.611	188.388	0.103	0.152
-218.596	176.956	0.108	0.154
-217.582	0.539	-0.050	-0.035
-216.567	800.000	-0.076	-0.297
-215.552	60.573	0.154	0.150
-214.538	800.000	-0.028	0.103
-213.523	402.322	-0.129	-0.266
-212.509	800.000	0.046	-0.166
-211.494	-200.000	-0.005	-0.071
-210.479	-0.260	-0.165	0.115
-209.465	152.194	0.110	0.148
-208.450	800.000	0.028	-0.085
-207.436	-200.000	-0.071	0.448
-206.421	-82.208	0.422	-0.135
-205.406	218.456	-0.051	-0.080
-204.392	-28.985	-0.204	-0.115
-203.377	363.348	-0.068	-0.134
-202.363	30.824	-0.157	-0.132
-201.348	-86.749	-0.312	0.094
-200.333	-93.253	0.115	-0.031
-199.319	161.510	-0.055	0.076
-198.304	456.300	-0.086	-0.188
-197.290	-47.451	0.255	-0.122
-196.275	-0.862	0.127	0.088
-195.260	100.927	-0.220	0.251
-194.246	84.634	0.142	0.152
-193.231	117.804	0.117	-0.142
-192.217	108.891	-0.174	0.204
-191.202	-200.000	-0.044	-0.298
-190.187	126.758	-0.084	0.105
-189.173	-133.156	0.095	0.012
-188.158	108.559	0.213	-0.250
-187.144	346.224	0.114	-0.221
-186.129	-42.073	0.202	-0.101
-185.114	37.219	0.039	-0.034
-184.100	-15.495	0.171	0.107
-183.085	-146.650	-0.118	0.010
-182.071	-200.000	-0.021	0.100
-181.056	-97.936	0.496	0.126
-180.042	-18.972	-0.050	-0.030
-179.027	-19.496	0.107	0.065
-178.012	-194.490	-0.100	-0.001
-176.998	-27.948	-0.106	-0.061
-175.983	483.094	-0.051	0.115
-174.969	800.000	0.034	-0.126
-173.954	-200.000	-0.002	0.032
-172.939	-16.252	0.238	0.148
-171.925	72.738	-0.165	-0.169
-170.910	204.479	0.155	-0.235
-169.896	38.512	-0.164	0.144
-168.881	-200.000	0.030	-0.510
-167.866	237.375	-0.021	-0.034
-166.852	31.604	0.163	0.137
-165.837	-98.122	0.292	0.074
-164.823	475.132	-0.162	0.359
-163.808	-161.483	-0.092	-0.005
-162.793	16.718	0.028	-0.022
-161.779	125.721	-0.223	0.277
-160.764	-200.000	-0.017	0.457
-159.750	-200.000	0.010	-0.120
-158.735	-200.000	0.042	-0.208
-157.720	-200.000	0.013	0.423
-156.706	62.048	-0.180	-0.176
-155.691	-200.000	0.012	-0.087
-154.677	45.600	-0.050	0.046
-153.662	311.523	-0.110	0.203
-152.647	45.550	0.179	0.163
-151.633	511.065	0.153	0.349
-150.618	104.709	0.236	-0.273
-149.604	340.954	0.047	0.090
-148.589	-115.220	0.078	-0.014
-147.574	-106.151	-0.340	0.075
-146.560	-188.494	0.171	-0.002
-145.545	20.699	-0.076	0.060
-144.531	60.106	0.091	-0.088
-143.516	0.564	-0.268	-0.188
-142.502	162.629	-0.183	-0.251
-141.487	-75.556	0.201	-0.070
-140.472	-48.603	0.090	-0.042
-139.458	-200.000	0.050	0.311
-138.443	11.618	0.067	0.050
-137.429	800.000	0.024	0.081
-136.414	156.381	-0.122	-0.166
-135.399	-81.824	-0.033	-0.011
-134.385	25.405	-0.133	0.108
-133.370	-200.000	-0.004	0.132
-132.356	-162.383	0.076	0.004
-131.341	-140.121	-0.154	0.016
-130.326	-63.435	-0.287	0.116
-129.312	102.605	-0.210	-0.241
-128.297	-200.000	0.035	-0.464
-127.283	-111.673	0.076	-0.015
-126.268	-65.071	0.140	-0.055
-125.253	26.396	-0.043	-0.035
-124.239	-167.290	0.090	-0.004
-123.224	-10.937	-0.250	0.161
-122.210	-112.508	-0.186	0.036
-121.195	-200.000	-0.047	0.280
-120.180	193.523	0.227	0.336
-119.166	-200.000	0.016	-0.347
-118.151	-59.349	-0.135	0.057
-117.137	221.566	-0.163	-0.256
-116.122	288.571	0.024	-0.043
-115.107	42.955	0.046	0.041
-114.093	-76.433	0.416	0.143
-113.078	800.000	0.078	-0.225
-112.064	10.187	0.301	0.224
-111.049	-141.786	-0.204	-0.020
-110.034	-103.403	-0.116	-0.027
-109.020	-65.170	0.284	0.112
-108.005	-29.679	-0.161	0.090
-106.991	-200.000	0.042	-0.301
-105.976	117.078	0.055	-0.066
-104.962	-200.000	-0.004	0.081
-103.947	-103.379	0.120	0.028
-102.932	43.886	-0.155	0.139
-101.918	800.000	-0.083	-0.269
-100.903	-11.110	-0.050	-0.032
-99.889	247.426	-0.061	0.100
-98.874	-24.385	-0.134	0.078
-97.859	-68.991	-0.147	-0.055
-96.845	-109.551	0.153	-0.032
-95.830	-174.120	-0.254	0.007
-94.816	374.086	0.105	0.209
-93.801	-29.539	0.102	-0.057
-92.786	7.578	-0.218	-0.160
-91.772	-76.158	-0.134	-0.046
-90.757	-169.793	0.075	0.003
-89.743	-6.433	0.177	-0.118
-88.728	418.731	-0.010	-0.020
-87.713	-110.477	-0.251	-0.051
-86.699	40.783	0.059	0.052
-85.684	-85.711	0.132	0.040
-84.670	180.347	-0.120	0.172
-83.655	-130.261	0.196	-0.026
-82.640	133.606	-0.124	0.157
-81.626	-26.497	-0.202	-0.116
-80.611	121.132	0.044	-0.054
-79.597	50.377	-0.202	0.186
-78.582	-75.023	-0.165	0.058
-77.567	-4.247	-0.224	0.152
-76.553	800.000	-0.093	-0.329
-75.538	-100.432	-0.366	0.089
-74.524	-200.000	-0.000	0.154
-73.509	14.444	0.159	0.121
-72.494	-107.061	-0.062	0.013
-71.480	-25.840	0.230	-0.133
-70.465	110.980	0.377	-0.443
-69.451	55.740	0.203	-0.192
-68.436	-110.657	-0.190	-0.038
-67.422	8.047	0.184	0.135
-66.407	-180.955	0.141	0.003
-65.392	-200.000	-0.016	0.092
-64.378	140.389	0.168	0.217
-63.363	-143.164	-0.205	-0.019
-62.349	222.541	-0.277	0.436
-61.334	82.811	-0.695	-0.738
-60.319	-2.389	0.545	0.373
-59.305	401.611	-0.539	-1.106
-58.290	101.326	0.908	1.033
-57.276	583.517	0.670	1.608
-56.261	-200.000	117.928	643.741
-55.246	483.430	1551.911	3447.680
-54.232	172.942	2729.767	3841.618
-53.217	96.984	2294.762	2570.215
-52.203	35.088	1901.026	1626.620
-51.188	29.317	1694.699	1406.154
-50.173	26.884	1653.966	1354.165
-49.159	46.651	1712.386	1552.843
-48.144	45.519	1725.098	1555.707
-47.130	28.843	1682.715	1392.402
-46.115	26.248	1668.094	1360.731
-45.100	26.089	1663.314	1355.581
-44.086	26.061	1660.733	1353.214
-43.071	26.021	1658.521	1351.061
-42.057	25.910	1655.869	1348.017
-41.042	26.083	1653.864	1347.624
-40.027	26.076	1651.475	1345.572
-39.013	25.989	1649.905	1343.589
-37.998	26.016	1648.214	1342.358
-36.984	25.973	1647.515	1341.413
-35.969	26.087	1645.974	1340.956
-34.954	26.204	1644.000	1340.162
-33.940	26.174	1642.487	1338.654
-32.925	26.168	1640.329	1336.794
-31.911	26.154	1638.878	1335.456
-30.896	26.143	1637.435	1334.145
-29.881	26.098	1636.071	1332.654
-28.867	26.172	1633.326	1330.909
-27.852	26.119	1632.924	1330.133
-26.838	26.171	1631.227	1329.087
-25.823	26.238	1629.551	1328.160
-24.809	26.249	1628.695	1327.487
-23.794	26.172	1627.340	1325.769
-22.779	26.208	1625.552	1324.524
-21.765	26.152	1623.948	1322.754
-20.750	26.127	1622.058	1320.973
-19.736	26.213	1620.900	1320.614
-18.721	26.318	1619.191	1319.932
-17.706	26.265	1618.064	1318.574
-16.692	26.167	1616.636	1316.647
-15.677	26.254	1614.836	1315.759
-14.663	26.301	1613.765	1315.173
-13.648	26.214	1612.333	1313.328
-12.633	26.227	1610.521	1311.893
-11.619	26.254	1608.530	1310.410
-10.604	26.230	1607.557	1309.391
-9.590	26.229	1606.254	1308.275
-8.575	26.202	1605.045	1307.040
-7.560	26.185	1604.078	1306.083
-6.546	26.233	1602.806	1305.335
-5.531	26.174	1601.708	1303.963
-4.517	26.208	1600.537	1303.209
-3.502	26.255	1599.094	1302.319
-2.487	26.286	1597.840	1301.469
-1.473	25.869	1585.662	1288.515
-0.458	23.144	1566.413	1253.546
0.556	21.562	1567.925	1222.148
1.571	19.146	1592.494	1224.036
2.586	18.849	1604.515	1231.042
3.600	17.142	1549.930	1177.229
4.615	10.729	1443.776	1054.973
5.629	4.960	1384.746	975.717
6.644	3.974	1376.782	963.882
7.659	3.982	1375.987	963.294
8.673	4.096	1375.175	963.345
9.688	4.128	1372.564	961.634
10.702	4.072	1370.044	959.434
11.717	6.777	1374.875	979.526
12.731	14.178	1389.065	1035.780
13.746	20.782	1399.459	1084.721
14.761	22.640	1401.535	1097.815
15.775	22.159	1399.618	1093.228
16.790	21.120	1397.476	1085.004
17.804	20.548	1395.105	1079.513
18.819	20.140	1394.005	1076.031
19.834	20.143	1393.051	1075.221
20.848	20.040	1392.531	1074.088
21.863	19.912	1391.290	1072.243
22.877	19.798	1390.256	1070.645
23.892	19.759	1389.251	1069.533
24.907	19.589	1387.937	1067.375
25.921	19.729	1387.051	1067.465
26.936	19.645	1386.386	1066.341
27.950	19.725	1385.236	1065.854
28.965	19.860	1384.090	1065.711
29.980	20.009	1383.483	1066.066
30.994	20.143	1382.766	1066.245
32.009	20.142	1381.153	1064.899
33.023	20.166	1380.433	1064.399
34.038	20.171	1378.108	1062.544
35.053	19.854	1377.459	1060.005
36.067	19.862	1376.335	1059.095
37.082	19.960	1375.355	1058.844
38.096	20.012	1374.286	1058.248
39.111	20.062	1373.748	1058.047
40.126	20.002	1372.604	1056.705
41.140	19.540	1371.787	1053.166
42.155	19.429	1371.380	1052.078
43.169	19.401	1370.992	1051.518
44.184	19.332	1370.475	1050.612
45.199	19.376	1370.382	1050.717
46.213	19.579	1370.393	1051.866
47.228	19.744	1369.583	1052.153
48.242	19.799	1368.265	1051.383
49.257	19.708	1367.106	1049.847
50.271	19.835	1365.372	1049.193
51.286	19.811	1363.667	1047.646
52.301	19.744	1362.892	1046.549
53.315	19.580	1361.636	1044.502
54.330	19.462	1360.594	1042.899
55.344	19.539	1359.279	1042.264
56.359	19.501	1358.067	1041.009
57.374	19.424	1357.236	1039.820
58.388	19.314	1356.645	1038.611
59.403	19.267	1356.320	1037.986
60.417	19.155	1355.893	1036.896
61.432	19.241	1354.518	1036.271
62.447	19.166	1353.598	1035.022
63.461	19.067	1352.181	1033.253
64.476	19.031	1351.474	1032.405
65.490	19.083	1350.056	1031.544
66.505	18.977	1348.595	1029.700
67.520	19.198	1346.617	1029.417
68.534	19.038	1346.264	1028.102
69.549	19.035	1344.870	1026.932
70.563	19.011	1344.006	1026.034
71.578	18.801	1343.243	1024.110
72.593	18.881	1341.944	1023.507
73.607	18.865	1340.909	1022.529
74.622	18.866	1340.837	1022.389
75.636	18.948	1340.021	1022.165
76.651	19.015	1339.031	1021.721
77.666	19.120	1338.855	1022.115
78.680	19.079	1338.597	1021.585
79.695	19.200	1337.562	1021.421
80.709	19.283	1337.034	1021.421
81.724	19.364	1336.235	1021.200
82.739	19.607	1334.885	1021.514
83.753	19.667	1334.998	1021.869
84.768	19.925	1333.866	1022.435
85.782	20.099	1332.652	1022.438
86.797	19.974	1331.696	1020.879
87.812	19.865	1330.836	1019.486
88.826	19.854	1329.374	1018.213
89.841	19.874	1328.376	1017.474
90.855	20.053	1327.424	1017.708
91.870	20.029	1326.718	1016.937
92.884	20.013	1326.141	1016.310
93.899	20.049	1325.397	1015.860
94.914	20.133	1324.532	1015.597
95.928	20.148	1323.354	1014.696
96.943	19.943	1322.922	1013.071
97.957	19.972	1321.808	1012.299
98.972	19.902	1321.121	1011.277
99.987	19.906	1319.621	1010.064
101.001	19.948	1318.493	1009.356
102.016	20.007	1317.529	1008.872
103.030	19.950	1317.084	1008.106
104.045	19.896	1315.872	1006.779
105.060	19.752	1314.678	1004.939
106.074	19.494	1312.826	1001.937
107.089	19.240	1310.992	998.974
108.103	19.068	1309.628	996.852
109.118	19.021	1308.529	995.654
110.133	19.129	1307.178	995.164
111.147	19.139	1305.811	994.093
112.162	19.266	1304.531	993.763
113.176	19.251	1303.647	992.912
114.191	19.273	1303.188	992.603
115.206	19.437	1301.388	992.086
116.220	19.319	1300.326	990.512
117.235	19.375	1299.288	989.956
118.249	19.261	1298.598	988.689
119.264	19.182	1297.055	986.974
120.279	19.146	1296.079	985.938
121.293	19.017	1295.108	984.376
122.308	19.028	1293.704	983.280
123.322	18.898	1292.624	981.633
124.337	18.732	1291.838	980.000
125.352	18.809	1290.420	979.278
126.366	18.725	1289.587	978.077
127.381	18.842	1288.137	977.557
128.395	18.807	1287.446	976.748
129.410	18.843	1287.021	976.547
130.424	19.052	1285.756	976.686
131.439	19.173	1285.338	976.965
132.454	19.195	1284.601	976.446
133.468	19.252	1283.995	976.224
134.483	19.278	1283.304	975.755
135.497	19.296	1282.000	974.780
136.512	19.314	1280.931	973.983
137.527	19.244	1279.971	972.772
138.541	19.408	1278.304	972.343
139.556	19.406	1277.180	971.393
140.570	19.559	1276.336	971.524
141.585	19.718	1275.144	971.427
142.600	19.831	1274.153	971.216
143.614	19.917	1273.344	970.996
144.629	19.875	1272.904	970.344
145.643	19.888	1271.264	969.080
146.658	19.802	1269.577	967.224
147.673	19.511	1268.805	964.927
148.687	19.511	1267.269	963.670
149.702	19.348	1265.570	961.387
150.716	19.261	1264.433	959.955
151.731	19.259	1263.511	959.155
152.746	19.352	1262.298	958.666
153.760	19.506	1261.153	958.570
154.775	19.408	1260.518	957.455
155.789	19.506	1259.601	957.222
156.804	19.767	1257.820	957.224
157.819	19.867	1257.469	957.429
158.833	19.866	1256.978	956.965
159.848	20.046	1255.850	957.015
160.862	19.954	1254.680	955.534
161.877	19.633	1253.069	952.451
162.892	19.318	1252.231	949.993
163.906	19.318	1250.921	948.916
164.921	19.302	1250.346	948.308
165.935	19.429	1249.538	948.307
166.950	19.523	1248.934	948.286
167.964	19.607	1247.984	947.938
168.979	19.567	1246.792	946.733
169.994	19.513	1246.115	945.837
171.008	19.539	1245.647	945.539
172.023	19.701	1245.100	945.926
173.037	19.799	1244.887	946.221
174.052	19.719	1244.024	945.040
175.067	19.544	1242.231	942.640
176.081	19.264	1241.524	940.493
177.096	19.278	1240.339	939.589
178.110	19.400	1239.152	939.267
179.125	19.396	1237.980	938.276
180.140	19.593	1236.867	938.418
181.154	19.857	1235.719	938.899
182.169	19.813	1235.183	938.169
183.183	19.829	1234.501	937.657
184.198	19.975	1232.790	937.062
185.213	19.941	1231.557	935.861
186.227	19.963	1230.840	935.354
187.242	19.997	1229.952	934.778
188.256	20.196	1229.080	935.103
189.271	20.029	1228.306	933.534
190.286	19.799	1227.162	931.342
191.300	19.461	1225.570	928.237
192.315	19.339	1224.388	926.599
193.329	19.503	1224.257	927.302
194.344	19.437	1223.617	926.379
195.359	19.650	1222.762	926.794
196.373	19.668	1222.550	926.649
197.388	19.791	1222.643	927.294
198.402	20.043	1222.168	928.201
199.417	20.194	1222.096	928.873
200.432	20.415	1221.018	929.158
201.446	20.433	1220.487	928.766
202.461	20.494	1220.071	928.693
203.475	20.427	1218.820	927.302
204.490	20.306	1217.123	925.284
205.504	19.965	1215.731	922.326
206.519	19.982	1214.077	921.079
207.534	19.903	1213.407	920.070
208.548	19.884	1212.638	919.309
209.563	19.885	1211.922	918.687
210.577	19.907	1210.847	917.906
211.592	19.976	1210.165	917.677
212.607	20.178	1209.873	918.441
213.621	20.196	1208.752	917.605
214.636	20.280	1207.511	917.026
215.650	20.255	1206.656	916.163
216.665	20.416	1205.840	916.315
217.680	20.486	1205.538	916.373
218.694	20.588	1204.080	915.720
219.709	20.460	1203.418	914.462
220.723	20.513	1202.556	914.002
221.738	20.360	1202.438	913.028
222.753	20.305	1200.964	911.541
223.767	20.365	1200.259	911.238
224.782	20.431	1200.419	911.629
225.796	20.655	1199.621	912.114
226.811	20.651	1198.689	911.306
227.826	20.329	1198.098	909.085
228.840	20.341	1197.124	908.332
229.855	20.170	1196.261	906.701
230.869	20.187	1195.510	906.142
231.884	20.117	1194.827	905.176
232.899	20.080	1193.456	903.866
233.913	20.067	1192.423	902.935
234.928	19.950	1192.381	902.213
235.942	19.827	1191.254	900.641
236.957	19.858	1190.773	900.357
237.972	19.861	1189.497	899.331
238.986	19.916	1188.753	898.976
240.001	19.916	1188.481	898.687
241.015	20.037	1187.385	898.408
242.030	20.066	1186.997	898.186
243.045	20.225	1186.150	898.287
244.059	20.232	1185.468	897.729
245.074	20.259	1184.771	897.263
246.088	20.362	1184.196	897.281
247.103	20.467	1183.263	897.034
248.117	20.600	1182.505	897.065
249.132	20.917	1181.944	898.194
250.147	20.983	1182.138	898.603
251.161	21.301	1180.782	899.130
252.176	21.251	1180.460	898.548
253.190	21.278	1179.994	898.252
254.205	21.479	1179.245	898.635
255.220	21.401	1179.261	898.169
256.234	21.379	1178.259	897.213
257.249	21.411	1177.362	896.615
258.263	21.135	1177.174	894.977
259.278	21.134	1176.624	894.472
260.293	21.318	1175.565	894.531
261.307	21.395	1175.379	894.705
262.322	21.550	1174.427	894.694
263.336	21.546	1173.640	893.992
264.351	21.515	1172.773	893.095
265.366	21.417	1172.765	892.514
266.380	21.451	1171.512	891.651
267.395	21.404	1170.732	890.743
268.409	21.168	1169.788	888.742
269.424	21.258	1169.068	888.575
270.439	21.206	1168.888	888.092
271.453	21.165	1167.332	886.624
272.468	20.979	1166.418	884.910
273.482	20.911	1165.854	884.056
274.497	20.808	1165.518	883.204
275.512	20.921	1164.917	883.242
276.526	21.003	1163.856	882.773
277.541	21.030	1163.033	882.210
278.555	21.195	1162.154	882.297
279.570	21.390	1161.952	883.049
280.585	21.467	1161.206	882.793
281.599	21.458	1160.230	881.929
282.614	21.285	1158.898	879.968
283.628	21.130	1157.850	878.315
284.643	21.168	1156.831	877.653
285.657	21.213	1155.761	876.990
286.672	21.191	1155.280	876.438
287.687	21.302	1154.246	876.132
288.701	21.139	1153.500	874.671
289.716	21.195	1153.118	874.584
290.730	21.264	1152.044	874.036
291.745	21.274	1151.190	873.361
292.760	21.253	1150.983	873.026
293.774	21.432	1150.174	873.227
294.789	21.498	1149.603	873.045
295.803	21.523	1148.923	872.578
296.818	21.269	1148.160	870.655
297.833	21.199	1147.381	869.639
298.847	21.258	1146.464	869.160
299.862	21.171	1145.692	868.062
300.876	21.201	1145.393	867.910
301.891	21.413	1144.748	868.398
302.906	21.568	1144.251	868.713
303.920	21.734	1143.800	869.119
304.935	21.789	1143.342	868.967
305.949	21.901	1142.825	869.051
306.964	21.785	1141.976	867.753
307.979	21.600	1141.463	866.373
308.993	21.658	1140.154	865.588
310.008	21.725	1139.393	865.265
311.022	21.768	1138.666	864.850
312.037	21.860	1137.740	864.522
313.052	21.509	1136.700	861.926
314.066	21.456	1135.419	860.618
315.081	21.184	1134.775	858.714
316.095	21.286	1133.735	858.353
317.110	21.190	1133.190	857.392
318.125	21.071	1132.809	856.444
319.139	21.278	1131.572	856.452
320.154	21.187	1131.299	855.719
321.168	21.274	1130.419	855.406
322.183	21.339	1129.823	855.199
323.197	21.160	1129.687	854.141
324.212	21.380	1128.690	854.388
325.227	21.382	1128.779	854.391
326.241	21.520	1127.400	853.946
327.256	21.357	1126.667	852.520
328.270	21.382	1125.323	851.548
329.285	21.291	1124.946	850.746
330.300	21.210	1124.137	849.664
331.314	21.395	1122.762	849.446
332.329	21.416	1121.928	848.841
333.343	21.421	1121.625	848.562
334.358	21.599	1120.476	848.482
335.373	21.628	1120.468	848.543
336.387	21.740	1119.475	848.257
337.402	21.705	1119.040	847.681
338.416	21.841	1118.147	847.587
339.431	21.959	1117.581	847.654
340.446	21.965	1117.211	847.327
341.460	22.266	1116.483	848.150
342.475	22.251	1115.357	847.151
343.489	22.345	1114.829	847.125
344.504	22.415	1114.080	846.816
345.519	22.329	1113.481	845.877
346.533	22.417	1112.515	845.490
347.548	22.518	1112.020	845.525
348.562	22.515	1110.675	844.412
349.577	22.021	1110.083	841.518
350.592	21.861	1109.096	839.929
351.606	21.890	1107.825	839.031
352.621	21.779	1107.576	838.239
353.635	21.560	1106.623	836.397
354.650	21.688	1105.721	836.253
355.665	21.814	1105.360	836.504
356.679	21.998	1104.650	836.769
357.694	21.912	1104.080	835.855
358.708	22.171	1103.502	836.578
359.723	21.948	1103.395	835.362
360.738	22.100	1102.477	835.317
361.752	22.005	1101.670	834.178
362.767	21.963	1101.441	833.731
363.781	22.216	1100.416	834.081
364.796	22.238	1100.535	834.203
365.810	22.344	1100.045	834.258
366.825	22.559	1099.184	834.552
367.840	22.731	1099.087	835.220
368.854	22.754	1098.384	834.721
369.869	22.780	1097.424	834.037
370.883	22.650	1096.412	832.582
371.898	22.485	1095.794	831.263
372.913	22.514	1094.810	830.578
373.927	22.463	1094.639	830.134
374.942	22.632	1094.562	830.796
375.956	22.612	1093.743	830.007
376.971	22.547	1093.107	829.149
377.986	22.642	1092.329	828.928
379.000	22.743	1092.382	829.371
380.015	22.919	1091.598	829.530
381.029	22.965	1091.096	829.288
382.044	22.981	1090.102	828.534
383.059	22.757	1089.300	826.806
384.073	22.870	1088.478	826.637
385.088	22.839	1087.751	825.865
386.102	22.856	1086.671	825.054
387.117	22.719	1085.083	823.134
388.132	22.500	1084.207	821.375
389.146	22.473	1083.467	820.617
390.161	22.443	1082.860	819.944
391.175	22.509	1081.958	819.496
392.190	22.543	1081.851	819.500
393.205	22.788	1080.992	819.918
394.219	22.737	1080.143	818.965
395.234	22.545	1079.336	817.388
396.248	22.469	1078.167	816.079
397.263	22.550	1076.861	815.391
398.278	22.336	1076.719	814.223
399.292	22.260	1075.609	812.962
400.307	22.299	1074.805	812.461
401.321	22.208	1074.186	811.500
402.336	22.224	1073.199	810.757
403.350	22.196	1072.748	810.218
404.365	22.350	1072.041	810.317
405.380	22.489	1071.407	810.406
406.394	22.441	1071.065	809.859
407.409	22.637	1070.086	809.946
408.423	22.881	1070.078	810.990
409.438	22.839	1069.346	810.168
410.453	23.096	1068.379	810.541
411.467	23.185	1067.718	810.375
412.482	23.090	1067.503	809.709
413.496	23.203	1066.551	809.430
414.511	23.182	1066.451	809.185
415.526	23.319	1065.965	809.374
416.540	23.315	1065.529	808.953
417.555	23.367	1064.864	808.611
418.569	23.331	1063.959	807.688
419.584	23.358	1063.194	807.159
420.599	23.127	1063.090	805.956
421.613	157.587	1405.305	1796.945
422.628	144.984	1455.136	1797.002
