DTS Sentinel unit serial number:	SN413079Multiplexer serial number:	ORYXHardware model number:	OX4-SRSoftware version number:	ORYX F/W v4.00 Oryx Data Collector v3.7.2.0data status	okinstallation	princeton_trtdifferential loss correction	single-endedforward channel	channel 2reverse channel	N/Adate	2019/09/19time	05:55:34forward acquisition time	60.00reverse acquisition time	0.00gamma	496.2192k internal	0.2350k external	0.2350temperature offset calibration	1.0015default loss term (dB/km)	0.3790temperature slope calibration	1.0000multiplexer offset coefficient	1.0000multiplexer slope coefficient	1.0000fibre end	0.00T internal ref (°C)	19.19T ext. ref 1 (°C)	0.58T ext. ref 2 (°C)	12.77length (m)	temperature (°C)	Stokes	anti-Stokes-747.200	-100.026	0.083	0.021
-746.185	-64.959	-0.301	0.121
-745.171	-170.367	0.331	0.012
-744.156	160.892	-0.078	0.108
-743.142	-104.609	0.052	-0.012
-742.127	800.000	-0.047	0.201
-741.112	44.413	0.093	-0.085
-740.098	-170.076	-0.217	-0.008
-739.083	481.484	-0.138	0.312
-738.069	133.048	-0.080	0.104
-737.054	-6.771	-0.249	0.169
-736.039	-47.574	-0.333	0.161
-735.025	-24.879	0.166	0.098
-734.010	-127.345	-0.219	0.032
-732.996	-29.552	-0.055	0.032
-731.981	93.270	0.167	0.189
-730.966	54.600	0.186	0.179
-729.952	42.823	-0.148	0.134
-728.937	-115.071	-0.140	0.026
-727.923	-119.716	-0.243	-0.042
-726.908	-200.000	0.013	-0.285
-725.894	-200.000	-0.029	-0.497
-724.879	-39.150	-0.137	-0.072
-723.864	-70.768	-0.096	0.036
-722.850	36.934	-0.145	0.128
-721.835	-136.350	0.495	0.058
-720.821	-118.869	-0.214	-0.037
-719.806	-200.000	-0.009	0.091
-718.791	-197.497	0.259	-0.002
-717.777	-153.408	-0.283	0.020
-716.762	-112.892	-0.384	0.076
-715.748	-200.000	0.020	-0.163
-714.733	-134.905	-0.278	0.034
-713.718	415.891	0.060	0.127
-712.704	220.550	0.153	-0.245
-711.689	-15.880	-0.336	-0.213
-710.675	-174.093	0.167	-0.005
-709.660	124.136	0.049	0.062
-708.645	218.541	0.249	0.397
-707.631	80.733	-0.188	0.202
-706.616	-200.000	0.014	0.274
-705.602	-200.000	-0.026	-0.269
-704.587	381.260	0.103	-0.210
-703.572	13.858	0.337	0.261
-702.558	-63.953	0.311	-0.127
-701.543	-200.000	-0.002	-0.131
-700.529	-161.601	-0.573	0.029
-699.514	-73.270	0.198	-0.072
-698.499	443.738	0.069	0.151
-697.485	177.198	-0.242	-0.351
-696.470	800.000	-0.082	-0.269
-695.456	61.124	-0.132	0.130
-694.441	-64.840	-0.079	-0.032
-693.426	85.828	0.052	-0.057
-692.412	800.000	0.042	-0.122
-691.397	394.899	-0.202	-0.420
-690.383	35.480	-0.120	-0.105
-689.368	-200.000	-0.001	0.331
-688.354	-62.827	0.084	0.034
-687.339	53.457	0.165	0.158
-686.324	-200.000	-0.058	-0.272
-685.310	-74.592	-0.338	0.121
-684.295	800.000	-0.077	0.309
-683.281	137.752	0.055	0.072
-682.266	-200.000	0.025	0.166
-681.251	-20.817	-0.352	-0.215
-680.237	-2.272	0.052	-0.036
-679.222	-46.930	-0.099	-0.048
-678.208	126.057	-0.181	-0.228
-677.193	-110.050	-0.252	0.052
-676.178	-11.787	0.106	-0.069
-675.164	-200.000	-0.016	-0.116
-674.149	-138.296	-0.393	-0.043
-673.135	15.260	-0.222	-0.173
-672.120	-0.156	0.239	0.170
-671.105	22.018	-0.193	0.156
-670.091	59.407	-0.075	0.073
-669.076	345.699	0.048	0.094
-668.062	-5.650	0.313	-0.214
-667.047	-200.000	0.021	0.140
-666.032	-103.577	0.218	-0.051
-665.018	38.350	0.212	0.188
-664.003	70.341	-0.207	0.213
-662.989	-200.000	-0.001	0.101
-661.974	-200.000	-0.038	-0.322
-660.959	-200.000	-0.018	-0.303
-659.945	-200.000	-0.013	0.162
-658.930	-76.248	-0.071	0.025
-657.916	-17.491	-0.427	0.267
-656.901	-131.820	0.284	0.037
-655.886	-114.096	-0.442	0.085
-654.872	450.200	-0.101	-0.221
-653.857	-81.348	0.304	0.100
-652.843	-82.639	0.025	0.008
-651.828	-200.000	0.027	0.228
-650.814	-200.000	-0.008	-0.101
-649.799	-195.999	-0.532	0.004
-648.784	-2.572	-0.189	0.132
-647.770	-84.138	0.218	-0.069
-646.755	-151.324	-0.254	0.019
-645.741	-110.475	0.217	0.045
-644.726	-31.863	0.226	-0.126
-643.711	66.726	-0.088	-0.089
-642.697	-39.762	-0.195	0.101
-641.682	1.854	0.102	-0.073
-640.668	145.942	-0.079	-0.106
-639.653	-200.000	0.000	0.004
-638.638	-11.493	-0.352	-0.230
-637.624	280.002	0.103	0.183
-636.609	-120.379	0.233	-0.039
-635.595	384.959	0.032	-0.066
-634.580	-22.320	0.226	-0.136
-633.565	114.151	-0.227	-0.274
-632.551	-100.606	-0.252	0.062
-631.536	800.000	0.081	-0.295
-630.522	123.947	-0.232	0.289
-629.507	-88.793	-0.245	-0.072
-628.492	-38.545	-0.073	0.038
-627.478	408.995	-0.055	0.116
-626.463	-71.596	0.060	0.022
-625.449	305.087	0.039	-0.071
-624.434	-200.000	-0.031	0.341
-623.419	-115.615	-0.092	-0.017
-622.405	-105.513	0.144	-0.032
-621.390	800.000	-0.027	0.078
-620.376	-119.191	-0.447	-0.078
-619.361	-145.742	0.489	0.043
-618.346	1.501	0.072	0.052
-617.332	-80.220	-0.232	0.077
-616.317	-72.988	-0.085	0.031
-615.303	-104.873	0.237	0.054
-614.288	243.617	-0.010	-0.017
-613.273	-8.946	-0.174	-0.116
-612.259	214.373	0.117	-0.184
-611.244	203.072	0.160	0.246
-610.230	165.546	-0.234	-0.328
-609.215	-112.417	-0.154	-0.031
-608.201	116.878	0.087	-0.106
-607.186	800.000	0.042	-0.114
-606.171	68.378	0.253	-0.257
-605.157	458.734	0.097	-0.214
-604.142	178.775	0.103	-0.149
-603.128	267.107	-0.034	0.058
-602.113	71.220	0.291	0.300
-601.098	169.616	0.100	-0.142
-600.084	-23.227	0.176	0.105
-599.069	-13.330	-0.180	0.116
-598.055	134.521	0.237	0.306
-597.040	147.116	0.111	-0.149
-596.025	675.909	-0.127	-0.327
-595.011	119.543	0.096	0.118
-593.996	800.000	-0.053	0.178
-592.982	744.630	0.071	-0.190
-591.967	738.650	-0.115	0.306
-590.952	800.000	-0.082	0.232
-589.938	117.847	-0.181	-0.221
-588.923	636.934	-0.025	0.063
-587.909	800.000	0.023	0.065
-586.894	80.629	-0.286	0.306
-585.879	72.588	-0.169	0.174
-584.865	-121.140	-0.266	-0.044
-583.850	30.919	0.250	-0.213
-582.836	562.230	-0.094	-0.226
-581.821	-99.880	0.242	0.060
-580.806	275.263	0.148	0.261
-579.792	314.182	-0.119	0.223
-578.777	125.348	0.121	-0.151
-577.763	679.018	-0.103	0.266
-576.748	44.945	-0.266	-0.243
-575.733	-200.000	0.017	0.085
-574.719	149.164	-0.189	0.253
-573.704	-49.287	0.125	0.059
-572.690	105.090	-0.134	-0.157
-571.675	-26.181	0.160	-0.093
-570.661	-200.000	0.028	0.256
-569.646	12.317	-0.342	0.261
-568.631	54.818	0.182	-0.174
-567.617	5.925	0.147	0.108
-566.602	92.091	-0.059	-0.065
-565.588	90.177	-0.033	0.037
-564.573	535.150	0.118	0.277
-563.558	-18.615	0.170	0.105
-562.544	-200.000	-0.016	-0.078
-561.529	-16.943	-0.237	-0.148
-560.515	-88.571	0.226	-0.067
-559.500	10.261	-0.130	0.098
-558.485	-50.693	0.119	-0.055
-557.471	-71.134	-0.407	-0.152
-556.456	125.953	0.119	-0.149
-555.442	-50.569	-0.267	0.125
-554.427	-200.000	-0.048	0.300
-553.412	-106.282	0.140	0.031
-552.398	126.186	-0.118	0.148
-551.383	-26.552	0.105	-0.061
-550.369	19.402	-0.165	-0.131
-549.354	9.357	-0.085	0.064
-548.339	-200.000	-0.008	0.034
-547.325	143.043	-0.100	0.131
-546.310	-84.890	0.386	-0.120
-545.296	-200.000	-0.003	0.023
-544.281	-178.738	-0.241	-0.005
-543.266	51.653	0.313	0.295
-542.252	457.856	-0.065	0.144
-541.237	-58.869	0.118	-0.051
-540.223	-21.733	-0.190	0.115
-539.208	54.689	-0.055	0.052
-538.193	-100.724	0.301	0.074
-537.179	238.426	-0.054	-0.089
-536.164	800.000	0.143	0.483
-535.150	-10.072	0.357	0.235
-534.135	220.516	-0.147	-0.234
-533.121	4.948	-0.239	-0.174
-532.106	473.525	0.067	-0.150
-531.091	427.441	-0.218	0.465
-530.077	-107.247	-0.436	0.095
-529.062	568.577	0.029	-0.069
-528.048	8.986	-0.128	-0.096
-527.033	638.584	0.111	-0.278
-526.018	5.908	-0.177	0.129
-525.004	-67.850	0.147	0.057
-523.989	-200.000	-0.015	-0.138
-522.975	-38.125	-0.312	-0.164
-521.960	-200.000	-0.015	-0.255
-520.945	-200.000	0.049	-0.292
-519.931	151.426	0.058	-0.078
-518.916	800.000	0.043	-0.180
-517.902	-200.000	-0.044	-0.382
-516.887	253.955	0.176	-0.297
-515.872	372.314	-0.063	-0.127
-514.858	17.844	-0.269	-0.212
-513.843	-54.902	0.098	-0.044
-512.829	181.815	0.073	-0.106
-511.814	219.418	-0.198	-0.313
-510.799	-120.618	-0.248	0.042
-509.785	541.317	-0.129	-0.304
-508.770	157.458	-0.122	-0.167
-507.756	-77.878	0.268	-0.091
-506.741	-56.929	0.188	0.082
-505.726	44.157	0.190	-0.172
-504.712	-113.057	0.220	-0.043
-503.697	397.326	0.142	0.293
-502.683	-46.401	0.364	-0.177
-501.668	-167.286	-0.319	-0.013
-500.653	-200.000	-0.040	0.411
-499.639	331.726	-0.086	0.163
-498.624	-200.000	-0.045	-0.288
-497.610	224.219	-0.033	-0.052
-496.595	100.270	-0.170	-0.195
-495.581	31.415	-0.132	0.112
-494.566	-200.000	-0.067	-0.376
-493.551	-45.211	0.089	0.044
-492.537	-25.916	0.239	-0.139
-491.522	113.891	-0.185	0.222
-490.508	800.000	0.072	0.264
-489.493	56.819	0.150	0.144
-488.478	7.711	-0.180	-0.133
-487.464	-52.957	0.204	-0.093
-486.449	-3.333	0.170	-0.117
-485.435	800.000	0.036	0.104
-484.420	-200.000	0.008	0.248
-483.405	94.028	0.082	0.092
-482.391	-82.773	-0.232	-0.074
-481.376	-200.000	-0.027	0.192
-480.362	-200.000	0.000	-0.059
-479.347	-127.075	0.336	0.049
-478.332	-31.288	-0.044	0.025
-477.318	435.383	0.025	-0.053
-476.303	62.201	0.103	0.101
-475.289	-200.000	-0.049	0.239
-474.274	-90.773	-0.185	-0.053
-473.259	-86.346	0.133	-0.040
-472.245	-121.080	0.146	-0.024
-471.230	-200.000	0.082	0.395
-470.216	-200.000	0.035	-0.192
-469.201	-72.486	0.196	0.072
-468.186	-109.357	-0.102	-0.021
-467.172	800.000	0.046	0.183
-466.157	50.436	0.261	0.244
-465.143	-14.610	-0.167	-0.106
-464.128	57.810	-0.173	-0.167
-463.113	-55.015	0.120	-0.053
-462.099	800.000	-0.037	-0.110
-461.084	-200.000	-0.009	0.158
-460.070	800.000	-0.007	-0.020
-459.055	-103.937	0.179	-0.041
-458.040	-200.000	-0.046	0.199
-457.026	277.134	0.058	0.102
-456.011	708.898	0.100	0.261
-454.997	56.125	0.173	0.166
-453.982	2.376	-0.353	-0.252
-452.968	13.809	-0.040	-0.031
-451.953	-53.450	-0.185	-0.083
-450.938	-33.174	-0.208	0.114
-449.924	-77.750	0.109	-0.037
-448.909	-36.093	-0.168	-0.090
-447.895	33.785	0.169	0.145
-446.880	40.764	0.194	0.172
-445.865	800.000	0.045	0.163
-444.851	-200.000	0.052	0.251
-443.836	43.674	-0.291	-0.262
-442.822	-125.553	0.395	0.059
-441.807	1.848	0.136	-0.097
-440.792	800.000	0.046	-0.197
-439.778	33.949	0.160	0.137
-438.763	136.568	-0.407	-0.524
-437.749	800.000	-0.033	-0.090
-436.734	98.915	0.148	0.168
-435.719	-136.725	-0.249	-0.028
-434.705	-200.000	-0.043	0.212
-433.690	-200.000	-0.027	-0.161
-432.676	152.356	-0.124	-0.167
-431.661	-90.939	0.162	-0.046
-430.646	38.648	0.158	0.139
-429.632	273.588	0.022	0.039
-428.617	-200.000	0.020	0.192
-427.603	105.769	-0.083	-0.097
-426.588	-200.000	0.026	-0.472
-425.573	296.313	0.061	0.110
-424.559	-83.097	-0.131	-0.041
-423.544	66.938	-0.269	-0.270
-422.530	-15.863	0.261	0.164
-421.515	-63.692	-0.521	-0.211
-420.500	-95.309	0.204	0.054
-419.486	-200.000	0.035	0.210
-418.471	129.680	0.143	-0.180
-417.457	-162.579	-0.253	-0.012
-416.442	580.170	0.037	-0.089
-415.428	-59.525	-0.141	-0.060
-414.413	-200.000	-0.053	0.245
-413.398	800.000	0.067	0.231
-412.384	-103.063	-0.350	0.082
-411.369	-200.000	0.025	-0.184
-410.355	83.609	-0.084	-0.090
-409.340	-5.849	-0.410	-0.277
-408.325	-200.000	-0.040	-0.268
-407.311	170.015	0.181	0.256
-406.296	-200.000	0.001	0.062
-405.282	-200.000	-0.047	-0.285
-404.267	85.774	-0.070	-0.075
-403.252	-88.298	0.088	0.026
-402.238	-50.177	0.129	0.060
-401.223	-200.000	0.011	0.246
-400.209	-140.938	0.299	-0.030
-399.194	276.066	0.062	0.108
-398.179	-96.035	0.271	-0.071
-397.165	800.000	0.085	-0.352
-396.150	-200.000	-0.054	0.251
-395.136	76.374	-0.293	-0.305
-394.121	-24.401	-0.101	0.059
-393.106	-56.971	-0.287	0.125
-392.092	-200.000	-0.041	-0.342
-391.077	-18.305	-0.361	-0.222
-390.063	800.000	-0.041	-0.161
-389.048	88.112	0.195	0.213
-388.033	-166.003	-0.195	0.008
-387.019	-7.368	-0.204	0.136
-386.004	800.000	0.015	-0.048
-384.990	-200.000	0.020	-0.271
-383.975	-18.941	0.338	-0.207
-382.960	-110.740	0.196	0.040
-381.946	394.266	0.109	-0.223
-380.931	-100.039	-0.270	0.066
-379.917	-162.762	0.172	-0.008
-378.902	-142.732	-0.258	0.025
-377.888	-41.366	0.123	0.062
-376.873	-95.769	-0.168	0.044
-375.858	-7.554	0.157	0.105
-374.844	73.896	-0.113	-0.116
-373.829	-165.206	0.317	-0.014
-372.815	20.915	-0.238	0.189
-371.800	161.673	0.048	-0.066
-370.785	-47.911	0.415	0.198
-369.771	74.464	0.123	0.127
-368.756	-125.089	0.421	-0.064
-367.742	56.268	0.061	-0.058
-366.727	522.207	0.050	0.115
-365.712	-44.181	0.139	-0.069
-364.698	-13.460	-0.122	0.078
-363.683	90.562	0.242	-0.266
-362.669	212.379	-0.163	0.253
-361.654	-25.768	-0.160	-0.093
-360.639	169.888	0.095	0.133
-359.625	47.024	-0.255	0.233
-358.610	68.064	-0.202	0.203
-357.596	64.060	-0.149	-0.147
-356.581	-200.000	-0.060	0.356
-355.566	-71.432	0.209	-0.077
-354.552	-84.026	-0.043	-0.013
-353.537	-62.923	-0.150	0.061
-352.523	116.336	0.130	0.156
-351.508	-148.854	0.151	0.012
-350.493	292.491	0.081	-0.146
-349.479	38.578	-0.247	0.217
-348.464	-93.499	-0.111	0.030
-347.450	-24.501	-0.193	0.113
-346.435	-200.000	0.009	0.137
-345.420	-200.000	0.012	-0.071
-344.406	800.000	0.060	-0.254
-343.391	-68.258	-0.314	0.120
-342.377	13.153	-0.144	-0.110
-341.362	2.112	-0.112	0.080
-340.348	-153.742	0.233	-0.016
-339.333	300.169	-0.115	0.208
-338.318	80.189	0.127	-0.134
-337.304	28.525	-0.178	-0.148
-336.289	-144.520	0.112	-0.010
-335.275	302.351	0.081	0.147
-334.260	75.703	-0.068	0.071
-333.245	257.863	0.077	0.130
-332.231	-99.244	0.399	0.099
-331.216	-200.000	0.008	-0.188
-330.202	77.868	0.053	-0.055
-329.187	-125.969	0.154	-0.023
-328.172	-125.170	0.361	-0.054
-327.158	-165.866	0.108	-0.005
-326.143	8.290	0.101	0.075
-325.129	-14.824	-0.330	-0.208
-324.114	-25.756	-0.172	0.099
-323.099	-138.106	0.144	0.016
-322.085	-159.175	-0.226	0.012
-321.070	-3.396	-0.246	0.168
-320.056	233.530	0.275	0.444
-319.041	-80.990	0.397	-0.129
-318.026	800.000	0.053	0.164
-317.012	-200.000	0.038	-0.203
-315.997	-200.000	-0.022	0.191
-314.983	-200.000	0.032	0.279
-313.968	-200.000	-0.012	-0.105
-312.953	200.501	0.101	-0.153
-311.939	267.225	0.162	-0.277
-310.924	-28.181	-0.117	0.067
-309.910	-158.130	0.409	-0.024
-308.895	227.675	0.096	0.152
-307.880	-200.000	-0.031	-0.253
-306.866	-54.371	0.335	-0.149
-305.851	-106.526	0.087	-0.019
-304.837	800.000	0.038	0.135
-303.822	-124.035	-0.468	0.072
-302.807	-57.136	0.234	0.101
-301.793	2.200	0.100	0.071
-300.778	32.265	-0.243	0.206
-299.764	-92.990	0.338	-0.093
-298.749	-36.796	0.147	-0.077
-297.735	-110.014	0.072	0.015
-296.720	302.428	-0.090	0.164
-295.705	-200.000	0.002	0.194
-294.691	-200.000	-0.115	0.000
-293.676	-200.000	-0.053	-0.263
-292.662	-114.424	0.260	0.049
-291.647	49.393	-0.097	0.089
-290.632	-200.000	0.028	-0.192
-289.618	-200.000	0.023	0.166
-288.603	-200.000	-0.032	0.147
-287.589	-154.408	-0.252	-0.017
-286.574	329.222	0.160	0.301
-285.559	21.833	-0.148	-0.118
-284.545	161.831	0.171	-0.235
-283.530	-122.639	-0.276	0.044
-282.516	-200.000	-0.021	0.216
-281.501	-200.000	-0.019	0.223
-280.486	186.139	-0.416	0.607
-279.472	121.521	0.029	0.036
-278.457	-101.001	0.334	-0.080
-277.443	-110.539	-0.023	-0.005
-276.428	475.244	-0.117	0.258
-275.413	-200.000	-0.008	0.268
-274.399	52.226	0.041	-0.039
-273.384	263.742	0.278	-0.474
-272.370	800.000	0.098	-0.287
-271.355	-172.303	0.141	-0.004
-270.340	67.248	-0.017	-0.017
-269.326	-42.244	-0.124	-0.062
-268.311	18.886	0.081	0.064
-267.297	-148.292	-0.046	-0.004
-266.282	-132.227	-0.151	0.019
-265.267	-200.000	-0.058	-0.324
-264.253	585.130	-0.241	-0.579
-263.238	-200.000	0.023	-0.254
-262.224	-200.000	-0.062	-0.323
-261.209	-114.626	0.135	0.025
-260.195	309.854	0.158	0.290
-259.180	-65.348	0.116	-0.046
-258.165	169.072	-0.212	0.296
-257.151	5.692	-0.148	-0.107
-256.136	-21.894	0.182	-0.108
-255.122	182.125	-0.182	0.263
-254.107	-112.850	-0.243	0.047
-253.092	-167.108	0.442	-0.018
-252.078	414.320	0.207	-0.431
-251.063	-52.846	-0.126	0.057
-250.049	-200.000	0.018	0.102
-249.034	-68.400	0.258	-0.098
-248.019	2.839	0.106	0.076
-247.005	-125.897	0.175	-0.026
-245.990	-47.190	-0.461	-0.220
-244.976	-200.000	0.093	-0.517
-243.961	-116.743	-0.563	-0.101
-242.946	-3.129	-0.186	0.127
-241.932	272.811	-0.151	-0.260
-240.917	-67.960	-0.303	-0.116
-239.903	-50.952	0.379	-0.174
-238.888	-200.000	-0.027	-0.195
-237.873	146.084	0.215	0.283
-236.859	-200.000	-0.005	-0.218
-235.844	170.700	-0.120	-0.168
-234.830	-22.383	-0.085	-0.050
-233.815	-200.000	-0.002	-0.337
-232.800	-74.993	0.192	0.067
-231.786	15.528	-0.321	-0.247
-230.771	13.262	0.072	-0.055
-229.757	800.000	0.120	0.440
-228.742	-200.000	0.009	0.131
-227.727	-4.908	-0.147	-0.099
-226.713	-42.583	0.276	0.137
-225.698	123.844	0.132	0.162
-224.684	-81.175	0.417	0.135
-223.669	79.979	0.095	-0.100
-222.655	273.059	0.203	0.350
-221.640	-200.000	-0.010	-0.191
-220.625	-200.000	0.117	-0.531
-219.611	-200.000	0.075	-0.334
-218.596	426.337	0.088	0.185
-217.582	-133.235	-0.239	0.030
-216.567	-200.000	-0.001	0.261
-215.552	-32.811	-0.232	-0.126
-214.538	-124.172	-0.172	-0.026
-213.523	-80.087	-0.358	0.117
-212.509	-144.355	0.202	-0.018
-211.494	800.000	-0.070	0.232
-210.479	-150.438	-0.034	0.003
-209.465	-41.695	-0.067	-0.034
-208.450	21.268	0.122	0.097
-207.436	378.577	-0.080	-0.160
-206.421	-77.163	-0.261	0.089
-205.406	-7.015	0.252	0.167
-204.392	-200.000	0.012	0.267
-203.377	-200.000	0.007	0.135
-202.363	-76.625	0.085	-0.029
-201.348	-0.581	-0.259	-0.179
-200.333	458.383	0.036	0.078
-199.319	123.917	0.146	0.179
-198.304	-200.000	-0.216	0.000
-197.290	34.428	-0.063	-0.053
-196.275	-200.000	-0.016	-0.125
-195.260	-2.525	0.179	0.122
-194.246	231.311	0.196	0.313
-193.231	93.502	-0.177	0.196
-192.217	29.662	0.052	0.043
-191.202	246.642	-0.090	-0.149
-190.187	-200.000	0.024	0.145
-189.173	156.358	0.188	-0.253
-188.158	-170.690	-0.155	0.005
-187.144	-28.164	-0.094	0.053
-186.129	-81.150	0.116	-0.037
-185.114	-72.509	-0.169	0.061
-184.100	-75.173	0.108	0.038
-183.085	-69.057	0.118	-0.044
-182.071	10.690	0.227	0.169
-181.056	800.000	-0.028	-0.113
-180.042	47.651	-0.231	0.210
-179.027	-200.000	0.050	0.380
-178.012	43.757	-0.103	0.092
-176.998	-200.000	0.008	-0.079
-175.983	-200.000	-0.002	-0.030
-174.969	22.379	0.229	0.183
-173.954	-95.241	0.251	0.066
-172.939	277.842	0.025	-0.044
-171.925	-200.000	-0.005	-0.239
-170.910	23.930	0.205	-0.165
-169.896	-128.762	0.226	-0.031
-168.881	30.610	-0.210	0.175
-167.866	41.500	0.153	-0.135
-166.852	-93.242	0.203	0.055
-165.837	594.351	-0.160	-0.385
-164.823	-116.245	-0.161	-0.029
-163.808	75.735	0.244	0.251
-162.793	53.088	-0.250	-0.233
-161.779	-92.823	0.054	-0.015
-160.764	44.459	-0.214	0.192
-159.750	-93.925	0.080	-0.021
-158.735	348.100	0.055	-0.105
-157.720	-148.330	0.100	0.008
-156.706	-26.622	-0.137	0.078
-155.691	47.683	0.133	-0.121
-154.677	101.550	-0.061	-0.069
-153.662	-77.191	-0.319	-0.108
-152.647	800.000	0.122	0.350
-151.633	354.941	0.077	0.148
-150.618	-154.347	0.041	0.003
-149.604	114.747	-0.092	0.110
-148.589	168.047	0.189	-0.262
-147.574	-6.804	0.042	-0.028
-146.560	42.942	0.192	0.171
-145.545	-33.610	-0.311	0.168
-144.531	-78.791	-0.272	-0.090
-143.516	9.712	-0.106	-0.078
-142.502	-200.000	0.024	-0.150
-141.487	-79.557	0.139	-0.046
-140.472	-104.243	0.398	0.090
-139.458	-91.228	0.077	-0.022
-138.443	83.758	0.156	-0.166
-137.429	-200.000	0.004	0.111
-136.414	-1.359	-0.155	-0.106
-135.399	-163.140	-0.414	0.019
-134.385	800.000	0.057	0.226
-133.370	31.406	-0.104	0.087
-132.356	-107.813	0.296	0.063
-131.341	-114.516	-0.136	-0.025
-130.326	-200.000	-0.017	0.384
-129.312	800.000	-0.035	0.133
-128.297	-200.000	0.054	0.257
-127.283	524.395	0.102	0.234
-126.268	104.524	0.216	-0.248
-125.253	-200.000	0.014	-0.343
-124.239	-7.248	0.077	-0.051
-123.224	-100.142	-0.371	-0.090
-122.210	169.814	0.141	-0.196
-121.195	-200.000	-0.009	-0.069
-120.180	-59.428	-0.225	-0.094
-119.166	12.931	-0.193	0.145
-118.151	-37.399	-0.212	0.110
-117.137	800.000	0.057	0.175
-116.122	2.523	-0.017	0.012
-115.107	-92.082	-0.105	0.029
-114.093	-93.502	-0.433	-0.117
-113.078	-106.988	0.367	-0.079
-112.064	-21.614	0.180	0.107
-111.049	-200.000	-0.031	0.433
-110.034	68.352	0.080	-0.080
-109.020	20.913	-0.112	-0.088
-108.005	140.226	0.030	-0.039
-106.991	29.173	0.100	-0.083
-105.976	49.937	-0.063	0.058
-104.962	111.724	0.099	0.116
-103.947	19.377	-0.309	0.241
-102.932	4.605	-0.163	-0.117
-101.918	-200.000	0.062	-0.380
-100.903	205.364	0.105	-0.159
-99.889	1.815	-0.156	0.110
-98.874	-159.817	0.317	0.017
-97.859	137.471	0.130	0.165
-96.845	9.713	-0.164	-0.121
-95.830	-14.456	0.181	-0.113
-94.816	-44.878	0.286	0.139
-93.801	54.947	-0.206	0.193
-92.786	192.690	-0.118	-0.173
-91.772	-200.000	-0.037	-0.363
-90.757	800.000	-0.036	-0.115
-89.743	327.465	0.102	0.190
-88.728	380.232	-0.145	0.289
-87.713	161.165	0.253	0.344
-86.699	-200.000	-0.021	0.292
-85.684	334.093	0.134	-0.253
-84.670	-173.071	-0.192	-0.006
-83.655	-79.768	0.326	0.107
-82.640	800.000	0.076	0.205
-81.626	62.143	0.064	0.062
-80.611	-200.000	0.004	-0.030
-79.597	-200.000	-0.004	-0.024
-78.582	-160.571	-0.174	-0.009
-77.567	409.167	0.060	0.124
-76.553	-8.970	0.160	0.104
-75.538	272.342	-0.144	0.246
-74.524	560.764	0.047	0.111
-73.509	-83.053	-0.222	-0.069
-72.494	152.050	0.113	0.150
-71.480	-91.545	0.215	0.060
-70.465	-200.000	0.102	0.522
-69.451	800.000	0.038	-0.140
-68.436	-67.151	0.120	0.046
-67.422	399.804	-0.077	0.156
-66.407	511.448	0.179	0.404
-65.392	-0.795	0.171	0.118
-64.378	-200.000	-0.056	0.248
-63.363	800.000	-0.049	-0.171
-62.349	195.401	-0.124	0.183
-61.334	67.405	-1.190	-1.180
-60.319	62.196	0.959	0.930
-59.305	247.288	-0.857	-1.407
-58.290	139.768	1.370	1.754
-57.276	800.000	0.572	1.762
-56.261	-200.000	135.089	625.824
-55.246	348.762	1631.771	3127.873
-54.232	137.858	2778.748	3536.787
-53.217	77.211	2299.526	2374.759
-52.203	27.435	1905.851	1556.669
-51.188	21.939	1701.818	1347.872
-50.173	20.225	1665.569	1306.212
-49.159	41.253	1738.637	1526.769
-48.144	37.572	1747.406	1505.987
-47.130	21.536	1699.828	1342.992
-46.115	19.365	1684.055	1313.955
-45.100	19.199	1678.762	1308.507
-44.086	19.103	1676.141	1305.689
-43.071	19.164	1673.792	1304.269
-42.057	19.101	1671.607	1302.033
-41.042	19.101	1669.758	1300.544
-40.027	19.014	1667.669	1298.210
-39.013	19.032	1665.557	1296.650
-37.998	19.066	1664.171	1295.777
-36.984	19.052	1663.342	1294.971
-35.969	19.133	1662.021	1294.501
-34.954	19.199	1659.996	1293.371
-33.940	19.151	1658.584	1291.854
-32.925	19.050	1657.132	1289.914
-31.911	19.106	1655.629	1289.116
-30.896	19.168	1653.850	1288.143
-29.881	19.167	1652.334	1286.905
-28.867	19.137	1650.492	1285.195
-27.852	19.105	1649.350	1284.012
-26.838	19.194	1647.509	1283.195
-25.823	19.201	1646.261	1282.220
-24.809	19.170	1645.563	1281.400
-23.794	19.259	1643.597	1280.474
-22.779	19.229	1642.208	1279.119
-21.765	19.227	1640.312	1277.583
-20.750	19.178	1639.163	1276.269
-19.736	19.296	1637.559	1275.845
-18.721	19.306	1636.454	1275.006
-17.706	19.232	1634.951	1273.236
-16.692	19.245	1633.469	1272.129
-15.677	19.194	1631.992	1270.555
-14.663	19.246	1630.870	1270.010
-13.648	19.294	1628.505	1268.476
-12.633	19.319	1627.334	1267.692
-11.619	19.218	1625.794	1265.702
-10.604	19.263	1624.606	1265.061
-9.590	19.215	1623.352	1263.681
-8.575	19.265	1621.687	1262.700
-7.560	19.221	1621.010	1261.800
-6.546	19.215	1620.202	1261.074
-5.531	19.243	1619.190	1260.446
-4.517	19.191	1618.017	1259.100
-3.502	19.242	1616.523	1258.261
-2.487	19.265	1615.048	1257.228
-1.473	18.790	1602.494	1243.971
-0.458	15.843	1582.692	1207.435
0.556	11.262	1585.224	1176.355
1.571	9.134	1608.883	1178.209
2.586	8.969	1621.058	1185.804
3.600	8.408	1565.850	1141.312
4.615	4.836	1461.857	1041.557
5.629	1.253	1407.711	979.784
6.644	0.667	1401.441	971.571
7.659	0.595	1400.476	970.349
8.673	0.529	1399.864	969.417
9.688	0.539	1396.665	967.184
10.702	0.404	1393.540	964.069
11.717	2.291	1394.859	976.959
12.731	7.794	1403.368	1018.137
13.746	14.069	1413.971	1066.090
14.761	16.885	1417.325	1086.601
15.775	16.589	1415.353	1083.098
16.790	15.560	1412.954	1074.590
17.804	14.848	1410.571	1068.135
18.819	14.461	1409.396	1064.677
19.834	14.276	1408.518	1062.736
20.848	14.056	1407.205	1060.250
21.863	13.786	1405.743	1057.334
22.877	13.618	1404.422	1055.177
23.892	13.531	1403.453	1053.805
24.907	13.576	1402.846	1053.538
25.921	13.659	1401.402	1052.892
26.936	13.677	1400.708	1052.388
27.950	13.665	1399.874	1051.594
28.965	13.759	1399.157	1051.558
29.980	13.767	1397.879	1050.553
30.994	13.727	1397.069	1049.597
32.009	13.874	1395.604	1049.337
33.023	13.815	1394.882	1048.329
34.038	13.814	1393.255	1047.008
35.053	13.764	1392.810	1046.265
36.067	13.728	1391.433	1044.912
37.082	13.797	1390.333	1044.427
38.096	13.799	1389.323	1043.588
39.111	13.828	1388.068	1042.732
40.126	13.755	1387.335	1041.630
41.140	13.674	1386.760	1040.601
42.155	13.613	1386.694	1040.074
43.169	13.621	1386.408	1039.819
44.184	13.533	1386.621	1039.337
45.199	13.601	1385.853	1039.092
46.213	13.591	1385.223	1038.464
47.228	13.704	1383.844	1038.048
48.242	13.747	1382.780	1037.426
49.257	13.741	1381.448	1036.302
50.271	13.643	1380.030	1034.529
51.286	13.597	1379.046	1033.416
52.301	13.541	1377.546	1031.854
53.315	13.697	1375.676	1031.328
54.330	13.614	1375.282	1030.427
55.344	13.519	1374.549	1029.197
56.359	13.574	1373.298	1028.508
57.374	13.565	1372.177	1027.524
58.388	13.622	1371.354	1027.167
59.403	13.579	1371.111	1026.628
60.417	13.568	1369.986	1025.627
61.432	13.579	1368.993	1024.863
62.447	13.517	1367.985	1023.633
63.461	13.449	1367.090	1022.456
64.476	13.571	1365.503	1021.931
65.490	13.405	1364.941	1020.397
66.505	13.448	1363.565	1019.543
67.520	13.512	1361.619	1018.387
68.534	13.609	1360.211	1017.844
69.549	13.508	1359.565	1016.647
70.563	13.469	1358.828	1015.768
71.578	13.454	1357.161	1014.342
72.593	13.423	1356.737	1013.743
73.607	13.487	1355.882	1013.410
74.622	13.451	1354.624	1012.159
75.636	13.557	1353.770	1012.079
76.651	13.374	1353.268	1010.496
77.666	13.509	1352.339	1010.535
78.680	13.546	1351.727	1010.217
79.695	13.532	1351.101	1009.569
80.709	13.519	1350.386	1008.871
81.724	13.589	1349.205	1008.322
82.739	13.595	1348.418	1007.681
83.753	13.609	1347.419	1006.929
84.768	13.735	1346.224	1006.715
85.782	13.744	1344.790	1005.605
86.797	13.653	1343.884	1004.287
87.812	13.611	1342.092	1002.609
88.826	13.627	1341.196	1001.946
89.841	13.581	1340.136	1000.790
90.855	13.668	1338.959	1000.345
91.870	13.727	1338.168	1000.020
92.884	13.676	1337.305	998.983
93.899	13.839	1336.435	999.226
94.914	13.774	1335.711	998.202
95.928	13.785	1335.115	997.737
96.943	13.721	1333.990	996.419
97.957	13.674	1332.938	995.268
98.972	13.794	1331.424	994.765
99.987	13.664	1330.808	993.437
101.001	13.758	1329.656	993.054
102.016	13.738	1328.730	992.153
103.030	13.834	1327.533	991.748
104.045	13.674	1326.972	990.286
105.060	13.700	1325.610	989.337
106.074	13.635	1323.941	987.619
107.089	13.717	1322.425	986.888
108.103	13.564	1321.832	985.448
109.118	13.652	1320.116	984.600
110.133	13.630	1318.485	983.166
111.147	13.631	1317.313	982.214
112.162	13.600	1316.170	981.093
113.176	13.622	1315.037	980.291
114.191	13.666	1314.172	979.819
115.206	13.664	1312.610	978.554
116.220	13.737	1311.513	978.082
117.235	13.675	1310.597	976.946
118.249	13.701	1309.356	976.085
119.264	13.733	1308.273	975.381
120.279	13.677	1307.273	974.219
121.293	13.624	1306.058	972.920
122.308	13.773	1304.877	972.825
123.322	13.670	1303.814	971.346
124.337	13.701	1302.826	970.701
125.352	13.588	1301.846	969.229
126.366	13.721	1300.283	968.755
127.381	13.580	1299.602	967.337
128.395	13.577	1298.618	966.503
129.410	13.611	1297.266	965.611
130.424	13.531	1296.908	964.792
131.439	13.637	1295.201	964.054
132.454	13.598	1294.984	963.580
133.468	13.550	1293.488	962.100
134.483	13.652	1293.104	962.323
135.497	13.692	1291.441	961.233
136.512	13.646	1290.296	960.028
137.527	13.710	1288.317	958.839
138.541	13.653	1287.364	957.721
139.556	13.685	1286.039	956.832
140.570	13.679	1285.222	956.106
141.585	13.791	1283.621	955.475
142.600	13.829	1283.008	955.155
143.614	13.915	1281.923	954.755
144.629	13.790	1281.204	953.416
145.643	13.735	1279.917	952.055
146.658	13.846	1277.925	951.128
147.673	13.798	1276.901	950.009
148.687	13.785	1275.901	949.103
149.702	13.642	1274.658	947.278
150.716	13.795	1272.912	946.771
151.731	13.884	1271.834	946.392
152.746	13.786	1271.108	945.213
153.760	13.915	1269.355	944.558
154.775	13.789	1268.712	943.279
155.789	13.904	1267.168	942.700
156.804	14.005	1266.145	942.428
157.819	14.051	1265.061	941.799
158.833	13.968	1264.382	940.740
159.848	14.041	1263.022	940.056
160.862	13.938	1262.720	939.166
161.877	14.019	1260.891	938.184
162.892	13.941	1260.160	937.113
163.906	13.947	1259.552	936.616
164.921	13.963	1258.427	935.786
165.935	14.009	1257.785	935.480
166.950	13.994	1257.285	934.942
167.964	14.067	1256.195	934.459
168.979	14.051	1255.474	933.749
169.994	13.985	1254.756	932.766
171.008	14.077	1253.308	932.119
172.023	13.992	1253.399	931.630
173.037	14.092	1252.239	931.245
174.052	14.151	1250.967	930.548
175.067	14.056	1250.140	929.318
176.081	13.979	1249.486	928.319
177.096	14.075	1248.262	927.867
178.110	14.050	1246.652	926.446
179.125	14.122	1245.780	926.118
180.140	13.982	1244.917	924.617
181.154	14.167	1243.484	924.495
182.169	14.095	1241.954	922.877
183.183	14.123	1241.023	922.262
184.198	14.229	1239.361	921.531
185.213	14.239	1238.614	920.951
186.227	14.183	1237.410	919.664
187.242	14.255	1236.382	919.217
188.256	14.269	1235.612	918.638
189.271	14.247	1234.833	917.856
190.286	14.162	1233.451	916.278
191.300	14.217	1232.528	915.814
192.315	14.162	1231.875	914.949
193.329	14.149	1231.289	914.357
194.344	14.224	1230.706	914.256
195.359	14.200	1229.990	913.516
196.373	14.362	1229.543	913.988
197.388	14.296	1229.326	913.384
198.402	14.398	1228.185	913.015
199.417	14.421	1227.738	912.730
200.432	14.508	1226.841	912.454
201.446	14.558	1225.729	911.821
202.461	14.595	1224.850	911.287
203.475	14.579	1224.087	910.552
204.490	14.537	1222.767	909.264
205.504	14.532	1221.247	908.026
206.519	14.501	1219.855	906.738
207.534	14.582	1219.263	906.659
208.548	14.485	1217.920	905.056
209.563	14.601	1217.202	905.072
210.577	14.666	1216.508	904.824
211.592	14.560	1216.015	903.808
212.607	14.726	1214.687	903.639
213.621	14.635	1214.160	902.674
214.636	14.623	1212.887	901.580
215.650	14.644	1212.130	901.054
216.665	14.781	1210.984	900.860
217.680	14.716	1210.156	899.814
218.694	14.747	1209.498	899.414
219.709	14.643	1208.725	898.199
220.723	14.722	1207.806	897.862
221.738	14.720	1207.188	897.314
222.753	14.844	1206.357	897.277
223.767	14.722	1205.829	896.156
224.782	14.817	1205.207	896.122
225.796	14.920	1204.276	895.901
226.811	14.833	1203.677	894.908
227.826	14.927	1202.879	894.742
228.840	14.927	1202.056	894.049
229.855	14.848	1201.458	893.103
230.869	14.888	1200.478	892.510
231.884	14.917	1199.978	892.212
232.899	14.812	1199.123	890.940
233.913	14.754	1198.511	890.094
234.928	14.825	1197.440	889.599
235.942	14.831	1197.104	889.302
236.957	14.913	1195.836	888.718
237.972	14.729	1195.861	887.680
238.986	14.946	1194.477	887.726
240.001	14.787	1193.935	886.402
241.015	14.881	1193.159	886.246
242.030	14.922	1192.276	885.730
243.045	14.991	1191.224	885.234
244.059	15.082	1190.261	884.924
245.074	15.020	1189.612	884.033
246.088	15.020	1189.239	883.678
247.103	15.029	1188.133	882.823
248.117	15.058	1187.581	882.491
249.132	15.046	1186.958	881.884
250.147	15.173	1186.178	881.894
251.161	15.239	1185.321	881.527
252.176	15.201	1184.685	880.778
253.190	15.237	1184.146	880.486
254.205	15.251	1183.374	879.912
255.220	15.248	1182.845	879.425
256.234	15.218	1182.198	878.705
257.249	15.366	1181.174	878.642
258.263	15.457	1180.169	878.296
259.278	15.494	1179.994	878.278
260.293	15.429	1179.426	877.441
261.307	15.462	1178.980	877.201
262.322	15.420	1178.265	876.371
263.336	15.564	1177.061	876.152
264.351	15.504	1176.874	875.620
265.366	15.619	1175.970	875.470
266.380	15.478	1175.738	874.485
267.395	15.505	1174.804	873.853
268.409	15.502	1174.218	873.327
269.424	15.458	1173.386	872.402
270.439	15.593	1172.588	872.433
271.453	15.563	1171.783	871.598
272.468	15.534	1170.770	870.617
273.482	15.535	1170.285	870.186
274.497	15.587	1170.053	870.207
275.512	15.527	1169.300	869.256
276.526	15.408	1168.679	868.103
277.541	15.668	1167.429	868.443
278.555	15.613	1167.039	867.789
279.570	15.718	1165.971	867.463
280.585	15.726	1165.121	866.792
281.599	15.707	1164.261	865.981
282.614	15.791	1163.070	865.449
283.628	15.782	1161.654	864.271
284.643	15.713	1161.478	863.711
285.657	15.743	1160.551	863.100
286.672	15.771	1159.969	862.736
287.687	15.797	1158.220	861.488
288.701	15.799	1157.519	860.899
289.716	15.815	1156.797	860.371
290.730	15.883	1156.351	860.308
291.745	15.889	1155.276	859.468
292.760	15.931	1155.038	859.428
293.774	15.895	1154.383	858.679
294.789	15.825	1154.067	858.010
295.803	15.918	1153.341	857.871
296.818	15.952	1152.427	857.287
297.833	15.970	1151.557	856.653
298.847	16.020	1150.758	856.238
299.862	15.903	1150.385	855.289
300.876	16.047	1149.328	855.162
301.891	16.071	1148.595	854.660
302.906	16.026	1147.991	853.908
303.920	16.215	1146.970	854.028
304.935	16.156	1146.217	853.093
305.949	16.176	1145.820	852.826
306.964	16.179	1145.128	852.251
307.979	16.041	1144.618	851.099
308.993	16.168	1143.357	850.725
310.008	16.226	1142.776	850.513
311.022	16.211	1142.289	849.998
312.037	16.182	1141.162	848.939
313.052	16.237	1140.051	848.311
314.066	16.160	1139.309	847.299
315.081	16.115	1138.235	846.198
316.095	16.205	1137.761	846.225
317.110	16.150	1136.944	845.267
318.125	16.279	1135.947	845.093
319.139	16.243	1135.553	844.547
320.154	16.225	1134.598	843.672
321.168	16.282	1134.125	843.529
322.183	16.291	1133.898	843.330
323.197	16.333	1132.983	842.789
324.212	16.321	1132.170	842.046
325.227	16.402	1132.056	842.290
326.241	16.248	1131.466	841.012
327.256	16.274	1130.324	840.217
328.270	16.407	1129.143	839.928
329.285	16.351	1128.145	838.833
330.300	16.269	1127.217	837.661
331.314	16.298	1126.622	837.289
332.329	16.381	1125.399	836.715
333.343	16.335	1124.965	836.092
334.358	16.476	1123.826	835.867
335.373	16.506	1122.859	835.223
336.387	16.343	1122.753	834.267
337.402	16.512	1121.198	833.870
338.416	16.494	1120.828	833.433
339.431	16.580	1120.134	833.264
340.446	16.588	1119.611	832.841
341.460	16.572	1119.128	832.330
342.475	16.610	1117.992	831.597
343.489	16.660	1117.043	831.065
344.504	16.610	1116.095	830.040
345.519	16.744	1114.996	829.807
346.533	16.727	1114.274	829.110
347.548	16.697	1113.739	828.497
348.562	16.701	1113.220	828.053
349.577	16.793	1112.177	827.657
350.592	16.704	1111.699	826.791
351.606	16.678	1110.950	826.033
352.621	16.717	1110.127	825.538
353.635	16.658	1110.018	825.099
354.650	16.609	1108.773	823.859
355.665	16.690	1108.071	823.660
356.679	16.798	1107.214	823.477
357.694	16.784	1106.400	822.728
358.708	16.915	1105.821	822.862
359.723	16.739	1105.617	821.785
360.738	17.006	1104.326	822.045
361.752	16.867	1104.064	821.104
362.767	16.856	1103.318	820.423
363.781	16.901	1102.916	820.271
364.796	16.990	1102.578	820.374
365.810	17.010	1101.565	819.644
366.825	16.903	1101.210	818.794
367.840	16.961	1100.684	818.607
368.854	17.134	1099.663	818.610
369.869	17.123	1099.474	818.345
370.883	17.103	1098.453	817.416
371.898	16.920	1097.993	816.120
372.913	17.134	1097.007	816.346
373.927	17.116	1096.500	815.810
374.942	17.039	1096.174	815.125
375.956	17.099	1095.582	814.900
376.971	17.112	1094.689	814.225
377.986	17.264	1094.262	814.567
379.000	17.326	1094.042	814.624
380.015	17.291	1093.102	813.685
381.029	17.300	1092.241	813.017
382.044	17.259	1091.993	812.563
383.059	17.395	1091.173	812.533
384.073	17.333	1090.200	811.439
385.088	17.314	1089.409	810.688
386.102	17.403	1088.179	810.123
387.117	17.225	1087.272	808.530
388.132	17.259	1087.101	808.496
389.146	17.341	1085.693	807.767
390.161	17.300	1084.822	806.849
391.175	17.370	1084.550	806.911
392.190	17.450	1083.653	806.548
393.205	17.455	1082.970	805.993
394.219	17.500	1081.736	805.215
395.234	17.388	1081.366	804.342
396.248	17.469	1080.278	803.844
397.263	17.331	1079.419	802.483
398.278	17.461	1078.214	802.125
399.292	17.506	1077.449	801.698
400.307	17.406	1076.753	800.638
401.321	17.356	1076.652	800.260
402.336	17.437	1075.884	799.998
403.350	17.441	1074.841	799.172
404.365	17.491	1074.522	799.094
405.380	17.507	1073.615	798.426
406.394	17.520	1072.756	797.779
407.409	17.583	1072.327	797.682
408.423	17.637	1071.406	797.178
409.438	17.773	1070.264	796.895
410.453	17.757	1069.725	796.351
411.467	17.760	1069.089	795.820
412.482	17.727	1068.606	795.236
413.496	17.798	1067.882	794.955
414.511	17.788	1067.541	794.586
415.526	17.947	1066.811	794.712
416.540	17.877	1066.465	794.059
417.555	17.830	1066.066	793.473
418.569	17.883	1065.176	792.984
419.584	17.908	1064.975	792.880
420.599	17.938	1064.142	792.333
421.613	109.720	1332.869	1493.250
422.628	101.399	1371.969	1493.298
