DTS Sentinel unit serial number:	SN413079Multiplexer serial number:	ORYXHardware model number:	OX4-SRSoftware version number:	ORYX F/W v4.00 Oryx Data Collector v3.7.2.0data status	okinstallation	princeton_trtdifferential loss correction	single-endedforward channel	channel 2reverse channel	N/Adate	2019/09/15time	23:15:34forward acquisition time	60.00reverse acquisition time	0.00gamma	496.2192k internal	0.2336k external	0.2336temperature offset calibration	0.9949default loss term (dB/km)	0.3790temperature slope calibration	1.0000multiplexer offset coefficient	1.0000multiplexer slope coefficient	1.0000fibre end	0.00T internal ref (°C)	28.37T ext. ref 1 (°C)	9.07T ext. ref 2 (°C)	22.15length (m)	temperature (°C)	Stokes	anti-Stokes-747.200	-89.575	0.100	0.030
-746.185	227.336	-0.097	-0.159
-745.171	141.103	0.227	0.301
-744.156	-118.376	-0.498	0.089
-743.142	202.451	-0.137	-0.213
-742.127	-90.828	0.173	0.050
-741.112	-140.633	0.142	-0.015
-740.098	20.331	0.107	0.087
-739.083	23.092	0.175	0.145
-738.069	-200.000	-0.024	-0.210
-737.054	-95.712	-0.218	-0.059
-736.039	6.255	-0.063	-0.047
-735.025	-159.886	0.110	-0.006
-734.010	-12.957	-0.232	-0.151
-732.996	-135.134	-0.114	0.014
-731.981	153.295	-0.187	0.257
-730.966	-103.974	-0.199	-0.047
-729.952	-0.961	0.147	0.104
-728.937	-42.573	-0.164	-0.084
-727.923	-128.740	-0.299	-0.042
-726.908	64.399	0.066	0.067
-725.894	-34.723	-0.219	-0.120
-724.879	107.512	0.214	-0.255
-723.864	-200.000	0.090	-0.000
-722.850	800.000	-0.038	-0.132
-721.835	-158.191	-0.323	-0.019
-720.821	800.000	-0.066	-0.264
-719.806	-161.640	-0.116	-0.006
-718.791	-96.841	0.132	0.035
-717.777	800.000	-0.037	0.154
-716.762	-200.000	-0.005	0.322
-715.748	-119.997	-0.178	0.031
-714.733	10.968	-0.232	0.178
-713.718	-55.950	0.199	0.089
-712.704	185.586	-0.087	0.130
-711.689	-73.826	-0.142	-0.052
-710.675	800.000	0.062	-0.235
-709.660	-200.000	0.040	-0.442
-708.645	-105.470	0.359	0.082
-707.631	800.000	0.080	-0.322
-706.616	800.000	-0.067	0.211
-705.602	-200.000	-0.056	-0.324
-704.587	-9.443	-0.235	-0.157
-703.572	455.081	-0.159	-0.354
-702.558	306.972	0.127	0.237
-701.543	-200.000	0.016	0.118
-700.529	5.773	0.105	-0.078
-699.514	-200.000	-0.011	0.159
-698.499	-69.558	-0.160	0.061
-697.485	247.582	0.094	0.159
-696.470	-125.486	0.288	-0.044
-695.456	-200.000	-0.021	0.206
-694.441	193.913	-0.094	-0.143
-693.426	638.401	0.139	-0.354
-692.412	31.148	0.120	0.103
-691.397	800.000	-0.091	0.278
-690.383	-95.295	0.237	0.064
-689.368	-200.000	-0.058	-0.311
-688.354	334.293	0.045	0.087
-687.339	-63.925	-0.401	0.164
-686.324	85.624	0.099	-0.109
-685.310	-200.000	0.054	-0.600
-684.295	-200.000	0.015	0.124
-683.281	-200.000	-0.022	-0.211
-682.266	6.389	-0.397	-0.296
-681.251	-180.060	0.056	0.001
-680.237	265.098	-0.124	-0.216
-679.222	131.264	0.126	0.162
-678.208	-51.567	-0.131	-0.061
-677.193	-200.000	-0.037	0.173
-676.178	-115.657	-0.077	-0.015
-675.164	-200.000	-0.019	-0.200
-674.149	-200.000	0.019	-0.233
-673.135	-185.929	-0.220	0.003
-672.120	236.207	0.146	0.241
-671.105	-42.890	0.208	0.106
-670.091	-200.000	0.029	-0.226
-669.076	800.000	-0.034	-0.100
-668.062	-130.298	0.114	-0.016
-667.047	12.130	0.132	-0.102
-666.032	-200.000	0.016	-0.257
-665.018	80.101	-0.194	0.209
-664.003	-200.000	-0.066	0.442
-662.989	800.000	-0.026	-0.078
-661.974	221.211	-0.077	-0.124
-660.959	800.000	-0.026	-0.101
-659.945	244.810	0.070	-0.118
-658.930	800.000	-0.046	-0.162
-657.916	800.000	0.090	-0.275
-656.901	-200.000	-0.056	0.257
-655.886	800.000	0.095	0.280
-654.872	-200.000	0.037	0.167
-653.857	-37.460	-0.098	0.053
-652.843	-84.864	0.305	0.096
-651.828	-152.861	-0.192	-0.014
-650.814	-200.000	-0.019	-0.242
-649.799	-200.000	-0.041	-0.252
-648.784	-76.838	-0.150	-0.052
-647.770	147.467	-0.242	-0.327
-646.755	36.416	0.226	-0.199
-645.741	-82.607	-0.132	-0.043
-644.726	-102.309	0.277	0.067
-643.711	43.538	0.314	-0.287
-642.697	46.480	0.158	0.147
-641.682	158.290	-0.080	0.110
-640.668	-200.000	0.078	0.442
-639.653	800.000	0.032	0.135
-638.638	-144.528	0.103	-0.009
-637.624	695.995	-0.036	0.093
-636.609	-122.014	0.322	0.053
-635.595	250.571	0.085	-0.145
-634.580	-117.037	0.025	0.005
-633.565	-41.874	-0.396	-0.203
-632.551	-61.336	-0.253	0.106
-631.536	-200.000	-0.020	0.346
-630.522	-200.000	0.036	0.209
-629.507	173.609	0.181	0.261
-628.492	-200.000	0.042	0.306
-627.478	-29.033	0.193	-0.110
-626.463	-200.000	0.000	-0.318
-625.449	-86.554	0.359	0.110
-624.434	-158.181	-0.089	0.005
-623.419	60.760	-0.030	0.030
-622.405	512.877	0.051	0.120
-621.390	274.653	-0.106	-0.187
-620.376	800.000	0.058	0.168
-619.361	285.079	0.031	-0.057
-618.346	-98.115	0.203	-0.052
-617.332	-8.210	-0.301	0.203
-616.317	-103.887	0.033	-0.008
-615.303	-71.972	0.254	0.094
-614.288	141.566	0.201	-0.266
-613.273	-200.000	0.007	-0.263
-612.259	-103.783	-0.117	-0.027
-611.244	-44.289	0.283	0.142
-610.230	569.095	0.134	-0.324
-609.215	800.000	-0.037	0.152
-608.201	800.000	-0.040	-0.169
-607.186	298.920	0.042	0.078
-606.171	437.446	-0.138	-0.301
-605.157	800.000	-0.117	-0.378
-604.142	-200.000	0.002	0.031
-603.128	48.681	-0.346	0.324
-602.113	-111.032	-0.363	0.074
-601.098	-36.145	0.125	0.067
-600.084	-41.613	-0.166	0.085
-599.069	-200.000	0.055	-0.274
-598.055	-38.059	-0.260	0.138
-597.040	800.000	-0.054	0.218
-596.025	37.782	0.203	0.180
-595.011	89.388	-0.025	-0.028
-593.996	14.972	-0.170	-0.133
-592.982	-150.402	-0.185	-0.014
-591.967	800.000	0.047	-0.168
-590.952	800.000	0.068	0.239
-589.938	194.795	-0.224	0.340
-588.923	133.591	-0.090	0.116
-587.909	340.688	-0.109	0.213
-586.894	-194.618	0.096	0.001
-585.879	133.004	-0.134	-0.172
-584.865	440.288	0.193	0.420
-583.850	693.239	-0.049	0.127
-582.836	192.501	-0.039	0.059
-581.821	315.225	-0.053	-0.100
-580.806	800.000	0.076	0.239
-579.792	-200.000	0.053	0.431
-578.777	-81.231	-0.506	-0.167
-577.763	800.000	-0.023	-0.097
-576.748	351.083	0.037	-0.073
-575.733	769.287	0.061	0.167
-574.719	-200.000	-0.034	-0.187
-573.704	-97.254	-0.125	-0.033
-572.690	93.396	-0.099	0.112
-571.675	664.033	0.109	0.279
-570.661	-54.523	-0.128	-0.058
-569.646	-200.000	-0.031	0.153
-568.631	1.108	-0.085	0.061
-567.617	-200.000	-0.001	0.019
-566.602	278.676	-0.073	0.131
-565.588	-159.535	0.294	-0.016
-564.573	164.491	0.148	-0.209
-563.558	-1.064	0.053	0.037
-562.544	281.482	-0.211	-0.378
-561.529	-200.000	-0.013	-0.176
-560.515	-200.000	-0.040	-0.223
-559.500	-200.000	-0.018	0.270
-558.485	-200.000	0.020	-0.276
-557.471	707.679	-0.039	-0.103
-556.456	10.454	0.051	0.039
-555.442	98.295	0.109	-0.125
-554.427	-200.000	0.020	-0.226
-553.412	27.520	-0.256	0.214
-552.398	-200.000	-0.017	0.225
-551.383	79.044	-0.162	-0.173
-550.369	-109.698	0.165	-0.035
-549.354	28.316	-0.173	0.146
-548.339	29.436	0.101	0.086
-547.325	-41.909	0.022	0.011
-546.310	-104.845	0.281	-0.064
-545.296	-200.000	-0.010	-0.139
-544.281	-1.540	-0.179	-0.125
-543.266	-96.311	-0.042	-0.011
-542.252	-200.000	-0.059	-0.260
-541.237	2.136	-0.091	-0.065
-540.223	-200.000	-0.053	0.347
-539.208	800.000	0.090	-0.323
-538.193	103.422	0.248	-0.290
-537.179	-22.310	0.144	-0.087
-536.164	124.522	-0.127	0.159
-535.150	-146.661	0.041	0.004
-534.135	-176.045	0.198	0.005
-533.121	441.760	-0.125	0.272
-532.106	-0.228	0.227	0.161
-531.091	225.085	-0.018	-0.029
-530.077	9.222	0.039	0.029
-529.062	-28.988	-0.357	0.204
-528.048	121.442	-0.176	0.219
-527.033	800.000	0.089	-0.301
-526.018	88.868	0.007	0.008
-525.004	157.922	0.066	-0.092
-523.989	56.596	-0.234	-0.226
-522.975	-176.176	-0.159	0.004
-521.960	-4.813	-0.082	-0.056
-520.945	154.775	-0.075	0.103
-519.931	15.917	0.123	-0.096
-518.916	645.355	-0.187	0.475
-517.902	-15.807	0.163	-0.103
-516.887	-75.859	0.256	-0.090
-515.872	255.709	-0.112	-0.192
-514.858	38.052	0.132	-0.117
-513.843	235.730	0.189	-0.311
-512.829	63.597	0.156	-0.156
-511.814	35.354	0.069	0.060
-510.799	-1.274	-0.176	0.124
-509.785	-3.177	-0.180	0.125
-508.770	-148.996	-0.294	0.024
-507.756	37.040	0.113	-0.100
-506.741	-16.241	-0.127	0.081
-505.726	87.090	-0.220	0.242
-504.712	19.165	-0.112	-0.089
-503.697	-200.000	0.018	-0.249
-502.683	-200.000	0.005	-0.172
-501.668	63.899	-0.017	-0.017
-500.653	96.423	-0.027	-0.030
-499.639	-200.000	0.031	-0.164
-498.624	-78.038	0.181	0.062
-497.610	-83.967	-0.145	0.046
-496.595	-154.073	0.351	0.024
-495.581	637.468	-0.125	-0.316
-494.566	72.067	-0.339	-0.351
-493.551	15.849	0.060	0.047
-492.537	-87.104	0.306	-0.093
-491.522	-200.000	-0.058	0.361
-490.508	-69.360	0.142	-0.054
-489.493	63.983	-0.097	-0.097
-488.478	8.203	0.232	0.174
-487.464	54.916	-0.211	0.203
-486.449	-18.647	-0.254	-0.157
-485.435	340.358	0.097	0.189
-484.420	-200.000	0.006	0.124
-483.405	641.506	-0.105	0.265
-482.391	-31.152	-0.073	-0.041
-481.376	-200.000	0.047	-0.229
-480.362	56.892	-0.138	-0.133
-479.347	234.208	-0.108	-0.177
-478.332	30.538	-0.203	0.172
-477.318	-200.000	0.010	-0.062
-476.303	-36.608	-0.120	0.064
-475.289	-43.669	-0.202	-0.101
-474.274	229.937	-0.162	0.262
-473.259	800.000	0.071	-0.223
-472.245	149.170	-0.109	-0.146
-471.230	169.960	0.242	-0.343
-470.216	-200.000	0.031	0.143
-469.201	-166.621	0.266	0.011
-468.186	-200.000	-0.065	-0.471
-467.172	-200.000	0.033	-0.317
-466.157	126.235	-0.093	-0.117
-465.143	-200.000	-0.004	-0.141
-464.128	-200.000	-0.008	0.130
-463.113	-68.722	-0.191	0.073
-462.099	43.943	-0.177	0.161
-461.084	227.140	-0.303	0.488
-460.070	372.701	-0.060	0.122
-459.055	-200.000	-0.008	-0.074
-458.040	255.899	-0.155	0.265
-457.026	800.000	0.089	0.272
-456.011	-54.552	0.291	-0.131
-454.997	-78.602	0.108	-0.037
-453.982	-122.537	0.180	-0.029
-452.968	-159.970	0.271	0.015
-451.953	33.642	0.066	0.057
-450.938	800.000	-0.027	-0.093
-449.924	800.000	-0.108	-0.299
-448.909	800.000	0.011	0.043
-447.895	-200.000	-0.014	-0.111
-446.880	-142.073	-0.264	-0.026
-445.865	-164.639	-0.393	-0.018
-444.851	-96.070	-0.196	0.052
-443.836	-124.473	-0.450	0.070
-442.822	-95.075	0.401	0.107
-441.807	120.108	0.144	0.178
-440.792	373.212	-0.074	-0.149
-439.778	-200.000	0.001	0.135
-438.763	-50.209	0.528	-0.248
-437.749	-200.000	-0.013	0.122
-436.734	800.000	0.127	0.421
-435.719	187.435	-0.090	-0.133
-434.705	351.203	-0.107	-0.209
-433.690	-144.834	0.351	0.032
-432.676	16.365	-0.227	0.178
-431.661	-37.458	-0.125	0.066
-430.646	24.017	-0.150	0.123
-429.632	-110.610	-0.454	-0.093
-428.617	800.000	-0.036	0.127
-427.603	-200.000	-0.037	0.166
-426.588	800.000	-0.078	0.217
-425.573	255.954	0.191	0.325
-424.559	-67.836	0.378	-0.147
-423.544	123.901	0.157	-0.196
-422.530	153.418	-0.194	0.263
-421.515	-74.859	-0.223	0.079
-420.500	401.299	-0.063	-0.132
-419.486	-200.000	0.037	0.185
-418.471	-82.903	0.195	-0.063
-417.457	-37.435	-0.386	0.204
-416.442	699.437	-0.144	-0.374
-415.428	27.371	0.020	-0.017
-414.413	-105.878	0.314	0.070
-413.398	-41.813	0.234	0.119
-412.384	-128.753	-0.356	-0.050
-411.369	128.393	0.134	-0.169
-410.355	800.000	-0.075	0.327
-409.340	95.188	-0.157	-0.177
-408.325	-106.771	-0.131	0.029
-407.311	194.093	0.108	-0.162
-406.296	-116.995	-0.185	-0.034
-405.282	-180.806	-0.361	0.007
-404.267	348.935	0.132	0.258
-403.252	69.091	0.025	0.026
-402.238	200.439	-0.114	0.174
-401.223	-78.502	0.226	-0.077
-400.209	-120.178	0.138	-0.023
-399.194	144.847	-0.115	0.152
-398.179	217.133	0.125	0.198
-397.165	209.273	-0.093	-0.144
-396.150	-200.000	-0.013	0.170
-395.136	-43.283	-0.046	-0.023
-394.121	-96.885	-0.205	0.053
-393.106	-16.631	0.153	-0.096
-392.092	800.000	0.040	-0.123
-391.077	-147.355	-0.284	-0.024
-390.063	800.000	0.074	-0.208
-389.048	0.711	0.087	-0.062
-388.033	-107.174	-0.210	-0.046
-387.019	8.312	0.197	0.146
-386.004	534.500	-0.155	0.363
-384.990	133.327	0.128	-0.163
-383.975	68.644	0.156	0.159
-382.960	-200.000	-0.051	0.306
-381.946	273.855	-0.072	0.126
-380.931	-124.535	-0.113	-0.017
-379.917	190.779	0.021	0.031
-378.902	-35.892	0.094	-0.050
-377.888	-200.000	-0.021	0.139
-376.873	-140.927	-0.222	-0.023
-375.858	392.861	0.009	-0.019
-374.844	-52.318	0.177	0.081
-373.829	800.000	0.092	-0.257
-372.815	-200.000	0.050	-0.394
-371.800	-200.000	0.042	-0.309
-370.785	55.421	-0.233	0.224
-369.771	-200.000	-0.015	0.181
-368.756	175.513	-0.131	0.188
-367.742	-112.460	0.411	0.081
-366.727	538.735	-0.109	-0.257
-365.712	-58.939	0.085	0.036
-364.698	196.678	-0.205	0.309
-363.683	-200.000	-0.005	0.182
-362.669	292.345	0.087	0.157
-361.654	-27.616	0.128	0.074
-360.639	312.060	-0.057	-0.107
-359.625	615.278	-0.129	-0.320
-358.610	-123.863	0.229	-0.036
-357.596	83.172	-0.160	-0.172
-356.581	-200.000	-0.008	0.226
-355.566	-62.796	-0.131	-0.054
-354.552	-200.000	-0.006	0.048
-353.537	-200.000	0.001	-0.090
-352.523	-200.000	0.020	0.158
-351.508	800.000	-0.085	-0.298
-350.493	33.720	0.208	0.179
-349.479	108.770	-0.054	0.064
-348.464	-200.000	0.070	-0.327
-347.450	800.000	-0.034	0.095
-346.435	67.173	0.112	-0.113
-345.420	464.455	-0.089	0.198
-344.406	369.123	-0.093	-0.187
-343.391	-200.000	0.041	-0.199
-342.377	23.218	-0.197	-0.160
-341.362	800.000	0.046	0.170
-340.348	-200.000	-0.030	0.153
-339.333	284.308	-0.029	0.051
-338.318	-200.000	-0.004	-0.410
-337.304	175.295	-0.024	-0.034
-336.289	700.961	0.053	0.137
-335.275	251.560	0.110	0.185
-334.260	-160.081	0.237	0.013
-333.245	-104.574	0.198	-0.045
-332.231	-47.339	0.332	-0.160
-331.216	-200.000	-0.012	-0.132
-330.202	28.217	-0.353	-0.295
-329.187	14.162	0.129	-0.099
-328.172	455.594	-0.126	0.276
-327.158	-116.846	-0.233	-0.042
-326.143	55.117	-0.159	-0.151
-325.129	800.000	0.097	-0.265
-324.114	-112.312	0.126	-0.025
-323.099	715.725	-0.128	0.335
-322.085	-88.043	-0.287	0.085
-321.070	-51.096	0.242	0.112
-320.056	-8.580	-0.190	-0.126
-319.041	-106.918	-0.104	0.023
-318.026	202.368	0.044	0.067
-317.012	84.288	0.172	-0.186
-315.997	-200.000	0.033	-0.271
-314.983	-200.000	0.006	-0.082
-313.968	-162.354	0.293	0.014
-312.953	57.366	-0.112	-0.108
-311.939	448.333	0.082	0.177
-310.924	-167.344	0.067	0.003
-309.910	-200.000	0.039	-0.178
-308.895	-130.406	-0.206	0.028
-307.880	347.865	0.051	-0.099
-306.866	630.010	0.147	-0.366
-305.851	800.000	-0.059	-0.217
-304.837	-200.000	-0.022	0.386
-303.822	-92.654	0.518	0.143
-302.807	800.000	0.127	-0.359
-301.793	800.000	-0.100	0.367
-300.778	191.056	-0.118	0.175
-299.764	147.653	-0.136	0.180
-298.749	-200.000	-0.045	-0.282
-297.735	800.000	0.074	0.240
-296.720	182.172	0.108	-0.157
-295.705	800.000	0.037	0.119
-294.691	-16.834	0.296	0.185
-293.676	800.000	-0.029	-0.081
-292.662	800.000	0.037	-0.143
-291.647	-116.706	0.489	-0.089
-290.632	-81.982	0.315	0.101
-289.618	-200.000	0.011	0.117
-288.603	-47.088	-0.100	-0.048
-287.589	-200.000	-0.018	0.297
-286.574	38.165	0.107	0.094
-285.559	151.556	0.196	0.264
-284.545	-200.000	-0.015	0.308
-283.530	-200.000	0.042	0.369
-282.516	47.771	-0.103	-0.095
-281.501	-137.909	0.067	-0.007
-280.486	99.225	0.113	-0.129
-279.472	800.000	-0.082	0.232
-278.457	-200.000	-0.025	-0.294
-277.443	354.460	0.065	-0.128
-276.428	27.562	0.105	0.087
-275.413	489.736	-0.201	-0.453
-274.399	317.280	-0.046	0.085
-273.384	-55.407	0.117	0.052
-272.370	-39.215	0.489	-0.253
-271.355	325.003	0.086	0.161
-270.340	-200.000	0.023	-0.231
-269.326	84.500	0.134	-0.145
-268.311	156.254	0.070	0.095
-267.297	-66.483	-0.290	-0.113
-266.282	-113.546	0.193	-0.037
-265.267	800.000	0.068	-0.200
-264.253	100.322	-0.073	0.084
-263.238	-100.094	0.057	0.014
-262.224	800.000	-0.140	0.390
-261.209	14.300	-0.113	0.087
-260.195	-196.694	-0.115	0.001
-259.180	492.283	-0.090	-0.204
-258.165	-32.433	0.167	-0.092
-257.151	-94.626	-0.335	-0.090
-256.136	-38.742	-0.220	-0.114
-255.122	129.341	0.216	-0.272
-254.107	-43.492	-0.083	0.041
-253.092	13.222	0.228	-0.174
-252.078	800.000	0.059	-0.164
-251.063	2.645	0.141	-0.101
-250.049	74.403	0.179	-0.186
-249.034	-74.149	0.202	-0.072
-248.019	800.000	0.056	0.162
-247.005	67.439	-0.076	-0.076
-245.990	413.034	-0.054	0.113
-244.976	-200.000	-0.018	-0.202
-243.961	800.000	-0.080	-0.298
-242.946	-200.000	0.011	-0.231
-241.932	29.720	-0.164	0.138
-240.917	-1.480	0.234	0.163
-239.903	-200.000	-0.036	0.246
-238.888	-24.434	0.075	0.044
-237.873	322.415	0.100	-0.188
-236.859	-45.474	0.135	0.066
-235.844	116.597	-0.069	-0.084
-234.830	-38.117	0.169	0.089
-233.815	67.493	-0.229	-0.230
-232.800	100.213	0.313	-0.358
-231.786	55.320	-0.062	-0.059
-230.771	7.860	-0.236	-0.174
-229.757	-200.000	-0.012	-0.078
-228.742	-200.000	0.028	0.248
-227.727	68.133	0.035	-0.035
-226.713	245.889	0.215	-0.357
-225.698	47.076	0.099	-0.091
-224.684	-133.549	-0.311	0.038
-223.669	37.411	0.057	-0.050
-222.655	-35.022	0.425	0.228
-221.640	435.826	-0.016	-0.034
-220.625	-124.743	0.267	-0.041
-219.611	239.671	0.167	0.273
-218.596	-74.036	-0.410	-0.146
-217.582	-21.982	-0.169	-0.101
-216.567	119.335	0.187	0.227
-215.552	-138.788	-0.203	-0.022
-214.538	66.614	0.273	-0.274
-213.523	20.961	0.025	0.020
-212.509	-114.032	0.154	-0.029
-211.494	-90.889	0.092	-0.026
-210.479	13.866	0.091	-0.069
-209.465	-17.095	-0.156	0.097
-208.450	89.299	0.213	0.234
-207.436	-92.069	0.142	0.040
-206.421	-75.082	0.267	-0.094
-205.406	-3.037	-0.070	-0.048
-204.392	-145.521	-0.175	-0.015
-203.377	156.365	-0.136	0.185
-202.363	395.313	0.048	-0.098
-201.348	123.595	-0.196	0.242
-200.333	-60.205	-0.392	0.164
-199.319	-19.555	0.229	-0.139
-198.304	-125.375	0.254	0.038
-197.290	-79.777	0.018	0.006
-196.275	58.940	-0.251	0.242
-195.260	-1.718	-0.089	-0.061
-194.246	-78.687	-0.282	0.095
-193.231	-19.294	0.171	0.104
-192.217	-33.389	0.083	0.045
-191.202	-188.311	-0.121	0.001
-190.187	130.887	-0.040	0.050
-189.173	195.660	-0.124	0.186
-188.158	-79.188	-0.285	0.095
-187.144	-15.317	0.192	-0.121
-186.129	-41.197	0.225	0.114
-185.114	15.030	-0.208	0.160
-184.100	-11.251	0.081	-0.052
-183.085	-86.262	-0.245	-0.074
-182.071	355.982	0.159	-0.310
-181.056	531.205	-0.068	0.157
-180.042	419.499	0.041	-0.086
-179.027	-43.256	0.088	-0.044
-178.012	800.000	-0.045	0.126
-176.998	247.257	0.084	0.140
-175.983	-108.644	0.426	0.090
-174.969	520.218	0.113	0.259
-173.954	-200.000	0.011	0.167
-172.939	800.000	0.024	0.095
-171.925	405.307	-0.035	0.072
-170.910	-89.595	0.154	0.045
-169.896	77.177	0.153	0.159
-168.881	342.937	-0.034	0.066
-167.866	-113.840	0.197	0.038
-166.852	216.564	-0.075	-0.118
-165.837	-19.745	-0.093	0.056
-164.823	-135.287	-0.304	-0.036
-163.808	82.543	-0.123	-0.131
-162.793	122.647	0.101	0.125
-161.779	-52.606	-0.303	-0.137
-160.764	119.264	0.233	0.284
-159.750	400.864	0.179	-0.368
-158.735	800.000	0.015	-0.040
-157.720	32.245	-0.210	0.178
-156.706	-200.000	-0.034	0.177
-155.691	189.522	-0.072	-0.106
-154.677	57.921	-0.101	0.097
-153.662	22.000	-0.352	-0.282
-152.647	-93.527	0.090	0.024
-151.633	594.284	0.135	-0.327
-150.618	-200.000	-0.027	-0.201
-149.604	-200.000	0.060	0.273
-148.589	-78.828	0.172	0.058
-147.574	6.124	-0.299	-0.218
-146.560	-138.190	-0.327	0.036
-145.545	394.389	-0.129	-0.264
-144.531	-56.909	-0.165	-0.071
-143.516	-91.787	0.249	-0.069
-142.502	-200.000	0.027	0.237
-141.487	14.775	0.214	0.164
-140.472	-163.301	-0.379	0.018
-139.458	-200.000	0.025	0.145
-138.443	22.059	-0.183	-0.147
-137.429	800.000	-0.078	-0.267
-136.414	-200.000	0.025	0.237
-135.399	800.000	0.034	0.103
-134.385	-51.617	0.251	0.115
-133.370	-200.000	-0.017	0.094
-132.356	-106.355	0.025	0.006
-131.341	-0.482	0.291	0.203
-130.326	-130.861	-0.104	0.014
-129.312	18.827	-0.175	-0.137
-128.297	-4.723	0.123	-0.083
-127.283	156.536	0.186	0.252
-126.268	144.424	-0.258	0.337
-125.253	134.741	-0.162	0.206
-124.239	800.000	0.084	0.301
-123.224	-68.503	-0.350	0.133
-122.210	29.372	0.148	-0.123
-121.195	-116.454	-0.058	0.011
-120.180	52.020	-0.127	0.119
-119.166	129.963	0.144	-0.181
-118.151	800.000	-0.024	0.072
-117.137	11.783	-0.189	0.142
-116.122	8.795	0.245	0.181
-115.107	-94.525	0.254	-0.068
-114.093	746.129	-0.085	-0.223
-113.078	-200.000	0.023	0.113
-112.064	182.774	-0.136	0.197
-111.049	-200.000	0.084	0.366
-110.034	50.182	-0.127	0.117
-109.020	138.604	-0.178	0.229
-108.005	-35.341	0.217	-0.115
-106.991	-54.730	-0.185	0.082
-105.976	800.000	-0.049	0.143
-104.962	534.862	0.091	0.212
-103.947	800.000	-0.124	-0.393
-102.932	-20.096	-0.217	-0.131
-101.918	90.697	0.081	0.089
-100.903	517.417	0.115	0.264
-99.889	36.839	-0.138	0.119
-98.874	-61.690	0.230	-0.094
-97.859	-200.000	0.059	0.271
-96.845	-83.056	-0.158	0.050
-95.830	97.157	0.041	0.046
-94.816	-68.294	-0.393	0.150
-93.801	-156.725	0.162	0.010
-92.786	277.447	0.050	0.088
-91.772	-124.782	-0.172	0.026
-90.757	286.881	0.173	-0.307
-89.743	-178.299	-0.253	0.006
-88.728	800.000	0.065	0.246
-87.713	-27.013	0.124	0.071
-86.699	-147.604	-0.252	0.021
-85.684	211.127	-0.039	0.059
-84.670	778.455	-0.090	-0.242
-83.655	5.128	0.408	-0.294
-82.640	-84.278	0.105	-0.033
-81.626	7.271	0.233	-0.170
-80.611	-200.000	0.017	0.098
-79.597	14.162	0.206	0.157
-78.582	226.962	0.086	0.136
-77.567	72.544	-0.159	-0.162
-76.553	800.000	0.084	0.256
-75.538	-149.921	-0.196	-0.015
-74.524	-38.414	0.151	0.078
-73.509	247.778	-0.131	0.217
-72.494	-200.000	-0.009	0.156
-71.480	510.629	-0.122	0.277
-70.465	323.964	0.091	0.170
-69.451	-75.766	-0.233	0.081
-68.436	-79.157	0.373	-0.124
-67.422	-81.833	0.190	0.061
-66.407	-200.000	-0.011	-0.256
-65.392	135.258	0.116	0.148
-64.378	163.627	0.250	-0.344
-63.363	3.413	-0.091	0.065
-62.349	-200.000	0.054	0.275
-61.334	110.475	-1.006	-1.182
-60.319	34.927	0.444	0.380
-59.305	800.000	-0.287	-0.829
-58.290	163.238	0.808	1.110
-57.276	523.377	0.642	1.474
-56.261	-200.000	110.533	642.447
-55.246	493.041	1483.987	3326.751
-54.232	150.665	2652.950	3524.365
-53.217	100.618	2269.414	2577.286
-52.203	37.515	1886.648	1636.092
-51.188	31.553	1678.990	1411.154
-50.173	29.052	1636.938	1357.338
-49.159	50.624	1690.966	1564.177
-48.144	50.393	1706.018	1576.308
-47.130	31.202	1665.320	1396.813
-46.115	28.449	1650.750	1364.090
-45.100	28.218	1645.539	1358.017
-44.086	28.202	1642.997	1355.740
-43.071	28.145	1640.729	1353.397
-42.057	28.268	1638.093	1352.076
-41.042	28.255	1636.055	1350.246
-40.027	28.257	1634.469	1348.900
-39.013	28.256	1632.026	1346.820
-37.998	28.179	1631.245	1345.555
-36.984	28.207	1629.732	1344.462
-35.969	28.307	1627.843	1343.580
-34.954	28.461	1625.973	1343.114
-33.940	28.337	1624.524	1340.953
-32.925	28.386	1622.896	1339.917
-31.911	28.337	1620.971	1337.919
-30.896	28.398	1619.482	1337.078
-29.881	28.468	1617.575	1335.961
-28.867	28.332	1616.067	1333.672
-27.852	28.419	1614.802	1333.213
-26.838	28.367	1613.335	1331.568
-25.823	28.392	1611.968	1330.565
-24.809	28.481	1611.068	1330.422
-23.794	28.440	1609.159	1328.489
-22.779	28.326	1608.452	1327.028
-21.765	28.327	1606.688	1325.529
-20.750	28.415	1604.660	1324.442
-19.736	28.453	1603.243	1323.488
-18.721	28.505	1602.265	1323.008
-17.706	28.385	1600.856	1320.928
-16.692	28.451	1599.057	1319.862
-15.677	28.477	1598.061	1319.175
-14.663	28.373	1596.877	1317.403
-13.648	28.356	1595.437	1316.034
-12.633	28.363	1594.045	1314.886
-11.619	28.375	1592.166	1313.373
-10.604	28.400	1590.314	1311.971
-9.590	28.441	1589.317	1311.386
-8.575	28.436	1588.119	1310.315
-7.560	28.377	1587.354	1309.208
-6.546	28.459	1586.109	1308.718
-5.531	28.312	1585.838	1307.393
-4.517	28.416	1583.775	1306.378
-3.502	28.345	1583.292	1305.423
-2.487	28.498	1580.491	1304.151
-1.473	28.043	1569.440	1291.764
-0.458	25.089	1550.070	1255.124
0.556	19.292	1551.310	1223.387
1.571	16.976	1574.394	1224.781
2.586	16.552	1586.187	1230.761
3.600	15.813	1535.719	1186.288
4.615	12.675	1438.122	1090.055
5.629	9.732	1382.975	1029.399
6.644	9.083	1375.889	1019.910
7.659	9.107	1374.272	1018.773
8.673	9.094	1373.294	1017.878
9.688	8.997	1370.569	1015.153
10.702	8.880	1368.238	1012.597
11.717	10.350	1370.473	1023.458
12.731	14.046	1376.649	1051.397
13.746	16.935	1380.654	1072.662
14.761	17.271	1380.158	1074.307
15.775	16.220	1377.539	1065.542
16.790	15.216	1374.949	1057.109
17.804	14.427	1372.729	1050.344
18.819	13.917	1371.376	1046.004
19.834	13.611	1370.138	1043.036
20.848	13.433	1368.804	1040.813
21.863	13.180	1367.737	1038.321
22.877	13.084	1366.404	1036.610
23.892	13.047	1365.855	1035.872
24.907	12.949	1364.909	1034.447
25.921	13.054	1363.627	1034.040
26.936	13.063	1362.897	1033.455
27.950	13.105	1361.839	1032.821
28.965	13.092	1361.141	1032.119
29.980	13.158	1359.730	1031.372
30.994	13.319	1357.987	1030.965
32.009	13.330	1356.800	1030.041
33.023	13.265	1356.208	1029.093
34.038	13.303	1354.511	1027.951
35.053	13.200	1353.363	1026.348
36.067	13.195	1352.444	1025.531
37.082	13.191	1351.232	1024.498
38.096	13.247	1350.351	1024.085
39.111	13.141	1349.837	1022.948
40.126	13.149	1348.686	1022.035
41.140	13.005	1347.948	1020.494
42.155	12.853	1347.844	1019.382
43.169	12.834	1347.070	1018.591
44.184	12.942	1346.822	1018.980
45.199	12.953	1346.024	1018.357
46.213	12.997	1345.632	1018.239
47.228	13.057	1345.025	1018.061
48.242	13.110	1343.698	1017.293
49.257	13.136	1342.044	1016.112
50.271	13.172	1340.500	1015.072
51.286	13.113	1339.260	1013.685
52.301	13.179	1338.301	1013.269
53.315	13.082	1337.137	1011.706
54.330	13.024	1336.130	1010.498
55.344	12.972	1334.907	1009.167
56.359	13.103	1333.805	1009.042
57.374	13.049	1333.211	1008.178
58.388	12.934	1332.562	1006.895
59.403	12.874	1331.813	1005.876
60.417	12.862	1330.932	1005.048
61.432	12.825	1330.256	1004.222
62.447	12.891	1328.981	1003.572
63.461	12.869	1327.846	1002.490
64.476	12.832	1326.463	1001.134
65.490	12.795	1325.608	1000.175
66.505	12.893	1324.143	999.574
67.520	12.819	1323.305	998.405
68.534	12.865	1322.192	997.760
69.549	12.864	1321.363	997.036
70.563	12.839	1320.448	996.106
71.578	12.826	1318.873	994.754
72.593	12.769	1318.070	993.715
73.607	12.718	1317.796	993.111
74.622	12.759	1316.913	992.607
75.636	12.688	1316.178	991.539
76.651	12.657	1315.903	991.058
77.666	12.732	1315.158	990.856
78.680	12.775	1314.553	990.573
79.695	12.757	1313.783	989.797
80.709	12.852	1312.860	989.583
81.724	12.850	1311.813	988.696
82.739	12.986	1310.990	988.801
83.753	13.048	1310.202	988.492
84.768	13.168	1308.799	988.066
85.782	13.117	1307.907	986.998
86.797	13.153	1306.690	986.207
87.812	12.996	1305.670	984.415
88.826	13.050	1304.125	983.484
89.841	13.089	1303.395	983.081
90.855	13.057	1302.330	981.999
91.870	13.145	1301.417	981.745
92.884	13.281	1300.236	981.575
93.899	13.177	1300.069	980.748
94.914	13.209	1299.569	980.472
95.928	13.210	1298.110	979.291
96.943	13.158	1297.577	978.491
97.957	13.150	1296.650	977.663
98.972	13.238	1294.897	976.775
99.987	13.168	1294.198	975.745
101.001	13.151	1293.430	974.980
102.016	13.170	1292.435	974.255
103.030	13.089	1291.724	973.159
104.045	13.081	1290.966	972.453
105.060	13.159	1289.107	971.426
106.074	12.963	1288.308	969.584
107.089	12.952	1286.527	968.096
108.103	13.081	1285.076	967.675
109.118	13.005	1283.976	966.314
110.133	12.938	1282.626	964.817
111.147	13.033	1281.034	964.090
112.162	13.108	1279.817	963.528
113.176	12.998	1279.286	962.401
114.191	13.000	1278.408	961.668
115.206	13.042	1276.799	960.619
116.220	13.108	1275.109	959.645
117.235	13.004	1274.665	958.623
118.249	12.886	1273.745	957.157
119.264	12.956	1272.648	956.656
120.279	12.963	1271.524	955.768
121.293	12.956	1270.815	955.111
122.308	12.928	1269.637	953.980
123.322	12.894	1268.603	952.921
124.337	12.753	1267.560	951.239
125.352	12.982	1266.060	951.346
126.366	12.916	1264.739	949.892
127.381	12.914	1263.950	949.203
128.395	12.826	1263.370	948.175
129.410	12.885	1262.417	947.719
130.424	13.023	1260.794	947.209
131.439	13.027	1260.573	946.977
132.454	13.024	1259.182	945.835
133.468	12.991	1258.501	945.052
134.483	12.958	1258.294	944.622
135.497	13.000	1256.870	943.710
136.512	13.070	1255.346	942.883
137.527	13.038	1253.940	941.557
138.541	13.022	1252.681	940.438
139.556	13.002	1251.745	939.538
140.570	13.129	1250.460	939.218
141.585	13.188	1248.979	938.354
142.600	13.115	1248.199	937.273
143.614	13.203	1247.358	937.054
144.629	13.268	1246.576	936.757
145.643	13.208	1245.430	935.470
146.658	13.243	1243.849	934.397
147.673	13.123	1243.058	933.041
148.687	13.107	1241.617	931.786
149.702	13.107	1240.071	930.543
150.716	13.047	1238.736	929.123
151.731	13.145	1237.252	928.479
152.746	13.164	1236.395	927.861
153.760	13.182	1235.343	927.087
154.775	13.224	1234.334	926.488
155.789	13.188	1233.533	925.604
156.804	13.377	1232.043	925.458
157.819	13.264	1231.087	924.028
158.833	13.337	1230.299	923.762
159.848	13.433	1229.385	923.530
160.862	13.424	1228.265	922.558
161.877	13.320	1226.665	920.694
162.892	13.307	1226.118	920.129
163.906	13.310	1224.882	919.137
164.921	13.293	1224.149	918.413
165.935	13.295	1223.170	917.605
166.950	13.233	1222.838	916.934
167.964	13.363	1221.931	916.890
168.979	13.250	1221.492	915.855
169.994	13.347	1220.182	915.332
171.008	13.359	1219.773	915.006
172.023	13.350	1219.382	914.586
173.037	13.443	1218.025	913.997
174.052	13.510	1216.896	913.439
175.067	13.361	1216.257	912.055
176.081	13.378	1214.921	911.071
177.096	13.316	1214.269	910.161
178.110	13.339	1213.083	909.314
179.125	13.357	1211.859	908.414
180.140	13.305	1211.096	907.477
181.154	13.426	1209.653	906.978
182.169	13.428	1208.564	906.093
183.183	13.488	1207.674	905.677
184.198	13.457	1206.410	904.477
185.213	13.555	1205.336	904.128
186.227	13.640	1203.859	903.401
187.242	13.695	1202.796	902.827
188.256	13.600	1202.384	901.919
189.271	13.661	1200.781	900.967
190.286	13.481	1200.177	899.459
191.300	13.365	1198.922	897.806
192.315	13.363	1198.201	897.178
193.329	13.396	1198.089	897.192
194.344	13.480	1197.271	896.956
195.359	13.498	1196.424	896.341
196.373	13.577	1196.092	896.441
197.388	13.701	1196.083	897.025
198.402	13.670	1195.777	896.545
199.417	13.729	1194.782	896.044
200.432	13.806	1194.047	895.828
201.446	13.879	1192.891	895.274
202.461	13.797	1192.326	894.328
203.475	13.891	1190.847	893.648
204.490	13.875	1189.511	892.476
205.504	13.786	1188.615	891.251
206.519	13.707	1187.634	890.012
207.534	13.769	1186.265	889.239
208.548	13.781	1185.652	888.764
209.563	13.761	1184.933	888.039
210.577	13.773	1184.073	887.381
211.592	13.874	1182.864	886.937
212.607	13.916	1182.107	886.516
213.621	13.840	1181.455	885.540
214.636	13.830	1180.191	884.463
215.650	13.956	1179.304	884.392
216.665	13.876	1178.419	883.220
217.680	13.881	1177.870	882.761
218.694	14.092	1176.503	882.779
219.709	14.115	1175.776	882.275
220.723	14.046	1175.362	881.519
221.738	13.997	1174.794	880.757
222.753	14.120	1173.608	880.442
223.767	14.091	1173.133	879.852
224.782	14.075	1172.744	879.399
225.796	14.263	1171.662	879.505
226.811	14.161	1171.247	878.574
227.826	14.136	1170.477	877.789
228.840	14.091	1169.563	876.787
229.855	14.144	1169.091	876.634
230.869	14.153	1168.244	875.971
231.884	14.017	1167.560	874.664
232.899	14.072	1166.307	873.939
233.913	14.138	1165.615	873.688
234.928	14.073	1165.071	872.861
235.942	14.035	1164.232	871.959
236.957	14.076	1163.663	871.671
237.972	14.146	1162.612	871.169
238.986	14.135	1162.332	870.826
240.001	14.117	1161.622	870.124
241.015	14.101	1160.852	869.384
242.030	14.125	1159.698	868.569
243.045	14.189	1159.174	868.432
244.059	14.173	1158.762	867.964
245.074	14.134	1157.592	866.810
246.088	14.129	1156.821	866.129
247.103	14.270	1156.007	866.177
248.117	14.293	1155.238	865.642
249.132	14.449	1154.469	865.799
250.147	14.563	1153.812	865.823
251.161	14.573	1153.272	865.394
252.176	14.553	1152.429	864.583
253.190	14.633	1151.598	864.296
254.205	14.605	1151.449	863.961
255.220	14.648	1150.876	863.678
256.234	14.703	1150.102	863.306
257.249	14.676	1149.322	862.505
258.263	14.676	1148.824	862.052
259.278	14.724	1148.127	861.703
260.293	14.757	1147.254	861.138
261.307	14.774	1146.865	860.859
262.322	14.731	1146.324	860.154
263.336	14.895	1145.120	860.019
264.351	14.732	1144.678	858.773
265.366	14.914	1144.293	859.347
266.380	14.841	1143.678	858.434
267.395	14.804	1142.599	857.354
268.409	14.702	1142.277	856.518
269.424	14.770	1141.608	856.289
270.439	14.826	1140.408	855.595
271.453	14.802	1140.030	855.118
272.468	14.831	1139.210	854.572
273.482	14.789	1138.269	853.575
274.497	14.824	1137.434	853.055
275.512	14.838	1136.954	852.690
276.526	14.886	1136.097	852.217
277.541	14.897	1135.493	851.743
278.555	14.863	1134.401	850.677
279.570	14.907	1134.328	850.769
280.585	14.975	1133.564	850.469
281.599	14.969	1132.782	849.774
282.614	14.997	1131.370	848.785
283.628	14.998	1130.482	848.049
284.643	14.990	1129.839	847.450
285.657	14.985	1129.013	846.728
286.672	15.014	1127.880	845.952
287.687	14.922	1127.141	844.859
288.701	15.122	1126.535	845.336
289.716	15.040	1125.826	844.315
290.730	15.133	1124.921	844.032
291.745	15.176	1123.925	843.428
292.760	15.227	1123.010	842.922
293.774	15.206	1122.806	842.586
294.789	15.185	1122.529	842.199
295.803	15.180	1121.728	841.502
296.818	15.263	1120.538	840.950
297.833	15.145	1120.228	840.048
298.847	15.187	1119.523	839.660
299.862	15.226	1118.792	839.231
300.876	15.129	1118.061	838.122
301.891	15.249	1117.522	838.244
302.906	15.398	1116.788	838.365
303.920	15.333	1116.238	837.554
304.935	15.408	1115.313	837.161
305.949	15.581	1114.376	837.245
306.964	15.417	1114.162	836.191
307.979	15.399	1113.389	835.451
308.993	15.377	1112.680	834.730
310.008	15.433	1112.042	834.459
311.022	15.492	1111.293	834.115
312.037	15.501	1110.119	833.204
313.052	15.491	1108.967	832.219
314.066	15.421	1108.358	831.341
315.081	15.267	1107.529	829.884
316.095	15.305	1106.761	829.420
317.110	15.501	1105.590	829.439
318.125	15.350	1105.560	828.597
319.139	15.377	1104.134	827.586
320.154	15.327	1104.125	827.264
321.168	15.447	1103.256	827.127
322.183	15.341	1103.011	826.349
323.197	15.280	1102.432	825.544
324.212	15.463	1101.377	825.581
325.227	15.471	1100.824	825.132
326.241	15.492	1100.534	824.943
327.256	15.543	1099.200	824.123
328.270	15.384	1098.439	822.700
329.285	15.410	1097.767	822.250
330.300	15.644	1096.493	822.367
331.314	15.465	1095.806	820.903
332.329	15.538	1095.033	820.610
333.343	15.438	1094.253	819.463
334.358	15.595	1093.080	819.278
335.373	15.685	1092.523	819.226
336.387	15.674	1091.722	818.502
337.402	15.568	1091.197	817.518
338.416	15.716	1090.463	817.617
339.431	15.699	1089.937	817.066
340.446	15.779	1089.329	816.929
341.460	15.874	1088.403	816.619
342.475	15.938	1087.627	816.279
343.489	15.931	1086.839	815.578
344.504	15.946	1085.714	814.737
345.519	15.918	1085.145	814.102
346.533	15.973	1084.211	813.595
347.548	16.004	1083.504	813.139
348.562	15.962	1083.113	812.573
349.577	16.013	1082.047	811.945
350.592	15.953	1081.254	810.992
351.606	15.914	1080.111	809.873
352.621	15.773	1079.780	808.876
353.635	15.907	1079.414	809.175
354.650	15.838	1078.345	807.970
355.665	15.972	1077.937	808.235
356.679	15.985	1077.329	807.770
357.694	15.893	1076.701	806.788
358.708	16.064	1075.863	806.909
359.723	16.040	1075.022	806.090
360.738	15.923	1074.662	805.190
361.752	16.104	1073.769	805.315
362.767	16.020	1073.415	804.575
363.781	16.085	1073.101	804.579
364.796	16.055	1072.404	803.841
365.810	16.266	1071.878	804.385
366.825	16.118	1071.648	803.433
367.840	16.195	1070.747	803.053
368.854	16.208	1070.313	802.718
369.869	16.267	1069.540	802.349
370.883	16.372	1068.137	801.724
371.898	16.281	1067.595	800.816
372.913	16.359	1066.967	800.643
373.927	16.461	1066.473	800.683
374.942	16.334	1066.452	799.997
375.956	16.293	1065.886	799.309
376.971	16.319	1065.223	798.864
377.986	16.452	1064.185	798.639
379.000	16.509	1063.764	798.524
380.015	16.572	1063.413	798.487
381.029	16.580	1062.738	797.946
382.044	16.539	1061.992	797.125
383.059	16.569	1061.307	796.681
384.073	16.650	1060.372	796.287
385.088	16.512	1059.912	795.226
386.102	16.597	1058.894	794.788
387.117	16.609	1057.621	793.821
388.132	16.499	1056.793	792.610
389.146	16.579	1056.074	792.377
390.161	16.579	1055.049	791.537
391.175	16.467	1054.563	790.582
392.190	16.531	1054.153	790.500
393.205	16.702	1053.056	790.406
394.219	16.600	1052.611	789.526
395.234	16.619	1051.758	788.905
396.248	16.519	1050.964	787.775
397.263	16.670	1049.494	787.304
398.278	16.472	1048.818	785.810
399.292	16.528	1048.363	785.659
400.307	16.570	1047.381	785.050
401.321	16.636	1046.948	784.963
402.336	16.721	1045.952	784.540
403.350	16.598	1045.642	783.667
404.365	16.643	1044.758	783.142
405.380	16.662	1044.322	782.835
406.394	16.701	1043.710	782.487
407.409	16.857	1042.644	782.341
408.423	16.902	1042.543	782.401
409.438	16.967	1041.196	781.618
410.453	16.918	1041.006	781.185
411.467	16.887	1040.346	780.474
412.482	16.863	1039.909	779.968
413.496	17.001	1038.644	779.586
414.511	16.972	1038.165	779.025
415.526	17.026	1037.924	779.023
416.540	17.060	1037.439	778.743
417.555	17.061	1037.149	778.461
418.569	17.020	1036.239	777.525
419.584	17.050	1035.934	777.364
420.599	17.031	1035.467	776.854
421.613	104.322	1325.330	1476.490
422.628	95.573	1367.519	1476.575
