DTS Sentinel unit serial number:	SN413079Multiplexer serial number:	ORYXHardware model number:	OX4-SRSoftware version number:	ORYX F/W v4.00 Oryx Data Collector v3.7.2.0data status	okinstallation	princeton_trtdifferential loss correction	single-endedforward channel	channel 2reverse channel	N/Adate	2019/09/17time	20:59:34forward acquisition time	60.00reverse acquisition time	0.00gamma	496.2192k internal	0.2337k external	0.2337temperature offset calibration	0.9985default loss term (dB/km)	0.3790temperature slope calibration	1.0000multiplexer offset coefficient	1.0000multiplexer slope coefficient	1.0000fibre end	0.00T internal ref (°C)	28.70T ext. ref 1 (°C)	0.20T ext. ref 2 (°C)	20.17length (m)	temperature (°C)	Stokes	anti-Stokes-747.200	13.120	-0.240	0.186
-746.185	268.624	0.139	0.244
-745.171	22.702	0.259	0.213
-744.156	-94.714	0.053	0.015
-743.142	44.623	0.168	-0.155
-742.127	-200.000	0.027	0.437
-741.112	342.702	0.179	0.352
-740.098	199.132	-0.201	0.310
-739.083	123.297	-0.091	0.115
-738.069	430.522	0.018	0.040
-737.054	96.807	0.215	-0.247
-736.039	-81.514	-0.196	-0.065
-735.025	-5.720	0.138	-0.095
-734.010	-64.462	0.118	-0.048
-732.996	16.167	-0.219	-0.173
-731.981	-97.112	-0.219	0.057
-730.966	-150.760	-0.202	0.015
-729.952	266.281	0.128	0.224
-728.937	-147.190	0.141	-0.012
-727.923	9.753	0.142	-0.108
-726.908	111.211	-0.081	-0.097
-725.894	-200.000	-0.042	-0.244
-724.879	-200.000	0.072	-0.343
-723.864	-16.157	-0.099	-0.063
-722.850	-135.038	-0.126	0.015
-721.835	-172.387	0.251	-0.008
-720.821	347.593	0.141	-0.278
-719.806	-200.000	-0.008	-0.348
-718.791	320.635	0.104	0.198
-717.777	157.355	0.048	0.066
-716.762	-7.682	0.189	-0.128
-715.748	21.250	0.091	-0.074
-714.733	381.054	-0.064	-0.131
-713.718	148.119	-0.201	0.272
-712.704	800.000	-0.058	0.169
-711.689	74.220	0.100	-0.105
-710.675	439.731	0.063	-0.137
-709.660	56.157	0.143	0.139
-708.645	-161.439	0.173	-0.009
-707.631	-164.775	-0.332	0.015
-706.616	-200.000	-0.044	-0.216
-705.602	104.688	-0.135	-0.160
-704.587	-109.443	-0.493	-0.105
-703.572	583.669	0.063	-0.155
-702.558	-138.853	-0.324	-0.035
-701.543	-185.561	0.098	-0.001
-700.529	154.395	0.181	-0.249
-699.514	-2.131	0.161	-0.114
-698.499	79.697	-0.212	-0.228
-697.485	-86.925	0.160	-0.049
-696.470	-99.503	0.614	-0.155
-695.456	-75.342	-0.042	-0.015
-694.441	272.173	-0.109	-0.193
-693.426	-83.162	0.171	-0.055
-692.412	206.407	0.145	-0.226
-691.397	19.656	-0.302	-0.244
-690.383	-40.499	0.063	0.033
-689.368	-13.866	-0.146	0.095
-688.354	-88.714	0.296	-0.088
-687.339	387.131	-0.126	-0.260
-686.324	228.409	0.119	-0.194
-685.310	-200.000	-0.011	0.089
-684.295	800.000	-0.047	-0.195
-683.281	660.417	0.100	0.258
-682.266	-200.000	-0.032	-0.201
-681.251	321.946	-0.088	-0.167
-680.237	84.837	0.116	-0.127
-679.222	-52.192	-0.072	0.034
-678.208	800.000	-0.121	0.335
-677.193	368.069	-0.110	0.222
-676.178	4.036	-0.111	0.082
-675.164	50.860	0.105	-0.100
-674.149	800.000	0.112	0.364
-673.135	365.971	0.067	-0.136
-672.120	252.923	0.174	-0.296
-671.105	-200.000	0.058	-0.309
-670.091	-125.992	-0.222	0.033
-669.076	-184.125	0.187	0.003
-668.062	-128.679	-0.191	0.027
-667.047	-52.807	0.120	-0.055
-666.032	-88.682	-0.376	-0.112
-665.018	-200.000	0.027	0.173
-664.003	-177.240	-0.172	0.004
-662.989	-102.327	-0.070	0.017
-661.974	150.305	-0.039	0.053
-660.959	-108.239	0.208	0.045
-659.945	-139.721	0.189	0.020
-658.930	-200.000	-0.044	-0.194
-657.916	412.818	-0.140	-0.298
-656.901	-19.919	0.148	0.091
-655.886	752.564	0.064	-0.173
-654.872	800.000	-0.031	-0.127
-653.857	-28.100	0.348	-0.201
-652.843	236.316	-0.075	0.124
-651.828	-200.000	-0.077	-0.421
-650.814	-200.000	0.039	-0.309
-649.799	-200.000	0.006	-0.261
-648.784	-1.778	0.095	0.067
-647.770	-175.216	-0.176	0.005
-646.755	-200.000	0.014	0.202
-645.741	-144.717	0.249	0.023
-644.726	-72.061	0.214	-0.080
-643.711	-19.349	-0.068	-0.042
-642.697	-2.479	-0.081	-0.057
-641.682	-30.655	0.138	0.078
-640.668	35.415	-0.153	-0.135
-639.653	463.845	-0.135	-0.301
-638.638	800.000	-0.095	-0.331
-637.624	203.628	-0.043	-0.067
-636.609	-200.000	-0.046	-0.331
-635.595	15.799	-0.202	0.159
-634.580	255.010	0.271	-0.463
-633.565	-88.220	-0.291	-0.087
-632.551	593.750	0.074	-0.182
-631.536	506.792	-0.147	-0.341
-630.522	-200.000	0.043	0.249
-629.507	723.672	0.135	0.358
-628.492	-47.261	0.199	-0.097
-627.478	230.388	-0.117	0.191
-626.463	-58.145	0.281	-0.122
-625.449	-137.479	-0.332	-0.038
-624.434	-137.214	-0.125	0.014
-623.419	192.054	0.152	-0.229
-622.405	-200.000	0.003	0.144
-621.390	545.520	-0.041	0.099
-620.376	-45.884	-0.478	-0.236
-619.361	197.960	-0.046	0.070
-618.346	36.443	0.289	-0.255
-617.332	-200.000	-0.004	-0.223
-616.317	98.220	0.140	-0.162
-615.303	-200.000	-0.033	-0.473
-614.288	1.370	-0.227	0.163
-613.273	118.525	0.168	0.207
-612.259	18.370	-0.134	0.107
-611.244	43.445	0.233	0.212
-610.230	-2.055	0.143	-0.100
-609.215	-200.000	0.040	-0.322
-608.201	-200.000	0.030	-0.248
-607.186	23.694	0.080	0.066
-606.171	800.000	0.019	0.063
-605.157	248.742	-0.099	-0.168
-604.142	531.854	-0.040	-0.094
-603.128	-117.343	0.095	0.017
-602.113	25.605	-0.159	0.132
-601.098	218.208	0.088	-0.140
-600.084	-200.000	-0.016	0.204
-599.069	-73.680	-0.252	0.091
-598.055	-200.000	-0.029	-0.293
-597.040	220.131	0.020	0.031
-596.025	258.311	0.115	0.197
-595.011	-102.805	-0.204	0.048
-593.996	63.355	0.098	0.098
-592.982	120.564	-0.252	-0.313
-591.967	252.695	0.051	0.086
-590.952	-31.623	0.104	0.059
-589.938	-200.000	-0.022	0.274
-588.923	-151.236	-0.270	0.020
-587.909	238.625	-0.119	-0.198
-586.894	-72.557	-0.098	0.036
-585.879	771.583	0.099	-0.270
-584.865	13.117	-0.119	-0.092
-583.850	144.013	0.176	0.234
-582.836	-72.957	0.270	-0.099
-581.821	-55.407	-0.271	-0.121
-580.806	800.000	0.085	0.288
-579.792	203.059	-0.196	-0.303
-578.777	-200.000	-0.008	-0.205
-577.763	-45.647	-0.306	0.151
-576.748	267.980	-0.128	0.224
-575.733	-200.000	-0.037	-0.176
-574.719	54.359	-0.257	-0.247
-573.704	-200.000	0.028	-0.366
-572.690	-109.930	0.357	0.075
-571.675	-90.851	0.329	-0.094
-570.661	800.000	-0.071	-0.244
-569.646	-126.786	-0.215	-0.032
-568.631	53.293	0.164	-0.157
-567.617	292.058	0.030	0.054
-566.602	-57.571	0.123	0.054
-565.588	-200.000	-0.041	0.340
-564.573	-200.000	0.037	-0.173
-563.558	-200.000	-0.104	0.636
-562.544	240.104	-0.131	-0.218
-561.529	-30.142	0.150	0.085
-560.515	83.525	0.277	-0.301
-559.500	21.361	-0.216	-0.175
-558.485	446.936	-0.099	-0.218
-557.471	-200.000	-0.001	0.132
-556.456	-200.000	0.003	0.100
-555.442	-37.502	-0.062	-0.033
-554.427	389.112	-0.105	0.217
-553.412	327.530	-0.190	-0.363
-552.398	800.000	-0.111	-0.452
-551.383	-200.000	-0.005	0.500
-550.369	-82.698	-0.175	0.056
-549.354	800.000	0.060	-0.257
-548.339	742.126	0.198	-0.532
-547.325	-18.482	-0.054	0.033
-546.310	-145.598	0.247	0.022
-545.296	-126.894	-0.133	-0.020
-544.281	-133.054	-0.095	-0.012
-543.266	-119.959	0.278	-0.048
-542.252	-84.107	0.350	0.111
-541.237	800.000	0.086	-0.254
-540.223	-54.477	-0.367	0.165
-539.208	129.041	-0.111	0.141
-538.193	25.631	-0.116	-0.096
-537.179	-109.538	-0.163	0.034
-536.164	64.929	0.169	0.170
-535.150	252.153	0.078	-0.132
-534.135	-200.000	-0.014	-0.133
-533.121	800.000	-0.068	0.257
-532.106	-7.755	-0.194	-0.131
-531.091	-163.125	0.219	0.011
-530.077	535.106	-0.046	0.109
-529.062	328.819	-0.190	-0.364
-528.048	-1.865	0.019	-0.013
-527.033	-200.000	-0.119	-0.548
-526.018	52.698	0.057	0.054
-525.004	124.063	-0.155	-0.194
-523.989	-200.000	-0.022	-0.143
-522.975	-150.134	-0.167	-0.013
-521.960	-43.004	0.076	-0.038
-520.945	-48.078	0.414	0.199
-519.931	-56.917	0.128	0.056
-518.916	-82.272	0.145	0.047
-517.902	800.000	-0.087	0.350
-516.887	37.542	-0.100	-0.088
-515.872	-200.000	-0.025	-0.118
-514.858	-81.048	-0.333	0.110
-513.843	-200.000	-0.018	0.255
-512.829	136.503	-0.082	0.106
-511.814	-161.630	-0.285	0.014
-510.799	334.175	-0.117	0.224
-509.785	351.634	0.171	-0.338
-508.770	-37.072	0.176	0.094
-507.756	-200.000	0.028	0.165
-506.741	-116.355	0.396	-0.073
-505.726	-103.738	0.119	-0.028
-504.712	-200.000	0.052	0.365
-503.697	-200.000	-0.029	0.503
-502.683	-7.293	0.116	0.078
-501.668	800.000	0.064	-0.193
-500.653	-34.182	-0.298	-0.163
-499.639	-108.504	-0.230	0.049
-498.624	-76.732	-0.339	0.118
-497.610	-112.989	0.568	0.112
-496.595	164.534	0.115	0.161
-495.581	-200.000	0.026	0.276
-494.566	-11.054	-0.118	0.077
-493.551	-93.399	-0.131	-0.036
-492.537	800.000	0.042	-0.144
-491.522	-200.000	-0.026	-0.272
-490.508	-123.993	0.081	0.013
-489.493	-200.000	0.081	0.468
-488.478	37.025	-0.046	-0.041
-487.464	93.177	0.256	0.288
-486.449	425.325	-0.103	0.221
-485.435	-75.850	-0.032	-0.011
-484.420	-64.043	0.229	-0.093
-483.405	261.814	0.047	-0.081
-482.391	73.379	0.106	0.110
-481.376	-73.508	-0.148	0.054
-480.362	800.000	0.044	-0.169
-479.347	333.443	0.203	-0.390
-478.332	-118.412	-0.333	-0.059
-477.318	-200.000	-0.001	0.108
-476.303	-45.333	0.143	0.070
-475.289	-200.000	0.040	-0.288
-474.274	-25.294	-0.030	0.017
-473.259	145.630	-0.046	0.061
-472.245	67.522	0.193	-0.196
-471.230	-78.717	-0.247	-0.084
-470.216	-200.000	0.028	0.133
-469.201	-2.522	0.640	0.445
-468.186	-66.398	-0.167	-0.066
-467.172	12.993	0.167	-0.128
-466.157	10.508	-0.199	-0.150
-465.143	-132.425	0.054	0.007
-464.128	-200.000	-0.005	0.070
-463.113	-200.000	0.021	0.230
-462.099	-28.814	-0.263	0.150
-461.084	-200.000	-0.037	0.353
-460.070	-21.458	0.040	0.024
-459.055	-15.780	-0.155	-0.098
-458.040	276.768	-0.100	-0.176
-457.026	140.000	-0.052	-0.068
-456.011	800.000	0.080	0.243
-454.997	-54.430	0.249	0.112
-453.982	-109.024	-0.263	-0.056
-452.968	-200.000	-0.015	0.215
-451.953	-117.685	-0.484	-0.086
-450.938	15.887	-0.153	-0.119
-449.924	162.480	0.100	0.140
-448.909	74.978	-0.284	0.297
-447.895	-173.182	0.068	-0.002
-446.880	100.382	0.344	-0.396
-445.865	-37.762	0.060	0.031
-444.851	28.758	-0.297	-0.249
-443.836	-200.000	0.034	-0.430
-442.822	-63.607	0.272	-0.111
-441.807	127.742	-0.148	-0.187
-440.792	267.430	-0.142	0.247
-439.778	-164.610	0.049	0.002
-438.763	800.000	-0.045	0.150
-437.749	-165.860	0.306	-0.013
-436.734	-158.758	-0.411	-0.023
-435.719	-200.000	-0.027	-0.131
-434.705	-6.470	-0.232	-0.157
-433.690	-200.000	-0.023	0.195
-432.676	265.590	0.149	0.258
-431.661	597.971	0.069	-0.170
-430.646	800.000	0.025	-0.097
-429.632	800.000	-0.006	0.017
-428.617	316.127	0.166	-0.312
-427.603	-35.461	0.390	0.210
-426.588	-165.975	-0.146	0.006
-425.573	-200.000	-0.047	0.240
-424.559	-112.732	-0.196	-0.039
-423.544	-34.013	0.133	-0.073
-422.530	39.122	0.118	-0.105
-421.515	-200.000	0.009	-0.264
-420.500	-144.287	-0.386	-0.036
-419.486	-47.097	-0.243	-0.118
-418.471	-48.594	-0.257	-0.123
-417.457	-55.915	-0.023	0.010
-416.442	611.939	0.067	-0.165
-415.428	1.695	-0.272	-0.194
-414.413	-86.414	-0.224	-0.068
-413.398	-102.424	-0.285	0.068
-412.384	-86.495	0.156	0.048
-411.369	-200.000	-0.024	-0.302
-410.355	35.000	0.135	-0.117
-409.340	800.000	0.065	-0.241
-408.325	472.655	-0.041	-0.091
-407.311	-200.000	-0.046	-0.435
-406.296	-101.405	0.159	-0.038
-405.282	800.000	-0.122	-0.343
-404.267	-105.941	0.052	-0.012
-403.252	68.663	0.069	-0.070
-402.238	-111.496	-0.122	-0.025
-401.223	-45.572	0.346	0.170
-400.209	394.615	-0.167	0.344
-399.194	-101.173	0.176	0.043
-398.179	-74.450	-0.135	-0.048
-397.165	-200.000	-0.000	-0.066
-396.150	36.325	0.037	0.032
-395.136	284.989	0.309	0.550
-394.121	-165.030	0.080	0.004
-393.106	-45.546	-0.176	0.086
-392.092	-10.695	-0.072	0.047
-391.077	-89.129	-0.284	0.083
-390.063	-55.219	0.172	-0.076
-389.048	15.612	-0.188	0.147
-388.033	-171.776	-0.097	-0.003
-387.019	-200.000	-0.040	0.328
-386.004	193.074	-0.091	0.136
-384.990	129.688	-0.266	0.336
-383.975	197.065	0.114	0.173
-382.960	-200.000	0.013	0.144
-381.946	-19.391	-0.250	0.154
-380.931	-26.011	-0.194	-0.113
-379.917	-146.288	0.180	-0.016
-378.902	800.000	0.088	-0.354
-377.888	-17.491	0.119	-0.074
-376.873	30.888	0.192	-0.163
-375.858	-50.861	0.126	-0.058
-374.844	-113.927	0.259	0.050
-373.829	603.368	0.088	0.217
-372.815	-108.222	0.198	0.042
-371.800	-132.106	-0.232	0.030
-370.785	332.429	0.036	-0.069
-369.771	485.096	-0.208	0.468
-368.756	-53.584	0.128	-0.058
-367.742	-105.256	0.314	0.071
-366.727	-200.000	0.003	0.037
-365.712	6.947	0.247	-0.182
-364.698	60.902	-0.148	-0.146
-363.683	-62.211	0.217	-0.089
-362.669	-25.127	-0.302	-0.177
-361.654	-126.619	0.271	-0.040
-360.639	-200.000	-0.033	0.155
-359.625	800.000	0.155	0.489
-358.610	112.743	0.069	0.082
-357.596	49.778	-0.174	0.163
-356.581	-200.000	-0.003	-0.049
-355.566	-200.000	0.021	-0.142
-354.552	800.000	-0.097	-0.265
-353.537	800.000	0.053	-0.159
-352.523	-25.160	0.050	-0.029
-351.508	-107.160	-0.281	0.061
-350.493	401.869	0.095	-0.197
-349.479	-83.422	0.123	0.039
-348.464	19.128	-0.007	-0.005
-347.450	800.000	0.104	0.439
-346.435	606.836	0.098	0.241
-345.420	-47.534	0.430	0.207
-344.406	500.889	0.113	0.259
-343.391	8.313	-0.139	0.104
-342.377	-81.149	0.062	-0.020
-341.362	-200.000	0.033	-0.219
-340.348	-200.000	0.020	-0.198
-339.333	47.811	-0.184	0.170
-338.318	800.000	0.031	0.102
-337.304	-61.605	-0.181	-0.075
-336.289	44.355	-0.079	0.072
-335.275	85.707	-0.213	-0.231
-334.260	-37.702	-0.060	0.032
-333.245	800.000	-0.010	0.039
-332.231	-200.000	0.036	-0.383
-331.216	-2.224	-0.027	-0.019
-330.202	-73.609	-0.167	-0.060
-329.187	-136.973	-0.090	0.010
-328.172	-12.573	-0.245	0.158
-327.158	-64.759	0.028	0.011
-326.143	-200.000	-0.024	0.220
-325.129	-200.000	-0.008	-0.068
-324.114	91.065	-0.084	-0.093
-323.099	800.000	-0.091	0.345
-322.085	-158.398	-0.155	0.009
-321.070	124.147	-0.095	0.118
-320.056	-200.000	-0.051	-0.328
-319.041	175.831	0.048	-0.069
-318.026	-120.667	-0.272	0.045
-317.012	-25.386	-0.204	-0.119
-315.997	137.642	-0.090	0.116
-314.983	58.616	0.202	0.196
-313.968	148.718	-0.120	-0.161
-312.953	-140.527	-0.284	-0.029
-311.939	-200.000	-0.023	0.164
-310.924	800.000	0.080	0.224
-309.910	33.030	0.354	0.303
-308.895	320.609	-0.169	0.317
-307.880	43.281	-0.194	0.175
-306.866	-63.969	-0.270	-0.109
-305.851	-178.729	0.296	-0.007
-304.837	-122.032	0.075	0.012
-303.822	-57.035	-0.165	0.072
-302.807	-118.496	-0.158	-0.028
-301.793	715.071	-0.051	-0.134
-300.778	-200.000	0.002	-0.240
-299.764	-74.005	0.054	-0.019
-298.749	800.000	0.041	0.140
-297.735	283.324	0.089	0.158
-296.720	71.650	0.162	0.166
-295.705	29.981	-0.362	-0.304
-294.691	235.266	0.125	0.204
-293.676	800.000	0.054	0.155
-292.662	-131.465	-0.210	-0.027
-291.647	-200.000	0.027	0.187
-290.632	779.486	-0.025	-0.068
-289.618	135.902	-0.068	-0.087
-288.603	-200.000	-0.012	-0.086
-287.589	0.790	0.408	0.288
-286.574	-8.285	0.102	-0.068
-285.559	-91.847	-0.153	-0.043
-284.545	-106.499	-0.180	-0.040
-283.530	3.117	0.161	-0.115
-282.516	8.922	0.154	0.114
-281.501	800.000	0.072	-0.200
-280.486	-97.823	0.142	0.036
-279.472	16.437	0.070	0.054
-278.457	-200.000	0.018	-0.172
-277.443	180.644	-0.103	0.149
-276.428	24.220	0.157	0.128
-275.413	178.751	0.209	0.300
-274.399	-139.600	-0.214	0.023
-273.384	-200.000	-0.019	-0.235
-272.370	-52.207	-0.114	0.052
-271.355	800.000	-0.115	0.366
-270.340	800.000	0.064	-0.237
-269.326	-62.633	-0.055	0.023
-268.311	193.967	-0.034	-0.051
-267.297	103.084	0.119	0.138
-266.282	-50.873	0.298	0.138
-265.267	-188.855	0.087	-0.001
-264.253	88.461	-0.194	-0.212
-263.238	-112.364	0.458	-0.090
-262.224	70.908	-0.131	0.134
-261.209	238.970	0.144	-0.235
-260.195	800.000	-0.075	0.222
-259.180	144.389	-0.169	-0.222
-258.165	-200.000	0.058	-0.339
-257.151	-50.955	0.201	-0.093
-256.136	100.635	0.177	-0.202
-255.122	185.902	0.208	0.304
-254.107	152.191	-0.149	-0.200
-253.092	-53.239	-0.143	0.065
-252.078	800.000	-0.063	-0.190
-251.063	-200.000	-0.023	-0.199
-250.049	-81.032	0.407	0.133
-249.034	-43.495	-0.074	0.037
-248.019	698.334	0.087	0.226
-247.005	-125.151	0.198	-0.030
-245.990	-33.380	-0.227	-0.124
-244.976	-100.226	0.375	0.092
-243.961	-200.000	0.039	-0.387
-242.946	92.413	0.184	-0.204
-241.932	169.124	-0.186	-0.262
-240.917	723.765	0.066	-0.174
-239.903	800.000	0.099	-0.278
-238.888	-22.943	0.060	-0.036
-237.873	-170.932	0.246	0.008
-236.859	53.685	0.206	-0.194
-235.844	-112.161	0.469	0.093
-234.830	195.698	-0.239	0.357
-233.815	-80.880	-0.067	0.022
-232.800	280.467	0.208	0.367
-231.786	-86.641	-0.264	0.080
-230.771	-200.000	0.055	0.427
-229.757	236.224	0.055	0.090
-228.742	-178.651	-0.118	0.003
-227.727	-121.949	0.193	-0.031
-226.713	-110.316	0.148	0.030
-225.698	3.799	-0.062	-0.045
-224.684	21.426	-0.129	0.103
-223.669	117.057	-0.157	0.189
-222.655	-68.615	0.263	0.100
-221.640	76.816	0.343	-0.358
-220.625	-200.000	-0.011	0.317
-219.611	-71.374	-0.224	0.083
-218.596	-55.268	0.054	-0.024
-217.582	383.539	-0.030	-0.062
-216.567	-23.534	0.251	-0.148
-215.552	-171.326	-0.446	-0.015
-214.538	3.203	0.004	0.003
-213.523	800.000	-0.052	0.206
-212.509	57.975	-0.202	0.195
-211.494	800.000	-0.073	0.209
-210.479	800.000	-0.008	0.024
-209.465	-200.000	0.002	0.188
-208.450	-200.000	-0.028	0.141
-207.436	598.084	-0.171	-0.417
-206.421	-71.377	-0.155	-0.057
-205.406	-143.425	0.287	0.027
-204.392	-47.500	0.101	-0.048
-203.377	-200.000	0.052	-0.337
-202.363	112.057	0.175	0.208
-201.348	800.000	0.081	0.328
-200.333	800.000	0.061	0.220
-199.319	-41.845	0.132	0.067
-198.304	-200.000	0.011	0.202
-197.290	-76.320	-0.120	-0.042
-196.275	-200.000	0.083	-0.583
-195.260	-186.462	0.124	0.002
-194.246	31.384	0.161	0.136
-193.231	106.365	0.197	0.229
-192.217	99.041	-0.061	0.069
-191.202	98.764	0.187	-0.212
-190.187	154.933	0.039	0.052
-189.173	101.189	0.123	0.141
-188.158	-74.736	-0.222	-0.078
-187.144	-17.193	0.301	0.186
-186.129	-200.000	-0.055	0.379
-185.114	387.738	-0.122	-0.249
-184.100	-200.000	-0.022	0.145
-183.085	-200.000	-0.012	0.204
-182.071	246.511	-0.059	0.098
-181.056	-200.000	0.018	-0.116
-180.042	-45.456	0.176	0.086
-179.027	132.931	0.141	0.179
-178.012	59.561	-0.149	0.144
-176.998	-171.050	-0.266	0.009
-175.983	17.464	0.116	-0.090
-174.969	-200.000	0.060	0.287
-173.954	632.491	0.081	0.201
-172.939	244.549	-0.138	-0.228
-171.925	-39.376	-0.234	-0.120
-170.910	401.259	-0.026	0.053
-169.896	-200.000	-0.014	0.490
-168.881	-200.000	0.084	0.425
-167.866	-131.685	-0.312	-0.040
-166.852	-200.000	0.019	-0.240
-165.837	378.394	-0.174	-0.350
-164.823	682.439	-0.056	-0.143
-163.808	-200.000	-0.008	0.047
-162.793	-92.450	0.014	-0.004
-161.779	23.273	0.130	0.105
-160.764	325.330	0.112	0.210
-159.750	-200.000	-0.026	-0.302
-158.735	-44.232	0.073	0.036
-157.720	800.000	0.083	-0.254
-156.706	256.005	0.073	0.122
-155.691	221.204	0.036	0.057
-154.677	205.251	-0.092	-0.141
-153.662	-114.991	0.206	0.038
-152.647	-50.679	0.113	0.052
-151.633	800.000	-0.032	-0.099
-150.618	405.038	-0.178	0.368
-149.604	-143.799	0.043	-0.004
-148.589	-200.000	-0.037	0.408
-147.574	-51.502	0.179	-0.082
-146.560	-101.897	0.241	0.057
-145.545	-118.811	-0.497	0.086
-144.531	24.510	-0.069	0.056
-143.516	164.219	-0.158	0.219
-142.502	-200.000	0.028	0.276
-141.487	-172.511	-0.363	-0.011
-140.472	-50.556	0.077	-0.035
-139.458	800.000	0.095	0.308
-138.443	-63.713	-0.026	0.010
-137.429	-200.000	-0.046	0.326
-136.414	67.220	0.137	-0.137
-135.399	-137.184	0.134	-0.015
-134.385	-200.000	-0.021	-0.202
-133.370	19.433	0.316	-0.249
-132.356	10.626	-0.130	-0.097
-131.341	210.254	-0.203	-0.312
-130.326	212.626	-0.043	0.066
-129.312	-200.000	0.019	-0.141
-128.297	-93.805	-0.329	-0.089
-127.283	-200.000	-0.065	0.285
-126.268	-117.893	-0.396	0.070
-125.253	-200.000	-0.005	0.268
-124.239	-78.608	0.210	-0.070
-123.224	-21.304	-0.212	-0.127
-122.210	-200.000	-0.032	0.221
-121.195	75.880	0.151	0.156
-120.180	-27.295	0.182	0.104
-119.166	-195.826	0.021	0.000
-118.151	-182.636	0.243	-0.004
-117.137	-147.460	-0.240	0.020
-116.122	-200.000	-0.053	-0.526
-115.107	-103.341	-0.110	-0.026
-114.093	-93.359	0.008	0.002
-113.078	-65.313	-0.322	0.127
-112.064	-200.000	0.005	-0.432
-111.049	-137.632	-0.132	0.015
-110.034	800.000	-0.048	-0.200
-109.020	292.843	0.170	0.304
-108.005	53.014	-0.068	0.064
-106.991	-24.544	0.189	-0.110
-105.976	453.988	-0.031	-0.067
-104.962	800.000	0.047	0.134
-103.947	30.544	-0.158	0.132
-102.932	13.098	0.364	-0.276
-101.918	-200.000	-0.036	0.180
-100.903	800.000	-0.113	0.312
-99.889	-40.638	0.348	-0.177
-98.874	-46.334	-0.286	0.138
-97.859	411.437	-0.017	-0.036
-96.845	-200.000	0.044	-0.362
-95.830	-189.233	-0.182	-0.002
-94.816	-100.308	-0.135	0.033
-93.801	-1.594	0.150	0.104
-92.786	-200.000	-0.004	-0.137
-91.772	-146.703	-0.140	0.012
-90.757	-88.132	0.294	0.086
-89.743	592.117	-0.010	-0.025
-88.728	-200.000	-0.023	-0.168
-87.713	-200.000	0.006	-0.461
-86.699	-66.506	0.346	-0.134
-85.684	-17.575	-0.206	-0.127
-84.670	-200.000	-0.014	0.211
-83.655	-6.775	0.230	0.153
-82.640	-47.940	0.168	-0.080
-81.626	-149.121	-0.168	0.013
-80.611	763.034	0.052	0.137
-79.597	-200.000	-0.070	-0.405
-78.582	-93.693	0.052	-0.014
-77.567	-23.141	-0.045	-0.026
-76.553	170.900	-0.139	0.195
-75.538	-70.662	-0.205	0.076
-74.524	-10.231	0.293	-0.190
-73.509	800.000	0.078	0.326
-72.494	100.917	0.163	0.185
-71.480	-200.000	-0.005	0.073
-70.465	-18.144	0.149	-0.091
-69.451	-102.715	-0.170	0.040
-68.436	227.903	-0.068	0.108
-67.422	-38.701	0.365	0.189
-66.407	-94.001	0.194	-0.052
-65.392	-17.477	0.102	-0.063
-64.378	599.767	-0.045	0.109
-63.363	-184.594	0.171	-0.003
-62.349	759.219	0.099	0.263
-61.334	162.403	-0.780	-1.070
-60.319	60.211	0.568	0.549
-59.305	800.000	-0.471	-1.388
-58.290	185.525	0.787	1.143
-57.276	800.000	0.347	1.205
-56.261	-200.000	111.367	667.972
-55.246	525.365	1467.637	3376.203
-54.232	153.399	2634.687	3525.128
-53.217	100.914	2264.821	2573.789
-52.203	37.842	1887.046	1638.558
-51.188	31.913	1682.679	1416.437
-50.173	29.343	1641.676	1362.899
-49.159	52.078	1695.134	1578.207
-48.144	51.548	1710.284	1588.292
-47.130	31.738	1669.420	1403.741
-46.115	28.720	1656.001	1369.922
-45.100	28.611	1650.798	1364.753
-44.086	28.569	1648.340	1362.360
-43.071	28.569	1645.786	1360.193
-42.057	28.596	1643.415	1358.382
-41.042	28.588	1641.019	1356.290
-40.027	28.580	1639.108	1354.591
-39.013	28.570	1637.598	1353.222
-37.998	28.619	1636.105	1352.291
-36.984	28.555	1635.085	1350.923
-35.969	28.562	1633.953	1349.987
-34.954	28.648	1631.881	1348.854
-33.940	28.691	1630.002	1347.560
-32.925	28.644	1628.228	1345.695
-31.911	28.692	1626.527	1344.590
-30.896	28.671	1624.887	1343.028
-29.881	28.666	1623.130	1341.489
-28.867	28.663	1621.584	1340.130
-27.852	28.690	1620.347	1339.257
-26.838	28.731	1618.539	1338.002
-25.823	28.752	1617.015	1336.843
-24.809	28.772	1616.477	1336.497
-23.794	28.736	1614.534	1334.570
-22.779	28.667	1613.545	1333.203
-21.765	28.750	1611.205	1331.816
-20.750	28.718	1610.088	1330.610
-19.736	28.749	1608.481	1329.455
-18.721	28.805	1607.431	1328.934
-17.706	28.714	1606.241	1327.239
-16.692	28.745	1604.409	1325.901
-15.677	28.782	1602.855	1324.831
-14.663	28.782	1601.835	1323.934
-13.648	28.775	1600.556	1322.776
-12.633	28.790	1598.983	1321.531
-11.619	28.783	1597.133	1319.898
-10.604	28.776	1595.637	1318.559
-9.590	28.725	1595.427	1317.964
-8.575	28.742	1593.722	1316.627
-7.560	28.745	1592.637	1315.703
-6.546	28.718	1591.523	1314.538
-5.531	28.715	1590.289	1313.441
-4.517	28.657	1589.251	1312.115
-3.502	28.679	1588.241	1311.388
-2.487	28.804	1586.218	1310.558
-1.473	28.075	1574.188	1295.405
-0.458	24.352	1552.930	1251.789
0.556	18.244	1552.530	1212.082
1.571	15.434	1573.714	1208.303
2.586	14.714	1585.816	1212.267
3.600	13.388	1533.299	1162.706
4.615	7.624	1427.320	1044.446
5.629	1.551	1366.222	961.339
6.644	0.333	1358.601	948.238
7.659	0.193	1357.731	946.664
8.673	0.221	1356.431	945.849
9.688	0.063	1354.537	943.454
10.702	0.012	1351.019	940.604
11.717	2.891	1355.727	961.849
12.731	10.084	1366.440	1014.643
13.746	15.781	1374.259	1056.220
14.761	16.964	1375.125	1064.223
15.775	16.280	1372.468	1057.785
16.790	15.377	1369.914	1050.077
17.804	14.513	1368.157	1043.230
18.819	14.145	1366.740	1039.759
19.834	13.947	1365.689	1037.632
20.848	13.677	1364.313	1034.811
21.863	13.441	1362.957	1032.217
22.877	13.262	1361.777	1030.118
23.892	13.304	1360.612	1029.406
24.907	13.133	1360.245	1027.973
25.921	13.169	1359.269	1027.366
26.936	13.218	1358.367	1026.902
27.950	13.281	1357.470	1026.524
28.965	13.281	1356.301	1025.545
29.980	13.341	1355.230	1025.021
30.994	13.438	1354.373	1024.882
32.009	13.462	1353.546	1024.313
33.023	13.536	1352.429	1023.836
34.038	13.346	1351.684	1022.004
35.053	13.404	1349.914	1020.937
36.067	13.340	1349.259	1019.956
37.082	13.340	1348.652	1019.402
38.096	13.381	1347.699	1018.850
39.111	13.421	1346.596	1018.169
40.126	13.235	1346.331	1016.735
41.140	13.256	1345.150	1015.881
42.155	13.208	1344.871	1015.289
43.169	13.204	1344.210	1014.673
44.184	13.169	1344.117	1014.297
45.199	13.134	1344.471	1014.262
46.213	13.249	1343.231	1013.939
47.228	13.322	1342.349	1013.635
48.242	13.266	1341.244	1012.368
49.257	13.274	1339.832	1011.262
50.271	13.283	1338.226	1010.010
51.286	13.397	1336.856	1009.586
52.301	13.281	1335.805	1007.997
53.315	13.331	1334.623	1007.318
54.330	13.199	1333.952	1005.920
55.344	13.313	1332.694	1005.576
56.359	13.234	1331.585	1004.167
57.374	13.131	1330.914	1002.951
58.388	13.181	1330.272	1002.679
59.403	13.135	1330.268	1002.307
60.417	13.075	1329.093	1000.974
61.432	13.184	1327.899	1000.642
62.447	13.122	1327.102	999.578
63.461	13.073	1325.759	998.181
64.476	13.106	1325.209	997.877
65.490	13.023	1323.649	996.118
66.505	13.089	1321.786	995.022
67.520	13.127	1320.332	994.071
68.534	13.160	1319.295	993.398
69.549	13.156	1318.282	992.522
70.563	13.106	1317.630	991.649
71.578	13.033	1316.127	989.988
72.593	13.122	1315.330	989.836
73.607	13.096	1314.652	989.081
74.622	13.026	1313.783	987.919
75.636	13.059	1313.253	987.633
76.651	13.142	1312.015	987.108
77.666	13.025	1312.223	986.480
78.680	13.037	1311.418	985.858
79.695	13.023	1310.716	985.160
80.709	13.082	1309.819	984.753
81.724	13.252	1308.842	984.941
82.739	13.190	1308.109	983.934
83.753	13.292	1306.631	983.343
84.768	13.306	1305.719	982.651
85.782	13.287	1304.967	981.890
86.797	13.347	1303.511	981.059
87.812	13.295	1302.519	979.917
88.826	13.260	1302.031	979.259
89.841	13.360	1300.281	978.444
90.855	13.273	1299.291	977.103
91.870	13.323	1298.709	976.871
92.884	13.410	1297.563	976.437
93.899	13.384	1296.930	975.722
94.914	13.421	1296.258	975.345
95.928	13.410	1295.384	974.537
96.943	13.408	1294.542	973.806
97.957	13.302	1293.280	972.146
98.972	13.271	1292.511	971.305
99.987	13.313	1291.756	970.897
101.001	13.356	1290.705	970.271
102.016	13.352	1289.559	969.304
103.030	13.268	1288.998	968.300
104.045	13.408	1287.477	967.889
105.060	13.306	1286.954	966.819
106.074	13.228	1285.378	965.091
107.089	13.282	1283.829	964.158
108.103	13.186	1282.976	962.871
109.118	13.260	1281.330	961.986
110.133	13.223	1280.298	960.907
111.147	13.306	1278.850	960.217
112.162	13.229	1277.648	958.784
113.176	13.248	1276.763	958.144
114.191	13.272	1276.002	957.626
115.206	13.351	1274.253	956.689
116.220	13.261	1273.379	955.429
117.235	13.301	1272.463	954.890
118.249	13.218	1271.411	953.533
119.264	13.195	1269.929	952.205
120.279	13.278	1268.709	951.686
121.293	13.238	1267.678	950.598
122.308	13.174	1267.248	949.821
123.322	13.218	1265.703	948.832
124.337	13.216	1265.015	948.221
125.352	13.124	1264.107	946.932
126.366	13.175	1262.796	946.155
127.381	13.186	1261.401	945.091
128.395	13.274	1260.364	944.733
129.410	13.140	1259.413	943.170
130.424	13.223	1258.712	943.035
131.439	13.281	1257.803	942.603
132.454	13.372	1256.846	942.320
133.468	13.327	1255.754	941.163
134.483	13.314	1255.059	940.486
135.497	13.215	1253.966	939.017
136.512	13.186	1253.029	938.070
137.527	13.247	1251.657	937.306
138.541	13.378	1249.737	936.524
139.556	13.336	1248.614	935.364
140.570	13.398	1247.655	934.913
141.585	13.357	1246.630	933.831
142.600	13.342	1245.503	932.823
143.614	13.465	1244.654	932.796
144.629	13.527	1243.792	932.414
145.643	13.420	1242.631	930.861
146.658	13.324	1241.846	929.651
147.673	13.427	1240.017	928.778
148.687	13.316	1239.362	927.581
149.702	13.357	1237.913	926.647
150.716	13.339	1236.386	925.322
151.731	13.320	1235.347	924.357
152.746	13.384	1233.795	923.470
153.760	13.455	1232.820	923.054
154.775	13.501	1231.540	922.267
155.789	13.528	1230.377	921.465
156.804	13.524	1229.653	920.821
157.819	13.611	1228.556	920.403
158.833	13.513	1227.953	919.323
159.848	13.632	1226.954	919.156
160.862	13.595	1226.086	918.218
161.877	13.534	1224.940	916.938
162.892	13.531	1223.592	915.835
163.906	13.427	1222.984	914.721
164.921	13.544	1222.038	914.581
165.935	13.605	1220.715	913.848
166.950	13.634	1220.300	913.612
167.964	13.639	1219.147	912.700
168.979	13.543	1219.043	912.010
169.994	13.693	1217.907	911.907
171.008	13.649	1216.810	910.763
172.023	13.687	1216.251	910.470
173.037	13.669	1215.717	909.894
174.052	13.622	1214.771	908.845
175.067	13.658	1213.305	907.867
176.081	13.492	1212.914	906.584
177.096	13.606	1211.971	906.422
178.110	13.673	1210.776	905.813
179.125	13.642	1209.403	904.537
180.140	13.725	1208.075	903.919
181.154	13.639	1206.754	902.378
182.169	13.637	1205.781	901.563
183.183	13.734	1204.648	901.162
184.198	13.784	1203.500	900.493
185.213	13.709	1202.406	899.193
186.227	13.803	1201.276	898.778
187.242	13.911	1200.283	898.539
188.256	13.831	1199.326	897.310
189.271	13.820	1198.634	896.652
190.286	13.797	1197.145	895.337
191.300	13.622	1196.336	893.708
192.315	13.604	1195.743	893.086
193.329	13.690	1195.365	893.189
194.344	13.808	1194.479	893.086
195.359	13.822	1194.191	892.863
196.373	13.876	1193.789	892.778
197.388	13.851	1193.295	892.193
198.402	13.899	1192.749	891.961
199.417	14.077	1191.318	891.769
200.432	14.082	1190.592	891.172
201.446	14.095	1189.986	890.712
202.461	14.124	1188.780	889.884
203.475	14.039	1188.190	888.909
204.490	14.069	1186.645	887.838
205.504	14.060	1185.523	886.871
206.519	14.134	1184.649	886.530
207.534	14.120	1183.508	885.527
208.548	14.091	1182.130	884.259
209.563	14.077	1181.585	883.703
210.577	14.091	1180.783	883.094
211.592	14.140	1179.844	882.575
212.607	14.250	1179.088	882.518
213.621	14.187	1178.199	881.438
214.636	14.158	1176.992	880.303
215.650	14.341	1176.162	880.572
216.665	14.308	1175.525	879.845
217.680	14.342	1174.667	879.301
218.694	14.296	1173.623	878.204
219.709	14.325	1172.984	877.796
220.723	14.253	1172.307	876.837
221.738	14.318	1171.390	876.413
222.753	14.309	1171.036	876.026
223.767	14.313	1170.308	875.424
224.782	14.370	1169.556	875.081
225.796	14.340	1169.366	874.704
226.811	14.295	1168.735	873.919
227.826	14.369	1167.795	873.529
228.840	14.297	1167.088	872.545
229.855	14.318	1166.467	872.114
230.869	14.322	1165.144	871.068
231.884	14.369	1164.508	870.759
232.899	14.374	1163.561	870.000
233.913	14.412	1162.773	869.535
234.928	14.431	1162.234	869.151
235.942	14.360	1161.765	868.353
236.957	14.406	1160.738	867.751
237.972	14.423	1160.050	867.247
238.986	14.467	1159.327	866.858
240.001	14.471	1158.265	866.010
241.015	14.330	1158.253	865.193
242.030	14.526	1156.566	864.872
243.045	14.556	1155.911	864.460
244.059	14.523	1155.427	863.849
245.074	14.501	1154.458	862.937
246.088	14.477	1154.206	862.549
247.103	14.548	1153.113	862.020
248.117	14.610	1152.356	861.700
249.132	14.720	1151.515	861.562
250.147	14.815	1150.639	861.317
251.161	14.812	1150.094	860.819
252.176	14.749	1149.333	859.848
253.190	14.801	1148.650	859.531
254.205	14.827	1148.271	859.302
255.220	14.947	1147.619	859.355
256.234	14.863	1147.072	858.437
257.249	14.868	1146.330	857.831
258.263	14.973	1145.636	857.777
259.278	14.902	1144.960	856.830
260.293	14.874	1144.513	856.277
261.307	15.056	1143.740	856.556
262.322	14.954	1143.143	855.510
263.336	14.994	1142.380	855.069
264.351	15.014	1141.954	854.775
265.366	15.089	1140.979	854.351
266.380	15.063	1140.374	853.692
267.395	15.090	1139.472	853.077
268.409	15.165	1138.632	852.756
269.424	15.067	1138.403	852.009
270.439	15.045	1138.109	851.605
271.453	15.048	1137.057	850.754
272.468	15.105	1136.050	850.214
273.482	14.991	1135.498	849.151
274.497	15.056	1134.968	849.008
275.512	15.028	1134.314	848.300
276.526	15.068	1133.232	847.617
277.541	15.168	1132.664	847.625
278.555	15.077	1132.187	846.734
279.570	15.155	1131.328	846.407
280.585	15.267	1130.067	845.956
281.599	15.279	1129.466	845.494
282.614	15.244	1128.341	844.401
283.628	15.311	1127.333	843.908
284.643	15.312	1126.619	843.302
285.657	15.256	1125.703	842.261
286.672	15.294	1124.616	841.567
287.687	15.286	1123.577	840.673
288.701	15.275	1123.125	840.205
289.716	15.261	1122.698	839.741
290.730	15.388	1121.757	839.600
291.745	15.443	1120.964	839.207
292.760	15.371	1120.457	838.393
293.774	15.409	1120.064	838.213
294.789	15.408	1119.302	837.564
295.803	15.507	1118.372	837.286
296.818	15.319	1118.382	836.285
297.833	15.354	1117.266	835.549
298.847	15.487	1116.377	835.471
299.862	15.352	1115.743	834.253
300.876	15.480	1115.010	834.270
301.891	15.546	1114.458	834.110
302.906	15.563	1113.508	833.410
303.920	15.614	1112.561	832.880
304.935	15.590	1112.127	832.359
305.949	15.748	1111.359	832.492
306.964	15.759	1110.695	831.978
307.979	15.724	1109.992	831.206
308.993	15.661	1109.771	830.653
310.008	15.757	1108.642	830.208
311.022	15.718	1107.672	829.219
312.037	15.683	1107.104	828.544
313.052	15.679	1105.995	827.623
314.066	15.727	1105.271	827.245
315.081	15.774	1104.070	826.505
316.095	15.684	1103.584	825.624
317.110	15.778	1102.680	825.337
318.125	15.735	1101.880	824.453
319.139	15.746	1101.120	823.866
320.154	15.708	1101.169	823.642
321.168	15.757	1100.726	823.478
322.183	15.805	1099.841	822.979
323.197	15.728	1099.222	822.066
324.212	15.748	1098.652	821.665
325.227	15.797	1098.106	821.421
326.241	15.846	1097.615	821.223
327.256	15.852	1096.459	820.313
328.270	15.854	1095.864	819.808
329.285	15.937	1094.502	819.120
330.300	15.885	1093.538	818.073
331.314	15.783	1092.950	817.065
332.329	15.771	1092.018	816.235
333.343	15.857	1090.995	815.817
334.358	15.862	1090.525	815.418
335.373	16.016	1089.759	815.520
336.387	16.001	1088.679	814.564
337.402	15.962	1088.307	814.024
338.416	16.055	1087.746	813.983
339.431	16.045	1086.499	812.929
340.446	16.023	1086.474	812.731
341.460	16.124	1085.572	812.476
342.475	16.222	1084.546	812.104
343.489	16.204	1083.731	811.335
344.504	16.273	1082.756	810.867
345.519	16.152	1082.295	809.869
346.533	16.299	1081.425	809.850
347.548	16.280	1080.579	809.054
348.562	16.249	1079.971	808.380
349.577	16.289	1079.224	807.942
350.592	16.164	1078.525	806.748
351.606	16.185	1077.656	806.126
352.621	16.158	1077.119	805.525
353.635	16.143	1076.492	804.912
354.650	16.156	1075.557	804.207
355.665	16.212	1074.983	803.972
356.679	16.195	1074.691	803.602
357.694	16.362	1073.931	803.756
358.708	16.341	1073.127	802.982
359.723	16.378	1072.583	802.679
360.738	16.378	1072.119	802.263
361.752	16.344	1071.653	801.681
362.767	16.392	1070.905	801.281
363.781	16.467	1070.203	801.036
364.796	16.363	1069.478	799.934
365.810	16.452	1069.026	799.942
366.825	16.402	1068.891	799.535
367.840	16.554	1068.027	799.537
368.854	16.585	1067.337	799.096
369.869	16.623	1066.193	798.349
370.883	16.622	1065.524	797.773
371.898	16.470	1064.955	796.558
372.913	16.618	1064.220	796.639
373.927	16.644	1063.992	796.517
374.942	16.686	1063.346	796.159
375.956	16.636	1062.649	795.335
376.971	16.750	1062.022	795.328
377.986	16.721	1061.727	794.903
379.000	16.760	1061.042	794.501
380.015	16.747	1060.345	793.849
381.029	16.790	1059.443	793.304
382.044	16.834	1059.050	793.144
383.059	16.831	1058.168	792.400
384.073	16.917	1057.576	792.291
385.088	17.013	1056.683	791.996
386.102	16.848	1055.920	790.585
387.117	16.829	1054.826	789.611
388.132	16.815	1053.876	788.763
389.146	16.829	1053.238	788.283
390.161	16.803	1052.627	787.632
391.175	16.976	1051.364	787.420
392.190	16.785	1051.383	786.477
393.205	16.907	1050.396	786.239
394.219	16.885	1049.441	785.349
395.234	16.915	1048.789	784.933
396.248	16.941	1047.760	784.211
397.263	16.950	1046.534	783.268
398.278	16.962	1046.221	783.018
399.292	16.853	1045.582	781.970
400.307	16.975	1044.833	781.903
401.321	16.909	1044.435	781.229
402.336	16.930	1043.674	780.691
403.350	16.989	1042.715	780.176
404.365	17.005	1042.444	779.977
405.380	17.063	1041.292	779.311
406.394	17.123	1040.639	779.028
407.409	17.173	1039.721	778.504
408.423	17.123	1039.771	778.241
409.438	17.162	1038.740	777.579
410.453	17.182	1037.694	776.820
411.467	17.211	1037.158	776.480
412.482	17.257	1036.694	776.274
413.496	17.188	1036.032	775.397
414.511	17.259	1035.170	775.007
415.526	17.357	1034.718	775.044
416.540	17.365	1034.517	774.863
417.555	17.404	1033.946	774.543
418.569	17.224	1033.724	773.489
419.584	17.439	1032.762	773.678
420.599	17.320	1032.802	773.102
421.613	105.823	1324.434	1477.318
422.628	96.958	1366.857	1477.431
