DTS Sentinel unit serial number:	SN413079Multiplexer serial number:	ORYXHardware model number:	OX4-SRSoftware version number:	ORYX F/W v4.00 Oryx Data Collector v3.7.2.0data status	okinstallation	princeton_trtdifferential loss correction	single-endedforward channel	channel 2reverse channel	N/Adate	2019/09/14time	02:55:35forward acquisition time	60.00reverse acquisition time	0.00gamma	496.2192k internal	0.2337k external	0.2337temperature offset calibration	1.0130default loss term (dB/km)	0.3790temperature slope calibration	1.0000multiplexer offset coefficient	1.0000multiplexer slope coefficient	1.0000fibre end	0.00T internal ref (°C)	26.56T ext. ref 1 (°C)	3.25T ext. ref 2 (°C)	21.62length (m)	temperature (°C)	Stokes	anti-Stokes-747.200	-108.277	-0.209	0.045
-746.185	230.830	0.091	-0.149
-745.171	-149.470	-0.200	0.016
-744.156	-193.990	-0.490	0.004
-743.142	27.174	0.194	0.163
-742.127	-90.465	-0.205	-0.060
-741.112	-62.097	0.111	-0.047
-740.098	37.240	-0.048	0.042
-739.083	-200.000	-0.004	0.221
-738.069	-142.841	-0.197	0.019
-737.054	216.740	0.069	0.111
-736.039	-35.748	-0.087	-0.048
-735.025	-92.213	0.255	-0.072
-734.010	-200.000	0.008	0.172
-732.996	-200.000	0.003	-0.076
-731.981	97.034	-0.315	-0.362
-730.966	206.155	-0.251	0.392
-729.952	-200.000	0.014	-0.082
-728.937	-1.595	-0.128	-0.090
-727.923	95.467	-0.279	-0.319
-726.908	-100.352	0.126	-0.031
-725.894	-101.919	0.184	-0.045
-724.879	-125.096	-0.214	0.033
-723.864	5.145	0.054	0.040
-722.850	194.230	0.039	0.059
-721.835	-200.000	0.038	-0.169
-720.821	-200.000	0.046	0.279
-719.806	136.973	0.160	0.209
-718.791	-145.003	-0.400	-0.037
-717.777	48.984	0.212	0.199
-716.762	69.446	-0.203	-0.210
-715.748	-200.000	0.030	-0.163
-714.733	2.111	-0.416	-0.301
-713.718	-97.707	-0.319	-0.083
-712.704	241.842	-0.051	0.085
-711.689	-135.003	0.205	-0.025
-710.675	-58.524	0.259	0.113
-709.660	-152.090	-0.156	0.011
-708.645	-83.230	-0.169	0.054
-707.631	-104.797	-0.119	-0.027
-706.616	205.152	-0.139	-0.217
-705.602	48.686	-0.083	0.078
-704.587	-88.128	0.378	-0.114
-703.572	-200.000	0.006	-0.165
-702.558	-200.000	-0.031	-0.297
-701.543	-76.483	-0.149	-0.053
-700.529	39.216	0.223	0.200
-699.514	571.438	-0.070	-0.171
-698.499	-200.000	-0.003	0.038
-697.485	-71.914	-0.383	-0.143
-696.470	-132.499	0.412	0.053
-695.456	-29.798	-0.407	-0.232
-694.441	-146.503	-0.073	-0.006
-693.426	-200.000	-0.028	0.159
-692.412	409.243	0.094	-0.199
-691.397	275.780	-0.093	-0.166
-690.383	551.660	-0.088	-0.212
-689.368	-116.184	0.095	0.018
-688.354	800.000	0.055	-0.168
-687.339	-200.000	-0.049	0.000
-686.324	40.612	0.117	-0.105
-685.310	-200.000	0.058	0.283
-684.295	45.870	-0.128	-0.119
-683.281	-3.884	0.183	0.127
-682.266	-57.072	-0.215	0.095
-681.251	502.854	-0.101	0.234
-680.237	-200.000	0.006	-0.068
-679.222	283.218	-0.093	0.167
-678.208	60.839	-0.051	0.051
-677.193	-50.376	-0.245	-0.116
-676.178	-103.429	-0.268	0.063
-675.164	-99.867	-0.209	0.052
-674.149	800.000	-0.094	0.335
-673.135	-88.879	-0.054	-0.016
-672.120	207.563	0.220	0.344
-671.105	-200.000	0.010	0.170
-670.091	-63.340	-0.191	0.079
-669.076	147.335	-0.188	-0.253
-668.062	-50.053	0.178	-0.085
-667.047	-65.840	-0.122	-0.049
-666.032	-66.999	0.280	-0.110
-665.018	-200.000	0.028	-0.175
-664.003	-123.617	-0.154	-0.024
-662.989	-80.885	0.196	-0.065
-661.974	-129.536	0.168	0.023
-660.959	800.000	0.043	-0.157
-659.945	-96.116	0.236	-0.063
-658.930	529.300	-0.118	-0.279
-657.916	-82.250	-0.157	-0.051
-656.901	-93.641	0.302	0.084
-655.886	170.490	0.102	-0.146
-654.872	31.419	-0.125	0.108
-653.857	-4.542	0.242	-0.167
-652.843	-106.706	-0.310	-0.069
-651.828	115.912	-0.173	0.212
-650.814	-49.855	0.237	-0.112
-649.799	205.039	-0.056	0.087
-648.784	-43.813	0.215	0.108
-647.770	567.197	0.118	0.287
-646.755	113.327	-0.067	-0.081
-645.741	-160.345	-0.080	-0.004
-644.726	186.077	-0.080	0.119
-643.711	411.483	0.057	0.121
-642.697	8.128	-0.228	0.171
-641.682	-200.000	0.033	-0.219
-640.668	120.109	0.227	-0.281
-639.653	800.000	-0.075	-0.245
-638.638	-94.985	-0.253	0.068
-637.624	-154.017	-0.102	-0.007
-636.609	94.915	0.052	-0.060
-635.595	800.000	-0.021	0.072
-634.580	-200.000	0.013	0.061
-633.565	109.372	0.197	-0.235
-632.551	-128.769	-0.162	-0.023
-631.536	-54.696	0.309	-0.140
-630.522	-138.403	-0.219	0.024
-629.507	800.000	0.067	0.267
-628.492	-42.769	0.131	0.067
-627.478	-48.395	-0.253	0.122
-626.463	626.101	-0.046	-0.117
-625.449	-15.360	-0.201	-0.128
-624.434	519.470	-0.142	-0.332
-623.419	378.904	0.104	0.213
-622.405	-0.629	-0.148	0.105
-621.390	94.880	0.041	0.046
-620.376	-26.551	0.219	-0.128
-619.361	110.465	0.123	-0.148
-618.346	-200.000	-0.005	0.166
-617.332	145.758	-0.113	-0.151
-616.317	28.804	-0.298	-0.252
-615.303	800.000	-0.120	-0.362
-614.288	-144.540	-0.035	0.003
-613.273	312.448	-0.101	-0.190
-612.259	-52.443	0.209	-0.096
-611.244	-200.000	0.040	0.524
-610.230	-61.656	0.181	0.076
-609.215	-67.860	-0.505	-0.197
-608.201	368.294	0.039	-0.079
-607.186	345.073	0.194	-0.380
-606.171	800.000	-0.025	0.096
-605.157	-200.000	0.021	-0.115
-604.142	7.281	0.245	0.183
-603.128	97.762	-0.211	-0.242
-602.113	61.805	-0.154	-0.153
-601.098	-200.000	0.022	0.119
-600.084	-2.437	0.211	-0.148
-599.069	-61.421	-0.239	0.100
-598.055	-200.000	-0.017	0.000
-597.040	-2.828	0.138	-0.096
-596.025	-113.861	0.145	0.028
-595.011	-151.807	0.476	0.035
-593.996	428.678	0.078	-0.168
-592.982	39.888	-0.345	-0.309
-591.967	463.503	-0.185	-0.412
-590.952	800.000	0.096	0.388
-589.938	-86.237	-0.470	-0.144
-588.923	-200.000	-0.033	-0.409
-587.909	25.523	0.258	-0.214
-586.894	-134.463	0.120	0.015
-585.879	-157.347	-0.144	0.009
-584.865	-45.704	0.254	-0.125
-583.850	-7.979	-0.325	-0.219
-582.836	591.117	0.052	-0.129
-581.821	56.694	-0.327	0.317
-580.806	45.362	0.171	-0.157
-579.792	-132.206	-0.035	0.005
-578.777	-101.290	0.069	-0.017
-577.763	-94.019	0.254	0.070
-576.748	626.133	0.031	-0.079
-575.733	-172.548	-0.205	0.006
-574.719	164.676	0.145	-0.204
-573.704	140.907	-0.176	-0.232
-572.690	-200.000	-0.047	0.209
-571.675	-100.945	-0.374	-0.092
-570.661	-84.222	-0.377	-0.119
-569.646	-124.846	0.258	-0.040
-568.631	64.582	-0.209	-0.210
-567.617	-93.549	0.162	-0.045
-566.602	432.461	-0.102	-0.221
-565.588	-29.224	-0.167	0.096
-564.573	91.529	-0.201	-0.226
-563.558	-12.444	-0.101	0.066
-562.544	157.273	-0.022	-0.031
-561.529	-98.819	-0.062	0.016
-560.515	-91.162	0.274	-0.078
-559.500	-75.722	-0.175	0.062
-558.485	-95.429	-0.361	0.097
-557.471	281.796	-0.114	-0.203
-556.456	-200.000	-0.060	-0.522
-555.442	-67.731	0.153	0.060
-554.427	236.134	-0.096	0.158
-553.412	-128.374	0.361	-0.051
-552.398	800.000	-0.086	0.259
-551.383	-129.839	0.300	-0.041
-550.369	-103.215	0.168	-0.040
-549.354	501.988	0.078	-0.179
-548.339	-66.405	0.107	-0.043
-547.325	-200.000	-0.060	-0.300
-546.310	-200.000	0.035	-0.213
-545.296	68.568	0.210	-0.214
-544.281	-13.341	0.026	0.017
-543.266	51.234	-0.124	-0.118
-542.252	372.980	0.100	-0.203
-541.237	38.895	0.183	-0.163
-540.223	-200.000	-0.032	0.177
-539.208	-200.000	-0.012	-0.205
-538.193	-200.000	0.033	0.302
-537.179	-180.434	0.254	-0.005
-536.164	-43.223	0.173	0.087
-535.150	800.000	0.031	-0.114
-534.135	-54.149	-0.249	0.113
-533.121	-200.000	0.025	-0.299
-532.106	18.491	-0.188	-0.149
-531.091	-150.088	0.185	-0.014
-530.077	-152.064	0.147	-0.011
-529.062	800.000	0.048	0.211
-528.048	-42.607	-0.234	0.119
-527.033	-69.704	-0.368	-0.140
-526.018	-57.415	-0.325	-0.142
-525.004	-200.000	0.174	0.001
-523.989	-66.331	0.179	-0.071
-522.975	97.384	-0.178	-0.203
-521.960	-57.354	0.307	-0.134
-520.945	-200.000	-0.410	-0.000
-519.931	107.311	-0.076	-0.089
-518.916	800.000	0.113	-0.419
-517.902	-123.260	-0.079	-0.013
-516.887	-4.051	0.213	0.147
-515.872	-82.612	0.122	-0.039
-514.858	-61.159	-0.121	0.051
-513.843	99.955	-0.299	0.345
-512.829	-109.765	-0.221	-0.046
-511.814	-200.000	0.009	0.041
-510.799	140.339	-0.228	0.299
-509.785	-27.835	-0.378	0.218
-508.770	54.560	0.080	-0.077
-507.756	-200.000	0.022	-0.253
-506.741	-3.238	0.253	-0.175
-505.726	606.111	-0.195	0.483
-504.712	-192.288	0.196	-0.002
-503.697	800.000	-0.055	-0.192
-502.683	-55.478	0.082	-0.037
-501.668	800.000	-0.078	-0.235
-500.653	-200.000	-0.007	-0.104
-499.639	-157.619	-0.174	-0.010
-498.624	85.084	-0.033	0.036
-497.610	-41.052	0.181	-0.093
-496.595	100.021	-0.193	-0.222
-495.581	183.904	-0.295	0.434
-494.566	551.915	0.045	0.108
-493.551	-200.000	0.010	0.459
-492.537	-51.133	-0.245	0.114
-491.522	142.563	0.059	-0.077
-490.508	106.103	-0.322	-0.379
-489.493	-151.797	0.110	-0.008
-488.478	-200.000	0.044	0.232
-487.464	-76.191	-0.138	-0.048
-486.449	152.577	0.160	-0.217
-485.435	275.822	-0.112	-0.198
-484.420	-134.955	-0.177	0.021
-483.405	341.192	-0.157	0.304
-482.391	60.619	0.184	0.182
-481.376	691.700	0.057	-0.150
-480.362	-200.000	0.001	-0.230
-479.347	800.000	-0.078	-0.262
-478.332	-200.000	-0.006	0.050
-477.318	-56.016	0.098	-0.044
-476.303	-64.429	-0.236	0.095
-475.289	493.196	-0.078	0.178
-474.274	800.000	0.042	0.169
-473.259	-81.832	-0.230	0.075
-472.245	-200.000	0.075	0.369
-471.230	-76.813	-0.188	-0.065
-470.216	31.350	-0.281	-0.240
-469.201	56.227	-0.296	0.285
-468.186	-27.490	0.423	0.244
-467.172	-90.996	-0.281	0.080
-466.157	-200.000	0.022	0.172
-465.143	-128.433	-0.140	0.020
-464.128	-62.085	0.211	0.087
-463.113	492.006	-0.062	0.140
-462.099	212.995	0.104	-0.162
-461.084	800.000	-0.082	0.225
-460.070	-90.437	0.346	-0.099
-459.055	-88.556	0.259	0.077
-458.040	-31.724	0.115	0.064
-457.026	-90.089	-0.182	-0.053
-456.011	170.611	0.121	0.171
-454.997	378.841	-0.032	-0.066
-453.982	-200.000	-0.002	-0.015
-452.968	-38.985	-0.248	-0.130
-451.953	125.428	-0.153	-0.192
-450.938	431.808	0.173	-0.373
-449.924	-132.164	-0.268	-0.034
-448.909	-116.821	0.143	-0.026
-447.895	800.000	0.095	-0.278
-446.880	143.375	-0.196	0.259
-445.865	51.831	-0.146	0.138
-444.851	-80.046	-0.229	0.076
-443.836	-200.000	-0.069	0.385
-442.822	266.780	-0.002	-0.003
-441.807	40.352	0.270	-0.242
-440.792	113.291	-0.179	0.215
-439.778	190.274	-0.212	-0.316
-438.763	-125.600	-0.063	-0.009
-437.749	58.711	0.112	-0.109
-436.734	465.839	-0.100	-0.222
-435.719	800.000	0.059	-0.184
-434.705	800.000	-0.029	0.120
-433.690	130.846	-0.088	-0.112
-432.676	84.482	-0.146	0.158
-431.661	-71.209	0.307	0.114
-430.646	-136.597	-0.124	-0.014
-429.632	-200.000	0.022	0.141
-428.617	-26.361	-0.156	-0.091
-427.603	-200.000	0.014	-0.127
-426.588	-200.000	-0.055	0.316
-425.573	800.000	-0.038	-0.150
-424.559	-16.826	-0.084	0.053
-423.544	144.108	-0.303	-0.401
-422.530	-200.000	-0.014	0.178
-421.515	73.716	-0.039	0.041
-420.500	-109.557	0.158	0.033
-419.486	-20.003	-0.223	0.136
-418.471	-200.000	-0.033	0.254
-417.457	62.653	0.347	0.344
-416.442	719.369	0.134	-0.352
-415.428	-87.091	-0.097	-0.029
-414.413	-79.988	-0.309	-0.103
-413.398	-55.737	0.296	-0.131
-412.384	-21.459	0.070	-0.042
-411.369	-103.960	-0.282	0.065
-410.355	-113.170	0.344	0.067
-409.340	22.097	-0.232	0.188
-408.325	-57.607	0.259	-0.113
-407.311	-84.714	-0.232	0.072
-406.296	-60.048	0.159	0.067
-405.282	-44.046	-0.204	-0.102
-404.267	-119.903	0.288	-0.049
-403.252	-200.000	-0.036	-0.171
-402.238	90.866	0.292	-0.324
-401.223	-150.420	0.114	-0.009
-400.209	-36.290	0.109	-0.058
-399.194	-200.000	0.022	-0.129
-398.179	275.095	-0.095	0.167
-397.165	-64.033	-0.097	-0.039
-396.150	-200.000	-0.012	-0.100
-395.136	347.312	0.095	0.186
-394.121	-67.002	0.180	0.070
-393.106	69.424	-0.078	-0.080
-392.092	-26.595	-0.059	-0.034
-391.077	-200.000	0.090	-0.549
-390.063	-200.000	-0.032	0.214
-389.048	-200.000	-0.011	0.182
-388.033	-200.000	-0.015	-0.183
-387.019	-200.000	-0.005	-0.184
-386.004	-79.184	0.302	0.102
-384.990	48.830	0.213	-0.198
-383.975	-48.806	-0.135	-0.064
-382.960	800.000	0.015	0.055
-381.946	-28.383	0.226	-0.129
-380.931	347.988	-0.097	0.188
-379.917	-200.000	-0.015	-0.132
-378.902	-181.035	-0.086	-0.002
-377.888	-8.240	-0.074	0.049
-376.873	149.253	-0.061	0.082
-375.858	512.262	0.194	0.448
-374.844	-26.260	-0.233	0.135
-373.829	451.586	0.048	-0.106
-372.815	-135.793	-0.252	0.029
-371.800	-69.617	-0.280	-0.106
-370.785	-200.000	-0.019	0.261
-369.771	131.984	0.206	0.263
-368.756	4.688	-0.045	0.033
-367.742	-126.224	-0.299	0.044
-366.727	-90.061	0.108	0.031
-365.712	-200.000	-0.034	-0.177
-364.698	439.720	-0.074	-0.159
-363.683	44.381	-0.095	-0.086
-362.669	-142.613	0.197	-0.019
-361.654	288.963	0.113	-0.203
-360.639	-62.131	0.142	-0.059
-359.625	-81.761	0.042	-0.014
-358.610	167.310	-0.306	0.430
-357.596	82.102	-0.156	0.167
-356.581	127.231	0.017	-0.021
-355.566	170.943	0.184	-0.261
-354.552	-200.000	-0.034	0.221
-353.537	199.452	0.171	-0.260
-352.523	-69.032	0.238	0.091
-351.508	-98.995	0.238	0.060
-350.493	423.491	-0.219	0.465
-349.479	457.982	0.049	-0.107
-348.464	150.551	0.071	0.096
-347.450	-108.330	0.138	-0.029
-346.435	800.000	-0.048	-0.161
-345.420	69.536	0.228	0.232
-344.406	-89.829	0.160	0.046
-343.391	-200.000	0.003	0.156
-342.377	-57.977	-0.075	-0.032
-341.362	54.843	-0.040	-0.039
-340.348	-80.213	-0.094	-0.031
-339.333	-200.000	0.063	0.409
-338.318	50.209	-0.388	0.362
-337.304	800.000	-0.046	-0.161
-336.289	-98.430	0.343	-0.087
-335.275	800.000	0.067	0.217
-334.260	-101.615	0.375	-0.090
-333.245	9.679	-0.167	0.125
-332.231	64.863	-0.038	0.038
-331.216	800.000	-0.042	-0.151
-330.202	98.208	-0.180	0.205
-329.187	-200.000	0.014	-0.225
-328.172	-200.000	-0.014	-0.240
-327.158	800.000	-0.092	0.357
-326.143	-200.000	0.016	0.282
-325.129	224.738	0.098	-0.157
-324.114	-87.257	0.074	-0.022
-323.099	76.325	0.047	0.049
-322.085	14.910	0.034	0.026
-321.070	183.262	-0.090	0.132
-320.056	288.256	0.085	-0.152
-319.041	238.825	-0.117	0.193
-318.026	262.347	-0.097	0.166
-317.012	-7.714	-0.040	0.027
-315.997	800.000	0.080	0.338
-314.983	129.612	0.169	0.213
-313.968	-152.979	0.131	-0.009
-312.953	800.000	-0.035	-0.115
-311.939	6.282	0.080	0.059
-310.924	91.741	-0.138	-0.153
-309.910	266.616	-0.058	0.100
-308.895	-200.000	-0.033	-0.325
-307.880	-154.926	-0.455	-0.030
-306.866	800.000	-0.007	0.025
-305.851	290.793	-0.043	-0.077
-304.837	-200.000	-0.016	0.140
-303.822	-34.133	0.109	0.059
-302.807	-200.000	0.007	0.114
-301.793	4.245	0.212	0.153
-300.778	662.333	0.022	-0.057
-299.764	-200.000	0.090	0.513
-298.749	-76.623	0.260	-0.090
-297.735	-135.164	0.281	0.033
-296.720	800.000	0.043	-0.133
-295.705	259.713	0.078	0.133
-294.691	-103.901	-0.144	0.033
-293.676	-90.436	0.283	-0.081
-292.662	-200.000	-0.019	0.099
-291.647	93.412	0.043	0.048
-290.632	-200.000	-0.022	0.185
-289.618	-31.392	-0.160	-0.089
-288.603	800.000	-0.052	-0.177
-287.589	125.422	0.197	0.245
-286.574	800.000	-0.058	0.250
-285.559	-172.769	-0.228	-0.007
-284.545	42.078	0.201	0.180
-283.530	711.792	-0.104	-0.271
-282.516	-200.000	-0.010	-0.118
-281.501	85.625	0.135	0.146
-280.486	113.884	0.245	0.294
-279.472	-200.000	0.006	0.061
-278.457	-142.835	0.240	-0.023
-277.443	-200.000	-0.004	0.084
-276.428	437.806	-0.149	-0.320
-275.413	163.770	-0.143	-0.199
-274.399	-15.956	0.341	0.214
-273.384	-200.000	0.015	-0.345
-272.370	242.156	-0.290	-0.479
-271.355	60.371	-0.300	-0.293
-270.340	-42.512	-0.288	0.144
-269.326	-80.247	0.141	-0.047
-268.311	-141.547	0.131	-0.013
-267.297	800.000	0.077	0.326
-266.282	-200.000	0.018	-0.445
-265.267	-170.704	-0.163	-0.006
-264.253	37.530	0.091	-0.080
-263.238	424.226	0.137	-0.290
-262.224	-120.312	-0.173	-0.029
-261.209	-200.000	-0.035	0.359
-260.195	97.527	-0.122	0.138
-259.180	44.118	0.421	0.380
-258.165	-71.210	0.251	0.093
-257.151	483.982	0.066	-0.147
-256.136	-200.000	-0.030	0.137
-255.122	-56.004	-0.112	0.049
-254.107	-110.240	-0.017	0.004
-253.092	800.000	0.081	0.224
-252.078	356.331	0.059	-0.115
-251.063	44.048	0.106	0.095
-250.049	45.661	0.129	0.117
-249.034	77.642	0.073	0.076
-248.019	140.310	0.166	-0.216
-247.005	329.991	-0.042	-0.080
-245.990	111.879	-0.219	0.261
-244.976	-76.315	0.117	0.041
-243.961	-200.000	-0.082	-0.439
-242.946	-200.000	-0.021	-0.269
-241.932	742.922	-0.045	-0.120
-240.917	-200.000	0.055	0.312
-239.903	656.056	0.069	0.175
-238.888	-76.589	-0.143	-0.049
-237.873	-73.497	0.132	-0.047
-236.859	-26.868	-0.299	-0.172
-235.844	-114.909	0.257	0.048
-234.830	456.786	-0.045	-0.098
-233.815	800.000	0.011	0.043
-232.800	-24.779	-0.184	-0.108
-231.786	-200.000	0.025	0.150
-230.771	-177.783	-0.222	0.005
-229.757	-59.771	0.245	-0.103
-228.742	-87.982	0.149	-0.044
-227.727	-61.592	-0.054	0.022
-226.713	23.479	0.111	-0.089
-225.698	-200.000	0.011	0.086
-224.684	470.013	0.087	0.191
-223.669	-46.842	0.191	-0.092
-222.655	-200.000	-0.009	0.086
-221.640	-200.000	0.009	-0.164
-220.625	-200.000	-0.028	-0.200
-219.611	-200.000	-0.003	0.146
-218.596	-200.000	0.002	-0.131
-217.582	-31.195	-0.419	0.232
-216.567	-200.000	0.003	0.185
-215.552	-150.830	0.374	0.028
-214.538	-84.447	0.258	-0.080
-213.523	-200.000	0.024	0.357
-212.509	552.791	0.176	0.415
-211.494	-200.000	-0.029	-0.250
-210.479	531.422	0.058	0.134
-209.465	580.684	-0.064	0.154
-208.450	-200.000	0.040	-0.405
-207.436	368.794	0.142	0.282
-206.421	800.000	-0.074	0.252
-205.406	-158.286	0.551	-0.032
-204.392	-135.140	0.265	-0.031
-203.377	-38.829	0.056	0.029
-202.363	-118.186	0.054	0.009
-201.348	-35.832	0.109	-0.058
-200.333	38.709	-0.263	-0.231
-199.319	736.755	0.160	0.422
-198.304	14.001	0.284	0.217
-197.290	-66.143	-0.415	0.163
-196.275	577.294	0.157	0.377
-195.260	-200.000	0.017	0.326
-194.246	8.709	0.372	0.276
-193.231	394.607	-0.069	0.141
-192.217	-101.119	-0.333	-0.080
-191.202	58.386	0.149	0.143
-190.187	800.000	0.109	0.302
-189.173	-153.255	0.363	-0.025
-188.158	-200.000	-0.011	0.120
-187.144	-106.122	0.372	-0.082
-186.129	-102.284	-0.043	-0.010
-185.114	-51.484	-0.238	0.109
-184.100	-26.186	-0.247	0.143
-183.085	146.038	0.095	-0.125
-182.071	101.806	0.172	0.197
-181.056	-157.064	-0.223	0.013
-180.042	529.739	0.094	0.218
-179.027	800.000	-0.086	-0.259
-178.012	-51.815	-0.260	-0.119
-176.998	-19.147	0.223	-0.136
-175.983	771.554	0.113	-0.302
-174.969	-200.000	-0.003	-0.173
-173.954	316.054	-0.045	0.084
-172.939	800.000	0.065	-0.268
-171.925	39.798	-0.210	-0.185
-170.910	36.373	-0.242	0.210
-169.896	-112.816	-0.294	-0.057
-168.881	-155.722	-0.073	-0.005
-167.866	187.286	-0.034	0.050
-166.852	72.051	0.154	-0.157
-165.837	774.469	-0.098	0.262
-164.823	421.405	0.099	-0.208
-163.808	-200.000	-0.033	0.166
-162.793	52.676	0.296	0.278
-161.779	-36.594	0.395	-0.209
-160.764	800.000	-0.076	-0.289
-159.750	420.653	-0.068	-0.142
-158.735	-103.298	0.115	0.027
-157.720	156.572	0.100	0.136
-156.706	-200.000	0.009	0.198
-155.691	122.177	0.205	-0.251
-154.677	542.111	-0.018	0.042
-153.662	151.870	-0.259	0.346
-152.647	-30.912	-0.199	0.111
-151.633	-166.055	0.332	0.014
-150.618	-66.474	0.166	0.065
-149.604	-200.000	-0.036	0.166
-148.589	502.807	-0.054	0.122
-147.574	26.819	-0.091	0.074
-146.560	-72.824	-0.224	0.081
-145.545	-200.000	-0.003	0.086
-144.531	-200.000	0.032	0.278
-143.516	800.000	-0.071	0.282
-142.502	9.246	0.193	0.143
-141.487	-200.000	-0.006	0.108
-140.472	-200.000	0.022	0.154
-139.458	800.000	-0.098	0.302
-138.443	-200.000	-0.005	-0.268
-137.429	800.000	-0.083	0.326
-136.414	178.709	-0.046	-0.066
-135.399	290.116	0.246	0.438
-134.385	-165.095	0.178	0.008
-133.370	-35.633	0.125	0.066
-132.356	131.483	-0.082	-0.104
-131.341	-124.597	-0.499	0.076
-130.326	745.349	-0.050	0.131
-129.312	134.422	-0.108	-0.138
-128.297	-200.000	-0.024	-0.264
-127.283	-123.352	0.270	-0.042
-126.268	-104.216	0.235	0.054
-125.253	-51.120	0.339	0.156
-124.239	800.000	-0.023	0.071
-123.224	81.440	0.139	0.148
-122.210	322.880	0.053	-0.098
-121.195	47.876	-0.138	-0.126
-120.180	800.000	-0.057	0.177
-119.166	425.319	0.024	0.052
-118.151	800.000	0.047	-0.138
-117.137	-151.829	-0.189	0.014
-116.122	-74.264	-0.142	0.050
-115.107	139.639	-0.068	-0.088
-114.093	-200.000	-0.005	-0.096
-113.078	-142.346	-0.157	0.015
-112.064	177.773	-0.063	0.090
-111.049	-200.000	0.221	0.000
-110.034	-125.988	-0.357	-0.053
-109.020	-200.000	0.027	0.199
-108.005	-17.751	0.242	0.149
-106.991	-50.090	-0.105	0.049
-105.976	-116.681	-0.293	-0.053
-104.962	11.640	0.196	-0.147
-103.947	-200.000	0.046	0.231
-102.932	335.034	0.143	-0.271
-101.918	-148.956	-0.456	-0.036
-100.903	398.507	0.067	0.136
-99.889	223.821	-0.031	-0.049
-98.874	-43.457	0.173	-0.085
-97.859	-200.000	-0.013	-0.180
-96.845	-41.120	-0.190	-0.096
-95.830	800.000	-0.048	-0.160
-94.816	-200.000	0.012	0.121
-93.801	2.060	0.221	0.156
-92.786	10.170	-0.170	-0.127
-91.772	38.380	0.295	0.257
-90.757	62.199	0.077	-0.075
-89.743	-29.335	-0.253	0.142
-88.728	-200.000	0.010	0.231
-87.713	-200.000	-0.021	0.278
-86.699	25.968	0.112	0.092
-85.684	-68.691	-0.491	0.186
-84.670	-200.000	0.013	-0.060
-83.655	565.721	0.057	0.136
-82.640	-147.933	-0.379	-0.031
-81.626	273.120	-0.069	-0.120
-80.611	62.096	0.299	0.291
-79.597	-35.789	-0.403	-0.214
-78.582	-70.228	0.253	0.094
-77.567	196.015	0.208	-0.310
-76.553	202.266	0.056	0.084
-75.538	72.167	-0.029	0.030
-74.524	800.000	0.137	0.438
-73.509	-54.492	0.069	0.031
-72.494	120.798	0.050	-0.061
-71.480	152.476	0.183	-0.244
-70.465	67.512	0.018	0.018
-69.451	-85.158	-0.052	-0.016
-68.436	-54.669	0.432	0.191
-67.422	182.517	0.049	-0.071
-66.407	175.909	-0.108	-0.153
-65.392	-163.966	0.293	-0.013
-64.378	-82.935	-0.280	0.088
-63.363	-125.600	0.390	-0.058
-62.349	-102.294	-0.115	-0.027
-61.334	76.072	-1.013	-1.048
-60.319	76.206	0.693	0.717
-59.305	593.391	-0.444	-1.073
-58.290	517.495	0.557	1.273
-57.276	327.470	0.879	1.648
-56.261	-200.000	116.260	650.991
-55.246	510.859	1539.467	3500.648
-54.232	174.116	2721.656	3842.750
-53.217	99.314	2299.331	2597.933
-52.203	35.568	1906.045	1635.577
-51.188	29.638	1697.258	1411.229
-50.173	27.191	1656.305	1358.852
-49.159	47.955	1712.981	1563.751
-48.144	46.436	1726.023	1564.058
-47.130	29.237	1683.630	1396.632
-46.115	26.635	1669.419	1365.204
-45.100	26.399	1665.010	1359.771
-44.086	26.470	1661.817	1357.639
-43.071	26.414	1659.333	1355.139
-42.057	26.409	1656.970	1353.116
-41.042	26.437	1654.710	1351.428
-40.027	26.418	1652.792	1349.665
-39.013	26.502	1650.260	1348.173
-37.998	26.393	1649.132	1346.388
-36.984	26.462	1647.903	1345.842
-35.969	26.612	1646.193	1345.506
-34.954	26.472	1645.222	1343.623
-33.940	26.511	1643.361	1342.335
-32.925	26.588	1641.275	1341.151
-31.911	26.546	1639.645	1339.451
-30.896	26.610	1637.881	1338.436
-29.881	26.589	1636.210	1336.857
-28.867	26.563	1634.636	1335.325
-27.852	26.520	1633.777	1334.255
-26.838	26.583	1631.920	1333.150
-25.823	26.588	1630.640	1332.086
-24.809	26.631	1629.522	1331.441
-23.794	26.553	1628.136	1329.682
-22.779	26.576	1626.701	1328.624
-21.765	26.522	1624.651	1326.502
-20.750	26.532	1623.089	1325.247
-19.736	26.566	1621.977	1324.533
-18.721	26.561	1620.621	1323.337
-17.706	26.615	1618.897	1322.271
-16.692	26.620	1617.018	1320.725
-15.677	26.549	1616.244	1319.522
-14.663	26.582	1614.884	1318.601
-13.648	26.644	1613.326	1317.721
-12.633	26.548	1611.891	1315.799
-11.619	26.600	1610.205	1314.753
-10.604	26.601	1608.633	1313.423
-9.590	26.628	1607.352	1312.519
-8.575	26.659	1605.625	1311.279
-7.560	26.604	1604.352	1309.790
-6.546	26.604	1603.634	1309.159
-5.531	26.620	1602.669	1308.430
-4.517	26.676	1600.971	1307.393
-3.502	26.581	1599.911	1305.792
-2.487	26.706	1598.278	1305.311
-1.473	26.289	1586.885	1292.973
-0.458	23.608	1568.061	1258.598
0.556	21.172	1569.498	1228.274
1.571	18.872	1594.406	1231.198
2.586	18.473	1606.873	1237.836
3.600	16.246	1550.699	1178.917
4.615	9.474	1443.098	1052.861
5.629	4.168	1383.973	976.277
6.644	3.316	1377.282	966.132
7.659	3.190	1376.129	964.444
8.673	3.203	1374.980	963.639
9.688	3.301	1372.423	962.374
10.702	3.235	1369.500	959.826
11.717	5.837	1374.264	979.345
12.731	13.055	1387.724	1034.216
13.746	19.059	1397.713	1079.341
14.761	20.287	1398.715	1087.723
15.775	19.763	1396.873	1082.908
16.790	18.800	1394.111	1074.649
17.804	17.918	1392.054	1067.457
18.819	17.626	1390.720	1064.517
19.834	17.402	1389.543	1062.127
20.848	17.204	1388.511	1060.008
21.863	17.009	1387.259	1057.740
22.877	17.034	1385.503	1056.465
23.892	16.905	1385.004	1055.187
24.907	16.947	1384.272	1054.796
25.921	16.945	1382.786	1053.558
26.936	17.065	1381.969	1053.590
27.950	16.950	1381.378	1052.332
28.965	17.086	1380.416	1052.352
29.980	17.307	1378.889	1052.458
30.994	17.285	1377.756	1051.367
32.009	17.303	1376.812	1050.664
33.023	17.281	1375.855	1049.703
34.038	17.177	1374.513	1047.944
35.053	17.043	1373.429	1046.203
36.067	17.057	1371.836	1044.982
37.082	17.125	1371.582	1045.116
38.096	17.215	1370.281	1044.582
39.111	17.111	1369.883	1043.547
40.126	17.028	1368.512	1041.902
41.140	16.808	1367.842	1039.948
42.155	16.787	1366.862	1038.986
43.169	16.744	1366.577	1038.415
44.184	16.766	1366.159	1038.139
45.199	16.658	1366.123	1037.356
46.213	16.878	1365.510	1038.149
47.228	17.053	1364.504	1038.362
48.242	17.049	1363.241	1037.286
49.257	17.052	1362.144	1036.376
50.271	16.975	1360.758	1034.758
51.286	16.988	1359.245	1033.598
52.301	17.089	1357.706	1032.948
53.315	16.918	1356.914	1031.215
54.330	16.802	1355.662	1029.468
55.344	16.761	1354.486	1028.237
56.359	16.895	1352.892	1027.748
57.374	16.809	1351.985	1026.445
58.388	16.643	1352.188	1025.504
59.403	16.602	1351.290	1024.483
60.417	16.620	1350.949	1024.243
61.432	16.551	1349.649	1022.746
62.447	16.569	1348.250	1021.708
63.461	16.575	1347.000	1020.703
64.476	16.543	1345.901	1019.590
65.490	16.606	1344.604	1018.894
66.505	16.577	1342.751	1017.230
67.520	16.631	1341.886	1016.808
68.534	16.697	1341.072	1016.494
69.549	16.624	1340.046	1015.193
70.563	16.596	1338.872	1014.045
71.578	16.431	1337.880	1012.214
72.593	16.370	1336.997	1011.094
73.607	16.356	1336.426	1010.485
74.622	16.529	1335.519	1010.743
75.636	16.483	1334.846	1009.875
76.651	16.517	1334.035	1009.372
77.666	16.468	1333.731	1008.761
78.680	16.558	1333.516	1009.047
79.695	16.659	1332.731	1008.966
80.709	16.666	1331.989	1008.353
81.724	16.765	1331.011	1008.115
82.739	16.793	1330.019	1007.442
83.753	16.920	1329.772	1007.917
84.768	17.006	1328.550	1007.416
85.782	17.233	1327.265	1007.699
86.797	17.005	1326.424	1005.620
87.812	16.964	1325.258	1004.404
88.826	17.038	1323.758	1003.617
89.841	17.118	1322.802	1003.272
90.855	17.155	1321.750	1002.605
91.870	17.157	1321.241	1002.142
92.884	17.199	1320.108	1001.445
93.899	17.131	1319.451	1000.455
94.914	17.236	1318.885	1000.557
95.928	17.212	1317.716	999.437
96.943	17.180	1316.960	998.591
97.957	17.097	1316.263	997.481
98.972	17.230	1314.462	996.809
99.987	17.189	1313.624	995.849
101.001	17.157	1312.628	994.815
102.016	17.084	1312.077	993.882
103.030	17.183	1310.750	993.367
104.045	17.104	1309.991	992.242
105.060	16.965	1308.604	990.296
106.074	16.846	1307.235	988.477
107.089	16.685	1305.415	986.078
108.103	16.671	1304.204	984.990
109.118	16.660	1302.947	983.892
110.133	16.689	1301.604	982.959
111.147	16.685	1299.957	981.608
112.162	16.731	1298.676	980.816
113.176	16.822	1297.959	980.715
114.191	16.808	1297.388	980.115
115.206	16.803	1296.104	979.031
116.220	16.690	1294.603	977.157
117.235	16.808	1293.349	976.804
118.249	16.670	1293.060	975.705
119.264	16.695	1291.395	974.505
120.279	16.650	1290.343	973.365
121.293	16.533	1289.218	971.761
122.308	16.559	1288.575	971.342
123.322	16.475	1287.431	969.909
124.337	16.444	1286.287	968.783
125.352	16.480	1285.071	967.989
126.366	16.469	1284.245	967.221
127.381	16.634	1282.751	966.953
128.395	16.512	1282.306	965.833
129.410	16.556	1281.046	965.050
130.424	16.549	1280.508	964.520
131.439	16.716	1279.451	964.587
132.454	16.773	1278.659	964.229
133.468	16.755	1278.232	963.722
134.483	16.823	1277.341	963.352
135.497	16.669	1276.246	961.562
136.512	16.869	1275.064	961.726
137.527	16.739	1273.913	960.033
138.541	16.832	1272.170	959.160
139.556	16.899	1270.542	958.229
140.570	16.995	1270.185	958.414
141.585	17.116	1268.578	957.801
142.600	17.106	1267.716	957.010
143.614	17.171	1267.146	956.859
144.629	17.182	1265.781	955.808
145.643	17.154	1264.614	954.684
146.658	17.093	1263.599	953.488
147.673	17.003	1262.085	951.759
148.687	17.003	1260.581	950.540
149.702	16.926	1258.884	948.749
150.716	16.776	1258.767	947.734
151.731	16.889	1257.044	946.986
152.746	16.839	1255.985	945.824
153.760	16.866	1254.741	944.954
154.775	17.048	1253.718	945.112
155.789	17.019	1253.079	944.386
156.804	17.108	1251.763	943.808
157.819	16.998	1251.215	942.700
158.833	17.293	1250.122	943.429
159.848	17.406	1249.168	943.254
160.862	17.227	1248.550	941.711
161.877	17.032	1247.141	939.482
162.892	16.797	1246.301	937.470
163.906	16.859	1245.110	936.834
164.921	16.887	1244.340	936.324
165.935	16.972	1243.376	935.986
166.950	17.064	1242.582	935.811
167.964	17.065	1241.863	935.194
168.979	17.022	1240.933	934.173
169.994	17.080	1240.165	933.832
171.008	17.047	1239.708	933.225
172.023	17.222	1238.533	933.216
173.037	17.184	1238.379	932.810
174.052	17.172	1237.472	931.981
175.067	17.133	1235.992	930.568
176.081	17.071	1234.401	928.946
177.096	17.015	1233.956	928.227
178.110	17.049	1232.959	927.581
179.125	17.059	1231.661	926.574
180.140	17.117	1230.156	925.675
181.154	17.136	1229.196	924.977
182.169	17.216	1228.174	924.559
183.183	17.371	1227.142	924.547
184.198	17.357	1225.657	923.268
185.213	17.329	1224.855	922.433
186.227	17.357	1223.754	921.670
187.242	17.424	1222.944	921.344
188.256	17.531	1222.170	921.258
189.271	17.589	1220.704	920.387
190.286	17.320	1219.782	918.158
191.300	17.021	1219.010	915.880
192.315	16.962	1218.031	914.742
193.329	17.103	1217.284	914.860
194.344	16.935	1217.150	913.775
195.359	17.146	1216.616	914.432
196.373	17.297	1215.547	914.359
197.388	17.465	1215.069	914.820
198.402	17.544	1214.833	914.985
199.417	17.559	1214.505	914.737
200.432	17.628	1213.358	914.163
201.446	17.808	1212.476	914.385
202.461	17.798	1212.142	913.998
203.475	17.716	1211.213	912.778
204.490	17.628	1209.884	911.223
205.504	17.469	1208.116	908.965
206.519	17.610	1207.020	908.808
207.534	17.346	1206.467	906.908
208.548	17.466	1205.278	906.571
209.563	17.470	1204.613	906.009
210.577	17.468	1203.612	905.169
211.592	17.618	1202.571	905.104
212.607	17.799	1201.743	905.358
213.621	17.723	1200.981	904.303
214.636	17.664	1199.905	903.098
215.650	17.706	1199.078	902.622
216.665	17.715	1198.319	902.017
217.680	17.874	1197.687	902.302
218.694	17.883	1196.768	901.574
219.709	17.876	1195.624	900.598
220.723	17.835	1195.317	900.072
221.738	17.732	1194.705	898.985
222.753	17.823	1193.591	898.549
223.767	17.922	1193.119	898.633
224.782	17.977	1192.218	898.164
225.796	18.011	1191.886	898.017
226.811	18.123	1191.085	897.919
227.826	17.897	1190.250	896.027
228.840	17.903	1189.286	895.253
229.855	17.832	1189.062	894.632
230.869	17.853	1188.003	893.863
231.884	17.816	1187.263	893.035
232.899	17.740	1186.384	891.896
233.913	17.789	1184.984	891.022
234.928	17.784	1184.491	890.546
235.942	17.677	1184.089	889.609
236.957	17.767	1182.945	889.137
237.972	17.701	1182.492	888.377
238.986	17.786	1181.414	887.931
240.001	17.706	1181.095	887.194
241.015	17.722	1180.040	886.406
242.030	17.813	1179.351	886.282
243.045	17.922	1178.267	885.955
244.059	17.885	1177.931	885.432
245.074	17.938	1176.856	884.822
246.088	18.085	1175.973	884.841
247.103	17.965	1175.744	883.971
248.117	18.167	1174.890	884.295
249.132	18.257	1174.054	884.050
250.147	18.358	1173.882	884.368
251.161	18.435	1173.476	884.376
252.176	18.430	1172.750	883.726
253.190	18.630	1171.818	883.977
254.205	18.703	1171.112	883.742
255.220	18.721	1170.203	883.071
256.234	18.605	1170.250	882.433
257.249	18.688	1169.161	881.956
258.263	18.655	1168.503	881.215
259.278	18.583	1167.899	880.313
260.293	18.617	1167.597	880.181
261.307	18.742	1166.961	880.264
262.322	18.785	1165.968	879.658
263.336	18.830	1165.355	879.350
264.351	18.781	1165.082	878.813
265.366	18.677	1164.534	877.789
266.380	18.694	1163.711	877.180
267.395	18.699	1162.737	876.392
268.409	18.608	1162.121	875.386
269.424	18.573	1161.306	874.517
270.439	18.651	1160.569	874.282
271.453	18.582	1159.617	873.138
272.468	18.624	1158.535	872.459
273.482	18.501	1157.824	871.219
274.497	18.489	1157.276	870.671
275.512	18.544	1156.725	870.459
276.526	18.614	1155.990	870.183
277.541	18.700	1155.305	870.023
278.555	18.646	1154.599	869.142
279.570	18.744	1154.101	869.185
280.585	18.807	1153.439	868.929
281.599	18.854	1152.304	868.235
282.614	18.781	1151.214	866.968
283.628	18.722	1150.424	866.003
284.643	18.709	1149.538	865.193
285.657	18.681	1148.652	864.304
286.672	18.632	1147.723	863.284
287.687	18.799	1146.678	863.263
288.701	18.810	1145.742	862.537
289.716	18.801	1144.869	861.755
290.730	18.820	1144.479	861.484
291.745	18.816	1144.248	861.212
292.760	18.996	1142.980	861.084
293.774	18.959	1142.756	860.653
294.789	19.092	1142.186	860.813
295.803	18.998	1141.610	859.832
296.818	18.807	1140.784	858.179
297.833	18.777	1139.836	857.241
298.847	18.884	1138.817	856.931
299.862	18.922	1138.078	856.490
300.876	18.905	1137.691	856.040
301.891	18.963	1137.429	856.055
302.906	19.101	1136.199	855.737
303.920	19.059	1135.874	855.212
304.935	19.275	1135.309	855.782
305.949	19.396	1134.145	855.428
306.964	19.281	1133.763	854.496
307.979	19.139	1132.860	853.035
308.993	19.289	1131.944	853.015
310.008	19.241	1131.049	852.026
311.022	19.369	1130.283	852.006
312.037	19.332	1129.479	851.140
313.052	19.154	1128.637	849.554
314.066	19.182	1127.393	848.680
315.081	19.069	1126.681	847.511
316.095	19.003	1125.875	846.506
317.110	18.868	1125.606	845.566
318.125	19.008	1124.812	845.581
319.139	19.012	1123.976	844.897
320.154	18.995	1123.076	844.061
321.168	19.113	1122.625	844.230
322.183	18.946	1122.040	842.896
323.197	19.133	1121.165	843.079
324.212	19.061	1120.771	842.357
325.227	19.228	1120.158	842.636
326.241	19.185	1119.179	841.617
327.256	19.208	1118.371	841.047
328.270	19.105	1117.733	839.989
329.285	19.118	1116.761	839.249
330.300	19.104	1115.953	838.497
331.314	19.189	1114.570	837.797
332.329	19.124	1113.883	836.891
333.343	19.269	1112.723	836.650
334.358	19.344	1112.083	836.457
335.373	19.253	1111.860	835.774
336.387	19.463	1110.833	835.949
337.402	19.369	1110.562	835.215
338.416	19.519	1109.573	835.125
339.431	19.482	1108.951	834.402
340.446	19.643	1108.566	834.814
341.460	19.705	1107.852	834.502
342.475	19.707	1107.165	833.921
343.489	19.748	1105.819	833.033
344.504	19.737	1105.167	832.414
345.519	19.835	1104.113	832.019
346.533	19.934	1103.604	832.038
347.548	19.937	1103.152	831.636
348.562	19.836	1102.156	830.326
349.577	19.574	1101.540	828.534
350.592	19.580	1100.488	827.695
351.606	19.690	1099.543	827.441
352.621	19.489	1098.841	825.875
353.635	19.547	1098.113	825.534
354.650	19.601	1097.652	825.373
355.665	19.559	1096.900	824.532
356.679	19.558	1096.038	823.809
357.694	19.648	1095.755	823.950
358.708	19.669	1095.573	823.843
359.723	19.765	1094.499	823.418
360.738	19.859	1093.645	823.148
361.752	19.843	1093.619	822.980
362.767	19.796	1092.716	822.004
363.781	19.734	1092.259	821.293
364.796	19.940	1091.607	821.710
365.810	19.897	1091.462	821.323
366.825	20.069	1090.615	821.430
367.840	20.163	1090.143	821.445
368.854	20.286	1089.200	821.243
369.869	20.094	1088.929	820.061
370.883	20.159	1087.769	819.423
371.898	20.039	1086.772	818.030
372.913	20.159	1086.313	818.178
373.927	20.084	1085.880	817.427
374.942	20.117	1085.690	817.369
375.956	20.165	1085.198	817.149
376.971	20.184	1084.250	816.453
377.986	20.233	1083.363	815.943
379.000	20.345	1083.150	816.240
380.015	20.264	1083.014	815.681
381.029	20.425	1082.187	815.744
382.044	20.402	1081.285	814.884
383.059	20.319	1080.601	813.906
384.073	20.284	1079.437	812.796
385.088	20.304	1078.568	812.165
386.102	20.492	1077.660	812.286
387.117	20.295	1076.431	810.366
388.132	20.135	1075.772	809.051
389.146	20.120	1075.337	808.584
390.161	20.145	1074.425	807.946
391.175	20.171	1073.608	807.377
392.190	20.247	1072.851	807.090
393.205	20.397	1072.156	807.195
394.219	20.344	1071.612	806.466
395.234	20.273	1070.225	805.021
396.248	20.258	1069.387	804.251
397.263	20.159	1068.772	803.260
398.278	20.209	1067.843	802.721
399.292	20.095	1067.048	801.523
400.307	20.026	1066.164	800.470
401.321	20.268	1065.516	801.033
402.336	20.065	1065.514	800.023
403.350	20.256	1064.139	799.801
404.365	20.263	1063.575	799.335
405.380	20.471	1062.630	799.512
406.394	20.389	1062.346	798.854
407.409	20.434	1061.550	798.391
408.423	20.534	1060.580	798.048
409.438	20.610	1060.090	797.958
410.453	20.655	1059.514	797.660
411.467	20.739	1058.435	797.163
412.482	20.737	1058.042	796.785
413.496	20.819	1057.486	796.670
414.511	20.748	1057.532	796.314
415.526	20.830	1056.793	796.058
416.540	20.856	1056.358	795.780
417.555	20.945	1055.430	795.418
418.569	20.798	1055.238	794.529
419.584	20.747	1054.667	793.800
420.599	20.928	1053.764	793.875
421.613	155.586	1404.331	1797.226
422.628	142.797	1455.398	1797.307
