DTS Sentinel unit serial number:	SN413079Multiplexer serial number:	ORYXHardware model number:	OX4-SRSoftware version number:	ORYX F/W v4.00 Oryx Data Collector v3.7.2.0data status	okinstallation	princeton_trtdifferential loss correction	single-endedforward channel	channel 2reverse channel	N/Adate	2019/09/14time	02:15:35forward acquisition time	60.00reverse acquisition time	0.00gamma	496.2192k internal	0.2337k external	0.2337temperature offset calibration	1.0124default loss term (dB/km)	0.3790temperature slope calibration	1.0000multiplexer offset coefficient	1.0000multiplexer slope coefficient	1.0000fibre end	0.00T internal ref (°C)	26.50T ext. ref 1 (°C)	3.21T ext. ref 2 (°C)	21.47length (m)	temperature (°C)	Stokes	anti-Stokes-747.200	-59.559	0.476	-0.205
-746.185	800.000	-0.049	-0.151
-745.171	375.155	-0.072	0.147
-744.156	43.121	-0.055	0.050
-743.142	-200.000	-0.062	0.343
-742.127	-200.000	-0.032	0.149
-741.112	277.823	-0.109	-0.194
-740.098	132.474	-0.205	0.266
-739.083	-14.443	0.121	0.078
-738.069	-66.730	0.111	0.044
-737.054	800.000	-0.104	-0.322
-736.039	-93.120	-0.371	0.104
-735.025	-50.164	0.117	0.055
-734.010	39.220	-0.264	-0.237
-732.996	-74.438	-0.128	0.046
-731.981	-108.263	0.314	-0.068
-730.966	-81.671	0.179	-0.059
-729.952	-35.351	-0.154	0.084
-728.937	-39.318	-0.192	-0.101
-727.923	235.606	-0.130	-0.215
-726.908	83.652	0.180	-0.197
-725.894	639.801	-0.086	-0.220
-724.879	-72.031	0.093	-0.035
-723.864	-200.000	-0.007	-0.092
-722.850	25.783	-0.221	-0.184
-721.835	-129.757	-0.106	-0.015
-720.821	-200.000	-0.006	0.095
-719.806	243.591	-0.168	0.282
-718.791	-157.441	-0.211	0.013
-717.777	-13.753	-0.258	-0.168
-716.762	-134.697	-0.226	0.028
-715.748	186.455	-0.095	0.142
-714.733	154.786	0.152	-0.210
-713.718	-100.100	-0.120	-0.030
-712.704	152.616	0.097	-0.132
-711.689	800.000	-0.041	0.128
-710.675	659.746	-0.082	0.211
-709.660	706.751	-0.111	-0.293
-708.645	800.000	-0.058	-0.172
-707.631	-188.547	-0.186	-0.002
-706.616	-112.841	-0.319	0.063
-705.602	65.974	0.280	-0.284
-704.587	438.320	0.070	0.152
-703.572	355.329	-0.204	0.407
-702.558	-200.000	0.031	-0.187
-701.543	421.357	-0.106	-0.228
-700.529	-129.457	-0.155	0.021
-699.514	-36.850	0.305	-0.164
-698.499	-200.000	-0.002	-0.082
-697.485	-200.000	-0.014	-0.097
-696.470	-200.000	-0.269	-0.001
-695.456	-200.000	-0.058	-0.271
-694.441	-33.248	0.207	0.115
-693.426	145.004	0.163	-0.218
-692.412	191.101	0.105	0.159
-691.397	483.018	0.014	0.032
-690.383	774.508	0.110	0.300
-689.368	-53.887	-0.152	-0.069
-688.354	-200.000	0.056	0.264
-687.339	32.792	-0.255	-0.221
-686.324	800.000	-0.039	0.137
-685.310	87.755	0.185	0.206
-684.295	288.163	0.070	0.127
-683.281	-166.965	-0.161	0.007
-682.266	114.531	-0.128	0.156
-681.251	75.938	0.058	-0.062
-680.237	-83.303	-0.212	0.068
-679.222	-130.925	-0.532	0.071
-678.208	-101.512	0.193	-0.047
-677.193	174.585	-0.140	-0.203
-676.178	-198.311	-0.132	-0.001
-675.164	800.000	-0.029	0.110
-674.149	-30.735	-0.225	-0.128
-673.135	-200.000	-0.003	-0.265
-672.120	210.933	-0.236	-0.372
-671.105	-200.000	-0.064	-0.309
-670.091	9.361	-0.167	-0.127
-669.076	-200.000	-0.048	0.249
-668.062	-153.064	0.390	0.027
-667.047	-200.000	-0.002	0.086
-666.032	-64.441	0.063	-0.026
-665.018	-83.742	-0.264	0.084
-664.003	-18.157	-0.296	0.185
-662.989	9.542	0.120	-0.091
-661.974	-164.884	0.053	-0.002
-660.959	39.944	-0.060	0.054
-659.945	41.940	0.159	-0.144
-658.930	800.000	-0.100	-0.387
-657.916	78.457	-0.134	0.143
-656.901	-17.128	-0.215	-0.136
-655.886	-66.625	-0.139	0.055
-654.872	155.451	0.103	0.142
-653.857	-64.668	0.230	0.093
-652.843	-200.000	-0.015	0.187
-651.828	-200.000	0.006	-0.036
-650.814	32.000	0.089	0.077
-649.799	-99.171	0.054	0.014
-648.784	-51.954	-0.302	0.140
-647.770	207.936	0.086	0.135
-646.755	-32.978	0.140	-0.078
-645.741	-18.088	-0.195	0.122
-644.726	137.071	0.184	0.241
-643.711	49.677	0.062	0.058
-642.697	-200.000	0.015	-0.140
-641.682	-83.105	-0.283	0.091
-640.668	800.000	-0.077	-0.290
-639.653	111.689	-0.193	0.232
-638.638	16.833	-0.200	0.158
-637.624	-89.474	0.280	0.082
-636.609	-71.448	-0.218	0.081
-635.595	3.433	-0.120	-0.088
-634.580	-171.255	-0.103	0.003
-633.565	-153.620	0.213	0.015
-632.551	-27.093	-0.165	0.096
-631.536	20.877	-0.071	-0.057
-630.522	342.220	-0.055	0.107
-629.507	76.391	-0.230	0.244
-628.492	-4.300	-0.186	-0.129
-627.478	52.429	-0.207	0.198
-626.463	201.806	0.080	0.124
-625.449	800.000	0.025	-0.094
-624.434	20.021	-0.217	-0.174
-623.419	-81.190	-0.287	0.095
-622.405	-99.876	0.127	-0.032
-621.390	-129.017	0.140	-0.020
-620.376	-1.794	0.182	-0.128
-619.361	29.812	-0.023	0.019
-618.346	287.961	0.051	0.093
-617.332	-58.773	0.087	0.038
-616.317	-127.389	0.431	-0.063
-615.303	21.081	-0.154	-0.125
-614.288	-71.613	0.162	-0.061
-613.273	800.000	-0.054	0.180
-612.259	481.771	-0.004	-0.008
-611.244	-200.000	-0.009	-0.469
-610.230	800.000	0.069	0.209
-609.215	-132.711	-0.408	0.052
-608.201	716.896	-0.097	-0.256
-607.186	-100.335	0.329	-0.082
-606.171	-179.627	0.419	0.009
-605.157	668.792	-0.091	-0.236
-604.142	38.166	-0.105	0.093
-603.128	-13.469	0.194	0.125
-602.113	268.291	0.071	-0.124
-601.098	-88.969	0.172	0.051
-600.084	-115.714	0.153	0.029
-599.069	-200.000	-0.011	0.086
-598.055	-99.208	0.348	0.088
-597.040	27.817	-0.205	0.172
-596.025	-185.017	0.176	-0.003
-595.011	-43.917	-0.154	0.078
-593.996	90.865	-0.049	0.054
-592.982	800.000	-0.073	0.277
-591.967	-112.619	-0.055	-0.011
-590.952	-104.137	0.164	-0.038
-589.938	-82.468	-0.176	0.057
-588.923	5.376	-0.093	0.068
-587.909	478.497	-0.041	0.092
-586.894	-83.385	0.219	-0.070
-585.879	-200.000	0.049	-0.340
-584.865	69.184	0.081	-0.083
-583.850	208.484	-0.112	0.174
-582.836	212.613	-0.144	-0.227
-581.821	-162.996	-0.594	-0.029
-580.806	149.549	0.235	-0.317
-579.792	-33.582	-0.227	0.125
-578.777	-200.000	-0.040	0.227
-577.763	13.633	0.251	-0.194
-576.748	183.221	-0.255	-0.376
-575.733	-67.155	-0.108	0.043
-574.719	-200.000	-0.017	-0.117
-573.704	8.889	-0.359	-0.270
-572.690	800.000	-0.042	0.157
-571.675	-14.206	0.145	0.093
-570.661	-19.972	0.099	-0.061
-569.646	-200.000	0.025	-0.337
-568.631	-200.000	-0.062	-0.391
-567.617	144.569	-0.054	0.071
-566.602	-200.000	0.077	0.383
-565.588	-200.000	-0.000	-0.152
-564.573	-84.571	0.273	-0.086
-563.558	162.332	0.151	0.211
-562.544	-200.000	0.013	-0.132
-561.529	-200.000	-0.024	0.201
-560.515	800.000	-0.037	0.142
-559.500	6.632	-0.112	-0.083
-558.485	800.000	-0.025	0.076
-557.471	143.983	0.115	0.153
-556.456	2.030	-0.105	-0.076
-555.442	-200.000	0.009	0.466
-554.427	-200.000	-0.254	0.001
-553.412	50.781	-0.215	-0.203
-552.398	401.119	0.031	-0.064
-551.383	-162.200	0.563	0.028
-550.369	-16.650	-0.194	0.122
-549.354	-198.182	-0.060	0.000
-548.339	-61.089	-0.401	-0.169
-547.325	-146.535	0.074	0.006
-546.310	-20.116	-0.156	0.096
-545.296	82.089	-0.046	0.050
-544.281	287.459	0.075	0.135
-543.266	9.942	0.153	0.115
-542.252	22.625	0.161	-0.131
-541.237	-65.627	0.256	-0.102
-540.223	-106.437	0.142	0.032
-539.208	31.447	0.247	-0.212
-538.193	-14.984	-0.134	-0.086
-537.179	69.887	-0.049	0.050
-536.164	384.990	-0.083	-0.171
-535.150	-200.000	0.012	-0.082
-534.135	-200.000	-0.004	0.188
-533.121	104.175	-0.061	0.072
-532.106	5.015	0.118	0.086
-531.091	3.924	0.433	0.315
-530.077	-200.000	0.002	0.082
-529.062	-12.048	-0.131	0.085
-528.048	122.659	-0.083	-0.103
-527.033	103.033	0.036	0.042
-526.018	110.122	-0.220	-0.262
-525.004	88.910	0.022	-0.025
-523.989	-200.000	0.014	-0.067
-522.975	119.500	0.126	0.155
-521.960	-200.000	-0.015	0.110
-520.945	227.981	-0.124	-0.200
-519.931	58.470	0.177	0.173
-518.916	800.000	-0.056	-0.228
-517.902	800.000	0.050	-0.151
-516.887	-99.660	0.349	0.087
-515.872	134.175	0.146	-0.188
-514.858	179.655	0.139	0.202
-513.843	52.510	0.051	0.048
-512.829	-35.590	0.072	-0.039
-511.814	-19.575	-0.207	-0.128
-510.799	-7.465	-0.195	-0.131
-509.785	369.236	0.149	-0.300
-508.770	-69.257	0.068	0.026
-507.756	-200.000	0.029	-0.183
-506.741	244.366	-0.168	-0.280
-505.726	39.255	0.114	0.101
-504.712	-78.979	0.056	0.019
-503.697	-39.548	-0.214	0.111
-502.683	211.291	-0.103	0.161
-501.668	800.000	-0.039	-0.139
-500.653	2.969	-0.180	-0.130
-499.639	-88.393	0.243	-0.072
-498.624	-113.847	-0.037	-0.007
-497.610	-74.620	0.258	0.092
-496.595	-104.775	-0.215	-0.049
-495.581	-115.076	-0.553	-0.104
-494.566	-138.754	0.081	-0.009
-493.551	-98.389	-0.127	-0.032
-492.537	-200.000	0.034	-0.156
-491.522	-200.000	-0.048	0.214
-490.508	800.000	-0.024	0.074
-489.493	-200.000	-0.078	-0.343
-488.478	800.000	0.053	-0.182
-487.464	800.000	0.009	-0.034
-486.449	800.000	-0.118	-0.452
-485.435	-20.169	0.234	-0.143
-484.420	-91.687	0.307	-0.087
-483.405	-200.000	0.162	-0.001
-482.391	800.000	0.051	0.199
-481.376	-81.694	0.287	-0.093
-480.362	800.000	-0.136	0.403
-479.347	-45.555	-0.297	-0.146
-478.332	163.579	0.058	0.081
-477.318	-47.557	0.295	-0.142
-476.303	302.431	0.054	-0.100
-475.289	23.829	0.253	0.207
-474.274	289.634	0.124	-0.223
-473.259	-42.928	-0.204	-0.103
-472.245	-117.847	-0.095	-0.017
-471.230	800.000	-0.046	-0.137
-470.216	-200.000	0.019	0.143
-469.201	-7.196	-0.169	0.114
-468.186	-105.317	-0.151	-0.034
-467.172	-79.842	0.330	-0.110
-466.157	-42.740	0.352	0.178
-465.143	-17.730	-0.187	-0.116
-464.128	485.544	-0.005	-0.012
-463.113	73.393	-0.316	0.328
-462.099	-200.000	-0.022	-0.296
-461.084	-200.000	0.019	0.145
-460.070	-120.447	-0.124	-0.021
-459.055	-135.772	-0.156	-0.018
-458.040	65.304	0.269	0.270
-457.026	-95.908	-0.336	0.089
-456.011	-200.000	0.015	0.131
-454.997	244.588	-0.071	-0.119
-453.982	206.245	0.041	-0.064
-452.968	32.691	-0.283	0.243
-451.953	-200.000	0.008	0.080
-450.938	252.324	0.050	0.085
-449.924	193.427	0.028	0.042
-448.909	800.000	-0.010	-0.034
-447.895	-200.000	0.010	-0.060
-446.880	-31.747	0.404	-0.225
-445.865	-147.661	0.050	0.004
-444.851	332.106	-0.121	-0.231
-443.836	-44.173	-0.171	-0.085
-442.822	-200.000	0.012	0.058
-441.807	223.119	-0.133	0.213
-440.792	21.842	-0.313	0.253
-439.778	127.140	-0.147	-0.184
-438.763	-32.072	-0.235	-0.130
-437.749	-156.472	0.126	-0.008
-436.734	298.887	0.132	-0.242
-435.719	65.803	0.056	0.056
-434.705	800.000	-0.046	-0.134
-433.690	26.813	0.101	0.084
-432.676	-200.000	0.003	-0.058
-431.661	-65.655	0.045	-0.018
-430.646	-99.910	0.028	0.007
-429.632	-70.498	-0.069	-0.026
-428.617	107.121	0.175	-0.206
-427.603	800.000	-0.027	0.090
-426.588	245.544	-0.259	0.432
-425.573	65.190	-0.080	-0.080
-424.559	89.015	0.199	0.219
-423.544	-96.429	0.318	-0.083
-422.530	-200.000	-0.044	-0.204
-421.515	-177.115	-0.100	-0.002
-420.500	800.000	-0.092	-0.379
-419.486	182.470	-0.043	-0.063
-418.471	-42.411	-0.348	0.176
-417.457	800.000	-0.067	-0.209
-416.442	603.314	0.141	-0.347
-415.428	-4.901	-0.484	-0.331
-414.413	-200.000	0.043	0.224
-413.398	-52.074	-0.289	0.133
-412.384	57.269	0.194	0.188
-411.369	126.301	-0.152	-0.190
-410.355	288.022	-0.054	0.097
-409.340	-96.726	-0.209	0.054
-408.325	-121.947	-0.120	0.020
-407.311	45.107	-0.177	0.162
-406.296	222.403	-0.185	0.294
-405.282	-109.991	0.290	-0.060
-404.267	-81.871	0.194	-0.063
-403.252	-200.000	0.013	-0.146
-402.238	-200.000	0.007	-0.085
-401.223	-51.982	-0.398	-0.183
-400.209	242.363	0.131	0.218
-399.194	665.896	0.053	0.136
-398.179	-37.203	-0.147	0.078
-397.165	-33.041	-0.345	-0.190
-396.150	-200.000	-0.005	-0.229
-395.136	800.000	-0.062	0.240
-394.121	-29.852	0.333	-0.188
-393.106	250.177	0.088	0.147
-392.092	185.489	0.143	-0.210
-391.077	-38.402	-0.040	-0.021
-390.063	183.473	-0.078	0.114
-389.048	523.367	0.072	-0.168
-388.033	7.275	0.136	-0.100
-387.019	-135.868	0.114	-0.013
-386.004	485.800	0.097	0.218
-384.990	166.495	-0.214	-0.301
-383.975	-78.591	-0.182	0.062
-382.960	203.336	0.166	0.255
-381.946	-143.381	0.232	0.022
-380.931	-12.102	0.164	-0.106
-379.917	-91.524	0.200	0.056
-378.902	287.381	0.146	-0.262
-377.888	223.341	-0.051	0.081
-376.873	-20.280	0.114	0.070
-375.858	160.664	-0.195	0.269
-374.844	346.866	0.068	-0.133
-373.829	-200.000	-0.060	-0.442
-372.815	-128.348	0.081	0.011
-371.800	150.325	-0.204	-0.274
-370.785	-200.000	0.028	-0.360
-369.771	-200.000	-0.059	0.290
-368.756	800.000	-0.056	-0.216
-367.742	-107.238	0.241	0.052
-366.727	-200.000	0.063	0.353
-365.712	-37.466	0.211	-0.112
-364.698	-106.234	0.068	-0.015
-363.683	-200.000	0.003	-0.140
-362.669	800.000	0.127	-0.430
-361.654	-24.623	-0.119	-0.070
-360.639	40.076	-0.337	0.299
-359.625	-200.000	-0.042	0.446
-358.610	-168.487	0.257	-0.010
-357.596	-200.000	-0.022	-0.106
-356.581	-27.588	-0.341	0.196
-355.566	-200.000	0.046	0.212
-354.552	-70.856	0.209	-0.078
-353.537	77.042	-0.199	-0.209
-352.523	-200.000	0.053	-0.616
-351.508	-56.834	-0.329	-0.144
-350.493	277.252	-0.134	-0.235
-349.479	32.633	-0.259	0.221
-348.464	-38.694	-0.141	0.074
-347.450	31.058	0.163	-0.138
-346.435	-200.000	0.003	-0.258
-345.420	800.000	0.057	-0.221
-344.406	-127.811	0.214	-0.030
-343.391	800.000	0.017	-0.049
-342.377	-102.945	-0.245	-0.057
-341.362	-164.564	-0.254	0.011
-340.348	705.202	0.070	-0.183
-339.333	141.215	-0.013	0.016
-338.318	-200.000	0.015	0.207
-337.304	-200.000	0.010	0.225
-336.289	-82.420	-0.217	0.070
-335.275	-200.000	-0.008	0.081
-334.260	-96.245	0.256	-0.067
-333.245	35.027	-0.161	0.140
-332.231	786.813	0.077	-0.209
-331.216	-17.057	-0.243	-0.152
-330.202	-49.804	0.231	-0.108
-329.187	-40.774	-0.217	-0.111
-328.172	34.570	-0.209	0.180
-327.158	-128.446	0.107	-0.015
-326.143	6.848	0.232	0.171
-325.129	421.653	-0.143	0.304
-324.114	-17.243	-0.127	0.079
-323.099	68.417	0.244	0.247
-322.085	642.144	-0.029	0.073
-321.070	185.160	0.176	-0.258
-320.056	154.535	0.058	-0.078
-319.041	-41.643	-0.285	-0.144
-318.026	208.695	0.072	0.112
-317.012	648.835	0.126	-0.319
-315.997	68.543	-0.025	-0.026
-314.983	-200.000	0.031	0.173
-313.968	-43.993	-0.099	-0.049
-312.953	-200.000	0.022	0.138
-311.939	-200.000	-0.027	0.212
-310.924	393.583	-0.069	0.142
-309.910	-200.000	-0.080	0.571
-308.895	-100.041	0.072	0.018
-307.880	122.606	-0.169	-0.208
-306.866	-5.711	0.389	-0.263
-305.851	-17.650	0.074	-0.046
-304.837	-165.721	0.084	-0.004
-303.822	-200.000	-0.035	0.205
-302.807	800.000	-0.043	-0.161
-301.793	-40.437	-0.055	0.028
-300.778	-3.005	-0.065	0.045
-299.764	-200.000	0.031	-0.324
-298.749	46.120	0.219	-0.200
-297.735	207.614	0.151	-0.233
-296.720	800.000	0.084	-0.270
-295.705	-117.493	-0.118	0.021
-294.691	272.605	0.039	0.068
-293.676	-200.000	-0.026	0.311
-292.662	26.272	0.363	0.299
-291.647	-99.207	-0.050	0.013
-290.632	-200.000	-0.039	-0.363
-289.618	209.066	0.033	0.050
-288.603	229.410	-0.143	0.230
-287.589	308.531	0.119	-0.218
-286.574	139.226	0.148	-0.192
-285.559	287.905	-0.069	-0.123
-284.545	147.632	0.032	-0.043
-283.530	4.235	-0.318	0.230
-282.516	411.519	-0.079	-0.166
-281.501	800.000	0.037	0.150
-280.486	-47.128	0.094	0.045
-279.472	-134.692	-0.159	0.019
-278.457	-98.810	-0.240	-0.060
-277.443	43.119	-0.283	0.255
-276.428	-55.112	0.337	0.149
-275.413	350.271	-0.204	-0.397
-274.399	-83.222	-0.220	0.070
-273.384	202.389	0.224	-0.341
-272.370	-108.381	-0.435	-0.092
-271.355	31.418	0.152	0.128
-270.340	-134.319	-0.322	0.039
-269.326	89.974	0.184	0.202
-268.311	-154.422	0.052	-0.003
-267.297	-200.000	-0.022	-0.226
-266.282	128.486	0.060	-0.075
-265.267	800.000	0.103	0.358
-264.253	8.883	-0.232	-0.172
-263.238	-200.000	-0.019	-0.334
-262.224	13.531	0.178	-0.136
-261.209	-121.431	-0.056	0.009
-260.195	-68.663	0.260	-0.099
-259.180	-181.951	-0.092	-0.002
-258.165	-200.000	0.010	-0.054
-257.151	78.328	0.095	0.100
-256.136	-200.000	0.001	-0.157
-255.122	-57.412	0.237	0.103
-254.107	-106.065	-0.162	-0.036
-253.092	800.000	-0.148	0.573
-252.078	-80.910	0.258	-0.084
-251.063	-200.000	0.018	-0.083
-250.049	53.824	0.036	-0.034
-249.034	-71.012	-0.156	-0.058
-248.019	-200.000	0.026	0.164
-247.005	-152.117	-0.121	0.009
-245.990	-82.055	0.214	0.069
-244.976	-54.123	0.114	0.051
-243.961	83.381	-0.127	0.137
-242.946	735.712	0.048	-0.127
-241.932	-51.581	-0.107	-0.049
-240.917	246.068	0.077	0.128
-239.903	-20.860	0.093	-0.056
-238.888	373.226	-0.082	-0.164
-237.873	-200.000	-0.005	-0.027
-236.859	-200.000	-0.018	0.139
-235.844	631.955	0.073	0.183
-234.830	115.766	-0.133	-0.160
-233.815	686.104	0.112	-0.287
-232.800	58.685	-0.322	0.311
-231.786	2.812	0.195	-0.139
-230.771	255.135	0.053	-0.089
-229.757	375.505	0.143	0.287
-228.742	-165.691	0.217	0.009
-227.727	73.435	0.235	-0.242
-226.713	-155.220	0.424	0.027
-225.698	-104.471	0.054	-0.012
-224.684	-65.966	0.113	0.044
-223.669	-6.840	-0.152	0.101
-222.655	443.606	0.119	0.257
-221.640	-62.638	-0.112	-0.046
-220.625	-128.314	0.284	-0.040
-219.611	132.660	0.085	0.108
-218.596	-127.462	-0.376	0.054
-217.582	-98.055	0.406	0.103
-216.567	-200.000	0.047	0.287
-215.552	-145.841	0.056	-0.005
-214.538	-200.000	0.051	0.301
-213.523	-200.000	-0.041	0.340
-212.509	326.518	-0.070	-0.132
-211.494	488.610	-0.023	-0.051
-210.479	37.440	-0.298	0.260
-209.465	-3.173	0.246	-0.169
-208.450	-176.938	0.129	-0.003
-207.436	-5.601	0.279	0.188
-206.421	245.695	-0.091	-0.150
-205.406	132.211	0.228	-0.289
-204.392	44.440	-0.232	0.209
-203.377	-200.000	0.023	-0.172
-202.363	88.871	0.170	0.186
-201.348	-200.000	0.081	0.367
-200.333	-200.000	-0.001	-0.153
-199.319	800.000	0.118	0.350
-198.304	-124.110	-0.142	-0.022
-197.290	-200.000	0.023	0.170
-196.275	-200.000	0.013	0.126
-195.260	482.186	0.098	-0.220
-194.246	129.851	0.047	-0.059
-193.231	579.725	0.066	0.159
-192.217	212.576	0.171	0.266
-191.202	800.000	-0.101	0.332
-190.187	349.956	0.246	-0.478
-189.173	-29.690	0.331	0.186
-188.158	-100.071	0.358	0.088
-187.144	-200.000	-0.052	0.257
-186.129	-200.000	-0.010	-0.084
-185.114	-200.000	-0.023	0.371
-184.100	108.592	0.055	-0.065
-183.085	-11.934	-0.192	0.124
-182.071	800.000	-0.061	0.186
-181.056	800.000	-0.033	0.140
-180.042	-200.000	0.025	-0.179
-179.027	-200.000	0.038	-0.289
-178.012	-200.000	0.000	0.152
-176.998	-145.087	-0.169	0.015
-175.983	60.469	0.089	-0.086
-174.969	79.713	0.052	-0.055
-173.954	90.360	0.140	0.154
-172.939	-72.150	0.064	-0.023
-171.925	50.614	0.170	-0.158
-170.910	-91.535	0.063	-0.018
-169.896	-200.000	0.002	0.029
-168.881	-109.745	-0.009	-0.002
-167.866	-157.988	-0.447	0.026
-166.852	-91.734	0.061	0.017
-165.837	178.818	-0.187	0.268
-164.823	14.341	0.185	-0.142
-163.808	800.000	0.067	0.260
-162.793	800.000	-0.009	0.030
-161.779	-133.970	-0.254	0.031
-160.764	-75.074	-0.424	0.149
-159.750	-63.644	-0.099	-0.040
-158.735	-1.045	0.247	0.172
-157.720	11.583	0.193	-0.145
-156.706	-195.052	0.161	-0.001
-155.691	-89.036	0.031	0.009
-154.677	166.158	0.139	0.193
-153.662	-95.268	-0.264	0.070
-152.647	169.101	-0.178	0.249
-151.633	23.683	-0.067	-0.054
-150.618	203.462	0.095	-0.144
-149.604	140.925	-0.086	-0.111
-148.589	-46.115	-0.144	0.070
-147.574	303.912	-0.056	-0.102
-146.560	95.529	0.300	-0.335
-145.545	45.776	0.122	-0.110
-144.531	74.041	-0.290	-0.298
-143.516	433.441	-0.116	-0.247
-142.502	22.686	-0.092	-0.074
-141.487	4.170	-0.233	-0.167
-140.472	63.139	0.050	-0.049
-139.458	22.192	0.329	0.263
-138.443	-89.197	0.039	0.011
-137.429	-200.000	0.000	-0.090
-136.414	-200.000	-0.029	0.284
-135.399	-83.575	0.088	0.027
-134.385	800.000	0.022	-0.082
-133.370	141.794	0.133	-0.172
-132.356	183.320	-0.238	-0.344
-131.341	388.417	0.098	0.198
-130.326	26.963	-0.285	0.234
-129.312	-200.000	-0.020	0.199
-128.297	-65.615	0.440	0.173
-127.283	473.621	-0.074	-0.164
-126.268	-87.666	0.285	-0.084
-125.253	-78.881	-0.315	0.105
-124.239	390.207	-0.057	0.117
-123.224	55.184	0.006	0.006
-122.210	-150.703	0.100	-0.007
-121.195	54.115	0.141	0.133
-120.180	-200.000	0.018	0.101
-119.166	-200.000	-0.068	0.342
-118.151	800.000	0.147	0.420
-117.137	800.000	0.019	-0.055
-116.122	-84.796	0.375	-0.115
-115.107	87.107	-0.175	-0.189
-114.093	-112.142	0.377	-0.074
-113.078	-48.078	-0.106	-0.050
-112.064	116.175	-0.110	-0.132
-111.049	800.000	0.064	-0.178
-110.034	-200.000	0.032	0.179
-109.020	-200.000	-0.011	0.124
-108.005	-35.746	-0.051	0.027
-106.991	92.053	-0.126	0.139
-105.976	-200.000	-0.006	0.079
-104.962	180.718	0.043	-0.061
-103.947	800.000	-0.049	-0.178
-102.932	57.287	-0.172	-0.165
-101.918	-42.910	-0.233	-0.116
-100.903	-200.000	0.052	-0.328
-99.889	18.070	0.199	-0.155
-98.874	64.881	-0.113	0.112
-97.859	10.613	0.287	0.214
-96.845	473.607	0.141	0.312
-95.830	-83.761	0.041	-0.013
-94.816	173.157	-0.137	0.194
-93.801	-81.036	-0.138	0.045
-92.786	-158.177	0.244	0.014
-91.772	800.000	-0.054	-0.148
-90.757	-200.000	-0.036	-0.251
-89.743	23.024	0.137	-0.110
-88.728	-44.813	-0.164	0.080
-87.713	88.502	0.097	0.105
-86.699	-24.588	0.256	0.149
-85.684	262.090	-0.178	0.302
-84.670	-48.838	-0.411	-0.193
-83.655	-52.567	0.139	0.063
-82.640	67.816	0.137	0.137
-81.626	-21.810	-0.103	0.061
-80.611	517.337	-0.061	-0.140
-79.597	-81.965	0.096	0.031
-78.582	-50.612	0.218	-0.100
-77.567	101.526	-0.286	0.326
-76.553	800.000	0.049	-0.157
-75.538	-121.892	0.271	0.044
-74.524	-83.274	-0.173	-0.054
-73.509	72.869	-0.094	-0.096
-72.494	86.733	0.248	0.267
-71.480	425.318	-0.065	0.137
-70.465	800.000	0.083	0.240
-69.451	-165.369	-0.398	-0.017
-68.436	0.884	-0.096	-0.068
-67.422	177.711	0.089	0.126
-66.407	-110.467	-0.241	-0.049
-65.392	125.295	-0.128	0.157
-64.378	95.084	-0.065	0.073
-63.363	144.147	0.073	-0.095
-62.349	-63.981	0.327	0.131
-61.334	76.356	-1.121	-1.160
-60.319	189.319	0.355	0.519
-59.305	491.093	-0.456	-1.019
-58.290	161.491	0.920	1.258
-57.276	582.150	0.600	1.438
-56.261	-200.000	116.613	648.524
-55.246	506.771	1540.757	3491.013
-54.232	174.254	2721.083	3842.194
-53.217	99.037	2297.044	2592.056
-52.203	35.576	1904.019	1633.452
-51.188	29.558	1696.870	1409.904
-50.173	27.211	1655.378	1357.871
-49.159	47.918	1712.006	1562.145
-48.144	46.537	1725.438	1563.862
-47.130	29.169	1683.302	1395.457
-46.115	26.488	1669.131	1363.489
-45.100	26.316	1664.428	1358.295
-44.086	26.323	1661.719	1356.085
-43.071	26.298	1659.125	1353.726
-42.057	26.458	1655.852	1352.196
-41.042	26.304	1654.786	1350.121
-40.027	26.363	1652.290	1348.474
-39.013	26.375	1650.192	1346.800
-37.998	26.374	1648.720	1345.536
-36.984	26.318	1647.940	1344.426
-35.969	26.474	1646.033	1343.976
-34.954	26.525	1644.138	1342.756
-33.940	26.464	1642.651	1341.036
-32.925	26.447	1641.150	1339.632
-31.911	26.414	1639.521	1338.007
-30.896	26.433	1637.831	1336.717
-29.881	26.441	1636.155	1335.350
-28.867	26.519	1634.218	1334.290
-27.852	26.496	1632.670	1332.809
-26.838	26.472	1631.806	1331.872
-25.823	26.530	1630.384	1331.087
-24.809	26.483	1628.973	1329.536
-23.794	26.514	1627.018	1328.114
-22.779	26.556	1625.849	1327.417
-21.765	26.458	1624.456	1325.509
-20.750	26.484	1622.552	1324.091
-19.736	26.519	1621.487	1323.426
-18.721	26.554	1620.288	1322.648
-17.706	26.623	1618.171	1321.372
-16.692	26.530	1617.022	1319.703
-15.677	26.539	1615.317	1318.329
-14.663	26.538	1613.930	1317.134
-13.648	26.494	1613.054	1316.047
-12.633	26.608	1611.021	1315.166
-11.619	26.675	1609.175	1314.094
-10.604	26.600	1607.747	1312.331
-9.590	26.629	1606.416	1311.397
-8.575	26.553	1605.496	1310.045
-7.560	26.490	1604.528	1308.749
-6.546	26.578	1603.367	1308.385
-5.531	26.543	1601.935	1306.914
-4.517	26.527	1600.856	1305.864
-3.502	26.531	1599.947	1305.101
-2.487	26.574	1598.178	1303.917
-1.473	26.293	1586.484	1292.314
-0.458	23.426	1567.520	1256.522
0.556	20.888	1569.200	1226.481
1.571	18.691	1593.364	1229.533
2.586	18.234	1605.224	1235.281
3.600	16.091	1550.192	1177.871
4.615	9.519	1441.933	1052.678
5.629	4.055	1382.589	974.938
6.644	3.169	1375.798	964.514
7.659	3.249	1374.153	963.774
8.673	3.207	1373.368	962.877
9.688	3.235	1371.839	961.891
10.702	3.163	1368.487	959.010
11.717	5.726	1372.934	978.049
12.731	12.847	1386.876	1032.648
13.746	18.826	1396.357	1077.215
14.761	20.275	1397.789	1087.310
15.775	19.740	1395.237	1081.885
16.790	18.645	1393.222	1073.380
17.804	17.932	1390.584	1066.801
18.819	17.536	1389.631	1063.502
19.834	17.494	1388.221	1062.066
20.848	17.229	1387.354	1059.653
21.863	16.964	1386.241	1057.058
22.877	16.950	1384.677	1055.685
23.892	16.861	1383.847	1054.408
24.907	16.814	1382.954	1053.341
25.921	16.849	1382.262	1052.937
26.936	16.903	1381.428	1052.548
27.950	16.926	1380.156	1051.627
28.965	16.880	1379.616	1050.836
29.980	17.114	1378.184	1051.099
30.994	17.190	1376.790	1050.414
32.009	17.201	1376.032	1049.814
33.023	17.193	1374.999	1048.883
34.038	17.053	1373.924	1047.106
35.053	16.993	1372.628	1045.654
36.067	16.985	1371.208	1044.434
37.082	17.008	1370.424	1043.885
38.096	17.186	1368.891	1043.715
39.111	17.173	1368.817	1043.488
40.126	17.052	1367.462	1041.620
41.140	16.812	1366.756	1039.521
42.155	16.807	1365.427	1038.388
43.169	16.735	1365.592	1037.980
44.184	16.695	1365.503	1037.571
45.199	16.660	1364.940	1036.839
46.213	16.732	1364.567	1036.904
47.228	16.865	1363.814	1037.052
48.242	17.047	1362.438	1037.026
49.257	16.891	1360.633	1034.613
50.271	16.954	1359.574	1034.100
51.286	16.937	1357.857	1032.598
52.301	16.954	1356.689	1031.721
53.315	16.755	1355.902	1029.824
54.330	16.720	1354.703	1028.606
55.344	16.783	1353.168	1027.735
56.359	16.823	1352.208	1027.157
57.374	16.675	1351.764	1025.833
58.388	16.616	1351.013	1024.816
59.403	16.570	1350.663	1024.177
60.417	16.599	1349.463	1023.352
61.432	16.504	1348.842	1022.214
62.447	16.531	1347.695	1021.418
63.461	16.507	1346.245	1020.083
64.476	16.376	1345.237	1018.442
65.490	16.455	1344.298	1018.115
66.505	16.436	1342.634	1016.654
67.520	16.479	1341.303	1015.810
68.534	16.632	1339.989	1015.644
69.549	16.538	1339.590	1014.693
70.563	16.446	1338.308	1013.081
71.578	16.391	1337.082	1011.733
72.593	16.270	1336.227	1010.272
73.607	16.270	1335.903	1009.936
74.622	16.433	1334.160	1009.502
75.636	16.400	1333.601	1008.794
76.651	16.490	1333.000	1008.786
77.666	16.452	1332.600	1008.166
78.680	16.399	1332.463	1007.657
79.695	16.577	1331.276	1007.735
80.709	16.533	1330.856	1007.062
81.724	16.650	1330.206	1007.180
82.739	16.760	1329.433	1007.161
83.753	16.795	1328.489	1006.564
84.768	17.017	1327.786	1007.259
85.782	17.109	1326.404	1006.668
86.797	17.117	1324.821	1005.427
87.812	16.961	1323.900	1003.714
88.826	16.975	1322.784	1002.863
89.841	16.920	1321.962	1001.825
90.855	17.078	1320.898	1001.863
91.870	17.063	1319.970	1000.983
92.884	17.142	1319.012	1000.633
93.899	17.118	1318.269	999.839
94.914	17.247	1317.493	999.920
95.928	17.089	1316.867	998.429
96.943	17.126	1315.371	997.420
97.957	17.058	1314.847	996.539
98.972	17.041	1313.910	995.638
99.987	17.056	1312.741	994.750
101.001	17.096	1311.614	994.043
102.016	17.019	1310.744	992.844
103.030	17.095	1309.920	992.579
104.045	17.123	1308.224	991.368
105.060	16.932	1307.652	989.732
106.074	16.855	1305.748	987.754
107.089	16.579	1304.729	985.293
108.103	16.609	1303.262	984.272
109.118	16.544	1302.240	983.031
110.133	16.549	1300.634	981.765
111.147	16.593	1299.129	980.797
112.162	16.705	1297.688	980.270
113.176	16.726	1296.961	979.757
114.191	16.661	1296.238	978.749
115.206	16.726	1295.180	978.237
116.220	16.680	1293.882	976.906
117.235	16.663	1292.734	975.854
118.249	16.710	1291.559	975.149
119.264	16.603	1290.509	973.654
120.279	16.473	1289.651	972.175
121.293	16.579	1288.159	971.572
122.308	16.519	1286.957	970.237
123.322	16.395	1286.333	968.969
124.337	16.386	1284.883	967.738
125.352	16.430	1283.892	967.157
126.366	16.403	1282.867	966.145
127.381	16.488	1281.890	965.813
128.395	16.459	1281.172	965.021
129.410	16.576	1279.813	964.577
130.424	16.548	1278.885	963.633
131.439	16.567	1278.638	963.471
132.454	16.772	1277.269	963.518
133.468	16.728	1276.767	962.807
134.483	16.681	1276.074	961.932
135.497	16.689	1275.066	961.133
136.512	16.761	1273.314	960.133
137.527	16.809	1272.286	959.544
138.541	16.729	1271.302	958.266
139.556	16.708	1269.887	956.993
140.570	16.727	1269.209	956.508
141.585	16.969	1267.350	956.385
142.600	17.055	1266.423	956.085
143.614	17.115	1265.869	955.920
144.629	17.097	1264.595	954.774
145.643	17.057	1263.558	953.682
146.658	16.980	1261.794	951.835
147.673	16.868	1260.861	950.417
148.687	16.942	1259.487	949.713
149.702	16.701	1258.430	947.484
150.716	16.825	1257.014	947.025
151.731	16.825	1255.983	946.166
152.746	16.696	1254.995	944.616
153.760	16.884	1253.666	944.581
154.775	16.829	1252.949	943.651
155.789	17.033	1251.612	943.697
156.804	17.027	1250.507	942.747
157.819	17.076	1249.716	942.336
158.833	17.164	1248.549	941.860
159.848	17.170	1248.079	941.459
160.862	17.094	1247.347	940.400
161.877	16.890	1246.247	938.362
162.892	16.809	1245.001	936.891
163.906	16.902	1243.710	936.350
164.921	16.772	1243.381	935.302
165.935	16.925	1242.085	935.090
166.950	16.938	1241.505	934.638
167.964	17.079	1240.281	934.411
168.979	16.910	1239.675	932.945
169.994	16.898	1239.287	932.502
171.008	16.999	1238.439	932.338
172.023	17.060	1237.414	931.819
173.037	17.225	1236.793	932.174
174.052	17.061	1236.107	930.675
175.067	16.972	1234.664	929.019
176.081	16.783	1233.944	927.360
177.096	16.883	1232.624	926.833
178.110	16.952	1231.480	926.266
179.125	16.923	1230.732	925.465
180.140	17.019	1228.907	924.534
181.154	17.140	1228.105	924.507
182.169	17.163	1227.002	923.719
183.183	17.236	1226.061	923.329
184.198	17.334	1224.818	922.840
185.213	17.291	1223.765	921.733
186.227	17.225	1222.653	920.456
187.242	17.328	1221.698	920.215
188.256	17.322	1221.058	919.615
189.271	17.394	1219.725	918.922
190.286	17.323	1218.421	917.475
191.300	16.944	1217.444	914.614
192.315	16.779	1216.970	913.286
193.329	16.876	1216.074	913.055
194.344	17.082	1215.641	913.761
195.359	17.029	1215.001	912.911
196.373	17.200	1214.374	913.278
197.388	17.366	1214.136	913.914
198.402	17.488	1213.790	914.224
199.417	17.534	1213.003	913.799
200.432	17.506	1212.547	913.225
201.446	17.518	1211.808	912.653
202.461	17.680	1210.837	912.707
203.475	17.744	1209.833	912.214
204.490	17.537	1208.557	910.064
205.504	17.487	1207.048	908.580
206.519	17.369	1205.930	907.029
207.534	17.377	1204.768	906.115
208.548	17.427	1203.903	905.652
209.563	17.494	1202.952	905.215
210.577	17.419	1202.146	904.125
211.592	17.568	1201.206	904.131
212.607	17.627	1200.591	903.903
213.621	17.621	1199.867	903.243
214.636	17.628	1199.116	902.634
215.650	17.646	1197.749	901.620
216.665	17.770	1196.948	901.596
217.680	17.844	1196.259	901.386
218.694	17.752	1195.672	900.378
219.709	17.687	1194.758	899.268
220.723	17.658	1193.958	898.436
221.738	17.736	1193.204	898.196
222.753	17.839	1192.140	897.861
223.767	17.758	1191.827	897.117
224.782	17.918	1190.752	897.071
225.796	17.997	1190.703	897.368
226.811	17.811	1190.156	895.902
227.826	17.831	1189.111	895.139
228.840	17.796	1188.496	894.413
229.855	17.769	1187.384	893.357
230.869	17.777	1186.882	892.944
231.884	17.737	1185.742	891.795
232.899	17.727	1184.592	890.799
233.913	17.591	1184.246	889.749
234.928	17.708	1182.976	889.330
235.942	17.521	1182.755	888.108
236.957	17.614	1181.983	887.934
237.972	17.488	1181.758	887.032
238.986	17.673	1180.273	886.801
240.001	17.673	1179.716	886.302
241.015	17.823	1178.766	886.290
242.030	17.790	1177.989	885.455
243.045	17.894	1177.352	885.440
244.059	17.821	1176.870	884.620
245.074	17.817	1175.860	883.761
246.088	17.916	1174.936	883.500
247.103	18.005	1174.490	883.548
248.117	18.051	1173.863	883.237
249.132	18.128	1173.190	883.050
250.147	18.343	1172.443	883.519
251.161	18.489	1171.406	883.412
252.176	18.431	1170.642	882.456
253.190	18.502	1170.745	882.822
254.205	18.520	1170.497	882.648
255.220	18.518	1169.689	881.951
256.234	18.507	1168.794	881.143
257.249	18.566	1167.686	880.533
258.263	18.498	1167.574	880.022
259.278	18.516	1166.822	879.467
260.293	18.549	1165.919	878.879
261.307	18.560	1165.689	878.684
262.322	18.710	1165.064	878.906
263.336	18.648	1164.263	877.907
264.351	18.740	1163.881	878.011
265.366	18.672	1163.146	877.029
266.380	18.662	1162.472	876.394
267.395	18.658	1161.386	875.476
268.409	18.595	1160.380	874.321
269.424	18.539	1160.060	873.717
270.439	18.583	1159.134	873.166
271.453	18.558	1158.668	872.609
272.468	18.458	1157.094	870.841
273.482	18.557	1156.840	871.074
274.497	18.578	1156.450	870.810
275.512	18.517	1155.879	869.991
276.526	18.531	1154.887	869.243
277.541	18.520	1154.473	868.797
278.555	18.650	1153.149	868.382
279.570	18.659	1152.949	868.199
280.585	18.703	1152.425	867.948
281.599	18.841	1151.181	867.632
282.614	18.714	1149.642	865.758
283.628	18.682	1148.750	864.848
284.643	18.561	1148.283	863.806
285.657	18.617	1147.317	863.290
286.672	18.709	1145.972	862.660
287.687	18.599	1145.561	861.723
288.701	18.709	1144.981	861.764
289.716	18.606	1144.149	860.545
290.730	18.758	1143.092	860.434
291.745	18.765	1142.504	859.953
292.760	18.728	1142.164	859.435
293.774	18.883	1141.272	859.464
294.789	18.914	1141.253	859.528
295.803	18.884	1140.446	858.690
296.818	18.960	1139.097	857.980
297.833	18.843	1138.532	856.895
298.847	18.783	1137.748	855.928
299.862	18.832	1136.545	855.194
300.876	18.813	1136.239	854.794
301.891	18.832	1135.727	854.428
302.906	18.968	1135.186	854.618
303.920	18.968	1134.450	853.992
304.935	19.176	1133.776	854.439
305.949	19.111	1133.712	853.993
306.964	19.272	1132.561	853.847
307.979	19.114	1131.715	852.353
308.993	19.161	1130.758	851.789
310.008	19.202	1130.150	851.457
311.022	19.174	1129.512	850.764
312.037	19.092	1128.555	849.565
313.052	19.138	1127.360	848.817
314.066	19.053	1126.158	847.416
315.081	18.949	1125.479	846.319
316.095	18.829	1124.679	845.054
317.110	18.893	1124.077	844.837
318.125	18.897	1123.419	844.291
319.139	18.870	1122.833	843.643
320.154	18.878	1122.152	843.094
321.168	19.017	1121.404	843.142
322.183	19.068	1120.685	842.772
323.197	18.998	1120.369	842.121
324.212	19.063	1119.392	841.628
325.227	18.996	1119.264	841.129
326.241	19.014	1118.247	840.378
327.256	19.182	1117.192	840.333
328.270	18.972	1116.531	838.734
329.285	19.023	1115.874	838.418
330.300	19.016	1115.018	837.664
331.314	19.006	1113.573	836.457
332.329	19.015	1113.238	836.177
333.343	19.051	1112.026	835.366
334.358	19.302	1111.187	835.878
335.373	19.242	1110.813	835.231
336.387	19.299	1109.818	834.686
337.402	19.325	1109.279	834.332
338.416	19.352	1108.831	834.055
339.431	19.297	1108.544	833.498
340.446	19.527	1107.739	833.932
341.460	19.613	1106.818	833.578
342.475	19.722	1105.838	833.292
343.489	19.607	1105.026	832.051
344.504	19.726	1103.971	831.755
345.519	19.720	1103.433	831.249
346.533	19.741	1102.917	830.887
347.548	19.801	1101.927	830.354
348.562	19.759	1101.086	829.446
349.577	19.628	1100.045	827.963
350.592	19.593	1099.286	827.152
351.606	19.471	1098.360	825.796
352.621	19.462	1097.813	825.267
353.635	19.446	1096.907	824.437
354.650	19.327	1096.638	823.594
355.665	19.422	1095.673	823.253
356.679	19.595	1095.308	823.729
357.694	19.561	1094.661	823.005
358.708	19.708	1094.076	823.197
359.723	19.726	1092.874	822.302
360.738	19.764	1092.203	821.907
361.752	19.618	1092.384	821.274
362.767	19.703	1091.583	821.005
363.781	19.731	1091.050	820.662
364.796	19.829	1090.654	820.757
365.810	19.868	1089.890	820.294
366.825	19.941	1089.220	820.065
367.840	20.043	1088.742	820.116
368.854	20.026	1088.324	819.647
369.869	20.106	1087.399	819.256
370.883	20.088	1086.398	818.343
371.898	19.875	1085.997	816.966
372.913	20.101	1085.059	817.253
373.927	20.066	1084.541	816.624
374.942	20.087	1084.040	816.274
375.956	20.005	1083.817	815.650
376.971	20.061	1082.921	815.165
377.986	20.236	1082.246	815.406
379.000	20.285	1082.038	815.406
380.015	20.203	1081.601	814.622
381.029	20.406	1080.628	814.769
382.044	20.403	1079.842	814.090
383.059	20.280	1079.271	813.011
384.073	20.201	1078.777	812.197
385.088	20.306	1077.524	811.675
386.102	20.281	1076.881	811.002
387.117	20.157	1075.710	809.467
388.132	20.116	1074.551	808.333
389.146	20.133	1073.568	807.600
390.161	20.137	1072.846	807.008
391.175	20.114	1072.280	806.400
392.190	20.201	1071.551	806.185
393.205	20.268	1071.032	806.034
394.219	20.243	1070.247	805.258
395.234	20.196	1069.366	804.308
396.248	20.225	1067.849	803.230
397.263	20.108	1067.438	802.307
398.278	20.107	1066.693	801.673
399.292	20.012	1065.523	800.281
400.307	19.938	1064.995	799.475
401.321	20.059	1064.524	799.606
402.336	20.043	1063.800	798.916
403.350	19.969	1063.430	798.228
404.365	20.048	1063.230	798.370
405.380	20.235	1061.811	798.098
406.394	20.282	1060.878	797.542
407.409	20.280	1060.454	797.144
408.423	20.402	1059.662	797.038
409.438	20.477	1058.911	796.745
410.453	20.575	1058.551	796.852
411.467	20.577	1058.070	796.430
412.482	20.621	1057.178	795.886
413.496	20.673	1056.532	795.572
414.511	20.603	1056.107	794.857
415.526	20.832	1055.882	795.667
416.540	20.871	1054.985	795.096
417.555	20.773	1054.554	794.254
418.569	20.875	1053.950	794.195
419.584	20.641	1053.598	792.791
420.599	20.720	1052.767	792.458
421.613	155.356	1404.376	1796.808
422.628	142.546	1455.580	1796.875
