DTS Sentinel unit serial number:	SN413079Multiplexer serial number:	ORYXHardware model number:	OX4-SRSoftware version number:	ORYX F/W v4.00 Oryx Data Collector v3.7.2.0data status	okinstallation	princeton_trtdifferential loss correction	single-endedforward channel	channel 2reverse channel	N/Adate	2019/09/14time	19:51:34forward acquisition time	60.00reverse acquisition time	0.00gamma	496.2192k internal	0.2320k external	0.2320temperature offset calibration	1.0097default loss term (dB/km)	0.3790temperature slope calibration	1.0000multiplexer offset coefficient	1.0000multiplexer slope coefficient	1.0000fibre end	0.00T internal ref (°C)	34.25T ext. ref 1 (°C)	4.87T ext. ref 2 (°C)	28.49length (m)	temperature (°C)	Stokes	anti-Stokes-747.200	122.544	-0.122	-0.154
-746.185	800.000	-0.068	0.287
-745.171	-42.912	-0.113	-0.058
-744.156	-200.000	0.006	-0.279
-743.142	800.000	-0.079	-0.241
-742.127	55.921	-0.295	0.289
-741.112	172.920	0.122	-0.178
-740.098	-200.000	0.028	-0.184
-739.083	-154.050	0.079	-0.005
-738.069	246.413	0.033	0.057
-737.054	-200.000	-0.057	-0.274
-736.039	-157.246	-0.356	-0.022
-735.025	-16.153	0.174	-0.112
-734.010	95.567	0.224	0.258
-732.996	-78.949	-0.255	-0.088
-731.981	21.037	-0.351	-0.288
-730.966	-200.000	0.004	0.290
-729.952	-47.576	-0.307	0.151
-728.937	-46.374	-0.395	-0.196
-727.923	152.073	-0.108	0.148
-726.908	177.641	-0.196	-0.289
-725.894	-26.549	-0.076	-0.045
-724.879	-200.000	-0.022	0.226
-723.864	-50.359	-0.279	0.133
-722.850	421.871	-0.065	0.141
-721.835	800.000	0.060	0.217
-720.821	-136.317	0.237	-0.028
-719.806	-200.000	-0.042	0.264
-718.791	-99.958	-0.299	-0.075
-717.777	-33.491	-0.183	-0.102
-716.762	-48.788	-0.122	0.059
-715.748	0.613	-0.453	0.327
-714.733	-96.909	0.050	-0.013
-713.718	14.951	-0.077	0.061
-712.704	-7.706	0.126	-0.086
-711.689	-54.672	-0.036	0.016
-710.675	4.196	0.188	0.139
-709.660	-18.348	-0.328	-0.207
-708.645	-54.309	0.132	-0.060
-707.631	-48.248	-0.053	-0.026
-706.616	-200.000	0.002	0.165
-705.602	236.215	-0.200	-0.334
-704.587	-154.417	0.029	0.002
-703.572	-95.943	-0.203	-0.055
-702.558	104.782	-0.141	-0.168
-701.543	-200.000	0.001	0.185
-700.529	-200.000	0.004	-0.124
-699.514	-165.017	-0.333	0.015
-698.499	198.016	0.078	-0.121
-697.485	-187.228	0.194	-0.003
-696.470	104.772	-0.227	-0.270
-695.456	-189.928	-0.170	0.002
-694.441	140.421	-0.082	0.109
-693.426	-61.832	0.111	-0.047
-692.412	-44.407	-0.107	-0.054
-691.397	23.294	0.282	-0.234
-690.383	-200.000	-0.009	-0.196
-689.368	-66.450	-0.100	0.040
-688.354	339.159	0.294	0.578
-687.339	-83.865	0.264	0.085
-686.324	-16.832	0.281	0.179
-685.310	544.045	-0.117	0.281
-684.295	93.316	0.168	-0.192
-683.281	800.000	-0.022	-0.062
-682.266	800.000	-0.044	-0.195
-681.251	191.783	0.097	0.147
-680.237	800.000	-0.101	-0.300
-679.222	-107.351	0.234	0.052
-678.208	-98.302	0.107	0.028
-677.193	800.000	-0.059	0.238
-676.178	-113.395	-0.138	0.027
-675.164	-186.892	-0.169	0.002
-674.149	-200.000	-0.049	-0.336
-673.135	-163.906	-0.107	-0.005
-672.120	152.427	0.069	-0.095
-671.105	471.079	-0.056	-0.128
-670.091	50.639	-0.159	-0.152
-669.076	31.188	-0.193	0.167
-668.062	5.537	0.167	-0.124
-667.047	800.000	0.069	0.216
-666.032	-5.145	-0.165	-0.114
-665.018	244.632	0.154	0.261
-664.003	-200.000	0.019	0.243
-662.989	129.173	-0.278	0.358
-661.974	-101.086	-0.075	-0.019
-660.959	-24.194	0.283	-0.171
-659.945	-200.000	-0.026	-0.281
-658.930	-14.214	-0.124	-0.081
-657.916	-154.387	-0.251	0.017
-656.901	55.244	0.028	-0.028
-655.886	800.000	0.114	-0.387
-654.872	-97.864	0.215	-0.056
-653.857	-83.162	0.119	0.038
-652.843	800.000	-0.015	-0.044
-651.828	-200.000	0.069	0.314
-650.814	23.878	0.103	-0.086
-649.799	674.659	0.138	-0.361
-648.784	-7.532	0.245	0.167
-647.770	26.079	0.181	-0.152
-646.755	800.000	0.102	0.289
-645.741	86.172	0.110	0.122
-644.726	52.714	-0.116	0.111
-643.711	79.999	-0.168	-0.182
-642.697	-29.717	-0.269	0.154
-641.682	117.489	-0.384	0.475
-640.668	439.613	0.168	-0.369
-639.653	555.670	-0.113	0.273
-638.638	-200.000	0.041	-0.396
-637.624	-68.969	-0.040	0.015
-636.609	23.062	0.142	0.117
-635.595	-46.949	-0.124	-0.061
-634.580	9.289	0.095	-0.072
-633.565	121.363	-0.183	0.229
-632.551	14.007	-0.110	0.086
-631.536	-102.716	-0.223	0.053
-630.522	147.575	-0.040	0.054
-629.507	108.822	0.082	0.099
-628.492	800.000	0.047	0.189
-627.478	-200.000	-0.009	-0.116
-626.463	-200.000	0.002	0.030
-625.449	-141.724	0.460	-0.047
-624.434	-18.560	0.252	-0.158
-623.419	800.000	-0.063	0.244
-622.405	-200.000	0.066	-0.307
-621.390	54.186	-0.053	0.052
-620.376	-200.000	-0.039	-0.265
-619.361	-110.514	-0.142	0.030
-618.346	67.586	0.065	-0.066
-617.332	-162.238	0.285	-0.014
-616.317	-104.895	0.237	0.055
-615.303	800.000	-0.090	0.261
-614.288	-106.732	0.207	0.046
-613.273	-81.451	0.400	0.132
-612.259	-65.276	-0.249	0.101
-611.244	-200.000	-0.025	0.208
-610.230	170.800	-0.116	-0.167
-609.215	59.576	-0.187	-0.186
-608.201	-74.406	-0.155	-0.056
-607.186	-200.000	-0.024	-0.215
-606.171	-111.595	-0.041	0.008
-605.157	250.618	-0.090	0.153
-604.142	284.792	0.066	0.120
-603.128	21.071	-0.332	-0.271
-602.113	-42.740	-0.284	-0.145
-601.098	-68.954	0.304	-0.118
-600.084	134.827	0.144	0.188
-599.069	-136.302	-0.105	0.012
-598.055	198.941	0.056	0.087
-597.040	112.469	-0.221	-0.269
-596.025	142.875	0.161	-0.216
-595.011	800.000	-0.025	-0.073
-593.996	-200.000	0.080	-0.403
-592.982	-200.000	-0.016	-0.091
-591.967	206.201	-0.103	0.161
-590.952	-8.464	0.239	-0.161
-589.938	152.670	-0.107	0.147
-588.923	-51.912	0.136	0.064
-587.909	324.179	-0.057	-0.110
-586.894	-175.692	-0.139	0.004
-585.879	138.703	0.186	0.246
-584.865	-107.596	-0.084	0.018
-583.850	89.752	-0.091	-0.102
-582.836	-200.000	-0.023	-0.150
-581.821	-200.000	-0.013	-0.273
-580.806	800.000	-0.029	-0.106
-579.792	686.069	0.042	0.110
-578.777	800.000	0.075	-0.256
-577.763	728.008	-0.069	0.184
-576.748	90.517	-0.150	0.169
-575.733	-44.759	-0.107	-0.054
-574.719	-165.973	-0.029	0.001
-573.704	218.700	-0.186	0.299
-572.690	237.274	-0.131	-0.219
-571.675	18.914	-0.040	0.032
-570.661	-200.000	0.043	-0.199
-569.646	-113.675	-0.480	-0.094
-568.631	-200.000	0.017	0.167
-567.617	-101.052	-0.246	-0.061
-566.602	-60.593	-0.194	-0.083
-565.588	34.560	0.064	-0.056
-564.573	-75.666	-0.236	-0.084
-563.558	220.398	0.159	-0.256
-562.544	200.154	-0.093	0.143
-561.529	-84.198	0.062	0.020
-560.515	-14.596	-0.034	-0.022
-559.500	-128.140	-0.138	0.020
-558.485	-44.635	0.071	0.035
-557.471	784.553	-0.126	-0.346
-556.456	-12.853	-0.246	0.161
-555.442	800.000	0.079	0.316
-554.427	307.048	0.169	0.316
-553.412	-21.840	0.337	-0.206
-552.398	-93.758	-0.030	-0.008
-551.383	-200.000	0.032	-0.439
-550.369	-56.502	0.337	0.150
-549.354	-82.714	-0.220	-0.071
-548.339	-200.000	-0.016	0.142
-547.325	-118.343	-0.161	-0.029
-546.310	800.000	0.037	0.112
-545.296	-118.986	0.392	0.069
-544.281	143.241	-0.338	-0.452
-543.266	9.287	0.197	-0.150
-542.252	50.510	-0.105	-0.099
-541.237	462.773	0.058	0.129
-540.223	-56.273	-0.180	0.080
-539.208	-161.408	-0.226	0.012
-538.193	-120.794	-0.585	-0.099
-537.179	16.934	0.283	-0.225
-536.164	328.481	-0.127	-0.244
-535.150	-200.000	-0.038	0.194
-534.135	-49.345	-0.158	-0.076
-533.121	-65.567	0.192	-0.077
-532.106	-200.000	-0.021	0.119
-531.091	267.262	0.111	0.196
-530.077	800.000	-0.036	0.141
-529.062	59.008	-0.132	-0.131
-528.048	258.107	0.062	-0.108
-527.033	200.134	0.060	-0.093
-526.018	-200.000	0.014	-0.111
-525.004	-138.302	-0.055	0.006
-523.989	87.189	0.064	0.071
-522.975	-40.749	-0.119	0.062
-521.960	-200.000	0.036	0.170
-520.945	663.396	-0.037	-0.097
-519.931	-200.000	-0.012	-0.078
-518.916	800.000	-0.031	0.136
-517.902	800.000	-0.076	0.236
-516.887	-120.184	-0.117	0.020
-515.872	-200.000	0.034	-0.243
-514.858	310.698	0.130	0.244
-513.843	103.996	0.333	-0.392
-512.829	-75.109	0.174	0.062
-511.814	-200.000	-0.002	0.115
-510.799	45.296	-0.082	0.076
-509.785	800.000	-0.025	0.107
-508.770	27.913	0.219	0.185
-507.756	-70.563	-0.249	0.094
-506.741	14.433	-0.228	-0.178
-505.726	2.424	-0.152	-0.110
-504.712	-125.227	-0.276	0.042
-503.697	-112.365	-0.126	0.025
-502.683	800.000	0.047	-0.133
-501.668	50.279	-0.178	0.169
-500.653	-61.130	-0.143	0.060
-499.639	-139.623	0.415	-0.044
-498.624	72.969	-0.172	0.180
-497.610	-121.612	0.043	0.007
-496.595	-10.006	-0.301	-0.201
-495.581	-200.000	-0.004	0.390
-494.566	-19.149	-0.256	-0.159
-493.551	89.999	0.072	0.081
-492.537	6.072	0.356	0.264
-491.522	202.962	-0.186	0.287
-490.508	88.787	-0.138	0.154
-489.493	-2.882	0.080	-0.056
-488.478	54.211	0.101	0.097
-487.464	800.000	-0.027	0.097
-486.449	-22.768	0.283	-0.171
-485.435	14.716	-0.039	0.031
-484.420	11.148	-0.325	0.249
-483.405	199.155	0.183	-0.280
-482.391	-85.325	0.054	-0.017
-481.376	130.998	0.278	-0.357
-480.362	-26.139	-0.375	-0.221
-479.347	-57.781	-0.155	0.068
-478.332	143.147	0.141	0.188
-477.318	-200.000	-0.019	-0.178
-476.303	156.670	-0.112	-0.154
-475.289	-131.023	0.448	-0.060
-474.274	154.028	-0.112	-0.154
-473.259	-200.000	0.052	-0.329
-472.245	-157.539	-0.235	-0.014
-471.230	-200.000	-0.040	0.393
-470.216	-85.812	-0.364	0.113
-469.201	-200.000	-0.060	-0.280
-468.186	-200.000	0.033	0.515
-467.172	19.429	-0.272	-0.219
-466.157	-82.056	0.072	0.024
-465.143	180.986	-0.178	-0.262
-464.128	-149.416	0.216	-0.017
-463.113	-200.000	0.034	-0.339
-462.099	60.855	-0.077	-0.076
-461.084	800.000	-0.127	0.412
-460.070	-132.028	0.354	0.046
-459.055	-200.000	0.035	-0.277
-458.040	645.416	-0.030	0.077
-457.026	-178.177	-0.243	-0.006
-456.011	256.746	0.037	0.063
-454.997	380.469	-0.074	-0.151
-453.982	-31.916	0.335	-0.187
-452.968	800.000	-0.064	0.248
-451.953	-200.000	-0.054	0.242
-450.938	186.734	-0.118	0.176
-449.924	309.624	-0.004	-0.007
-448.909	672.104	-0.124	0.320
-447.895	800.000	-0.067	0.197
-446.880	179.304	-0.118	0.173
-445.865	-114.805	0.503	-0.096
-444.851	424.723	-0.039	-0.083
-443.836	377.535	-0.089	-0.182
-442.822	357.790	0.139	0.277
-441.807	-70.427	-0.188	0.071
-440.792	36.609	0.139	-0.123
-439.778	103.074	0.181	0.211
-438.763	-200.000	0.024	0.328
-437.749	536.382	-0.081	-0.192
-436.734	66.413	-0.192	-0.195
-435.719	800.000	-0.053	-0.205
-434.705	-54.643	-0.138	-0.062
-433.690	800.000	-0.105	-0.450
-432.676	-146.784	0.178	0.015
-431.661	-132.052	0.071	-0.009
-430.646	91.060	-0.096	-0.107
-429.632	75.091	0.200	0.211
-428.617	-200.000	0.027	-0.120
-427.603	113.418	0.090	-0.109
-426.588	800.000	0.051	0.143
-425.573	247.796	0.096	0.162
-424.559	-88.208	0.206	-0.061
-423.544	-102.486	-0.098	-0.023
-422.530	-87.330	-0.141	0.043
-421.515	800.000	0.043	0.151
-420.500	94.939	-0.109	0.124
-419.486	23.501	-0.249	-0.205
-418.471	-70.777	-0.394	0.148
-417.457	-79.453	0.130	0.044
-416.442	800.000	-0.035	-0.105
-415.428	-0.683	-0.085	0.060
-414.413	345.880	0.111	0.218
-413.398	163.298	0.158	0.222
-412.384	-200.000	0.046	-0.221
-411.369	800.000	-0.019	-0.069
-410.355	226.672	0.217	0.352
-409.340	-200.000	0.033	0.348
-408.325	-126.005	0.234	0.035
-407.311	-89.209	0.122	-0.036
-406.296	-33.941	0.212	-0.116
-405.282	54.839	-0.057	-0.055
-404.267	-84.629	0.224	-0.070
-403.252	565.247	0.115	-0.278
-402.238	126.197	-0.176	0.222
-401.223	-58.148	0.264	-0.115
-400.209	-97.642	-0.204	0.053
-399.194	-88.956	-0.215	0.063
-398.179	330.411	-0.051	0.098
-397.165	-37.807	-0.130	0.069
-396.150	-82.918	-0.311	-0.100
-395.136	259.701	0.184	0.317
-394.121	-152.245	-0.275	-0.020
-393.106	64.928	-0.038	-0.039
-392.092	-88.993	-0.141	0.042
-391.077	-88.956	0.144	-0.042
-390.063	-135.026	-0.256	0.031
-389.048	800.000	0.090	-0.269
-388.033	-100.490	0.135	-0.033
-387.019	60.258	-0.330	-0.325
-386.004	364.585	0.068	-0.135
-384.990	-63.459	0.247	0.101
-383.975	-154.366	-0.141	-0.009
-382.960	800.000	0.142	0.394
-381.946	158.748	0.161	-0.223
-380.931	-200.000	-0.035	0.321
-379.917	-194.009	-0.078	0.001
-378.902	597.197	0.055	-0.137
-377.888	149.474	0.026	-0.035
-376.873	-200.000	0.035	-0.462
-375.858	144.985	-0.152	0.203
-374.844	-200.000	-0.008	0.082
-373.829	179.939	-0.059	0.087
-372.815	-92.883	-0.323	0.090
-371.800	-21.753	0.262	0.159
-370.785	-54.968	0.141	0.063
-369.771	-200.000	-0.018	0.168
-368.756	43.243	0.166	-0.151
-367.742	-78.825	-0.288	-0.098
-366.727	800.000	0.044	0.160
-365.712	-107.163	-0.236	-0.052
-364.698	-40.006	0.083	-0.043
-363.683	134.164	-0.040	0.051
-362.669	-200.000	-0.029	0.140
-361.654	-118.593	0.079	0.014
-360.639	346.869	0.075	-0.146
-359.625	333.749	0.051	-0.098
-358.610	800.000	0.039	-0.128
-357.596	-68.032	0.147	-0.057
-356.581	237.238	0.144	0.237
-355.566	-94.518	-0.001	-0.000
-354.552	-200.000	0.038	0.194
-353.537	379.031	0.103	-0.210
-352.523	800.000	-0.040	-0.141
-351.508	-1.436	0.272	-0.191
-350.493	20.651	-0.083	0.067
-349.479	800.000	0.054	-0.166
-348.464	-200.000	-0.036	-0.256
-347.450	-29.486	-0.290	0.165
-346.435	8.160	0.134	-0.101
-345.420	345.224	-0.007	0.014
-344.406	-200.000	-0.020	-0.140
-343.391	-97.655	-0.279	0.072
-342.377	137.461	0.088	0.114
-341.362	493.225	0.093	0.212
-340.348	-23.105	0.041	-0.025
-339.333	24.151	0.268	0.220
-338.318	-123.851	0.137	-0.021
-337.304	119.893	-0.092	-0.114
-336.289	-39.411	-0.040	-0.021
-335.275	257.292	0.060	-0.102
-334.260	24.487	-0.060	0.049
-333.245	-79.741	0.236	0.079
-332.231	-200.000	0.011	-0.074
-331.216	-5.663	0.297	0.203
-330.202	41.310	-0.277	-0.249
-329.187	-14.571	-0.071	0.045
-328.172	-136.946	0.066	-0.008
-327.158	-200.000	0.027	-0.215
-326.143	-27.247	0.352	-0.204
-325.129	-3.231	-0.071	-0.049
-324.114	-48.564	0.209	-0.100
-323.099	424.011	0.123	-0.262
-322.085	-166.749	-0.339	-0.014
-321.070	234.627	0.160	-0.262
-320.056	378.365	0.125	-0.253
-319.041	330.542	-0.058	-0.110
-318.026	-200.000	-0.017	-0.171
-317.012	-74.155	0.163	0.059
-315.997	292.151	-0.028	0.052
-314.983	-126.352	-0.162	0.024
-313.968	-200.000	0.021	-0.110
-312.953	-104.497	-0.388	0.089
-311.939	-128.846	0.249	-0.035
-310.924	-37.329	0.132	0.070
-309.910	-93.424	0.230	0.063
-308.895	-77.295	0.075	0.026
-307.880	-10.644	0.078	-0.051
-306.866	-107.015	0.058	-0.013
-305.851	-32.596	-0.133	-0.073
-304.837	-105.836	0.453	0.102
-303.822	-134.707	0.226	-0.027
-302.807	40.187	0.343	0.307
-301.793	32.079	-0.164	0.140
-300.778	67.508	0.081	0.083
-299.764	762.157	-0.088	-0.236
-298.749	69.089	0.140	-0.143
-297.735	-48.303	0.305	0.146
-296.720	24.254	0.122	-0.100
-295.705	-78.484	0.279	0.095
-294.691	131.214	0.287	-0.367
-293.676	-200.000	-0.001	-0.231
-292.662	296.488	0.086	0.157
-291.647	102.936	-0.208	-0.242
-290.632	-162.517	-0.164	0.008
-289.618	800.000	0.091	0.303
-288.603	117.603	0.069	0.084
-287.589	800.000	-0.064	-0.187
-286.574	800.000	-0.057	-0.181
-285.559	-140.942	0.044	-0.004
-284.545	-143.803	-0.459	-0.043
-283.530	-200.000	-0.202	0.000
-282.516	-169.928	-0.118	0.004
-281.501	212.158	0.173	0.271
-280.486	800.000	-0.050	-0.188
-279.472	800.000	-0.076	-0.309
-278.457	-17.668	0.103	0.064
-277.443	-111.876	-0.089	-0.018
-276.428	-112.529	0.327	-0.065
-275.413	-32.538	0.085	0.047
-274.399	-4.252	0.228	0.156
-273.384	-108.830	0.207	0.044
-272.370	249.224	-0.218	0.366
-271.355	-200.000	-0.232	-0.001
-270.340	-131.756	0.289	0.038
-269.326	-150.296	0.095	0.007
-268.311	-108.092	0.122	0.026
-267.297	73.959	-0.039	0.041
-266.282	76.554	-0.175	0.184
-265.267	64.423	-0.258	0.258
-264.253	-160.569	0.524	0.028
-263.238	442.862	0.046	-0.100
-262.224	138.836	0.099	-0.129
-261.209	-4.427	0.006	-0.004
-260.195	94.298	0.228	0.257
-259.180	188.382	0.116	0.172
-258.165	211.055	-0.025	0.040
-257.151	-34.880	-0.231	-0.125
-256.136	800.000	0.049	-0.157
-255.122	-105.769	-0.334	-0.075
-254.107	-200.000	-0.036	-0.375
-253.092	-200.000	-0.014	0.082
-252.078	194.485	-0.080	0.121
-251.063	104.414	-0.182	-0.213
-250.049	177.753	0.007	0.010
-249.034	576.186	-0.097	-0.235
-248.019	132.565	-0.118	0.151
-247.005	-7.924	0.103	-0.069
-245.990	-200.000	-0.001	-0.226
-244.976	-128.375	-0.143	0.020
-243.961	800.000	0.093	-0.292
-242.946	56.252	0.230	-0.221
-241.932	-149.947	0.306	-0.024
-240.917	112.574	-0.202	0.243
-239.903	-80.282	-0.046	0.015
-238.888	-17.057	-0.248	-0.155
-237.873	2.527	0.068	0.049
-236.859	-104.062	0.124	-0.029
-235.844	-38.568	0.197	0.103
-234.830	-28.518	0.119	0.068
-233.815	249.783	0.170	-0.287
-232.800	441.773	0.117	0.253
-231.786	-200.000	0.029	-0.176
-230.771	-200.000	-0.030	-0.232
-229.757	8.636	-0.068	-0.051
-228.742	292.640	0.114	0.206
-227.727	767.078	0.074	-0.201
-226.713	800.000	-0.085	0.299
-225.698	-66.696	-0.140	-0.055
-224.684	-148.145	0.302	-0.025
-223.669	-83.832	0.329	0.104
-222.655	-73.262	0.241	0.087
-221.640	-29.990	-0.108	-0.061
-220.625	-49.191	-0.149	0.070
-219.611	107.698	0.198	-0.234
-218.596	715.608	-0.065	0.171
-217.582	333.954	0.070	0.134
-216.567	-39.308	0.187	0.097
-215.552	708.053	0.101	-0.264
-214.538	-51.156	0.275	0.128
-213.523	-80.618	-0.297	0.098
-212.509	443.404	0.180	0.392
-211.494	365.933	0.213	0.426
-210.479	800.000	-0.073	0.232
-209.465	-130.967	-0.372	-0.049
-208.450	-155.544	-0.137	-0.009
-207.436	-136.899	0.237	0.027
-206.421	303.489	-0.123	-0.226
-205.406	-200.000	0.012	-0.077
-204.392	-90.442	-0.184	0.053
-203.377	472.369	0.062	-0.138
-202.363	-139.750	-0.330	-0.035
-201.348	-200.000	0.025	-0.126
-200.333	467.575	0.102	-0.226
-199.319	-79.143	0.084	-0.028
-198.304	-88.015	-0.157	-0.047
-197.290	-28.839	0.224	0.127
-196.275	-101.954	-0.031	-0.007
-195.260	800.000	-0.055	0.166
-194.246	800.000	-0.061	-0.229
-193.231	-200.000	0.007	-0.060
-192.217	-200.000	0.002	0.389
-191.202	800.000	-0.022	0.071
-190.187	-124.769	-0.171	-0.026
-189.173	-111.443	0.190	-0.038
-188.158	-32.145	0.161	0.089
-187.144	-200.000	0.004	0.154
-186.129	-108.282	-0.313	0.067
-185.114	73.580	0.156	0.161
-184.100	81.692	0.168	0.180
-183.085	-200.000	-0.024	-0.115
-182.071	58.718	-0.232	0.226
-181.056	-29.436	-0.232	0.131
-180.042	52.878	-0.130	-0.123
-179.027	-200.000	-0.001	-0.151
-178.012	240.462	-0.104	0.172
-176.998	84.798	-0.294	0.319
-175.983	-24.502	-0.036	-0.021
-174.969	178.139	0.166	0.239
-173.954	5.021	-0.137	-0.100
-172.939	-52.866	-0.287	0.131
-171.925	-119.449	-0.218	0.037
-170.910	-152.107	0.046	0.003
-169.896	-103.647	-0.068	0.016
-168.881	-67.823	-0.223	0.086
-167.866	800.000	0.091	-0.249
-166.852	-129.276	-0.429	-0.059
-165.837	208.118	-0.138	0.214
-164.823	167.481	-0.039	-0.055
-163.808	-200.000	0.032	0.217
-162.793	42.027	0.214	-0.192
-161.779	-34.531	0.188	-0.102
-160.764	-200.000	-0.036	-0.262
-159.750	-200.000	-0.036	0.212
-158.735	800.000	-0.084	-0.248
-157.720	-131.534	0.282	-0.037
-156.706	457.868	0.136	0.298
-155.691	-78.978	-0.289	0.097
-154.677	-0.904	0.257	0.180
-153.662	-200.000	0.028	0.312
-152.647	82.715	0.169	0.182
-151.633	-200.000	-0.032	-0.281
-150.618	339.128	-0.089	0.172
-149.604	-93.253	0.200	0.055
-148.589	592.014	0.087	-0.212
-147.574	316.588	-0.043	0.081
-146.560	107.702	-0.105	-0.124
-145.545	-200.000	0.003	-0.121
-144.531	-200.000	0.009	0.082
-143.516	-200.000	0.009	0.059
-142.502	262.158	0.095	0.163
-141.487	-200.000	-0.042	0.339
-140.472	-200.000	0.026	0.174
-139.458	-143.300	-0.200	0.019
-138.443	800.000	0.075	-0.260
-137.429	729.959	0.047	-0.125
-136.414	-52.856	0.325	0.148
-135.399	5.263	-0.092	-0.067
-134.385	714.317	0.130	0.341
-133.370	83.716	0.196	-0.212
-132.356	-200.000	-0.045	0.362
-131.341	-112.544	0.477	0.094
-130.326	-43.963	0.233	0.116
-129.312	-200.000	0.016	0.247
-128.297	-200.000	-0.037	0.433
-127.283	711.050	0.075	-0.196
-126.268	-53.523	-0.044	0.020
-125.253	-114.088	-0.150	-0.029
-124.239	-56.084	0.243	0.107
-123.224	28.776	-0.080	0.067
-122.210	-80.994	0.186	0.061
-121.195	-200.000	-0.046	-0.493
-120.180	-74.257	0.318	-0.113
-119.166	283.192	-0.162	-0.287
-118.151	-200.000	-0.035	0.260
-117.137	-128.980	0.184	-0.026
-116.122	800.000	-0.112	-0.401
-115.107	-57.617	0.050	-0.022
-114.093	-8.137	-0.138	-0.091
-113.078	358.998	0.109	0.215
-112.064	-24.733	-0.154	0.091
-111.049	-200.000	0.048	-0.218
-110.034	-200.000	0.030	0.135
-109.020	724.925	0.055	0.145
-108.005	0.512	-0.213	-0.150
-106.991	53.701	-0.294	-0.278
-105.976	-140.936	0.330	0.033
-104.962	131.695	-0.081	0.102
-103.947	800.000	0.091	-0.261
-102.932	109.149	0.153	0.181
-101.918	-32.000	-0.036	-0.020
-100.903	112.848	0.114	-0.137
-99.889	-200.000	0.010	-0.195
-98.874	12.581	-0.115	0.087
-97.859	800.000	-0.032	-0.126
-96.845	101.889	-0.081	0.093
-95.830	256.910	0.227	-0.384
-94.816	800.000	0.068	0.230
-93.801	3.316	0.093	0.067
-92.786	-200.000	-0.000	0.072
-91.772	-200.000	0.017	-0.219
-90.757	-46.875	-0.247	0.119
-89.743	43.708	-0.409	-0.369
-88.728	-65.624	0.421	-0.167
-87.713	12.547	0.056	-0.043
-86.699	-138.338	0.106	0.012
-85.684	51.407	0.127	0.119
-84.670	16.540	0.246	0.191
-83.655	56.323	-0.197	0.189
-82.640	800.000	-0.011	-0.047
-81.626	-166.626	0.350	-0.014
-80.611	-157.152	-0.124	0.007
-79.597	628.192	0.083	0.206
-78.582	33.879	-0.197	0.169
-77.567	-200.000	0.023	-0.180
-76.553	10.736	0.165	0.124
-75.538	-84.702	0.331	-0.103
-74.524	40.014	-0.289	-0.256
-73.509	207.853	0.070	-0.108
-72.494	91.023	-0.117	0.129
-71.480	-137.165	-0.233	0.026
-70.465	-200.000	0.022	0.134
-69.451	435.429	0.032	-0.069
-68.436	-91.639	0.102	0.028
-67.422	-86.274	-0.075	0.023
-66.407	-110.894	0.310	-0.063
-65.392	800.000	-0.096	0.375
-64.378	-200.000	-0.018	-0.239
-63.363	223.651	0.054	-0.087
-62.349	54.708	-0.263	0.250
-61.334	39.274	-0.973	-0.858
-60.319	91.872	0.304	0.337
-59.305	-200.000	0.109	-0.971
-58.290	76.643	0.615	0.643
-57.276	800.000	0.423	1.615
-56.261	-200.000	96.309	570.697
-55.246	637.320	1387.023	3468.853
-54.232	191.419	2591.027	3840.356
-53.217	114.117	2285.091	2736.465
-52.203	43.530	1904.409	1713.928
-51.188	37.526	1694.603	1479.559
-50.173	34.768	1650.360	1420.408
-49.159	52.426	1697.505	1594.359
-48.144	55.336	1714.799	1632.432
-47.130	37.202	1672.716	1457.785
-46.115	34.330	1657.808	1423.321
-45.100	34.125	1653.203	1417.782
-44.086	34.100	1650.583	1415.294
-43.071	34.155	1647.935	1413.375
-42.057	34.132	1645.474	1411.039
-41.042	34.236	1643.493	1410.055
-40.027	34.147	1641.584	1407.700
-39.013	34.109	1639.669	1405.720
-37.998	34.122	1638.196	1404.502
-36.984	34.136	1636.728	1403.289
-35.969	34.161	1635.252	1402.147
-34.954	34.257	1634.003	1401.731
-33.940	34.321	1631.283	1399.811
-32.925	34.215	1630.347	1398.172
-31.911	34.233	1628.174	1396.387
-30.896	34.115	1626.836	1394.323
-29.881	34.147	1625.330	1393.210
-28.867	34.247	1623.071	1391.948
-27.852	34.170	1622.122	1390.515
-26.838	34.190	1620.258	1389.010
-25.823	34.361	1618.489	1388.686
-24.809	34.298	1617.436	1387.268
-23.794	34.226	1616.247	1385.668
-22.779	34.289	1614.950	1384.956
-21.765	34.242	1613.105	1382.980
-20.750	34.251	1611.606	1381.708
-19.736	34.323	1609.929	1380.734
-18.721	34.349	1608.362	1379.527
-17.706	34.249	1606.965	1377.546
-16.692	34.238	1605.557	1376.206
-15.677	34.312	1603.960	1375.315
-14.663	34.317	1602.476	1374.023
-13.648	34.331	1601.356	1373.112
-12.633	34.238	1600.223	1371.417
-11.619	34.372	1597.731	1370.191
-10.604	34.280	1596.806	1368.685
-9.590	34.319	1595.496	1367.782
-8.575	34.346	1594.335	1366.931
-7.560	34.331	1593.126	1365.731
-6.546	34.333	1591.986	1364.716
-5.531	34.334	1590.679	1363.546
-4.517	34.348	1589.388	1362.482
-3.502	34.268	1588.852	1361.402
-2.487	34.425	1586.622	1360.557
-1.473	33.981	1575.060	1347.439
-0.458	30.960	1555.415	1309.394
0.556	27.480	1554.855	1273.954
1.571	24.967	1577.823	1274.795
2.586	24.325	1590.793	1280.557
3.600	21.481	1537.370	1217.672
4.615	13.026	1428.629	1076.526
5.629	6.018	1364.628	984.408
6.644	4.882	1356.716	971.537
7.659	4.845	1355.229	970.156
8.673	4.834	1353.684	968.891
9.688	4.908	1352.320	968.293
10.702	4.769	1349.853	965.577
11.717	7.868	1355.395	988.729
12.731	15.603	1369.398	1047.243
13.746	20.242	1376.768	1081.782
14.761	19.952	1374.515	1078.110
15.775	18.967	1371.877	1069.821
16.790	17.991	1369.351	1061.697
17.804	17.139	1366.878	1054.393
18.819	16.662	1365.581	1050.342
19.834	16.467	1364.432	1048.155
20.848	16.242	1362.892	1045.490
21.863	15.950	1362.168	1043.030
22.877	15.904	1360.453	1041.340
23.892	15.799	1360.116	1040.345
24.907	15.884	1359.474	1040.284
25.921	15.915	1357.761	1039.073
26.936	15.861	1357.500	1038.449
27.950	15.857	1356.596	1037.638
28.965	16.005	1355.492	1037.614
29.980	16.237	1353.833	1037.683
30.994	16.205	1352.936	1036.703
32.009	16.156	1352.396	1035.901
33.023	16.128	1351.010	1034.571
34.038	16.107	1349.464	1033.171
35.053	16.037	1348.328	1031.781
36.067	16.098	1346.851	1030.931
37.082	16.053	1346.348	1030.181
38.096	16.099	1345.087	1029.401
39.111	16.051	1344.542	1028.605
40.126	16.020	1343.698	1027.680
41.140	15.789	1342.635	1025.364
42.155	15.857	1341.789	1025.042
43.169	15.719	1341.912	1024.205
44.184	15.706	1341.580	1023.783
45.199	15.799	1340.880	1023.726
46.213	15.798	1340.747	1023.525
47.228	15.972	1339.644	1023.649
48.242	15.966	1338.622	1022.743
49.257	15.957	1336.655	1021.094
50.271	15.870	1335.851	1019.865
51.286	15.916	1334.790	1019.241
52.301	15.950	1333.395	1018.289
53.315	15.955	1331.987	1017.158
54.330	15.780	1330.892	1015.176
55.344	15.841	1329.508	1014.399
56.359	15.797	1328.878	1013.559
57.374	15.830	1327.415	1012.552
58.388	15.703	1327.307	1011.616
59.403	15.558	1327.082	1010.486
60.417	15.719	1325.823	1010.402
61.432	15.678	1324.988	1009.434
62.447	15.568	1324.010	1007.935
63.461	15.668	1322.415	1007.236
64.476	15.508	1321.780	1005.701
65.490	15.585	1320.804	1005.332
66.505	15.602	1319.128	1004.068
67.520	15.560	1317.984	1002.859
68.534	15.780	1316.922	1003.273
69.549	15.605	1316.245	1001.629
70.563	15.607	1314.723	1000.390
71.578	15.477	1313.680	998.737
72.593	15.523	1312.768	998.225
73.607	15.430	1312.240	997.188
74.622	15.452	1311.296	996.511
75.636	15.495	1310.579	996.131
76.651	15.516	1310.235	995.906
77.666	15.530	1309.711	995.505
78.680	15.520	1309.330	995.065
79.695	15.540	1308.525	994.485
80.709	15.588	1307.386	993.815
81.724	15.752	1306.445	993.984
82.739	15.825	1305.447	993.566
83.753	15.786	1305.063	992.953
84.768	15.922	1304.005	992.867
85.782	16.038	1302.727	992.484
86.797	15.968	1301.707	991.211
87.812	15.870	1301.107	990.086
88.826	15.877	1299.748	989.010
89.841	15.927	1298.297	988.108
90.855	16.022	1297.435	987.921
91.870	16.046	1296.529	987.288
92.884	16.008	1296.178	986.712
93.899	16.101	1295.151	986.387
94.914	16.138	1294.336	985.894
95.928	16.167	1293.605	985.415
96.943	16.133	1292.478	984.274
97.957	15.994	1291.826	982.882
98.972	15.959	1290.953	981.924
99.987	16.062	1289.730	981.507
101.001	15.980	1288.810	980.242
102.016	16.011	1287.544	979.376
103.030	15.973	1287.025	978.669
104.045	15.980	1286.037	977.872
105.060	15.880	1285.099	976.494
106.074	15.834	1283.761	975.126
107.089	15.765	1281.707	973.078
108.103	15.548	1281.114	971.286
109.118	15.731	1279.231	970.828
110.133	15.680	1278.345	969.778
111.147	15.632	1276.851	968.284
112.162	15.685	1275.710	967.638
113.176	15.700	1274.445	966.675
114.191	15.762	1273.404	966.160
115.206	15.781	1272.337	965.373
116.220	15.769	1271.132	964.305
117.235	15.825	1270.072	963.734
118.249	15.696	1269.462	962.451
119.264	15.678	1268.238	961.333
120.279	15.721	1266.710	960.333
121.293	15.625	1266.045	959.198
122.308	15.581	1265.021	958.087
123.322	15.669	1263.970	957.709
124.337	15.646	1262.657	956.497
125.352	15.641	1261.145	955.240
126.366	15.693	1260.529	954.981
127.381	15.524	1259.690	953.303
128.395	15.590	1258.787	952.910
129.410	15.739	1257.575	952.753
130.424	15.566	1257.468	951.610
131.439	15.799	1255.848	951.617
132.454	15.702	1255.027	950.358
133.468	15.812	1253.953	950.083
134.483	15.791	1253.721	949.708
135.497	15.802	1252.577	948.818
136.512	15.871	1251.119	948.020
137.527	15.827	1249.724	946.630
138.541	15.794	1249.058	945.857
139.556	15.888	1247.282	944.954
140.570	15.876	1246.525	944.232
141.585	15.893	1245.444	943.423
142.600	16.061	1243.963	943.157
143.614	16.072	1243.186	942.546
144.629	16.093	1241.870	941.582
145.643	16.089	1241.149	940.932
146.658	16.039	1239.742	939.502
147.673	15.974	1238.505	938.121
148.687	15.898	1237.130	936.570
149.702	15.850	1235.661	935.112
150.716	15.825	1234.361	933.903
151.731	15.818	1233.318	932.997
152.746	15.947	1232.279	932.842
153.760	15.867	1231.300	931.575
154.775	16.047	1229.653	931.238
155.789	16.021	1229.057	930.565
156.804	15.970	1228.377	929.684
157.819	16.070	1226.947	929.072
158.833	16.241	1225.777	929.044
159.848	16.282	1225.035	928.628
160.862	16.227	1223.940	927.413
161.877	16.070	1222.943	925.710
162.892	16.075	1221.774	924.771
163.906	16.011	1221.205	923.910
164.921	16.004	1220.284	923.094
165.935	15.873	1219.675	921.834
166.950	16.013	1218.558	921.671
167.964	16.092	1217.969	921.578
168.979	16.038	1217.326	920.713
169.994	16.121	1216.512	920.472
171.008	16.106	1216.070	919.972
172.023	16.149	1214.966	919.289
173.037	16.329	1214.377	919.743
174.052	16.264	1213.182	918.401
175.067	16.088	1212.256	916.665
176.081	16.026	1211.515	915.686
177.096	16.075	1210.436	915.055
178.110	16.127	1209.393	914.468
179.125	16.146	1207.950	913.400
180.140	16.063	1207.283	912.365
181.154	16.149	1205.874	911.682
182.169	16.185	1204.885	911.048
183.183	16.229	1203.672	910.290
184.198	16.363	1202.787	910.260
185.213	16.350	1201.737	909.315
186.227	16.356	1200.542	908.367
187.242	16.382	1199.138	907.359
188.256	16.484	1198.198	907.117
189.271	16.385	1197.713	906.140
190.286	16.272	1196.301	904.383
191.300	16.051	1195.614	902.605
192.315	16.002	1194.659	901.542
193.329	16.068	1193.876	901.219
194.344	16.118	1193.509	901.132
195.359	16.021	1193.413	900.461
196.373	16.213	1192.657	900.835
197.388	16.358	1192.005	901.038
198.402	16.509	1191.657	901.499
199.417	16.645	1191.067	901.696
200.432	16.678	1189.995	900.981
201.446	16.756	1189.282	900.779
202.461	16.722	1188.686	900.064
203.475	16.681	1187.431	898.821
204.490	16.636	1186.183	897.554
205.504	16.550	1185.035	896.153
206.519	16.476	1184.059	894.945
207.534	16.473	1182.908	893.980
208.548	16.588	1181.840	893.702
209.563	16.471	1180.980	892.351
210.577	16.584	1180.275	892.338
211.592	16.630	1179.741	892.099
212.607	16.819	1178.430	892.020
213.621	16.746	1177.808	891.087
214.636	16.648	1177.165	890.005
215.650	16.742	1175.924	889.484
216.665	16.850	1174.756	889.087
217.680	16.777	1174.296	888.280
218.694	16.887	1173.272	888.000
219.709	16.766	1172.934	887.035
220.723	16.911	1171.605	886.710
221.738	16.753	1171.302	885.576
222.753	16.782	1170.395	884.962
223.767	16.972	1169.580	885.260
224.782	16.926	1168.949	884.465
225.796	16.871	1168.617	883.846
226.811	16.924	1168.369	883.855
227.826	16.899	1166.764	882.435
228.840	16.930	1166.067	881.989
229.855	16.856	1165.753	881.288
230.869	16.816	1164.923	880.378
231.884	16.867	1164.076	879.923
232.899	16.845	1163.197	879.069
233.913	16.852	1162.501	878.502
234.928	16.849	1161.717	877.816
235.942	16.748	1161.085	876.736
236.957	16.751	1160.749	876.421
237.972	16.811	1159.456	875.675
238.986	16.876	1159.041	875.624
240.001	16.878	1158.222	874.937
241.015	16.914	1157.310	874.358
242.030	16.977	1156.777	874.199
243.045	16.995	1155.540	873.281
244.059	16.882	1155.405	872.519
245.074	16.894	1154.544	871.854
246.088	16.997	1153.345	871.401
247.103	17.027	1152.704	870.995
248.117	17.183	1152.033	871.211
249.132	17.120	1151.552	870.447
250.147	17.347	1150.904	871.044
251.161	17.388	1150.226	870.661
252.176	17.502	1149.549	870.654
253.190	17.539	1148.764	870.171
254.205	17.529	1147.974	869.445
255.220	17.646	1147.594	869.677
256.234	17.608	1147.062	869.006
257.249	17.555	1146.084	867.914
258.263	17.503	1145.730	867.308
259.278	17.526	1145.123	866.885
260.293	17.462	1145.023	866.408
261.307	17.665	1143.554	866.252
262.322	17.692	1143.258	866.089
263.336	17.672	1142.717	865.500
264.351	17.600	1142.440	864.849
265.366	17.614	1141.709	864.290
266.380	17.628	1140.783	863.583
267.395	17.696	1139.618	862.972
268.409	17.702	1138.548	862.115
269.424	17.702	1138.318	861.863
270.439	17.602	1137.640	860.769
271.453	17.657	1136.692	860.252
272.468	17.557	1136.052	859.186
273.482	17.441	1135.306	857.964
274.497	17.600	1134.942	858.414
275.512	17.664	1134.261	858.143
276.526	17.631	1133.277	857.158
277.541	17.652	1132.705	856.753
278.555	17.672	1131.776	856.079
279.570	17.794	1131.043	856.059
280.585	17.823	1130.408	855.648
281.599	17.856	1129.504	855.053
282.614	17.894	1128.579	854.467
283.628	17.680	1127.327	852.375
284.643	17.781	1126.480	852.164
285.657	17.760	1125.586	851.306
286.672	17.724	1124.860	850.500
287.687	17.832	1123.914	850.251
288.701	17.802	1123.193	849.479
289.716	17.838	1122.373	848.962
290.730	17.788	1121.958	848.325
291.745	17.870	1121.308	848.169
292.760	17.900	1120.496	847.625
293.774	17.964	1119.552	847.156
294.789	17.930	1119.541	846.901
295.803	17.939	1118.617	846.174
296.818	17.892	1118.115	845.484
297.833	17.910	1117.081	844.716
298.847	17.810	1116.418	843.649
299.862	17.907	1115.484	843.346
300.876	17.997	1114.717	843.135
301.891	18.101	1114.350	843.299
302.906	18.186	1113.391	842.915
303.920	18.178	1112.960	842.475
304.935	18.235	1112.055	841.996
305.949	18.256	1111.980	841.967
306.964	18.250	1111.410	841.431
307.979	18.289	1110.018	840.494
308.993	18.333	1109.378	840.153
310.008	18.322	1108.748	839.547
311.022	18.421	1107.541	839.043
312.037	18.325	1107.207	838.246
313.052	18.275	1105.844	836.896
314.066	18.116	1105.196	835.555
315.081	18.101	1104.225	834.672
316.095	18.169	1103.693	834.527
317.110	18.072	1103.270	833.664
318.125	18.079	1102.313	832.901
319.139	18.146	1101.066	832.210
320.154	18.131	1100.928	831.960
321.168	18.108	1100.019	831.087
322.183	18.101	1099.565	830.634
323.197	18.178	1099.035	830.538
324.212	18.161	1098.726	830.146
325.227	18.234	1097.861	829.774
326.241	18.156	1097.666	829.174
327.256	18.085	1096.581	827.936
328.270	18.126	1095.719	827.413
329.285	18.244	1094.356	826.879
330.300	18.271	1093.233	826.090
331.314	18.285	1092.312	825.385
332.329	18.295	1091.435	824.701
333.343	18.298	1091.044	824.345
334.358	18.368	1090.262	824.019
335.373	18.470	1089.186	823.622
336.387	18.527	1088.435	823.253
337.402	18.443	1088.028	822.471
338.416	18.478	1087.228	821.962
339.431	18.424	1087.019	821.473
340.446	18.721	1086.142	822.159
341.460	18.646	1085.495	821.236
342.475	18.722	1084.664	820.901
343.489	18.729	1083.678	820.114
344.504	18.755	1083.208	819.809
345.519	18.708	1082.520	818.994
346.533	18.820	1081.589	818.752
347.548	18.846	1080.514	817.988
348.562	18.871	1079.592	817.339
349.577	18.539	1079.167	815.363
350.592	18.702	1078.083	815.248
351.606	18.655	1077.574	814.566
352.621	18.578	1076.992	813.689
353.635	18.461	1076.739	812.872
354.650	18.565	1075.822	812.599
355.665	18.682	1074.697	812.230
356.679	18.794	1073.938	812.115
357.694	18.710	1073.727	811.489
358.708	18.893	1072.700	811.503
359.723	18.762	1072.387	810.575
360.738	18.850	1071.715	810.412
361.752	18.778	1071.238	809.639
362.767	18.879	1070.875	809.771
363.781	18.799	1070.093	808.728
364.796	18.945	1069.046	808.553
365.810	19.170	1068.923	809.448
366.825	19.123	1068.426	808.779
367.840	19.008	1067.989	807.836
368.854	19.207	1067.181	808.087
369.869	19.231	1066.516	807.624
370.883	19.088	1065.851	806.380
371.898	18.987	1065.267	805.396
372.913	19.031	1064.794	805.169
373.927	19.002	1064.270	804.569
374.942	19.153	1063.467	804.595
375.956	19.218	1062.439	804.052
376.971	19.195	1062.230	803.712
377.986	19.163	1062.053	803.357
379.000	19.233	1061.462	803.168
380.015	19.395	1060.731	803.295
381.029	19.453	1060.154	803.059
382.044	19.410	1059.335	802.168
383.059	19.427	1058.629	801.640
384.073	19.389	1058.239	801.098
385.088	19.377	1057.445	800.371
386.102	19.389	1056.596	799.712
387.117	19.398	1054.805	798.328
388.132	19.285	1053.895	797.046
389.146	19.155	1053.468	796.053
390.161	19.223	1052.660	795.683
391.175	19.320	1051.904	795.491
392.190	19.286	1051.494	794.952
393.205	19.428	1050.459	794.754
394.219	19.358	1049.940	793.968
395.234	19.371	1049.050	793.285
396.248	19.276	1048.117	792.076
397.263	19.285	1047.069	791.253
398.278	19.394	1046.314	791.111
399.292	19.307	1045.464	789.999
400.307	19.286	1044.829	789.355
401.321	19.223	1044.063	788.420
402.336	19.180	1043.884	788.016
403.350	19.315	1042.992	787.890
404.365	19.300	1042.160	787.125
405.380	19.407	1041.515	787.055
406.394	19.331	1041.209	786.409
407.409	19.492	1040.397	786.457
408.423	19.607	1039.489	786.228
409.438	19.721	1038.818	786.170
410.453	19.657	1038.187	785.328
411.467	19.636	1037.709	784.804
412.482	19.704	1037.079	784.568
413.496	19.692	1036.344	783.884
414.511	19.684	1036.093	783.589
415.526	19.832	1035.462	783.715
416.540	19.957	1035.087	783.927
417.555	19.827	1034.758	783.023
418.569	19.867	1034.054	782.598
419.584	19.819	1033.429	781.840
420.599	19.721	1032.921	780.945
421.613	151.782	1400.954	1793.173
422.628	138.597	1454.554	1793.286
