DTS Sentinel unit serial number:	SN413079Multiplexer serial number:	ORYXHardware model number:	OX4-SRSoftware version number:	ORYX F/W v4.00 Oryx Data Collector v3.7.2.0data status	okinstallation	princeton_trtdifferential loss correction	single-endedforward channel	channel 2reverse channel	N/Adate	2019/09/16time	23:43:35forward acquisition time	60.00reverse acquisition time	0.00gamma	496.2192k internal	0.2330k external	0.2330temperature offset calibration	0.9973default loss term (dB/km)	0.3790temperature slope calibration	1.0000multiplexer offset coefficient	1.0000multiplexer slope coefficient	1.0000fibre end	0.00T internal ref (°C)	29.69T ext. ref 1 (°C)	0.08T ext. ref 2 (°C)	23.75length (m)	temperature (°C)	Stokes	anti-Stokes-747.200	401.585	0.130	-0.274
-746.185	153.739	-0.145	0.200
-745.171	299.696	0.191	-0.354
-744.156	21.999	0.277	0.228
-743.142	-140.495	0.347	-0.036
-742.127	800.000	-0.071	-0.264
-741.112	800.000	-0.062	-0.209
-740.098	65.242	-0.161	0.163
-739.083	-200.000	0.040	-0.413
-738.069	-6.820	0.068	-0.047
-737.054	-73.318	-0.348	-0.128
-736.039	-37.184	-0.097	-0.052
-735.025	-32.867	0.359	0.201
-734.010	339.419	-0.012	0.023
-732.996	-50.336	-0.203	-0.097
-731.981	91.908	-0.295	-0.335
-730.966	-73.916	-0.146	0.053
-729.952	220.216	0.054	-0.087
-728.937	328.525	-0.101	-0.195
-727.923	-200.000	0.001	0.255
-726.908	-10.632	-0.076	0.050
-725.894	-19.809	-0.356	0.221
-724.879	800.000	-0.173	0.765
-723.864	-200.000	-0.019	-0.138
-722.850	-127.213	-0.166	0.024
-721.835	133.541	0.100	0.130
-720.821	214.866	-0.154	-0.246
-719.806	66.487	0.153	-0.156
-718.791	-120.628	-0.363	-0.062
-717.777	739.235	0.129	0.349
-716.762	-200.000	0.001	-0.203
-715.748	-59.119	0.129	0.056
-714.733	-200.000	-0.036	0.250
-713.718	-200.000	-0.002	-0.344
-712.704	620.349	-0.097	-0.246
-711.689	-125.539	-0.236	-0.036
-710.675	4.353	0.179	-0.132
-709.660	-61.423	-0.076	-0.032
-708.645	150.435	0.148	0.203
-707.631	-155.977	0.179	-0.011
-706.616	9.046	-0.309	0.235
-705.602	8.496	0.069	-0.052
-704.587	303.162	0.029	-0.055
-703.572	-200.000	0.034	0.419
-702.558	800.000	-0.060	-0.178
-701.543	-97.305	0.245	0.064
-700.529	-35.363	-0.140	0.077
-699.514	-103.668	0.015	-0.004
-698.499	-135.743	-0.080	0.009
-697.485	103.624	-0.040	0.047
-696.470	-21.129	-0.286	-0.176
-695.456	335.514	0.207	-0.403
-694.441	148.586	-0.085	0.116
-693.426	17.836	0.303	-0.242
-692.412	800.000	0.082	0.262
-691.397	317.097	-0.240	0.456
-690.383	-8.548	0.124	-0.084
-689.368	77.628	0.357	-0.382
-688.354	-91.688	-0.334	-0.095
-687.339	-200.000	-0.013	-0.199
-686.324	47.490	0.094	-0.088
-685.310	-200.000	-0.060	-0.296
-684.295	64.143	-0.058	-0.059
-683.281	21.693	-0.047	-0.038
-682.266	-200.000	-0.002	-0.148
-681.251	-200.000	-0.025	0.113
-680.237	20.692	-0.120	-0.097
-679.222	-62.873	0.164	0.068
-678.208	800.000	0.084	-0.236
-677.193	-22.228	0.127	-0.078
-676.178	-36.563	-0.361	0.195
-675.164	-167.899	0.380	-0.015
-674.149	-200.000	-0.036	-0.325
-673.135	-200.000	0.011	-0.171
-672.120	19.991	0.315	0.255
-671.105	240.268	0.192	0.322
-670.091	10.876	-0.391	0.300
-669.076	-200.000	-0.033	0.198
-668.062	800.000	-0.144	0.433
-667.047	-0.796	-0.245	-0.174
-666.032	107.021	0.245	0.292
-665.018	-185.693	-0.374	0.006
-664.003	323.068	-0.005	0.009
-662.989	-44.996	-0.212	-0.106
-661.974	-171.908	0.259	-0.008
-660.959	-44.320	-0.033	-0.017
-659.945	694.804	-0.094	0.247
-658.930	109.932	0.167	0.201
-657.916	84.237	-0.348	-0.381
-656.901	-110.076	0.426	0.089
-655.886	-200.000	0.032	0.189
-654.872	150.648	-0.140	-0.191
-653.857	452.844	-0.023	0.051
-652.843	-38.131	-0.305	0.162
-651.828	38.447	-0.182	-0.163
-650.814	-64.595	-0.138	0.056
-649.799	-200.000	-0.020	0.247
-648.784	-84.331	-0.138	0.044
-647.770	-200.000	-0.001	-0.059
-646.755	772.519	0.142	-0.388
-645.741	800.000	0.084	0.251
-644.726	457.117	0.100	-0.223
-643.711	800.000	-0.025	-0.082
-642.697	800.000	0.023	-0.065
-641.682	76.376	-0.233	-0.247
-640.668	787.959	-0.029	0.079
-639.653	24.859	0.373	-0.310
-638.638	71.032	-0.130	-0.135
-637.624	-200.000	0.035	0.261
-636.609	55.880	-0.144	-0.140
-635.595	-200.000	-0.068	-0.311
-634.580	800.000	-0.072	0.210
-633.565	-44.621	-0.149	0.075
-632.551	800.000	-0.058	-0.176
-631.536	800.000	-0.044	0.172
-630.522	-200.000	0.024	0.227
-629.507	-36.891	-0.315	-0.170
-628.492	-135.671	-0.149	0.018
-627.478	49.908	0.114	-0.108
-626.463	-165.600	0.064	-0.003
-625.449	-137.594	-0.144	0.016
-624.434	-91.749	0.213	0.061
-623.419	-34.405	0.342	-0.188
-622.405	800.000	0.098	0.391
-621.390	-0.488	-0.118	0.084
-620.376	376.966	0.146	0.299
-619.361	-127.534	0.080	-0.012
-618.346	145.717	0.063	0.085
-617.332	-80.159	0.260	-0.087
-616.317	131.528	0.145	-0.187
-615.303	13.103	0.049	0.038
-614.288	37.983	-0.157	0.140
-613.273	800.000	-0.078	0.333
-612.259	111.376	-0.160	0.193
-611.244	-200.000	0.003	-0.133
-610.230	800.000	0.027	0.113
-609.215	-109.203	0.170	0.036
-608.201	-72.533	0.111	-0.041
-607.186	168.294	-0.145	0.206
-606.171	800.000	0.060	0.212
-605.157	-194.759	-0.344	-0.003
-604.142	644.983	-0.052	-0.132
-603.128	-105.501	0.106	0.024
-602.113	-200.000	0.058	-0.303
-601.098	52.538	-0.064	0.061
-600.084	41.320	-0.150	0.136
-599.069	-95.081	0.204	-0.055
-598.055	295.491	-0.249	-0.457
-597.040	-105.690	0.250	-0.057
-596.025	-91.684	-0.255	0.073
-595.011	44.147	0.056	-0.052
-593.996	-14.904	0.146	-0.094
-592.982	-156.088	-0.342	0.022
-591.967	-152.947	-0.429	0.030
-590.952	-73.057	-0.231	0.085
-589.938	-127.627	-0.570	-0.083
-588.923	140.913	0.099	-0.131
-587.909	-157.520	-0.225	0.014
-586.894	-53.192	0.192	-0.088
-585.879	-29.262	0.087	0.050
-584.865	-144.112	0.249	-0.023
-583.850	361.212	0.135	0.270
-582.836	800.000	0.110	0.343
-581.821	46.148	0.186	-0.172
-580.806	800.000	0.033	-0.105
-579.792	-200.000	-0.019	-0.193
-578.777	65.670	-0.168	-0.170
-577.763	-111.741	-0.089	0.018
-576.748	-4.795	0.253	-0.175
-575.733	-38.990	0.194	0.102
-574.719	730.276	-0.150	0.400
-573.704	119.495	-0.353	-0.437
-572.690	-12.081	0.094	-0.062
-571.675	-53.536	-0.148	-0.068
-570.661	-112.136	0.067	-0.014
-569.646	800.000	-0.070	-0.203
-568.631	-138.207	0.201	0.022
-567.617	-200.000	-0.008	-0.204
-566.602	-200.000	0.033	0.168
-565.588	-36.346	0.297	-0.160
-564.573	-200.000	0.040	-0.390
-563.558	244.504	0.175	-0.295
-562.544	540.524	-0.125	-0.298
-561.529	-174.364	-0.114	0.003
-560.515	-57.706	0.104	-0.045
-559.500	79.530	0.178	-0.191
-558.485	-200.000	0.017	-0.293
-557.471	-84.647	0.312	-0.098
-556.456	-200.000	-0.014	-0.245
-555.442	-118.375	-0.211	-0.037
-554.427	281.796	-0.053	-0.095
-553.412	-65.387	-0.246	0.099
-552.398	-16.049	0.193	-0.123
-551.383	-200.000	0.012	0.182
-550.369	-189.098	-0.160	0.002
-549.354	-136.273	0.279	-0.032
-548.339	55.074	0.156	-0.150
-547.325	-200.000	0.034	0.213
-546.310	-79.636	0.192	0.065
-545.296	206.042	-0.097	-0.151
-544.281	-113.880	0.137	0.027
-543.266	-200.000	0.011	0.237
-542.252	200.268	0.186	0.285
-541.237	-133.515	-0.118	-0.015
-540.223	119.325	-0.165	-0.204
-539.208	-27.378	0.157	0.091
-538.193	-106.030	0.240	-0.054
-537.179	-39.055	0.130	0.068
-536.164	-77.099	0.180	0.063
-535.150	-200.000	-0.027	0.130
-534.135	-102.806	0.096	-0.023
-533.121	28.122	-0.159	-0.134
-532.106	-151.414	-0.200	0.015
-531.091	104.192	-0.173	-0.203
-530.077	-82.277	-0.045	-0.015
-529.062	622.030	0.151	0.380
-528.048	-26.713	0.372	0.217
-527.033	-1.945	-0.186	0.131
-526.018	34.808	-0.204	-0.178
-525.004	-200.000	0.014	-0.111
-523.989	22.477	-0.286	0.233
-522.975	-200.000	-0.069	0.388
-521.960	-200.000	0.006	-0.054
-520.945	-200.000	-0.006	0.390
-519.931	800.000	-0.118	0.325
-518.916	-159.499	-0.070	0.004
-517.902	-200.000	-0.030	-0.133
-516.887	56.853	0.153	-0.149
-515.872	-200.000	-0.002	-0.073
-514.858	381.896	0.036	0.073
-513.843	153.177	0.158	0.216
-512.829	-152.383	0.097	0.007
-511.814	-38.250	0.177	0.093
-510.799	547.285	-0.093	0.221
-509.785	-157.292	-0.529	-0.032
-508.770	-49.801	-0.104	0.049
-507.756	20.010	-0.073	-0.059
-506.741	95.873	-0.164	0.186
-505.726	-26.956	0.370	0.216
-504.712	229.479	-0.096	0.156
-503.697	-164.740	0.156	-0.007
-502.683	84.958	-0.367	-0.402
-501.668	-96.305	-0.111	-0.029
-500.653	-145.083	-0.196	-0.018
-499.639	-111.302	0.123	-0.025
-498.624	13.475	0.191	0.148
-497.610	-200.000	0.078	0.353
-496.595	435.331	-0.225	0.487
-495.581	-162.960	0.252	-0.012
-494.566	85.485	0.052	0.057
-493.551	20.791	-0.157	0.127
-492.537	91.021	-0.256	0.286
-491.522	-200.000	0.012	0.143
-490.508	-46.144	0.219	-0.107
-489.493	-153.077	0.148	0.010
-488.478	148.381	-0.070	0.094
-487.464	3.016	0.209	-0.151
-486.449	238.706	0.092	0.152
-485.435	-74.707	-0.327	-0.117
-484.420	-140.754	0.186	-0.019
-483.405	531.542	-0.077	-0.182
-482.391	456.443	-0.119	-0.263
-481.376	-97.599	-0.378	0.098
-480.362	-200.000	-0.041	-0.234
-479.347	800.000	-0.016	-0.064
-478.332	-148.037	0.258	-0.021
-477.318	-200.000	-0.038	-0.170
-476.303	-200.000	0.010	-0.216
-475.289	-6.312	0.223	-0.151
-474.274	-102.603	0.258	-0.061
-473.259	-24.053	-0.445	0.265
-472.245	-67.539	0.053	-0.021
-471.230	-110.547	-0.086	0.018
-470.216	-116.946	0.374	0.068
-469.201	-200.000	0.065	0.338
-468.186	-11.178	-0.064	0.042
-467.172	-200.000	0.011	0.102
-466.157	-200.000	-0.042	0.300
-465.143	30.219	0.209	-0.178
-464.128	-54.748	-0.381	-0.171
-463.113	299.429	0.089	-0.163
-462.099	-3.660	0.333	-0.231
-461.084	-68.840	0.304	0.117
-460.070	-99.621	-0.286	-0.072
-459.055	-95.296	-0.346	0.093
-458.040	-111.967	-0.290	-0.058
-457.026	800.000	-0.066	0.207
-456.011	-118.924	-0.256	-0.045
-454.997	-25.331	0.247	-0.146
-453.982	-167.754	-0.200	-0.008
-452.968	40.587	-0.109	-0.098
-451.953	800.000	0.117	-0.380
-450.938	59.644	0.141	-0.139
-449.924	117.680	0.059	0.072
-448.909	800.000	0.018	-0.069
-447.895	-200.000	0.007	0.098
-446.880	-200.000	0.020	0.258
-445.865	257.098	0.081	-0.139
-444.851	-13.025	-0.118	0.076
-443.836	-10.147	-0.260	0.172
-442.822	332.930	-0.055	-0.106
-441.807	-92.266	-0.149	-0.042
-440.792	67.257	-0.199	0.202
-439.778	800.000	-0.057	-0.191
-438.763	303.877	0.183	-0.338
-437.749	292.461	-0.066	0.120
-436.734	29.439	-0.211	0.178
-435.719	-0.363	0.196	-0.138
-434.705	182.107	0.088	0.130
-433.690	223.089	0.155	-0.249
-432.676	-114.768	-0.173	-0.033
-431.661	14.328	-0.233	0.181
-430.646	-70.684	0.261	-0.098
-429.632	90.268	-0.128	-0.143
-428.617	-44.259	0.333	-0.166
-427.603	193.688	-0.075	0.113
-426.588	96.845	-0.089	-0.102
-425.573	415.654	0.136	-0.288
-424.559	-82.294	0.285	0.092
-423.544	-103.010	0.200	0.047
-422.530	185.992	-0.155	0.230
-421.515	-200.000	-0.002	-0.113
-420.500	-200.000	-0.210	-0.001
-419.486	800.000	0.080	-0.222
-418.471	800.000	0.034	0.144
-417.457	20.275	0.317	-0.254
-416.442	1.331	0.201	-0.143
-415.428	-171.808	0.146	0.005
-414.413	-33.207	-0.178	0.098
-413.398	243.862	-0.084	0.140
-412.384	5.033	-0.153	-0.112
-411.369	-92.497	-0.041	0.012
-410.355	-120.706	-0.082	0.014
-409.340	62.187	-0.061	0.061
-408.325	720.367	-0.144	-0.380
-407.311	171.027	0.100	0.143
-406.296	-4.157	-0.143	-0.099
-405.282	1.091	-0.070	0.050
-404.267	661.802	0.050	0.127
-403.252	52.423	0.125	0.118
-402.238	-200.000	0.001	-0.007
-401.223	336.930	0.051	0.098
-400.209	-14.844	0.119	-0.076
-399.194	93.710	-0.329	-0.370
-398.179	800.000	-0.092	0.287
-397.165	-200.000	0.011	-0.082
-396.150	-200.000	-0.057	-0.263
-395.136	800.000	-0.066	0.218
-394.121	253.714	0.119	-0.202
-393.106	51.326	-0.265	-0.250
-392.092	-200.000	0.016	0.144
-391.077	-200.000	0.011	0.256
-390.063	800.000	0.081	0.340
-389.048	800.000	-0.020	-0.060
-388.033	51.972	-0.230	0.217
-387.019	-187.301	-0.121	-0.002
-386.004	-96.739	0.077	0.020
-384.990	41.521	0.227	-0.204
-383.975	73.162	-0.215	-0.223
-382.960	-34.943	0.073	-0.040
-381.946	469.841	-0.056	-0.125
-380.931	-200.000	-0.039	-0.187
-379.917	52.619	-0.106	-0.100
-378.902	-200.000	0.015	-0.172
-377.888	14.802	0.073	-0.057
-376.873	-114.873	0.330	0.062
-375.858	-34.778	0.112	-0.061
-374.844	173.431	0.289	0.414
-373.829	185.712	0.270	-0.398
-372.815	-109.346	0.394	-0.083
-371.800	310.771	0.015	-0.028
-370.785	800.000	0.036	0.118
-369.771	-200.000	-0.018	0.154
-368.756	46.267	-0.132	0.121
-367.742	-174.417	-0.181	0.005
-366.727	-200.000	0.027	-0.154
-365.712	800.000	0.059	-0.178
-364.698	-43.423	0.020	-0.010
-363.683	-39.890	-0.302	-0.157
-362.669	34.117	-0.128	0.110
-361.654	33.922	-0.234	-0.202
-360.639	-132.545	0.126	-0.016
-359.625	-146.563	0.396	-0.034
-358.610	215.730	-0.157	0.247
-357.596	-125.011	-0.299	0.046
-356.581	-200.000	-0.039	0.178
-355.566	-158.873	-0.308	-0.017
-354.552	-200.000	-0.016	0.203
-353.537	-111.228	-0.405	0.082
-352.523	800.000	0.112	-0.351
-351.508	186.079	0.060	-0.088
-350.493	-161.700	0.261	-0.013
-349.479	-24.704	0.063	0.037
-348.464	-13.529	0.170	0.109
-347.450	-200.000	-0.003	0.478
-346.435	-200.000	-0.055	-0.264
-345.420	274.300	0.158	0.278
-344.406	-200.000	0.002	0.208
-343.391	-57.496	0.144	-0.063
-342.377	541.361	-0.133	-0.314
-341.362	512.546	-0.177	-0.409
-340.348	-43.679	0.149	-0.074
-339.333	-121.180	-0.187	-0.031
-338.318	244.659	-0.132	0.220
-337.304	92.517	0.089	0.099
-336.289	166.790	0.125	-0.176
-335.275	-49.680	-0.081	0.038
-334.260	54.859	0.077	-0.074
-333.245	-200.000	-0.039	-0.218
-332.231	-200.000	0.064	0.585
-331.216	207.412	0.065	-0.101
-330.202	-129.850	0.275	0.037
-329.187	800.000	0.121	0.343
-328.172	-77.954	0.052	0.018
-327.158	416.932	-0.031	0.066
-326.143	800.000	0.070	0.247
-325.129	165.206	0.102	0.142
-324.114	-84.091	-0.348	0.110
-323.099	107.462	0.142	0.167
-322.085	800.000	-0.047	-0.195
-321.070	800.000	0.118	-0.389
-320.056	113.888	0.154	0.185
-319.041	-92.899	-0.321	-0.089
-318.026	98.915	-0.043	0.049
-317.012	232.482	-0.085	0.139
-315.997	33.181	-0.079	0.068
-314.983	800.000	-0.082	0.288
-313.968	25.547	-0.185	0.152
-312.953	-200.000	-0.002	0.098
-311.939	658.667	-0.120	-0.305
-310.924	-109.388	0.208	0.044
-309.910	-122.940	0.086	-0.014
-308.895	-200.000	0.025	-0.179
-307.880	443.848	-0.094	-0.205
-306.866	800.000	-0.046	-0.159
-305.851	702.008	0.052	-0.136
-304.837	-82.816	-0.171	-0.055
-303.822	16.849	0.377	-0.295
-302.807	675.214	-0.041	0.105
-301.793	-200.000	-0.038	-0.341
-300.778	179.745	0.142	0.206
-299.764	-200.000	-0.066	0.340
-298.749	199.201	-0.099	0.151
-297.735	-36.050	-0.146	-0.078
-296.720	176.608	0.184	-0.265
-295.705	800.000	-0.028	0.078
-294.691	-200.000	0.012	-0.289
-293.676	-200.000	-0.012	-0.232
-292.662	-200.000	-0.054	-0.250
-291.647	27.514	0.289	-0.240
-290.632	-129.400	-0.262	-0.036
-289.618	-32.689	0.185	0.102
-288.603	234.397	-0.140	-0.228
-287.589	357.964	0.034	0.068
-286.574	136.895	-0.171	0.221
-285.559	800.000	0.103	-0.373
-284.545	75.712	-0.059	0.062
-283.530	78.385	-0.130	0.138
-282.516	165.227	-0.130	0.181
-281.501	34.298	0.036	-0.031
-280.486	50.959	0.185	-0.173
-279.472	344.776	-0.106	0.205
-278.457	-31.794	0.292	0.162
-277.443	-200.000	0.020	0.128
-276.428	-107.833	0.327	-0.071
-275.413	-31.710	-0.098	-0.054
-274.399	60.362	-0.234	0.229
-273.384	716.885	0.153	0.401
-272.370	-44.306	0.104	0.051
-271.355	800.000	0.091	0.378
-270.340	-200.000	0.007	0.171
-269.326	-200.000	0.045	-0.271
-268.311	-200.000	0.057	0.382
-267.297	-9.058	-0.197	-0.130
-266.282	-200.000	0.015	0.133
-265.267	17.917	0.083	-0.065
-264.253	-165.534	-0.069	0.003
-263.238	0.059	-0.176	-0.124
-262.224	-85.337	0.184	-0.057
-261.209	126.995	0.093	-0.117
-260.195	-101.129	0.288	-0.070
-259.180	-99.245	0.106	0.027
-258.165	-200.000	0.008	0.195
-257.151	70.972	-0.079	0.080
-256.136	146.064	-0.099	-0.131
-255.122	126.424	0.029	-0.037
-254.107	800.000	0.040	0.121
-253.092	26.862	-0.098	-0.081
-252.078	-61.730	-0.133	-0.055
-251.063	-94.084	-0.243	0.066
-250.049	88.637	-0.114	-0.125
-249.034	-63.869	-0.333	-0.134
-248.019	-86.350	0.036	0.011
-247.005	61.442	0.178	0.174
-245.990	-103.868	-0.224	0.052
-244.976	-11.833	-0.126	0.082
-243.961	-16.882	-0.063	0.039
-242.946	22.261	-0.119	-0.096
-241.932	389.276	-0.187	-0.382
-240.917	-200.000	-0.043	-0.317
-239.903	-200.000	0.000	-0.253
-238.888	-67.332	-0.321	0.125
-237.873	15.804	0.183	0.142
-236.859	-200.000	-0.040	0.329
-235.844	76.321	-0.081	0.085
-234.830	201.653	0.108	0.164
-233.815	800.000	0.069	-0.246
-232.800	-200.000	0.008	0.083
-231.786	800.000	0.055	0.186
-230.771	-200.000	0.063	0.328
-229.757	-200.000	-0.042	0.577
-228.742	-105.927	-0.128	0.029
-227.727	710.953	-0.111	-0.290
-226.713	-162.567	-0.104	0.005
-225.698	-200.000	0.067	0.335
-224.684	-154.428	0.213	-0.014
-223.669	221.027	-0.176	-0.280
-222.655	-37.256	-0.021	0.011
-221.640	-44.561	-0.121	0.060
-220.625	-133.203	0.052	0.007
-219.611	-200.000	-0.032	0.250
-218.596	-200.000	0.029	-0.177
-217.582	44.479	0.092	0.084
-216.567	-88.440	0.133	0.039
-215.552	162.291	0.129	0.178
-214.538	114.248	0.225	-0.270
-213.523	-200.000	0.040	0.374
-212.509	-14.865	0.315	0.200
-211.494	41.962	0.192	0.172
-210.479	-27.422	-0.149	-0.085
-209.465	552.078	-0.149	-0.353
-208.450	-30.693	0.260	-0.145
-207.436	-200.000	0.011	-0.201
-206.421	91.388	-0.101	0.112
-205.406	-40.814	0.142	-0.072
-204.392	-200.000	0.002	0.031
-203.377	696.237	-0.040	0.103
-202.363	-200.000	-0.019	-0.412
-201.348	-44.849	-0.140	0.069
-200.333	-43.303	-0.387	-0.193
-199.319	72.246	0.137	0.140
-198.304	800.000	0.046	-0.173
-197.290	12.726	0.377	-0.287
-196.275	5.926	-0.270	0.197
-195.260	800.000	-0.056	0.181
-194.246	800.000	0.055	-0.159
-193.231	127.831	0.112	-0.140
-192.217	205.284	0.287	0.440
-191.202	154.048	-0.221	0.298
-190.187	-86.346	-0.228	0.069
-189.173	-148.417	-0.406	-0.033
-188.158	699.351	0.097	0.250
-187.144	224.905	0.045	-0.072
-186.129	5.041	-0.220	0.160
-185.114	-97.632	0.117	-0.030
-184.100	255.327	0.120	0.202
-183.085	147.400	0.069	-0.091
-182.071	-189.451	0.298	0.003
-181.056	148.057	0.194	-0.258
-180.042	-152.182	0.395	-0.028
-179.027	58.431	-0.234	0.226
-178.012	-200.000	0.015	-0.138
-176.998	800.000	-0.087	-0.308
-175.983	800.000	-0.032	-0.121
-174.969	-200.000	-0.057	0.360
-173.954	-174.513	-0.500	-0.014
-172.939	-159.611	0.253	0.014
-171.925	-200.000	-0.020	0.293
-170.910	11.852	0.143	0.108
-169.896	126.873	0.184	0.230
-168.881	-200.000	-0.057	0.281
-167.866	-200.000	0.017	-0.140
-166.852	800.000	0.128	-0.407
-165.837	-145.812	0.120	0.011
-164.823	78.032	-0.149	-0.157
-163.808	64.477	0.138	0.137
-162.793	800.000	-0.046	0.187
-161.779	298.449	0.027	-0.048
-160.764	-200.000	0.009	-0.049
-159.750	-46.899	0.176	-0.084
-158.735	800.000	0.027	-0.099
-157.720	800.000	-0.051	-0.167
-156.706	137.285	-0.078	-0.101
-155.691	-118.791	0.420	0.073
-154.677	-117.115	-0.135	-0.024
-153.662	263.405	0.041	-0.071
-152.647	-200.000	0.002	-0.241
-151.633	51.646	0.049	0.046
-150.618	256.543	-0.153	0.258
-149.604	-36.496	0.526	0.278
-148.589	-92.218	-0.370	-0.103
-147.574	800.000	-0.033	0.100
-146.560	-200.000	0.074	-0.442
-145.545	-112.478	0.292	-0.057
-144.531	-200.000	-0.039	-0.272
-143.516	-200.000	-0.009	-0.479
-142.502	-25.502	0.283	0.165
-141.487	335.600	-0.138	0.263
-140.472	281.098	0.186	0.328
-139.458	59.450	0.138	-0.134
-138.443	156.644	-0.254	-0.345
-137.429	86.772	0.096	-0.104
-136.414	37.596	0.179	0.156
-135.399	304.949	0.066	0.120
-134.385	-195.292	0.184	-0.001
-133.370	800.000	0.046	-0.149
-132.356	800.000	-0.013	-0.044
-131.341	236.631	0.112	0.182
-130.326	-103.986	0.264	-0.061
-129.312	-6.835	0.123	0.082
-128.297	13.781	0.289	0.221
-127.283	295.739	0.078	-0.141
-126.268	217.201	0.062	0.098
-125.253	-200.000	0.024	0.221
-124.239	-64.366	0.279	-0.111
-123.224	-94.873	-0.273	0.073
-122.210	530.655	0.121	0.281
-121.195	-200.000	-0.000	0.218
-120.180	-200.000	-0.019	0.131
-119.166	800.000	-0.086	-0.315
-118.151	30.048	0.108	-0.091
-117.137	23.319	-0.061	-0.050
-116.122	105.155	0.104	0.120
-115.107	-148.601	0.155	-0.012
-114.093	-200.000	0.059	0.275
-113.078	222.670	0.041	-0.065
-112.064	678.344	0.179	0.458
-111.049	-160.178	-0.251	-0.013
-110.034	294.158	-0.099	0.178
-109.020	-200.000	-0.000	0.016
-108.005	340.204	0.131	0.251
-106.991	-200.000	0.047	-0.255
-105.976	189.492	0.025	-0.037
-104.962	460.532	0.050	-0.109
-103.947	-200.000	0.028	-0.359
-102.932	26.749	0.266	0.219
-101.918	218.560	0.113	-0.178
-100.903	800.000	0.077	0.222
-99.889	374.933	-0.083	-0.166
-98.874	-30.593	0.338	-0.188
-97.859	76.570	0.249	-0.259
-96.845	-118.662	-0.093	0.016
-95.830	-13.327	-0.119	0.076
-94.816	800.000	0.049	0.161
-93.801	19.379	0.255	0.201
-92.786	35.732	0.300	0.259
-91.772	-97.166	0.168	-0.043
-90.757	110.036	-0.196	-0.231
-89.743	470.280	0.030	-0.066
-88.728	-200.000	0.068	0.350
-87.713	-135.599	0.364	0.042
-86.699	800.000	-0.074	0.218
-85.684	-200.000	-0.011	-0.179
-84.670	-57.537	0.131	-0.056
-83.655	-107.921	-0.192	0.041
-82.640	-200.000	0.014	0.105
-81.626	35.894	0.063	0.055
-80.611	-29.370	0.326	-0.183
-79.597	-200.000	0.051	-0.266
-78.582	253.196	-0.172	-0.288
-77.567	-107.211	-0.104	0.023
-76.553	-29.114	0.309	0.174
-75.538	86.916	-0.178	0.193
-74.524	-37.306	-0.351	0.184
-73.509	-49.025	0.197	0.092
-72.494	-78.260	0.066	0.022
-71.480	-50.931	-0.168	-0.077
-70.465	3.288	0.113	0.081
-69.451	33.134	0.381	-0.324
-68.436	-200.000	-0.022	-0.298
-67.422	-110.280	-0.267	0.054
-66.407	496.291	-0.012	0.028
-65.392	800.000	0.048	-0.177
-64.378	164.918	0.154	-0.213
-63.363	38.682	0.281	0.246
-62.349	285.223	-0.153	0.270
-61.334	-21.660	-1.342	-0.802
-60.319	688.218	0.235	0.603
-59.305	-200.000	-0.092	-0.646
-58.290	247.570	0.699	1.157
-57.276	800.000	0.560	1.645
-56.261	-200.000	108.349	595.247
-55.246	451.921	1481.352	3209.435
-54.232	147.155	2667.638	3518.549
-53.217	100.677	2282.201	2599.112
-52.203	38.758	1895.379	1658.474
-51.188	33.023	1684.921	1430.979
-50.173	30.342	1641.954	1374.605
-49.159	49.165	1696.382	1562.406
-48.144	49.826	1711.199	1580.960
-47.130	32.564	1668.735	1413.560
-46.115	29.713	1654.818	1380.459
-45.100	29.580	1649.607	1375.073
-44.086	29.572	1646.967	1372.754
-43.071	29.462	1644.447	1369.786
-42.057	29.531	1641.499	1367.783
-41.042	29.580	1639.693	1366.589
-40.027	29.554	1637.904	1364.850
-39.013	29.532	1636.088	1363.120
-37.998	29.491	1634.521	1361.462
-36.984	29.584	1632.678	1360.555
-35.969	29.657	1631.571	1360.116
-34.954	29.723	1630.313	1359.498
-33.940	29.687	1628.486	1357.661
-32.925	29.730	1626.369	1356.150
-31.911	29.633	1625.073	1354.306
-30.896	29.629	1623.211	1352.677
-29.881	29.617	1621.989	1351.515
-28.867	29.628	1620.115	1349.976
-27.852	29.658	1618.351	1348.672
-26.838	29.730	1616.617	1347.698
-25.823	29.717	1615.594	1346.697
-24.809	29.684	1614.302	1345.326
-23.794	29.720	1612.991	1344.443
-22.779	29.693	1611.374	1342.848
-21.765	29.684	1609.642	1341.284
-20.750	29.694	1608.015	1339.946
-19.736	29.797	1606.593	1339.461
-18.721	29.801	1605.335	1338.381
-17.706	29.747	1603.625	1336.512
-16.692	29.750	1602.174	1335.274
-15.677	29.714	1600.832	1333.841
-14.663	29.686	1600.119	1332.998
-13.648	29.755	1598.350	1331.962
-12.633	29.672	1596.656	1329.901
-11.619	29.683	1594.868	1328.441
-10.604	29.723	1593.840	1327.820
-9.590	29.718	1592.794	1326.857
-8.575	29.777	1591.351	1326.030
-7.560	29.826	1589.708	1324.958
-6.546	29.747	1588.794	1323.573
-5.531	29.728	1587.681	1322.461
-4.517	29.743	1586.357	1321.416
-3.502	29.665	1585.669	1320.228
-2.487	29.782	1583.721	1319.393
-1.473	29.361	1572.164	1306.728
-0.458	26.551	1552.561	1270.690
0.556	21.204	1553.981	1239.329
1.571	18.997	1577.450	1242.011
2.586	18.670	1590.370	1249.698
3.600	16.974	1538.128	1196.586
4.615	9.502	1428.699	1062.227
5.629	1.740	1364.272	965.180
6.644	0.227	1355.911	949.648
7.659	0.138	1353.914	947.606
8.673	-0.037	1353.670	946.249
9.688	-0.018	1351.805	944.981
10.702	-0.144	1348.734	941.959
11.717	3.518	1354.329	968.815
12.731	11.941	1368.011	1031.767
13.746	17.256	1374.896	1070.425
14.761	17.214	1373.085	1068.657
15.775	16.201	1371.050	1060.615
16.790	15.203	1368.005	1051.907
17.804	14.471	1365.424	1045.238
18.819	14.091	1364.662	1042.181
19.834	13.803	1362.994	1039.016
20.848	13.549	1361.939	1036.525
21.863	13.273	1360.272	1033.442
22.877	13.204	1359.045	1031.988
23.892	13.140	1358.200	1030.854
24.907	13.090	1357.476	1029.900
25.921	13.135	1357.105	1029.809
26.936	13.089	1356.141	1028.704
27.950	13.110	1355.035	1027.902
28.965	13.280	1353.978	1028.066
29.980	13.371	1353.025	1027.818
30.994	13.247	1352.804	1026.788
32.009	13.376	1351.922	1026.827
33.023	13.410	1350.287	1025.710
34.038	13.413	1348.953	1024.621
35.053	13.300	1348.359	1023.379
36.067	13.348	1346.884	1022.469
37.082	13.281	1345.873	1021.194
38.096	13.370	1345.278	1021.204
39.111	13.304	1344.954	1020.462
40.126	13.267	1343.579	1019.094
41.140	13.152	1342.833	1017.736
42.155	13.132	1342.457	1017.238
43.169	13.167	1341.968	1016.992
44.184	13.017	1342.053	1016.042
45.199	13.093	1341.533	1016.027
46.213	13.179	1341.169	1016.188
47.228	13.162	1340.292	1015.331
48.242	13.248	1338.932	1014.738
49.257	13.247	1337.107	1013.260
50.271	13.320	1335.603	1012.475
51.286	13.303	1334.396	1011.370
52.301	13.177	1333.724	1009.996
53.315	13.224	1331.922	1008.829
54.330	13.172	1330.969	1007.700
55.344	13.185	1330.073	1007.016
56.359	13.091	1329.637	1006.023
57.374	13.064	1328.447	1004.869
58.388	13.176	1327.384	1004.659
59.403	13.178	1326.637	1004.015
60.417	13.066	1326.517	1003.152
61.432	13.072	1325.298	1002.179
62.447	12.923	1325.007	1000.965
63.461	12.963	1323.430	999.930
64.476	13.017	1322.251	999.278
65.490	12.904	1321.518	997.954
66.505	13.002	1319.797	997.158
67.520	13.030	1318.590	996.327
68.534	13.135	1317.302	995.895
69.549	13.037	1316.446	994.571
70.563	13.037	1315.368	993.670
71.578	13.069	1314.061	992.785
72.593	12.887	1313.275	991.009
73.607	13.022	1311.957	990.735
74.622	13.018	1311.707	990.439
75.636	13.015	1311.008	989.805
76.651	12.940	1310.698	989.031
77.666	12.963	1309.451	988.141
78.680	12.954	1309.407	987.969
79.695	13.023	1308.148	987.344
80.709	13.074	1307.064	986.743
81.724	13.066	1306.667	986.307
82.739	13.216	1305.621	986.326
83.753	13.233	1304.580	985.554
84.768	13.279	1303.503	984.924
85.782	13.262	1302.690	984.127
86.797	13.248	1301.506	983.060
87.812	13.142	1300.442	981.541
88.826	13.233	1298.871	980.809
89.841	13.320	1297.874	980.486
90.855	13.223	1296.962	979.133
91.870	13.325	1296.181	979.063
92.884	13.310	1295.475	978.349
93.899	13.339	1294.499	977.701
94.914	13.286	1293.780	976.758
95.928	13.403	1293.131	976.873
96.943	13.336	1292.127	975.629
97.957	13.273	1290.987	974.314
98.972	13.275	1290.135	973.593
99.987	13.245	1289.175	972.608
101.001	13.345	1288.013	972.234
102.016	13.351	1286.964	971.388
103.030	13.295	1285.945	970.204
104.045	13.272	1284.939	969.226
105.060	13.290	1283.727	968.330
106.074	13.270	1282.528	967.225
107.089	13.114	1281.301	965.300
108.103	13.098	1280.236	964.322
109.118	13.173	1278.576	963.423
110.133	13.049	1277.519	961.819
111.147	13.087	1276.193	960.956
112.162	13.137	1274.990	960.256
113.176	13.271	1273.896	960.128
114.191	13.269	1273.178	959.489
115.206	13.183	1271.802	957.868
116.220	13.272	1270.559	957.366
117.235	13.186	1269.507	955.989
118.249	13.226	1268.264	955.199
119.264	13.089	1267.318	953.608
120.279	13.110	1266.426	952.975
121.293	13.111	1265.437	952.153
122.308	13.084	1264.143	950.941
123.322	13.169	1263.126	950.578
124.337	13.118	1262.490	949.722
125.352	13.063	1261.005	948.208
126.366	13.067	1259.985	947.379
127.381	13.201	1258.789	947.161
128.395	13.035	1258.276	945.742
129.410	13.156	1257.094	945.463
130.424	13.227	1255.920	944.905
131.439	13.200	1255.209	944.127
132.454	13.259	1254.203	943.626
133.468	13.311	1252.942	942.892
134.483	13.210	1252.503	941.904
135.497	13.147	1251.335	940.583
136.512	13.113	1250.472	939.658
137.527	13.161	1248.788	938.577
138.541	13.221	1247.323	937.739
139.556	13.311	1245.791	937.009
140.570	13.292	1245.329	936.474
141.585	13.322	1243.836	935.437
142.600	13.336	1242.841	934.688
143.614	13.447	1241.780	934.434
144.629	13.445	1240.699	933.523
145.643	13.381	1239.454	932.146
146.658	13.343	1238.401	931.055
147.673	13.253	1236.744	929.222
148.687	13.350	1235.754	928.943
149.702	13.262	1234.432	927.368
150.716	13.293	1233.136	926.490
151.731	13.209	1232.289	925.299
152.746	13.407	1231.029	925.378
153.760	13.379	1229.549	924.031
154.775	13.408	1229.043	923.728
155.789	13.399	1227.746	922.622
156.804	13.427	1226.937	922.090
157.819	13.486	1225.657	921.372
158.833	13.445	1224.546	920.227
159.848	13.513	1223.755	919.930
160.862	13.540	1222.831	919.306
161.877	13.483	1221.685	918.044
162.892	13.383	1220.935	916.848
163.906	13.366	1220.128	916.063
164.921	13.492	1219.149	915.948
165.935	13.413	1218.457	914.908
166.950	13.412	1217.652	914.219
167.964	13.499	1216.715	913.916
168.979	13.487	1215.908	913.159
169.994	13.439	1215.152	912.249
171.008	13.570	1214.088	912.090
172.023	13.543	1213.691	911.559
173.037	13.724	1212.559	911.627
174.052	13.572	1211.927	910.235
175.067	13.530	1210.811	909.083
176.081	13.504	1209.965	908.230
177.096	13.546	1209.283	907.865
178.110	13.522	1207.728	906.484
179.125	13.574	1206.753	905.959
180.140	13.602	1205.921	905.405
181.154	13.611	1204.456	904.274
182.169	13.602	1203.233	903.229
183.183	13.587	1202.008	902.148
184.198	13.701	1200.377	901.465
185.213	13.716	1199.556	900.847
186.227	13.672	1198.912	900.044
187.242	13.784	1197.724	899.685
188.256	13.704	1196.730	898.423
189.271	13.823	1195.645	898.174
190.286	13.658	1194.798	896.563
191.300	13.648	1193.665	895.582
192.315	13.491	1193.478	894.512
193.329	13.543	1193.012	894.364
194.344	13.631	1192.078	894.062
195.359	13.795	1190.803	893.910
196.373	13.792	1190.932	893.908
197.388	13.775	1190.478	893.402
198.402	13.852	1190.091	893.445
199.417	13.926	1188.999	892.945
200.432	13.926	1188.327	892.362
201.446	14.024	1187.240	891.993
202.461	14.135	1186.267	891.779
203.475	14.133	1184.852	890.624
204.490	13.966	1184.140	889.116
205.504	13.952	1183.011	888.114
206.519	13.983	1182.003	887.446
207.534	13.940	1180.918	886.320
208.548	13.945	1179.724	885.376
209.563	13.964	1179.253	885.045
210.577	14.029	1178.262	884.566
211.592	13.996	1177.377	883.648
212.607	14.092	1176.373	883.325
213.621	14.153	1175.616	883.002
214.636	14.164	1174.537	882.175
215.650	14.116	1173.605	881.141
216.665	14.130	1172.819	880.550
217.680	14.264	1172.088	880.628
218.694	14.240	1170.924	879.550
219.709	14.274	1170.229	879.130
220.723	14.263	1169.621	878.539
221.738	14.195	1168.896	877.558
222.753	14.228	1167.934	876.929
223.767	14.147	1167.519	876.114
224.782	14.311	1166.873	876.417
225.796	14.372	1166.490	876.370
226.811	14.386	1165.428	875.570
227.826	14.311	1164.882	874.686
228.840	14.325	1163.959	873.989
229.855	14.323	1163.546	873.594
230.869	14.212	1162.643	872.255
231.884	14.210	1161.712	871.472
232.899	14.372	1160.436	871.281
233.913	14.355	1160.363	871.061
234.928	14.221	1159.527	869.657
235.942	14.352	1158.542	869.528
236.957	14.308	1158.231	868.985
237.972	14.344	1157.181	868.309
238.986	14.348	1156.799	867.966
240.001	14.322	1156.197	867.302
241.015	14.391	1155.180	866.821
242.030	14.343	1154.461	865.954
243.045	14.355	1153.938	865.548
244.059	14.504	1152.379	865.076
245.074	14.445	1152.039	864.439
246.088	14.486	1151.477	864.153
247.103	14.527	1150.350	863.444
248.117	14.580	1149.584	863.065
249.132	14.590	1149.319	862.841
250.147	14.655	1148.540	862.520
251.161	14.701	1147.683	862.034
252.176	14.814	1146.736	861.832
253.190	14.780	1146.626	861.496
254.205	14.794	1145.850	860.909
255.220	14.768	1145.328	860.308
256.234	14.805	1144.979	860.160
257.249	14.873	1144.054	859.739
258.263	14.964	1142.951	859.297
259.278	14.823	1142.861	858.430
260.293	14.865	1142.359	858.196
261.307	14.971	1141.644	858.124
262.322	14.899	1140.905	857.122
263.336	14.995	1139.932	856.811
264.351	14.855	1140.122	856.157
265.366	15.023	1138.882	856.012
266.380	15.004	1137.956	855.142
267.395	14.995	1137.279	854.512
268.409	14.978	1136.922	854.083
269.424	14.975	1136.199	853.446
270.439	14.936	1135.976	853.006
271.453	15.010	1134.974	852.552
272.468	14.927	1134.092	851.395
273.482	14.950	1133.117	850.702
274.497	15.050	1132.728	850.843
275.512	14.996	1132.211	850.107
276.526	15.056	1131.405	849.729
277.541	15.101	1130.291	849.049
278.555	15.073	1129.977	848.593
279.570	15.149	1129.384	848.457
280.585	15.189	1128.110	847.628
281.599	15.141	1127.475	846.834
282.614	15.216	1126.078	846.087
283.628	15.204	1125.027	845.164
284.643	15.068	1124.923	844.324
285.657	15.163	1123.697	843.809
286.672	15.236	1122.534	843.228
287.687	15.322	1121.561	842.854
288.701	15.252	1121.453	842.349
289.716	15.169	1120.444	841.098
290.730	15.152	1119.668	840.357
291.745	15.308	1119.084	840.625
292.760	15.287	1118.651	840.119
293.774	15.356	1118.053	839.941
294.789	15.451	1117.391	839.847
295.803	15.361	1116.662	838.774
296.818	15.447	1116.002	838.636
297.833	15.330	1115.375	837.504
298.847	15.396	1114.470	837.078
299.862	15.406	1113.625	836.419
300.876	15.364	1112.978	835.653
301.891	15.497	1112.322	835.747
302.906	15.502	1111.538	835.111
303.920	15.521	1111.116	834.813
304.935	15.692	1110.037	834.780
305.949	15.600	1109.790	834.058
306.964	15.587	1109.017	833.339
307.979	15.583	1108.055	832.523
308.993	15.634	1107.475	832.268
310.008	15.615	1106.866	831.643
311.022	15.627	1106.245	831.163
312.037	15.772	1105.174	831.002
313.052	15.718	1104.247	829.962
314.066	15.714	1103.360	829.204
315.081	15.557	1102.611	827.794
316.095	15.482	1101.949	826.853
317.110	15.653	1100.680	826.668
318.125	15.568	1100.313	825.903
319.139	15.571	1100.322	825.854
320.154	15.611	1099.422	825.300
321.168	15.581	1098.839	824.643
322.183	15.785	1097.742	824.748
323.197	15.629	1097.716	823.886
324.212	15.637	1097.019	823.331
325.227	15.596	1096.432	822.615
326.241	15.677	1095.572	822.294
327.256	15.667	1094.941	821.700
328.270	15.700	1093.792	820.924
329.285	15.741	1093.180	820.596
330.300	15.726	1092.008	819.569
331.314	15.702	1091.319	818.860
332.329	15.788	1090.438	818.549
333.343	15.831	1089.633	818.078
334.358	15.847	1088.522	817.249
335.373	15.890	1087.766	816.819
336.387	15.854	1087.288	816.212
337.402	15.888	1086.813	815.950
338.416	15.937	1086.012	815.513
339.431	15.939	1085.127	814.787
340.446	16.019	1084.515	814.640
341.460	15.990	1083.836	813.918
342.475	16.094	1082.876	813.629
343.489	16.061	1082.461	813.085
344.504	16.117	1081.202	812.337
345.519	16.247	1080.195	812.135
346.533	16.200	1079.533	811.341
347.548	16.106	1079.309	810.648
348.562	16.118	1078.055	809.693
349.577	16.226	1077.364	809.617
350.592	15.990	1077.056	808.181
351.606	16.086	1075.883	807.692
352.621	16.103	1075.300	807.264
353.635	16.199	1074.410	806.981
354.650	16.188	1073.875	806.456
355.665	16.186	1073.017	805.733
356.679	16.089	1072.982	805.170
357.694	16.150	1072.215	804.817
358.708	16.257	1071.609	804.799
359.723	16.220	1070.964	804.067
360.738	16.177	1070.600	803.521
361.752	16.208	1069.714	802.931
362.767	16.322	1069.333	803.115
363.781	16.369	1068.655	802.759
364.796	16.445	1067.973	802.536
365.810	16.416	1067.374	801.877
366.825	16.463	1066.410	801.303
367.840	16.495	1066.202	801.227
368.854	16.561	1065.668	801.072
369.869	16.513	1065.024	800.287
370.883	16.515	1064.063	799.505
371.898	16.401	1063.490	798.466
372.913	16.315	1062.979	797.604
373.927	16.532	1062.293	798.043
374.942	16.562	1062.095	797.966
375.956	16.547	1061.357	797.268
376.971	16.586	1060.591	796.806
377.986	16.629	1060.133	796.594
379.000	16.639	1059.760	796.291
380.015	16.701	1059.083	796.004
381.029	16.803	1058.205	795.751
382.044	16.685	1057.503	794.601
383.059	16.750	1056.935	794.409
384.073	16.883	1055.671	794.009
385.088	16.857	1054.717	793.099
386.102	16.822	1054.015	792.339
387.117	16.785	1053.173	791.462
388.132	16.682	1052.261	790.229
389.146	16.657	1051.606	789.547
390.161	16.780	1050.762	789.417
391.175	16.742	1050.280	788.810
392.190	16.776	1049.603	788.388
393.205	16.923	1049.023	788.570
394.219	16.894	1048.255	787.784
395.234	16.896	1047.060	786.827
396.248	16.785	1045.968	785.422
397.263	16.800	1045.259	784.889
398.278	16.924	1044.451	784.790
399.292	16.886	1043.639	783.932
400.307	16.746	1043.330	782.983
401.321	16.919	1042.434	783.043
402.336	16.900	1041.774	782.387
403.350	16.777	1041.396	781.466
404.365	16.756	1040.855	780.898
405.380	16.900	1039.646	780.584
406.394	17.005	1038.956	780.480
407.409	16.981	1038.448	779.920
408.423	17.064	1037.999	779.895
409.438	16.895	1037.217	778.462
410.453	17.146	1036.122	778.722
411.467	17.145	1035.673	778.308
412.482	17.165	1035.238	778.005
413.496	17.221	1034.511	777.645
414.511	17.250	1033.357	776.841
415.526	17.230	1033.372	776.695
416.540	17.306	1032.973	776.674
417.555	17.200	1032.410	775.697
418.569	17.275	1031.859	775.555
419.584	17.356	1031.412	775.520
420.599	17.337	1030.962	775.028
421.613	103.689	1322.759	1470.676
422.628	94.893	1365.253	1470.763
