DTS Sentinel unit serial number:	SN413079Multiplexer serial number:	ORYXHardware model number:	OX4-SRSoftware version number:	ORYX F/W v4.00 Oryx Data Collector v3.7.2.0data status	okinstallation	princeton_trtdifferential loss correction	single-endedforward channel	channel 2reverse channel	N/Adate	2019/09/15time	17:51:35forward acquisition time	60.00reverse acquisition time	0.00gamma	496.2192k internal	0.2284k external	0.2284temperature offset calibration	0.9923default loss term (dB/km)	0.3790temperature slope calibration	1.0000multiplexer offset coefficient	1.0000multiplexer slope coefficient	1.0000fibre end	0.00T internal ref (°C)	44.87T ext. ref 1 (°C)	6.36T ext. ref 2 (°C)	39.19length (m)	temperature (°C)	Stokes	anti-Stokes-747.200	73.296	-0.224	0.241
-746.185	800.000	-0.060	0.184
-745.171	-121.309	0.144	-0.025
-744.156	-159.759	0.182	-0.010
-743.142	-42.183	-0.479	0.252
-742.127	214.999	-0.181	0.295
-741.112	-23.859	0.072	-0.044
-740.098	800.000	-0.117	-0.414
-739.083	149.213	-0.238	0.330
-738.069	-200.000	-0.009	0.076
-737.054	-53.595	-0.198	0.093
-736.039	-200.000	0.034	0.152
-735.025	96.027	0.189	0.222
-734.010	-57.787	-0.164	0.074
-732.996	-200.000	-0.029	-0.151
-731.981	386.405	0.135	-0.287
-730.966	-47.469	0.286	-0.143
-729.952	-81.604	-0.180	-0.061
-728.937	-200.000	-0.006	-0.320
-727.923	8.197	-0.235	0.181
-726.908	96.676	0.116	-0.136
-725.894	-96.687	-0.293	0.079
-724.879	377.902	-0.067	0.141
-723.864	-101.599	-0.179	-0.045
-722.850	31.789	-0.081	-0.072
-721.835	-71.560	0.266	0.102
-720.821	-185.245	0.084	-0.001
-719.806	-104.136	-0.194	-0.046
-718.791	170.017	-0.187	0.274
-717.777	-151.990	-0.380	-0.028
-716.762	-2.573	-0.166	-0.119
-715.748	-113.919	-0.040	0.008
-714.733	-136.081	-0.387	-0.047
-713.718	74.133	0.289	0.311
-712.704	148.183	-0.138	0.191
-711.689	-78.059	0.391	0.138
-710.675	156.802	-0.098	-0.139
-709.660	143.217	-0.216	-0.295
-708.645	-73.039	-0.022	-0.008
-707.631	46.573	-0.086	0.082
-706.616	-163.200	-0.069	-0.003
-705.602	212.065	0.143	-0.231
-704.587	-15.101	-0.025	-0.016
-703.572	-200.000	0.003	-0.316
-702.558	24.122	0.249	-0.211
-701.543	400.397	0.054	-0.117
-700.529	-87.722	-0.116	0.036
-699.514	-21.115	-0.174	-0.109
-698.499	-78.099	0.239	0.084
-697.485	-200.000	0.011	-0.056
-696.470	275.470	0.149	-0.270
-695.456	-128.968	0.073	0.010
-694.441	-200.000	-0.018	-0.228
-693.426	448.310	-0.075	0.170
-692.412	-200.000	0.015	0.151
-691.397	-200.000	-0.019	-0.508
-690.383	215.389	-0.158	0.257
-689.368	-151.364	-0.365	-0.028
-688.354	-200.000	-0.013	-0.296
-687.339	90.263	0.081	-0.093
-686.324	800.000	-0.030	0.110
-685.310	-86.997	0.122	-0.038
-684.295	68.529	0.112	0.118
-683.281	-200.000	-0.051	-0.241
-682.266	-65.109	0.344	-0.142
-681.251	-14.764	0.158	-0.104
-680.237	-152.628	0.124	0.009
-679.222	-2.574	-0.228	0.164
-678.208	800.000	-0.067	-0.206
-677.193	-200.000	-0.016	-0.181
-676.178	-54.971	-0.236	-0.109
-675.164	-42.066	0.101	-0.053
-674.149	-102.793	0.563	-0.137
-673.135	-64.158	-0.037	-0.015
-672.120	-81.765	-0.373	-0.125
-671.105	-70.833	0.207	-0.080
-670.091	-57.619	-0.252	-0.113
-669.076	683.465	0.031	-0.082
-668.062	800.000	-0.041	0.165
-667.047	3.412	-0.268	-0.200
-666.032	-15.903	-0.178	0.116
-665.018	-200.000	0.014	0.133
-664.003	55.835	0.146	-0.145
-662.989	-27.330	-0.209	-0.124
-661.974	-200.000	0.011	-0.263
-660.959	-132.898	0.075	-0.010
-659.945	800.000	0.075	0.224
-658.930	-146.316	0.080	-0.007
-657.916	-33.833	0.276	-0.156
-656.901	-200.000	0.029	-0.285
-655.886	118.821	0.251	-0.318
-654.872	152.868	-0.037	-0.052
-653.857	-89.435	0.171	0.052
-652.843	-35.704	-0.049	0.027
-651.828	-129.754	-0.299	-0.042
-650.814	187.295	-0.149	-0.227
-649.799	-171.007	0.181	-0.006
-648.784	-200.000	0.008	-0.158
-647.770	618.191	0.046	0.118
-646.755	-182.351	-0.221	-0.004
-645.741	800.000	-0.027	0.092
-644.726	-79.893	0.237	0.082
-643.711	800.000	-0.024	0.088
-642.697	-200.000	0.018	-0.215
-641.682	-135.113	-0.101	-0.012
-640.668	-189.218	0.247	0.003
-639.653	8.482	-0.226	0.174
-638.638	-77.841	-0.101	0.036
-637.624	-200.000	0.108	0.000
-636.609	-128.323	-0.144	0.021
-635.595	-4.766	-0.201	0.142
-634.580	-107.004	0.326	0.074
-633.565	800.000	0.033	-0.110
-632.551	80.614	-0.283	0.311
-631.536	800.000	-0.073	0.274
-630.522	45.245	0.157	-0.148
-629.507	14.273	0.209	-0.167
-628.492	521.119	0.113	0.270
-627.478	-81.213	-0.153	-0.052
-626.463	-49.613	-0.183	-0.089
-625.449	184.329	-0.173	-0.261
-624.434	228.699	0.095	-0.159
-623.419	-107.401	-0.105	0.024
-622.405	800.000	-0.116	0.343
-621.390	800.000	0.049	0.157
-620.376	169.245	0.247	-0.360
-619.361	158.631	-0.117	-0.166
-618.346	-110.657	0.162	-0.034
-617.332	-106.374	-0.103	0.024
-616.317	89.685	0.201	0.230
-615.303	269.349	-0.048	0.086
-614.288	-200.000	-0.024	-0.134
-613.273	71.050	0.184	0.195
-612.259	-132.524	-0.203	0.027
-611.244	60.687	0.190	0.193
-610.230	30.107	0.107	-0.093
-609.215	-2.537	-0.100	-0.071
-608.201	6.296	0.164	-0.124
-607.186	800.000	0.104	0.317
-606.171	-200.000	0.018	-0.286
-605.157	-8.856	-0.100	0.069
-604.142	328.617	0.045	0.089
-603.128	-3.568	0.302	-0.215
-602.113	-131.428	0.176	-0.024
-601.098	-79.888	-0.248	-0.085
-600.084	-200.000	0.009	0.142
-599.069	-200.000	0.013	-0.071
-598.055	-69.469	-0.035	-0.014
-597.040	-200.000	-0.007	0.228
-596.025	381.460	-0.048	-0.101
-595.011	-200.000	-0.007	-0.269
-593.996	-0.706	-0.020	-0.015
-592.982	-62.499	0.380	0.161
-591.967	-200.000	0.000	-0.146
-590.952	-117.395	-0.117	-0.022
-589.938	-200.000	-0.000	-0.089
-588.923	-40.667	0.279	0.148
-587.909	305.710	-0.072	0.136
-586.894	-36.115	-0.211	0.116
-585.879	190.601	-0.062	0.096
-584.865	148.812	-0.087	-0.120
-583.850	1.751	-0.123	0.090
-582.836	-182.483	-0.206	-0.004
-581.821	9.488	-0.080	0.062
-580.806	54.685	0.105	0.104
-579.792	55.559	-0.098	-0.097
-578.777	-141.747	-0.193	-0.020
-577.763	-109.751	0.022	-0.005
-576.748	-131.601	-0.064	-0.009
-575.733	-132.835	-0.268	0.035
-574.719	-85.308	0.132	-0.042
-573.704	468.073	-0.079	-0.182
-572.690	-111.592	0.038	-0.008
-571.675	-77.368	-0.096	0.034
-570.661	9.458	0.160	0.123
-569.646	-200.000	0.016	-0.072
-568.631	-163.147	0.238	0.012
-567.617	-200.000	0.089	-0.484
-566.602	-17.778	-0.276	0.177
-565.588	-90.950	0.464	-0.136
-564.573	-19.445	-0.220	0.139
-563.558	97.886	0.269	0.316
-562.544	228.137	0.038	-0.062
-561.529	-200.000	-0.036	-0.282
-560.515	-50.880	-0.264	-0.126
-559.500	-20.805	0.078	0.049
-558.485	-200.000	0.056	0.324
-557.471	-129.846	-0.206	0.029
-556.456	-110.964	0.271	0.057
-555.442	36.133	-0.144	0.129
-554.427	-38.860	-0.090	-0.049
-553.412	-62.088	0.172	0.073
-552.398	-159.714	-0.163	-0.009
-551.383	59.646	-0.147	0.148
-550.369	-118.751	0.133	-0.024
-549.354	-200.000	0.013	0.201
-548.339	-104.133	-0.347	0.082
-547.325	-200.000	0.009	-0.256
-546.310	153.705	0.079	-0.111
-545.296	-58.540	0.277	0.122
-544.281	-91.546	-0.110	0.032
-543.266	-67.318	0.165	-0.066
-542.252	581.953	0.091	-0.228
-541.237	-160.983	0.285	-0.015
-540.223	-159.093	-0.509	-0.029
-539.208	263.966	0.077	0.136
-538.193	79.519	-0.087	-0.096
-537.179	101.418	-0.250	-0.297
-536.164	-120.551	0.037	0.006
-535.150	-69.984	-0.127	0.049
-534.135	-129.688	-0.180	0.025
-533.121	17.850	0.169	0.137
-532.106	152.783	0.199	-0.277
-531.091	-108.827	-0.229	-0.050
-530.077	-60.224	0.126	0.054
-529.062	-60.179	-0.217	0.094
-528.048	-51.688	-0.228	-0.108
-527.033	-135.942	0.353	-0.042
-526.018	-102.802	-0.353	-0.086
-525.004	-200.000	-0.022	-0.108
-523.989	-130.888	-0.156	-0.021
-522.975	-200.000	-0.010	-0.065
-521.960	-112.281	0.192	0.039
-520.945	-51.521	0.106	-0.050
-519.931	-84.618	-0.426	0.137
-518.916	-69.535	0.291	0.113
-517.902	-78.070	0.163	0.057
-516.887	54.394	0.155	-0.152
-515.872	-12.268	-0.210	-0.140
-514.858	800.000	-0.024	0.081
-513.843	800.000	-0.041	0.165
-512.829	-21.440	0.123	0.076
-511.814	50.390	0.104	0.100
-510.799	-96.798	0.149	0.040
-509.785	31.999	-0.205	-0.180
-508.770	800.000	0.066	0.259
-507.756	800.000	0.089	-0.267
-506.741	154.227	0.045	0.063
-505.726	-200.000	-0.033	-0.290
-504.712	800.000	-0.047	-0.140
-503.697	-200.000	-0.013	-0.126
-502.683	-200.000	-0.001	0.056
-501.668	-200.000	-0.052	0.349
-500.653	800.000	-0.029	-0.088
-499.639	-0.845	-0.147	-0.106
-498.624	411.394	-0.181	0.391
-497.610	158.461	-0.162	-0.229
-496.595	5.563	-0.238	0.179
-495.581	-74.564	0.217	-0.080
-494.566	-102.529	-0.201	0.049
-493.551	-200.000	0.054	0.398
-492.537	800.000	-0.058	-0.207
-491.522	-76.533	-0.390	-0.139
-490.508	-200.000	-0.035	0.201
-489.493	-5.588	0.210	0.146
-488.478	-165.447	-0.111	0.005
-487.464	-53.236	-0.070	-0.033
-486.449	-200.000	0.064	0.309
-485.435	-123.927	0.179	0.029
-484.420	-27.028	0.159	-0.094
-483.405	270.823	0.168	-0.300
-482.391	-38.950	-0.122	-0.065
-481.376	579.672	-0.061	-0.153
-480.362	-8.352	-0.139	0.095
-479.347	-200.000	-0.027	-0.150
-478.332	-114.433	0.121	0.024
-477.318	81.017	-0.185	-0.203
-476.303	-96.163	0.199	-0.054
-475.289	-16.722	-0.241	-0.155
-474.274	-200.000	-0.025	0.217
-473.259	69.573	-0.030	0.031
-472.245	-140.371	-0.391	-0.041
-471.230	653.276	-0.154	0.401
-470.216	448.829	-0.104	-0.233
-469.201	-8.877	-0.369	-0.251
-468.186	103.948	0.060	0.072
-467.172	331.623	-0.087	-0.171
-466.157	77.814	-0.216	-0.234
-465.143	220.402	-0.089	-0.146
-464.128	-43.289	0.315	0.162
-463.113	395.047	0.008	0.017
-462.099	45.201	0.118	-0.110
-461.084	27.996	-0.349	0.299
-460.070	-200.000	0.030	0.152
-459.055	139.044	-0.241	0.322
-458.040	-200.000	-0.006	0.424
-457.026	-200.000	-0.065	0.465
-456.011	141.265	-0.087	0.116
-454.997	-200.000	0.012	-0.084
-453.982	703.564	0.030	0.081
-452.968	-59.944	0.047	0.020
-451.953	28.610	-0.208	-0.179
-450.938	-41.027	-0.238	0.125
-449.924	111.525	-0.279	-0.342
-448.909	4.810	0.342	0.255
-447.895	364.714	-0.072	0.147
-446.880	-6.298	0.492	-0.341
-445.865	533.384	-0.019	0.045
-444.851	-104.432	0.439	-0.103
-443.836	-24.230	0.183	-0.111
-442.822	14.345	0.158	-0.125
-441.807	101.272	0.085	-0.101
-440.792	-200.000	0.051	0.362
-439.778	-0.908	0.178	-0.128
-438.763	800.000	-0.099	-0.392
-437.749	-38.099	0.128	0.069
-436.734	167.786	-0.130	0.188
-435.719	-200.000	-0.037	-0.234
-434.705	-200.000	0.033	-0.161
-433.690	555.801	0.172	-0.420
-432.676	-72.638	0.537	-0.201
-431.661	136.079	0.216	0.285
-430.646	-166.562	-0.387	0.016
-429.632	329.364	0.107	-0.209
-428.617	-126.813	-0.103	-0.015
-427.603	-200.000	-0.041	-0.332
-426.588	-200.000	0.014	0.412
-425.573	-21.860	0.015	-0.009
-424.559	11.799	0.283	0.220
-423.544	-200.000	-0.033	-0.171
-422.530	82.819	-0.088	0.097
-421.515	233.489	-0.073	-0.122
-420.500	800.000	-0.069	0.203
-419.486	-10.674	-0.232	0.156
-418.471	466.064	-0.027	0.061
-417.457	-96.063	-0.190	-0.051
-416.442	18.640	0.007	-0.006
-415.428	165.115	0.140	0.201
-414.413	135.723	-0.093	0.123
-413.398	24.656	0.237	-0.199
-412.384	311.949	0.021	-0.040
-411.369	116.421	0.035	-0.043
-410.355	269.701	0.136	-0.242
-409.340	-125.122	0.179	-0.028
-408.325	-66.170	-0.145	0.059
-407.311	-80.964	-0.286	0.096
-406.296	-31.699	0.352	0.200
-405.282	450.513	0.121	-0.271
-404.267	-200.000	-0.003	-0.218
-403.252	-200.000	-0.013	0.189
-402.238	-33.834	0.116	0.065
-401.223	43.344	-0.128	-0.119
-400.209	-26.090	-0.105	-0.062
-399.194	60.360	0.082	0.082
-398.179	-62.046	-0.172	-0.073
-397.165	54.664	-0.217	0.213
-396.150	-144.996	-0.327	-0.030
-395.136	-85.076	0.069	0.022
-394.121	-200.000	-0.048	-0.233
-393.106	-13.741	-0.184	0.121
-392.092	800.000	-0.009	-0.032
-391.077	-8.032	-0.201	0.137
-390.063	-200.000	0.036	-0.188
-389.048	-200.000	-0.000	0.053
-388.033	-72.673	-0.128	-0.048
-387.019	-57.619	-0.428	0.190
-386.004	251.618	0.067	0.115
-384.990	-86.376	-0.297	-0.093
-383.975	-200.000	0.028	-0.318
-382.960	-108.343	0.220	-0.048
-381.946	800.000	0.081	0.301
-380.931	800.000	-0.104	-0.360
-379.917	-200.000	0.018	0.123
-378.902	800.000	-0.074	0.278
-377.888	-147.529	0.248	0.021
-376.873	-200.000	-0.016	0.269
-375.858	800.000	0.086	0.287
-374.844	-195.320	0.114	-0.001
-373.829	23.794	0.251	0.209
-372.815	161.641	-0.142	-0.201
-371.800	-200.000	0.043	0.254
-370.785	-200.000	0.018	0.311
-369.771	-30.950	0.126	-0.072
-368.756	-200.000	0.010	0.157
-367.742	-166.882	0.356	0.015
-366.727	-143.715	0.213	-0.020
-365.712	-200.000	-0.061	0.289
-364.698	143.496	-0.213	0.288
-363.683	22.662	-0.184	-0.153
-362.669	-160.342	0.063	-0.003
-361.654	-12.013	0.292	0.194
-360.639	-68.018	0.112	-0.044
-359.625	1.535	-0.134	0.097
-358.610	-43.954	0.254	-0.129
-357.596	15.550	0.155	-0.123
-356.581	-13.145	-0.080	0.053
-355.566	800.000	-0.053	0.165
-354.552	-136.811	0.171	-0.020
-353.537	800.000	0.039	-0.143
-352.523	-200.000	-0.041	-0.226
-351.508	132.582	0.114	0.149
-350.493	-95.880	-0.198	0.053
-349.479	233.907	-0.171	0.285
-348.464	357.466	-0.086	0.173
-347.450	10.366	0.146	-0.112
-346.435	-142.865	-0.332	0.033
-345.420	-200.000	0.032	0.256
-344.406	-101.344	0.285	-0.070
-343.391	-73.237	0.148	0.055
-342.377	-37.953	-0.230	0.124
-341.362	26.110	-0.126	-0.107
-340.348	-50.742	-0.110	-0.052
-339.333	-73.824	-0.102	-0.038
-338.318	-200.000	0.000	-0.298
-337.304	-1.543	0.277	0.197
-336.289	800.000	-0.069	-0.292
-335.275	-76.759	-0.116	-0.041
-334.260	-60.412	0.173	0.074
-333.245	-139.812	0.205	0.022
-332.231	38.957	-0.204	-0.184
-331.216	-112.567	-0.112	-0.023
-330.202	-125.844	0.460	0.070
-329.187	59.146	0.245	0.243
-328.172	-200.000	-0.020	-0.213
-327.158	-155.713	-0.367	0.024
-326.143	800.000	0.011	0.034
-325.129	-123.584	0.104	-0.017
-324.114	-142.133	-0.412	0.041
-323.099	-71.500	0.111	-0.042
-322.085	-108.983	0.067	-0.014
-321.070	800.000	0.007	-0.027
-320.056	10.706	-0.226	-0.175
-319.041	-39.295	-0.226	-0.120
-318.026	-200.000	-0.015	0.444
-317.012	82.423	-0.114	-0.125
-315.997	56.467	-0.135	-0.133
-314.983	155.930	0.049	-0.068
-313.968	170.312	0.161	-0.233
-312.953	-135.765	-0.179	-0.021
-311.939	-105.795	0.283	-0.064
-310.924	-200.000	-0.023	-0.328
-309.910	126.434	0.163	0.208
-308.895	-51.692	-0.248	0.117
-307.880	89.086	0.106	-0.119
-306.866	-56.716	-0.168	-0.075
-305.851	-200.000	-0.022	0.258
-304.837	8.873	0.318	0.242
-303.822	-115.483	0.069	0.013
-302.807	-58.998	0.188	-0.082
-301.793	647.182	0.057	0.147
-300.778	-105.056	0.303	0.070
-299.764	40.070	0.049	-0.045
-298.749	311.290	-0.008	0.014
-297.735	800.000	-0.062	-0.211
-296.720	-132.389	0.198	-0.026
-295.705	38.135	0.093	0.084
-294.691	39.941	0.147	-0.134
-293.676	-200.000	0.023	-0.154
-292.662	460.679	0.061	0.137
-291.647	22.970	0.108	0.089
-290.632	-200.000	0.079	-0.351
-289.618	-32.977	-0.132	-0.074
-288.603	-67.457	-0.222	0.088
-287.589	138.295	-0.105	-0.139
-286.574	1.223	0.020	0.014
-285.559	-26.588	0.311	-0.184
-284.545	260.382	-0.100	0.175
-283.530	25.732	0.156	0.131
-282.516	-44.758	-0.340	-0.171
-281.501	172.906	0.178	-0.258
-280.486	-43.794	0.004	0.002
-279.472	235.241	0.116	-0.193
-278.457	-35.105	-0.084	-0.046
-277.443	-139.473	0.064	-0.007
-276.428	223.493	0.194	-0.316
-275.413	-66.351	0.410	0.165
-274.399	-95.662	0.345	-0.093
-273.384	-89.289	-0.224	0.066
-272.370	-118.630	0.150	0.027
-271.355	220.937	0.171	0.277
-270.340	-184.261	-0.245	0.004
-269.326	-87.054	0.131	-0.040
-268.311	-19.468	-0.289	-0.181
-267.297	-95.164	0.281	0.076
-266.282	-35.009	-0.136	0.075
-265.267	-200.000	0.084	0.375
-264.253	745.572	0.112	0.305
-263.238	-63.548	0.219	0.091
-262.224	-94.990	0.114	-0.031
-261.209	-200.000	0.072	0.356
-260.195	65.016	0.216	-0.220
-259.180	-101.024	0.170	0.042
-258.165	120.255	-0.257	0.321
-257.151	-156.660	-0.343	0.021
-256.136	800.000	0.107	-0.317
-255.122	262.955	-0.061	-0.106
-254.107	800.000	-0.024	-0.077
-253.092	-132.504	-0.112	0.015
-252.078	-200.000	-0.026	0.208
-251.063	-31.682	-0.306	0.173
-250.049	-200.000	0.034	-0.243
-249.034	153.140	0.258	0.356
-248.019	-151.972	-0.086	-0.006
-247.005	121.234	-0.233	-0.293
-245.990	236.230	0.088	-0.147
-244.976	544.050	-0.101	-0.244
-243.961	322.634	-0.069	-0.132
-242.946	800.000	0.040	-0.112
-241.932	-34.800	-0.089	-0.049
-240.917	-167.216	-0.193	0.008
-239.903	-136.217	0.179	-0.021
-238.888	-120.656	0.195	0.033
-237.873	265.541	0.138	-0.243
-236.859	800.000	-0.052	-0.148
-235.844	-200.000	0.049	-0.412
-234.830	-200.000	0.087	-0.473
-233.815	-56.789	0.356	0.158
-232.800	-121.932	-0.100	-0.017
-231.786	-7.608	0.094	0.064
-230.771	-200.000	-0.100	0.686
-229.757	-200.000	-0.016	-0.328
-228.742	800.000	-0.097	-0.304
-227.727	-200.000	-0.019	-0.231
-226.713	-132.571	0.043	-0.006
-225.698	-200.000	0.037	-0.169
-224.684	800.000	-0.046	0.143
-223.669	-150.119	-0.221	0.017
-222.655	379.100	-0.167	0.345
-221.640	-200.000	-0.006	0.141
-220.625	-123.568	-0.320	0.051
-219.611	-118.459	0.208	0.037
-218.596	-25.100	0.204	-0.121
-217.582	-183.266	-0.378	-0.007
-216.567	385.696	0.050	-0.104
-215.552	760.595	-0.037	0.101
-214.538	3.767	0.157	0.115
-213.523	722.460	-0.070	0.186
-212.509	-82.671	-0.316	0.103
-211.494	101.894	-0.048	0.056
-210.479	45.685	-0.068	-0.063
-209.465	-19.735	0.115	-0.072
-208.450	38.768	-0.243	0.219
-207.436	800.000	-0.074	0.245
-206.421	-94.587	0.017	-0.005
-205.406	-164.861	0.401	-0.018
-204.392	-13.599	-0.173	-0.113
-203.377	-200.000	0.011	-0.315
-202.363	-200.000	0.007	-0.236
-201.348	730.754	0.063	0.170
-200.333	145.025	-0.199	0.268
-199.319	-177.345	-0.078	-0.002
-198.304	-200.000	-0.043	0.198
-197.290	-24.711	0.315	0.188
-196.275	-9.663	-0.459	0.308
-195.260	12.687	-0.345	0.268
-194.246	-200.000	-0.032	-0.235
-193.231	699.299	-0.006	0.015
-192.217	800.000	0.023	0.080
-191.202	-54.284	0.293	0.134
-190.187	304.396	0.028	-0.053
-189.173	-200.000	-0.054	-0.269
-188.158	12.278	0.130	-0.100
-187.144	-200.000	0.003	0.072
-186.129	-78.068	0.060	-0.021
-185.114	-44.506	0.099	-0.050
-184.100	779.704	-0.008	0.021
-183.085	-200.000	-0.003	0.161
-182.071	88.722	-0.034	-0.038
-181.056	-40.852	-0.046	-0.024
-180.042	-200.000	0.058	0.319
-179.027	-120.710	-0.006	-0.001
-178.012	800.000	-0.068	-0.197
-176.998	-63.100	0.381	-0.158
-175.983	625.019	0.112	-0.285
-174.969	-100.586	0.220	0.055
-173.954	-138.854	-0.102	0.011
-172.939	332.539	0.082	0.159
-171.925	-200.000	0.063	-0.305
-170.910	344.940	0.159	-0.314
-169.896	-96.944	0.341	-0.090
-168.881	-200.000	-0.008	-0.118
-167.866	716.441	-0.070	-0.187
-166.852	456.562	-0.114	-0.254
-165.837	153.362	-0.040	0.055
-164.823	74.668	-0.092	-0.097
-163.808	-19.943	-0.331	-0.205
-162.793	80.158	0.187	-0.202
-161.779	-4.926	-0.138	0.095
-160.764	316.668	0.062	-0.119
-159.750	-79.701	-0.157	-0.053
-158.735	97.272	0.071	0.081
-157.720	4.497	-0.172	0.127
-156.706	-12.262	-0.251	0.165
-155.691	-200.000	0.289	-0.001
-154.677	36.767	-0.177	-0.157
-153.662	-36.474	0.119	-0.064
-152.647	-37.357	0.236	0.127
-151.633	422.540	0.045	0.097
-150.618	263.576	-0.152	0.266
-149.604	-60.663	0.278	0.118
-148.589	800.000	0.106	0.300
-147.574	161.746	0.157	0.221
-146.560	243.562	-0.137	0.230
-145.545	229.258	0.042	0.069
-144.531	72.131	-0.187	-0.196
-143.516	-35.808	0.278	0.151
-142.502	-33.811	-0.096	-0.053
-141.487	-200.000	-0.007	-0.164
-140.472	-131.672	-0.121	0.016
-139.458	265.655	-0.107	0.187
-138.443	142.880	0.104	-0.139
-137.429	519.177	-0.136	0.320
-136.414	-13.649	0.191	0.124
-135.399	-55.144	0.122	-0.055
-134.385	-200.000	0.052	0.233
-133.370	-127.353	-0.126	-0.018
-132.356	312.641	-0.161	-0.303
-131.341	234.994	-0.221	-0.366
-130.326	-200.000	0.027	-0.351
-129.312	-136.311	-0.083	0.010
-128.297	-200.000	-0.030	-0.547
-127.283	-44.374	0.275	-0.138
-126.268	340.000	0.092	-0.181
-125.253	-200.000	-0.011	-0.172
-124.239	15.321	-0.100	-0.079
-123.224	11.616	0.272	0.209
-122.210	198.238	0.086	-0.132
-121.195	83.890	0.092	-0.100
-120.180	-64.504	-0.064	-0.026
-119.166	-87.084	0.379	0.116
-118.151	524.724	0.206	0.486
-117.137	176.399	0.142	0.206
-116.122	-99.012	0.297	0.076
-115.107	-132.226	0.398	0.052
-114.093	73.613	0.123	-0.130
-113.078	12.639	0.038	0.029
-112.064	-200.000	0.013	-0.085
-111.049	-200.000	-0.085	-0.408
-110.034	165.360	-0.142	-0.201
-109.020	-30.191	0.297	0.169
-108.005	709.152	0.072	-0.192
-106.991	28.429	-0.012	0.010
-105.976	-40.365	-0.180	-0.094
-104.962	17.889	0.180	0.144
-103.947	426.784	0.063	0.137
-102.932	-200.000	0.047	0.267
-101.918	-49.919	0.308	-0.146
-100.903	90.569	-0.055	-0.062
-99.889	-117.678	-0.120	-0.022
-98.874	34.871	-0.108	0.094
-97.859	-200.000	-0.040	0.209
-96.845	96.115	-0.164	-0.188
-95.830	79.370	-0.025	0.027
-94.816	174.687	0.114	-0.164
-93.801	-79.906	-0.246	-0.083
-92.786	-200.000	-0.008	-0.078
-91.772	372.140	-0.055	-0.112
-90.757	611.943	0.046	-0.116
-89.743	-200.000	-0.024	0.199
-88.728	10.658	-0.193	-0.148
-87.713	-20.365	0.327	0.201
-86.699	220.403	0.096	0.154
-85.684	211.721	-0.287	0.453
-84.670	800.000	-0.023	0.099
-83.655	50.213	0.171	0.162
-82.640	294.064	0.124	-0.228
-81.626	-84.489	-0.076	-0.024
-80.611	-114.274	-0.213	0.041
-79.597	335.566	-0.028	-0.053
-78.582	51.940	0.336	0.320
-77.567	351.839	0.047	0.092
-76.553	-121.699	-0.329	0.055
-75.538	91.010	0.031	-0.035
-74.524	285.946	0.240	0.432
-73.509	-73.406	-0.290	0.106
-72.494	761.667	-0.067	0.181
-71.480	19.874	-0.152	0.122
-70.465	-85.312	0.127	0.040
-69.451	-146.939	0.047	-0.004
-68.436	15.149	-0.142	0.111
-67.422	786.878	0.202	0.554
-66.407	236.673	0.158	0.262
-65.392	93.081	0.159	0.180
-64.378	48.255	0.122	0.115
-63.363	145.256	-0.131	0.176
-62.349	-79.535	-0.222	0.075
-61.334	-13.120	-0.741	-0.482
-60.319	-200.000	0.015	0.420
-59.305	-200.000	-0.200	-0.957
-58.290	214.995	0.460	0.730
-57.276	489.481	0.784	1.792
-56.261	-200.000	69.457	522.583
-55.246	582.264	1249.301	3064.503
-54.232	135.292	2507.725	3260.311
-53.217	111.368	2360.259	2845.072
-52.203	54.885	1982.079	1913.091
-51.188	48.373	1769.786	1656.578
-50.173	45.334	1721.564	1587.819
-49.159	58.451	1751.522	1718.074
-48.144	65.643	1770.680	1792.861
-47.130	48.327	1735.474	1623.841
-46.115	44.933	1721.471	1584.364
-45.100	44.786	1717.302	1579.325
-44.086	44.745	1714.217	1576.113
-43.071	44.733	1712.013	1573.928
-42.057	44.647	1709.774	1571.147
-41.042	44.650	1708.039	1569.513
-40.027	44.655	1706.100	1567.708
-39.013	44.798	1703.044	1565.937
-37.998	44.786	1701.354	1564.223
-36.984	44.740	1700.427	1562.961
-35.969	44.815	1698.727	1561.911
-34.954	44.950	1696.986	1561.278
-33.940	44.951	1695.227	1559.605
-32.925	44.890	1693.134	1557.153
-31.911	44.939	1691.585	1556.037
-30.896	45.030	1689.445	1554.706
-29.881	44.917	1687.937	1552.394
-28.867	44.874	1685.988	1550.212
-27.852	44.938	1684.555	1549.322
-26.838	44.872	1683.157	1547.471
-25.823	44.886	1681.750	1546.221
-24.809	44.948	1680.201	1545.207
-23.794	44.865	1678.598	1543.047
-22.779	44.918	1677.388	1542.273
-21.765	44.872	1675.680	1540.290
-20.750	44.887	1673.840	1538.651
-19.736	44.964	1672.214	1537.677
-18.721	44.932	1670.626	1535.918
-17.706	44.930	1669.125	1534.457
-16.692	44.794	1667.570	1531.949
-15.677	44.839	1665.998	1530.783
-14.663	44.849	1665.055	1529.930
-13.648	44.910	1663.238	1528.652
-12.633	44.873	1661.599	1526.811
-11.619	44.867	1659.871	1525.114
-10.604	44.883	1658.295	1523.729
-9.590	44.845	1657.303	1522.470
-8.575	44.891	1655.777	1521.356
-7.560	44.902	1654.228	1519.949
-6.546	44.826	1653.482	1518.643
-5.531	44.837	1652.314	1517.592
-4.517	44.790	1651.429	1516.370
-3.502	44.845	1650.340	1515.711
-2.487	44.917	1648.330	1514.347
-1.473	44.780	1637.043	1502.904
-0.458	41.889	1615.294	1461.791
0.556	33.701	1609.611	1409.637
1.571	29.524	1629.492	1395.431
2.586	27.707	1642.551	1392.629
3.600	24.524	1590.579	1324.876
4.615	15.964	1478.291	1171.943
5.629	8.205	1407.458	1064.113
6.644	6.538	1396.749	1044.877
7.659	6.401	1395.065	1042.624
8.673	6.356	1394.062	1041.482
9.688	6.155	1392.903	1039.197
10.702	6.119	1389.727	1036.492
11.717	9.268	1396.558	1062.339
12.731	16.244	1409.323	1118.331
13.746	19.004	1412.378	1138.957
14.761	17.359	1407.447	1124.021
15.775	16.013	1404.559	1112.727
16.790	14.977	1401.889	1103.684
17.804	14.056	1399.790	1095.863
18.819	13.635	1398.095	1091.666
19.834	13.345	1396.685	1088.564
20.848	13.018	1395.873	1085.682
21.863	12.808	1394.217	1082.922
22.877	12.695	1392.504	1080.749
23.892	12.503	1392.428	1079.338
24.907	12.634	1391.127	1079.093
25.921	12.570	1390.830	1078.343
26.936	12.694	1388.875	1077.544
27.950	12.737	1388.533	1077.470
28.965	12.719	1387.559	1076.497
29.980	12.724	1386.687	1075.761
30.994	12.828	1385.152	1075.152
32.009	12.934	1383.713	1074.628
33.023	12.954	1382.430	1073.670
34.038	12.902	1381.050	1072.166
35.053	12.744	1379.913	1070.158
36.067	12.779	1378.614	1069.288
37.082	12.687	1377.796	1067.958
38.096	12.803	1376.425	1067.554
39.111	12.816	1375.688	1066.974
40.126	12.796	1374.594	1065.897
41.140	12.608	1373.815	1063.984
42.155	12.575	1373.201	1063.205
43.169	12.544	1373.139	1062.859
44.184	12.622	1372.606	1062.860
45.199	12.574	1372.392	1062.288
46.213	12.681	1371.220	1061.977
47.228	12.678	1370.913	1061.625
48.242	12.636	1369.660	1060.288
49.257	12.741	1367.920	1059.524
50.271	12.685	1366.666	1058.101
51.286	12.696	1365.203	1056.944
52.301	12.681	1364.215	1055.989
53.315	12.707	1362.624	1054.833
54.330	12.617	1361.853	1053.566
55.344	12.604	1360.801	1052.574
56.359	12.617	1359.433	1051.508
57.374	12.534	1358.933	1050.500
58.388	12.477	1358.208	1049.481
59.403	12.534	1357.313	1049.059
60.417	12.527	1356.648	1048.411
61.432	12.555	1355.652	1047.723
62.447	12.425	1355.005	1046.301
63.461	12.408	1353.494	1044.939
64.476	12.396	1352.743	1044.187
65.490	12.440	1351.420	1043.353
66.505	12.442	1349.800	1042.024
67.520	12.509	1348.507	1041.360
68.534	12.495	1347.533	1040.427
69.549	12.520	1346.501	1039.696
70.563	12.410	1345.393	1038.054
71.578	12.441	1344.079	1037.142
72.593	12.385	1343.536	1036.280
73.607	12.386	1342.761	1035.594
74.622	12.390	1341.645	1034.668
75.636	12.299	1341.322	1033.755
76.651	12.422	1340.332	1033.674
77.666	12.293	1340.264	1032.719
78.680	12.398	1339.633	1032.801
79.695	12.419	1338.371	1031.865
80.709	12.492	1337.261	1031.381
81.724	12.509	1336.879	1031.097
82.739	12.670	1335.687	1031.094
83.753	12.656	1335.382	1030.680
84.768	12.772	1334.140	1030.360
85.782	12.839	1332.790	1029.644
86.797	12.688	1331.592	1027.682
87.812	12.670	1330.620	1026.728
88.826	12.679	1329.506	1025.833
89.841	12.736	1328.305	1025.175
90.855	12.811	1327.233	1024.722
91.870	12.781	1326.715	1024.047
92.884	12.843	1325.464	1023.374
93.899	12.725	1325.557	1022.623
94.914	12.817	1324.191	1022.048
95.928	12.852	1323.516	1021.656
96.943	12.894	1322.092	1020.723
97.957	12.859	1320.958	1019.542
98.972	12.763	1320.399	1018.429
99.987	12.766	1318.976	1017.259
101.001	12.781	1318.496	1016.889
102.016	12.788	1317.348	1015.957
103.030	12.847	1316.638	1015.682
104.045	12.802	1315.381	1014.349
105.060	12.740	1313.928	1012.757
106.074	12.638	1313.127	1011.425
107.089	12.519	1311.526	1009.370
108.103	12.437	1310.335	1007.858
109.118	12.457	1309.298	1007.095
110.133	12.492	1307.638	1005.947
111.147	12.557	1306.312	1005.234
112.162	12.698	1304.628	1004.708
113.176	12.618	1303.932	1003.598
114.191	12.591	1303.027	1002.644
115.206	12.678	1301.520	1001.929
116.220	12.600	1300.188	1000.340
117.235	12.633	1298.845	999.418
118.249	12.487	1298.542	998.208
119.264	12.515	1297.228	997.279
120.279	12.461	1296.127	996.021
121.293	12.498	1295.274	995.502
122.308	12.605	1293.830	994.949
123.322	12.580	1293.090	994.140
124.337	12.520	1292.032	992.879
125.352	12.503	1290.712	991.675
126.366	12.522	1289.590	990.838
127.381	12.513	1288.938	990.196
128.395	12.548	1287.437	989.166
129.410	12.485	1286.833	988.234
130.424	12.629	1285.804	988.218
131.439	12.612	1284.887	987.327
132.454	12.596	1284.283	986.678
133.468	12.715	1282.899	986.241
134.483	12.624	1282.798	985.530
135.497	12.620	1281.579	984.483
136.512	12.736	1279.952	983.841
137.527	12.715	1278.781	982.726
138.541	12.807	1277.337	982.077
139.556	12.743	1276.193	980.734
140.570	12.799	1275.243	980.248
141.585	12.859	1273.862	979.458
142.600	12.843	1272.443	978.184
143.614	12.919	1271.739	978.007
144.629	12.940	1270.935	977.425
145.643	12.875	1269.423	975.792
146.658	12.845	1267.891	974.351
147.673	12.887	1266.255	973.256
148.687	12.787	1265.432	971.944
149.702	12.818	1263.730	970.737
150.716	12.751	1262.677	969.447
151.731	12.803	1261.121	968.475
152.746	12.746	1260.408	967.506
153.760	12.787	1259.017	966.591
154.775	12.809	1257.987	965.847
155.789	12.906	1257.069	965.624
156.804	12.888	1255.929	964.553
157.819	12.847	1255.343	963.782
158.833	12.944	1254.026	963.251
159.848	12.979	1252.752	962.392
160.862	13.005	1251.968	961.854
161.877	12.823	1250.961	959.939
162.892	12.752	1249.514	958.328
163.906	12.760	1249.168	958.026
164.921	12.772	1248.323	957.360
165.935	12.803	1246.857	956.334
166.950	12.813	1246.349	955.916
167.964	12.829	1245.349	955.155
168.979	12.912	1244.590	954.970
169.994	12.881	1244.134	954.360
171.008	12.861	1243.133	953.392
172.023	12.902	1242.467	953.030
173.037	13.044	1241.340	952.902
174.052	12.897	1240.610	951.412
175.067	12.919	1239.558	950.645
176.081	12.854	1238.561	949.422
177.096	12.832	1237.607	948.483
178.110	12.840	1236.303	947.445
179.125	12.987	1234.906	947.131
180.140	12.996	1233.888	946.322
181.154	12.958	1232.583	945.015
182.169	13.012	1231.520	944.427
183.183	13.053	1230.351	943.682
184.198	13.105	1228.793	942.702
185.213	13.091	1227.927	941.871
186.227	13.253	1226.643	941.730
187.242	13.146	1226.299	940.772
188.256	13.165	1225.417	940.118
189.271	13.223	1224.246	939.469
190.286	13.077	1223.233	937.780
191.300	12.902	1222.408	936.070
192.315	12.892	1221.330	935.103
193.329	12.905	1220.623	934.553
194.344	12.985	1220.103	934.528
195.359	13.129	1219.228	934.589
196.373	13.024	1218.950	933.696
197.388	13.261	1218.455	934.578
198.402	13.235	1218.323	934.243
199.417	13.440	1217.065	934.354
200.432	13.362	1216.675	933.533
201.446	13.365	1215.624	932.662
202.461	13.429	1215.038	932.491
203.475	13.382	1214.056	931.390
204.490	13.356	1212.758	930.163
205.504	13.345	1211.360	928.950
206.519	13.394	1209.939	928.049
207.534	13.472	1208.681	927.443
208.548	13.412	1207.859	926.393
209.563	13.386	1207.257	925.706
210.577	13.383	1206.338	924.902
211.592	13.409	1205.719	924.486
212.607	13.451	1204.534	923.732
213.621	13.518	1203.947	923.575
214.636	13.485	1202.779	922.415
215.650	13.477	1202.138	921.794
216.665	13.615	1201.149	921.725
217.680	13.597	1200.435	920.992
218.694	13.678	1199.379	920.551
219.709	13.696	1198.561	919.942
220.723	13.631	1197.866	918.969
221.738	13.622	1197.041	918.203
222.753	13.520	1196.894	917.444
223.767	13.622	1195.955	917.208
224.782	13.826	1194.869	917.421
225.796	13.784	1194.438	916.777
226.811	13.784	1193.697	916.125
227.826	13.836	1192.761	915.615
228.840	13.685	1192.238	914.298
229.855	13.799	1191.098	913.972
230.869	13.764	1189.869	912.755
231.884	13.660	1189.601	911.900
232.899	13.638	1188.912	911.168
233.913	13.641	1188.077	910.466
234.928	13.604	1187.436	909.690
235.942	13.703	1186.231	909.231
236.957	13.583	1185.674	908.061
237.972	13.645	1185.121	907.899
238.986	13.619	1184.431	907.146
240.001	13.680	1183.643	906.797
241.015	13.493	1183.287	905.421
242.030	13.647	1182.528	905.602
243.045	13.692	1181.380	904.890
244.059	13.742	1180.634	904.510
245.074	13.792	1179.789	904.055
246.088	13.844	1178.841	903.533
247.103	13.841	1178.044	902.823
248.117	13.832	1177.523	902.297
249.132	14.036	1176.534	902.565
250.147	14.064	1176.080	902.291
251.161	14.109	1175.281	901.839
252.176	14.077	1174.953	901.339
253.190	14.080	1174.782	901.139
254.205	14.144	1173.613	900.514
255.220	14.259	1172.917	900.522
256.234	14.264	1172.496	900.143
257.249	14.337	1171.913	900.014
258.263	14.330	1170.669	898.941
259.278	14.304	1170.223	898.377
260.293	14.362	1169.430	898.001
261.307	14.344	1168.955	897.460
262.322	14.433	1168.020	897.141
263.336	14.420	1167.802	896.826
264.351	14.302	1167.557	895.924
265.366	14.506	1166.322	895.992
266.380	14.470	1165.588	895.156
267.395	14.372	1164.962	894.069
268.409	14.299	1164.034	892.888
269.424	14.233	1163.656	892.165
270.439	14.473	1162.983	892.855
271.453	14.462	1162.060	892.008
272.468	14.500	1161.028	891.339
273.482	14.365	1160.376	890.038
274.497	14.380	1159.808	889.607
275.512	14.390	1159.127	889.055
276.526	14.413	1158.711	888.784
277.541	14.407	1157.695	887.891
278.555	14.495	1156.914	887.682
279.570	14.549	1156.132	887.291
280.585	14.641	1155.229	887.009
281.599	14.602	1154.393	886.081
282.614	14.662	1153.246	885.440
283.628	14.672	1152.189	884.603
284.643	14.542	1151.296	883.152
285.657	14.524	1150.599	882.442
286.672	14.628	1149.480	882.057
287.687	14.539	1148.727	880.933
288.701	14.681	1147.923	880.986
289.716	14.541	1147.118	879.554
290.730	14.577	1146.659	879.311
291.745	14.650	1145.681	878.871
292.760	14.616	1144.926	878.035
293.774	14.677	1144.260	877.766
294.789	14.805	1143.977	878.143
295.803	14.772	1143.138	877.247
296.818	14.719	1142.317	876.262
297.833	14.718	1141.815	875.795
298.847	14.781	1140.624	875.134
299.862	14.749	1139.829	874.278
300.876	14.862	1139.208	874.317
301.891	14.877	1138.626	873.869
302.906	14.951	1137.734	873.496
303.920	14.943	1136.973	872.792
304.935	14.894	1136.723	872.269
305.949	14.972	1135.979	872.025
306.964	15.052	1135.416	871.933
307.979	14.894	1134.600	870.409
308.993	15.001	1133.576	870.099
310.008	14.983	1132.890	869.402
311.022	15.037	1132.112	869.011
312.037	15.072	1131.052	868.304
313.052	14.975	1130.098	866.992
314.066	14.994	1129.074	866.223
315.081	14.844	1128.169	864.679
316.095	14.900	1127.700	864.530
317.110	14.943	1126.831	864.009
318.125	14.865	1125.992	862.891
319.139	14.828	1125.321	862.107
320.154	14.912	1124.737	862.017
321.168	14.931	1124.222	861.646
322.183	14.834	1123.601	860.590
323.197	14.963	1122.655	860.456
324.212	15.039	1121.928	860.214
325.227	14.997	1121.590	859.664
326.241	15.040	1120.989	859.345
327.256	15.037	1120.041	858.528
328.270	15.004	1119.361	857.760
329.285	15.071	1118.254	857.178
330.300	14.969	1117.577	856.064
331.314	15.080	1116.457	855.699
332.329	14.967	1115.882	854.606
333.343	15.106	1114.714	854.342
334.358	15.103	1114.165	853.832
335.373	15.249	1113.140	853.712
336.387	15.157	1112.748	852.867
337.402	15.185	1111.933	852.309
338.416	15.321	1111.115	852.298
339.431	15.317	1110.494	851.728
340.446	15.366	1109.404	851.068
341.460	15.313	1109.239	850.595
342.475	15.372	1108.314	850.110
343.489	15.458	1106.893	849.381
344.504	15.498	1106.103	848.902
345.519	15.485	1105.120	848.003
346.533	15.540	1104.614	847.821
347.548	15.580	1103.890	847.389
348.562	15.573	1103.114	846.685
349.577	15.390	1102.689	845.363
350.592	15.408	1101.557	844.507
351.606	15.355	1100.803	843.587
352.621	15.429	1100.016	843.282
353.635	15.499	1099.203	842.938
354.650	15.341	1098.681	841.668
355.665	15.511	1097.725	841.717
356.679	15.488	1097.527	841.373
357.694	15.515	1096.856	840.922
358.708	15.602	1095.963	840.598
359.723	15.646	1095.666	840.513
360.738	15.595	1094.689	839.436
361.752	15.573	1094.232	838.899
362.767	15.614	1093.421	838.408
363.781	15.510	1093.281	837.708
364.796	15.525	1092.995	837.489
365.810	15.738	1092.043	837.750
366.825	15.814	1091.246	837.441
367.840	15.922	1090.521	837.349
368.854	15.877	1090.205	836.809
369.869	15.860	1089.497	836.105
370.883	15.795	1088.498	834.942
371.898	15.827	1087.949	834.605
372.913	15.830	1087.114	833.908
373.927	15.982	1086.631	834.216
374.942	15.896	1086.214	833.393
375.956	16.014	1085.417	833.292
376.971	15.889	1084.959	832.248
377.986	15.972	1084.647	832.346
379.000	16.110	1083.989	832.447
380.015	16.049	1083.653	831.815
381.029	16.136	1082.874	831.573
382.044	16.038	1082.331	830.599
383.059	16.193	1080.774	830.095
384.073	16.040	1080.297	828.904
385.088	16.215	1079.502	829.079
386.102	16.097	1078.647	827.770
387.117	16.046	1077.881	826.858
388.132	15.958	1076.750	825.488
389.146	15.974	1076.101	824.996
390.161	15.989	1075.270	824.359
391.175	15.955	1074.645	823.642
392.190	16.189	1073.940	824.170
393.205	16.129	1073.221	823.251
394.219	16.109	1072.186	822.286
395.234	16.148	1071.621	821.971
396.248	16.071	1070.738	820.845
397.263	16.184	1069.354	820.260
398.278	16.033	1068.550	818.840
399.292	16.023	1068.032	818.324
400.307	15.946	1067.679	817.606
401.321	16.085	1066.636	817.408
402.336	16.079	1066.210	816.978
403.350	16.095	1065.285	816.277
404.365	16.046	1064.384	815.279
405.380	16.153	1064.050	815.469
406.394	16.106	1063.545	814.780
407.409	16.261	1062.729	814.832
408.423	16.329	1061.940	814.483
409.438	16.354	1061.048	813.844
410.453	16.383	1060.521	813.510
411.467	16.379	1059.917	812.955
412.482	16.376	1059.271	812.372
413.496	16.460	1058.673	812.245
414.511	16.542	1057.681	811.805
415.526	16.618	1057.196	811.726
416.540	16.640	1056.869	811.509
417.555	16.754	1056.075	811.375
418.569	16.546	1056.029	810.272
419.584	16.555	1055.544	809.872
420.599	16.542	1054.838	809.195
421.613	61.620	1254.789	1212.188
422.628	56.563	1283.907	1212.331
