DTS Sentinel unit serial number:	SN413079Multiplexer serial number:	ORYXHardware model number:	OX4-SRSoftware version number:	ORYX F/W v4.00 Oryx Data Collector v3.7.2.0data status	okinstallation	princeton_trtdifferential loss correction	single-endedforward channel	channel 2reverse channel	N/Adate	2019/09/18time	12:03:34forward acquisition time	60.00reverse acquisition time	0.00gamma	496.2192k internal	0.2325k external	0.2325temperature offset calibration	0.9990default loss term (dB/km)	0.3790temperature slope calibration	1.0000multiplexer offset coefficient	1.0000multiplexer slope coefficient	1.0000fibre end	0.00T internal ref (°C)	31.61T ext. ref 1 (°C)	0.49T ext. ref 2 (°C)	27.39length (m)	temperature (°C)	Stokes	anti-Stokes-747.200	144.407	-0.142	0.191
-746.185	-200.000	-0.022	-0.220
-745.171	-87.471	-0.225	-0.069
-744.156	113.681	-0.235	-0.287
-743.142	357.848	-0.032	0.064
-742.127	204.770	0.233	0.365
-741.112	127.251	0.223	0.286
-740.098	96.592	-0.115	-0.132
-739.083	-20.660	-0.288	-0.178
-738.069	-99.062	0.061	-0.016
-737.054	-94.288	-0.256	-0.071
-736.039	-46.587	-0.429	0.212
-735.025	-53.575	0.092	-0.043
-734.010	475.192	-0.094	0.214
-732.996	33.948	0.176	-0.154
-731.981	181.052	0.250	-0.371
-730.966	-172.634	-0.196	0.006
-729.952	-200.000	0.000	-0.128
-728.937	-6.137	-0.222	0.153
-727.923	800.000	0.051	0.177
-726.908	333.024	-0.075	-0.146
-725.894	20.191	-0.154	-0.125
-724.879	145.281	0.112	-0.152
-723.864	76.507	-0.032	-0.034
-722.850	159.763	-0.098	-0.137
-721.835	504.478	-0.139	-0.325
-720.821	-99.361	-0.155	0.039
-719.806	35.001	0.184	0.162
-718.791	469.553	0.093	-0.210
-717.777	-200.000	-0.047	0.243
-716.762	800.000	-0.063	-0.261
-715.748	-93.582	0.243	0.068
-714.733	800.000	-0.029	0.118
-713.718	-49.682	-0.335	-0.161
-712.704	283.665	-0.177	-0.321
-711.689	-96.584	0.084	0.022
-710.675	15.449	0.226	-0.179
-709.660	-200.000	0.021	0.120
-708.645	-107.381	-0.373	0.083
-707.631	138.762	0.120	0.159
-706.616	29.809	0.188	0.161
-705.602	125.944	0.264	0.336
-704.587	-200.000	-0.014	-0.105
-703.572	800.000	-0.118	-0.360
-702.558	-46.039	-0.530	-0.263
-701.543	-137.486	-0.097	0.011
-700.529	64.124	-0.217	-0.219
-699.514	658.002	-0.094	-0.244
-698.499	-157.934	0.322	0.019
-697.485	800.000	-0.047	0.179
-696.470	71.783	-0.201	-0.211
-695.456	-200.000	-0.069	-0.324
-694.441	193.948	-0.170	0.260
-693.426	-200.000	0.014	-0.186
-692.412	180.394	-0.207	0.306
-691.397	-89.064	0.212	-0.063
-690.383	-95.440	-0.198	0.053
-689.368	62.986	0.155	0.157
-688.354	32.050	0.213	0.185
-687.339	-200.000	0.007	0.031
-686.324	-151.373	-0.115	-0.009
-685.310	-156.210	-0.212	0.013
-684.295	441.947	-0.077	0.170
-683.281	800.000	0.055	-0.167
-682.266	-179.626	0.176	0.004
-681.251	-8.835	0.071	-0.048
-680.237	-200.000	0.003	0.191
-679.222	24.583	0.201	0.168
-678.208	35.959	-0.129	0.114
-677.193	-51.481	0.130	0.061
-676.178	-148.347	0.233	-0.019
-675.164	-34.988	-0.049	-0.027
-674.149	623.989	-0.197	0.499
-673.135	-200.000	-0.001	0.063
-672.120	-200.000	0.053	-0.308
-671.105	-200.000	0.018	0.348
-670.091	-49.633	0.113	0.054
-669.076	-41.112	-0.220	-0.114
-668.062	-149.377	-0.345	0.028
-667.047	-106.591	0.032	0.007
-666.032	-46.718	-0.224	0.110
-665.018	199.045	-0.092	0.141
-664.003	-109.527	0.142	0.030
-662.989	-160.500	-0.150	-0.008
-661.974	-119.200	0.180	0.032
-660.959	201.013	0.133	-0.206
-659.945	617.966	-0.028	0.070
-658.930	649.549	0.089	0.230
-657.916	161.575	0.207	0.291
-656.901	-33.810	-0.258	-0.143
-655.886	74.406	0.072	-0.076
-654.872	-14.468	-0.193	-0.125
-653.857	19.804	-0.174	0.140
-652.843	229.588	0.119	0.196
-651.828	-46.239	0.048	0.024
-650.814	-200.000	0.052	0.277
-649.799	32.466	0.022	-0.019
-648.784	43.348	0.114	-0.104
-647.770	-200.000	-0.017	0.230
-646.755	116.152	0.170	0.209
-645.741	-106.499	-0.136	0.031
-644.726	800.000	-0.076	0.286
-643.711	800.000	-0.095	-0.264
-642.697	34.393	0.140	0.122
-641.682	241.820	-0.102	0.172
-640.668	-39.641	0.097	0.051
-639.653	-200.000	0.057	-0.335
-638.638	35.146	0.251	-0.221
-637.624	-6.157	0.207	-0.142
-636.609	-200.000	0.052	0.267
-635.595	800.000	-0.080	-0.239
-634.580	-132.185	-0.200	-0.026
-633.565	-92.910	0.262	-0.074
-632.551	112.203	-0.174	-0.211
-631.536	54.084	-0.124	-0.120
-630.522	614.166	-0.056	-0.141
-629.507	16.075	-0.091	0.072
-628.492	-200.000	-0.001	-0.184
-627.478	298.389	-0.040	0.074
-626.463	-60.746	0.113	0.048
-625.449	281.247	-0.082	0.147
-624.434	179.054	0.244	0.358
-623.419	-23.804	-0.198	0.119
-622.405	-100.483	0.242	-0.060
-621.390	25.484	0.180	-0.151
-620.376	-22.316	0.182	0.111
-619.361	-200.000	0.041	0.352
-618.346	800.000	-0.059	0.174
-617.332	-95.622	-0.219	-0.059
-616.317	-38.277	0.221	0.117
-615.303	139.274	-0.121	0.160
-614.288	-200.000	0.137	0.603
-613.273	-125.918	0.059	0.009
-612.259	780.935	0.032	0.087
-611.244	-131.387	-0.241	-0.032
-610.230	83.484	0.183	-0.200
-609.215	-75.817	-0.129	0.046
-608.201	35.952	0.154	-0.136
-607.186	417.934	-0.185	0.396
-606.171	-200.000	0.030	-0.210
-605.157	-200.000	0.016	0.072
-604.142	-200.000	-0.032	-0.438
-603.128	52.486	0.121	-0.116
-602.113	195.409	-0.058	0.089
-601.098	-200.000	-0.020	-0.304
-600.084	334.329	-0.064	-0.125
-599.069	-200.000	-0.058	-0.346
-598.055	800.000	-0.070	-0.199
-597.040	-158.016	0.176	-0.010
-596.025	613.331	-0.044	0.111
-595.011	64.377	0.064	0.065
-593.996	-81.988	-0.072	-0.024
-592.982	128.784	-0.087	0.111
-591.967	50.324	0.081	0.077
-590.952	-23.382	-0.381	-0.229
-589.938	-97.965	-0.235	0.061
-588.923	-200.000	0.042	0.192
-587.909	-67.020	0.003	-0.001
-586.894	-129.650	-0.382	0.053
-585.879	-200.000	0.007	0.211
-584.865	448.719	-0.111	-0.246
-583.850	-115.196	-0.195	0.037
-582.836	-2.164	0.117	0.082
-581.821	-200.000	-0.350	-0.001
-580.806	-21.199	-0.247	0.152
-579.792	220.307	0.165	-0.265
-578.777	-40.493	0.278	-0.145
-577.763	187.639	0.081	-0.122
-576.748	-124.495	0.109	-0.017
-575.733	-200.000	0.037	-0.262
-574.719	-104.612	-0.322	-0.074
-573.704	375.613	-0.142	0.290
-572.690	41.413	0.244	0.221
-571.675	-162.972	-0.212	-0.010
-570.661	800.000	0.054	-0.167
-569.646	-162.792	-0.101	0.005
-568.631	382.076	-0.101	0.208
-567.617	-200.000	-0.022	-0.350
-566.602	-74.010	0.296	-0.108
-565.588	315.551	0.169	0.320
-564.573	-10.227	-0.149	0.099
-563.558	-23.948	-0.351	-0.210
-562.544	800.000	0.026	0.081
-561.529	-107.125	0.107	-0.024
-560.515	249.253	-0.022	-0.037
-559.500	128.833	-0.024	0.030
-558.485	117.529	-0.044	0.054
-557.471	-57.586	0.361	0.159
-556.456	-28.629	-0.138	-0.080
-555.442	32.485	0.216	-0.187
-554.427	71.510	0.118	-0.122
-553.412	-200.000	-0.001	0.093
-552.398	800.000	-0.016	-0.055
-551.383	412.691	0.103	0.220
-550.369	674.996	0.134	0.348
-549.354	130.833	-0.109	-0.140
-548.339	-85.666	-0.200	0.062
-547.325	-40.460	0.119	-0.062
-546.310	302.839	0.132	0.244
-545.296	146.500	-0.201	-0.270
-544.281	-63.219	-0.034	0.014
-543.266	192.747	-0.048	-0.072
-542.252	-200.000	0.005	-0.081
-541.237	-200.000	-0.021	-0.166
-540.223	359.965	-0.109	-0.218
-539.208	-160.204	-0.221	-0.012
-538.193	782.067	0.160	0.438
-537.179	-200.000	0.024	-0.237
-536.164	-79.106	-0.276	-0.094
-535.150	-200.000	0.017	-0.193
-534.135	-123.485	0.275	0.044
-533.121	-73.604	0.156	0.057
-532.106	-175.597	-0.104	-0.003
-531.091	-89.952	0.212	0.062
-530.077	-66.520	0.129	-0.051
-529.062	165.466	-0.061	-0.086
-528.048	-72.438	0.324	-0.120
-527.033	55.440	0.106	0.102
-526.018	272.359	-0.160	0.282
-525.004	-173.622	-0.141	0.004
-523.989	-131.258	0.173	0.023
-522.975	-200.000	0.000	0.185
-521.960	-200.000	-0.015	-0.226
-520.945	-106.286	0.226	-0.051
-519.931	-42.690	-0.215	-0.110
-518.916	604.506	0.069	0.173
-517.902	540.207	-0.095	0.227
-516.887	800.000	0.073	0.241
-515.872	800.000	0.027	0.106
-514.858	-196.585	-0.123	-0.001
-513.843	-98.030	0.194	-0.050
-512.829	-88.312	-0.256	-0.077
-511.814	-41.442	0.053	0.027
-510.799	-81.485	-0.159	-0.052
-509.785	-43.702	0.243	0.122
-508.770	-126.291	0.062	-0.009
-507.756	-130.662	0.364	0.049
-506.741	-96.255	0.305	-0.081
-505.726	-93.248	0.162	-0.045
-504.712	181.471	0.384	-0.564
-503.697	-97.538	-0.263	-0.068
-502.683	-43.707	0.463	0.233
-501.668	62.364	0.303	0.302
-500.653	237.844	0.063	-0.105
-499.639	-44.020	0.406	0.204
-498.624	-31.339	0.502	0.282
-497.610	14.324	-0.056	0.044
-496.595	27.455	0.054	0.045
-495.581	384.920	0.060	0.123
-494.566	176.579	0.265	-0.384
-493.551	182.120	-0.265	0.390
-492.537	-102.950	-0.084	0.020
-491.522	-78.323	0.195	0.067
-490.508	-200.000	-0.016	0.092
-489.493	-165.883	0.218	0.009
-488.478	164.092	0.156	0.219
-487.464	-52.859	-0.207	-0.095
-486.449	5.790	0.085	0.063
-485.435	16.931	-0.230	-0.182
-484.420	188.869	0.004	-0.006
-483.405	30.923	0.136	-0.116
-482.391	233.043	0.041	0.067
-481.376	-24.757	0.080	0.048
-480.362	-200.000	-0.037	0.315
-479.347	133.972	-0.085	-0.110
-478.332	362.350	-0.193	-0.387
-477.318	128.303	-0.180	-0.229
-476.303	374.663	0.058	0.118
-475.289	193.532	-0.102	-0.155
-474.274	493.016	0.018	0.040
-473.259	-18.152	0.354	0.221
-472.245	367.976	-0.025	-0.051
-471.230	185.484	-0.083	0.123
-470.216	-90.698	-0.097	0.028
-469.201	-180.833	-0.242	-0.005
-468.186	800.000	-0.059	0.163
-467.172	-86.146	-0.245	-0.076
-466.157	-111.425	0.211	-0.043
-465.143	-71.046	-0.047	-0.018
-464.128	146.666	0.086	-0.116
-463.113	-118.065	0.143	0.026
-462.099	-97.132	-0.047	0.012
-461.084	800.000	-0.044	-0.186
-460.070	602.883	0.094	0.233
-459.055	-200.000	0.054	-0.343
-458.040	197.218	-0.096	-0.146
-457.026	-9.189	0.157	-0.104
-456.011	-200.000	-0.031	0.200
-454.997	-200.000	0.000	0.078
-453.982	-200.000	0.069	-0.370
-452.968	239.058	0.076	-0.126
-451.953	95.218	-0.131	0.149
-450.938	-103.560	0.137	-0.032
-449.924	-145.058	0.205	-0.019
-448.909	-200.000	0.031	-0.187
-447.895	-80.539	0.218	-0.072
-446.880	-42.320	0.142	0.072
-445.865	-200.000	-0.012	-0.105
-444.851	2.079	0.231	0.167
-443.836	234.234	-0.129	0.213
-442.822	800.000	-0.083	0.316
-441.807	800.000	0.049	0.169
-440.792	260.637	-0.152	-0.262
-439.778	-117.502	-0.224	0.040
-438.763	-200.000	-0.039	-0.204
-437.749	-50.385	0.074	0.035
-436.734	-9.108	0.248	-0.166
-435.719	-60.317	-0.306	0.130
-434.705	124.142	-0.216	-0.270
-433.690	662.621	-0.055	-0.142
-432.676	-200.000	-0.024	0.266
-431.661	141.648	0.114	0.150
-430.646	-96.272	0.173	-0.046
-429.632	-200.000	-0.032	-0.202
-428.617	46.831	-0.137	-0.127
-427.603	800.000	-0.081	-0.298
-426.588	185.051	0.144	-0.213
-425.573	464.162	0.091	0.202
-424.559	-200.000	-0.004	0.085
-423.544	9.161	-0.229	0.173
-422.530	-4.489	-0.130	-0.089
-421.515	-200.000	-0.034	-0.197
-420.500	165.161	-0.040	-0.057
-419.486	70.682	-0.258	0.266
-418.471	800.000	-0.029	0.088
-417.457	-43.675	0.247	-0.124
-416.442	84.298	0.118	0.128
-415.428	680.502	0.069	0.179
-414.413	800.000	-0.107	-0.310
-413.398	109.701	-0.190	-0.226
-412.384	-26.744	0.094	0.055
-411.369	-200.000	-0.017	0.196
-410.355	23.663	-0.298	-0.244
-409.340	-75.590	0.085	-0.030
-408.325	-7.156	0.090	0.061
-407.311	-200.000	0.039	-0.177
-406.296	557.015	0.092	-0.220
-405.282	64.565	-0.192	-0.193
-404.267	55.871	-0.144	-0.139
-403.252	-27.975	-0.291	-0.168
-402.238	-23.553	-0.264	-0.158
-401.223	86.555	0.125	0.137
-400.209	-79.289	-0.146	-0.049
-399.194	13.409	0.051	0.040
-398.179	-34.119	0.272	-0.149
-397.165	800.000	0.062	0.178
-396.150	33.800	-0.054	-0.046
-395.136	-15.887	-0.251	0.159
-394.121	-6.408	-0.061	0.042
-393.106	650.797	-0.044	-0.113
-392.092	56.137	0.287	0.277
-391.077	9.055	-0.314	0.236
-390.063	21.760	0.239	0.194
-389.048	-41.053	0.216	0.111
-388.033	-200.000	0.003	0.155
-387.019	-200.000	0.024	0.184
-386.004	2.512	0.221	0.159
-384.990	12.101	0.068	0.052
-383.975	-72.207	0.203	-0.075
-382.960	172.273	0.280	-0.401
-381.946	327.923	0.024	0.047
-380.931	-143.032	-0.221	-0.021
-379.917	-200.000	-0.020	-0.104
-378.902	-164.507	-0.119	0.005
-377.888	-62.563	0.361	-0.149
-376.873	-200.000	-0.008	0.060
-375.858	-200.000	0.050	-0.327
-374.844	-200.000	-0.015	0.111
-373.829	-200.000	0.017	-0.176
-372.815	71.411	-0.193	-0.199
-371.800	30.270	0.084	-0.071
-370.785	-23.689	-0.331	-0.197
-369.771	12.129	-0.152	-0.116
-368.756	-138.082	-0.296	0.033
-367.742	-190.606	-0.404	-0.004
-366.727	368.937	-0.025	-0.051
-365.712	2.449	0.113	0.081
-364.698	94.558	-0.226	0.255
-363.683	130.001	0.030	-0.039
-362.669	158.978	0.206	0.284
-361.654	25.372	-0.224	0.185
-360.639	-200.000	0.012	-0.211
-359.625	216.556	0.146	0.232
-358.610	-24.482	-0.204	0.121
-357.596	-113.911	0.249	0.048
-356.581	-169.183	-0.232	-0.009
-355.566	102.973	-0.363	0.422
-354.552	-152.605	0.191	0.014
-353.537	-158.498	0.362	-0.021
-352.523	152.813	-0.112	0.152
-351.508	26.038	-0.085	-0.071
-350.493	-135.439	0.269	-0.032
-349.479	800.000	0.029	-0.106
-348.464	800.000	0.095	0.372
-347.450	6.734	0.192	-0.142
-346.435	144.318	-0.097	-0.128
-345.420	258.720	0.122	0.208
-344.406	-77.621	-0.134	-0.046
-343.391	-200.000	-0.025	0.424
-342.377	800.000	0.050	-0.176
-341.362	528.894	-0.085	0.199
-340.348	43.311	-0.183	0.166
-339.333	-193.981	0.145	-0.001
-338.318	100.211	0.071	0.081
-337.304	800.000	0.121	-0.370
-336.289	8.846	0.092	-0.069
-335.275	105.695	-0.198	0.233
-334.260	-98.425	0.233	-0.059
-333.245	800.000	-0.103	0.306
-332.231	330.807	-0.117	-0.225
-331.216	-200.000	-0.023	-0.202
-330.202	-31.866	-0.131	0.073
-329.187	216.266	-0.161	-0.255
-328.172	-99.791	0.289	-0.072
-327.158	-200.000	0.013	0.130
-326.143	-200.000	-0.036	0.234
-325.129	-200.000	-0.006	-0.060
-324.114	-200.000	-0.198	0.001
-323.099	800.000	-0.023	-0.064
-322.085	3.692	-0.160	-0.116
-321.070	298.761	-0.077	0.140
-320.056	-200.000	0.070	-0.377
-319.041	308.650	-0.105	0.194
-318.026	36.246	-0.244	-0.213
-317.012	82.959	0.100	0.108
-315.997	358.545	-0.035	0.069
-314.983	429.276	-0.150	-0.321
-313.968	299.709	0.024	-0.044
-312.953	-140.685	0.142	-0.015
-311.939	-43.371	0.237	0.119
-310.924	-106.744	-0.291	0.064
-309.910	-61.166	0.032	-0.013
-308.895	50.128	-0.214	0.200
-307.880	-94.221	-0.287	0.078
-306.866	195.216	-0.121	0.182
-305.851	800.000	0.062	-0.205
-304.837	-200.000	0.021	0.339
-303.822	-123.279	-0.083	0.013
-302.807	-52.031	-0.133	-0.061
-301.793	-127.215	0.473	0.069
-300.778	-48.331	0.210	-0.100
-299.764	27.550	0.083	-0.069
-298.749	-38.696	-0.113	-0.059
-297.735	-171.716	0.439	0.014
-296.720	390.402	-0.045	-0.092
-295.705	-200.000	-0.035	-0.268
-294.691	-112.827	-0.275	-0.054
-293.676	-15.019	-0.250	-0.159
-292.662	-200.000	-0.046	0.317
-291.647	-137.920	-0.042	0.005
-290.632	-200.000	-0.057	-0.399
-289.618	-99.165	-0.213	0.053
-288.603	-121.480	0.339	-0.056
-287.589	-116.231	-0.289	-0.053
-286.574	-76.309	0.333	-0.116
-285.559	14.423	-0.372	-0.288
-284.545	49.570	-0.161	0.150
-283.530	15.423	0.253	0.197
-282.516	-72.605	0.148	-0.054
-281.501	-146.672	0.122	-0.010
-280.486	645.836	0.067	-0.169
-279.472	52.976	0.076	0.072
-278.457	-87.650	0.242	-0.072
-277.443	247.820	0.063	-0.106
-276.428	-180.011	0.352	-0.007
-275.413	629.128	0.073	0.184
-274.399	76.673	0.148	-0.156
-273.384	-100.713	-0.116	0.028
-272.370	318.447	0.111	-0.208
-271.355	800.000	-0.030	0.083
-270.340	-93.358	-0.342	0.094
-269.326	-81.128	0.238	-0.078
-268.311	-97.220	0.303	0.078
-267.297	392.804	0.148	-0.304
-266.282	-72.225	0.014	0.005
-265.267	30.092	-0.125	-0.106
-264.253	50.224	0.138	0.130
-263.238	-200.000	0.001	-0.143
-262.224	-200.000	0.005	-0.177
-261.209	-200.000	0.031	0.380
-260.195	501.315	0.105	-0.239
-259.180	212.674	-0.231	-0.361
-258.165	-200.000	0.000	0.082
-257.151	116.230	0.076	0.092
-256.136	-48.922	0.094	0.045
-255.122	800.000	0.046	-0.140
-254.107	160.818	-0.165	-0.228
-253.092	-112.189	-0.279	-0.055
-252.078	317.593	-0.108	0.202
-251.063	28.497	-0.239	-0.200
-250.049	-134.327	-0.263	-0.032
-249.034	565.813	-0.064	-0.153
-248.019	-33.729	-0.342	-0.187
-247.005	-20.844	0.133	-0.081
-245.990	800.000	-0.069	0.295
-244.976	432.265	0.041	0.088
-243.961	313.098	-0.129	0.240
-242.946	21.254	-0.084	0.068
-241.932	15.684	0.166	-0.129
-240.917	-125.668	0.205	-0.031
-239.903	-167.266	-0.275	0.011
-238.888	440.733	0.098	-0.211
-237.873	-5.541	-0.091	0.062
-236.859	-159.161	0.145	0.008
-235.844	-141.841	-0.192	-0.019
-234.830	117.788	-0.182	-0.221
-233.815	36.711	-0.214	-0.187
-232.800	800.000	-0.083	0.241
-231.786	-60.068	0.323	-0.136
-230.771	80.064	0.048	-0.051
-229.757	-82.055	0.185	-0.060
-228.742	49.794	-0.182	-0.169
-227.727	800.000	-0.070	0.222
-226.713	800.000	-0.086	0.246
-225.698	118.624	-0.129	0.157
-224.684	35.593	-0.141	0.123
-223.669	-200.000	0.014	0.309
-222.655	-157.165	-0.169	-0.010
-221.640	43.423	0.082	-0.074
-220.625	30.743	-0.208	-0.176
-219.611	426.528	-0.087	0.186
-218.596	-23.445	0.402	-0.238
-217.582	-200.000	-0.047	-0.337
-216.567	-200.000	0.044	0.194
-215.552	657.291	-0.091	-0.232
-214.538	-87.629	0.324	0.097
-213.523	800.000	-0.047	-0.194
-212.509	125.636	0.139	-0.173
-211.494	-59.259	0.361	0.154
-210.479	-200.000	0.021	0.241
-209.465	-200.000	0.068	0.298
-208.450	357.784	0.067	0.132
-207.436	-70.208	0.060	0.023
-206.421	-96.342	0.173	0.045
-205.406	-68.575	0.188	0.072
-204.392	-58.632	0.287	-0.123
-203.377	-200.000	0.014	0.195
-202.363	-200.000	0.020	-0.263
-201.348	93.080	-0.211	0.235
-200.333	-146.623	-0.115	-0.010
-199.319	-200.000	-0.004	0.023
-198.304	-106.567	-0.188	0.041
-197.290	-186.685	0.202	0.003
-196.275	92.563	0.084	-0.093
-195.260	243.088	-0.073	0.121
-194.246	-200.000	-0.033	0.221
-193.231	-200.000	-0.025	0.131
-192.217	-200.000	-0.002	0.473
-191.202	800.000	-0.077	0.291
-190.187	-16.581	-0.193	-0.120
-189.173	241.761	-0.164	0.270
-188.158	110.801	0.126	0.149
-187.144	-81.039	-0.319	-0.104
-186.129	800.000	-0.041	0.133
-185.114	12.148	-0.442	-0.335
-184.100	31.891	-0.148	-0.126
-183.085	47.971	0.090	-0.083
-182.071	-62.984	0.108	-0.044
-181.056	744.153	-0.078	0.207
-180.042	-153.451	0.072	0.005
-179.027	-32.050	0.229	-0.126
-178.012	1.180	-0.340	0.241
-176.998	70.113	0.132	-0.135
-175.983	-200.000	0.006	-0.214
-174.969	-101.959	0.196	-0.047
-173.954	-74.723	-0.134	0.047
-172.939	800.000	-0.138	-0.426
-171.925	-12.500	0.170	-0.109
-170.910	146.854	-0.093	0.123
-169.896	81.585	-0.112	0.119
-168.881	98.024	-0.161	0.182
-167.866	800.000	0.041	0.160
-166.852	-200.000	0.083	-0.448
-165.837	492.260	-0.128	0.289
-164.823	418.065	-0.126	0.266
-163.808	16.064	-0.263	0.204
-162.793	300.529	0.120	0.218
-161.779	-108.486	0.281	-0.060
-160.764	-20.348	-0.180	-0.109
-159.750	-143.968	-0.495	-0.046
-158.735	-62.437	0.154	0.063
-157.720	-185.846	0.206	0.003
-156.706	800.000	0.084	-0.310
-155.691	-200.000	0.045	0.272
-154.677	255.251	0.160	-0.270
-153.662	243.825	-0.063	0.105
-152.647	117.330	-0.080	0.097
-151.633	-95.712	-0.253	-0.067
-150.618	478.687	-0.070	-0.157
-149.604	-200.000	-0.100	0.489
-148.589	-111.239	0.180	0.036
-147.574	800.000	0.061	0.209
-146.560	-200.000	-0.015	-0.175
-145.545	-200.000	-0.033	0.234
-144.531	-200.000	0.001	-0.097
-143.516	-34.198	-0.204	-0.110
-142.502	-47.957	-0.263	-0.125
-141.487	-132.873	0.323	0.041
-140.472	52.632	-0.365	0.344
-139.458	-200.000	0.000	0.023
-138.443	-200.000	-0.007	0.178
-137.429	148.666	0.222	0.295
-136.414	-126.448	-0.141	-0.021
-135.399	-1.948	0.115	-0.080
-134.385	-200.000	0.011	0.064
-133.370	-200.000	-0.025	0.114
-132.356	-154.761	0.443	0.029
-131.341	-200.000	0.013	0.254
-130.326	59.236	-0.032	-0.031
-129.312	-129.228	-0.049	0.007
-128.297	79.439	-0.138	0.146
-127.283	77.979	0.025	-0.026
-126.268	800.000	-0.071	-0.305
-125.253	-61.313	0.394	0.163
-124.239	37.166	0.172	-0.150
-123.224	800.000	0.018	0.063
-122.210	155.532	0.112	0.152
-121.195	-158.051	0.235	-0.014
-120.180	232.988	-0.097	-0.157
-119.166	-35.667	-0.161	-0.086
-118.151	400.927	0.065	-0.135
-117.137	-80.982	0.143	0.047
-116.122	-62.553	0.326	-0.133
-115.107	-35.030	-0.042	0.023
-114.093	800.000	0.150	-0.482
-113.078	-200.000	0.008	-0.073
-112.064	800.000	0.116	-0.330
-111.049	-165.725	0.121	-0.005
-110.034	-200.000	-0.021	0.227
-109.020	-158.386	0.154	0.009
-108.005	-200.000	-0.011	0.058
-106.991	-17.384	0.089	0.055
-105.976	-13.033	-0.098	-0.063
-104.962	791.822	0.041	0.110
-103.947	180.140	-0.079	0.113
-102.932	41.735	0.034	0.030
-101.918	123.409	-0.260	0.320
-100.903	-2.528	0.123	-0.085
-99.889	-22.219	0.120	0.072
-98.874	800.000	0.059	-0.175
-97.859	75.974	0.174	0.181
-96.845	-138.960	0.240	-0.026
-95.830	-82.212	0.313	-0.100
-94.816	-71.950	0.390	-0.143
-93.801	800.000	-0.050	0.165
-92.786	90.528	0.182	0.201
-91.772	-169.457	0.177	0.006
-90.757	293.789	-0.131	-0.235
-89.743	140.912	0.119	-0.155
-88.728	-105.901	-0.095	0.021
-87.713	87.457	-0.049	0.054
-86.699	-200.000	-0.008	0.052
-85.684	-92.536	0.171	0.047
-84.670	-80.371	0.119	0.039
-83.655	86.407	0.152	-0.165
-82.640	270.363	0.035	0.061
-81.626	-38.942	0.020	-0.010
-80.611	250.163	-0.097	0.162
-79.597	566.178	0.140	0.335
-78.582	593.877	0.053	-0.128
-77.567	217.894	-0.070	0.110
-76.553	-200.000	0.026	0.115
-75.538	457.679	-0.064	-0.139
-74.524	-52.157	0.219	0.100
-73.509	-27.575	-0.129	0.074
-72.494	293.207	-0.139	0.249
-71.480	800.000	-0.103	0.342
-70.465	-200.000	0.025	0.145
-69.451	-137.201	0.106	-0.012
-68.436	-83.151	0.127	-0.040
-67.422	-84.627	-0.289	0.090
-66.407	307.710	0.100	0.183
-65.392	-200.000	-0.037	-0.258
-64.378	800.000	0.007	0.020
-63.363	-200.000	-0.062	0.422
-62.349	800.000	0.010	0.039
-61.334	99.123	-0.905	-1.028
-60.319	164.422	0.389	0.538
-59.305	769.298	-0.333	-0.890
-58.290	369.577	0.589	1.172
-57.276	332.469	0.833	1.579
-56.261	-200.000	94.734	571.667
-55.246	519.406	1404.782	3231.909
-54.232	153.289	2611.745	3510.067
-53.217	105.232	2325.553	2695.938
-52.203	41.140	1945.082	1725.676
-51.188	34.961	1731.542	1488.283
-50.173	32.202	1688.139	1429.957
-49.159	50.077	1733.292	1606.202
-48.144	51.161	1749.755	1629.732
-47.130	34.488	1711.837	1467.476
-46.115	31.811	1697.292	1434.494
-45.100	31.636	1692.614	1429.146
-44.086	31.589	1689.786	1426.342
-43.071	31.589	1686.858	1423.813
-42.057	31.581	1684.509	1421.718
-41.042	31.494	1682.540	1419.336
-40.027	31.601	1680.758	1418.591
-39.013	31.473	1679.130	1416.188
-37.998	31.451	1677.240	1414.371
-36.984	31.473	1676.169	1413.580
-35.969	31.606	1674.793	1413.364
-34.954	31.664	1673.025	1412.259
-33.940	31.653	1671.208	1410.583
-32.925	31.521	1669.481	1408.080
-31.911	31.553	1668.253	1407.224
-30.896	31.639	1666.023	1405.933
-29.881	31.554	1664.111	1403.625
-28.867	31.567	1662.513	1402.321
-27.852	31.640	1660.851	1401.413
-26.838	31.605	1659.425	1399.891
-25.823	31.625	1657.771	1398.588
-24.809	31.664	1656.470	1397.726
-23.794	31.608	1655.099	1396.097
-22.779	31.680	1653.758	1395.447
-21.765	31.523	1652.431	1393.105
-20.750	31.594	1650.735	1392.144
-19.736	31.629	1649.417	1391.237
-18.721	31.661	1647.569	1389.866
-17.706	31.615	1645.996	1388.137
-16.692	31.668	1644.410	1387.141
-15.677	31.589	1643.474	1385.711
-14.663	31.742	1641.337	1384.988
-13.648	31.668	1640.497	1383.672
-12.633	31.546	1639.435	1381.821
-11.619	31.684	1637.137	1380.845
-10.604	31.615	1635.976	1379.303
-9.590	31.648	1634.433	1378.193
-8.575	31.719	1633.110	1377.547
-7.560	31.727	1631.173	1375.914
-6.546	31.630	1630.800	1374.831
-5.531	31.738	1629.325	1374.325
-4.517	31.698	1628.285	1373.105
-3.502	31.650	1626.937	1371.563
-2.487	31.713	1625.325	1370.605
-1.473	31.546	1613.457	1359.334
-0.458	28.825	1593.977	1323.302
0.556	23.565	1594.227	1288.784
1.571	20.874	1618.449	1288.380
2.586	20.025	1631.018	1291.941
3.600	17.938	1577.830	1234.624
4.615	10.087	1465.133	1093.433
5.629	2.198	1398.319	992.391
6.644	0.576	1389.873	975.833
7.659	0.523	1388.536	974.470
8.673	0.489	1387.120	973.166
9.688	0.362	1385.617	971.211
10.702	0.215	1382.264	967.826
11.717	3.805	1387.998	994.896
12.731	12.005	1400.911	1057.148
13.746	16.897	1407.515	1093.667
14.761	17.163	1406.700	1094.652
15.775	16.492	1404.084	1088.203
16.790	15.498	1401.898	1080.026
17.804	14.657	1399.670	1072.811
18.819	14.235	1398.239	1068.909
19.834	13.915	1396.617	1065.517
20.848	13.815	1395.316	1063.794
21.863	13.494	1394.172	1060.768
22.877	13.275	1392.883	1058.295
23.892	13.332	1391.902	1057.817
24.907	13.218	1391.140	1056.418
25.921	13.244	1390.416	1055.941
26.936	13.287	1389.339	1055.307
27.950	13.336	1388.202	1054.660
28.965	13.390	1387.340	1054.255
29.980	13.505	1386.330	1054.128
30.994	13.523	1385.726	1053.689
32.009	13.478	1384.797	1052.604
33.023	13.505	1383.472	1051.672
34.038	13.427	1382.394	1050.267
35.053	13.434	1381.080	1049.219
36.067	13.479	1380.072	1048.644
37.082	13.426	1379.008	1047.409
38.096	13.437	1377.927	1046.567
39.111	13.394	1377.521	1045.894
40.126	13.398	1376.406	1044.980
41.140	13.414	1375.622	1044.395
42.155	13.329	1374.943	1043.249
43.169	13.288	1375.195	1043.087
44.184	13.229	1375.034	1042.502
45.199	13.244	1374.391	1042.019
46.213	13.326	1373.719	1041.931
47.228	13.323	1373.105	1041.353
48.242	13.476	1371.480	1040.990
49.257	13.323	1369.774	1038.648
50.271	13.407	1368.138	1037.836
51.286	13.342	1367.570	1036.907
52.301	13.458	1366.012	1036.361
53.315	13.368	1365.087	1035.005
54.330	13.318	1364.061	1033.823
55.344	13.388	1361.975	1032.590
56.359	13.356	1361.588	1032.001
57.374	13.344	1360.699	1031.167
58.388	13.268	1359.742	1029.877
59.403	13.263	1359.626	1029.665
60.417	13.380	1358.220	1029.238
61.432	13.269	1357.393	1027.828
62.447	13.137	1357.201	1026.772
63.461	13.242	1355.363	1025.942
64.476	13.231	1354.133	1024.850
65.490	13.181	1352.765	1023.414
66.505	13.253	1351.328	1022.681
67.520	13.388	1349.816	1022.283
68.534	13.306	1349.208	1021.227
69.549	13.204	1348.070	1019.645
70.563	13.221	1347.409	1019.159
71.578	13.133	1345.831	1017.334
72.593	13.147	1344.928	1016.646
73.607	13.101	1344.473	1015.928
74.622	13.144	1343.663	1015.489
75.636	13.096	1342.892	1014.524
76.651	13.269	1341.749	1014.634
77.666	13.287	1341.268	1014.290
78.680	13.233	1340.726	1013.462
79.695	13.121	1340.263	1012.336
80.709	13.226	1339.003	1011.937
81.724	13.201	1338.350	1011.201
82.739	13.286	1337.041	1010.639
83.753	13.297	1336.145	1009.942
84.768	13.460	1334.881	1009.889
85.782	13.409	1333.979	1008.805
86.797	13.348	1332.737	1007.410
87.812	13.243	1331.757	1005.939
88.826	13.288	1330.423	1005.115
89.841	13.347	1329.493	1004.682
90.855	13.492	1328.382	1004.631
91.870	13.407	1327.805	1003.591
92.884	13.436	1326.834	1002.945
93.899	13.452	1326.122	1002.416
94.914	13.510	1325.050	1001.869
95.928	13.465	1324.309	1000.948
96.943	13.507	1323.316	1000.362
97.957	13.496	1322.279	999.425
98.972	13.419	1321.514	998.290
99.987	13.436	1319.924	997.104
101.001	13.426	1319.896	996.937
102.016	13.372	1318.785	995.685
103.030	13.467	1317.252	995.009
104.045	13.485	1316.218	994.247
105.060	13.418	1315.224	993.006
106.074	13.293	1314.023	991.265
107.089	13.390	1312.375	990.513
108.103	13.313	1311.276	989.137
109.118	13.325	1309.868	988.057
110.133	13.293	1308.631	986.845
111.147	13.304	1307.135	985.695
112.162	13.331	1305.668	984.664
113.176	13.443	1304.633	984.464
114.191	13.354	1304.151	983.481
115.206	13.460	1302.664	982.901
116.220	13.459	1301.463	981.904
117.235	13.264	1301.165	980.436
118.249	13.442	1299.409	980.078
119.264	13.339	1298.330	978.569
120.279	13.384	1297.199	977.898
121.293	13.287	1296.229	976.504
122.308	13.357	1294.993	975.903
123.322	13.342	1293.902	974.904
124.337	13.381	1292.799	974.219
125.352	13.273	1292.208	973.048
126.366	13.256	1291.035	971.983
127.381	13.252	1289.973	971.072
128.395	13.268	1288.578	970.028
129.410	13.364	1287.663	969.815
130.424	13.361	1286.832	969.088
131.439	13.449	1285.843	968.771
132.454	13.400	1285.202	967.917
133.468	13.424	1283.781	966.902
134.483	13.347	1282.864	965.678
135.497	13.474	1282.056	965.724
136.512	13.357	1280.943	964.117
137.527	13.378	1279.392	962.985
138.541	13.492	1277.585	962.208
139.556	13.457	1276.500	961.097
140.570	13.403	1275.530	959.972
141.585	13.545	1274.547	959.970
142.600	13.500	1273.291	958.676
143.614	13.518	1271.928	957.671
144.629	13.583	1271.289	957.483
145.643	13.478	1270.167	955.941
146.658	13.441	1268.894	954.686
147.673	13.423	1267.404	953.377
148.687	13.535	1265.922	952.826
149.702	13.517	1264.546	951.600
150.716	13.366	1263.530	949.883
151.731	13.479	1262.414	949.610
152.746	13.558	1261.208	949.070
153.760	13.545	1259.762	947.824
154.775	13.471	1258.760	946.563
155.789	13.484	1257.553	945.648
156.804	13.573	1256.785	945.497
157.819	13.630	1255.792	944.989
158.833	13.696	1254.623	944.402
159.848	13.663	1253.377	943.189
160.862	13.749	1252.363	942.832
161.877	13.581	1251.272	940.976
162.892	13.518	1250.224	939.746
163.906	13.634	1249.166	939.524
164.921	13.659	1247.994	938.706
165.935	13.706	1247.598	938.591
166.950	13.660	1246.899	937.721
167.964	13.650	1245.810	936.759
168.979	13.671	1245.165	936.312
169.994	13.666	1244.837	935.954
171.008	13.724	1243.608	935.275
172.023	13.732	1243.047	934.813
173.037	13.749	1242.200	934.190
174.052	13.776	1240.911	933.291
175.067	13.769	1239.801	932.334
176.081	13.665	1239.154	931.182
177.096	13.747	1238.068	930.744
178.110	13.775	1236.801	929.862
179.125	13.769	1235.787	928.985
180.140	13.730	1234.402	927.645
181.154	13.811	1233.396	927.262
182.169	13.769	1232.522	926.286
183.183	13.864	1231.092	925.659
184.198	13.911	1229.437	924.595
185.213	13.930	1228.681	924.049
186.227	13.893	1227.849	923.134
187.242	13.943	1226.579	922.377
188.256	14.002	1225.624	921.902
189.271	13.981	1224.836	921.114
190.286	13.951	1223.680	919.996
191.300	13.941	1222.986	919.338
192.315	13.839	1222.660	918.447
193.329	13.755	1221.594	917.102
194.344	13.881	1220.955	917.236
195.359	13.833	1220.300	916.396
196.373	14.005	1219.796	916.887
197.388	13.864	1219.857	916.077
198.402	14.062	1218.910	916.373
199.417	14.059	1217.935	915.541
200.432	14.149	1216.878	915.163
201.446	14.150	1216.373	914.707
202.461	14.249	1215.229	914.309
203.475	14.187	1214.426	913.287
204.490	14.179	1213.088	912.155
205.504	14.050	1211.895	910.468
206.519	14.252	1210.457	910.413
207.534	14.143	1209.659	909.135
208.548	14.194	1208.229	908.259
209.563	14.126	1207.770	907.463
210.577	14.219	1206.679	907.072
211.592	14.187	1206.046	906.341
212.607	14.352	1204.877	906.278
213.621	14.276	1204.438	905.459
214.636	14.345	1203.091	904.739
215.650	14.398	1202.071	904.179
216.665	14.381	1201.126	903.297
217.680	14.352	1200.608	902.669
218.694	14.369	1199.773	902.052
219.709	14.351	1198.949	901.257
220.723	14.402	1197.802	900.589
221.738	14.444	1197.064	900.181
222.753	14.328	1196.584	899.116
223.767	14.431	1195.864	899.053
224.782	14.550	1194.928	898.910
225.796	14.559	1194.578	898.614
226.811	14.500	1193.817	897.646
227.826	14.594	1193.022	897.475
228.840	14.507	1192.233	896.333
229.855	14.503	1191.346	895.562
230.869	14.493	1190.595	894.867
231.884	14.416	1189.987	893.918
232.899	14.478	1188.920	893.372
233.913	14.454	1188.605	892.923
234.928	14.497	1187.431	892.198
235.942	14.433	1186.722	891.242
236.957	14.444	1185.450	890.268
237.972	14.528	1185.242	890.479
238.986	14.424	1184.839	889.544
240.001	14.515	1183.881	889.229
241.015	14.580	1182.765	888.661
242.030	14.651	1182.209	888.539
243.045	14.647	1181.513	887.920
244.059	14.646	1180.671	887.204
245.074	14.752	1179.449	886.767
246.088	14.615	1178.817	885.488
247.103	14.691	1177.765	885.020
248.117	14.647	1177.697	884.660
249.132	14.757	1176.467	884.236
250.147	14.776	1176.069	883.963
251.161	14.814	1174.682	883.044
252.176	14.862	1174.152	882.819
253.190	14.892	1173.790	882.627
254.205	14.983	1173.059	882.481
255.220	14.987	1172.451	881.963
256.234	15.003	1171.741	881.434
257.249	14.870	1171.540	880.508
258.263	14.991	1170.515	880.297
259.278	15.020	1170.042	880.013
260.293	15.095	1169.458	879.889
261.307	15.143	1168.141	879.073
262.322	15.159	1167.839	878.852
263.336	15.187	1167.141	878.396
264.351	15.132	1166.843	877.808
265.366	15.165	1165.752	877.081
266.380	15.155	1165.123	876.476
267.395	15.128	1164.514	875.800
268.409	15.180	1163.687	875.373
269.424	15.061	1163.077	874.216
270.439	15.202	1162.425	874.384
271.453	15.139	1162.020	873.672
272.468	15.140	1160.927	872.779
273.482	15.132	1159.923	871.907
274.497	15.183	1159.511	871.786
275.512	15.196	1158.920	871.329
276.526	15.049	1158.266	869.997
277.541	15.237	1157.611	870.406
278.555	15.254	1156.676	869.712
279.570	15.385	1155.850	869.693
280.585	15.310	1155.323	868.832
281.599	15.384	1154.162	868.264
282.614	15.420	1153.002	867.500
283.628	15.374	1151.678	866.193
284.643	15.323	1150.909	865.276
285.657	15.386	1150.179	864.973
286.672	15.424	1149.572	864.637
287.687	15.401	1148.540	863.663
288.701	15.532	1147.185	863.241
289.716	15.457	1146.521	862.281
290.730	15.435	1146.498	862.072
291.745	15.382	1145.645	861.087
292.760	15.485	1144.734	860.854
293.774	15.489	1144.287	860.461
294.789	15.683	1142.974	860.390
295.803	15.545	1143.185	859.764
296.818	15.650	1141.867	859.237
297.833	15.607	1141.368	858.567
298.847	15.786	1140.173	858.504
299.862	15.586	1139.922	857.217
300.876	15.589	1139.318	856.704
301.891	15.636	1138.438	856.207
302.906	15.597	1137.771	855.430
303.920	15.630	1137.175	855.075
304.935	15.702	1136.601	854.930
305.949	15.696	1135.576	854.055
306.964	15.851	1135.082	854.396
307.979	15.771	1133.943	853.058
308.993	15.743	1133.695	852.651
310.008	15.792	1132.618	852.013
311.022	15.870	1131.803	851.722
312.037	15.856	1131.225	851.141
313.052	15.906	1130.333	850.647
314.066	15.842	1128.954	849.210
315.081	15.884	1128.283	848.840
316.095	15.781	1127.679	847.792
317.110	15.802	1126.798	847.161
318.125	15.915	1126.142	847.162
319.139	15.782	1125.620	846.023
320.154	15.932	1124.807	846.092
321.168	15.832	1124.310	845.144
322.183	15.794	1123.902	844.572
323.197	15.817	1123.040	843.962
324.212	15.945	1122.472	844.103
325.227	15.955	1121.829	843.597
326.241	15.924	1121.007	842.746
327.256	15.839	1120.435	841.817
328.270	15.880	1119.411	841.177
329.285	15.790	1118.446	839.931
330.300	15.947	1117.132	839.652
331.314	15.931	1116.701	839.176
332.329	15.931	1115.769	838.398
333.343	15.930	1114.640	837.471
334.358	16.055	1113.814	837.397
335.373	16.072	1113.423	837.115
336.387	16.036	1112.654	836.285
337.402	16.125	1111.673	835.914
338.416	16.247	1110.755	835.755
339.431	16.129	1110.712	835.064
340.446	16.181	1110.109	834.790
341.460	16.143	1109.296	833.920
342.475	16.305	1108.335	833.925
343.489	16.290	1106.968	832.745
344.504	16.250	1106.629	832.219
345.519	16.309	1105.483	831.578
346.533	16.302	1104.557	830.770
347.548	16.480	1103.742	830.958
348.562	16.421	1103.374	830.317
349.577	16.361	1102.805	829.524
350.592	16.312	1101.772	828.431
351.606	16.359	1101.113	828.093
352.621	16.337	1100.236	827.254
353.635	16.307	1099.985	826.844
354.650	16.354	1098.939	826.213
355.665	16.417	1098.221	825.908
356.679	16.365	1098.068	825.466
357.694	16.420	1097.256	825.055
358.708	16.412	1096.495	824.367
359.723	16.401	1095.985	823.862
360.738	16.437	1095.341	823.477
361.752	16.343	1095.017	822.701
362.767	16.515	1093.971	822.682
363.781	16.463	1093.598	822.075
364.796	16.551	1092.903	821.907
365.810	16.525	1092.072	821.081
366.825	16.601	1091.662	821.072
367.840	16.668	1090.867	820.727
368.854	16.665	1090.676	820.493
369.869	16.675	1089.371	819.489
370.883	16.685	1088.479	818.796
371.898	16.738	1087.921	818.558
372.913	16.723	1087.533	818.120
373.927	16.620	1087.190	817.291
374.942	16.711	1086.283	816.977
375.956	16.724	1085.922	816.695
376.971	16.786	1085.157	816.346
377.986	16.850	1084.440	816.046
379.000	16.858	1084.433	816.004
380.015	16.874	1083.501	815.308
381.029	16.935	1082.918	815.094
382.044	16.880	1082.286	814.280
383.059	16.808	1081.936	813.599
384.073	16.924	1080.506	813.008
385.088	16.985	1079.615	812.559
386.102	16.956	1078.299	811.356
387.117	16.979	1077.482	810.778
388.132	16.905	1076.874	809.896
389.146	16.841	1076.453	809.204
390.161	16.940	1075.498	808.886
391.175	16.896	1074.740	808.032
392.190	17.061	1073.861	808.089
393.205	17.020	1073.139	807.275
394.219	17.078	1072.534	807.028
395.234	17.027	1071.744	806.117
396.248	17.033	1070.407	805.070
397.263	17.054	1069.383	804.329
398.278	17.004	1069.175	803.865
399.292	16.975	1068.520	803.164
400.307	16.983	1067.708	802.521
401.321	17.126	1066.683	802.351
402.336	17.121	1066.135	801.849
403.350	17.033	1065.997	801.256
404.365	17.082	1065.318	800.905
405.380	17.044	1064.334	799.919
406.394	17.169	1063.438	799.762
407.409	17.122	1063.068	799.189
408.423	17.116	1062.317	798.527
409.438	17.313	1060.940	798.346
410.453	17.430	1060.326	798.365
411.467	17.370	1059.669	797.516
412.482	17.279	1059.121	796.605
413.496	17.439	1058.431	796.766
414.511	17.389	1058.222	796.305
415.526	17.579	1057.539	796.611
416.540	17.503	1057.185	795.915
417.555	17.485	1056.370	795.147
418.569	17.462	1055.970	794.671
419.584	17.475	1055.467	794.283
420.599	17.413	1054.872	793.472
421.613	102.119	1322.071	1462.050
422.628	94.106	1360.977	1462.148
