DTS Sentinel unit serial number:	SN413079Multiplexer serial number:	ORYXHardware model number:	OX4-SRSoftware version number:	ORYX F/W v4.00 Oryx Data Collector v3.7.2.0data status	okinstallation	princeton_trtdifferential loss correction	single-endedforward channel	channel 2reverse channel	N/Adate	2019/09/17time	07:59:35forward acquisition time	60.00reverse acquisition time	0.00gamma	496.2192k internal	0.2334k external	0.2334temperature offset calibration	0.9974default loss term (dB/km)	0.3790temperature slope calibration	1.0000multiplexer offset coefficient	1.0000multiplexer slope coefficient	1.0000fibre end	0.00T internal ref (°C)	27.25T ext. ref 1 (°C)	0.12T ext. ref 2 (°C)	22.34length (m)	temperature (°C)	Stokes	anti-Stokes-747.200	337.163	0.074	0.145
-746.185	209.208	0.082	0.129
-745.171	800.000	-0.076	0.220
-744.156	-33.890	-0.445	-0.246
-743.142	-200.000	-0.001	0.106
-742.127	246.253	0.032	0.054
-741.112	515.719	0.115	0.270
-740.098	800.000	-0.033	0.096
-739.083	65.384	-0.126	-0.128
-738.069	248.279	-0.122	0.207
-737.054	800.000	-0.041	0.153
-736.039	-91.784	-0.467	0.133
-735.025	-158.808	0.106	0.006
-734.010	-79.107	-0.148	-0.050
-732.996	256.326	-0.148	-0.256
-731.981	187.685	0.143	0.215
-730.966	-58.695	-0.154	-0.067
-729.952	-89.636	-0.462	0.136
-728.937	514.846	0.113	0.264
-727.923	-13.996	-0.102	-0.066
-726.908	-118.412	0.111	0.020
-725.894	11.796	-0.112	0.086
-724.879	356.951	-0.081	-0.161
-723.864	679.843	-0.036	-0.095
-722.850	-200.000	-0.010	-0.118
-721.835	500.692	-0.088	-0.203
-720.821	-200.000	0.038	-0.304
-719.806	12.892	-0.229	-0.178
-718.791	-49.456	-0.052	0.025
-717.777	-64.547	0.201	0.082
-716.762	800.000	0.098	0.296
-715.748	175.702	0.143	0.209
-714.733	-200.000	0.012	-0.382
-713.718	10.908	0.205	-0.157
-712.704	-50.089	-0.121	-0.057
-711.689	417.090	-0.173	-0.370
-710.675	-55.277	-0.189	-0.085
-709.660	-83.740	0.426	-0.136
-708.645	-22.259	0.118	-0.072
-707.631	-121.617	-0.082	0.014
-706.616	800.000	0.050	-0.192
-705.602	-5.133	-0.076	0.053
-704.587	-200.000	-0.011	-0.234
-703.572	-65.994	-0.107	0.043
-702.558	-97.242	0.099	0.026
-701.543	-89.167	0.271	0.080
-700.529	146.223	-0.183	0.246
-699.514	233.912	-0.161	0.267
-698.499	-41.032	0.245	0.127
-697.485	-200.000	-0.062	-0.290
-696.470	-126.338	0.219	0.033
-695.456	-11.529	-0.184	-0.121
-694.441	-200.000	0.004	0.111
-693.426	-62.842	-0.128	-0.053
-692.412	219.717	-0.091	0.146
-691.397	-112.447	0.173	-0.035
-690.383	-200.000	-0.020	0.123
-689.368	508.068	-0.036	0.083
-688.354	14.524	-0.223	-0.174
-687.339	421.130	0.075	-0.162
-686.324	64.437	0.154	0.156
-685.310	8.589	0.137	0.103
-684.295	53.559	-0.262	-0.252
-683.281	103.057	0.180	0.212
-682.266	-88.221	-0.284	0.085
-681.251	-133.215	0.318	-0.040
-680.237	-88.412	0.046	0.014
-679.222	-200.000	-0.028	-0.359
-678.208	-89.705	0.270	0.079
-677.193	-200.000	0.035	-0.232
-676.178	-116.458	-0.462	-0.086
-675.164	180.129	0.063	0.092
-674.149	-128.185	0.191	0.027
-673.135	-30.469	-0.153	0.087
-672.120	-200.000	-0.043	-0.237
-671.105	-33.910	-0.276	0.152
-670.091	-132.027	0.198	-0.026
-669.076	-200.000	-0.007	-0.076
-668.062	-200.000	0.014	-0.119
-667.047	88.853	-0.366	-0.408
-666.032	44.758	-0.248	-0.229
-665.018	-116.012	0.057	-0.011
-664.003	-54.335	-0.185	0.084
-662.989	-63.660	-0.355	-0.146
-661.974	109.124	-0.098	-0.117
-660.959	-62.480	-0.085	-0.035
-659.945	-163.169	-0.129	-0.006
-658.930	-49.419	-0.186	0.089
-657.916	140.565	-0.115	-0.152
-656.901	-57.674	-0.112	-0.049
-655.886	375.474	0.091	-0.186
-654.872	318.258	-0.189	-0.359
-653.857	65.789	-0.108	0.110
-652.843	-200.000	0.001	0.033
-651.828	-160.458	-0.351	0.019
-650.814	-57.113	0.257	-0.113
-649.799	81.272	0.047	-0.051
-648.784	14.973	-0.107	-0.084
-647.770	-200.000	-0.050	-0.275
-646.755	131.194	-0.309	0.397
-645.741	-25.679	-0.134	0.079
-644.726	-200.000	-0.006	0.041
-643.711	-60.615	-0.181	-0.077
-642.697	-89.412	0.183	0.054
-641.682	66.179	-0.127	0.129
-640.668	-149.991	-0.229	0.018
-639.653	55.371	0.137	0.133
-638.638	11.002	-0.155	-0.118
-637.624	-200.000	-0.004	0.030
-636.609	-200.000	0.042	0.260
-635.595	-50.497	-0.144	0.068
-634.580	-200.000	-0.022	0.153
-633.565	-200.000	-0.034	0.188
-632.551	599.984	0.017	-0.043
-631.536	111.172	-0.080	0.097
-630.522	-200.000	-0.025	0.375
-629.507	290.920	0.054	0.099
-628.492	-158.468	0.117	-0.007
-627.478	-69.794	-0.033	0.013
-626.463	478.153	-0.116	0.264
-625.449	-61.157	0.095	0.040
-624.434	142.926	0.155	0.206
-623.419	-143.702	-0.349	-0.033
-622.405	-52.950	-0.140	-0.064
-621.390	118.180	-0.076	-0.094
-620.376	237.705	0.115	0.191
-619.361	-33.818	-0.204	0.113
-618.346	-43.306	0.211	-0.107
-617.332	800.000	-0.069	-0.216
-616.317	580.872	-0.109	0.268
-615.303	-200.000	0.071	0.449
-614.288	-200.000	0.036	-0.214
-613.273	-74.305	0.290	-0.105
-612.259	-93.801	0.036	-0.010
-611.244	-200.000	0.033	0.344
-610.230	-66.247	0.172	0.068
-609.215	-97.103	0.404	-0.106
-608.201	-200.000	0.008	0.042
-607.186	-16.954	0.415	0.262
-606.171	713.804	0.097	0.258
-605.157	707.738	-0.070	-0.185
-604.142	-177.062	0.323	-0.008
-603.128	-63.301	-0.358	-0.147
-602.113	260.879	0.108	0.188
-601.098	-130.057	0.042	0.006
-600.084	405.650	-0.075	0.158
-599.069	-129.129	0.109	0.015
-598.055	-103.494	0.085	0.020
-597.040	-200.000	0.050	-0.255
-596.025	-91.705	0.569	-0.162
-595.011	-36.569	0.166	0.089
-593.996	266.339	-0.078	0.135
-592.982	800.000	0.029	-0.085
-591.967	472.810	-0.091	-0.205
-590.952	-200.000	0.000	0.300
-589.938	-93.191	-0.174	-0.048
-588.923	800.000	0.094	-0.305
-587.909	508.912	0.121	-0.280
-586.894	27.189	0.065	0.054
-585.879	-200.000	-0.056	-0.288
-584.865	26.898	0.086	-0.072
-583.850	-158.417	0.116	0.007
-582.836	203.492	-0.077	0.119
-581.821	-200.000	0.033	-0.169
-580.806	-16.487	0.260	-0.165
-579.792	-200.000	0.006	-0.298
-578.777	-56.586	-0.097	0.043
-577.763	512.384	0.105	0.244
-576.748	-138.038	-0.128	0.014
-575.733	234.866	0.165	0.271
-574.719	800.000	0.092	0.303
-573.704	-41.470	-0.157	0.080
-572.690	-68.309	0.121	-0.047
-571.675	680.379	-0.036	-0.092
-570.661	-51.684	-0.238	0.111
-569.646	800.000	-0.067	0.200
-568.631	107.843	0.222	-0.264
-567.617	-124.871	-0.450	0.069
-566.602	-200.000	-0.019	0.203
-565.588	87.606	-0.197	0.217
-564.573	-85.911	-0.113	-0.035
-563.558	-14.631	0.413	-0.265
-562.544	-139.955	-0.206	-0.022
-561.529	-79.873	-0.083	-0.028
-560.515	-118.768	-0.278	0.049
-559.500	-149.261	-0.152	0.012
-558.485	-200.000	-0.023	0.282
-557.471	800.000	0.036	-0.153
-556.456	-118.717	0.388	0.068
-555.442	-200.000	0.076	-0.332
-554.427	56.954	0.038	-0.036
-553.412	119.572	-0.095	-0.118
-552.398	-88.443	-0.133	-0.040
-551.383	112.114	0.055	0.066
-550.369	-26.439	-0.257	0.150
-549.354	400.282	0.200	0.419
-548.339	24.502	0.033	-0.027
-547.325	-200.000	0.054	-0.412
-546.310	332.672	-0.066	0.128
-545.296	278.456	0.107	0.189
-544.281	-200.000	-0.031	0.157
-543.266	43.206	0.176	-0.161
-542.252	442.144	-0.054	-0.117
-541.237	-200.000	-0.025	-0.403
-540.223	153.318	0.082	0.113
-539.208	-120.056	-0.359	-0.061
-538.193	-200.000	0.047	-0.212
-537.179	-49.927	-0.058	0.027
-536.164	-157.244	-0.194	0.012
-535.150	-17.753	-0.268	-0.168
-534.135	-130.951	-0.167	-0.022
-533.121	-145.725	-0.168	0.015
-532.106	-140.492	0.099	-0.010
-531.091	17.458	0.249	-0.197
-530.077	-5.528	0.114	0.078
-529.062	48.994	-0.339	0.317
-528.048	-154.244	-0.282	-0.019
-527.033	-134.721	0.287	0.035
-526.018	-89.251	0.181	-0.053
-525.004	-151.793	0.323	-0.024
-523.989	-96.622	0.262	-0.069
-522.975	-9.484	-0.120	0.080
-521.960	72.025	-0.233	0.242
-520.945	230.864	-0.108	0.177
-519.931	-103.425	-0.085	0.020
-518.916	-15.437	-0.159	-0.101
-517.902	296.597	0.113	-0.207
-516.887	59.880	0.116	0.114
-515.872	-200.000	-0.013	-0.336
-514.858	440.260	0.029	-0.062
-513.843	-121.756	0.090	0.015
-512.829	-22.536	-0.184	-0.111
-511.814	156.030	-0.198	0.272
-510.799	-200.000	-0.032	0.219
-509.785	146.364	0.058	0.078
-508.770	28.865	-0.307	0.259
-507.756	-6.648	-0.374	-0.253
-506.741	-107.676	0.178	0.039
-505.726	-128.907	-0.231	-0.032
-504.712	94.685	-0.159	-0.180
-503.697	-28.101	-0.403	-0.232
-502.683	77.143	-0.027	0.029
-501.668	-84.430	-0.127	0.040
-500.653	-163.713	-0.204	0.010
-499.639	-200.000	0.020	-0.116
-498.624	516.204	-0.081	0.189
-497.610	-110.885	0.420	0.086
-496.595	353.827	0.151	-0.299
-495.581	-109.793	0.056	-0.012
-494.566	800.000	-0.084	-0.297
-493.551	-36.823	0.412	-0.220
-492.537	-87.716	-0.266	-0.080
-491.522	-109.040	0.179	0.038
-490.508	101.639	0.192	-0.223
-489.493	79.914	-0.242	-0.258
-488.478	-110.494	-0.251	-0.052
-487.464	800.000	0.083	0.281
-486.449	-101.901	0.233	-0.056
-485.435	101.674	0.087	0.101
-484.420	498.788	0.086	0.198
-483.405	800.000	0.049	0.201
-482.391	307.952	0.080	0.149
-481.376	-200.000	0.027	0.208
-480.362	-126.917	0.275	-0.040
-479.347	-200.000	0.035	0.296
-478.332	-125.360	0.072	0.011
-477.318	-200.000	-0.065	0.285
-476.303	-200.000	-0.028	0.128
-475.289	-198.294	0.156	-0.001
-474.274	28.896	0.281	0.237
-473.259	-200.000	-0.017	-0.148
-472.245	800.000	-0.094	-0.407
-471.230	-104.161	0.381	0.088
-470.216	800.000	-0.068	-0.193
-469.201	17.721	-0.420	-0.332
-468.186	-112.610	-0.278	-0.055
-467.172	732.329	-0.135	-0.359
-466.157	783.089	-0.043	-0.118
-465.143	-19.422	0.303	-0.187
-464.128	-139.526	0.242	-0.026
-463.113	75.718	0.129	0.136
-462.099	-162.806	-0.164	-0.008
-461.084	194.698	-0.123	-0.185
-460.070	204.991	0.143	-0.221
-459.055	-200.000	0.013	-0.406
-458.040	-113.650	0.450	-0.087
-457.026	52.705	-0.044	-0.042
-456.011	800.000	-0.080	-0.258
-454.997	97.028	0.060	0.069
-453.982	341.943	0.096	-0.187
-452.968	35.983	-0.040	0.035
-451.953	311.524	0.077	-0.143
-450.938	118.102	0.081	-0.099
-449.924	-69.840	-0.307	-0.116
-448.909	-200.000	-0.044	-0.438
-447.895	-63.293	-0.219	0.089
-446.880	-200.000	0.014	0.115
-445.865	-200.000	-0.047	-0.244
-444.851	800.000	0.085	-0.300
-443.836	-182.401	-0.424	-0.008
-442.822	61.760	0.207	0.205
-441.807	-29.519	-0.203	0.115
-440.792	72.097	-0.140	0.145
-439.778	8.841	-0.087	-0.065
-438.763	-102.231	-0.192	-0.046
-437.749	-176.791	0.649	0.016
-436.734	-18.085	0.066	0.041
-435.719	37.940	0.121	-0.107
-434.705	-46.169	-0.311	-0.152
-433.690	-200.000	-0.006	0.065
-432.676	48.807	-0.071	0.067
-431.661	-200.000	0.012	0.163
-430.646	800.000	0.050	0.215
-429.632	147.557	-0.085	0.114
-428.617	-65.225	-0.326	0.130
-427.603	800.000	0.023	0.077
-426.588	800.000	0.107	0.336
-425.573	-75.024	-0.176	-0.063
-424.559	-200.000	0.036	-0.175
-423.544	303.699	-0.092	-0.169
-422.530	427.505	-0.130	0.278
-421.515	291.158	-0.212	-0.383
-420.500	-80.983	0.166	0.055
-419.486	467.444	-0.087	0.195
-418.471	-36.268	0.109	-0.059
-417.457	-200.000	-0.045	0.411
-416.442	101.011	-0.082	0.094
-415.428	95.289	-0.154	-0.174
-414.413	491.900	0.095	-0.216
-413.398	127.050	0.028	0.035
-412.384	-64.765	-0.169	-0.068
-411.369	53.393	0.160	0.152
-410.355	703.710	0.115	0.301
-409.340	207.654	-0.124	-0.192
-408.325	-200.000	-0.043	0.864
-407.311	538.430	-0.219	0.516
-406.296	-200.000	-0.006	0.040
-405.282	-15.037	0.240	0.153
-404.267	-30.784	-0.227	-0.127
-403.252	-71.468	-0.176	0.065
-402.238	-120.002	0.258	0.044
-401.223	-65.871	-0.255	0.101
-400.209	-102.803	-0.618	0.146
-399.194	-200.000	-0.068	-0.425
-398.179	-124.988	-0.202	0.031
-397.165	-49.821	-0.166	0.078
-396.150	-98.118	-0.231	0.059
-395.136	111.205	-0.119	-0.142
-394.121	-200.000	0.043	-0.426
-393.106	-6.837	-0.193	0.130
-392.092	-45.981	0.073	-0.036
-391.077	-84.710	0.339	0.106
-390.063	18.211	0.068	0.054
-389.048	800.000	-0.063	0.181
-388.033	-96.871	-0.076	0.020
-387.019	567.197	-0.044	0.105
-386.004	287.064	0.258	-0.461
-384.990	118.676	0.078	-0.095
-383.975	-20.340	-0.131	0.080
-382.960	-95.325	0.087	-0.023
-381.946	491.596	0.115	0.261
-380.931	800.000	-0.036	0.112
-379.917	13.071	0.307	-0.236
-378.902	-62.842	-0.177	0.073
-377.888	639.864	-0.044	-0.111
-376.873	-8.956	-0.163	-0.108
-375.858	-15.220	0.380	-0.241
-374.844	553.895	0.051	-0.121
-373.829	800.000	0.041	-0.151
-372.815	70.589	0.188	0.193
-371.800	96.415	-0.121	0.137
-370.785	-47.102	0.098	-0.047
-369.771	-200.000	0.002	0.177
-368.756	-137.506	0.089	0.010
-367.742	17.152	0.305	0.239
-366.727	-139.810	-0.083	0.009
-365.712	-18.425	-0.021	0.013
-364.698	-100.502	0.269	0.066
-363.683	-4.124	-0.133	0.091
-362.669	348.355	0.137	0.268
-361.654	113.746	-0.200	-0.241
-360.639	57.482	-0.364	0.352
-359.625	-200.000	0.011	0.193
-358.610	331.329	-0.049	0.094
-357.596	-41.700	-0.203	0.103
-356.581	10.589	0.132	-0.100
-355.566	-199.863	0.088	0.000
-354.552	-6.403	0.349	0.235
-353.537	800.000	-0.050	-0.167
-352.523	415.399	-0.125	0.265
-351.508	-80.904	0.080	0.026
-350.493	-200.000	-0.025	0.232
-349.479	-200.000	-0.020	0.116
-348.464	-61.672	-0.250	-0.104
-347.450	800.000	0.112	-0.309
-346.435	800.000	-0.049	-0.202
-345.420	96.470	-0.067	0.076
-344.406	290.966	0.055	-0.099
-343.391	-30.199	-0.293	-0.165
-342.377	-146.181	-0.326	0.028
-341.362	420.971	-0.098	-0.209
-340.348	162.347	0.399	0.553
-339.333	109.781	0.130	0.154
-338.318	-86.592	-0.181	-0.055
-337.304	56.713	-0.228	-0.219
-336.289	-30.007	-0.150	0.085
-335.275	-149.069	-0.121	-0.010
-334.260	222.619	-0.187	0.298
-333.245	47.263	-0.068	0.062
-332.231	20.348	0.268	0.214
-331.216	-200.000	-0.001	0.049
-330.202	738.856	-0.051	0.137
-329.187	-124.539	-0.470	-0.072
-328.172	89.641	-0.131	-0.145
-327.158	800.000	-0.018	-0.052
-326.143	-200.000	0.062	-0.271
-325.129	347.628	-0.122	0.238
-324.114	-200.000	-0.003	-0.283
-323.099	-186.166	0.052	-0.001
-322.085	670.330	-0.056	0.144
-321.070	461.859	-0.068	-0.150
-320.056	335.055	0.111	0.212
-319.041	800.000	0.069	-0.269
-318.026	13.677	-0.269	-0.207
-317.012	-142.743	-0.060	0.006
-315.997	-200.000	-0.001	0.175
-314.983	-96.294	0.353	0.092
-313.968	-200.000	0.006	-0.167
-312.953	183.549	-0.125	-0.182
-311.939	-19.518	0.252	0.154
-310.924	-140.383	0.230	0.024
-309.910	-172.830	-0.070	-0.002
-308.895	199.302	-0.199	-0.301
-307.880	-200.000	-0.002	-0.388
-306.866	800.000	0.040	0.165
-305.851	-85.882	0.048	0.015
-304.837	-64.055	-0.257	-0.104
-303.822	139.596	0.020	-0.026
-302.807	23.115	-0.256	0.208
-301.793	-200.000	0.001	-0.053
-300.778	291.790	0.145	-0.261
-299.764	-123.921	0.016	-0.002
-298.749	160.059	0.085	0.117
-297.735	290.499	-0.016	-0.029
-296.720	800.000	0.028	-0.097
-295.705	184.290	0.195	0.286
-294.691	572.804	0.172	-0.413
-293.676	57.673	-0.260	-0.251
-292.662	-176.568	0.169	0.004
-291.647	157.312	0.152	-0.207
-290.632	115.081	0.222	-0.267
-289.618	23.958	-0.151	0.123
-288.603	-200.000	0.058	-0.282
-287.589	-200.000	-0.029	0.194
-286.574	-50.638	0.074	-0.035
-285.559	-75.573	0.127	-0.045
-284.545	-89.604	-0.100	0.029
-283.530	-111.242	-0.219	0.044
-282.516	-173.445	-0.214	-0.006
-281.501	346.895	-0.143	-0.278
-280.486	-14.349	0.176	0.112
-279.472	253.038	0.030	0.050
-278.457	-115.721	0.197	-0.036
-277.443	120.229	-0.083	-0.102
-276.428	-115.554	-0.237	0.044
-275.413	431.083	0.062	0.132
-274.399	129.329	0.183	0.231
-273.384	-151.759	0.120	0.009
-272.370	-25.587	0.132	0.077
-271.355	-49.163	-0.162	-0.076
-270.340	541.500	0.095	0.224
-269.326	62.262	0.161	-0.158
-268.311	-200.000	0.028	-0.447
-267.297	185.841	0.100	0.147
-266.282	123.748	0.152	0.188
-265.267	-200.000	0.026	0.184
-264.253	96.432	0.132	0.149
-263.238	199.543	-0.154	-0.233
-262.224	-27.730	-0.235	-0.135
-261.209	-200.000	-0.014	0.206
-260.195	-200.000	-0.051	0.414
-259.180	-151.874	0.182	0.013
-258.165	-200.000	0.003	0.209
-257.151	309.669	-0.114	0.211
-256.136	553.393	0.098	-0.232
-255.122	107.299	0.098	-0.115
-254.107	-200.000	0.008	-0.168
-253.092	-126.469	0.555	-0.081
-252.078	-79.551	0.396	0.132
-251.063	-200.000	-0.026	-0.262
-250.049	131.131	-0.217	0.275
-249.034	189.799	-0.244	-0.361
-248.019	577.142	0.128	-0.310
-247.005	-115.983	0.331	-0.061
-245.990	-145.155	-0.053	0.005
-244.976	321.236	0.114	-0.214
-243.961	108.800	0.101	0.119
-242.946	25.804	-0.336	0.276
-241.932	27.659	0.216	-0.179
-240.917	-200.000	0.028	0.243
-239.903	-35.828	0.159	-0.085
-238.888	-44.069	0.339	0.168
-237.873	-120.066	0.230	-0.039
-236.859	-54.867	0.074	0.033
-235.844	-200.000	-0.053	-0.338
-234.830	6.250	0.116	-0.084
-233.815	28.553	-0.138	-0.115
-232.800	-200.000	0.018	0.264
-231.786	-200.000	0.049	0.321
-230.771	-200.000	0.029	0.242
-229.757	13.207	0.239	-0.182
-228.742	-200.000	0.023	0.151
-227.727	-105.929	-0.175	0.039
-226.713	107.431	0.151	0.177
-225.698	81.021	-0.176	0.187
-224.684	161.133	-0.046	-0.063
-223.669	-43.935	0.316	0.156
-222.655	390.866	-0.023	-0.047
-221.640	800.000	-0.087	-0.336
-220.625	645.145	0.023	-0.059
-219.611	246.261	0.037	-0.062
-218.596	-120.380	0.151	0.025
-217.582	183.422	0.103	-0.149
-216.567	-73.929	-0.129	-0.046
-215.552	410.068	0.046	0.096
-214.538	32.036	0.259	-0.220
-213.523	124.819	-0.162	0.201
-212.509	-24.670	0.098	-0.057
-211.494	-129.447	0.342	-0.047
-210.479	-80.029	0.060	0.020
-209.465	-107.684	-0.316	-0.068
-208.450	-23.441	0.320	0.189
-207.436	89.559	-0.112	-0.123
-206.421	233.145	0.141	-0.229
-205.406	-194.885	0.274	-0.002
-204.392	-105.405	-0.228	0.051
-203.377	80.935	-0.048	-0.051
-202.363	121.189	-0.113	-0.139
-201.348	61.980	0.031	-0.030
-200.333	800.000	-0.131	-0.384
-199.319	-144.803	-0.370	0.033
-198.304	35.129	0.233	-0.201
-197.290	800.000	0.049	0.143
-196.275	276.225	-0.203	-0.354
-195.260	341.704	0.066	-0.127
-194.246	386.723	0.080	0.162
-193.231	-200.000	0.024	-0.123
-192.217	68.433	-0.065	0.066
-191.202	377.715	0.054	-0.109
-190.187	-79.520	0.027	-0.009
-189.173	116.844	0.262	0.317
-188.158	87.178	0.070	-0.076
-187.144	800.000	-0.078	-0.218
-186.129	-142.283	-0.330	-0.032
-185.114	800.000	0.069	0.258
-184.100	800.000	0.029	-0.103
-183.085	-114.262	-0.454	0.086
-182.071	68.319	-0.274	0.276
-181.056	-106.027	0.447	0.099
-180.042	800.000	0.060	-0.202
-179.027	-141.456	-0.137	0.014
-178.012	-34.543	-0.163	0.088
-176.998	-200.000	0.004	0.349
-175.983	-14.049	0.113	-0.072
-174.969	63.145	0.147	-0.145
-173.954	146.539	0.183	-0.241
-172.939	-90.074	-0.433	-0.124
-171.925	-200.000	-0.003	0.045
-170.910	-82.085	0.161	-0.052
-169.896	-159.417	-0.147	-0.008
-168.881	-71.713	0.368	0.135
-167.866	597.510	-0.185	-0.450
-166.852	-107.392	0.101	0.022
-165.837	-82.620	0.220	-0.070
-164.823	-52.386	-0.386	0.175
-163.808	93.855	0.184	0.205
-162.793	800.000	0.087	-0.242
-161.779	-137.497	0.062	-0.007
-160.764	-61.053	-0.215	-0.089
-159.750	308.933	-0.268	-0.493
-158.735	-200.000	-0.036	0.218
-157.720	9.495	0.158	0.117
-156.706	-166.178	0.206	0.009
-155.691	156.955	0.089	0.121
-154.677	12.121	-0.109	0.082
-153.662	-135.593	0.191	0.022
-152.647	800.000	0.045	0.143
-151.633	-192.337	-0.104	-0.001
-150.618	800.000	0.057	0.216
-149.604	-14.734	0.155	-0.098
-148.589	44.807	0.228	0.206
-147.574	-87.653	0.462	0.137
-146.560	-5.098	0.333	0.225
-145.545	-68.621	-0.102	-0.039
-144.531	350.955	-0.056	-0.109
-143.516	-80.792	-0.138	-0.045
-142.502	-200.000	-0.042	0.284
-141.487	800.000	-0.140	-0.426
-140.472	-200.000	0.018	-0.337
-139.458	5.513	0.192	0.139
-138.443	-157.016	0.128	0.008
-137.429	-155.090	-0.266	-0.017
-136.414	-200.000	-0.009	-0.051
-135.399	51.011	-0.310	0.289
-134.385	-200.000	0.036	-0.327
-133.370	82.358	-0.134	-0.143
-132.356	244.422	0.128	-0.211
-131.341	-71.085	0.376	-0.139
-130.326	308.156	-0.052	-0.094
-129.312	-200.000	-0.002	0.154
-128.297	32.274	0.267	-0.226
-127.283	100.761	0.121	-0.138
-126.268	-200.000	-0.006	0.160
-125.253	35.615	0.252	-0.217
-124.239	286.826	0.054	0.096
-123.224	319.830	0.185	-0.345
-122.210	-149.515	0.063	0.005
-121.195	200.643	0.041	0.062
-120.180	-147.825	-0.116	0.009
-119.166	356.885	0.128	-0.251
-118.151	-7.348	0.074	0.049
-117.137	-113.710	-0.090	0.017
-116.122	754.319	-0.064	-0.171
-115.107	4.453	0.136	0.098
-114.093	147.777	-0.049	-0.065
-113.078	148.171	0.162	-0.214
-112.064	274.563	0.096	-0.167
-111.049	595.025	-0.087	0.212
-110.034	34.493	-0.158	0.135
-109.020	-55.901	-0.038	-0.017
-108.005	-22.836	-0.208	0.123
-106.991	-152.494	-0.170	0.012
-105.976	-34.873	0.292	0.156
-104.962	238.801	-0.071	-0.116
-103.947	-200.000	-0.015	0.148
-102.932	-127.661	-0.389	-0.055
-101.918	800.000	0.161	-0.443
-100.903	-200.000	0.009	-0.239
-99.889	-56.534	-0.240	0.104
-98.874	-103.410	-0.061	-0.014
-97.859	-15.719	0.260	-0.162
-96.845	-70.080	-0.087	0.032
-95.830	800.000	-0.021	0.064
-94.816	-200.000	-0.051	-0.282
-93.801	-200.000	-0.038	-0.298
-92.786	-154.902	0.274	0.018
-91.772	-200.000	0.012	0.371
-90.757	800.000	0.107	0.411
-89.743	117.939	0.094	0.114
-88.728	-200.000	-0.021	-0.155
-87.713	-73.151	0.059	0.021
-86.699	-200.000	-0.026	0.132
-85.684	-56.228	0.422	0.184
-84.670	800.000	-0.010	0.039
-83.655	313.290	0.188	-0.346
-82.640	69.846	0.079	0.080
-81.626	800.000	0.078	0.299
-80.611	99.762	0.131	-0.148
-79.597	-109.881	-0.163	0.034
-78.582	14.516	0.106	-0.081
-77.567	800.000	0.117	0.322
-76.553	-200.000	0.016	0.297
-75.538	162.303	-0.163	0.224
-74.524	251.303	-0.165	-0.276
-73.509	11.380	-0.070	0.052
-72.494	-28.161	-0.181	-0.103
-71.480	-77.991	-0.245	-0.083
-70.465	-200.000	-0.008	0.105
-69.451	-43.448	-0.404	-0.200
-68.436	10.620	0.196	-0.146
-67.422	154.640	-0.182	-0.245
-66.407	-80.181	-0.199	0.065
-65.392	157.369	-0.134	0.181
-64.378	-150.268	-0.560	0.042
-63.363	-200.000	-0.044	0.327
-62.349	-33.072	-0.203	-0.110
-61.334	11.846	-1.225	-0.921
-60.319	-11.317	0.967	0.623
-59.305	800.000	-0.342	-1.224
-58.290	800.000	0.365	1.119
-57.276	650.613	0.708	1.773
-56.261	-200.000	114.050	645.332
-55.246	471.529	1506.085	3315.939
-54.232	147.134	2679.036	3526.552
-53.217	97.092	2288.398	2567.919
-52.203	36.270	1899.066	1637.413
-51.188	30.357	1689.279	1411.668
-50.173	28.009	1647.008	1358.856
-49.159	49.842	1701.839	1569.460
-48.144	48.264	1716.617	1571.127
-47.130	30.022	1675.066	1397.045
-46.115	27.346	1660.551	1364.842
-45.100	27.196	1655.658	1359.643
-44.086	27.131	1653.033	1356.951
-43.071	27.081	1650.739	1354.639
-42.057	27.155	1648.051	1352.932
-41.042	27.134	1646.285	1351.270
-40.027	27.168	1644.276	1349.818
-39.013	27.125	1642.469	1347.969
-37.998	27.113	1640.505	1346.212
-36.984	27.186	1639.411	1345.799
-35.969	27.201	1637.874	1344.600
-34.954	27.283	1636.519	1344.033
-33.940	27.238	1634.072	1341.643
-32.925	27.255	1632.424	1340.361
-31.911	27.214	1631.030	1338.862
-30.896	27.109	1629.676	1336.926
-29.881	27.240	1627.485	1336.038
-28.867	27.179	1626.573	1334.786
-27.852	27.266	1624.366	1333.562
-26.838	27.173	1623.183	1331.857
-25.823	27.268	1621.908	1331.453
-24.809	27.310	1620.395	1330.467
-23.794	27.306	1619.050	1329.276
-22.779	27.101	1618.258	1327.075
-21.765	27.170	1616.209	1325.846
-20.750	27.210	1614.483	1324.671
-19.736	27.268	1613.291	1324.060
-18.721	27.368	1611.508	1323.269
-17.706	27.296	1610.283	1321.688
-16.692	27.301	1609.243	1320.826
-15.677	27.287	1607.490	1319.227
-14.663	27.404	1605.807	1318.647
-13.648	27.450	1604.351	1317.730
-12.633	27.365	1602.831	1315.815
-11.619	27.267	1601.779	1314.188
-10.604	27.331	1600.173	1313.284
-9.590	27.281	1598.697	1311.660
-8.575	27.287	1597.786	1310.900
-7.560	27.313	1596.493	1309.978
-6.546	27.327	1595.363	1309.094
-5.531	27.255	1594.433	1307.765
-4.517	27.268	1593.205	1306.800
-3.502	27.265	1592.284	1305.966
-2.487	27.427	1590.181	1305.357
-1.473	27.079	1578.602	1293.322
-0.458	24.331	1559.605	1258.347
0.556	19.094	1560.608	1227.144
1.571	16.745	1584.514	1228.807
2.586	16.396	1596.560	1235.491
3.600	15.030	1543.921	1184.982
4.615	8.378	1435.630	1057.841
5.629	1.625	1373.585	969.134
6.644	0.227	1365.913	954.779
7.659	0.128	1364.402	953.011
8.673	0.106	1363.357	952.054
9.688	0.029	1361.646	950.289
10.702	-0.069	1358.279	947.241
11.717	3.247	1363.380	971.668
12.731	11.035	1375.491	1029.640
13.746	16.435	1382.896	1069.352
14.761	17.083	1382.736	1073.233
15.775	16.214	1380.152	1065.644
16.790	15.274	1377.567	1057.629
17.804	14.492	1375.206	1050.794
18.819	14.003	1374.377	1046.990
19.834	13.793	1372.496	1044.139
20.848	13.553	1371.672	1041.912
21.863	13.386	1370.242	1039.688
22.877	13.125	1368.965	1036.984
23.892	13.131	1368.189	1036.342
24.907	13.194	1367.023	1035.763
25.921	13.259	1366.045	1035.337
26.936	13.234	1365.359	1034.572
27.950	13.288	1364.082	1033.848
28.965	13.203	1363.768	1032.989
29.980	13.339	1362.677	1032.920
30.994	13.319	1362.053	1032.230
32.009	13.413	1360.913	1031.860
33.023	13.458	1359.429	1030.923
34.038	13.304	1358.915	1029.485
35.053	13.223	1357.905	1028.126
36.067	13.289	1356.713	1027.544
37.082	13.232	1355.787	1026.395
38.096	13.444	1354.371	1026.546
39.111	13.365	1353.690	1025.452
40.126	13.350	1352.810	1024.603
41.140	13.141	1352.535	1023.005
42.155	13.167	1351.706	1022.453
43.169	13.123	1351.668	1022.062
44.184	13.130	1351.415	1021.819
45.199	13.133	1350.928	1021.381
46.213	13.168	1350.446	1021.144
47.228	13.259	1349.132	1020.621
48.242	13.299	1347.855	1019.809
49.257	13.184	1346.630	1018.087
50.271	13.218	1345.307	1017.202
51.286	13.240	1343.825	1016.127
52.301	13.307	1342.273	1015.280
53.315	13.222	1341.370	1013.983
54.330	13.237	1340.562	1013.371
55.344	13.247	1339.048	1012.198
56.359	13.207	1338.174	1011.207
57.374	13.196	1337.419	1010.477
58.388	13.119	1336.670	1009.353
59.403	13.153	1336.245	1009.148
60.417	13.088	1335.464	1008.074
61.432	13.080	1334.575	1007.267
62.447	13.109	1333.722	1006.710
63.461	13.114	1331.968	1005.326
64.476	13.017	1331.386	1004.207
65.490	13.020	1330.091	1003.161
66.505	13.042	1328.662	1002.127
67.520	13.096	1327.352	1001.380
68.534	13.158	1326.264	1000.845
69.549	13.137	1324.832	999.549
70.563	12.993	1324.373	998.243
71.578	13.020	1323.170	997.409
72.593	12.944	1322.255	996.173
73.607	12.943	1321.679	995.648
74.622	13.003	1320.545	995.068
75.636	13.093	1319.373	994.637
76.651	12.971	1318.641	993.262
77.666	13.004	1318.267	993.093
78.680	13.100	1317.768	993.203
79.695	13.041	1316.735	991.981
80.709	13.050	1315.831	991.271
81.724	13.050	1315.585	990.995
82.739	13.081	1314.522	990.294
83.753	13.223	1313.683	990.427
84.768	13.293	1311.978	989.471
85.782	13.336	1311.247	989.088
86.797	13.271	1309.871	987.576
87.812	13.215	1308.857	986.387
88.826	13.134	1307.700	984.948
89.841	13.194	1306.586	984.376
90.855	13.345	1305.508	984.378
91.870	13.288	1304.604	983.268
92.884	13.236	1304.288	982.633
93.899	13.395	1302.936	982.473
94.914	13.231	1302.556	981.124
95.928	13.368	1301.181	980.817
96.943	13.416	1299.925	980.065
97.957	13.318	1299.291	978.925
98.972	13.350	1298.819	978.669
99.987	13.382	1297.211	977.559
101.001	13.426	1296.311	977.057
102.016	13.341	1295.346	975.740
103.030	13.338	1294.877	975.283
104.045	13.334	1293.663	974.257
105.060	13.236	1292.608	972.804
106.074	13.183	1291.416	971.510
107.089	13.196	1289.896	970.356
108.103	13.140	1288.801	969.116
109.118	13.145	1287.440	968.034
110.133	13.104	1286.040	966.656
111.147	13.135	1284.943	965.928
112.162	13.134	1284.078	965.189
113.176	13.261	1282.649	964.766
114.191	13.186	1282.202	963.912
115.206	13.198	1280.692	962.760
116.220	13.221	1279.466	961.884
117.235	13.183	1278.729	961.029
118.249	13.173	1277.618	960.049
119.264	13.258	1276.002	959.244
120.279	13.240	1275.206	958.454
121.293	13.048	1274.305	956.578
122.308	13.059	1273.581	956.016
123.322	13.078	1272.438	955.181
124.337	13.177	1271.434	954.918
125.352	13.120	1270.501	953.800
126.366	13.175	1269.149	953.018
127.381	13.139	1267.878	951.775
128.395	13.088	1267.430	951.062
129.410	13.138	1266.251	950.380
130.424	13.252	1265.584	950.448
131.439	13.201	1264.446	949.218
132.454	13.187	1263.754	948.533
133.468	13.380	1262.302	948.468
134.483	13.159	1262.198	947.038
135.497	13.128	1261.508	946.257
136.512	13.254	1259.666	945.515
137.527	13.321	1258.447	944.897
138.541	13.260	1257.048	943.418
139.556	13.272	1255.590	942.306
140.570	13.358	1254.320	941.760
141.585	13.248	1253.540	940.465
142.600	13.409	1252.295	940.362
143.614	13.406	1251.676	939.798
144.629	13.453	1250.729	939.272
145.643	13.383	1249.529	937.887
146.658	13.382	1247.702	936.432
147.673	13.387	1246.592	935.543
148.687	13.382	1245.656	934.727
149.702	13.284	1244.149	932.962
150.716	13.286	1242.646	931.762
151.731	13.371	1241.714	931.460
152.746	13.364	1240.475	930.409
153.760	13.421	1239.102	929.620
154.775	13.452	1237.764	928.706
155.789	13.457	1237.031	928.102
156.804	13.480	1235.500	926.998
157.819	13.479	1235.248	926.722
158.833	13.610	1234.218	926.602
159.848	13.636	1233.158	925.869
160.862	13.574	1232.094	924.644
161.877	13.506	1231.149	923.469
162.892	13.486	1230.172	922.546
163.906	13.424	1229.222	921.406
164.921	13.448	1228.571	920.972
165.935	13.539	1227.046	920.254
166.950	13.490	1226.502	919.491
167.964	13.613	1225.801	919.565
168.979	13.556	1225.112	918.650
169.994	13.550	1224.359	917.972
171.008	13.548	1223.607	917.315
172.023	13.696	1222.427	917.171
173.037	13.675	1221.764	916.473
174.052	13.592	1221.053	915.400
175.067	13.524	1220.061	914.202
176.081	13.601	1218.846	913.633
177.096	13.644	1218.159	913.277
178.110	13.618	1217.071	912.235
179.125	13.609	1216.144	911.408
180.140	13.688	1214.436	910.482
181.154	13.714	1213.435	909.795
182.169	13.707	1212.427	908.922
183.183	13.784	1211.236	908.371
184.198	13.816	1209.861	907.430
185.213	13.843	1208.570	906.534
186.227	13.803	1207.449	905.393
187.242	13.828	1206.703	904.887
188.256	13.832	1205.959	904.274
189.271	13.837	1204.765	903.327
190.286	13.779	1203.756	902.174
191.300	13.684	1203.035	901.035
192.315	13.706	1202.263	900.501
193.329	13.669	1201.324	899.517
194.344	13.687	1200.902	899.215
195.359	13.773	1200.516	899.313
196.373	13.902	1199.647	899.280
197.388	13.849	1199.309	898.661
198.402	13.911	1199.165	898.809
199.417	13.943	1198.115	898.117
200.432	14.003	1197.430	897.847
201.446	13.980	1196.676	897.081
202.461	14.054	1196.060	896.936
203.475	14.086	1194.687	896.000
204.490	13.982	1193.182	894.236
205.504	14.009	1191.936	893.364
206.519	14.041	1190.591	892.451
207.534	14.027	1189.577	891.534
208.548	14.015	1188.838	890.838
209.563	13.939	1188.756	890.290
210.577	14.073	1187.275	889.822
211.592	14.137	1186.264	889.326
212.607	14.190	1185.309	888.815
213.621	14.223	1184.610	888.387
214.636	14.138	1183.905	887.325
215.650	14.206	1182.654	886.674
216.665	14.178	1181.869	885.855
217.680	14.299	1181.200	885.920
218.694	14.267	1179.950	884.735
219.709	14.187	1179.963	884.242
220.723	14.310	1178.985	884.086
221.738	14.181	1178.345	882.843
222.753	14.282	1177.447	882.626
223.767	14.245	1176.589	881.710
224.782	14.380	1176.057	881.946
225.796	14.342	1175.436	881.201
226.811	14.440	1174.396	880.861
227.826	14.400	1173.684	880.042
228.840	14.444	1172.873	879.586
229.855	14.304	1172.414	878.427
230.869	14.416	1171.338	878.131
231.884	14.304	1170.990	877.201
232.899	14.377	1170.023	876.785
233.913	14.253	1169.186	875.426
234.928	14.310	1168.387	875.054
235.942	14.312	1167.397	874.242
236.957	14.397	1166.498	873.941
237.972	14.299	1166.375	873.254
238.986	14.337	1165.640	872.825
240.001	14.320	1164.609	871.886
241.015	14.398	1163.960	871.731
242.030	14.445	1163.055	871.222
243.045	14.444	1162.597	870.797
244.059	14.394	1161.729	869.811
245.074	14.507	1160.689	869.546
246.088	14.553	1159.887	869.107
247.103	14.428	1159.289	867.931
248.117	14.651	1158.480	868.408
249.132	14.764	1157.605	868.262
250.147	14.671	1156.978	867.231
251.161	14.747	1156.307	867.050
252.176	14.703	1156.020	866.529
253.190	14.787	1155.383	866.406
254.205	14.778	1154.582	865.684
255.220	14.857	1153.760	865.402
256.234	14.915	1152.670	864.805
257.249	14.938	1152.477	864.704
258.263	15.003	1151.562	864.279
259.278	15.002	1150.958	863.741
260.293	14.962	1150.617	863.203
261.307	14.866	1149.972	862.150
262.322	15.014	1149.046	862.142
263.336	14.989	1148.780	861.736
264.351	15.073	1148.150	861.617
265.366	15.131	1146.977	860.960
266.380	15.068	1146.644	860.308
267.395	14.947	1146.383	859.419
268.409	15.008	1145.826	859.237
269.424	15.067	1144.589	858.537
270.439	14.982	1144.416	857.895
271.453	15.093	1142.836	857.203
272.468	15.110	1142.215	856.748
273.482	15.087	1141.536	856.044
274.497	14.946	1141.154	854.963
275.512	15.122	1140.516	855.305
276.526	15.095	1139.305	854.185
277.541	15.110	1138.946	853.918
278.555	15.108	1138.075	853.181
279.570	15.192	1137.610	853.179
280.585	15.211	1136.647	852.478
281.599	15.225	1135.798	851.842
282.614	15.220	1134.721	850.931
283.628	15.131	1133.913	849.797
284.643	15.240	1132.734	849.393
285.657	15.271	1132.012	848.931
286.672	15.232	1130.939	847.855
287.687	15.272	1130.066	847.326
288.701	15.321	1129.574	847.131
289.716	15.247	1128.548	845.914
290.730	15.220	1127.996	845.287
291.745	15.354	1127.399	845.441
292.760	15.441	1126.569	845.182
293.774	15.347	1126.414	844.521
294.789	15.440	1125.469	844.205
295.803	15.420	1124.731	843.477
296.818	15.453	1123.601	842.719
297.833	15.361	1122.864	841.631
298.847	15.576	1122.177	842.119
299.862	15.405	1121.534	840.702
300.876	15.485	1120.985	840.616
301.891	15.519	1119.944	839.934
302.906	15.574	1119.659	839.922
303.920	15.617	1119.347	839.827
304.935	15.672	1118.375	839.301
305.949	15.758	1117.342	838.876
306.964	15.692	1116.965	838.190
307.979	15.650	1116.260	837.377
308.993	15.564	1115.777	836.512
310.008	15.665	1114.890	836.280
311.022	15.797	1113.960	836.164
312.037	15.803	1113.030	835.418
313.052	15.697	1112.057	834.089
314.066	15.611	1111.195	832.943
315.081	15.576	1110.586	832.242
316.095	15.617	1109.847	831.814
317.110	15.641	1108.956	831.192
318.125	15.639	1108.123	830.485
319.139	15.634	1107.409	829.851
320.154	15.603	1106.858	829.215
321.168	15.692	1106.266	829.132
322.183	15.746	1105.603	828.829
323.197	15.648	1105.346	828.082
324.212	15.759	1104.056	827.589
325.227	15.723	1103.755	827.110
326.241	15.680	1103.431	826.587
327.256	15.778	1102.357	826.190
328.270	15.720	1101.659	825.306
329.285	15.702	1100.425	824.221
330.300	15.705	1099.552	823.509
331.314	15.796	1098.695	823.238
332.329	15.765	1097.603	822.199
333.343	15.865	1097.040	822.192
334.358	15.935	1095.655	821.425
335.373	15.908	1095.358	820.996
336.387	15.906	1094.779	820.481
337.402	16.040	1093.469	820.074
338.416	15.893	1093.125	819.030
339.431	15.999	1092.762	819.199
340.446	15.983	1091.991	818.473
341.460	16.115	1090.917	818.238
342.475	16.112	1090.280	817.670
343.489	16.168	1089.389	817.201
344.504	16.126	1088.484	816.250
345.519	16.203	1087.653	815.925
346.533	16.226	1087.087	815.541
347.548	16.239	1086.322	814.956
348.562	16.200	1085.539	814.111
349.577	16.233	1084.635	813.518
350.592	16.182	1083.990	812.715
351.606	16.221	1083.485	812.455
352.621	16.162	1082.573	811.413
353.635	16.129	1081.852	810.642
354.650	16.175	1081.098	810.227
355.665	16.208	1080.679	809.999
356.679	16.150	1079.958	809.112
357.694	16.309	1079.107	809.161
358.708	16.277	1078.534	808.507
359.723	16.207	1078.155	807.818
360.738	16.234	1077.364	807.283
361.752	16.289	1076.776	807.035
362.767	16.297	1076.197	806.567
363.781	16.297	1076.007	806.354
364.796	16.259	1075.503	805.722
365.810	16.407	1074.526	805.624
366.825	16.528	1073.709	805.516
367.840	16.544	1073.309	805.220
368.854	16.509	1072.986	804.741
369.869	16.509	1071.901	803.857
370.883	16.569	1070.827	803.268
371.898	16.415	1070.383	802.128
372.913	16.573	1069.468	802.123
373.927	16.572	1069.133	801.795
374.942	16.513	1069.058	801.388
375.956	16.594	1068.023	800.926
376.971	16.668	1067.301	800.663
377.986	16.769	1066.796	800.691
379.000	16.773	1066.223	800.208
380.015	16.752	1065.927	799.819
381.029	16.675	1065.934	799.389
382.044	16.731	1064.561	798.549
383.059	16.763	1063.759	798.029
384.073	16.822	1062.979	797.652
385.088	16.767	1062.511	796.972
386.102	16.659	1061.866	795.908
387.117	16.883	1060.243	795.673
388.132	16.783	1059.180	794.337
389.146	16.646	1058.881	793.399
390.161	16.708	1057.916	792.895
391.175	16.810	1057.310	792.848
392.190	16.859	1056.537	792.429
393.205	16.921	1055.803	792.098
394.219	16.904	1055.235	791.524
395.234	16.853	1054.472	790.641
396.248	16.833	1053.115	789.461
397.263	16.986	1052.014	789.280
398.278	16.815	1051.864	788.303
399.292	16.812	1050.839	787.451
400.307	16.863	1050.288	787.202
401.321	16.909	1049.191	786.526
402.336	16.937	1048.829	786.313
403.350	16.941	1048.278	785.849
404.365	16.895	1047.693	785.129
405.380	16.979	1046.617	784.642
406.394	17.116	1045.969	784.718
407.409	17.085	1045.332	784.028
408.423	17.179	1044.121	783.487
409.438	17.250	1043.991	783.644
410.453	17.166	1043.297	782.669
411.467	17.277	1042.596	782.584
412.482	17.237	1042.084	781.948
413.496	17.124	1041.780	781.128
414.511	17.229	1040.694	780.731
415.526	17.188	1040.431	780.272
416.540	17.263	1039.983	780.212
417.555	17.335	1039.371	780.017
418.569	17.416	1038.961	780.011
419.584	17.322	1038.641	779.270
420.599	17.505	1037.652	779.296
421.613	105.350	1325.006	1478.806
422.628	96.623	1366.847	1478.895
