DTS Sentinel unit serial number:	SN413079Multiplexer serial number:	ORYXHardware model number:	OX4-SRSoftware version number:	ORYX F/W v4.00 Oryx Data Collector v3.7.2.0data status	okinstallation	princeton_trtdifferential loss correction	single-endedforward channel	channel 2reverse channel	N/Adate	2019/09/13time	21:43:34forward acquisition time	60.00reverse acquisition time	0.00gamma	496.2192k internal	0.2334k external	0.2334temperature offset calibration	1.0120default loss term (dB/km)	0.3790temperature slope calibration	1.0000multiplexer offset coefficient	1.0000multiplexer slope coefficient	1.0000fibre end	0.00T internal ref (°C)	28.12T ext. ref 1 (°C)	3.01T ext. ref 2 (°C)	22.82length (m)	temperature (°C)	Stokes	anti-Stokes-747.200	16.744	0.133	-0.106
-746.185	726.779	0.045	0.120
-745.171	-200.000	-0.016	-0.257
-744.156	-15.482	0.140	-0.090
-743.142	-109.507	-0.267	-0.057
-742.127	-5.035	-0.192	0.133
-741.112	-200.000	0.002	0.132
-740.098	-42.580	0.179	0.091
-739.083	800.000	0.028	-0.099
-738.069	-200.000	0.006	0.134
-737.054	-158.034	0.129	0.008
-736.039	106.631	-0.137	-0.164
-735.025	-53.424	0.076	0.035
-734.010	139.293	-0.100	-0.133
-732.996	-64.258	-0.252	0.103
-731.981	-68.771	0.107	-0.042
-730.966	182.246	-0.079	-0.117
-729.952	-73.119	-0.178	0.066
-728.937	-26.947	-0.239	0.140
-727.923	522.942	-0.040	0.095
-726.908	-45.780	0.196	0.097
-725.894	800.000	-0.088	-0.379
-724.879	-74.248	-0.165	-0.060
-723.864	-108.099	-0.162	0.035
-722.850	639.433	-0.129	0.330
-721.835	211.580	-0.196	0.310
-720.821	-200.000	-0.035	-0.251
-719.806	-128.514	0.202	-0.029
-718.791	-40.276	0.451	-0.236
-717.777	-33.762	-0.077	-0.043
-716.762	48.663	-0.095	-0.090
-715.748	67.969	0.155	0.159
-714.733	-52.550	0.209	0.097
-713.718	-25.454	-0.237	-0.141
-712.704	-47.886	-0.224	0.109
-711.689	16.121	0.401	0.317
-710.675	75.437	-0.055	0.059
-709.660	12.660	0.277	0.215
-708.645	251.610	0.069	0.117
-707.631	282.200	-0.145	-0.261
-706.616	-98.402	-0.226	-0.058
-705.602	800.000	-0.087	0.277
-704.587	-53.801	0.302	0.138
-703.572	26.640	-0.222	0.186
-702.558	69.634	0.126	0.130
-701.543	200.494	0.097	0.149
-700.529	-152.856	0.122	-0.009
-699.514	800.000	0.068	-0.265
-698.499	-91.609	0.173	-0.049
-697.485	-68.945	-0.205	0.080
-696.470	-79.039	-0.142	0.048
-695.456	-104.956	0.323	-0.074
-694.441	800.000	-0.037	0.162
-693.426	-138.347	0.123	-0.014
-692.412	-193.801	-0.131	0.001
-691.397	800.000	-0.087	-0.310
-690.383	-200.000	0.016	-0.383
-689.368	203.372	-0.101	-0.157
-688.354	159.206	0.051	-0.072
-687.339	-200.000	-0.050	-0.266
-686.324	-135.094	0.100	0.012
-685.310	-155.958	-0.079	-0.005
-684.295	-124.761	-0.349	0.054
-683.281	-200.000	-0.037	-0.296
-682.266	-170.301	0.154	-0.005
-681.251	372.166	0.133	0.272
-680.237	54.083	0.092	-0.089
-679.222	-200.000	-0.041	-0.206
-678.208	-112.898	0.238	0.047
-677.193	16.340	0.076	-0.060
-676.178	10.172	-0.252	0.192
-675.164	-74.769	-0.169	0.061
-674.149	-7.407	0.103	-0.070
-673.135	8.710	-0.177	-0.133
-672.120	-200.000	-0.007	-0.120
-671.105	-183.487	-0.181	0.003
-670.091	-70.558	-0.198	0.075
-669.076	-123.807	0.519	0.082
-668.062	-73.133	-0.115	0.042
-667.047	-92.818	-0.242	0.068
-666.032	-94.576	0.330	-0.090
-665.018	6.507	-0.132	0.098
-664.003	-122.004	0.132	-0.022
-662.989	-200.000	-0.010	0.220
-661.974	230.947	-0.049	-0.080
-660.959	-200.000	-0.025	-0.110
-659.945	800.000	-0.042	0.174
-658.930	473.406	0.123	-0.278
-657.916	2.510	-0.300	-0.218
-656.901	458.511	-0.095	-0.212
-655.886	96.081	0.138	-0.158
-654.872	170.361	0.132	0.189
-653.857	-29.134	-0.154	0.089
-652.843	698.354	-0.124	-0.328
-651.828	-22.717	0.045	-0.027
-650.814	-55.943	0.134	-0.060
-649.799	-200.000	-0.026	-0.118
-648.784	550.969	0.056	-0.136
-647.770	93.067	-0.169	-0.191
-646.755	60.632	-0.078	0.077
-645.741	136.674	0.065	0.085
-644.726	3.493	-0.143	0.105
-643.711	115.285	-0.121	0.147
-642.697	800.000	0.045	-0.148
-641.682	-200.000	-0.003	0.210
-640.668	-200.000	-0.017	-0.325
-639.653	-60.401	-0.358	-0.152
-638.638	-91.599	-0.315	0.090
-637.624	-53.198	0.366	0.168
-636.609	22.828	-0.346	-0.284
-635.595	-200.000	0.019	-0.109
-634.580	32.350	-0.233	-0.201
-633.565	-177.755	-0.347	0.008
-632.551	-200.000	0.041	0.206
-631.536	-71.227	-0.228	0.086
-630.522	-105.576	0.163	0.037
-629.507	-200.000	-0.097	0.460
-628.492	-200.000	-0.006	-0.243
-627.478	-114.127	-0.237	0.046
-626.463	800.000	0.204	-0.572
-625.449	667.331	0.043	0.112
-624.434	26.039	0.036	0.030
-623.419	-66.799	0.232	0.092
-622.405	-200.000	0.002	0.205
-621.390	-62.010	-0.228	0.095
-620.376	-68.780	0.217	-0.084
-619.361	-200.000	0.030	0.265
-618.346	4.026	-0.143	-0.104
-617.332	89.528	-0.044	-0.049
-616.317	-200.000	-0.044	0.293
-615.303	50.669	0.164	0.156
-614.288	60.789	0.032	-0.032
-613.273	208.005	0.038	0.059
-612.259	57.370	-0.082	0.080
-611.244	-85.944	-0.325	-0.100
-610.230	-97.609	-0.065	-0.017
-609.215	-7.189	0.256	0.173
-608.201	10.824	0.034	0.026
-607.186	-132.963	-0.130	-0.017
-606.171	-65.003	-0.109	-0.044
-605.157	-82.817	0.284	-0.092
-604.142	-149.451	0.105	-0.008
-603.128	36.808	-0.194	0.172
-602.113	-115.914	0.230	-0.043
-601.098	-200.000	-0.000	-0.086
-600.084	14.707	-0.127	0.099
-599.069	-128.546	-0.136	0.019
-598.055	117.411	-0.135	0.165
-597.040	-183.252	-0.376	-0.007
-596.025	-200.000	0.044	-0.263
-595.011	110.862	0.187	-0.224
-593.996	-174.297	-0.107	-0.003
-592.982	-152.871	0.274	0.019
-591.967	-38.188	0.208	0.110
-590.952	248.842	0.096	-0.162
-589.938	5.802	0.016	-0.012
-588.923	567.112	-0.064	-0.155
-587.909	-200.000	0.027	-0.154
-586.894	15.574	0.206	0.162
-585.879	-200.000	0.047	0.234
-584.865	-47.652	-0.277	-0.134
-583.850	-140.426	0.183	0.019
-582.836	-63.856	-0.092	-0.038
-581.821	-64.003	-0.133	0.054
-580.806	-101.979	0.181	0.044
-579.792	-57.438	-0.358	-0.157
-578.777	-137.745	0.163	0.018
-577.763	581.384	-0.051	-0.124
-576.748	35.083	0.153	-0.134
-575.733	-157.219	-0.085	-0.005
-574.719	-200.000	-0.007	0.304
-573.704	-26.807	-0.162	-0.094
-572.690	59.750	0.205	0.202
-571.675	128.363	-0.201	-0.255
-570.661	800.000	0.068	0.297
-569.646	211.689	0.226	-0.355
-568.631	18.568	-0.059	-0.047
-567.617	-189.149	0.089	0.001
-566.602	-66.963	0.192	0.076
-565.588	-200.000	-0.004	-0.051
-564.573	38.291	-0.143	0.127
-563.558	-200.000	0.044	0.233
-562.544	-38.277	0.119	0.063
-561.529	438.305	-0.104	0.227
-560.515	282.760	0.114	0.204
-559.500	-200.000	-0.061	-0.369
-558.485	-54.450	-0.038	-0.017
-557.471	-89.847	-0.125	-0.037
-556.456	88.380	-0.343	-0.380
-555.442	-142.505	-0.198	0.019
-554.427	-31.994	0.055	0.031
-553.412	-183.181	-0.330	0.006
-552.398	146.654	0.096	-0.128
-551.383	-81.172	-0.141	-0.047
-550.369	-65.327	0.124	0.050
-549.354	428.658	0.069	-0.149
-548.339	800.000	0.136	-0.375
-547.325	40.907	-0.269	-0.242
-546.310	-14.617	0.402	-0.258
-545.296	-79.203	0.095	0.032
-544.281	73.484	-0.108	0.113
-543.266	69.966	0.161	0.166
-542.252	800.000	0.017	0.065
-541.237	-192.871	-0.199	0.002
-540.223	-64.682	0.058	-0.023
-539.208	-147.123	-0.496	-0.042
-538.193	-200.000	0.010	-0.256
-537.179	-200.000	0.026	-0.181
-536.164	-107.096	-0.374	0.082
-535.150	800.000	-0.029	-0.084
-534.135	-125.003	0.383	-0.059
-533.121	-112.842	0.321	0.063
-532.106	-105.355	-0.145	0.033
-531.091	-102.546	0.115	0.027
-530.077	361.825	-0.164	-0.329
-529.062	-88.463	0.080	0.024
-528.048	-191.514	-0.259	0.003
-527.033	-200.000	-0.019	0.180
-526.018	592.085	0.162	0.398
-525.004	35.992	0.217	-0.190
-523.989	-6.130	0.084	0.057
-522.975	283.029	-0.140	-0.251
-521.960	107.725	-0.055	-0.065
-520.945	-2.984	0.177	0.123
-519.931	-67.557	-0.510	0.199
-518.916	-93.654	0.226	0.062
-517.902	800.000	0.010	-0.034
-516.887	253.682	-0.090	-0.154
-515.872	207.836	0.217	-0.337
-514.858	137.540	0.145	-0.188
-513.843	67.531	0.267	-0.272
-512.829	33.997	-0.148	-0.129
-511.814	488.587	0.128	-0.292
-510.799	38.177	-0.186	0.165
-509.785	-32.090	-0.209	0.116
-508.770	448.858	0.054	0.118
-507.756	552.540	0.063	0.151
-506.741	-200.000	-0.002	-0.008
-505.726	-15.113	0.241	0.154
-504.712	458.302	0.069	0.153
-503.697	6.702	0.150	0.111
-502.683	-23.412	0.207	-0.124
-501.668	-200.000	-0.058	-0.275
-500.653	800.000	-0.082	-0.235
-499.639	-33.830	0.231	0.127
-498.624	372.489	0.142	0.288
-497.610	-142.370	-0.227	0.022
-496.595	-139.979	-0.313	-0.033
-495.581	35.733	-0.365	-0.319
-494.566	800.000	-0.061	0.248
-493.551	60.157	0.151	0.149
-492.537	-22.838	-0.080	0.048
-491.522	800.000	0.033	0.113
-490.508	99.645	-0.078	0.090
-489.493	-0.269	-0.048	0.034
-488.478	-200.000	-0.043	0.195
-487.464	-85.844	0.336	0.104
-486.449	-145.343	0.043	0.004
-485.435	-135.193	0.192	0.023
-484.420	44.950	0.162	0.148
-483.405	141.304	-0.182	0.240
-482.391	-82.917	-0.236	-0.076
-481.376	30.754	-0.263	-0.224
-480.362	50.589	-0.352	-0.331
-479.347	-90.889	-0.116	0.033
-478.332	800.000	0.065	-0.275
-477.318	103.444	-0.056	0.065
-476.303	113.260	0.227	0.274
-475.289	-88.105	0.386	-0.115
-474.274	-200.000	-0.008	0.078
-473.259	19.259	-0.054	0.043
-472.245	68.762	0.058	-0.059
-471.230	-41.612	0.164	-0.084
-470.216	-100.827	0.093	0.023
-469.201	800.000	0.023	-0.100
-468.186	29.938	0.235	-0.199
-467.172	237.161	0.106	-0.175
-466.157	85.465	0.158	-0.173
-465.143	-200.000	-0.053	0.243
-464.128	17.592	0.088	0.070
-463.113	204.878	-0.157	-0.242
-462.099	188.755	-0.195	0.291
-461.084	-98.633	0.371	0.094
-460.070	-117.153	-0.461	-0.083
-459.055	-109.152	-0.115	0.024
-458.040	666.029	0.120	0.308
-457.026	-104.581	-0.097	-0.022
-456.011	190.165	-0.299	0.446
-454.997	-120.874	0.107	0.018
-453.982	11.214	-0.499	0.380
-452.968	14.793	-0.030	-0.024
-451.953	44.863	0.237	0.217
-450.938	-200.000	-0.040	0.192
-449.924	-200.000	-0.023	-0.115
-448.909	-14.162	-0.099	-0.064
-447.895	314.381	-0.249	-0.465
-446.880	-200.000	-0.017	-0.080
-445.865	95.908	0.182	-0.206
-444.851	23.547	-0.146	-0.119
-443.836	800.000	-0.111	-0.311
-442.822	-30.138	0.211	0.119
-441.807	-52.461	0.150	-0.069
-440.792	308.802	0.149	0.277
-439.778	-125.672	0.171	-0.026
-438.763	8.810	-0.121	0.091
-437.749	-87.734	0.380	-0.114
-436.734	425.144	-0.073	-0.156
-435.719	-7.401	-0.027	-0.018
-434.705	-153.969	-0.244	0.017
-433.690	-4.513	0.458	0.315
-432.676	137.447	-0.194	-0.252
-431.661	106.492	-0.136	-0.160
-430.646	148.660	-0.224	-0.301
-429.632	-200.000	0.020	-0.311
-428.617	-115.358	-0.190	-0.036
-427.603	-200.000	-0.028	-0.372
-426.588	348.170	-0.066	0.129
-425.573	-137.327	0.120	-0.013
-424.559	4.322	0.239	0.174
-423.544	-169.431	0.387	-0.014
-422.530	-200.000	-0.018	-0.440
-421.515	309.935	-0.040	0.074
-420.500	-72.795	-0.184	-0.067
-419.486	-43.339	-0.140	-0.070
-418.471	33.051	-0.070	0.060
-417.457	447.660	-0.194	-0.424
-416.442	-60.319	0.106	0.045
-415.428	-43.521	0.118	0.059
-414.413	-200.000	0.032	-0.153
-413.398	-33.529	0.108	-0.059
-412.384	-124.135	0.147	0.023
-411.369	-144.296	0.372	0.034
-410.355	800.000	-0.046	-0.134
-409.340	55.998	-0.159	0.153
-408.325	22.130	0.127	0.103
-407.311	-20.652	0.218	0.133
-406.296	-200.000	-0.078	-0.351
-405.282	-99.813	-0.346	-0.086
-404.267	27.151	-0.057	0.048
-403.252	800.000	-0.046	0.176
-402.238	78.827	0.167	0.177
-401.223	-70.929	-0.237	-0.088
-400.209	28.254	-0.098	-0.082
-399.194	-102.341	0.150	-0.036
-398.179	103.184	0.101	-0.118
-397.165	-200.000	-0.028	-0.120
-396.150	673.108	0.098	0.252
-395.136	-115.234	0.273	-0.051
-394.121	-17.438	0.214	-0.133
-393.106	252.395	-0.122	0.206
-392.092	-43.958	-0.291	-0.145
-391.077	800.000	-0.072	0.258
-390.063	-47.490	0.023	-0.011
-389.048	800.000	0.105	-0.336
-388.033	177.263	0.170	-0.245
-387.019	-200.000	0.046	-0.273
-386.004	-93.111	-0.115	0.032
-384.990	45.965	-0.095	0.087
-383.975	-117.352	-0.175	-0.031
-382.960	-200.000	-0.005	-0.102
-381.946	800.000	-0.078	0.226
-380.931	-49.417	0.165	-0.078
-379.917	137.081	0.076	0.098
-378.902	-200.000	0.060	0.417
-377.888	40.734	-0.160	0.143
-376.873	271.218	0.181	0.317
-375.858	-103.538	0.278	0.065
-374.844	800.000	-0.083	-0.233
-373.829	-46.311	0.055	-0.027
-372.815	-200.000	0.008	-0.203
-371.800	800.000	-0.012	0.036
-370.785	274.641	0.106	0.186
-369.771	-147.594	-0.076	0.006
-368.756	71.027	0.260	0.267
-367.742	-71.240	0.123	0.046
-366.727	-38.915	-0.362	0.189
-365.712	-80.720	-0.129	-0.042
-364.698	129.513	0.152	0.192
-363.683	230.065	0.129	-0.209
-362.669	-38.805	0.027	-0.014
-361.654	-71.398	0.227	-0.084
-360.639	-5.036	-0.201	0.137
-359.625	800.000	-0.101	-0.379
-358.610	-76.341	-0.157	-0.055
-357.596	-54.071	-0.262	-0.118
-356.581	348.823	0.093	0.182
-355.566	-56.987	-0.235	0.103
-354.552	359.689	-0.070	0.139
-353.537	-200.000	-0.023	-0.280
-352.523	-106.931	-0.369	-0.081
-351.508	-18.768	-0.072	0.045
-350.493	308.809	0.086	-0.159
-349.479	-200.000	0.055	0.271
-348.464	57.386	-0.094	-0.091
-347.450	800.000	-0.108	-0.301
-346.435	-24.538	-0.130	0.076
-345.420	-61.856	0.133	-0.055
-344.406	-20.127	-0.044	0.027
-343.391	-100.005	-0.063	0.016
-342.377	787.228	0.053	-0.143
-341.362	-154.742	0.354	-0.023
-340.348	7.338	0.229	-0.169
-339.333	177.410	0.304	-0.438
-338.318	167.977	-0.135	0.190
-337.304	443.024	0.118	0.257
-336.289	140.969	0.137	0.179
-335.275	-38.103	0.252	-0.132
-334.260	800.000	0.067	0.192
-333.245	163.293	-0.086	-0.120
-332.231	182.659	-0.208	-0.303
-331.216	130.925	-0.082	0.104
-330.202	-5.576	0.076	0.051
-329.187	84.479	-0.218	-0.235
-328.172	800.000	0.051	-0.211
-327.158	-45.181	0.102	0.050
-326.143	16.797	0.264	0.206
-325.129	800.000	-0.026	-0.078
-324.114	9.746	0.132	0.099
-323.099	-5.229	-0.158	0.108
-322.085	-34.448	-0.081	-0.044
-321.070	-129.468	0.232	-0.032
-320.056	-25.644	-0.236	0.137
-319.041	-4.866	-0.084	0.057
-318.026	243.729	-0.130	0.216
-317.012	62.182	0.023	-0.023
-315.997	-76.930	0.431	-0.149
-314.983	-163.848	0.262	-0.012
-313.968	-103.924	-0.418	-0.097
-312.953	-200.000	0.022	0.161
-311.939	19.786	-0.175	0.139
-310.924	347.050	0.149	0.290
-309.910	-200.000	0.003	-0.027
-308.895	-50.311	-0.151	-0.071
-307.880	65.776	0.258	0.258
-306.866	-35.870	-0.072	-0.038
-305.851	-56.634	-0.144	-0.063
-304.837	-200.000	-0.037	-0.247
-303.822	685.366	-0.130	-0.336
-302.807	3.622	0.174	-0.126
-301.793	-70.115	-0.226	-0.085
-300.778	220.848	-0.121	-0.192
-299.764	-174.994	-0.225	-0.006
-298.749	-52.870	-0.249	-0.113
-297.735	254.435	-0.069	0.117
-296.720	622.711	0.061	0.151
-295.705	41.581	0.266	0.238
-294.691	-16.024	-0.270	0.170
-293.676	223.300	0.050	0.079
-292.662	20.257	-0.170	0.136
-291.647	-200.000	-0.035	0.249
-290.632	-200.000	0.037	0.188
-289.618	65.115	0.043	0.042
-288.603	-135.950	-0.228	0.026
-287.589	352.140	0.036	-0.070
-286.574	800.000	0.011	-0.045
-285.559	-8.830	-0.039	-0.026
-284.545	65.463	0.203	0.203
-283.530	77.711	0.095	-0.100
-282.516	651.546	0.055	0.138
-281.501	-41.673	-0.420	-0.213
-280.486	736.023	0.075	-0.200
-279.472	30.107	0.156	0.132
-278.457	-74.224	0.266	-0.095
-277.443	800.000	0.036	-0.149
-276.428	800.000	-0.114	-0.331
-275.413	800.000	-0.070	0.252
-274.399	197.223	0.143	0.215
-273.384	-42.248	0.189	0.095
-272.370	77.224	-0.082	-0.087
-271.355	-43.685	-0.112	0.056
-270.340	-200.000	-0.011	-0.061
-269.326	186.877	-0.049	-0.073
-268.311	34.854	-0.244	-0.210
-267.297	-200.000	-0.065	0.495
-266.282	800.000	-0.049	0.157
-265.267	6.953	0.099	0.073
-264.253	-58.529	-0.296	-0.127
-263.238	-200.000	0.000	-0.199
-262.224	-178.395	-0.313	0.007
-261.209	-200.000	-0.036	0.196
-260.195	120.517	0.078	-0.096
-259.180	269.001	-0.004	-0.007
-258.165	-165.511	0.215	0.009
-257.151	43.337	0.025	0.022
-256.136	-200.000	-0.074	0.569
-255.122	68.143	0.158	-0.160
-254.107	-28.516	0.089	-0.051
-253.092	-40.312	0.238	-0.122
-252.078	-166.877	0.064	-0.003
-251.063	157.115	0.322	0.439
-250.049	-200.000	-0.003	0.293
-249.034	-200.000	0.064	-0.363
-248.019	-49.639	0.049	-0.023
-247.005	-200.000	-0.047	-0.283
-245.990	-111.444	0.179	0.036
-244.976	112.546	0.252	0.301
-243.961	-137.048	-0.109	-0.012
-242.946	-151.131	0.293	0.022
-241.932	-58.426	-0.198	-0.085
-240.917	-85.454	0.256	0.079
-239.903	-165.226	0.349	0.015
-238.888	-200.000	0.015	-0.360
-237.873	-127.920	-0.248	-0.035
-236.859	360.595	-0.124	0.245
-235.844	-1.739	-0.243	0.168
-234.830	-122.821	0.050	-0.008
-233.815	-200.000	0.006	-0.310
-232.800	-129.988	-0.295	0.040
-231.786	800.000	0.058	0.167
-230.771	-143.003	0.482	0.046
-229.757	-190.241	-0.047	0.001
-228.742	-200.000	-0.030	0.158
-227.727	-31.038	0.120	-0.067
-226.713	800.000	-0.033	0.134
-225.698	144.426	-0.116	0.152
-224.684	85.172	0.065	0.070
-223.669	19.220	0.242	0.192
-222.655	-200.000	-0.001	0.338
-221.640	-200.000	0.013	-0.126
-220.625	-200.000	0.047	0.210
-219.611	-200.000	-0.046	0.202
-218.596	-67.362	0.248	0.096
-217.582	-200.000	-0.055	-0.255
-216.567	800.000	0.023	0.074
-215.552	-200.000	0.040	0.274
-214.538	25.844	0.226	-0.186
-213.523	-0.826	-0.158	-0.110
-212.509	28.256	-0.025	-0.021
-211.494	800.000	-0.102	-0.371
-210.479	7.705	0.130	-0.096
-209.465	148.785	-0.132	-0.175
-208.450	294.120	-0.014	-0.026
-207.436	-131.975	0.132	-0.017
-206.421	800.000	-0.062	-0.230
-205.406	-23.951	-0.166	-0.098
-204.392	-200.000	-0.018	0.395
-203.377	-37.893	0.286	0.150
-202.363	125.207	0.128	0.159
-201.348	143.760	0.188	0.246
-200.333	127.081	0.039	0.049
-199.319	-36.225	-0.026	0.014
-198.304	-200.000	-0.012	-0.211
-197.290	-114.598	-0.106	0.020
-196.275	-200.000	0.019	0.101
-195.260	753.495	0.024	-0.064
-194.246	9.115	-0.097	-0.072
-193.231	-200.000	-0.016	-0.155
-192.217	800.000	0.062	-0.233
-191.202	235.275	-0.103	-0.167
-190.187	800.000	-0.097	-0.328
-189.173	-92.756	0.188	-0.052
-188.158	410.403	0.060	0.126
-187.144	-87.194	-0.073	-0.022
-186.129	28.304	-0.019	-0.016
-185.114	106.307	-0.138	-0.160
-184.100	800.000	0.048	0.132
-183.085	-135.585	0.357	-0.042
-182.071	-29.192	-0.319	-0.180
-181.056	57.242	-0.080	-0.076
-180.042	-48.175	-0.246	0.117
-179.027	99.713	-0.160	0.182
-178.012	-13.738	-0.025	0.016
-176.998	447.860	0.130	0.281
-175.983	-200.000	0.019	-0.125
-174.969	-127.810	-0.297	0.042
-173.954	248.078	0.027	0.045
-172.939	800.000	-0.056	0.187
-171.925	800.000	-0.075	0.273
-170.910	71.155	0.108	-0.110
-169.896	800.000	-0.047	0.129
-168.881	-89.843	0.321	0.092
-167.866	59.966	-0.154	-0.150
-166.852	103.802	0.329	0.380
-165.837	584.181	0.144	0.347
-164.823	-200.000	-0.073	0.318
-163.808	120.283	-0.101	-0.123
-162.793	800.000	0.063	0.247
-161.779	543.112	0.052	0.122
-160.764	-105.248	0.263	0.059
-159.750	800.000	0.007	-0.019
-158.735	442.072	-0.096	0.207
-157.720	-85.037	0.167	-0.051
-156.706	-73.829	-0.222	0.079
-155.691	-19.405	0.124	0.076
-154.677	227.600	-0.058	-0.092
-153.662	34.603	-0.162	-0.139
-152.647	301.670	0.062	-0.112
-151.633	-55.644	0.271	-0.119
-150.618	649.768	0.036	-0.091
-149.604	147.213	0.204	0.270
-148.589	-200.000	-0.030	0.170
-147.574	-132.962	-0.193	0.024
-146.560	373.013	-0.192	-0.383
-145.545	-200.000	0.025	0.117
-144.531	-111.382	0.138	-0.028
-143.516	615.251	0.107	0.263
-142.502	-132.317	-0.255	-0.032
-141.487	-107.146	-0.366	-0.079
-140.472	242.297	0.213	0.349
-139.458	56.506	0.058	-0.056
-138.443	194.082	0.160	-0.239
-137.429	-113.804	-0.283	0.054
-136.414	-43.358	-0.143	-0.071
-135.399	-82.998	-0.363	-0.115
-134.385	-84.932	-0.037	0.011
-133.370	128.562	0.250	-0.313
-132.356	800.000	-0.068	-0.248
-131.341	143.721	0.010	-0.013
-130.326	567.567	0.036	0.087
-129.312	72.522	0.033	-0.034
-128.297	8.789	-0.125	0.093
-127.283	-200.000	0.008	0.084
-126.268	-10.151	0.235	-0.153
-125.253	-131.076	-0.112	-0.015
-124.239	-82.138	0.551	-0.176
-123.224	-119.646	-0.130	0.022
-122.210	-200.000	-0.086	0.457
-121.195	-141.607	0.240	0.024
-120.180	-4.264	0.163	-0.111
-119.166	23.112	0.044	-0.035
-118.151	-35.261	-0.252	-0.135
-117.137	-44.877	0.152	-0.074
-116.122	-19.464	0.155	0.094
-115.107	218.126	-0.085	0.133
-114.093	187.436	0.113	0.165
-113.078	222.366	0.161	-0.255
-112.064	-200.000	0.007	0.047
-111.049	-156.886	-0.279	0.017
-110.034	368.696	-0.122	-0.243
-109.020	-108.469	0.286	0.060
-108.005	-200.000	0.012	0.153
-106.991	-102.207	0.174	0.041
-105.976	-75.892	0.121	0.042
-104.962	7.440	-0.183	0.134
-103.947	-105.231	0.039	-0.009
-102.932	-78.226	-0.363	-0.122
-101.918	-140.699	-0.069	0.007
-100.903	-59.110	0.102	-0.043
-99.889	21.582	-0.299	-0.238
-98.874	52.055	0.353	0.329
-97.859	-21.618	0.144	0.086
-96.845	-122.972	-0.036	-0.006
-95.830	-200.000	0.016	-0.181
-94.816	-145.285	-0.346	-0.031
-93.801	800.000	-0.068	-0.239
-92.786	173.999	-0.143	-0.203
-91.772	-137.213	-0.227	0.025
-90.757	-200.000	-0.018	0.199
-89.743	-76.234	-0.201	0.069
-88.728	615.049	-0.050	0.122
-87.713	358.917	-0.081	0.159
-86.699	-200.000	-0.008	-0.280
-85.684	18.252	-0.275	-0.215
-84.670	800.000	0.069	-0.294
-83.655	-157.948	0.237	0.014
-82.640	-114.232	0.387	-0.073
-81.626	77.624	0.207	0.216
-80.611	-98.979	0.149	-0.037
-79.597	39.483	-0.174	-0.153
-78.582	-80.222	-0.343	0.113
-77.567	800.000	0.063	0.188
-76.553	16.362	-0.111	0.086
-75.538	-78.648	0.233	-0.078
-74.524	-83.660	0.119	0.037
-73.509	102.931	0.306	0.351
-72.494	-200.000	0.000	0.030
-71.480	48.395	0.219	-0.201
-70.465	-148.249	-0.367	-0.030
-69.451	-96.797	0.155	-0.040
-68.436	18.686	0.182	0.142
-67.422	393.109	0.118	-0.241
-66.407	-2.672	-0.125	0.085
-65.392	-19.014	-0.234	-0.142
-64.378	120.764	-0.154	0.187
-63.363	-200.000	0.014	0.190
-62.349	800.000	0.039	-0.149
-61.334	83.005	-0.938	-0.999
-60.319	610.909	0.318	0.778
-59.305	590.337	-0.583	-1.407
-58.290	363.454	0.567	1.114
-57.276	618.118	0.592	1.455
-56.261	-200.000	113.781	668.630
-55.246	557.746	1514.297	3572.645
-54.232	178.582	2689.618	3843.725
-53.217	106.423	2283.291	2647.971
-52.203	37.640	1891.272	1642.232
-51.188	31.447	1680.968	1412.944
-50.173	28.885	1638.785	1358.525
-49.159	51.663	1695.142	1576.782
-48.144	50.114	1708.520	1577.569
-47.130	31.008	1666.124	1396.954
-46.115	28.183	1651.914	1363.965
-45.100	27.970	1647.019	1358.287
-44.086	27.929	1644.511	1355.857
-43.071	27.975	1641.830	1353.931
-42.057	28.010	1639.517	1352.230
-41.042	28.037	1637.301	1350.552
-40.027	28.028	1635.284	1348.765
-39.013	28.068	1633.320	1347.386
-37.998	27.874	1632.415	1345.155
-36.984	27.953	1630.845	1344.396
-35.969	28.098	1629.063	1343.938
-34.954	28.159	1627.689	1343.195
-33.940	28.072	1625.854	1340.995
-32.925	28.067	1624.087	1339.447
-31.911	28.154	1622.078	1338.369
-30.896	28.034	1620.508	1336.146
-29.881	28.128	1618.682	1335.276
-28.867	28.039	1617.320	1333.450
-27.852	28.109	1615.829	1332.676
-26.838	28.089	1614.441	1331.331
-25.823	28.056	1613.247	1330.051
-24.809	28.143	1611.648	1329.312
-23.794	28.139	1610.146	1327.992
-22.779	28.200	1608.806	1327.281
-21.765	28.182	1606.919	1325.537
-20.750	28.161	1606.223	1324.759
-19.736	28.225	1604.539	1323.782
-18.721	28.310	1603.034	1323.099
-17.706	28.093	1602.083	1320.701
-16.692	28.161	1600.212	1319.593
-15.677	28.231	1598.592	1318.706
-14.663	28.219	1597.520	1317.689
-13.648	28.139	1595.999	1315.806
-12.633	28.186	1594.877	1315.165
-11.619	28.129	1593.187	1313.309
-10.604	28.248	1591.588	1312.791
-9.590	28.201	1590.625	1311.611
-8.575	28.216	1589.281	1310.558
-7.560	28.174	1587.993	1309.141
-6.546	28.091	1587.323	1307.946
-5.531	28.156	1585.933	1307.209
-4.517	28.190	1584.578	1306.285
-3.502	28.128	1584.023	1305.335
-2.487	28.196	1581.630	1303.796
-1.473	27.895	1570.345	1292.312
-0.458	24.918	1551.024	1255.516
0.556	22.094	1552.513	1223.986
1.571	19.767	1576.376	1226.205
2.586	19.214	1588.847	1231.847
3.600	16.887	1534.281	1173.346
4.615	9.851	1427.320	1045.998
5.629	4.011	1367.049	965.410
6.644	3.031	1360.400	954.545
7.659	3.045	1358.977	953.548
8.673	2.877	1358.152	951.844
9.688	3.086	1356.067	951.594
10.702	3.066	1353.112	949.311
11.717	5.678	1358.186	968.955
12.731	13.214	1372.002	1025.653
13.746	19.326	1381.773	1070.953
14.761	20.495	1382.507	1078.685
15.775	19.794	1380.730	1072.856
16.790	18.792	1378.059	1064.479
17.804	18.039	1375.752	1057.946
18.819	17.781	1374.147	1055.020
19.834	17.581	1373.550	1053.233
20.848	17.407	1372.526	1051.277
21.863	17.179	1371.339	1048.870
22.877	17.071	1370.080	1047.148
23.892	17.027	1369.319	1046.205
24.907	17.011	1368.249	1045.192
25.921	16.889	1368.055	1044.205
26.936	16.973	1366.726	1043.612
27.950	17.036	1365.951	1043.316
28.965	17.105	1365.111	1043.006
29.980	17.331	1363.635	1043.173
30.994	17.326	1362.392	1042.096
32.009	17.385	1360.948	1041.262
33.023	17.447	1360.019	1040.840
34.038	17.255	1359.196	1038.944
35.053	17.202	1357.490	1037.224
36.067	17.227	1356.336	1036.401
37.082	17.241	1355.122	1035.468
38.096	17.268	1354.539	1035.099
39.111	17.333	1353.477	1034.591
40.126	17.158	1352.870	1032.971
41.140	16.940	1351.804	1030.739
42.155	16.877	1351.053	1029.692
43.169	16.803	1350.953	1029.076
44.184	16.777	1350.455	1028.448
45.199	16.726	1350.204	1027.854
46.213	16.901	1349.874	1028.576
47.228	17.061	1348.791	1028.627
48.242	17.129	1347.844	1028.225
49.257	17.172	1346.110	1027.072
50.271	17.187	1344.324	1025.714
51.286	17.099	1343.767	1024.662
52.301	17.133	1341.956	1023.396
53.315	17.023	1340.969	1021.891
54.330	16.925	1339.796	1020.318
55.344	16.894	1338.590	1019.123
56.359	16.917	1337.648	1018.455
57.374	16.830	1337.060	1017.394
58.388	16.894	1335.741	1016.683
59.403	16.730	1335.678	1015.564
60.417	16.760	1334.555	1014.797
61.432	16.628	1333.831	1013.367
62.447	16.639	1332.900	1012.633
63.461	16.533	1331.539	1010.879
64.476	16.609	1330.316	1010.316
65.490	16.557	1329.535	1009.319
66.505	16.665	1327.415	1008.266
67.520	16.662	1326.459	1007.434
68.534	16.651	1325.700	1006.700
69.549	16.576	1324.627	1005.354
70.563	16.636	1323.366	1004.665
71.578	16.461	1322.409	1002.809
72.593	16.469	1321.369	1001.980
73.607	16.405	1320.576	1000.911
74.622	16.453	1319.934	1000.620
75.636	16.498	1319.249	1000.277
76.651	16.510	1319.033	1000.097
77.666	16.559	1318.429	999.838
78.680	16.504	1318.028	999.123
79.695	16.586	1317.791	999.338
80.709	16.858	1316.382	999.787
81.724	16.811	1315.644	998.857
82.739	16.884	1314.629	998.432
83.753	16.979	1314.183	998.560
84.768	17.199	1313.088	998.939
85.782	17.319	1312.151	998.843
86.797	17.192	1310.579	996.807
87.812	17.195	1309.312	995.777
88.826	17.111	1308.255	994.394
89.841	17.099	1307.734	993.840
90.855	17.165	1306.438	993.153
91.870	17.283	1305.589	993.109
92.884	17.285	1305.090	992.652
93.899	17.209	1304.675	991.804
94.914	17.409	1303.553	992.028
95.928	17.321	1302.952	990.974
96.943	17.240	1301.763	989.507
97.957	17.299	1300.628	988.899
98.972	17.209	1299.724	987.603
99.987	17.189	1298.682	986.606
101.001	17.155	1297.677	985.559
102.016	17.311	1296.757	985.680
103.030	17.146	1295.981	984.047
104.045	17.285	1294.633	983.742
105.060	17.091	1293.535	981.697
106.074	16.907	1291.824	979.246
107.089	16.750	1290.288	977.094
108.103	16.660	1289.194	975.660
109.118	16.723	1287.762	974.850
110.133	16.620	1286.494	973.213
111.147	16.685	1285.677	972.882
112.162	16.693	1284.310	971.805
113.176	16.888	1282.937	971.800
114.191	16.846	1282.492	971.134
115.206	16.790	1281.268	969.803
116.220	16.855	1279.678	968.884
117.235	16.794	1278.842	967.816
118.249	16.711	1277.926	966.567
119.264	16.801	1275.932	965.487
120.279	16.710	1275.324	964.423
121.293	16.620	1274.583	963.262
122.308	16.521	1273.427	961.741
123.322	16.518	1272.486	960.930
124.337	16.456	1271.599	959.824
125.352	16.575	1270.359	959.476
126.366	16.510	1269.288	958.213
127.381	16.475	1268.116	957.043
128.395	16.533	1267.082	956.510
129.410	16.630	1265.951	956.121
130.424	16.656	1265.861	956.112
131.439	16.703	1264.695	955.414
132.454	16.851	1263.721	955.427
133.468	16.828	1262.918	954.603
134.483	16.871	1262.173	954.202
135.497	16.799	1261.310	953.059
136.512	16.885	1259.962	952.438
137.527	16.824	1258.763	951.103
138.541	16.967	1257.078	950.550
139.556	16.909	1256.432	949.650
140.570	16.929	1255.597	949.047
141.585	17.149	1254.410	949.299
142.600	17.178	1253.046	948.341
143.614	17.199	1252.566	948.014
144.629	17.229	1251.386	947.202
145.643	17.223	1250.233	946.213
146.658	17.072	1248.534	944.005
147.673	16.941	1247.558	942.454
148.687	16.884	1246.395	941.177
149.702	16.875	1245.225	940.158
150.716	16.857	1243.928	939.000
151.731	16.867	1242.526	937.914
152.746	16.916	1241.462	937.294
153.760	17.025	1239.979	936.698
154.775	17.168	1239.222	936.832
155.789	17.186	1238.371	936.201
156.804	17.031	1237.425	934.549
157.819	17.181	1236.238	934.399
158.833	17.222	1235.502	933.983
159.848	17.305	1234.531	933.622
160.862	17.354	1233.609	933.112
161.877	17.170	1232.181	930.938
162.892	17.011	1231.065	929.143
163.906	17.003	1229.961	928.186
164.921	16.957	1229.152	927.241
165.935	17.052	1228.450	927.150
166.950	17.084	1227.623	926.616
167.964	17.095	1227.325	926.370
168.979	17.005	1226.149	924.912
169.994	16.967	1225.570	924.186
171.008	17.134	1224.733	924.380
172.023	17.149	1224.048	923.862
173.037	17.288	1223.793	924.345
174.052	17.257	1222.133	922.843
175.067	17.037	1220.975	920.691
176.081	16.981	1220.069	919.622
177.096	16.963	1219.536	919.043
178.110	17.079	1217.991	918.422
179.125	17.094	1216.975	917.660
180.140	17.125	1215.597	916.704
181.154	17.268	1214.878	916.853
182.169	17.272	1213.966	916.103
183.183	17.282	1212.729	915.145
184.198	17.256	1211.922	914.317
185.213	17.291	1210.649	913.464
186.227	17.304	1209.248	912.393
187.242	17.378	1208.367	912.043
188.256	17.493	1207.434	911.877
189.271	17.495	1206.855	911.367
190.286	17.333	1205.564	909.449
191.300	17.073	1204.327	907.046
192.315	16.934	1203.905	905.905
193.329	17.074	1202.815	905.751
194.344	17.020	1202.507	905.152
195.359	17.164	1201.801	905.307
196.373	17.268	1201.188	905.319
197.388	17.376	1201.155	905.787
198.402	17.503	1200.674	906.020
199.417	17.608	1200.093	906.065
200.432	17.726	1199.304	906.010
201.446	17.843	1198.557	905.988
202.461	17.806	1197.571	904.966
203.475	17.883	1196.719	904.654
204.490	17.734	1195.046	902.518
205.504	17.612	1193.450	900.588
206.519	17.530	1192.479	899.342
207.534	17.455	1191.705	898.285
208.548	17.422	1191.079	897.557
209.563	17.577	1189.811	897.340
210.577	17.554	1188.987	896.517
211.592	17.562	1188.689	896.255
212.607	17.663	1187.616	895.902
213.621	17.808	1186.797	895.961
214.636	17.687	1185.632	894.372
215.650	17.712	1184.810	893.804
216.665	17.810	1184.241	893.806
217.680	17.882	1183.330	893.418
218.694	17.861	1182.828	892.850
219.709	17.821	1181.781	891.769
220.723	17.803	1180.835	890.885
221.738	17.859	1180.038	890.498
222.753	17.753	1179.440	889.411
223.767	17.812	1178.848	889.197
224.782	17.972	1178.378	889.595
225.796	18.134	1177.669	889.825
226.811	18.106	1176.666	888.841
227.826	17.915	1175.870	887.169
228.840	17.950	1174.979	886.604
229.855	17.787	1174.682	885.452
230.869	17.750	1173.618	884.380
231.884	17.811	1172.867	884.051
232.899	17.702	1172.181	882.891
233.913	17.695	1171.371	882.169
234.928	17.734	1170.382	881.545
235.942	17.643	1169.585	880.400
236.957	17.625	1169.128	879.882
237.972	17.683	1168.249	879.442
238.986	17.705	1167.637	879.018
240.001	17.684	1167.057	878.395
241.015	17.831	1166.067	878.328
242.030	17.768	1165.295	877.350
243.045	17.864	1164.280	877.000
244.059	17.910	1163.647	876.683
245.074	17.955	1162.916	876.280
246.088	18.050	1162.254	876.192
247.103	18.196	1161.040	875.950
248.117	18.185	1160.806	875.637
249.132	18.408	1159.975	876.074
250.147	18.430	1159.803	875.979
251.161	18.537	1159.248	876.030
252.176	18.522	1158.614	875.394
253.190	18.657	1157.799	875.394
254.205	18.723	1157.425	875.367
255.220	18.702	1156.729	874.659
256.234	18.604	1156.052	873.572
257.249	18.759	1155.133	873.586
258.263	18.695	1154.350	872.592
259.278	18.732	1154.080	872.500
260.293	18.728	1153.269	871.786
261.307	18.785	1152.866	871.696
262.322	18.806	1152.136	871.171
263.336	18.791	1151.566	870.586
264.351	18.811	1151.045	870.219
265.366	18.962	1149.888	870.033
266.380	18.842	1149.672	869.181
267.395	18.833	1148.605	868.256
268.409	18.599	1148.036	866.565
269.424	18.691	1147.010	866.181
270.439	18.689	1146.662	865.830
271.453	18.664	1146.010	865.133
272.468	18.512	1144.893	863.449
273.482	18.518	1144.302	862.959
274.497	18.543	1143.680	862.536
275.512	18.610	1143.029	862.306
276.526	18.660	1141.689	861.470
277.541	18.684	1141.367	861.273
278.555	18.709	1140.686	860.805
279.570	18.935	1139.882	861.256
280.585	18.859	1139.357	860.403
281.599	19.019	1137.644	859.834
282.614	18.792	1137.119	858.227
283.628	18.686	1136.236	856.956
284.643	18.651	1135.481	856.132
285.657	18.798	1134.592	856.123
286.672	18.800	1133.910	855.538
287.687	18.793	1133.217	854.907
288.701	18.749	1132.238	853.873
289.716	18.808	1131.256	853.351
290.730	18.890	1130.391	853.031
291.745	18.739	1129.936	851.862
292.760	18.968	1129.522	852.613
293.774	18.968	1129.514	852.529
294.789	19.032	1128.153	851.743
295.803	19.018	1127.895	851.404
296.818	18.912	1126.977	850.113
297.833	18.870	1125.876	848.998
298.847	18.863	1125.474	848.585
299.862	18.789	1124.517	847.425
300.876	18.992	1123.752	847.773
301.891	19.077	1123.311	847.783
302.906	19.232	1122.369	847.758
303.920	19.232	1122.282	847.620
304.935	19.204	1121.427	846.761
305.949	19.458	1120.712	847.393
306.964	19.316	1120.339	846.341
307.979	19.313	1119.015	845.252
308.993	19.175	1118.248	843.922
310.008	19.216	1117.839	843.736
311.022	19.370	1117.003	843.784
312.037	19.298	1116.075	842.659
313.052	19.225	1115.126	841.512
314.066	19.117	1113.928	840.007
315.081	19.053	1113.233	839.094
316.095	18.992	1112.949	838.511
317.110	19.021	1111.742	837.666
318.125	19.071	1111.249	837.465
319.139	19.040	1110.076	836.356
320.154	18.980	1109.941	835.890
321.168	19.047	1109.372	835.712
322.183	19.146	1108.575	835.515
323.197	19.104	1108.163	834.927
324.212	19.188	1107.334	834.637
325.227	19.189	1106.996	834.312
326.241	19.164	1106.360	833.641
327.256	19.117	1105.426	832.634
328.270	19.078	1104.667	831.802
329.285	19.103	1103.758	831.162
330.300	19.173	1102.341	830.359
331.314	18.971	1101.906	828.986
332.329	19.095	1101.066	828.879
333.343	19.272	1099.969	828.831
334.358	19.319	1099.473	828.607
335.373	19.359	1098.824	828.239
336.387	19.412	1098.011	827.805
337.402	19.441	1097.184	827.250
338.416	19.420	1096.784	826.775
339.431	19.540	1095.632	826.406
340.446	19.626	1095.393	826.564
341.460	19.821	1094.820	826.993
342.475	19.665	1094.012	825.561
343.489	19.790	1092.992	825.315
344.504	19.988	1092.302	825.667
345.519	19.995	1091.416	824.957
346.533	19.878	1091.033	824.039
347.548	19.940	1090.353	823.746
348.562	19.910	1089.137	822.610
349.577	19.676	1088.372	820.849
350.592	19.652	1087.491	819.997
351.606	19.555	1086.742	818.902
352.621	19.510	1085.996	818.053
353.635	19.368	1085.581	816.993
354.650	19.517	1084.851	817.078
355.665	19.545	1084.166	816.623
356.679	19.715	1083.287	816.695
357.694	19.681	1082.854	816.132
358.708	19.872	1082.145	816.428
359.723	19.876	1081.463	815.862
360.738	19.755	1081.141	814.974
361.752	19.707	1080.803	814.421
362.767	19.796	1080.067	814.216
363.781	19.840	1079.461	813.890
364.796	19.885	1078.693	813.451
365.810	20.002	1078.301	813.634
366.825	20.126	1077.699	813.689
367.840	20.196	1077.509	813.803
368.854	20.311	1077.111	813.969
369.869	20.162	1076.099	812.433
370.883	20.124	1075.009	811.362
371.898	19.976	1074.585	810.279
372.913	19.987	1074.056	809.858
373.927	20.055	1073.747	809.872
374.942	20.199	1073.147	810.019
375.956	20.210	1072.418	809.448
376.971	20.256	1071.617	808.987
377.986	20.184	1071.161	808.238
379.000	20.318	1070.793	808.513
380.015	20.356	1070.174	808.150
381.029	20.693	1068.953	808.722
382.044	20.407	1069.025	807.379
383.059	20.383	1067.861	806.316
384.073	20.442	1067.106	805.949
385.088	20.373	1066.386	805.013
386.102	20.427	1065.414	804.457
387.117	20.301	1064.429	803.058
388.132	20.232	1063.092	801.661
389.146	20.149	1062.394	800.681
390.161	20.107	1062.150	800.234
391.175	20.195	1061.255	799.892
392.190	20.363	1060.303	799.879
393.205	20.346	1059.623	799.217
394.219	20.429	1059.018	799.070
395.234	20.301	1058.074	797.698
396.248	20.213	1056.994	796.410
397.263	20.335	1055.701	795.924
398.278	20.212	1055.269	794.968
399.292	20.197	1054.320	794.110
400.307	20.091	1053.949	793.275
401.321	20.026	1053.372	792.475
402.336	20.135	1052.242	792.054
403.350	20.067	1052.218	791.654
404.365	20.101	1051.281	791.032
405.380	20.341	1050.721	791.636
406.394	20.243	1050.102	790.652
407.409	20.503	1049.212	791.099
408.423	20.644	1048.081	790.816
409.438	20.699	1047.897	790.857
410.453	20.740	1047.042	790.327
411.467	20.752	1046.669	790.032
412.482	20.793	1046.146	789.754
413.496	20.753	1045.036	788.666
414.511	20.893	1044.737	789.002
415.526	21.026	1044.546	789.389
416.540	21.008	1044.167	788.951
417.555	20.965	1043.268	788.009
418.569	20.892	1042.827	787.275
419.584	20.767	1042.648	786.509
420.599	20.750	1042.201	786.025
421.613	154.860	1403.652	1796.635
422.628	141.737	1456.294	1796.742
