DTS Sentinel unit serial number:	SN413079Multiplexer serial number:	ORYXHardware model number:	OX4-SRSoftware version number:	ORYX F/W v4.00 Oryx Data Collector v3.7.2.0data status	okinstallation	princeton_trtdifferential loss correction	single-endedforward channel	channel 2reverse channel	N/Adate	2019/09/19time	07:31:35forward acquisition time	60.00reverse acquisition time	0.00gamma	496.2192k internal	0.2351k external	0.2351temperature offset calibration	1.0011default loss term (dB/km)	0.3790temperature slope calibration	1.0000multiplexer offset coefficient	1.0000multiplexer slope coefficient	1.0000fibre end	0.00T internal ref (°C)	19.25T ext. ref 1 (°C)	0.55T ext. ref 2 (°C)	13.98length (m)	temperature (°C)	Stokes	anti-Stokes-747.200	-200.000	0.016	-0.241
-746.185	-119.742	-0.281	-0.048
-745.171	800.000	-0.111	0.337
-744.156	-37.415	0.127	-0.068
-743.142	-200.000	0.002	-0.057
-742.127	-65.677	-0.097	-0.039
-741.112	-18.175	0.386	0.241
-740.098	800.000	-0.058	0.226
-739.083	-153.439	0.271	0.019
-738.069	-135.722	-0.367	0.043
-737.054	-200.000	-0.014	-0.187
-736.039	-59.904	-0.140	0.060
-735.025	109.963	0.307	0.368
-734.010	-63.517	-0.678	-0.278
-732.996	-200.000	0.031	0.208
-731.981	-182.866	0.304	0.005
-730.966	62.273	-0.352	-0.351
-729.952	94.325	0.221	-0.250
-728.937	800.000	-0.019	-0.056
-727.923	-129.617	-0.222	0.031
-726.908	-200.000	-0.029	0.222
-725.894	-33.290	-0.091	-0.050
-724.879	155.870	-0.045	-0.061
-723.864	99.253	-0.065	-0.075
-722.850	-84.166	-0.312	-0.099
-721.835	-200.000	0.001	-0.156
-720.821	-200.000	-0.045	-0.376
-719.806	172.805	0.135	0.193
-718.791	800.000	-0.117	-0.382
-717.777	274.087	-0.037	-0.066
-716.762	82.895	0.137	0.149
-715.748	-73.647	0.092	-0.033
-714.733	-109.235	-0.306	0.065
-713.718	-200.000	-0.000	-0.101
-712.704	800.000	0.022	-0.061
-711.689	51.604	-0.156	0.148
-710.675	10.078	-0.196	-0.148
-709.660	100.220	0.081	-0.093
-708.645	127.794	-0.299	0.379
-707.631	559.226	0.066	-0.159
-706.616	-200.000	-0.054	0.339
-705.602	-200.000	-0.000	0.072
-704.587	85.880	0.177	-0.194
-703.572	446.093	0.211	-0.463
-702.558	19.131	0.103	0.082
-701.543	800.000	0.028	0.099
-700.529	428.035	-0.038	-0.083
-699.514	102.169	-0.232	0.270
-698.499	-200.000	0.014	0.353
-697.485	-200.000	0.070	-0.357
-696.470	204.999	0.183	-0.283
-695.456	20.543	0.301	0.242
-694.441	640.529	0.122	-0.309
-693.426	185.760	0.151	0.224
-692.412	26.730	-0.216	0.180
-691.397	-21.964	0.181	0.109
-690.383	-73.144	-0.270	0.098
-689.368	-113.071	0.215	0.042
-688.354	-200.000	0.008	-0.496
-687.339	800.000	-0.020	0.066
-686.324	800.000	0.079	-0.235
-685.310	-200.000	0.087	0.467
-684.295	70.870	-0.120	0.124
-683.281	21.548	-0.255	-0.207
-682.266	325.595	-0.075	0.142
-681.251	57.919	0.151	-0.147
-680.237	24.312	0.286	0.235
-679.222	-141.677	0.273	0.027
-678.208	-27.317	0.032	-0.019
-677.193	-100.998	0.349	0.085
-676.178	-200.000	0.006	0.190
-675.164	553.327	-0.070	0.167
-674.149	-9.479	-0.226	-0.150
-673.135	267.108	0.125	-0.217
-672.120	-73.861	-0.121	0.044
-671.105	-200.000	0.022	0.298
-670.091	-59.789	-0.171	-0.073
-669.076	-11.109	0.228	-0.149
-668.062	-159.258	-0.394	0.022
-667.047	-200.000	0.017	0.076
-666.032	-200.000	-0.033	0.223
-665.018	110.832	-0.140	-0.167
-664.003	53.523	-0.107	0.102
-662.989	-200.000	-0.005	-0.405
-661.974	800.000	0.104	-0.289
-660.959	-128.450	-0.465	-0.066
-659.945	-98.941	-0.300	0.076
-658.930	171.248	0.183	0.261
-657.916	-148.061	0.272	0.022
-656.901	-142.763	0.246	0.024
-655.886	-200.000	0.009	-0.262
-654.872	-169.080	-0.310	-0.011
-653.857	-25.901	0.038	0.022
-652.843	90.977	-0.033	-0.037
-651.828	-200.000	0.005	0.124
-650.814	336.865	0.173	0.334
-649.799	-200.000	-0.022	0.362
-648.784	-50.664	0.140	0.066
-647.770	-200.000	0.071	0.392
-646.755	-2.577	0.186	-0.129
-645.741	76.215	-0.275	-0.290
-644.726	291.613	-0.239	0.433
-643.711	185.493	0.026	-0.038
-642.697	-200.000	0.013	0.167
-641.682	-79.566	-0.198	0.066
-640.668	416.226	0.032	-0.067
-639.653	262.560	-0.095	-0.164
-638.638	26.227	-0.314	0.260
-637.624	449.945	0.046	0.101
-636.609	-200.000	0.002	-0.050
-635.595	22.711	-0.237	0.193
-634.580	4.909	-0.150	0.110
-633.565	200.104	0.091	-0.140
-632.551	-35.506	-0.208	0.112
-631.536	800.000	0.049	-0.151
-630.522	-141.877	-0.052	0.005
-629.507	35.564	-0.222	0.194
-628.492	-86.012	-0.272	0.084
-627.478	-174.540	-0.040	-0.001
-626.463	77.496	-0.176	0.187
-625.449	-54.777	-0.385	0.173
-624.434	-84.664	0.082	0.026
-623.419	-124.475	-0.296	-0.046
-622.405	800.000	0.055	-0.227
-621.390	-69.753	0.015	0.006
-620.376	800.000	-0.103	-0.288
-619.361	-170.991	-0.279	-0.009
-618.346	50.109	0.242	-0.227
-617.332	800.000	-0.069	0.212
-616.317	111.473	0.049	0.059
-615.303	-115.412	0.141	0.026
-614.288	745.517	0.038	0.101
-613.273	-107.800	0.046	0.010
-612.259	491.801	-0.036	0.083
-611.244	134.098	-0.243	-0.312
-610.230	-3.111	-0.205	-0.142
-609.215	-45.801	0.318	0.156
-608.201	-101.562	0.074	0.018
-607.186	-151.655	-0.396	0.029
-606.171	-1.240	0.137	0.096
-605.157	116.748	-0.108	0.131
-604.142	800.000	0.122	-0.497
-603.128	210.435	-0.221	-0.345
-602.113	67.012	0.272	0.275
-601.098	148.542	0.075	0.101
-600.084	800.000	0.113	-0.329
-599.069	-43.672	-0.161	0.081
-598.055	18.979	0.235	0.187
-597.040	-8.684	-0.144	0.096
-596.025	-125.821	0.073	0.011
-595.011	47.553	0.172	0.159
-593.996	800.000	0.127	0.380
-592.982	-102.709	0.017	0.004
-591.967	169.178	-0.231	-0.327
-590.952	-125.314	0.325	-0.049
-589.938	-66.156	-0.310	-0.123
-588.923	-200.000	-0.082	-0.358
-587.909	195.877	-0.104	-0.157
-586.894	64.543	0.150	-0.150
-585.879	9.323	0.031	-0.023
-584.865	73.536	0.207	-0.215
-583.850	-113.483	-0.152	-0.029
-582.836	205.057	-0.245	0.377
-581.821	-79.748	-0.463	-0.155
-580.806	-28.345	0.162	-0.092
-579.792	-41.040	0.050	-0.025
-578.777	9.801	0.309	0.232
-577.763	697.511	-0.294	-0.765
-576.748	45.510	0.237	-0.217
-575.733	-164.643	-0.386	0.017
-574.719	-86.861	-0.264	-0.080
-573.704	-200.000	-0.029	-0.126
-572.690	-33.936	0.108	-0.059
-571.675	-170.117	-0.398	-0.014
-570.661	381.276	-0.116	-0.236
-569.646	-20.812	0.097	-0.059
-568.631	-129.073	-0.125	0.017
-567.617	-136.077	-0.091	-0.011
-566.602	313.191	0.020	0.037
-565.588	800.000	0.027	-0.082
-564.573	-154.666	-0.147	0.010
-563.558	800.000	0.033	-0.112
-562.544	-200.000	-0.010	-0.199
-561.529	-150.681	-0.355	0.027
-560.515	10.947	-0.180	-0.136
-559.500	171.832	0.169	-0.241
-558.485	601.517	0.081	-0.199
-557.471	-153.098	0.257	-0.018
-556.456	-113.304	-0.147	0.029
-555.442	64.740	-0.262	0.261
-554.427	-200.000	-0.012	-0.142
-553.412	-10.659	-0.084	0.055
-552.398	-120.384	-0.324	0.055
-551.383	800.000	0.036	0.107
-550.369	-200.000	-0.027	-0.229
-549.354	-200.000	-0.016	0.091
-548.339	-200.000	0.021	0.284
-547.325	800.000	-0.014	0.062
-546.310	110.876	0.153	0.182
-545.296	241.797	0.010	0.016
-544.281	-145.593	0.292	-0.026
-543.266	474.307	-0.108	0.242
-542.252	34.921	-0.109	0.094
-541.237	-85.982	0.205	-0.063
-540.223	-200.000	-0.019	-0.400
-539.208	-200.000	-0.006	0.043
-538.193	-80.605	0.093	-0.031
-537.179	-154.115	-0.165	0.011
-536.164	77.918	-0.199	0.210
-535.150	-200.000	-0.066	0.293
-534.135	-78.739	0.092	0.031
-533.121	-71.452	-0.151	0.056
-532.106	-56.743	0.219	-0.096
-531.091	-165.298	-0.125	0.005
-530.077	-55.090	-0.150	0.067
-529.062	-200.000	0.008	0.145
-528.048	-200.000	-0.054	-0.327
-527.033	-200.000	0.013	0.150
-526.018	91.742	0.327	-0.364
-525.004	-32.744	0.195	0.107
-523.989	-105.227	0.181	-0.041
-522.975	139.893	0.187	0.244
-521.960	-175.386	-0.201	-0.005
-520.945	47.221	0.294	-0.270
-519.931	-200.000	0.086	0.405
-518.916	-62.949	-0.171	-0.070
-517.902	-23.333	-0.075	-0.045
-516.887	405.175	0.096	0.200
-515.872	-75.316	0.412	0.145
-514.858	-48.742	0.232	-0.110
-513.843	-162.595	-0.371	-0.018
-512.829	7.308	0.157	0.116
-511.814	-57.630	0.252	0.109
-510.799	-200.000	-0.004	0.080
-509.785	800.000	-0.070	-0.202
-508.770	-83.123	-0.292	0.093
-507.756	-91.795	0.065	0.018
-506.741	-200.000	-0.055	0.248
-505.726	168.182	-0.115	0.161
-504.712	-87.962	-0.066	-0.019
-503.697	-200.000	-0.025	-0.276
-502.683	494.185	0.168	-0.380
-501.668	-200.000	0.038	-0.326
-500.653	-91.893	-0.026	-0.007
-499.639	4.510	-0.199	0.145
-498.624	-200.000	0.020	0.107
-497.610	-103.883	-0.128	-0.029
-496.595	-133.040	-0.220	0.028
-495.581	-69.715	-0.380	-0.143
-494.566	39.920	-0.122	-0.108
-493.551	-137.409	0.198	0.022
-492.537	-200.000	-0.055	-0.328
-491.522	800.000	-0.093	-0.305
-490.508	-121.555	-0.142	0.023
-489.493	1.595	-0.024	0.017
-488.478	40.310	0.343	-0.305
-487.464	-200.000	0.011	0.089
-486.449	197.385	-0.060	-0.090
-485.435	130.242	0.092	0.117
-484.420	-55.258	-0.162	0.072
-483.405	-110.244	0.251	0.052
-482.391	224.616	0.163	-0.260
-481.376	381.334	-0.048	0.097
-480.362	-188.395	-0.063	-0.001
-479.347	-200.000	0.017	-0.205
-478.332	-92.208	-0.194	-0.054
-477.318	130.975	-0.318	0.403
-476.303	-38.009	0.486	0.255
-475.289	-14.056	0.072	0.046
-474.274	507.326	-0.062	0.142
-473.259	-127.375	-0.231	0.033
-472.245	27.630	0.423	0.352
-471.230	-200.000	0.177	0.000
-470.216	137.072	0.090	0.116
-469.201	800.000	0.053	-0.211
-468.186	-15.696	0.051	0.032
-467.172	-67.099	-0.221	0.086
-466.157	-200.000	-0.036	-0.179
-465.143	-200.000	-0.054	-0.347
-464.128	446.286	0.109	-0.236
-463.113	-11.459	0.144	0.094
-462.099	-156.785	-0.417	0.025
-461.084	-147.894	0.196	0.016
-460.070	-164.213	0.203	-0.009
-459.055	-132.479	-0.180	-0.023
-458.040	-200.000	-0.056	-0.271
-457.026	-153.245	-0.324	-0.022
-456.011	324.228	-0.039	0.074
-454.997	68.281	0.121	-0.123
-453.982	730.731	-0.062	-0.164
-452.968	293.666	-0.084	0.151
-451.953	-34.230	-0.286	-0.155
-450.938	131.218	-0.100	-0.127
-449.924	-7.210	0.303	-0.203
-448.909	-70.145	0.089	-0.033
-447.895	-106.707	0.278	0.061
-446.880	348.321	-0.129	-0.252
-445.865	-200.000	-0.006	0.160
-444.851	-164.046	0.219	-0.010
-443.836	-9.817	0.036	0.024
-442.822	-42.889	0.253	0.127
-441.807	43.618	-0.115	0.104
-440.792	70.627	-0.149	-0.152
-439.778	-127.647	-0.236	0.034
-438.763	-22.821	-0.346	-0.206
-437.749	-39.755	-0.282	-0.145
-436.734	800.000	-0.079	-0.322
-435.719	3.780	-0.259	0.186
-434.705	-62.151	0.222	-0.091
-433.690	800.000	0.081	-0.230
-432.676	800.000	-0.044	0.167
-431.661	-83.904	-0.100	0.031
-430.646	-51.983	0.350	0.160
-429.632	-131.302	0.170	-0.022
-428.617	271.181	-0.094	0.163
-427.603	-200.000	0.027	-0.213
-426.588	-157.384	0.192	-0.011
-425.573	-107.307	-0.477	-0.103
-424.559	-200.000	0.016	-0.133
-423.544	-177.633	-0.178	0.004
-422.530	-159.475	-0.175	-0.010
-421.515	334.031	0.124	0.237
-420.500	-200.000	-0.001	0.049
-419.486	93.281	-0.257	0.286
-418.471	-116.154	-0.258	-0.047
-417.457	389.590	-0.125	0.255
-416.442	650.439	0.055	0.139
-415.428	126.566	0.184	0.230
-414.413	-200.000	0.009	-0.215
-413.398	-25.614	0.438	0.255
-412.384	78.860	-0.091	0.096
-411.369	73.943	0.067	-0.069
-410.355	518.811	0.147	0.339
-409.340	9.119	0.342	-0.255
-408.325	-200.000	-0.022	-0.171
-407.311	-85.236	0.254	0.078
-406.296	-24.959	0.104	0.061
-405.282	49.891	-0.028	-0.026
-404.267	91.807	0.315	0.349
-403.252	229.504	-0.103	0.165
-402.238	-154.644	0.187	-0.012
-401.223	-131.872	0.295	0.038
-400.209	-20.714	0.122	0.074
-399.194	-125.124	-0.238	0.036
-398.179	266.932	0.141	-0.243
-397.165	-113.237	-0.239	-0.046
-396.150	146.250	-0.164	0.216
-395.136	10.287	-0.197	-0.147
-394.121	-99.794	0.149	-0.037
-393.106	-143.817	0.044	0.004
-392.092	-64.542	0.063	0.025
-391.077	179.494	-0.222	0.320
-390.063	-200.000	-0.018	0.278
-389.048	76.066	-0.183	0.191
-388.033	-3.110	0.131	0.090
-387.019	382.645	0.055	-0.111
-386.004	-72.980	-0.035	0.013
-384.990	-136.946	-0.201	0.023
-383.975	-3.920	-0.200	-0.136
-382.960	-200.000	-0.022	-0.375
-381.946	-38.517	0.046	-0.024
-380.931	129.893	0.054	-0.068
-379.917	69.698	0.070	0.071
-378.902	-144.672	0.368	0.033
-377.888	-13.840	0.401	0.255
-376.873	-74.425	-0.248	-0.088
-375.858	-84.948	0.095	0.029
-374.844	132.883	0.087	0.111
-373.829	566.634	0.026	0.063
-372.815	84.336	-0.078	-0.084
-371.800	110.027	-0.052	0.061
-370.785	780.368	-0.063	0.170
-369.771	-61.902	0.462	0.190
-368.756	-105.444	0.163	0.036
-367.742	800.000	-0.158	-0.508
-366.727	-86.407	0.131	-0.040
-365.712	-200.000	-0.025	-0.190
-364.698	-153.344	-0.209	-0.014
-363.683	295.003	0.255	-0.459
-362.669	-116.632	0.127	-0.023
-361.654	526.417	0.076	-0.176
-360.639	-51.890	0.219	0.100
-359.625	-49.250	0.315	0.148
-358.610	-84.222	-0.152	-0.047
-357.596	-121.095	-0.059	-0.010
-356.581	800.000	-0.065	-0.241
-355.566	124.394	-0.093	0.114
-354.552	285.686	0.179	-0.317
-353.537	-7.737	0.069	-0.046
-352.523	-189.301	0.304	0.004
-351.508	-53.852	0.042	-0.019
-350.493	93.183	0.206	-0.228
-349.479	233.162	-0.159	0.257
-348.464	-39.887	0.143	0.073
-347.450	64.521	0.065	-0.064
-346.435	-129.515	0.228	-0.031
-345.420	-86.822	-0.169	0.051
-344.406	76.952	0.055	-0.057
-343.391	-200.000	0.036	-0.193
-342.377	-137.401	0.199	-0.022
-341.362	-30.126	0.230	0.129
-340.348	261.156	-0.019	-0.033
-339.333	-33.222	-0.090	0.049
-338.318	177.084	0.221	-0.316
-337.304	606.293	0.047	0.116
-336.289	-99.967	0.432	-0.106
-335.275	120.392	-0.130	-0.159
-334.260	559.718	0.087	0.206
-333.245	-200.000	-0.021	0.259
-332.231	215.340	-0.016	-0.025
-331.216	6.342	0.118	-0.086
-330.202	254.274	0.085	0.143
-329.187	65.253	-0.220	-0.218
-328.172	-124.628	-0.242	0.037
-327.158	-80.583	-0.050	-0.016
-326.143	-58.851	0.323	0.137
-325.129	-197.914	0.571	-0.003
-324.114	-200.000	-0.008	0.134
-323.099	-127.190	0.227	0.033
-322.085	-200.000	0.082	0.490
-321.070	236.722	-0.113	0.184
-320.056	-33.559	-0.149	0.081
-319.041	-36.043	-0.072	0.038
-318.026	767.465	0.094	-0.251
-317.012	800.000	-0.028	0.109
-315.997	252.267	0.076	0.127
-314.983	-41.095	-0.116	0.059
-313.968	100.140	0.120	-0.137
-312.953	192.560	-0.052	0.076
-311.939	-8.248	0.406	0.268
-310.924	-4.806	-0.147	-0.100
-309.910	-81.703	-0.175	0.056
-308.895	-7.793	-0.330	0.219
-307.880	29.842	0.222	-0.186
-306.866	80.824	0.102	-0.108
-305.851	144.942	0.057	0.075
-304.837	-62.957	-0.126	0.051
-303.822	107.031	-0.206	0.240
-302.807	61.653	0.108	-0.105
-301.793	-105.214	-0.059	-0.013
-300.778	-175.840	0.173	-0.005
-299.764	-70.207	-0.120	0.045
-298.749	-200.000	0.003	0.323
-297.735	800.000	0.079	0.318
-296.720	-83.424	0.048	0.015
-295.705	800.000	0.041	0.152
-294.691	-200.000	-0.010	0.345
-293.676	501.331	-0.162	0.367
-292.662	-76.574	0.128	-0.044
-291.647	132.539	-0.216	-0.273
-290.632	12.155	-0.153	0.115
-289.618	-85.879	0.201	0.061
-288.603	-68.591	-0.224	0.085
-287.589	800.000	-0.117	-0.376
-286.574	-113.851	-0.162	0.031
-285.559	471.032	-0.210	-0.463
-284.545	-200.000	-0.011	0.142
-283.530	486.382	-0.160	-0.358
-282.516	-21.685	-0.131	-0.078
-281.501	573.030	0.035	0.083
-280.486	48.848	0.121	0.111
-279.472	-132.986	0.300	-0.037
-278.457	-45.534	-0.187	-0.091
-277.443	-169.022	0.208	-0.008
-276.428	208.517	0.172	0.264
-275.413	-67.972	-0.262	0.100
-274.399	39.343	0.198	0.173
-273.384	-200.000	0.006	0.388
-272.370	34.773	-0.244	-0.209
-271.355	-112.219	-0.070	0.014
-270.340	-68.695	-0.076	0.029
-269.326	114.326	0.055	-0.065
-268.311	189.473	0.165	-0.242
-267.297	-114.179	0.293	-0.055
-266.282	310.876	-0.072	0.132
-265.267	-30.409	-0.278	0.155
-264.253	141.908	-0.014	-0.018
-263.238	104.178	-0.062	0.071
-262.224	179.400	-0.134	0.192
-261.209	-62.720	-0.140	-0.057
-260.195	-200.000	-0.026	0.256
-259.180	12.737	0.206	0.156
-258.165	-200.000	0.023	0.276
-257.151	212.529	0.242	-0.373
-256.136	122.408	0.091	-0.111
-255.122	54.094	-0.154	-0.145
-254.107	-120.063	-0.169	-0.028
-253.092	800.000	-0.065	-0.265
-252.078	800.000	-0.040	-0.108
-251.063	140.374	-0.053	-0.068
-250.049	-64.998	-0.319	-0.126
-249.034	196.884	0.139	-0.207
-248.019	-115.004	0.053	0.010
-247.005	29.704	0.148	-0.123
-245.990	627.279	0.032	0.078
-244.976	800.000	0.056	0.201
-243.961	-200.000	0.006	-0.210
-242.946	-200.000	0.023	0.221
-241.932	307.145	0.075	0.137
-240.917	-200.000	-0.033	-0.183
-239.903	-42.514	0.167	0.083
-238.888	128.510	0.096	-0.120
-237.873	-125.171	0.257	-0.039
-236.859	119.461	0.118	0.143
-235.844	-162.413	0.397	-0.019
-234.830	48.580	-0.208	-0.191
-233.815	32.351	-0.093	-0.079
-232.800	15.395	-0.119	-0.092
-231.786	-84.626	-0.277	-0.085
-230.771	35.462	-0.292	-0.251
-229.757	-200.000	0.059	-0.379
-228.742	-132.962	-0.261	0.032
-227.727	48.899	-0.126	-0.116
-226.713	109.333	-0.293	0.343
-225.698	-200.000	-0.014	-0.091
-224.684	409.873	0.073	-0.152
-223.669	-93.574	0.436	-0.118
-222.655	-79.354	-0.226	0.075
-221.640	-32.441	0.445	-0.243
-220.625	-200.000	-0.036	0.171
-219.611	-200.000	-0.017	-0.280
-218.596	-107.940	0.465	-0.099
-217.582	800.000	0.099	-0.346
-216.567	-145.208	-0.306	0.027
-215.552	159.050	0.066	0.090
-214.538	800.000	0.059	0.251
-213.523	-200.000	-0.001	0.183
-212.509	-200.000	-0.024	-0.178
-211.494	-135.790	-0.079	-0.009
-210.479	-200.000	0.004	-0.090
-209.465	-131.176	-0.217	-0.028
-208.450	-200.000	0.027	0.181
-207.436	-150.351	-0.308	0.023
-206.421	-142.609	-0.333	0.032
-205.406	-148.275	-0.222	-0.018
-204.392	50.434	0.196	0.181
-203.377	184.991	0.184	0.267
-202.363	107.282	-0.022	0.026
-201.348	19.972	0.371	0.292
-200.333	-184.087	0.271	0.004
-199.319	-197.227	-0.296	0.002
-198.304	800.000	-0.114	-0.357
-197.290	83.027	-0.176	-0.187
-196.275	-17.457	-0.191	-0.117
-195.260	62.596	-0.298	-0.291
-194.246	48.023	0.205	-0.187
-193.231	-200.000	0.022	-0.149
-192.217	-110.602	-0.239	0.048
-191.202	-200.000	0.024	0.403
-190.187	-11.382	-0.171	-0.110
-189.173	19.401	0.103	-0.081
-188.158	737.691	0.096	0.250
-187.144	-86.421	0.428	0.128
-186.129	-200.000	0.003	-0.049
-185.114	-161.561	0.097	-0.005
-184.100	-16.248	-0.243	0.151
-183.085	-108.347	0.154	-0.032
-182.071	-91.461	0.361	-0.101
-181.056	54.019	-0.144	-0.135
-180.042	800.000	0.032	0.134
-179.027	-150.893	0.164	0.012
-178.012	-62.603	-0.233	0.095
-176.998	-66.397	-0.238	0.092
-175.983	-200.000	-0.084	-0.371
-174.969	94.028	-0.311	-0.345
-173.954	649.216	0.127	0.316
-172.939	-52.080	-0.066	0.030
-171.925	800.000	0.063	0.249
-170.910	92.328	0.222	0.244
-169.896	48.716	-0.185	0.170
-168.881	77.475	-0.264	0.274
-167.866	-162.157	0.259	-0.013
-166.852	-74.652	0.108	0.038
-165.837	-158.926	0.092	-0.005
-164.823	-164.444	0.359	-0.016
-163.808	-104.107	0.493	0.112
-162.793	-67.126	0.152	-0.058
-161.779	-159.029	-0.261	-0.014
-160.764	-108.382	0.204	0.043
-159.750	158.609	0.298	0.404
-158.735	-200.000	-0.009	0.100
-157.720	-96.478	0.466	-0.120
-156.706	8.339	-0.137	0.100
-155.691	800.000	-0.055	-0.197
-154.677	-76.701	-0.039	-0.013
-153.662	-111.442	-0.334	-0.066
-152.647	-200.000	-0.001	0.203
-151.633	-167.463	0.305	-0.012
-150.618	-200.000	0.034	-0.253
-149.604	-200.000	-0.081	-0.478
-148.589	-59.825	-0.235	0.098
-147.574	349.949	0.211	-0.406
-146.560	-64.438	0.085	-0.034
-145.545	800.000	0.188	0.515
-144.531	-85.873	0.290	-0.087
-143.516	-51.848	-0.287	0.130
-142.502	-89.160	-0.177	0.051
-141.487	800.000	0.072	-0.197
-140.472	95.679	0.093	0.104
-139.458	450.481	-0.074	-0.160
-138.443	-64.151	-0.373	-0.148
-137.429	-200.000	-0.000	0.006
-136.414	-125.718	0.476	-0.070
-135.399	-200.000	-0.142	-0.000
-134.385	371.971	-0.068	-0.134
-133.370	-156.458	0.327	0.020
-132.356	-92.546	-0.326	-0.089
-131.341	-119.929	0.104	-0.017
-130.326	495.849	0.115	0.258
-129.312	-93.267	-0.257	0.069
-128.297	-70.763	0.212	-0.078
-127.283	-200.000	-0.010	-0.063
-126.268	34.971	-0.066	0.057
-125.253	20.655	-0.129	-0.102
-124.239	800.000	-0.045	-0.163
-123.224	256.543	0.036	-0.061
-122.210	-74.016	-0.279	-0.098
-121.195	48.921	0.184	-0.168
-120.180	203.419	-0.139	0.210
-119.166	-157.338	0.184	0.011
-118.151	327.710	-0.048	-0.090
-117.137	-32.611	0.220	0.119
-116.122	-14.980	-0.171	0.107
-115.107	165.292	0.135	0.186
-114.093	-77.448	0.025	0.009
-113.078	-200.000	0.038	-0.184
-112.064	-70.971	0.299	0.109
-111.049	293.876	-0.271	0.483
-110.034	-44.776	0.070	-0.034
-109.020	23.704	0.317	-0.255
-108.005	-1.870	0.252	-0.173
-106.991	-200.000	-0.008	-0.364
-105.976	219.827	-0.008	-0.013
-104.962	800.000	0.093	0.320
-103.947	306.944	0.147	-0.266
-102.932	-97.335	0.359	0.091
-101.918	-16.037	-0.192	-0.119
-100.903	520.076	0.060	-0.137
-99.889	-200.000	-0.026	0.240
-98.874	-200.000	0.008	0.316
-97.859	-200.000	0.085	-0.466
-96.845	-47.808	0.166	-0.078
-95.830	-200.000	0.019	-0.126
-94.816	24.520	-0.253	0.203
-93.801	386.628	-0.082	-0.164
-92.786	-200.000	0.008	-0.249
-91.772	-128.402	0.285	0.039
-90.757	674.334	0.078	0.197
-89.743	-154.481	-0.476	-0.031
-88.728	442.693	0.093	0.198
-87.713	-87.531	0.251	0.074
-86.699	-66.645	-0.260	-0.100
-85.684	1.323	0.220	-0.154
-84.670	204.260	-0.243	-0.367
-83.655	-105.217	0.069	0.015
-82.640	-43.425	0.386	0.190
-81.626	-47.926	0.106	0.050
-80.611	800.000	-0.081	0.319
-79.597	-200.000	-0.009	0.238
-78.582	687.156	0.112	0.284
-77.567	-200.000	-0.025	0.254
-76.553	800.000	-0.051	0.145
-75.538	-9.009	-0.240	0.156
-74.524	800.000	0.026	-0.083
-73.509	-69.806	0.156	0.058
-72.494	-59.870	0.038	0.016
-71.480	800.000	0.066	-0.260
-70.465	55.559	0.190	-0.179
-69.451	-75.693	0.137	0.047
-68.436	800.000	0.025	0.090
-67.422	-200.000	-0.027	-0.340
-66.407	-108.822	0.390	0.081
-65.392	-71.577	0.173	0.063
-64.378	217.196	-0.039	-0.061
-63.363	-41.759	0.262	-0.131
-62.349	445.763	-0.249	0.531
-61.334	47.353	-1.231	-1.114
-60.319	57.000	0.950	0.900
-59.305	390.171	-0.723	-1.457
-58.290	698.956	0.518	1.324
-57.276	308.130	0.763	1.383
-56.261	-200.000	136.364	621.782
-55.246	337.257	1650.640	3116.433
-54.232	135.367	2799.638	3536.806
-53.217	77.435	2309.008	2386.413
-52.203	27.734	1909.517	1562.022
-51.188	22.097	1704.144	1350.760
-50.173	20.414	1666.628	1308.304
-49.159	41.174	1741.828	1528.775
-48.144	37.666	1750.591	1509.276
-47.130	21.617	1701.909	1345.089
-46.115	19.382	1685.988	1315.428
-45.100	19.119	1680.768	1309.301
-44.086	19.152	1677.998	1307.346
-43.071	19.127	1675.818	1305.402
-42.057	19.075	1673.902	1303.463
-41.042	19.173	1671.258	1302.092
-40.027	19.101	1669.775	1300.342
-39.013	19.105	1667.781	1298.771
-37.998	19.116	1666.294	1297.646
-36.984	19.097	1665.096	1296.515
-35.969	19.254	1663.504	1296.410
-34.954	19.220	1662.218	1295.094
-33.940	19.187	1659.947	1293.029
-32.925	19.139	1658.175	1291.234
-31.911	19.182	1656.769	1290.415
-30.896	19.171	1655.247	1289.095
-29.881	19.300	1653.712	1288.814
-28.867	19.232	1652.112	1287.008
-27.852	19.201	1650.929	1285.801
-26.838	19.288	1649.036	1284.922
-25.823	19.205	1648.420	1283.778
-24.809	19.263	1646.832	1282.923
-23.794	19.296	1645.505	1282.083
-22.779	19.369	1643.532	1281.037
-21.765	19.347	1641.907	1279.555
-20.750	19.239	1640.938	1277.945
-19.736	19.303	1639.505	1277.255
-18.721	19.345	1638.107	1276.426
-17.706	19.314	1636.522	1274.914
-16.692	19.222	1635.728	1273.562
-15.677	19.226	1633.879	1272.103
-14.663	19.282	1632.547	1271.428
-13.648	19.358	1630.835	1270.600
-12.633	19.290	1629.659	1269.139
-11.619	19.337	1627.418	1267.687
-10.604	19.346	1626.133	1266.704
-9.590	19.269	1625.393	1265.506
-8.575	19.254	1624.380	1264.560
-7.560	19.343	1623.048	1264.124
-6.546	19.290	1622.265	1263.079
-5.531	19.344	1620.677	1262.186
-4.517	19.224	1619.708	1260.501
-3.502	19.367	1618.738	1260.741
-2.487	19.449	1616.532	1259.575
-1.473	19.003	1604.362	1246.809
-0.458	16.280	1585.469	1212.546
0.556	11.903	1588.030	1183.396
1.571	9.924	1612.412	1186.931
2.586	9.833	1623.650	1194.419
3.600	9.244	1568.827	1149.779
4.615	5.267	1464.229	1046.425
5.629	1.205	1409.251	980.821
6.644	0.503	1402.961	971.834
7.659	0.598	1401.866	971.602
8.673	0.572	1400.691	970.536
9.688	0.527	1398.122	968.377
10.702	0.379	1394.600	964.909
11.717	2.434	1396.549	979.331
12.731	8.173	1404.915	1021.969
13.746	14.238	1414.938	1068.199
14.761	16.914	1418.651	1088.102
15.775	16.564	1416.406	1084.039
16.790	15.531	1414.087	1075.559
17.804	14.870	1411.753	1069.461
18.819	14.439	1410.461	1065.630
19.834	14.173	1408.923	1062.676
20.848	13.979	1408.293	1060.868
21.863	13.778	1406.758	1058.336
22.877	13.498	1405.681	1055.650
23.892	13.435	1404.669	1054.396
24.907	13.482	1404.083	1054.164
25.921	13.634	1402.674	1053.977
26.936	13.543	1402.306	1053.028
27.950	13.592	1400.993	1052.259
28.965	13.684	1399.908	1051.934
29.980	13.650	1399.474	1051.301
30.994	13.712	1398.465	1050.842
32.009	13.728	1397.005	1049.755
33.023	13.781	1395.879	1049.149
34.038	13.693	1394.722	1047.634
35.053	13.593	1394.159	1046.484
36.067	13.646	1392.523	1045.498
37.082	13.606	1391.582	1044.445
38.096	13.650	1390.701	1043.970
39.111	13.655	1389.976	1043.366
40.126	13.570	1389.204	1042.158
41.140	13.573	1388.150	1041.295
42.155	13.632	1387.775	1041.290
43.169	13.486	1388.018	1040.467
44.184	13.482	1387.349	1039.843
45.199	13.555	1386.826	1039.819
46.213	13.582	1386.237	1039.458
47.228	13.560	1385.852	1038.935
48.242	13.634	1384.088	1037.988
49.257	13.731	1382.130	1037.031
50.271	13.603	1381.228	1035.466
51.286	13.588	1380.319	1034.600
52.301	13.624	1378.490	1033.357
53.315	13.605	1377.880	1032.695
54.330	13.755	1376.103	1032.202
55.344	13.556	1375.736	1030.598
56.359	13.563	1374.324	1029.491
57.374	13.555	1373.338	1028.612
58.388	13.485	1372.888	1027.754
59.403	13.537	1372.167	1027.445
60.417	13.555	1371.412	1026.898
61.432	13.579	1370.732	1026.449
62.447	13.408	1369.969	1024.728
63.461	13.414	1368.494	1023.570
64.476	13.430	1367.514	1022.843
65.490	13.437	1365.965	1021.640
66.505	13.487	1364.070	1020.441
67.520	13.551	1363.012	1019.950
68.534	13.482	1362.211	1018.835
69.549	13.536	1361.131	1018.272
70.563	13.490	1359.760	1016.871
71.578	13.414	1358.614	1015.460
72.593	13.360	1357.754	1014.394
73.607	13.330	1357.217	1013.724
74.622	13.375	1356.357	1013.264
75.636	13.417	1355.239	1012.595
76.651	13.354	1354.878	1011.854
77.666	13.441	1354.279	1011.849
78.680	13.335	1353.542	1010.557
79.695	13.408	1352.707	1010.291
80.709	13.520	1351.685	1010.123
81.724	13.545	1350.645	1009.407
82.739	13.595	1349.674	1008.899
83.753	13.570	1349.322	1008.393
84.768	13.689	1347.702	1007.818
85.782	13.683	1346.398	1006.715
86.797	13.687	1345.131	1005.704
87.812	13.515	1344.165	1003.853
88.826	13.649	1343.005	1003.706
89.841	13.569	1342.020	1002.399
90.855	13.540	1340.895	1001.296
91.870	13.724	1339.410	1001.209
92.884	13.737	1338.846	1000.778
93.899	13.701	1338.079	999.896
94.914	13.713	1336.994	999.069
95.928	13.762	1336.279	998.743
96.943	13.685	1335.367	997.509
97.957	13.692	1334.439	996.771
98.972	13.727	1333.192	995.958
99.987	13.710	1332.319	995.119
101.001	13.660	1331.658	994.234
102.016	13.692	1330.092	993.168
103.030	13.636	1329.459	992.278
104.045	13.689	1328.477	991.771
105.060	13.701	1327.016	990.663
106.074	13.703	1325.509	989.462
107.089	13.538	1324.665	987.763
108.103	13.576	1323.534	987.056
109.118	13.568	1321.905	985.709
110.133	13.697	1319.908	984.898
111.147	13.594	1319.225	983.691
112.162	13.663	1317.424	982.671
113.176	13.567	1316.995	981.695
114.191	13.580	1315.983	980.929
115.206	13.617	1315.008	980.334
116.220	13.649	1313.403	979.242
117.235	13.612	1312.207	978.045
118.249	13.696	1311.245	977.733
119.264	13.597	1310.065	976.185
120.279	13.645	1309.157	975.704
121.293	13.675	1307.876	974.838
122.308	13.651	1306.758	973.778
123.322	13.635	1305.952	972.998
124.337	13.645	1304.779	972.099
125.352	13.600	1303.630	970.889
126.366	13.526	1302.297	969.378
127.381	13.532	1301.615	968.824
128.395	13.612	1300.234	968.174
129.410	13.558	1299.243	967.037
130.424	13.530	1298.879	966.517
131.439	13.579	1297.481	965.678
132.454	13.660	1296.371	965.236
133.468	13.675	1295.569	964.644
134.483	13.640	1294.700	963.703
135.497	13.607	1293.767	962.735
136.512	13.633	1292.471	961.833
137.527	13.645	1291.151	960.839
138.541	13.685	1289.137	959.487
139.556	13.576	1288.299	958.148
140.570	13.677	1287.515	958.060
141.585	13.832	1286.109	957.829
142.600	13.828	1284.483	956.507
143.614	13.784	1283.975	955.789
144.629	13.835	1282.541	954.934
145.643	13.817	1281.737	954.146
146.658	13.819	1279.925	952.725
147.673	13.826	1278.999	951.993
148.687	13.740	1278.408	950.972
149.702	13.802	1276.928	950.141
150.716	13.680	1275.200	948.076
151.731	13.745	1274.189	947.610
152.746	13.845	1272.958	947.182
153.760	13.833	1271.772	946.147
154.775	13.915	1270.561	945.631
155.789	13.856	1269.796	944.643
156.804	13.851	1268.204	943.344
157.819	13.933	1267.569	943.254
158.833	14.030	1266.107	942.634
159.848	13.895	1265.408	941.266
160.862	13.994	1264.284	940.904
161.877	13.925	1262.861	939.374
162.892	13.930	1261.841	938.558
163.906	13.949	1261.158	938.080
164.921	13.969	1259.743	937.053
165.935	14.007	1259.240	936.813
166.950	13.947	1258.535	935.867
167.964	13.914	1258.356	935.467
168.979	13.980	1257.088	934.809
169.994	13.942	1256.419	934.018
171.008	14.121	1255.616	934.342
172.023	14.025	1254.637	932.990
173.037	14.088	1253.818	932.654
174.052	14.124	1253.030	932.190
175.067	13.990	1252.113	930.673
176.081	14.070	1250.976	930.194
177.096	14.069	1249.812	929.237
178.110	14.146	1248.516	928.621
179.125	14.062	1247.413	927.253
180.140	14.096	1246.089	926.378
181.154	14.080	1244.766	925.224
182.169	14.164	1243.980	925.021
183.183	14.179	1242.816	924.157
184.198	14.158	1241.516	922.993
185.213	14.147	1240.566	922.141
186.227	14.190	1239.123	921.225
187.242	14.238	1238.014	920.588
188.256	14.216	1237.263	919.828
189.271	14.306	1236.258	919.493
190.286	14.196	1235.211	918.025
191.300	14.172	1234.427	917.232
192.315	14.163	1233.974	916.763
193.329	14.287	1233.129	916.738
194.344	14.122	1232.335	915.158
195.359	14.225	1232.001	915.397
196.373	14.250	1231.562	915.128
197.388	14.320	1230.275	914.473
198.402	14.343	1230.268	914.512
199.417	14.374	1230.084	914.463
200.432	14.396	1228.740	913.505
201.446	14.395	1228.045	912.903
202.461	14.595	1226.938	913.094
203.475	14.547	1225.870	911.957
204.490	14.532	1224.952	911.109
205.504	14.512	1223.430	909.790
206.519	14.466	1222.356	908.662
207.534	14.555	1221.080	908.114
208.548	14.481	1220.214	906.989
209.563	14.488	1219.838	906.665
210.577	14.552	1218.880	906.223
211.592	14.513	1217.767	905.101
212.607	14.575	1217.171	904.917
213.621	14.685	1215.740	904.369
214.636	14.557	1215.128	903.139
215.650	14.624	1213.839	902.464
216.665	14.633	1212.873	901.716
217.680	14.712	1212.186	901.550
218.694	14.695	1211.605	900.948
219.709	14.781	1210.440	900.462
220.723	14.694	1209.652	899.329
221.738	14.749	1209.007	899.068
222.753	14.690	1208.747	898.474
223.767	14.853	1207.740	898.526
224.782	14.877	1207.123	898.116
225.796	14.869	1206.194	897.299
226.811	14.829	1205.469	896.466
227.826	14.806	1205.249	896.100
228.840	14.845	1204.189	895.444
229.855	14.903	1203.005	894.791
230.869	14.878	1201.891	893.752
231.884	14.852	1201.739	893.420
232.899	14.809	1200.637	892.291
233.913	14.874	1200.372	892.364
234.928	14.752	1199.533	891.010
235.942	14.845	1199.024	891.047
236.957	14.829	1198.194	890.271
237.972	15.001	1196.865	890.118
238.986	14.968	1196.246	889.405
240.001	14.902	1195.917	888.728
241.015	14.970	1194.713	888.118
242.030	14.984	1193.781	887.420
243.045	14.951	1193.324	886.827
244.059	15.015	1192.820	886.713
245.074	14.953	1191.629	885.421
246.088	15.026	1190.923	885.203
247.103	15.004	1190.275	884.529
248.117	15.183	1189.506	884.825
249.132	15.116	1188.621	883.734
250.147	15.123	1188.033	883.253
251.161	15.245	1187.247	883.235
252.176	15.315	1186.126	882.693
253.190	15.298	1185.616	882.142
254.205	15.288	1185.120	881.646
255.220	15.356	1184.017	881.106
256.234	15.325	1183.725	880.647
257.249	15.345	1183.161	880.250
258.263	15.342	1182.311	879.526
259.278	15.297	1181.735	878.783
260.293	15.356	1181.346	878.729
261.307	15.406	1180.717	878.442
262.322	15.473	1179.822	878.051
263.336	15.451	1179.185	877.385
264.351	15.482	1178.379	876.868
265.366	15.453	1178.228	876.527
266.380	15.520	1176.610	875.595
267.395	15.450	1176.312	874.932
268.409	15.408	1175.797	874.252
269.424	15.442	1174.944	873.715
270.439	15.468	1174.185	873.211
271.453	15.500	1173.593	872.860
272.468	15.550	1172.458	872.194
273.482	15.454	1172.255	871.470
274.497	15.491	1171.384	870.938
275.512	15.575	1170.799	870.862
276.526	15.553	1169.987	870.068
277.541	15.513	1169.272	869.250
278.555	15.572	1168.277	868.740
279.570	15.647	1167.696	868.618
280.585	15.607	1166.929	867.764
281.599	15.609	1165.883	866.918
282.614	15.674	1164.683	866.283
283.628	15.744	1163.943	866.016
284.643	15.721	1162.694	864.892
285.657	15.769	1162.092	864.616
286.672	15.844	1160.916	864.050
287.687	15.725	1160.270	862.883
288.701	15.689	1159.681	862.183
289.716	15.808	1158.547	861.873
290.730	15.744	1157.895	860.985
291.745	15.812	1157.351	860.853
292.760	15.880	1156.699	860.637
293.774	15.959	1155.635	860.172
294.789	15.882	1155.751	859.788
295.803	15.986	1154.212	859.100
296.818	15.890	1153.884	858.291
297.833	15.997	1152.806	857.960
298.847	15.849	1152.497	856.897
299.862	15.939	1151.635	856.638
300.876	16.016	1150.686	856.249
301.891	16.001	1150.163	855.709
302.906	15.967	1149.305	854.824
303.920	16.068	1148.814	854.895
304.935	16.124	1148.192	854.637
305.949	16.034	1147.918	853.905
306.964	16.177	1146.771	853.699
307.979	16.250	1145.585	853.108
308.993	16.137	1145.228	852.197
310.008	16.229	1144.158	851.788
311.022	16.160	1143.518	850.887
312.037	16.202	1142.495	850.262
313.052	16.190	1141.708	849.541
314.066	16.041	1141.065	848.239
315.081	16.190	1140.046	848.156
316.095	16.192	1139.090	847.380
317.110	16.094	1138.550	846.411
318.125	16.159	1138.049	846.287
319.139	16.184	1137.519	845.947
320.154	16.214	1136.499	845.265
321.168	16.290	1135.624	844.918
322.183	16.173	1135.381	844.077
323.197	16.166	1134.583	843.374
324.212	16.321	1133.798	843.491
325.227	16.244	1133.642	842.916
326.241	16.328	1132.691	842.552
327.256	16.300	1131.933	841.774
328.270	16.295	1131.025	841.002
329.285	16.179	1130.203	839.737
330.300	16.213	1129.244	839.118
331.314	16.287	1127.990	838.480
332.329	16.413	1126.961	838.267
333.343	16.343	1126.161	837.249
334.358	16.376	1124.814	836.339
335.373	16.414	1124.808	836.448
336.387	16.390	1124.014	835.663
337.402	16.419	1123.274	835.184
338.416	16.624	1122.321	835.414
339.431	16.538	1121.530	834.326
340.446	16.471	1121.161	833.646
341.460	16.561	1120.327	833.396
342.475	16.644	1119.052	832.784
343.489	16.742	1118.499	832.780
344.504	16.784	1117.495	832.167
345.519	16.653	1116.986	831.070
346.533	16.660	1116.079	830.356
347.548	16.737	1115.442	830.183
348.562	16.819	1114.618	829.903
349.577	16.682	1113.849	828.582
350.592	16.659	1112.948	827.729
351.606	16.679	1112.224	827.216
352.621	16.660	1111.622	826.600
353.635	16.752	1110.884	826.429
354.650	16.671	1110.056	825.345
355.665	16.744	1109.375	825.119
356.679	16.763	1108.938	824.813
357.694	16.912	1108.281	824.976
358.708	16.779	1107.726	823.845
359.723	16.802	1107.151	823.458
360.738	16.780	1106.629	822.886
361.752	16.762	1105.806	822.117
362.767	17.004	1105.238	822.794
363.781	16.881	1104.831	821.822
364.796	16.968	1103.681	821.316
365.810	17.053	1103.102	821.221
366.825	16.932	1102.818	820.354
367.840	16.938	1102.316	819.936
368.854	17.058	1101.524	819.853
369.869	17.040	1100.864	819.204
370.883	16.991	1099.810	818.113
371.898	16.908	1099.097	817.111
372.913	17.046	1098.468	817.233
373.927	17.070	1097.964	816.899
374.942	17.184	1097.351	816.919
375.956	17.175	1096.880	816.456
376.971	17.120	1096.692	815.978
377.986	17.215	1095.710	815.634
379.000	17.182	1095.336	815.125
380.015	17.230	1094.630	814.757
381.029	17.303	1093.709	814.347
382.044	17.279	1093.431	813.954
383.059	17.346	1092.439	813.464
384.073	17.217	1091.818	812.312
385.088	17.369	1090.729	812.157
386.102	17.274	1089.765	810.914
387.117	17.467	1088.249	810.634
388.132	17.282	1087.851	809.385
389.146	17.324	1087.112	808.964
390.161	17.288	1086.412	808.198
391.175	17.288	1085.749	807.634
392.190	17.463	1085.236	808.009
393.205	17.413	1084.453	807.119
394.219	17.466	1083.338	806.469
395.234	17.450	1082.324	805.567
396.248	17.404	1081.499	804.667
397.263	17.465	1080.346	804.023
398.278	17.411	1079.893	803.361
399.292	17.484	1079.206	803.121
400.307	17.453	1078.324	802.250
401.321	17.514	1077.873	802.131
402.336	17.323	1077.432	800.832
403.350	17.398	1076.873	800.697
404.365	17.411	1076.222	800.206
405.380	17.448	1075.068	799.447
406.394	17.580	1073.993	799.199
407.409	17.582	1073.256	798.589
408.423	17.685	1072.620	798.529
409.438	17.686	1072.125	798.094
410.453	17.632	1071.735	797.479
411.467	17.669	1070.768	796.865
412.482	17.594	1070.043	795.904
413.496	17.685	1069.248	795.666
414.511	17.802	1068.897	795.878
415.526	17.731	1068.466	795.156
416.540	17.780	1067.997	794.967
417.555	17.700	1067.579	794.210
418.569	17.768	1066.667	793.779
419.584	17.849	1066.398	793.884
420.599	17.863	1065.417	793.151
421.613	109.632	1332.275	1492.548
422.628	101.377	1371.076	1492.618
