DTS Sentinel unit serial number:	SN413079Multiplexer serial number:	ORYXHardware model number:	OX4-SRSoftware version number:	ORYX F/W v4.00 Oryx Data Collector v3.7.2.0data status	okinstallation	princeton_trtdifferential loss correction	single-endedforward channel	channel 2reverse channel	N/Adate	2019/09/13time	04:47:35forward acquisition time	60.00reverse acquisition time	0.00gamma	496.2192k internal	0.2336k external	0.2336temperature offset calibration	1.0192default loss term (dB/km)	0.3790temperature slope calibration	1.0000multiplexer offset coefficient	1.0000multiplexer slope coefficient	1.0000fibre end	0.00T internal ref (°C)	26.56T ext. ref 1 (°C)	4.06T ext. ref 2 (°C)	21.09length (m)	temperature (°C)	Stokes	anti-Stokes-747.200	3.318	-0.193	0.141
-746.185	1.883	0.243	-0.176
-745.171	800.000	0.074	0.293
-744.156	60.641	-0.368	0.366
-743.142	-200.000	-0.006	-0.155
-742.127	107.908	-0.089	-0.107
-741.112	-24.516	0.018	-0.011
-740.098	5.739	0.232	0.172
-739.083	87.179	0.085	-0.095
-738.069	389.170	0.140	0.292
-737.054	800.000	0.097	0.301
-736.039	-93.465	-0.352	-0.098
-735.025	-73.118	-0.082	0.030
-734.010	433.408	-0.160	-0.349
-732.996	-107.669	-0.190	-0.042
-731.981	-120.916	-0.473	0.080
-730.966	27.804	0.081	-0.069
-729.952	117.018	0.075	-0.093
-728.937	800.000	0.115	0.468
-727.923	21.932	-0.006	-0.005
-726.908	413.785	-0.041	0.088
-725.894	-200.000	-0.037	0.198
-724.879	-5.655	-0.175	-0.121
-723.864	-190.387	-0.166	0.002
-722.850	177.435	-0.021	-0.031
-721.835	-165.557	-0.515	-0.023
-720.821	138.747	-0.196	-0.259
-719.806	-200.000	0.035	-0.239
-718.791	-200.000	-0.029	0.315
-717.777	-121.284	-0.423	-0.071
-716.762	25.015	-0.282	-0.235
-715.748	-200.000	-0.002	-0.158
-714.733	535.896	-0.047	0.113
-713.718	800.000	0.077	0.265
-712.704	-57.169	-0.186	0.082
-711.689	-61.979	-0.213	-0.089
-710.675	448.487	-0.150	-0.331
-709.660	-35.717	0.346	-0.188
-708.645	-200.000	-0.001	0.149
-707.631	16.077	-0.288	0.228
-706.616	-120.381	0.053	0.009
-705.602	-120.846	-0.341	-0.058
-704.587	800.000	-0.080	0.267
-703.572	43.023	-0.177	-0.161
-702.558	-141.907	0.256	-0.026
-701.543	800.000	-0.083	0.345
-700.529	64.838	0.304	-0.308
-699.514	-200.000	-0.006	-0.090
-698.499	800.000	-0.021	0.067
-697.485	-48.653	0.141	-0.068
-696.470	-61.359	0.077	0.033
-695.456	-106.478	-0.135	0.030
-694.441	672.743	-0.041	-0.108
-693.426	192.653	-0.220	-0.333
-692.412	-7.804	0.135	-0.091
-691.397	-53.269	-0.431	-0.198
-690.383	28.565	-0.222	-0.189
-689.368	452.094	0.064	0.143
-688.354	-75.330	0.239	-0.085
-687.339	21.694	-0.287	0.234
-686.324	-7.272	0.129	-0.088
-685.310	-42.234	0.193	0.099
-684.295	-99.734	0.184	-0.046
-683.281	800.000	0.019	0.059
-682.266	-35.039	-0.136	0.074
-681.251	-76.794	-0.203	0.071
-680.237	96.001	-0.067	-0.077
-679.222	-200.000	0.031	0.196
-678.208	800.000	0.064	-0.272
-677.193	315.478	-0.125	0.237
-676.178	-69.913	-0.198	-0.076
-675.164	-53.792	0.064	-0.029
-674.149	-127.168	0.209	0.031
-673.135	39.460	0.059	0.053
-672.120	-83.753	0.270	-0.086
-671.105	-5.640	-0.185	-0.127
-670.091	800.000	-0.028	-0.119
-669.076	-65.649	-0.208	0.083
-668.062	-177.372	0.054	0.001
-667.047	114.331	-0.162	0.198
-666.032	-200.000	0.017	-0.190
-665.018	553.626	-0.065	0.156
-664.003	-200.000	-0.000	-0.050
-662.989	108.596	-0.108	0.129
-661.974	-132.114	-0.241	-0.031
-660.959	-200.000	0.010	-0.114
-659.945	800.000	0.055	-0.208
-658.930	153.300	-0.239	0.327
-657.916	163.329	0.131	0.185
-656.901	-95.667	0.099	0.027
-655.886	-110.472	-0.292	0.061
-654.872	-200.000	-0.021	-0.289
-653.857	-11.749	-0.166	-0.109
-652.843	152.115	-0.154	-0.210
-651.828	-120.007	-0.227	0.039
-650.814	800.000	0.047	-0.141
-649.799	-25.987	-0.228	-0.134
-648.784	328.430	-0.180	-0.346
-647.770	148.280	0.169	0.229
-646.755	800.000	0.038	0.116
-645.741	800.000	0.044	-0.133
-644.726	-200.000	0.001	0.106
-643.711	-111.609	-0.388	-0.079
-642.697	-59.027	-0.364	-0.157
-641.682	-105.146	-0.250	-0.057
-640.668	-104.095	0.162	-0.038
-639.653	-200.000	-0.010	0.245
-638.638	800.000	0.021	0.081
-637.624	195.087	0.125	0.190
-636.609	800.000	-0.065	0.216
-635.595	57.039	-0.208	0.203
-634.580	-33.560	0.233	0.129
-633.565	-200.000	-0.039	-0.201
-632.551	-144.787	0.193	0.018
-631.536	386.863	-0.094	0.193
-630.522	-23.010	0.046	0.028
-629.507	-78.483	0.578	0.198
-628.492	75.072	0.140	-0.147
-627.478	-40.805	-0.037	0.019
-626.463	510.744	-0.222	0.516
-625.449	170.343	0.167	-0.239
-624.434	243.776	-0.092	-0.155
-623.419	87.367	0.083	0.092
-622.405	78.111	0.164	-0.175
-621.390	562.859	0.065	0.157
-620.376	61.702	-0.169	-0.169
-619.361	-43.534	0.054	-0.027
-618.346	-79.534	-0.198	-0.067
-617.332	-117.968	-0.093	0.017
-616.317	153.811	0.112	0.154
-615.303	689.160	0.056	0.146
-614.288	1.658	-0.289	0.208
-613.273	-200.000	0.044	0.212
-612.259	-200.000	-0.013	-0.065
-611.244	133.845	-0.071	0.091
-610.230	437.796	-0.056	-0.123
-609.215	37.714	-0.132	-0.117
-608.201	-114.185	-0.090	0.017
-607.186	-200.000	-0.013	0.083
-606.171	-200.000	0.012	-0.120
-605.157	-200.000	0.016	-0.089
-604.142	-80.282	0.102	0.034
-603.128	-64.804	-0.190	0.077
-602.113	-200.000	0.065	0.345
-601.098	-68.026	0.171	0.067
-600.084	-111.443	0.327	-0.067
-599.069	12.470	-0.019	0.015
-598.055	-200.000	-0.008	-0.044
-597.040	-178.135	-0.352	-0.008
-596.025	54.797	0.183	0.176
-595.011	90.291	-0.148	0.166
-593.996	-161.095	0.288	0.015
-592.982	-177.720	0.092	-0.002
-591.967	109.810	0.106	0.127
-590.952	800.000	0.010	0.041
-589.938	-136.622	0.427	-0.049
-588.923	166.592	0.072	0.102
-587.909	-44.411	-0.227	-0.114
-586.894	-38.136	0.192	-0.102
-585.879	-157.186	0.196	0.012
-584.865	-55.339	-0.050	0.023
-583.850	199.112	-0.145	-0.222
-582.836	-200.000	-0.008	-0.130
-581.821	-200.000	0.002	0.086
-580.806	39.126	0.136	-0.121
-579.792	-26.519	0.165	-0.096
-578.777	93.143	-0.113	0.128
-577.763	-200.000	-0.002	0.039
-576.748	197.276	-0.099	-0.151
-575.733	-200.000	-0.004	-0.091
-574.719	-94.626	-0.408	-0.111
-573.704	-67.831	-0.279	0.109
-572.690	-129.815	0.228	-0.031
-571.675	800.000	0.025	-0.071
-570.661	-76.925	-0.164	-0.057
-569.646	83.784	0.115	-0.125
-568.631	-90.353	-0.314	-0.091
-567.617	-99.269	0.053	-0.013
-566.602	-200.000	0.020	-0.269
-565.588	-97.793	0.251	0.065
-564.573	-102.178	0.316	0.076
-563.558	-200.000	0.043	0.300
-562.544	256.820	0.074	0.126
-561.529	-36.132	0.309	-0.166
-560.515	-49.726	0.044	0.021
-559.500	-200.000	0.001	0.054
-558.485	-181.023	0.096	-0.002
-557.471	-168.045	-0.298	0.012
-556.456	-0.759	0.200	-0.142
-555.442	-134.675	-0.099	0.012
-554.427	-9.913	-0.035	0.023
-553.412	-68.988	0.149	-0.057
-552.398	23.015	0.109	0.089
-551.383	314.625	-0.088	0.166
-550.369	186.535	0.050	0.074
-549.354	-36.470	0.154	0.083
-548.339	140.980	-0.138	0.182
-547.325	747.096	-0.165	0.443
-546.310	71.590	0.234	-0.242
-545.296	-81.741	-0.066	0.022
-544.281	94.099	-0.079	0.090
-543.266	-108.704	0.207	0.044
-542.252	123.578	0.232	-0.290
-541.237	-128.019	0.267	-0.038
-540.223	-44.763	0.170	-0.084
-539.208	23.189	-0.048	0.039
-538.193	-87.312	0.477	0.144
-537.179	793.723	-0.032	0.087
-536.164	-76.564	-0.108	0.038
-535.150	800.000	0.048	-0.172
-534.135	-112.897	0.141	-0.028
-533.121	80.457	-0.097	0.104
-532.106	66.468	0.317	-0.321
-531.091	-117.954	0.312	-0.056
-530.077	80.888	-0.109	-0.117
-529.062	100.278	-0.010	0.012
-528.048	-142.556	0.176	-0.017
-527.033	-48.758	0.064	-0.030
-526.018	-114.446	-0.165	0.032
-525.004	-200.000	0.023	-0.119
-523.989	-46.108	-0.141	0.069
-522.975	-115.643	0.217	0.041
-521.960	117.101	0.131	0.160
-520.945	-30.679	-0.015	0.008
-519.931	-165.551	-0.318	0.014
-518.916	800.000	-0.055	0.208
-517.902	131.374	0.137	-0.176
-516.887	-34.192	-0.273	0.149
-515.872	-144.418	0.331	0.031
-514.858	-171.826	-0.268	-0.009
-513.843	-22.980	0.127	-0.076
-512.829	56.096	-0.034	-0.033
-511.814	-17.788	0.270	0.169
-510.799	218.081	-0.094	0.148
-509.785	-60.774	-0.082	0.035
-508.770	93.336	-0.042	0.047
-507.756	-200.000	0.026	0.188
-506.741	-188.519	0.015	0.000
-505.726	409.333	0.102	-0.215
-504.712	-46.303	0.176	-0.086
-503.697	761.285	-0.063	-0.171
-502.683	684.485	0.103	-0.267
-501.668	80.024	-0.170	0.182
-500.653	120.646	0.046	0.057
-499.639	-94.249	0.345	0.094
-498.624	-61.246	-0.231	-0.097
-497.610	-146.783	-0.195	0.017
-496.595	-67.417	-0.054	0.021
-495.581	-200.000	-0.017	-0.077
-494.566	-153.013	-0.231	0.016
-493.551	-98.945	-0.381	0.096
-492.537	-15.842	0.104	0.066
-491.522	-159.665	-0.302	-0.017
-490.508	77.282	0.264	0.279
-489.493	373.413	-0.109	-0.220
-488.478	175.299	0.066	0.095
-487.464	800.000	0.060	0.221
-486.449	-137.000	0.203	-0.023
-485.435	800.000	0.021	-0.089
-484.420	-79.270	0.198	0.067
-483.405	-57.706	-0.104	-0.045
-482.391	263.014	0.136	-0.236
-481.376	-83.439	-0.223	0.071
-480.362	331.346	0.100	0.192
-479.347	-115.446	0.104	-0.020
-478.332	-92.138	-0.365	-0.103
-477.318	-123.384	0.170	0.027
-476.303	-200.000	0.047	-0.205
-475.289	-59.978	-0.231	0.098
-474.274	-15.543	-0.406	0.257
-473.259	40.575	-0.192	0.171
-472.245	133.092	-0.060	0.077
-471.230	800.000	0.062	0.257
-470.216	203.374	0.021	-0.032
-469.201	-200.000	0.041	-0.192
-468.186	48.356	-0.300	-0.279
-467.172	-92.678	-0.180	0.050
-466.157	265.340	-0.076	0.132
-465.143	-101.030	0.225	-0.055
-464.128	208.983	-0.058	0.090
-463.113	-175.558	-0.275	0.007
-462.099	-200.000	0.007	0.353
-461.084	-200.000	-0.003	-0.042
-460.070	-200.000	0.003	-0.082
-459.055	-72.016	-0.200	-0.074
-458.040	-20.237	-0.329	0.201
-457.026	-200.000	0.002	-0.236
-456.011	-75.889	-0.150	-0.053
-454.997	7.933	0.102	-0.076
-453.982	84.743	-0.120	0.130
-452.968	251.808	0.147	-0.248
-451.953	-97.704	0.221	-0.057
-450.938	13.525	0.122	0.094
-449.924	-153.905	-0.281	0.019
-448.909	-200.000	-0.003	0.072
-447.895	36.900	0.123	-0.108
-446.880	800.000	0.110	-0.331
-445.865	-200.000	-0.024	-0.143
-444.851	178.172	0.205	-0.298
-443.836	-200.000	0.019	-0.154
-442.822	-200.000	-0.006	-0.150
-441.807	-76.280	-0.258	0.090
-440.792	-104.099	-0.155	-0.036
-439.778	800.000	0.067	-0.293
-438.763	-200.000	-0.070	0.390
-437.749	-57.114	0.166	-0.073
-436.734	-200.000	-0.031	-0.374
-435.719	92.182	0.249	-0.278
-434.705	-200.000	0.075	-0.344
-433.690	471.137	-0.013	0.029
-432.676	-68.490	-0.164	0.063
-431.661	800.000	-0.032	-0.106
-430.646	102.032	0.161	-0.186
-429.632	-68.950	-0.052	-0.020
-428.617	-72.889	-0.382	0.139
-427.603	-184.323	-0.184	0.003
-426.588	-116.870	-0.488	0.089
-425.573	-90.522	0.136	0.039
-424.559	284.895	-0.018	0.033
-423.544	800.000	-0.083	0.330
-422.530	800.000	-0.123	0.381
-421.515	800.000	-0.072	-0.200
-420.500	-175.461	-0.170	0.005
-419.486	800.000	0.017	-0.062
-418.471	-92.918	0.149	-0.041
-417.457	800.000	-0.106	0.407
-416.442	794.750	-0.044	0.121
-415.428	172.148	0.134	0.191
-414.413	-62.456	-0.134	0.055
-413.398	800.000	-0.064	-0.276
-412.384	-91.748	0.200	-0.056
-411.369	67.205	0.039	0.040
-410.355	27.359	-0.346	0.288
-409.340	228.915	0.073	-0.119
-408.325	-152.189	-0.405	0.029
-407.311	-89.412	-0.208	-0.061
-406.296	-128.478	0.137	0.019
-405.282	-200.000	-0.023	-0.260
-404.267	-50.596	-0.183	-0.086
-403.252	-143.376	0.141	0.013
-402.238	800.000	0.094	-0.324
-401.223	-200.000	0.026	0.302
-400.209	65.298	0.095	-0.095
-399.194	-34.696	0.222	-0.120
-398.179	800.000	0.078	-0.314
-397.165	343.835	-0.061	0.119
-396.150	-200.000	0.061	0.308
-395.136	-91.794	-0.508	-0.143
-394.121	800.000	-0.009	0.026
-393.106	-200.000	0.035	-0.181
-392.092	-37.548	-0.175	-0.093
-391.077	356.117	-0.048	0.095
-390.063	27.438	-0.137	0.114
-389.048	152.867	0.085	0.115
-388.033	-85.506	-0.517	0.159
-387.019	-125.690	0.301	-0.045
-386.004	89.041	-0.143	-0.157
-384.990	316.093	-0.065	-0.122
-383.975	-111.100	0.184	0.037
-382.960	-90.533	-0.038	0.011
-381.946	184.952	0.075	0.110
-380.931	800.000	-0.107	0.373
-379.917	65.334	0.247	-0.248
-378.902	800.000	0.074	-0.272
-377.888	-200.000	-0.048	0.238
-376.873	101.138	-0.035	0.040
-375.858	-74.513	-0.163	0.058
-374.844	-119.900	0.358	-0.061
-373.829	-27.080	0.068	0.039
-372.815	-132.928	-0.258	-0.032
-371.800	170.225	0.136	0.192
-370.785	800.000	-0.087	-0.345
-369.771	-46.006	-0.052	-0.025
-368.756	525.796	0.140	-0.327
-367.742	176.266	0.070	0.100
-366.727	-93.471	-0.343	0.094
-365.712	189.884	-0.256	-0.380
-364.698	-78.100	0.264	0.090
-363.683	-200.000	0.060	0.503
-362.669	800.000	-0.072	0.221
-361.654	114.020	-0.108	-0.130
-360.639	-10.089	0.179	0.117
-359.625	63.718	-0.262	-0.261
-358.610	-47.035	-0.083	0.040
-357.596	742.385	0.147	-0.392
-356.581	-18.909	-0.195	-0.120
-355.566	-84.463	0.275	0.086
-354.552	800.000	0.029	0.105
-353.537	10.884	0.182	-0.138
-352.523	-200.000	-0.078	-0.345
-351.508	800.000	0.061	-0.224
-350.493	16.932	-0.133	-0.104
-349.479	-95.627	0.318	-0.084
-348.464	1.736	-0.089	-0.063
-347.450	-81.927	0.556	-0.180
-346.435	162.374	0.095	0.132
-345.420	-27.659	-0.197	0.113
-344.406	-130.355	-0.298	0.040
-343.391	800.000	0.113	-0.466
-342.377	-52.951	0.194	0.088
-341.362	-31.252	0.156	0.087
-340.348	-151.192	-0.165	0.012
-339.333	800.000	-0.064	0.184
-338.318	253.835	-0.143	0.242
-337.304	120.004	0.067	-0.082
-336.289	-64.426	0.469	-0.188
-335.275	136.675	-0.036	-0.047
-334.260	-114.971	-0.400	0.075
-333.245	-85.103	0.082	0.025
-332.231	203.637	-0.149	-0.228
-331.216	800.000	0.035	-0.119
-330.202	80.704	0.092	-0.098
-329.187	-191.505	0.314	0.003
-328.172	699.072	0.043	0.112
-327.158	800.000	-0.135	-0.504
-326.143	562.571	0.050	-0.121
-325.129	274.203	-0.143	-0.250
-324.114	590.673	0.085	0.208
-323.099	-45.935	0.057	-0.028
-322.085	800.000	-0.075	0.222
-321.070	67.261	-0.155	0.156
-320.056	319.750	0.158	0.297
-319.041	-75.897	-0.337	-0.118
-318.026	16.476	0.117	0.091
-317.012	-84.930	-0.098	-0.030
-315.997	2.988	0.138	-0.099
-314.983	-200.000	0.056	-0.245
-313.968	286.511	0.027	-0.049
-312.953	521.009	-0.070	-0.163
-311.939	-19.774	0.173	-0.106
-310.924	-200.000	0.014	0.121
-309.910	-128.585	-0.313	0.044
-308.895	-43.361	0.137	0.068
-307.880	-10.068	-0.132	0.086
-306.866	-200.000	-0.004	0.058
-305.851	-21.138	0.177	-0.107
-304.837	-78.686	0.263	-0.089
-303.822	-88.198	-0.018	0.005
-302.807	124.269	0.198	0.246
-301.793	-200.000	-0.005	-0.098
-300.778	63.509	-0.191	-0.189
-299.764	-200.000	0.019	0.098
-298.749	-200.000	-0.030	0.166
-297.735	-138.560	-0.367	0.040
-296.720	-42.700	0.305	-0.153
-295.705	643.224	-0.059	-0.149
-294.691	27.625	-0.189	-0.157
-293.676	21.286	0.247	-0.198
-292.662	-6.330	0.082	0.055
-291.647	-118.432	0.275	-0.048
-290.632	-186.583	0.338	-0.005
-289.618	-200.000	-0.026	-0.228
-288.603	266.656	-0.097	-0.167
-287.589	-200.000	-0.046	-0.258
-286.574	-182.259	0.291	0.005
-285.559	584.043	0.091	0.221
-284.545	36.613	0.134	-0.117
-283.530	-162.720	0.156	-0.008
-282.516	19.461	0.165	0.131
-281.501	589.573	-0.039	0.095
-280.486	728.105	-0.034	-0.090
-279.472	-100.125	-0.095	-0.023
-278.457	-25.169	0.090	-0.053
-277.443	-200.000	-0.038	0.319
-276.428	394.987	0.116	-0.239
-275.413	-104.042	0.169	0.039
-274.399	-200.000	-0.049	-0.262
-273.384	460.618	0.185	-0.406
-272.370	150.854	0.132	0.177
-271.355	-143.192	0.057	-0.005
-270.340	-38.213	0.185	-0.097
-269.326	800.000	0.152	0.568
-268.311	45.749	0.103	0.094
-267.297	733.657	-0.169	-0.447
-266.282	370.447	0.083	-0.166
-265.267	-200.000	0.018	0.166
-264.253	800.000	-0.052	0.200
-263.238	-94.476	-0.222	-0.060
-262.224	534.020	-0.144	0.336
-261.209	-153.900	-0.288	-0.019
-260.195	-56.835	0.393	0.171
-259.180	405.947	0.156	0.325
-258.165	-200.000	0.430	0.000
-257.151	-200.000	0.260	-0.001
-256.136	-14.223	-0.053	-0.034
-255.122	-155.354	-0.256	0.016
-254.107	28.791	-0.058	0.048
-253.092	-200.000	0.053	0.282
-252.078	800.000	0.113	0.348
-251.063	318.513	0.064	-0.120
-250.049	110.054	0.030	-0.036
-249.034	-110.858	-0.346	-0.070
-248.019	-200.000	0.009	-0.091
-247.005	-200.000	-0.020	-0.156
-245.990	211.299	0.167	-0.258
-244.976	308.425	-0.064	0.118
-243.961	-200.000	-0.065	0.285
-242.946	-47.858	-0.170	-0.081
-241.932	-139.755	-0.452	-0.047
-240.917	-200.000	0.061	-0.482
-239.903	-122.610	-0.253	0.040
-238.888	-144.124	0.424	-0.039
-237.873	-200.000	-0.000	0.320
-236.859	35.414	-0.120	-0.103
-235.844	800.000	-0.084	0.284
-234.830	55.003	-0.100	0.096
-233.815	-109.565	-0.349	-0.073
-232.800	-200.000	0.059	-0.399
-231.786	-106.684	-0.138	-0.030
-230.771	77.714	0.183	0.192
-229.757	-200.000	-0.068	-0.000
-228.742	58.069	-0.084	0.081
-227.727	175.984	-0.104	-0.148
-226.713	-137.445	0.251	-0.028
-225.698	335.628	-0.062	0.119
-224.684	-200.000	-0.013	0.240
-223.669	-195.528	0.227	0.002
-222.655	192.026	0.085	-0.126
-221.640	270.758	0.138	0.238
-220.625	-17.840	0.163	0.101
-219.611	-157.616	0.197	0.012
-218.596	-82.379	0.041	-0.013
-217.582	-200.000	0.024	0.118
-216.567	800.000	0.055	-0.227
-215.552	-200.000	0.043	0.488
-214.538	-142.899	-0.309	-0.029
-213.523	-163.267	0.179	-0.008
-212.509	48.788	0.181	-0.167
-211.494	-82.359	-0.228	-0.073
-210.479	-200.000	-0.010	0.120
-209.465	-127.332	0.329	-0.047
-208.450	5.594	0.045	0.032
-207.436	-42.249	0.264	0.133
-206.421	-0.379	0.092	-0.064
-205.406	-154.635	-0.439	-0.029
-204.392	136.221	0.028	0.036
-203.377	508.372	0.220	0.502
-202.363	-200.000	-0.014	-0.065
-201.348	-81.371	0.242	-0.078
-200.333	280.096	-0.111	-0.194
-199.319	-165.267	0.692	0.030
-198.304	301.072	0.110	0.199
-197.290	178.020	-0.141	-0.203
-196.275	-200.000	0.001	0.097
-195.260	-65.381	-0.119	-0.047
-194.246	494.205	0.100	-0.226
-193.231	-44.578	-0.425	-0.209
-192.217	-200.000	-0.016	0.078
-191.202	-138.504	0.151	0.016
-190.187	-32.531	-0.179	-0.098
-189.173	6.271	-0.088	0.064
-188.158	227.510	-0.051	0.082
-187.144	41.467	0.144	0.128
-186.129	273.679	-0.114	-0.199
-185.114	214.030	0.065	0.102
-184.100	156.767	-0.175	-0.238
-183.085	2.513	-0.196	-0.139
-182.071	-165.984	0.278	-0.012
-181.056	-18.270	-0.262	0.161
-180.042	-29.537	-0.086	0.048
-179.027	441.517	-0.038	-0.082
-178.012	-200.000	0.021	0.128
-176.998	-200.000	-0.008	0.198
-175.983	-200.000	-0.042	-0.190
-174.969	800.000	-0.034	-0.136
-173.954	-200.000	0.020	0.160
-172.939	800.000	0.060	0.180
-171.925	-200.000	0.027	0.169
-170.910	-135.575	-0.316	-0.037
-169.896	732.888	0.038	-0.099
-168.881	129.608	-0.182	-0.229
-167.866	-51.230	-0.288	-0.132
-166.852	352.981	-0.053	0.102
-165.837	-200.000	0.035	0.197
-164.823	-134.317	0.523	-0.063
-163.808	-61.160	-0.251	-0.104
-162.793	-32.646	-0.147	0.080
-161.779	-130.593	-0.187	-0.025
-160.764	-122.685	-0.424	0.067
-159.750	-24.254	0.188	-0.110
-158.735	128.490	-0.168	0.210
-157.720	-140.546	0.031	0.003
-156.706	-95.918	-0.360	0.094
-155.691	85.866	0.125	0.135
-154.677	-200.000	-0.047	0.240
-153.662	-200.000	-0.026	0.280
-152.647	-165.797	-0.161	-0.007
-151.633	800.000	-0.023	-0.080
-150.618	14.121	0.163	0.124
-149.604	68.607	0.100	-0.101
-148.589	-200.000	0.016	0.081
-147.574	302.326	0.044	-0.080
-146.560	800.000	0.059	-0.194
-145.545	501.350	-0.172	-0.389
-144.531	177.837	-0.174	0.249
-143.516	390.186	0.137	0.278
-142.502	-200.000	0.335	0.001
-141.487	-200.000	0.015	0.209
-140.472	717.911	0.064	-0.167
-139.458	-55.376	-0.300	0.132
-138.443	-148.112	0.281	0.023
-137.429	-171.863	-0.105	-0.003
-136.414	-129.884	0.254	0.034
-135.399	-200.000	-0.043	-0.279
-134.385	61.731	-0.096	0.093
-133.370	-88.481	-0.129	-0.038
-132.356	-76.977	0.166	0.057
-131.341	-18.266	0.061	0.037
-130.326	540.733	-0.166	0.387
-129.312	291.147	0.162	0.288
-128.297	-100.230	0.154	0.038
-127.283	232.222	-0.180	0.290
-126.268	-170.127	0.192	0.007
-125.253	261.638	0.225	-0.382
-124.239	-73.058	-0.125	-0.045
-123.224	-200.000	-0.001	0.031
-122.210	87.058	-0.062	-0.067
-121.195	-42.588	0.157	0.078
-120.180	48.141	0.273	0.250
-119.166	-2.698	-0.012	0.008
-118.151	-32.391	0.207	0.113
-117.137	281.278	-0.102	-0.179
-116.122	66.593	0.237	0.236
-115.107	63.788	0.130	-0.128
-114.093	800.000	0.042	0.175
-113.078	-56.112	-0.086	-0.038
-112.064	-200.000	-0.037	-0.255
-111.049	374.578	0.095	-0.190
-110.034	22.891	0.104	0.083
-109.020	800.000	-0.061	-0.226
-108.005	-200.000	0.029	0.184
-106.991	-54.727	0.181	0.080
-105.976	-108.771	0.202	-0.042
-104.962	20.718	0.139	-0.110
-103.947	-200.000	-0.013	-0.075
-102.932	13.301	-0.125	-0.095
-101.918	-200.000	0.027	-0.174
-100.903	-21.500	0.178	-0.106
-99.889	171.716	0.157	0.221
-98.874	-93.335	-0.395	-0.107
-97.859	142.885	-0.056	0.073
-96.845	-103.362	-0.350	0.081
-95.830	-43.396	-0.250	-0.124
-94.816	-106.786	0.029	0.006
-93.801	23.991	0.190	-0.153
-92.786	-81.214	0.143	-0.046
-91.772	-200.000	-0.013	-0.080
-90.757	-15.109	0.098	-0.061
-89.743	-135.332	-0.157	-0.018
-88.728	250.241	0.023	0.039
-87.713	-34.016	-0.206	-0.111
-86.699	-89.631	-0.507	0.146
-85.684	-77.641	-0.247	-0.084
-84.670	7.147	-0.108	0.079
-83.655	-200.000	-0.023	0.201
-82.640	384.620	0.130	0.262
-81.626	490.214	0.076	-0.169
-80.611	170.670	0.017	-0.024
-79.597	11.552	0.113	-0.085
-78.582	-200.000	0.025	-0.267
-77.567	25.745	0.435	-0.354
-76.553	-200.000	0.007	0.046
-75.538	76.118	-0.267	0.277
-74.524	-47.372	0.105	-0.050
-73.509	462.511	-0.110	-0.241
-72.494	-87.870	0.092	-0.027
-71.480	429.546	0.121	0.255
-70.465	-200.000	0.026	-0.111
-69.451	-177.520	0.130	-0.003
-68.436	800.000	-0.099	0.361
-67.422	529.428	-0.198	0.458
-66.407	-127.730	0.088	0.012
-65.392	27.821	0.257	-0.211
-64.378	-200.000	0.007	-0.040
-63.363	-200.000	-0.076	-0.410
-62.349	234.453	0.040	0.064
-61.334	329.683	-0.785	-1.477
-60.319	137.008	0.545	0.697
-59.305	384.337	-0.545	-1.097
-58.290	177.110	0.763	1.085
-57.276	800.000	0.671	2.166
-56.261	-200.000	117.111	651.721
-55.246	505.716	1542.643	3494.040
-54.232	174.349	2720.250	3843.864
-53.217	99.266	2290.748	2588.378
-52.203	35.525	1897.791	1628.499
-51.188	29.616	1690.055	1405.389
-50.173	27.239	1648.227	1352.896
-49.159	48.057	1704.988	1557.567
-48.144	46.705	1718.512	1559.647
-47.130	29.244	1676.185	1390.829
-46.115	26.547	1662.273	1359.015
-45.100	26.506	1657.033	1354.364
-44.086	26.465	1654.460	1351.902
-43.071	26.486	1652.117	1350.093
-42.057	26.338	1649.758	1347.007
-41.042	26.431	1647.563	1345.854
-40.027	26.433	1645.762	1344.347
-39.013	26.416	1643.658	1342.446
-37.998	26.390	1642.211	1341.022
-36.984	26.555	1640.817	1341.048
-35.969	26.519	1639.321	1339.510
-34.954	26.542	1637.705	1338.302
-33.940	26.527	1635.796	1336.584
-32.925	26.540	1634.186	1335.308
-31.911	26.509	1632.614	1333.741
-30.896	26.489	1631.148	1332.346
-29.881	26.599	1629.047	1331.386
-28.867	26.530	1627.841	1329.836
-27.852	26.565	1626.224	1328.720
-26.838	26.617	1624.785	1327.875
-25.823	26.540	1623.621	1326.307
-24.809	26.578	1622.301	1325.455
-23.794	26.519	1621.069	1323.964
-22.779	26.519	1619.283	1322.449
-21.765	26.571	1617.310	1321.169
-20.750	26.553	1615.999	1319.915
-19.736	26.545	1614.532	1318.606
-18.721	26.648	1613.150	1318.171
-17.706	26.553	1612.155	1316.618
-16.692	26.601	1610.004	1315.153
-15.677	26.650	1608.644	1314.348
-14.663	26.583	1607.776	1313.104
-13.648	26.604	1605.716	1311.520
-12.633	26.626	1604.605	1310.717
-11.619	26.675	1602.824	1309.568
-10.604	26.624	1601.076	1307.720
-9.590	26.674	1599.876	1307.046
-8.575	26.605	1598.787	1305.610
-7.560	26.652	1597.069	1304.491
-6.546	26.623	1596.585	1303.838
-5.531	26.613	1595.468	1302.796
-4.517	26.618	1594.121	1301.686
-3.502	26.554	1593.350	1300.539
-2.487	26.633	1591.204	1299.303
-1.473	26.212	1579.936	1287.056
-0.458	23.433	1560.291	1251.414
0.556	21.742	1561.437	1218.827
1.571	19.243	1585.818	1220.072
2.586	18.806	1597.812	1226.073
3.600	17.134	1544.487	1173.509
4.615	10.937	1437.986	1052.504
5.629	5.005	1379.153	972.444
6.644	4.066	1371.117	960.872
7.659	3.951	1370.789	959.839
8.673	4.124	1369.433	959.877
9.688	4.089	1367.481	958.209
10.702	4.109	1364.521	956.172
11.717	6.846	1369.482	976.497
12.731	14.294	1383.671	1032.886
13.746	20.938	1394.144	1082.002
14.761	22.799	1396.333	1095.160
15.775	22.280	1394.759	1090.616
16.790	21.274	1392.638	1082.627
17.804	20.667	1389.970	1076.704
18.819	20.359	1389.042	1073.984
19.834	20.355	1388.045	1073.093
20.848	20.220	1387.591	1071.815
21.863	20.164	1385.856	1070.031
22.877	20.092	1384.607	1068.529
23.892	19.982	1383.981	1067.271
24.907	19.834	1383.340	1065.775
25.921	19.922	1381.590	1064.871
26.936	19.835	1381.358	1064.062
27.950	20.052	1380.091	1064.327
28.965	20.101	1378.973	1063.670
29.980	20.276	1378.417	1064.219
30.994	20.329	1377.450	1063.708
32.009	20.424	1376.319	1063.320
33.023	20.428	1375.285	1062.450
34.038	20.286	1373.916	1060.433
35.053	20.150	1372.562	1058.463
36.067	20.247	1371.310	1057.994
37.082	20.088	1370.685	1056.451
38.096	20.285	1369.826	1056.893
39.111	20.239	1369.050	1055.922
40.126	20.013	1368.125	1053.743
41.140	19.817	1367.118	1051.679
42.155	19.623	1366.393	1049.848
43.169	19.538	1366.240	1049.120
44.184	19.558	1365.772	1048.793
45.199	19.662	1365.726	1049.296
46.213	19.912	1365.253	1050.357
47.228	19.931	1364.455	1049.766
48.242	20.056	1362.966	1049.283
49.257	20.035	1361.781	1048.149
50.271	19.999	1360.216	1046.636
51.286	19.959	1359.241	1045.556
52.301	19.989	1358.082	1044.748
53.315	19.839	1356.393	1042.455
54.330	19.709	1355.443	1040.849
55.344	19.728	1354.141	1039.874
56.359	19.733	1352.991	1038.927
57.374	19.551	1352.652	1037.480
58.388	19.575	1351.637	1036.754
59.403	19.555	1350.739	1035.854
60.417	19.415	1350.352	1034.627
61.432	19.352	1349.366	1033.399
62.447	19.330	1348.360	1032.407
63.461	19.231	1347.061	1030.731
64.476	19.147	1346.392	1029.622
65.490	19.155	1345.122	1028.610
66.505	19.244	1343.799	1028.037
67.520	19.337	1342.291	1027.346
68.534	19.395	1341.047	1026.648
69.549	19.242	1340.696	1025.378
70.563	19.140	1339.397	1023.687
71.578	19.104	1337.527	1021.957
72.593	19.014	1336.620	1020.636
73.607	18.953	1336.269	1019.920
74.622	19.030	1335.648	1019.812
75.636	19.199	1334.447	1019.806
76.651	19.306	1333.846	1019.885
77.666	19.207	1334.100	1019.403
78.680	19.255	1333.789	1019.359
79.695	19.359	1333.183	1019.420
80.709	19.537	1332.243	1019.668
81.724	19.709	1330.843	1019.518
82.739	19.732	1330.429	1019.244
83.753	19.804	1330.028	1019.275
84.768	20.038	1329.601	1020.237
85.782	20.189	1328.277	1020.015
86.797	20.327	1326.854	1019.645
87.812	19.985	1326.196	1017.041
88.826	20.009	1324.680	1015.928
89.841	20.189	1323.518	1016.000
90.855	20.258	1323.117	1016.011
91.870	20.300	1321.952	1015.267
92.884	20.363	1321.331	1015.071
93.899	20.293	1320.424	1013.878
94.914	20.345	1319.906	1013.691
95.928	20.356	1319.019	1012.982
96.943	20.295	1317.794	1011.602
97.957	20.300	1316.718	1010.713
98.972	20.268	1315.792	1009.725
99.987	20.315	1314.966	1009.275
101.001	20.317	1314.199	1008.610
102.016	20.143	1313.354	1006.861
103.030	20.223	1312.277	1006.412
104.045	20.173	1311.409	1005.368
105.060	19.986	1310.364	1003.394
106.074	19.659	1308.721	1000.155
107.089	19.462	1306.518	997.244
108.103	19.365	1305.067	995.489
109.118	19.343	1304.317	994.699
110.133	19.319	1302.719	993.256
111.147	19.419	1301.361	992.707
112.162	19.420	1300.773	992.177
113.176	19.506	1299.357	991.505
114.191	19.566	1298.521	991.122
115.206	19.599	1297.447	990.405
116.220	19.521	1296.239	988.945
117.235	19.503	1294.836	987.689
118.249	19.470	1293.432	986.337
119.264	19.394	1292.594	985.181
120.279	19.317	1291.851	984.086
121.293	19.207	1290.287	982.179
122.308	19.114	1289.248	980.773
123.322	18.999	1287.938	979.036
124.337	18.977	1287.234	978.286
125.352	19.017	1286.042	977.521
126.366	18.977	1285.180	976.555
127.381	18.928	1284.461	975.641
128.395	18.983	1283.245	974.948
129.410	19.067	1282.308	974.623
130.424	19.100	1281.400	974.035
131.439	19.271	1280.929	974.553
132.454	19.350	1280.118	974.301
133.468	19.365	1279.172	973.576
134.483	19.400	1278.635	973.283
135.497	19.552	1277.503	973.189
136.512	19.496	1276.446	971.985
137.527	19.555	1275.111	971.214
138.541	19.561	1273.850	970.200
139.556	19.671	1272.665	969.829
140.570	19.780	1271.494	969.460
141.585	19.933	1270.227	969.267
142.600	19.943	1269.731	968.860
143.614	20.235	1268.590	969.532
144.629	20.226	1267.764	968.768
145.643	20.171	1266.453	967.374
146.658	19.823	1265.577	964.676
147.673	19.713	1263.948	962.739
148.687	19.667	1262.611	961.378
149.702	19.623	1260.648	959.553
150.716	19.578	1259.636	958.451
151.731	19.504	1258.763	957.291
152.746	19.565	1257.462	956.555
153.760	19.584	1256.868	956.123
154.775	19.752	1255.858	956.198
155.789	19.735	1254.891	955.285
156.804	19.835	1253.881	954.981
157.819	19.868	1253.521	954.807
158.833	20.035	1252.345	954.748
159.848	20.219	1251.773	955.241
160.862	19.994	1250.479	952.927
161.877	19.761	1249.033	950.463
162.892	19.569	1247.565	948.209
163.906	19.502	1246.942	947.280
164.921	19.530	1245.652	946.370
165.935	19.521	1244.750	945.552
166.950	19.791	1244.190	946.520
167.964	19.679	1243.529	945.322
168.979	19.670	1242.679	944.547
169.994	19.677	1241.981	943.970
171.008	19.752	1241.054	943.588
172.023	19.917	1240.334	943.859
173.037	20.023	1239.835	943.971
174.052	19.960	1239.048	942.948
175.067	19.576	1238.243	940.162
176.081	19.401	1236.860	938.074
177.096	19.512	1235.554	937.604
178.110	19.647	1234.536	937.484
179.125	19.593	1233.674	936.450
180.140	19.767	1232.547	936.458
181.154	19.896	1231.933	936.605
182.169	20.067	1230.148	936.090
183.183	20.052	1229.428	935.378
184.198	20.201	1228.135	935.112
185.213	20.109	1227.414	933.984
186.227	20.106	1226.759	933.390
187.242	20.152	1225.521	932.613
188.256	20.369	1224.540	932.948
189.271	20.369	1223.768	932.281
190.286	20.114	1222.513	929.872
191.300	19.564	1221.179	925.828
192.315	19.491	1220.704	924.995
193.329	19.564	1219.854	924.660
194.344	19.653	1218.999	924.408
195.359	19.697	1218.431	924.130
196.373	19.833	1218.116	924.535
197.388	19.903	1218.086	924.804
198.402	20.209	1217.591	925.979
199.417	20.278	1217.820	926.442
200.432	20.536	1216.866	927.009
201.446	20.660	1216.227	927.104
202.461	20.817	1215.142	927.029
203.475	20.625	1214.488	925.423
204.490	20.421	1212.712	922.904
205.504	20.165	1211.093	920.237
206.519	20.109	1210.003	919.026
207.534	20.030	1209.139	917.870
208.548	20.071	1207.821	917.006
209.563	20.090	1207.478	916.764
210.577	20.114	1206.486	916.058
211.592	20.203	1205.856	915.967
212.607	20.368	1205.140	916.214
213.621	20.333	1204.367	915.363
214.636	20.313	1203.244	914.323
215.650	20.462	1202.009	914.087
216.665	20.466	1201.826	913.888
217.680	20.699	1200.757	914.219
218.694	20.633	1200.008	913.222
219.709	20.630	1198.925	912.302
220.723	20.578	1198.033	911.265
221.738	20.640	1197.722	911.277
222.753	20.586	1196.757	910.176
223.767	20.432	1196.394	909.014
224.782	20.646	1195.769	909.579
225.796	20.796	1195.340	909.957
226.811	20.762	1194.432	909.009
227.826	20.550	1193.770	907.317
228.840	20.477	1192.658	906.010
229.855	20.417	1191.806	904.968
230.869	20.454	1191.066	904.523
231.884	20.347	1190.269	903.281
232.899	20.207	1189.510	901.894
233.913	20.137	1188.207	900.465
234.928	20.020	1187.806	899.473
235.942	19.999	1186.954	898.639
236.957	20.040	1186.270	898.257
237.972	20.048	1185.318	897.496
238.986	19.990	1185.104	896.955
240.001	20.063	1184.250	896.607
241.015	20.170	1183.353	896.401
242.030	20.228	1182.273	895.802
243.045	20.340	1182.102	896.171
244.059	20.351	1181.296	895.539
245.074	20.471	1180.249	895.281
246.088	20.536	1179.778	895.183
247.103	20.663	1179.330	895.417
248.117	20.835	1178.558	895.637
249.132	21.040	1178.367	896.464
250.147	21.232	1177.644	896.821
251.161	21.367	1177.087	897.012
252.176	21.480	1176.687	897.208
253.190	21.487	1176.422	896.960
254.205	21.596	1176.128	897.215
255.220	21.581	1174.611	895.901
256.234	21.504	1174.286	895.181
257.249	21.526	1173.256	894.428
258.263	21.388	1172.693	893.215
259.278	21.501	1172.160	893.310
260.293	21.491	1171.701	892.826
261.307	21.654	1170.995	893.041
262.322	21.646	1170.480	892.532
263.336	21.684	1169.817	892.138
264.351	21.674	1169.014	891.396
265.366	21.667	1168.603	890.969
266.380	21.632	1167.691	890.014
267.395	21.522	1166.603	888.547
268.409	21.485	1165.556	887.486
269.424	21.382	1165.244	886.647
270.439	21.386	1164.731	886.201
271.453	21.303	1163.922	885.085
272.468	21.245	1162.351	883.520
273.482	21.110	1162.252	882.684
274.497	21.211	1161.155	882.284
275.512	21.162	1160.513	881.466
276.526	21.192	1159.767	880.974
277.541	21.127	1159.044	880.019
278.555	21.221	1158.584	880.067
279.570	21.430	1158.212	880.759
280.585	21.672	1157.829	881.609
281.599	21.609	1156.605	880.282
282.614	21.513	1154.872	878.404
283.628	21.362	1153.565	876.575
284.643	21.307	1152.507	875.418
285.657	21.222	1152.348	874.793
286.672	21.350	1151.170	874.463
287.687	21.439	1150.584	874.385
288.701	21.433	1149.795	873.678
289.716	21.402	1149.156	872.961
290.730	21.349	1148.288	871.958
291.745	21.334	1147.853	871.474
292.760	21.383	1147.066	871.047
293.774	21.597	1146.690	871.749
294.789	21.731	1146.064	871.859
295.803	21.679	1145.510	871.103
296.818	21.432	1144.367	868.933
297.833	21.457	1143.566	868.372
298.847	21.436	1143.004	867.763
299.862	21.439	1142.317	867.179
300.876	21.411	1141.439	866.298
301.891	21.496	1141.391	866.606
302.906	21.655	1140.572	866.695
303.920	21.873	1140.011	867.270
304.935	21.935	1139.818	867.354
305.949	22.124	1139.194	867.731
306.964	22.040	1138.280	866.546
307.979	21.838	1137.396	864.798
308.993	21.766	1136.564	863.736
310.008	21.817	1135.711	863.264
311.022	22.016	1134.421	863.187
312.037	21.896	1133.677	861.950
313.052	21.761	1132.845	860.582
314.066	21.535	1131.800	858.604
315.081	21.406	1130.640	857.011
316.095	21.397	1129.887	856.325
317.110	21.312	1129.533	855.564
318.125	21.342	1128.924	855.175
319.139	21.344	1128.467	854.758
320.154	21.350	1127.502	853.984
321.168	21.395	1126.564	853.417
322.183	21.306	1126.113	852.564
323.197	21.371	1125.883	852.631
324.212	21.520	1125.269	852.821
325.227	21.576	1124.402	852.358
326.241	21.629	1123.814	852.094
327.256	21.578	1123.091	851.225
328.270	21.535	1121.982	850.101
329.285	21.425	1121.195	848.894
330.300	21.508	1120.185	848.455
331.314	21.413	1118.908	846.955
332.329	21.502	1118.326	846.868
333.343	21.694	1117.439	847.051
334.358	21.775	1116.687	846.799
335.373	21.811	1116.535	846.784
336.387	21.907	1115.631	846.483
337.402	21.878	1114.990	845.781
338.416	21.940	1114.500	845.633
339.431	22.188	1113.717	846.158
340.446	22.256	1113.583	846.310
341.460	22.239	1113.275	845.921
342.475	22.406	1111.980	845.664
343.489	22.481	1111.077	845.260
344.504	22.561	1110.164	844.876
345.519	22.560	1109.695	844.439
346.533	22.677	1108.742	844.198
347.548	22.714	1108.131	843.836
348.562	22.642	1107.416	842.872
349.577	22.108	1106.473	839.529
350.592	22.003	1105.182	837.977
351.606	21.972	1104.113	836.941
352.621	21.904	1103.267	835.902
353.635	21.877	1102.617	835.209
354.650	21.830	1101.621	834.158
355.665	21.932	1101.602	834.554
356.679	22.011	1100.806	834.251
357.694	22.174	1100.070	834.395
358.708	22.326	1099.347	834.496
359.723	22.339	1099.129	834.315
360.738	22.240	1098.348	833.179
361.752	22.190	1098.281	832.818
362.767	22.126	1097.927	832.174
363.781	22.129	1097.332	831.665
364.796	22.495	1096.701	832.843
365.810	22.621	1096.151	832.945
366.825	22.704	1095.942	833.105
367.840	22.794	1095.320	832.983
368.854	23.101	1094.757	833.931
369.869	22.980	1093.812	832.568
370.883	22.724	1092.580	830.351
371.898	22.535	1091.928	828.893
372.913	22.635	1091.063	828.633
373.927	22.672	1090.747	828.491
374.942	22.861	1090.427	829.065
375.956	22.805	1090.215	828.567
376.971	22.718	1089.370	827.442
377.986	22.843	1088.800	827.520
379.000	22.988	1088.597	827.973
380.015	23.006	1088.203	827.685
381.029	23.097	1087.281	827.337
382.044	23.059	1086.450	826.454
383.059	23.035	1085.595	825.619
384.073	22.996	1084.766	824.731
385.088	23.103	1083.744	824.381
386.102	22.999	1082.794	823.099
387.117	22.668	1081.870	820.787
388.132	22.560	1080.747	819.358
389.146	22.599	1080.110	818.984
390.161	22.497	1079.028	817.617
391.175	22.535	1078.782	817.538
392.190	22.684	1078.253	817.751
393.205	22.852	1077.881	818.180
394.219	22.908	1076.593	817.387
395.234	22.733	1075.545	815.707
396.248	22.613	1074.428	814.238
397.263	22.619	1073.337	813.367
398.278	22.480	1072.638	812.122
399.292	22.447	1071.560	811.083
400.307	22.445	1071.128	810.672
401.321	22.273	1070.867	809.613
402.336	22.310	1069.682	808.814
403.350	22.451	1068.908	808.805
404.365	22.357	1068.886	808.285
405.380	22.518	1068.478	808.647
406.394	22.683	1067.323	808.455
407.409	22.920	1067.037	809.253
408.423	22.976	1066.150	808.765
409.438	23.084	1065.436	808.647
410.453	23.125	1065.285	808.649
411.467	23.228	1064.680	808.586
412.482	23.353	1063.943	808.525
413.496	23.298	1063.470	807.845
414.511	23.517	1062.155	807.773
415.526	23.576	1062.278	808.063
416.540	23.463	1062.103	807.342
417.555	23.447	1061.819	806.986
418.569	23.449	1060.619	806.008
419.584	23.362	1060.316	805.313
420.599	23.301	1059.794	804.569
421.613	158.108	1404.007	1798.497
422.628	145.402	1454.105	1798.572
