DTS Sentinel unit serial number:	SN413079Multiplexer serial number:	ORYXHardware model number:	OX4-SRSoftware version number:	ORYX F/W v4.00 Oryx Data Collector v3.7.2.0data status	okinstallation	princeton_trtdifferential loss correction	single-endedforward channel	channel 2reverse channel	N/Adate	2019/09/15time	16:47:35forward acquisition time	60.00reverse acquisition time	0.00gamma	496.2192k internal	0.2285k external	0.2285temperature offset calibration	0.9934default loss term (dB/km)	0.3790temperature slope calibration	1.0000multiplexer offset coefficient	1.0000multiplexer slope coefficient	1.0000fibre end	0.00T internal ref (°C)	44.30T ext. ref 1 (°C)	5.74T ext. ref 2 (°C)	40.27length (m)	temperature (°C)	Stokes	anti-Stokes-747.200	-44.974	-0.132	0.067
-746.185	38.115	0.015	0.013
-745.171	558.817	-0.139	-0.344
-744.156	345.358	0.048	0.096
-743.142	800.000	-0.069	0.280
-742.127	20.905	-0.327	0.272
-741.112	-175.863	-0.260	0.007
-740.098	-200.000	-0.020	0.173
-739.083	112.038	-0.212	0.263
-738.069	-200.000	-0.068	0.454
-737.054	-177.289	-0.064	-0.002
-736.039	-117.839	-0.267	0.049
-735.025	-106.654	0.117	0.027
-734.010	-63.575	0.210	0.088
-732.996	161.976	0.089	-0.128
-731.981	-82.044	-0.242	-0.081
-730.966	131.509	-0.051	0.067
-729.952	243.586	0.158	0.272
-728.937	76.218	-0.159	-0.173
-727.923	-5.409	-0.169	0.119
-726.908	-31.183	-0.358	-0.207
-725.894	15.465	-0.114	-0.092
-724.879	-16.373	0.094	0.061
-723.864	578.234	-0.052	-0.131
-722.850	-155.321	-0.096	-0.006
-721.835	337.734	0.050	-0.099
-720.821	157.423	-0.247	0.351
-719.806	-89.624	-0.137	0.041
-718.791	147.605	-0.151	0.208
-717.777	-173.476	-0.477	0.015
-716.762	529.522	-0.113	-0.275
-715.748	-1.900	0.038	0.027
-714.733	800.000	-0.087	0.288
-713.718	37.694	0.137	-0.124
-712.704	-122.640	0.232	0.039
-711.689	-139.387	-0.176	0.019
-710.675	-106.437	0.091	0.021
-709.660	-200.000	0.001	-0.344
-708.645	-129.650	0.155	0.022
-707.631	646.361	-0.083	0.218
-706.616	1.465	-0.192	-0.142
-705.602	-10.499	-0.348	-0.236
-704.587	800.000	-0.050	-0.169
-703.572	-99.796	0.174	-0.045
-702.558	-42.452	-0.186	-0.097
-701.543	26.808	0.206	0.177
-700.529	12.773	-0.077	0.061
-699.514	-200.000	0.021	0.511
-698.499	-24.651	-0.086	0.052
-697.485	-200.000	0.054	-0.407
-696.470	-200.000	-0.001	-0.118
-695.456	463.168	-0.151	-0.346
-694.441	800.000	0.144	-0.522
-693.426	-53.773	0.126	-0.059
-692.412	105.941	-0.148	0.179
-691.397	-82.691	0.164	-0.054
-690.383	-60.203	0.212	-0.092
-689.368	800.000	-0.065	-0.280
-688.354	-118.044	0.141	0.026
-687.339	70.780	-0.277	0.294
-686.324	-149.547	-0.282	-0.023
-685.310	108.931	0.061	-0.075
-684.295	-46.687	0.095	-0.048
-683.281	-149.686	0.378	-0.030
-682.266	26.509	-0.203	-0.174
-681.251	39.598	0.099	0.091
-680.237	-146.796	0.248	-0.022
-679.222	-186.847	-0.285	-0.004
-678.208	60.376	-0.132	0.133
-677.193	-123.692	-0.446	-0.072
-676.178	-32.477	-0.164	0.094
-675.164	8.410	-0.189	0.146
-674.149	-200.000	-0.022	-0.176
-673.135	-101.402	0.136	0.034
-672.120	-76.811	-0.183	0.065
-671.105	800.000	0.033	0.096
-670.091	-200.000	-0.066	-0.332
-669.076	-200.000	0.023	-0.383
-668.062	-200.000	0.009	-0.263
-667.047	374.464	0.004	-0.008
-666.032	-150.751	0.196	0.015
-665.018	56.878	-0.016	0.016
-664.003	-93.393	-0.215	-0.061
-662.989	-110.887	0.071	0.015
-661.974	722.672	0.083	0.226
-660.959	183.177	-0.095	0.144
-659.945	-200.000	0.020	0.195
-658.930	-200.000	-0.010	0.111
-657.916	39.362	-0.080	-0.073
-656.901	-134.406	0.070	-0.009
-655.886	800.000	0.032	-0.130
-654.872	-200.000	0.054	-0.374
-653.857	156.480	-0.198	-0.280
-652.843	-200.000	-0.041	-0.193
-651.828	-200.000	-0.010	-0.114
-650.814	269.353	0.078	-0.140
-649.799	-84.992	0.500	-0.160
-648.784	-117.435	-0.153	-0.028
-647.770	-199.261	0.189	-0.001
-646.755	-200.000	-0.013	-0.176
-645.741	88.749	-0.202	-0.229
-644.726	-107.322	0.437	-0.098
-643.711	253.056	0.033	-0.058
-642.697	691.595	0.160	0.429
-641.682	137.915	0.118	0.157
-640.668	-31.340	0.243	-0.140
-639.653	-200.000	0.021	-0.115
-638.638	40.395	-0.090	0.083
-637.624	-200.000	0.047	-0.302
-636.609	-122.013	0.197	-0.033
-635.595	-200.000	-0.063	0.323
-634.580	-137.482	0.138	-0.016
-633.565	59.874	0.196	0.198
-632.551	152.850	0.058	-0.081
-631.536	-141.749	-0.331	0.034
-630.522	-64.642	-0.534	0.221
-629.507	-101.113	-0.148	0.037
-628.492	-146.769	0.236	0.021
-627.478	-142.296	0.304	-0.031
-626.463	-200.000	0.014	-0.190
-625.449	800.000	-0.052	-0.204
-624.434	800.000	0.060	-0.214
-623.419	-50.097	0.267	-0.129
-622.405	449.229	-0.164	-0.369
-621.390	161.415	-0.122	0.174
-620.376	21.105	-0.354	-0.293
-619.361	-147.429	0.124	0.011
-618.346	93.790	0.130	0.151
-617.332	800.000	0.013	0.045
-616.317	497.072	-0.060	-0.142
-615.303	7.217	0.246	0.187
-614.288	-11.623	-0.166	0.112
-613.273	800.000	-0.072	0.260
-612.259	-200.000	-0.027	-0.428
-611.244	800.000	-0.099	-0.324
-610.230	-137.028	0.256	0.030
-609.215	37.713	0.022	0.020
-608.201	-200.000	-0.006	-0.238
-607.186	-108.023	0.105	0.023
-606.171	800.000	0.076	-0.226
-605.157	800.000	-0.102	-0.292
-604.142	800.000	0.056	-0.164
-603.128	47.087	0.212	-0.202
-602.113	-140.860	-0.188	-0.020
-601.098	-200.000	-0.040	-0.209
-600.084	407.147	-0.136	0.294
-599.069	145.309	-0.173	0.236
-598.055	-146.687	0.355	-0.031
-597.040	104.319	0.263	-0.316
-596.025	82.907	0.314	-0.348
-595.011	656.083	-0.041	-0.107
-593.996	800.000	0.081	0.320
-592.982	253.721	-0.167	0.291
-591.967	64.390	-0.163	0.167
-590.952	471.379	0.079	0.182
-589.938	148.706	0.028	0.039
-588.923	-55.641	0.153	0.070
-587.909	3.399	-0.080	-0.060
-586.894	97.062	0.109	-0.128
-585.879	-172.334	-0.284	-0.009
-584.865	51.167	-0.288	-0.278
-583.850	-160.628	0.130	0.007
-582.836	-140.641	0.212	0.022
-581.821	-76.034	-0.085	0.031
-580.806	-59.044	-0.052	0.023
-579.792	74.402	0.168	-0.180
-578.777	800.000	-0.050	-0.159
-577.763	800.000	-0.030	0.118
-576.748	52.350	-0.040	-0.039
-575.733	800.000	-0.067	-0.261
-574.719	800.000	0.028	-0.121
-573.704	-6.023	-0.221	-0.154
-572.690	-182.018	0.307	-0.006
-571.675	800.000	0.085	0.288
-570.661	800.000	0.062	-0.268
-569.646	800.000	-0.050	-0.152
-568.631	-200.000	-0.041	-0.574
-567.617	127.485	-0.191	-0.247
-566.602	-200.000	0.029	-0.223
-565.588	230.262	0.005	0.009
-564.573	0.537	-0.117	-0.085
-563.558	-69.259	0.265	-0.104
-562.544	-170.298	0.190	0.007
-561.529	19.591	-0.145	0.119
-560.515	-52.265	0.061	0.029
-559.500	519.114	-0.075	0.179
-558.485	784.956	-0.080	0.224
-557.471	62.767	0.249	0.254
-556.456	147.830	0.074	-0.102
-555.442	-81.177	-0.306	0.103
-554.427	696.297	0.109	-0.292
-553.412	128.295	-0.134	-0.173
-552.398	-200.000	-0.024	-0.135
-551.383	-175.064	0.065	-0.002
-550.369	-200.000	0.046	0.285
-549.354	-52.161	0.144	-0.068
-548.339	-76.038	-0.076	0.027
-547.325	-56.482	-0.047	0.021
-546.310	-91.082	-0.212	-0.062
-545.296	192.278	-0.029	0.045
-544.281	126.046	0.099	0.128
-543.266	-149.305	-0.118	-0.010
-542.252	123.668	-0.148	-0.189
-541.237	-80.205	-0.227	0.077
-540.223	116.682	-0.106	-0.132
-539.208	-200.000	0.045	-0.299
-538.193	800.000	0.089	0.279
-537.179	-0.012	0.201	0.146
-536.164	800.000	0.062	0.189
-535.150	-200.000	0.040	0.257
-534.135	-55.989	0.304	0.138
-533.121	-200.000	0.020	0.357
-532.106	-86.099	0.295	-0.093
-531.091	-159.149	-0.306	0.018
-530.077	683.280	0.060	-0.160
-529.062	-98.694	-0.335	0.087
-528.048	581.818	-0.084	-0.210
-527.033	-49.135	0.096	-0.047
-526.018	189.153	-0.083	0.126
-525.004	115.311	0.280	-0.348
-523.989	-18.866	-0.298	-0.189
-522.975	-7.484	-0.337	-0.232
-521.960	202.599	-0.162	-0.255
-520.945	-149.300	0.195	-0.016
-519.931	800.000	0.094	0.281
-518.916	61.246	0.045	-0.046
-517.902	800.000	0.039	0.140
-516.887	800.000	-0.031	-0.117
-515.872	61.836	0.101	-0.102
-514.858	-11.147	-0.151	-0.101
-513.843	389.325	0.096	-0.201
-512.829	13.738	-0.356	-0.282
-511.814	-76.621	-0.044	0.016
-510.799	-112.351	0.169	0.034
-509.785	-19.529	-0.214	-0.135
-508.770	800.000	-0.046	-0.132
-507.756	120.548	-0.156	0.197
-506.741	162.351	0.255	0.363
-505.726	-114.472	-0.093	-0.018
-504.712	-200.000	0.021	-0.126
-503.697	79.970	-0.183	0.200
-502.683	177.340	-0.123	-0.182
-501.668	-146.881	0.154	-0.013
-500.653	-200.000	-0.021	-0.172
-499.639	-200.000	0.031	-0.412
-498.624	-200.000	0.058	-0.317
-497.610	-200.000	0.024	0.205
-496.595	800.000	-0.033	0.107
-495.581	-24.760	-0.365	0.220
-494.566	9.914	0.156	-0.121
-493.551	-39.412	0.108	-0.058
-492.537	5.028	0.158	-0.118
-491.522	800.000	-0.067	0.281
-490.508	-110.790	-0.066	-0.014
-489.493	-70.220	0.139	-0.054
-488.478	508.653	-0.139	0.328
-487.464	32.102	-0.140	0.123
-486.449	-90.348	0.135	0.040
-485.435	-90.443	0.219	-0.064
-484.420	-145.128	-0.415	0.038
-483.405	-52.872	0.168	0.079
-482.391	800.000	0.118	0.490
-481.376	148.405	0.186	0.255
-480.362	-200.000	-0.042	0.188
-479.347	800.000	-0.049	-0.145
-478.332	334.498	0.030	0.060
-477.318	-200.000	-0.040	0.276
-476.303	-78.098	-0.199	-0.069
-475.289	-3.723	0.170	0.120
-474.274	-200.000	-0.043	-0.259
-473.259	-101.261	-0.078	0.019
-472.245	-190.142	0.203	-0.002
-471.230	-20.668	-0.107	-0.067
-470.216	-115.613	-0.266	0.051
-469.201	-200.000	0.003	0.132
-468.186	-21.403	0.219	-0.136
-467.172	-60.598	-0.132	-0.057
-466.157	-171.357	-0.020	0.001
-465.143	-128.886	-0.105	-0.015
-464.128	30.950	0.123	-0.107
-463.113	-171.860	-0.376	0.012
-462.099	90.480	0.039	-0.045
-461.084	-125.606	-0.162	0.025
-460.070	-88.749	0.226	-0.068
-459.055	800.000	-0.090	0.311
-458.040	-200.000	-0.062	0.434
-457.026	-80.272	0.233	-0.079
-456.011	-36.079	0.176	-0.096
-454.997	249.910	-0.165	0.284
-453.982	-128.173	0.239	-0.035
-452.968	679.279	0.070	-0.186
-451.953	-157.281	0.255	0.016
-450.938	30.490	-0.204	0.177
-449.924	800.000	0.030	0.096
-448.909	158.744	-0.082	-0.116
-447.895	444.648	0.012	-0.026
-446.880	40.601	0.190	-0.174
-445.865	21.198	-0.274	0.225
-444.851	800.000	-0.072	0.278
-443.836	214.447	-0.068	-0.109
-442.822	-129.688	-0.352	0.049
-441.807	75.830	0.275	-0.295
-440.792	-113.090	-0.323	0.065
-439.778	36.576	-0.093	0.083
-438.763	-57.621	0.183	-0.081
-437.749	-115.409	-0.292	0.056
-436.734	439.076	-0.105	-0.232
-435.719	65.724	0.115	0.118
-434.705	-61.142	-0.174	0.074
-433.690	66.701	-0.189	0.195
-432.676	-15.729	-0.272	0.176
-431.661	-80.573	0.147	-0.050
-430.646	-200.000	-0.054	-0.257
-429.632	121.411	-0.085	-0.108
-428.617	19.091	0.077	0.062
-427.603	-111.216	0.195	0.040
-426.588	-154.031	0.075	0.005
-425.573	-120.792	-0.219	-0.037
-424.559	-29.827	0.231	0.134
-423.544	264.813	0.079	-0.140
-422.530	61.354	-0.114	0.115
-421.515	-23.997	-0.182	-0.110
-420.500	-70.515	0.211	0.081
-419.486	800.000	-0.080	0.322
-418.471	-96.555	0.042	0.011
-417.457	-157.273	0.042	0.003
-416.442	127.252	-0.128	-0.165
-415.428	-175.073	0.066	0.002
-414.413	-200.000	0.040	0.183
-413.398	-200.000	0.018	-0.128
-412.384	-38.898	-0.164	0.088
-411.369	-200.000	0.006	-0.042
-410.355	26.599	-0.108	0.092
-409.340	-44.575	0.150	0.076
-408.325	-84.572	0.329	-0.105
-407.311	129.926	-0.037	-0.048
-406.296	156.384	-0.096	-0.134
-405.282	-79.483	-0.157	0.054
-404.267	-89.438	0.055	0.016
-403.252	80.857	0.084	-0.092
-402.238	-200.000	-0.025	0.316
-401.223	85.628	-0.086	0.096
-400.209	-71.583	0.285	-0.108
-399.194	-55.821	-0.230	0.104
-398.179	16.976	-0.229	-0.184
-397.165	-9.555	0.053	0.036
-396.150	242.359	0.158	0.269
-395.136	319.233	0.070	-0.134
-394.121	-136.413	-0.097	-0.011
-393.106	-58.745	-0.138	-0.061
-392.092	-45.724	0.188	0.094
-391.077	-18.218	0.311	0.197
-390.063	-70.264	-0.120	-0.046
-389.048	-85.605	0.245	0.077
-388.033	-49.084	0.161	-0.078
-387.019	-200.000	0.059	-0.285
-386.004	-47.899	-0.195	-0.096
-384.990	42.815	0.089	0.082
-383.975	-159.874	0.294	0.016
-382.960	-133.747	-0.293	0.037
-381.946	-200.000	0.024	-0.198
-380.931	800.000	0.098	-0.288
-379.917	7.463	0.082	-0.062
-378.902	57.696	0.093	0.092
-377.888	15.576	-0.157	-0.125
-376.873	124.979	0.157	0.200
-375.858	258.856	-0.070	0.122
-374.844	800.000	0.039	0.165
-373.829	-200.000	0.030	0.443
-372.815	-200.000	-0.029	0.314
-371.800	-38.748	-0.165	0.088
-370.785	184.969	-0.063	0.095
-369.771	-161.580	-0.186	-0.010
-368.756	52.688	-0.126	-0.122
-367.742	67.402	-0.100	0.104
-366.727	51.227	0.291	0.279
-365.712	-79.483	-0.259	-0.089
-364.698	-130.054	0.280	0.039
-363.683	-176.438	-0.176	0.005
-362.669	-68.478	-0.177	0.069
-361.654	-56.856	-0.236	-0.106
-360.639	389.262	-0.078	0.163
-359.625	-200.000	0.069	-0.314
-358.610	91.356	0.102	-0.116
-357.596	-52.084	-0.097	0.046
-356.581	29.778	-0.112	0.097
-355.566	204.630	0.074	0.116
-354.552	-102.208	0.165	0.040
-353.537	800.000	0.040	-0.120
-352.523	-137.030	-0.247	0.029
-351.508	46.099	0.085	0.080
-350.493	120.997	-0.057	0.072
-349.479	-29.796	0.223	0.128
-348.464	-119.042	-0.160	-0.028
-347.450	-200.000	-0.029	-0.139
-346.435	-83.117	-0.191	0.062
-345.420	184.992	0.100	0.150
-344.406	800.000	-0.081	0.276
-343.391	56.165	-0.065	0.063
-342.377	539.018	-0.058	-0.139
-341.362	-200.000	0.014	-0.172
-340.348	-121.400	0.055	-0.009
-339.333	-200.000	0.044	-0.422
-338.318	-143.829	0.378	0.036
-337.304	800.000	0.036	-0.109
-336.289	-200.000	0.006	-0.086
-335.275	159.109	-0.160	-0.224
-334.260	755.484	-0.119	0.324
-333.245	800.000	-0.041	-0.144
-332.231	38.307	-0.197	-0.177
-331.216	-200.000	-0.060	-0.274
-330.202	111.633	0.266	0.324
-329.187	-88.194	0.067	0.020
-328.172	-200.000	-0.020	-0.140
-327.158	-45.919	-0.272	0.136
-326.143	-94.306	-0.289	-0.080
-325.129	319.859	0.146	-0.281
-324.114	576.536	0.099	0.244
-323.099	66.695	-0.113	0.116
-322.085	61.874	0.184	0.185
-321.070	-129.272	-0.148	0.021
-320.056	285.447	-0.065	-0.119
-319.041	800.000	0.009	0.040
-318.026	-200.000	-0.034	-0.381
-317.012	-200.000	0.001	0.098
-315.997	-129.927	-0.249	-0.034
-314.983	509.959	-0.128	0.300
-313.968	173.424	0.111	0.162
-312.953	493.010	-0.038	-0.089
-311.939	800.000	-0.076	0.305
-310.924	112.149	-0.092	0.113
-309.910	182.290	-0.176	-0.262
-308.895	800.000	0.069	0.303
-307.880	-156.789	-0.113	0.007
-306.866	-200.000	-0.008	0.054
-305.851	-11.226	0.169	-0.112
-304.837	-26.291	0.347	0.206
-303.822	-36.958	0.150	-0.081
-302.807	800.000	0.055	-0.160
-301.793	-25.907	-0.444	-0.264
-300.778	21.475	-0.074	-0.060
-299.764	27.025	-0.192	0.163
-298.749	-200.000	-0.049	-0.272
-297.735	651.037	0.023	0.061
-296.720	-200.000	0.012	0.397
-295.705	-73.718	0.293	-0.108
-294.691	396.002	-0.032	-0.067
-293.676	478.873	-0.054	0.124
-292.662	-166.208	0.156	-0.007
-291.647	-100.369	0.399	-0.100
-290.632	-116.685	0.152	-0.028
-289.618	800.000	-0.075	0.274
-288.603	-39.921	-0.014	0.007
-287.589	39.552	0.126	0.114
-286.574	491.833	0.175	0.403
-285.559	-63.090	-0.208	-0.087
-284.545	-61.046	0.074	-0.031
-283.530	196.251	0.101	-0.155
-282.516	-23.113	0.201	-0.122
-281.501	47.989	-0.267	0.252
-280.486	800.000	0.057	0.206
-279.472	-138.960	0.335	0.037
-278.457	-200.000	0.013	-0.112
-277.443	-43.110	-0.214	0.109
-276.428	-200.000	-0.004	-0.169
-275.413	552.372	-0.087	0.210
-274.399	-52.002	0.278	-0.130
-273.384	-200.000	0.046	-0.313
-272.370	48.057	0.061	0.057
-271.355	-98.515	-0.092	-0.024
-270.340	724.424	-0.071	0.192
-269.326	-56.929	-0.132	-0.059
-268.311	-40.251	0.029	0.015
-267.297	176.040	-0.196	-0.287
-266.282	235.889	-0.057	-0.095
-265.267	573.807	0.103	0.253
-264.253	204.009	0.082	-0.128
-263.238	399.644	-0.089	0.188
-262.224	554.713	-0.083	-0.201
-261.209	566.147	-0.127	0.309
-260.195	800.000	-0.057	-0.168
-259.180	-131.701	0.143	-0.019
-258.165	72.063	-0.076	-0.079
-257.151	168.250	-0.057	0.081
-256.136	-141.053	-0.160	0.016
-255.122	-47.137	-0.142	-0.070
-254.107	-48.706	-0.240	0.116
-253.092	-126.995	0.235	0.035
-252.078	428.045	0.022	-0.047
-251.063	398.187	-0.048	0.102
-250.049	45.894	-0.197	-0.184
-249.034	-152.295	0.280	-0.020
-248.019	-24.919	-0.447	-0.267
-247.005	632.646	0.019	-0.050
-245.990	29.282	-0.237	0.203
-244.976	99.667	0.150	0.175
-243.961	498.662	-0.111	0.258
-242.946	800.000	-0.043	0.147
-241.932	153.587	0.130	-0.180
-240.917	391.941	-0.081	-0.169
-239.903	-8.965	-0.165	0.111
-238.888	104.724	-0.201	0.239
-237.873	157.390	0.134	0.187
-236.859	41.395	0.127	0.115
-235.844	-200.000	0.002	0.117
-234.830	268.870	-0.036	-0.064
-233.815	-25.116	-0.065	-0.039
-232.800	417.533	-0.117	0.251
-231.786	246.303	0.145	-0.245
-230.771	218.650	0.280	0.451
-229.757	800.000	0.039	0.142
-228.742	297.815	0.134	0.247
-227.727	-11.413	-0.141	0.093
-226.713	207.682	-0.075	-0.118
-225.698	-38.502	0.186	-0.099
-224.684	48.927	0.074	-0.069
-223.669	186.297	-0.150	-0.225
-222.655	-200.000	-0.020	0.242
-221.640	231.820	0.140	0.231
-220.625	-112.724	-0.293	0.059
-219.611	-151.861	0.294	-0.022
-218.596	72.989	0.130	-0.136
-217.582	184.699	-0.052	0.077
-216.567	-200.000	0.001	-0.034
-215.552	-119.258	-0.182	0.032
-214.538	-94.995	-0.246	-0.067
-213.523	73.706	-0.069	0.072
-212.509	-200.000	0.012	-0.095
-211.494	800.000	-0.122	0.410
-210.479	-98.672	-0.193	-0.049
-209.465	800.000	0.054	-0.200
-208.450	-200.000	0.059	-0.379
-207.436	-76.398	0.272	-0.096
-206.421	-156.351	0.303	0.019
-205.406	27.959	0.088	0.075
-204.392	462.753	0.068	-0.153
-203.377	-77.402	0.156	0.054
-202.363	-81.990	-0.133	0.044
-201.348	74.092	0.074	-0.078
-200.333	-69.595	0.091	-0.035
-199.319	-200.000	0.044	0.232
-198.304	143.652	0.145	-0.195
-197.290	-16.608	-0.289	0.184
-196.275	501.339	0.129	-0.300
-195.260	16.711	-0.188	0.149
-194.246	-6.540	-0.288	-0.197
-193.231	-156.133	0.433	0.027
-192.217	588.856	0.134	0.331
-191.202	-28.920	0.066	-0.038
-190.187	453.963	0.050	-0.111
-189.173	800.000	-0.065	0.281
-188.158	-2.770	-0.184	-0.129
-187.144	350.388	-0.047	-0.094
-186.129	-152.245	0.099	-0.007
-185.114	87.509	0.293	0.325
-184.100	-80.760	-0.107	0.036
-183.085	-64.042	-0.091	0.037
-182.071	-200.000	0.023	-0.137
-181.056	14.866	0.216	0.169
-180.042	90.764	0.127	-0.143
-179.027	-200.000	0.067	-0.401
-178.012	663.324	0.068	-0.176
-176.998	-45.161	0.124	0.062
-175.983	-133.161	-0.233	0.030
-174.969	-121.378	0.404	-0.068
-173.954	28.126	0.380	-0.322
-172.939	58.906	0.087	0.086
-171.925	50.619	-0.167	-0.159
-170.910	86.835	-0.089	0.098
-169.896	-82.606	0.205	0.067
-168.881	310.365	-0.061	-0.114
-167.866	-133.898	-0.064	-0.008
-166.852	-78.202	-0.368	-0.127
-165.837	-10.048	0.071	0.047
-164.823	352.031	-0.170	-0.338
-163.808	667.983	-0.089	0.232
-162.793	687.040	-0.065	0.172
-161.779	-200.000	-0.033	0.217
-160.764	-52.711	-0.410	0.190
-159.750	-3.735	0.155	-0.108
-158.735	-14.096	0.152	0.098
-157.720	-34.908	0.207	0.113
-156.706	-188.000	0.379	0.005
-155.691	189.768	0.117	-0.176
-154.677	319.890	0.075	-0.142
-153.662	-89.567	-0.270	0.080
-152.647	800.000	-0.016	-0.057
-151.633	80.237	-0.014	0.016
-150.618	-200.000	-0.001	0.076
-149.604	-200.000	0.046	-0.225
-148.589	-87.798	-0.115	-0.035
-147.574	381.551	-0.129	-0.267
-146.560	-30.672	0.189	0.107
-145.545	-200.000	0.046	-0.363
-144.531	800.000	-0.039	0.125
-143.516	-41.747	0.071	0.036
-142.502	-200.000	-0.021	-0.131
-141.487	121.757	-0.038	-0.048
-140.472	-132.563	0.225	0.029
-139.458	286.610	0.105	-0.189
-138.443	301.721	0.081	0.150
-137.429	347.864	0.125	0.248
-136.414	494.815	0.060	0.137
-135.399	-97.467	0.430	0.112
-134.385	252.908	0.204	-0.349
-133.370	72.452	0.348	0.364
-132.356	-107.622	0.267	-0.058
-131.341	15.532	-0.170	-0.134
-130.326	277.731	-0.088	0.157
-129.312	388.779	-0.208	0.431
-128.297	800.000	0.075	0.231
-127.283	-91.045	0.160	-0.046
-126.268	637.001	0.038	0.097
-125.253	-109.724	0.033	-0.007
-124.239	140.652	-0.031	-0.040
-123.224	80.133	-0.236	-0.255
-122.210	-200.000	0.059	-0.458
-121.195	-26.573	-0.257	0.151
-120.180	-200.000	0.027	-0.144
-119.166	-122.402	0.284	-0.046
-118.151	32.431	0.138	0.120
-117.137	-79.081	0.058	-0.020
-116.122	-52.490	0.269	0.124
-115.107	80.246	0.176	0.190
-114.093	289.164	-0.138	0.250
-113.078	-137.097	0.167	-0.019
-112.064	800.000	-0.063	-0.230
-111.049	347.034	0.051	-0.100
-110.034	113.708	-0.152	-0.185
-109.020	345.369	-0.051	-0.100
-108.005	-30.796	0.205	0.116
-106.991	7.539	0.150	-0.113
-105.976	-200.000	-0.017	0.226
-104.962	-162.011	0.154	-0.008
-103.947	-200.000	0.060	0.370
-102.932	68.666	-0.118	0.122
-101.918	-200.000	-0.009	0.104
-100.903	-76.696	0.108	-0.038
-99.889	88.766	-0.167	-0.186
-98.874	108.900	-0.044	-0.053
-97.859	-161.790	0.120	0.006
-96.845	464.834	0.044	-0.098
-95.830	166.041	0.216	-0.306
-94.816	800.000	0.136	-0.388
-93.801	-31.481	0.240	0.135
-92.786	-200.000	0.001	0.032
-91.772	423.032	0.184	0.395
-90.757	-63.255	-0.149	-0.061
-89.743	-161.524	-0.285	-0.015
-88.728	800.000	-0.062	-0.244
-87.713	-54.687	0.258	-0.117
-86.699	137.447	0.078	-0.102
-85.684	63.082	-0.208	0.208
-84.670	-129.760	0.254	-0.035
-83.655	-40.376	0.279	-0.145
-82.640	-200.000	-0.023	-0.105
-81.626	-46.179	-0.204	0.101
-80.611	-73.352	0.258	-0.095
-79.597	-156.143	-0.249	-0.016
-78.582	-125.757	-0.271	0.041
-77.567	98.859	0.066	-0.077
-76.553	-115.709	0.186	-0.035
-75.538	-200.000	0.050	-0.453
-74.524	-197.284	-0.247	0.002
-73.509	-200.000	-0.064	-0.419
-72.494	800.000	-0.046	0.165
-71.480	-126.457	-0.127	-0.019
-70.465	46.030	-0.116	0.107
-69.451	800.000	-0.110	-0.306
-68.436	-2.198	-0.090	-0.063
-67.422	37.576	0.411	0.364
-66.407	-47.733	-0.344	-0.167
-65.392	323.920	0.055	0.106
-64.378	-46.649	0.029	0.014
-63.363	502.801	0.057	0.131
-62.349	-120.479	0.328	0.056
-61.334	87.906	-0.646	-0.716
-60.319	-200.000	0.041	0.455
-59.305	118.149	0.248	-0.306
-58.290	162.196	0.353	0.495
-57.276	800.000	0.408	1.461
-56.261	-200.000	70.321	523.282
-55.246	583.811	1266.130	3106.735
-54.232	138.307	2532.869	3319.981
-53.217	112.806	2370.097	2868.578
-52.203	54.201	1987.598	1910.941
-51.188	47.791	1773.506	1654.191
-50.173	44.833	1725.913	1586.748
-49.159	57.994	1755.472	1717.129
-48.144	65.067	1774.225	1790.643
-47.130	47.661	1739.565	1621.262
-46.115	44.377	1725.658	1582.713
-45.100	44.274	1721.125	1577.690
-44.086	44.129	1718.595	1574.191
-43.071	44.058	1716.123	1571.310
-42.057	44.025	1713.990	1569.037
-41.042	44.163	1711.297	1567.579
-40.027	44.165	1709.543	1565.924
-39.013	44.143	1707.313	1563.650
-37.998	44.123	1705.972	1562.203
-36.984	44.268	1704.142	1561.580
-35.969	44.261	1702.862	1560.294
-34.954	44.338	1701.009	1559.127
-33.940	44.264	1699.072	1556.723
-32.925	44.304	1697.787	1555.791
-31.911	44.381	1695.606	1554.319
-30.896	44.215	1694.536	1552.004
-29.881	44.240	1692.131	1549.935
-28.867	44.203	1690.117	1547.747
-27.852	44.373	1688.353	1547.361
-26.838	44.394	1687.099	1546.310
-25.823	44.339	1685.615	1544.468
-24.809	44.320	1684.419	1543.168
-23.794	44.330	1683.030	1541.910
-22.779	44.256	1681.648	1540.023
-21.765	44.333	1680.044	1539.075
-20.750	44.228	1678.095	1536.433
-19.736	44.340	1676.702	1535.948
-18.721	44.389	1674.498	1534.236
-17.706	44.387	1672.872	1532.669
-16.692	44.302	1671.569	1530.776
-15.677	44.329	1670.045	1529.521
-14.663	44.308	1668.823	1528.187
-13.648	44.316	1667.484	1526.958
-12.633	44.271	1665.861	1525.074
-11.619	44.327	1664.024	1523.748
-10.604	44.429	1662.087	1522.683
-9.590	44.324	1660.931	1520.771
-8.575	44.318	1659.845	1519.676
-7.560	44.346	1658.533	1518.622
-6.546	44.368	1657.842	1518.096
-5.531	44.291	1656.559	1516.288
-4.517	44.233	1654.994	1514.359
-3.502	44.378	1653.324	1513.856
-2.487	44.429	1651.994	1512.953
-1.473	44.360	1641.999	1503.230
-0.458	42.045	1621.205	1467.196
0.556	34.845	1617.385	1422.403
1.571	30.984	1638.826	1411.960
2.586	29.444	1651.741	1411.192
3.600	25.841	1598.723	1339.049
4.615	16.376	1483.243	1176.611
5.629	7.757	1410.710	1061.653
6.644	5.866	1400.431	1041.284
7.659	5.762	1398.449	1039.030
8.673	5.749	1397.567	1038.195
9.688	5.603	1395.545	1035.632
10.702	5.487	1392.630	1032.615
11.717	9.083	1400.742	1062.373
12.731	16.841	1415.419	1125.106
13.746	19.657	1418.244	1145.954
14.761	17.530	1413.155	1127.673
15.775	16.176	1409.758	1115.909
16.790	15.093	1407.245	1106.668
17.804	14.357	1404.084	1099.225
18.819	13.835	1403.127	1094.941
19.834	13.533	1401.537	1091.613
20.848	13.317	1400.353	1089.171
21.863	13.064	1398.800	1086.204
22.877	12.940	1397.807	1084.521
23.892	12.799	1397.187	1083.013
24.907	12.832	1395.741	1082.015
25.921	12.860	1395.328	1081.784
26.936	12.933	1394.000	1081.135
27.950	12.903	1393.596	1080.532
28.965	12.924	1392.373	1079.623
29.980	12.967	1391.069	1078.799
30.994	13.069	1389.581	1078.215
32.009	13.143	1388.023	1077.393
33.023	13.165	1386.916	1076.584
34.038	13.149	1385.614	1075.371
35.053	12.955	1384.650	1073.266
36.067	13.071	1383.290	1072.869
37.082	13.029	1382.305	1071.743
38.096	13.015	1381.749	1071.126
39.111	13.061	1380.509	1070.367
40.126	12.985	1380.117	1069.472
41.140	12.921	1378.860	1067.989
42.155	12.851	1377.955	1066.746
43.169	12.800	1378.123	1066.446
44.184	12.818	1377.815	1066.231
45.199	12.819	1377.311	1065.756
46.213	12.843	1376.631	1065.290
47.228	12.952	1375.901	1065.333
48.242	12.962	1374.542	1064.253
49.257	12.928	1373.003	1062.748
50.271	12.995	1371.516	1061.930
51.286	13.008	1370.088	1060.818
52.301	12.970	1369.159	1059.762
53.315	12.916	1367.707	1058.197
54.330	12.891	1366.664	1057.132
55.344	12.760	1365.415	1055.234
56.359	12.847	1364.482	1054.976
57.374	12.885	1363.429	1054.315
58.388	12.758	1362.614	1052.776
59.403	12.763	1362.498	1052.630
60.417	12.827	1361.384	1052.081
61.432	12.745	1360.889	1051.086
62.447	12.615	1359.987	1049.467
63.461	12.705	1358.356	1048.687
64.476	12.586	1357.498	1047.176
65.490	12.684	1356.351	1046.822
66.505	12.680	1354.785	1045.492
67.520	12.706	1353.695	1044.722
68.534	12.700	1352.460	1043.644
69.549	12.796	1350.889	1042.946
70.563	12.798	1349.841	1042.059
71.578	12.693	1348.961	1040.621
72.593	12.667	1348.112	1039.711
73.607	12.529	1347.825	1038.525
74.622	12.509	1346.715	1037.452
75.636	12.599	1345.587	1037.061
76.651	12.708	1344.883	1037.113
77.666	12.591	1344.959	1036.337
78.680	12.616	1343.963	1035.639
79.695	12.698	1343.135	1035.426
80.709	12.671	1342.299	1034.519
81.724	12.743	1341.788	1034.485
82.739	12.830	1340.632	1034.049
83.753	12.809	1340.438	1033.675
84.768	12.898	1339.084	1033.100
85.782	12.979	1337.632	1032.391
86.797	13.043	1336.375	1031.734
87.812	12.854	1335.294	1029.623
88.826	12.853	1334.274	1028.742
89.841	13.021	1332.779	1028.548
90.855	12.953	1332.058	1027.477
91.870	13.082	1331.232	1027.550
92.884	12.965	1330.959	1026.520
93.899	12.995	1329.654	1025.610
94.914	13.156	1328.532	1025.654
95.928	13.105	1328.166	1024.963
96.943	13.084	1327.229	1024.017
97.957	12.947	1326.017	1022.140
98.972	12.995	1324.955	1021.530
99.987	13.113	1323.634	1021.150
101.001	13.028	1322.610	1019.749
102.016	13.003	1321.623	1018.743
103.030	13.048	1321.088	1018.517
104.045	13.038	1319.915	1017.460
105.060	12.948	1318.953	1016.076
106.074	12.861	1317.772	1014.538
107.089	12.811	1315.998	1012.778
108.103	12.701	1315.035	1011.273
109.118	12.758	1313.753	1010.548
110.133	12.799	1312.462	1009.711
111.147	12.776	1310.713	1008.137
112.162	12.814	1309.501	1007.349
113.176	12.804	1308.688	1006.574
114.191	12.909	1307.968	1006.569
115.206	12.914	1306.003	1005.000
116.220	12.809	1304.945	1003.459
117.235	12.866	1304.019	1003.003
118.249	12.809	1303.142	1001.896
119.264	12.877	1301.354	1000.846
120.279	12.809	1300.666	999.816
121.293	12.745	1299.530	998.463
122.308	12.698	1298.429	997.244
123.322	12.792	1297.644	997.126
124.337	12.746	1296.664	996.001
125.352	12.811	1295.559	995.457
126.366	12.788	1294.266	994.240
127.381	12.672	1293.267	992.686
128.395	12.758	1292.397	992.448
129.410	12.729	1291.608	991.579
130.424	12.787	1290.348	990.871
131.439	12.818	1289.640	990.430
132.454	12.897	1288.753	990.135
133.468	12.960	1287.528	989.481
134.483	12.879	1287.192	988.650
135.497	12.950	1285.951	988.037
136.512	12.879	1284.911	986.721
137.527	12.942	1283.640	986.040
138.541	12.941	1281.938	984.638
139.556	13.072	1280.186	983.987
140.570	13.083	1279.632	983.537
141.585	13.011	1278.564	982.199
142.600	13.123	1276.993	981.575
143.614	13.150	1275.966	980.856
144.629	13.219	1274.906	980.365
145.643	13.179	1274.062	979.392
146.658	13.117	1272.529	977.762
147.673	13.031	1271.082	976.053
148.687	12.986	1270.025	974.888
149.702	12.894	1268.728	973.264
150.716	12.913	1267.266	972.166
151.731	12.963	1266.083	971.467
152.746	12.931	1265.355	970.637
153.760	12.999	1264.064	969.959
154.775	13.080	1262.736	969.333
155.789	13.032	1261.911	968.329
156.804	12.993	1260.705	967.093
157.819	13.099	1259.924	967.029
158.833	13.137	1258.732	966.251
159.848	13.234	1257.500	965.785
160.862	13.204	1256.773	964.967
161.877	13.009	1255.716	962.928
162.892	13.061	1254.482	962.201
163.906	13.015	1253.461	961.068
164.921	12.995	1252.760	960.326
165.935	13.095	1251.699	960.007
166.950	13.015	1251.395	959.227
167.964	13.158	1250.521	959.301
168.979	13.036	1249.332	957.595
169.994	13.126	1248.860	957.672
171.008	13.113	1248.170	956.984
172.023	13.122	1247.457	956.406
173.037	13.236	1246.420	956.184
174.052	13.269	1245.721	955.754
175.067	13.085	1244.608	953.755
176.081	13.032	1243.405	952.442
177.096	13.146	1242.161	952.064
178.110	13.184	1240.329	950.791
179.125	13.159	1239.963	950.282
180.140	13.125	1238.804	949.118
181.154	13.218	1237.632	948.665
182.169	13.245	1236.518	947.882
183.183	13.292	1235.173	947.041
184.198	13.283	1234.526	946.405
185.213	13.333	1233.037	945.466
186.227	13.540	1231.655	945.509
187.242	13.483	1230.505	944.215
188.256	13.448	1229.895	943.461
189.271	13.432	1228.914	942.534
190.286	13.331	1227.893	941.094
191.300	13.172	1227.040	939.454
192.315	13.151	1226.131	938.555
193.329	13.148	1225.529	937.997
194.344	13.172	1224.937	937.593
195.359	13.267	1224.276	937.545
196.373	13.386	1223.869	937.824
197.388	13.320	1223.643	937.195
198.402	13.470	1223.152	937.588
199.417	13.627	1222.162	937.634
200.432	13.649	1221.337	937.042
201.446	13.664	1220.817	936.644
202.461	13.635	1219.798	935.613
203.475	13.630	1218.782	934.725
204.490	13.530	1217.629	933.195
205.504	13.681	1215.797	932.555
206.519	13.521	1215.043	930.995
207.534	13.573	1213.805	930.260
208.548	13.686	1212.701	929.965
209.563	13.724	1211.650	929.289
210.577	13.700	1210.674	928.322
211.592	13.607	1210.278	927.414
212.607	13.675	1209.550	927.155
213.621	13.753	1208.438	926.656
214.636	13.627	1207.871	925.438
215.650	13.752	1206.480	924.986
216.665	13.716	1205.762	924.152
217.680	13.797	1204.851	923.824
218.694	13.859	1204.033	923.460
219.709	13.765	1203.514	922.456
220.723	13.906	1202.725	922.556
221.738	13.829	1201.886	921.405
222.753	13.894	1201.107	921.085
223.767	13.928	1200.261	920.546
224.782	14.011	1199.609	920.419
225.796	13.985	1198.936	919.681
226.811	13.985	1198.116	918.968
227.826	14.005	1197.250	918.334
228.840	13.978	1196.570	917.580
229.855	13.912	1196.122	916.796
230.869	13.912	1195.291	916.073
231.884	13.850	1194.730	915.223
232.899	13.805	1193.843	914.215
233.913	13.868	1192.945	913.794
234.928	13.860	1192.260	913.141
235.942	13.792	1190.960	911.692
236.957	13.860	1190.169	911.378
237.972	13.873	1189.599	910.932
238.986	13.875	1188.830	910.276
240.001	13.924	1188.316	910.072
241.015	13.965	1187.162	909.329
242.030	13.973	1186.176	908.540
243.045	13.919	1185.705	907.802
244.059	13.980	1184.885	907.429
245.074	14.106	1183.868	907.254
246.088	14.098	1183.133	906.569
247.103	14.082	1182.562	905.964
248.117	14.151	1181.809	905.682
249.132	14.264	1181.401	905.906
250.147	14.334	1180.334	905.385
251.161	14.350	1179.811	904.993
252.176	14.476	1179.003	904.973
253.190	14.466	1178.236	904.250
254.205	14.558	1177.969	904.469
255.220	14.533	1177.181	903.649
256.234	14.566	1176.832	903.479
257.249	14.506	1175.919	902.370
258.263	14.523	1174.801	901.526
259.278	14.512	1174.399	901.080
260.293	14.523	1174.150	900.867
261.307	14.528	1173.617	900.406
262.322	14.629	1172.813	900.252
263.336	14.635	1172.425	899.909
264.351	14.653	1171.549	899.255
265.366	14.728	1171.016	899.166
266.380	14.649	1170.202	898.036
267.395	14.681	1168.838	897.082
268.409	14.692	1168.018	896.436
269.424	14.571	1167.842	895.569
270.439	14.522	1167.258	894.780
271.453	14.660	1166.524	894.877
272.468	14.558	1165.526	893.490
273.482	14.525	1164.799	892.675
274.497	14.655	1164.031	892.700
275.512	14.698	1163.308	892.301
276.526	14.595	1162.885	891.348
277.541	14.624	1161.826	890.611
278.555	14.671	1161.358	890.421
279.570	14.686	1160.628	889.862
280.585	14.896	1159.431	889.984
281.599	14.827	1158.785	889.042
282.614	14.820	1157.448	887.904
283.628	14.809	1156.218	886.823
284.643	14.713	1155.636	885.789
285.657	14.716	1154.930	885.185
286.672	14.786	1153.844	884.643
287.687	14.795	1152.972	883.945
288.701	14.836	1152.035	883.363
289.716	14.815	1151.491	882.756
290.730	14.883	1150.307	882.134
291.745	14.840	1150.258	881.791
292.760	14.856	1149.849	881.479
293.774	14.924	1149.050	881.150
294.789	15.015	1148.154	880.865
295.803	14.936	1147.522	879.884
296.818	14.945	1146.670	879.204
297.833	14.983	1145.539	878.454
298.847	14.921	1145.001	877.640
299.862	14.898	1144.110	876.757
300.876	14.987	1143.557	876.726
301.891	14.959	1143.469	876.434
302.906	15.151	1142.145	876.344
303.920	15.194	1141.258	875.811
304.935	15.202	1140.838	875.452
305.949	15.220	1140.254	875.022
306.964	15.224	1139.736	874.569
307.979	15.132	1139.047	873.482
308.993	15.118	1138.103	872.607
310.008	15.185	1137.282	872.248
311.022	15.179	1136.448	871.503
312.037	15.279	1135.550	871.254
313.052	15.165	1134.528	869.802
314.066	15.166	1133.559	868.989
315.081	15.133	1132.792	868.153
316.095	15.056	1132.275	867.278
317.110	15.157	1131.160	866.870
318.125	15.159	1130.323	866.163
319.139	15.040	1129.798	865.072
320.154	15.124	1128.936	864.767
321.168	15.191	1128.344	864.583
322.183	15.161	1128.167	864.216
323.197	15.214	1127.483	863.889
324.212	15.265	1126.789	863.542
325.227	15.244	1126.453	863.100
326.241	15.233	1125.673	862.369
327.256	15.265	1124.448	861.521
328.270	15.206	1123.997	860.794
329.285	15.252	1122.546	859.843
330.300	15.239	1121.325	858.764
331.314	15.253	1120.990	858.506
332.329	15.179	1119.997	857.291
333.343	15.253	1119.144	856.942
334.358	15.326	1117.965	856.333
335.373	15.407	1117.738	856.496
336.387	15.288	1116.925	855.193
337.402	15.404	1116.190	855.144
338.416	15.497	1115.366	854.909
339.431	15.451	1115.001	854.321
340.446	15.543	1113.821	853.808
341.460	15.610	1113.725	854.000
342.475	15.668	1112.696	853.433
343.489	15.743	1111.426	852.762
344.504	15.688	1110.546	851.734
345.519	15.671	1109.728	850.945
346.533	15.765	1108.996	850.781
347.548	15.883	1108.366	850.820
348.562	15.696	1107.861	849.413
349.577	15.751	1106.701	848.728
350.592	15.648	1106.177	847.731
351.606	15.655	1105.266	846.993
352.621	15.668	1104.596	846.470
353.635	15.581	1104.066	845.550
354.650	15.523	1103.260	844.566
355.665	15.615	1102.604	844.452
356.679	15.696	1101.825	844.186
357.694	15.763	1101.365	844.094
358.708	15.784	1100.859	843.739
359.723	15.855	1099.955	843.327
360.738	15.852	1099.305	842.741
361.752	15.784	1098.589	841.776
362.767	15.843	1098.299	841.775
363.781	15.815	1097.725	841.119
364.796	15.950	1096.713	840.945
365.810	15.922	1096.513	840.575
366.825	16.014	1095.568	840.236
367.840	16.075	1095.277	840.243
368.854	16.136	1094.592	839.949
369.869	16.124	1094.013	839.366
370.883	16.119	1092.855	838.383
371.898	16.132	1091.868	837.612
372.913	15.999	1091.721	836.769
373.927	16.143	1090.445	836.430
374.942	16.109	1090.496	836.226
375.956	16.211	1089.960	836.247
376.971	16.029	1089.354	834.807
377.986	16.166	1088.809	834.993
379.000	16.135	1088.288	834.365
380.015	16.235	1087.961	834.533
381.029	16.363	1086.748	834.161
382.044	16.296	1086.148	833.296
383.059	16.399	1085.132	832.953
384.073	16.370	1084.572	832.308
385.088	16.327	1083.348	831.083
386.102	16.373	1082.397	830.506
387.117	16.315	1081.583	829.521
388.132	16.260	1080.984	828.718
389.146	16.151	1080.192	827.503
390.161	16.173	1079.722	827.178
391.175	16.166	1078.924	826.462
392.190	16.215	1078.484	826.291
393.205	16.416	1077.521	826.464
394.219	16.416	1076.724	825.778
395.234	16.217	1076.059	824.222
396.248	16.354	1074.620	823.718
397.263	16.431	1073.264	822.979
398.278	16.323	1073.068	822.231
399.292	16.296	1072.110	821.291
400.307	16.329	1071.724	821.082
401.321	16.262	1071.078	820.189
402.336	16.168	1070.480	819.204
403.350	16.271	1069.484	818.867
404.365	16.456	1068.708	819.100
405.380	16.396	1067.828	818.061
406.394	16.483	1067.285	817.992
407.409	16.512	1066.750	817.653
408.423	16.515	1066.036	817.045
409.438	16.627	1065.452	817.067
410.453	16.661	1064.733	816.609
411.467	16.669	1063.545	815.664
412.482	16.670	1063.269	815.381
413.496	16.739	1062.620	815.144
414.511	16.780	1061.934	814.745
415.526	16.708	1061.623	814.086
416.540	16.816	1061.275	814.269
417.555	16.881	1060.485	813.902
418.569	16.801	1059.767	812.894
419.584	16.869	1059.477	812.928
420.599	16.871	1058.967	812.475
421.613	70.348	1270.197	1271.868
422.628	64.793	1300.995	1272.022
