DTS Sentinel unit serial number:	SN413079Multiplexer serial number:	ORYXHardware model number:	OX4-SRSoftware version number:	ORYX F/W v4.00 Oryx Data Collector v3.7.2.0data status	okinstallation	princeton_trtdifferential loss correction	single-endedforward channel	channel 2reverse channel	N/Adate	2019/09/14time	10:35:35forward acquisition time	60.00reverse acquisition time	0.00gamma	496.2192k internal	0.2315k external	0.2315temperature offset calibration	1.0140default loss term (dB/km)	0.3790temperature slope calibration	1.0000multiplexer offset coefficient	1.0000multiplexer slope coefficient	1.0000fibre end	0.00T internal ref (°C)	35.00T ext. ref 1 (°C)	4.22T ext. ref 2 (°C)	32.94length (m)	temperature (°C)	Stokes	anti-Stokes-747.200	-40.092	0.365	-0.193
-746.185	116.960	0.215	0.267
-745.171	-115.807	-0.350	0.066
-744.156	-200.000	-0.020	0.100
-743.142	419.461	-0.068	0.148
-742.127	-200.000	-0.021	0.145
-741.112	131.339	0.151	-0.197
-740.098	-68.031	0.166	-0.066
-739.083	-197.884	0.470	0.003
-738.069	-8.321	0.375	0.256
-737.054	-74.827	-0.292	-0.106
-736.039	-200.000	-0.340	-0.000
-735.025	-163.690	0.282	-0.013
-734.010	-88.410	-0.158	-0.048
-732.996	35.579	-0.089	-0.079
-731.981	-200.000	0.067	-0.493
-730.966	-3.764	0.295	-0.208
-729.952	-128.887	0.193	0.028
-728.937	26.890	-0.347	-0.295
-727.923	176.644	0.047	0.069
-726.908	-57.278	-0.110	0.049
-725.894	-200.000	-0.013	-0.174
-724.879	-200.000	-0.018	0.374
-723.864	-137.582	-0.371	-0.042
-722.850	-149.158	0.333	0.027
-721.835	12.900	0.159	-0.124
-720.821	800.000	0.085	-0.256
-719.806	-76.028	-0.274	0.098
-718.791	100.479	-0.028	-0.033
-717.777	90.070	-0.188	0.213
-716.762	204.272	0.140	-0.220
-715.748	28.593	0.182	0.156
-714.733	-100.185	0.165	-0.042
-713.718	588.396	0.099	0.246
-712.704	-23.501	-0.267	0.162
-711.689	60.226	-0.090	0.090
-710.675	800.000	0.020	0.059
-709.660	198.389	-0.114	-0.177
-708.645	-71.892	0.212	-0.080
-707.631	-200.000	-0.061	-0.280
-706.616	800.000	-0.051	-0.212
-705.602	-64.441	-0.058	-0.024
-704.587	800.000	-0.037	-0.125
-703.572	-200.000	-0.077	-0.400
-702.558	-28.824	0.105	-0.061
-701.543	64.699	0.027	0.027
-700.529	165.577	0.244	-0.348
-699.514	37.285	0.132	-0.118
-698.499	144.213	0.137	-0.185
-697.485	-32.318	-0.081	-0.046
-696.470	42.052	-0.167	-0.153
-695.456	-68.487	0.370	-0.145
-694.441	-60.148	0.333	0.144
-693.426	-200.000	-0.024	-0.370
-692.412	19.257	-0.134	0.108
-691.397	67.223	-0.269	-0.277
-690.383	-84.668	0.170	-0.054
-689.368	-28.299	0.141	0.082
-688.354	-27.806	0.127	0.074
-687.339	644.831	0.030	0.078
-686.324	-200.000	0.020	-0.354
-685.310	-124.902	0.181	0.028
-684.295	68.378	-0.194	-0.201
-683.281	-64.522	-0.222	-0.091
-682.266	-200.000	0.008	-0.317
-681.251	-130.575	-0.190	0.026
-680.237	-21.960	-0.163	0.100
-679.222	-200.000	0.010	0.045
-678.208	18.184	0.383	-0.309
-677.193	-96.960	0.168	0.044
-676.178	-6.279	0.130	-0.090
-675.164	291.017	-0.110	-0.202
-674.149	800.000	0.037	-0.106
-673.135	-112.450	-0.127	-0.026
-672.120	-26.266	-0.328	0.195
-671.105	509.131	0.051	-0.120
-670.091	-48.847	0.109	-0.053
-669.076	-95.546	-0.189	0.051
-668.062	-19.628	0.357	-0.223
-667.047	-200.000	-0.055	0.279
-666.032	-200.000	0.050	-0.358
-665.018	-200.000	0.091	0.000
-664.003	-200.000	-0.007	-0.112
-662.989	800.000	-0.065	0.208
-661.974	-13.478	0.047	-0.031
-660.959	800.000	-0.060	0.172
-659.945	114.742	0.089	0.109
-658.930	27.563	0.331	-0.281
-657.916	15.128	-0.094	0.074
-656.901	189.225	-0.092	0.140
-655.886	-47.306	-0.101	-0.049
-654.872	41.173	-0.079	0.072
-653.857	800.000	0.035	-0.138
-652.843	23.530	-0.282	-0.234
-651.828	455.202	0.151	-0.338
-650.814	-84.029	0.277	0.089
-649.799	129.828	0.138	-0.178
-648.784	709.187	-0.047	0.125
-647.770	298.535	-0.120	-0.223
-646.755	-89.242	-0.302	0.090
-645.741	206.810	0.091	0.143
-644.726	78.165	-0.055	-0.059
-643.711	-200.000	-0.074	-0.349
-642.697	-176.871	-0.294	0.008
-641.682	-64.474	-0.076	0.031
-640.668	-200.000	0.013	-0.058
-639.653	141.937	-0.143	-0.191
-638.638	-52.888	-0.098	0.046
-637.624	-200.000	-0.003	-0.325
-636.609	-10.184	-0.101	0.068
-635.595	-170.948	-0.206	-0.007
-634.580	-48.144	0.109	0.053
-633.565	85.516	0.038	-0.042
-632.551	103.046	-0.184	-0.218
-631.536	-116.956	-0.177	0.033
-630.522	-158.559	-0.139	0.008
-629.507	66.738	-0.134	-0.137
-628.492	-111.858	-0.293	0.060
-627.478	26.115	-0.116	-0.098
-626.463	800.000	-0.054	0.229
-625.449	-113.426	-0.346	0.068
-624.434	562.902	-0.089	0.218
-623.419	34.308	-0.101	-0.089
-622.405	-146.378	0.317	-0.028
-621.390	163.618	-0.161	-0.229
-620.376	-200.000	0.032	0.264
-619.361	-200.000	-0.012	-0.209
-618.346	23.609	-0.192	0.160
-617.332	-200.000	-0.033	-0.184
-616.317	-200.000	0.009	-0.110
-615.303	-162.630	0.231	0.011
-614.288	91.333	-0.225	0.255
-613.273	16.088	-0.110	0.087
-612.259	-187.613	-0.316	-0.004
-611.244	38.875	0.202	0.182
-610.230	226.108	0.189	-0.309
-609.215	-98.875	0.330	-0.084
-608.201	-61.227	0.221	0.094
-607.186	198.216	-0.251	0.387
-606.171	-165.894	0.400	0.017
-605.157	15.760	0.190	-0.150
-604.142	168.739	0.164	0.236
-603.128	-37.548	0.364	0.196
-602.113	-200.000	-0.005	0.356
-601.098	332.710	0.127	0.248
-600.084	-200.000	-0.042	0.240
-599.069	-86.947	0.188	0.058
-598.055	-57.092	0.160	-0.071
-597.040	-200.000	0.010	0.170
-596.025	58.140	-0.097	0.096
-595.011	165.792	0.056	-0.079
-593.996	-200.000	-0.050	-0.352
-592.982	-147.866	0.072	-0.006
-591.967	-110.701	-0.133	-0.028
-590.952	490.722	-0.049	-0.113
-589.938	-5.445	0.184	0.127
-588.923	-165.422	0.102	0.004
-587.909	-200.000	0.030	0.215
-586.894	800.000	-0.044	0.183
-585.879	-64.031	0.301	-0.124
-584.865	-41.693	0.179	-0.092
-583.850	18.679	-0.097	0.078
-582.836	-200.000	-0.057	-0.374
-581.821	800.000	-0.026	0.079
-580.806	40.695	0.317	-0.288
-579.792	800.000	-0.057	-0.167
-578.777	-200.000	-0.056	-0.332
-577.763	-200.000	0.231	-0.000
-576.748	-34.908	-0.215	-0.118
-575.733	-15.070	-0.232	0.150
-574.719	83.945	0.212	-0.233
-573.704	-65.260	0.335	-0.136
-572.690	800.000	-0.040	0.118
-571.675	101.078	0.068	0.080
-570.661	24.911	-0.411	0.343
-569.646	-73.066	-0.234	-0.087
-568.631	161.157	0.163	0.229
-567.617	6.158	-0.099	-0.074
-566.602	174.521	0.094	0.138
-565.588	23.470	-0.254	-0.210
-564.573	-67.434	0.211	-0.083
-563.558	42.604	-0.128	-0.117
-562.544	1.679	-0.162	-0.117
-561.529	97.284	-0.162	0.186
-560.515	-49.198	0.481	-0.231
-559.500	-106.552	0.091	-0.020
-558.485	17.108	-0.245	-0.196
-557.471	30.083	0.210	0.180
-556.456	-132.285	-0.334	-0.043
-555.442	-121.351	0.284	-0.048
-554.427	26.174	0.191	0.161
-553.412	-90.308	0.247	-0.072
-552.398	-200.000	0.006	0.231
-551.383	-62.406	-0.324	0.135
-550.369	-8.897	0.248	-0.167
-549.354	-200.000	0.015	-0.192
-548.339	41.059	0.197	0.179
-547.325	-66.468	0.378	-0.151
-546.310	-116.240	-0.440	-0.082
-545.296	-91.127	0.071	-0.021
-544.281	-134.369	0.185	-0.023
-543.266	-0.160	0.289	-0.207
-542.252	-32.753	-0.180	-0.101
-541.237	-115.670	-0.114	0.022
-540.223	-200.000	-0.039	0.435
-539.208	-0.252	-0.201	0.144
-538.193	138.580	-0.051	-0.067
-537.179	-200.000	0.013	0.083
-536.164	296.799	-0.246	-0.453
-535.150	789.286	-0.022	-0.059
-534.135	-47.788	0.442	0.215
-533.121	-38.034	-0.086	-0.046
-532.106	-200.000	-0.215	0.001
-531.091	-200.000	-0.071	-0.423
-530.077	137.092	-0.112	0.148
-529.062	87.746	0.182	-0.202
-528.048	-197.908	-0.067	-0.000
-527.033	160.581	0.115	0.161
-526.018	52.307	0.124	0.119
-525.004	-150.793	-0.271	0.021
-523.989	-101.456	-0.032	0.008
-522.975	80.296	0.083	-0.090
-521.960	40.206	-0.138	-0.125
-520.945	632.081	0.046	-0.117
-519.931	-200.000	0.015	0.113
-518.916	-200.000	-0.014	-0.226
-517.902	-35.427	0.346	-0.189
-516.887	2.733	0.174	0.127
-515.872	37.354	-0.324	-0.288
-514.858	168.906	0.084	-0.120
-513.843	132.580	0.157	0.204
-512.829	230.046	-0.047	-0.076
-511.814	-54.883	-0.100	0.045
-510.799	-120.450	-0.084	-0.014
-509.785	800.000	0.072	0.269
-508.770	-200.000	0.024	-0.179
-507.756	92.014	-0.100	0.113
-506.741	-127.003	-0.137	0.020
-505.726	-200.000	0.002	-0.080
-504.712	293.876	0.193	0.354
-503.697	-72.184	0.186	-0.069
-502.683	73.085	-0.165	0.173
-501.668	-14.707	-0.301	-0.194
-500.653	444.818	0.092	-0.202
-499.639	-156.238	-0.249	-0.016
-498.624	-37.656	-0.161	0.086
-497.610	87.717	-0.201	0.224
-496.595	-200.000	0.005	0.131
-495.581	-200.000	0.016	-0.133
-494.566	-105.748	-0.189	0.043
-493.551	800.000	-0.085	-0.371
-492.537	-83.627	0.088	-0.028
-491.522	-89.640	-0.215	-0.063
-490.508	-200.000	-0.034	0.193
-489.493	587.153	-0.068	-0.169
-488.478	31.058	0.226	0.195
-487.464	-126.208	0.090	0.014
-486.449	-190.945	0.204	-0.002
-485.435	-200.000	-0.024	0.131
-484.420	-25.134	-0.126	-0.075
-483.405	637.992	0.126	0.321
-482.391	-116.237	0.209	-0.039
-481.376	27.168	0.044	-0.037
-480.362	257.149	-0.056	-0.097
-479.347	-55.908	-0.077	0.034
-478.332	0.024	0.057	-0.041
-477.318	-156.311	0.367	-0.023
-476.303	-200.000	0.010	-0.395
-475.289	-128.153	0.114	0.016
-474.274	-4.132	0.166	-0.115
-473.259	60.905	-0.030	-0.029
-472.245	-105.197	0.339	-0.078
-471.230	42.042	0.132	-0.121
-470.216	-10.613	-0.200	-0.133
-469.201	-18.645	0.251	-0.157
-468.186	-64.952	-0.471	-0.191
-467.172	133.926	-0.109	0.142
-466.157	-137.472	0.189	0.021
-465.143	-29.685	0.407	0.233
-464.128	83.155	0.141	0.154
-463.113	244.731	-0.089	0.150
-462.099	129.985	-0.225	0.289
-461.084	600.758	0.022	0.055
-460.070	628.519	-0.077	-0.195
-459.055	-78.267	0.081	0.028
-458.040	107.604	-0.082	0.098
-457.026	-78.882	0.302	0.103
-456.011	800.000	-0.028	0.107
-454.997	-32.727	0.263	0.147
-453.982	-200.000	0.025	-0.210
-452.968	-200.000	0.017	0.151
-451.953	-200.000	-0.089	0.499
-450.938	-200.000	0.018	0.120
-449.924	-200.000	-0.069	-0.605
-448.909	-97.402	-0.071	0.018
-447.895	-200.000	0.008	0.160
-446.880	-200.000	-0.000	-0.259
-445.865	-200.000	-0.004	0.189
-444.851	394.772	-0.117	0.243
-443.836	-67.567	-0.218	0.086
-442.822	751.673	-0.105	-0.285
-441.807	39.576	-0.130	0.116
-440.792	-194.296	0.316	0.003
-439.778	800.000	-0.107	-0.416
-438.763	-200.000	0.033	0.151
-437.749	213.909	0.101	0.160
-436.734	-65.982	0.157	-0.063
-435.719	-200.000	-0.003	-0.088
-434.705	-19.180	-0.134	-0.084
-433.690	-8.555	0.256	-0.172
-432.676	746.132	0.092	-0.248
-431.661	-70.743	-0.125	-0.047
-430.646	800.000	0.021	-0.083
-429.632	-81.005	0.491	-0.163
-428.617	78.414	0.143	-0.153
-427.603	-5.485	-0.316	0.217
-426.588	0.781	-0.199	0.142
-425.573	-200.000	0.019	-0.127
-424.559	-184.040	0.171	0.003
-423.544	-1.914	0.233	-0.164
-422.530	-122.340	-0.204	0.033
-421.515	-74.048	0.259	-0.094
-420.500	-200.000	-0.051	-0.273
-419.486	164.984	-0.090	-0.127
-418.471	-200.000	0.024	0.146
-417.457	561.448	0.073	-0.176
-416.442	-200.000	-0.045	0.237
-415.428	79.677	-0.107	0.115
-414.413	-99.360	-0.108	0.027
-413.398	-37.121	-0.157	-0.084
-412.384	209.274	0.087	0.136
-411.369	-29.307	0.106	-0.061
-410.355	56.203	0.034	-0.033
-409.340	-12.665	0.186	-0.121
-408.325	-200.000	-0.042	0.205
-407.311	-50.698	0.143	-0.067
-406.296	136.531	0.031	0.041
-405.282	182.048	-0.148	0.217
-404.267	-130.300	-0.159	-0.022
-403.252	14.576	-0.203	0.159
-402.238	-84.187	0.271	0.086
-401.223	800.000	-0.030	0.108
-400.209	-67.720	-0.299	0.117
-399.194	-79.887	0.124	0.042
-398.179	295.643	-0.090	0.164
-397.165	225.141	-0.211	0.341
-396.150	81.520	-0.093	-0.101
-395.136	89.414	0.167	0.186
-394.121	-162.127	0.141	-0.007
-393.106	-200.000	0.002	-0.110
-392.092	0.899	0.046	0.033
-391.077	-59.402	0.121	0.052
-390.063	-200.000	0.358	-0.000
-389.048	29.655	0.049	-0.042
-388.033	-69.001	-0.417	0.160
-387.019	521.988	0.069	0.163
-386.004	56.527	-0.043	-0.041
-384.990	-22.887	0.023	0.014
-383.975	-97.865	-0.125	0.032
-382.960	-133.979	-0.350	-0.043
-381.946	-61.936	0.231	0.097
-380.931	-113.433	0.164	0.032
-379.917	-105.647	-0.135	0.031
-378.902	86.525	0.100	-0.110
-377.888	105.632	-0.195	-0.230
-376.873	241.655	0.092	-0.154
-375.858	281.123	0.109	-0.194
-374.844	-125.121	-0.256	-0.039
-373.829	241.730	0.220	-0.366
-372.815	-22.578	0.282	-0.170
-371.800	116.404	-0.070	0.085
-370.785	800.000	0.106	-0.325
-369.771	155.614	-0.054	0.074
-368.756	71.240	-0.268	0.278
-367.742	530.256	0.074	0.175
-366.727	-200.000	0.047	0.262
-365.712	-54.093	-0.109	0.049
-364.698	-57.178	0.235	-0.103
-363.683	267.822	-0.101	-0.177
-362.669	273.826	0.117	0.206
-361.654	-91.008	-0.209	-0.060
-360.639	-0.471	0.114	0.081
-359.625	800.000	-0.125	0.385
-358.610	22.545	-0.127	0.103
-357.596	450.198	0.017	0.037
-356.581	103.247	0.007	0.008
-355.566	208.674	0.103	-0.160
-354.552	239.500	0.017	0.028
-353.537	153.066	0.175	-0.238
-352.523	-33.456	-0.046	0.025
-351.508	-46.919	-0.217	0.106
-350.493	-200.000	0.099	0.000
-349.479	-200.000	0.002	0.188
-348.464	731.206	-0.020	0.054
-347.450	-91.561	-0.116	0.033
-346.435	-53.332	-0.250	-0.115
-345.420	-47.207	0.336	-0.163
-344.406	-200.000	0.011	-0.141
-343.391	-16.297	-0.414	0.262
-342.377	-76.098	-0.418	-0.147
-341.362	234.933	-0.066	-0.108
-340.348	-200.000	0.005	0.224
-339.333	-156.310	0.214	0.013
-338.318	97.092	-0.070	-0.081
-337.304	-38.607	-0.191	0.100
-336.289	-152.439	0.421	0.030
-335.275	-162.097	-0.152	0.008
-334.260	-200.000	0.021	0.146
-333.245	2.929	-0.199	-0.144
-332.231	7.031	0.347	0.258
-331.216	108.230	0.112	0.133
-330.202	-200.000	0.002	0.037
-329.187	355.472	-0.081	-0.160
-328.172	143.627	-0.033	0.044
-327.158	-200.000	-0.010	0.127
-326.143	178.078	-0.084	0.123
-325.129	-89.298	0.057	0.017
-324.114	627.446	-0.116	0.291
-323.099	-35.307	-0.191	-0.104
-322.085	-26.203	-0.184	-0.108
-321.070	-120.032	-0.149	-0.025
-320.056	-94.676	-0.013	0.003
-319.041	-146.714	-0.438	-0.038
-318.026	744.062	-0.061	0.163
-317.012	-5.429	0.093	-0.063
-315.997	-200.000	0.029	0.353
-314.983	-114.528	-0.408	-0.078
-313.968	-51.381	-0.179	-0.083
-312.953	-111.718	0.195	0.039
-311.939	800.000	0.065	0.241
-310.924	111.368	-0.237	0.285
-309.910	0.779	0.118	-0.084
-308.895	800.000	0.089	0.258
-307.880	118.544	0.107	-0.131
-306.866	31.087	0.103	0.088
-305.851	14.418	-0.209	0.163
-304.837	-77.955	0.464	0.159
-303.822	-5.908	-0.212	0.145
-302.807	-60.641	-0.405	-0.171
-301.793	-200.000	-0.022	0.170
-300.778	-146.705	0.191	0.017
-299.764	274.416	0.038	-0.067
-298.749	-126.711	-0.179	0.026
-297.735	-200.000	-0.009	0.107
-296.720	-200.000	0.038	-0.191
-295.705	316.302	-0.059	-0.111
-294.691	-200.000	0.024	0.143
-293.676	467.371	-0.047	-0.105
-292.662	50.245	-0.261	-0.246
-291.647	-200.000	0.000	0.040
-290.632	-200.000	0.026	0.144
-289.618	721.578	-0.080	0.213
-288.603	800.000	-0.076	-0.216
-287.589	117.112	0.200	0.245
-286.574	-80.901	-0.090	0.030
-285.559	64.096	0.196	0.197
-284.545	128.716	-0.124	-0.158
-283.530	-114.689	-0.175	-0.033
-282.516	-138.958	0.299	-0.032
-281.501	-42.485	0.259	0.131
-280.486	585.575	-0.106	-0.259
-279.472	-200.000	-0.024	0.115
-278.457	231.302	0.042	0.069
-277.443	-200.000	-0.023	0.213
-276.428	-200.000	-0.006	0.045
-275.413	72.479	-0.122	0.126
-274.399	-116.132	-0.267	0.049
-273.384	-136.344	-0.285	-0.033
-272.370	-200.000	0.016	-0.154
-271.355	-200.000	0.026	-0.302
-270.340	-164.265	0.108	0.005
-269.326	-173.499	0.121	-0.004
-268.311	456.519	0.103	0.227
-267.297	30.176	-0.278	-0.236
-266.282	800.000	-0.097	-0.353
-265.267	-200.000	0.012	-0.222
-264.253	-104.076	0.219	0.051
-263.238	158.419	0.124	0.172
-262.224	-32.686	0.259	-0.143
-261.209	-89.495	-0.130	-0.038
-260.195	800.000	-0.026	0.086
-259.180	252.619	0.193	-0.328
-258.165	-32.867	-0.198	-0.109
-257.151	-200.000	0.040	-0.216
-256.136	523.177	-0.113	-0.263
-255.122	-57.561	0.323	0.141
-254.107	-54.711	-0.313	0.140
-253.092	-80.769	-0.124	-0.041
-252.078	193.102	0.244	-0.367
-251.063	-200.000	-0.000	-0.295
-250.049	564.845	0.038	-0.091
-249.034	-9.640	-0.148	-0.098
-248.019	273.467	-0.060	0.105
-247.005	9.215	0.224	0.168
-245.990	43.673	-0.173	-0.158
-244.976	380.987	-0.028	-0.057
-243.961	-77.416	-0.233	0.080
-242.946	-200.000	-0.005	-0.243
-241.932	-33.813	-0.214	0.117
-240.917	634.197	0.144	0.362
-239.903	-79.006	-0.025	-0.009
-238.888	39.153	-0.077	0.068
-237.873	800.000	0.069	0.249
-236.859	-200.000	-0.023	-0.171
-235.844	235.813	0.113	0.186
-234.830	164.969	0.062	-0.087
-233.815	394.237	-0.154	0.319
-232.800	-54.354	0.208	0.094
-231.786	2.794	-0.119	0.085
-230.771	84.534	0.269	-0.293
-229.757	-75.044	0.093	0.033
-228.742	-33.199	0.238	0.131
-227.727	51.795	0.066	-0.062
-226.713	-200.000	0.013	-0.102
-225.698	800.000	-0.046	0.150
-224.684	696.448	-0.117	-0.304
-223.669	-60.262	0.107	-0.045
-222.655	-56.059	-0.234	-0.104
-221.640	154.331	0.070	0.095
-220.625	-63.928	-0.201	-0.082
-219.611	200.322	0.092	0.140
-218.596	189.653	-0.071	0.106
-217.582	701.529	-0.026	0.067
-216.567	-90.402	0.171	-0.049
-215.552	-200.000	0.010	-0.504
-214.538	-200.000	-0.010	0.080
-213.523	-62.304	-0.205	0.085
-212.509	-200.000	-0.027	-0.141
-211.494	110.472	-0.087	0.103
-210.479	241.783	0.117	0.195
-209.465	-143.386	0.189	-0.018
-208.450	43.562	-0.112	-0.101
-207.436	-177.601	0.149	0.004
-206.421	-41.118	-0.102	-0.052
-205.406	-200.000	-0.006	0.085
-204.392	636.791	-0.162	0.407
-203.377	-77.984	0.171	0.058
-202.363	208.761	0.065	-0.101
-201.348	-86.686	-0.193	0.059
-200.333	249.678	0.196	0.329
-199.319	-200.000	0.065	-0.361
-198.304	127.094	-0.327	-0.411
-197.290	-32.687	0.075	-0.041
-196.275	295.329	-0.096	-0.174
-195.260	54.067	-0.164	-0.156
-194.246	41.808	-0.201	-0.180
-193.231	401.656	0.030	0.063
-192.217	800.000	-0.097	-0.327
-191.202	189.803	0.102	-0.151
-190.187	-35.856	0.145	-0.078
-189.173	-56.496	0.148	0.065
-188.158	-10.867	-0.152	-0.100
-187.144	800.000	0.055	0.211
-186.129	64.621	0.145	0.145
-185.114	-110.175	0.311	0.064
-184.100	-200.000	0.045	-0.285
-183.085	-79.619	-0.246	-0.082
-182.071	75.158	0.240	0.251
-181.056	351.976	-0.134	-0.263
-180.042	800.000	0.111	-0.347
-179.027	-63.671	0.162	-0.066
-178.012	615.565	0.033	-0.081
-176.998	2.704	0.094	0.067
-175.983	-38.882	0.238	-0.124
-174.969	104.627	0.147	0.172
-173.954	535.990	0.042	0.098
-172.939	-94.366	0.191	-0.052
-171.925	-89.123	-0.239	-0.070
-170.910	-97.829	0.590	0.151
-169.896	-200.000	-0.013	0.394
-168.881	207.290	0.105	0.162
-167.866	316.763	0.189	-0.354
-166.852	-85.937	0.161	0.049
-165.837	494.139	-0.050	-0.113
-164.823	-132.370	-0.146	0.019
-163.808	-81.448	-0.091	0.030
-162.793	337.869	0.099	0.191
-161.779	196.473	0.029	0.044
-160.764	30.647	-0.259	0.219
-159.750	208.062	-0.084	-0.130
-158.735	800.000	-0.042	0.174
-157.720	291.732	-0.134	0.242
-156.706	-200.000	0.005	0.272
-155.691	800.000	-0.030	-0.114
-154.677	101.224	0.213	-0.246
-153.662	-101.994	0.091	-0.022
-152.647	800.000	0.103	0.289
-151.633	103.021	-0.198	0.230
-150.618	-90.442	-0.323	-0.093
-149.604	-99.231	-0.083	0.021
-148.589	-200.000	-0.044	-0.219
-147.574	-49.399	-0.219	-0.103
-146.560	8.183	-0.220	-0.163
-145.545	20.244	-0.151	-0.121
-144.531	159.619	-0.178	-0.245
-143.516	458.822	0.095	-0.208
-142.502	164.864	0.127	0.178
-141.487	-200.000	-0.001	0.217
-140.472	-200.000	-0.048	0.364
-139.458	-115.485	0.132	-0.025
-138.443	-4.955	-0.014	0.010
-137.429	-200.000	0.019	-0.371
-136.414	-61.277	-0.081	0.034
-135.399	-132.239	0.009	-0.001
-134.385	-138.004	0.374	0.041
-133.370	792.946	-0.124	-0.337
-132.356	335.387	-0.181	0.347
-131.341	-132.061	-0.472	0.061
-130.326	343.335	0.183	-0.355
-129.312	43.319	0.256	0.231
-128.297	307.368	0.029	-0.054
-127.283	258.758	0.132	0.225
-126.268	-200.000	0.012	-0.134
-125.253	97.479	0.263	-0.299
-124.239	-31.629	0.302	-0.168
-123.224	130.342	0.062	-0.079
-122.210	27.181	0.200	-0.166
-121.195	-95.067	0.196	0.052
-120.180	-105.479	-0.281	0.063
-119.166	101.431	0.326	-0.375
-118.151	800.000	0.019	-0.069
-117.137	-138.255	0.212	0.023
-116.122	547.356	0.005	0.012
-115.107	183.469	0.219	0.320
-114.093	156.082	0.093	0.126
-113.078	36.006	-0.296	-0.258
-112.064	-24.635	0.164	-0.097
-111.049	38.907	-0.072	0.063
-110.034	160.689	-0.083	0.114
-109.020	136.953	0.263	0.340
-108.005	-108.921	-0.180	-0.038
-106.991	-130.660	0.238	0.032
-105.976	151.465	-0.122	0.164
-104.962	501.914	-0.117	0.266
-103.947	-42.413	-0.234	0.118
-102.932	-130.265	0.234	0.031
-101.918	12.954	-0.103	-0.079
-100.903	7.032	-0.036	0.026
-99.889	20.098	0.064	-0.051
-98.874	-200.000	-0.051	-0.260
-97.859	-0.531	0.260	-0.182
-96.845	-200.000	-0.006	0.221
-95.830	393.924	-0.099	-0.203
-94.816	265.706	0.067	0.116
-93.801	-50.687	-0.239	0.111
-92.786	260.350	0.068	0.116
-91.772	-124.658	-0.241	0.037
-90.757	-126.979	-0.081	-0.012
-89.743	-200.000	0.051	0.220
-88.728	543.874	-0.065	-0.154
-87.713	-75.833	0.249	0.087
-86.699	150.384	0.180	0.241
-85.684	42.230	0.238	-0.214
-84.670	800.000	-0.070	0.192
-83.655	243.586	-0.084	0.139
-82.640	-86.196	0.121	-0.037
-81.626	-64.731	0.167	-0.067
-80.611	-200.000	0.023	-0.383
-79.597	-94.614	0.168	0.045
-78.582	50.513	0.209	0.195
-77.567	259.375	0.118	-0.202
-76.553	-149.756	-0.156	0.012
-75.538	110.541	0.164	0.194
-74.524	-64.814	-0.191	-0.076
-73.509	800.000	0.076	0.289
-72.494	-200.000	-0.038	-0.261
-71.480	167.085	-0.101	0.141
-70.465	25.604	0.240	-0.197
-69.451	-166.901	0.418	0.017
-68.436	226.590	0.181	0.290
-67.422	471.578	-0.095	0.210
-66.407	-80.107	0.221	-0.073
-65.392	-200.000	0.023	-0.108
-64.378	-81.230	-0.306	-0.100
-63.363	-200.000	-0.009	-0.038
-62.349	-90.984	-0.244	0.069
-61.334	85.170	-0.862	-0.933
-60.319	198.186	0.225	0.340
-59.305	800.000	-0.241	-0.740
-58.290	702.111	0.335	0.872
-57.276	800.000	0.468	1.352
-56.261	-200.000	91.502	528.263
-55.246	588.568	1384.585	3364.108
-54.232	183.666	2629.463	3834.717
-53.217	113.140	2350.765	2811.438
-52.203	44.528	1956.611	1773.027
-51.188	38.337	1738.196	1526.893
-50.173	35.504	1691.929	1464.620
-49.159	51.309	1738.819	1627.760
-48.144	54.429	1756.430	1668.305
-47.130	37.992	1714.149	1502.874
-46.115	35.038	1699.147	1467.066
-45.100	34.828	1694.197	1461.127
-44.086	34.828	1691.430	1458.680
-43.071	34.878	1688.800	1456.737
-42.057	34.792	1686.554	1454.089
-41.042	34.776	1684.800	1452.391
-40.027	34.892	1682.721	1451.427
-39.013	34.796	1680.935	1449.102
-37.998	34.868	1678.931	1447.861
-36.984	34.793	1678.017	1446.444
-35.969	34.985	1676.574	1446.599
-34.954	35.105	1674.313	1445.495
-33.940	35.106	1672.434	1443.826
-32.925	35.039	1670.989	1442.012
-31.911	35.063	1669.159	1440.558
-30.896	34.989	1667.376	1438.406
-29.881	34.910	1665.702	1436.308
-28.867	34.929	1664.044	1434.963
-27.852	35.016	1662.261	1434.023
-26.838	34.930	1661.055	1432.284
-25.823	35.048	1659.040	1431.373
-24.809	35.038	1658.083	1430.416
-23.794	35.035	1656.475	1428.950
-22.779	35.053	1655.154	1427.888
-21.765	35.050	1653.438	1426.325
-20.750	34.991	1651.857	1424.468
-19.736	35.109	1650.265	1423.916
-18.721	35.132	1648.709	1422.689
-17.706	35.049	1647.064	1420.593
-16.692	34.937	1645.988	1418.776
-15.677	35.061	1643.893	1417.838
-14.663	35.020	1642.779	1416.512
-13.648	35.020	1641.474	1415.336
-12.633	34.987	1640.136	1413.879
-11.619	35.019	1638.026	1412.242
-10.604	35.057	1636.414	1411.075
-9.590	35.071	1635.327	1410.183
-8.575	35.049	1634.038	1408.853
-7.560	35.030	1632.830	1407.617
-6.546	35.012	1632.047	1406.753
-5.531	34.960	1630.697	1405.150
-4.517	35.060	1629.361	1404.682
-3.502	35.068	1627.881	1403.406
-2.487	35.176	1626.769	1403.184
-1.473	35.129	1616.090	1393.579
-0.458	33.019	1597.145	1361.995
0.556	30.975	1597.971	1331.327
1.571	28.456	1623.311	1334.011
2.586	27.545	1635.524	1337.248
3.600	23.610	1579.360	1263.263
4.615	13.740	1462.789	1104.521
5.629	5.630	1395.737	1002.086
6.644	4.347	1386.732	987.372
7.659	4.217	1385.422	985.527
8.673	4.093	1384.589	984.057
9.688	4.203	1382.828	983.416
10.702	4.085	1380.403	980.859
11.717	7.668	1387.334	1008.467
12.731	16.561	1404.073	1077.430
13.746	21.634	1411.183	1115.179
14.761	20.901	1408.196	1108.059
15.775	19.992	1405.661	1100.195
16.790	18.806	1403.765	1091.084
17.804	18.051	1401.485	1084.427
18.819	17.672	1399.924	1080.724
19.834	17.581	1397.935	1078.514
20.848	17.315	1397.243	1076.199
21.863	17.104	1395.510	1073.439
22.877	16.966	1394.557	1071.735
23.892	16.844	1393.981	1070.427
24.907	16.913	1392.963	1069.989
25.921	16.910	1392.162	1069.263
26.936	16.817	1391.359	1067.965
27.950	16.944	1390.356	1067.900
28.965	17.060	1389.272	1067.699
29.980	17.191	1388.267	1067.660
30.994	17.281	1387.138	1067.257
32.009	17.221	1385.791	1065.753
33.023	17.225	1384.500	1064.689
34.038	17.129	1383.120	1062.936
35.053	17.076	1382.107	1061.730
36.067	17.032	1380.950	1060.474
37.082	17.095	1379.818	1059.901
38.096	17.147	1378.925	1059.445
39.111	17.076	1378.039	1058.231
40.126	17.036	1377.296	1057.314
41.140	16.895	1376.079	1055.410
42.155	16.685	1376.006	1053.953
43.169	16.598	1376.141	1053.421
44.184	16.731	1375.160	1053.405
45.199	16.796	1374.311	1053.069
46.213	16.820	1374.294	1053.107
47.228	16.895	1373.799	1053.104
48.242	17.039	1372.210	1052.685
49.257	16.984	1370.532	1050.966
50.271	16.961	1368.852	1049.441
51.286	17.116	1367.364	1049.165
52.301	17.070	1366.097	1047.814
53.315	16.897	1365.617	1046.290
54.330	16.771	1364.859	1044.838
55.344	16.827	1363.038	1043.694
56.359	16.898	1361.819	1043.104
57.374	16.776	1361.354	1041.910
58.388	16.701	1360.552	1040.744
59.403	16.701	1359.872	1040.127
60.417	16.706	1359.043	1039.434
61.432	16.677	1358.168	1038.494
62.447	16.661	1356.964	1037.381
63.461	16.540	1356.016	1035.823
64.476	16.578	1355.119	1035.280
65.490	16.530	1353.950	1034.006
66.505	16.532	1352.605	1032.898
67.520	16.578	1350.942	1031.817
68.534	16.545	1350.463	1031.158
69.549	16.603	1349.014	1030.316
70.563	16.590	1348.473	1029.728
71.578	16.653	1346.492	1028.511
72.593	16.437	1345.942	1026.685
73.607	16.471	1345.312	1026.323
74.622	16.517	1344.168	1025.634
75.636	16.523	1343.581	1025.133
76.651	16.582	1342.877	1024.865
77.666	16.548	1342.198	1024.046
78.680	16.589	1341.604	1023.751
79.695	16.523	1341.342	1023.063
80.709	16.708	1340.236	1023.250
81.724	16.704	1339.656	1022.691
82.739	16.867	1338.198	1022.471
83.753	16.865	1338.081	1022.276
84.768	16.974	1336.854	1021.907
85.782	17.079	1335.873	1021.701
86.797	17.073	1334.444	1020.480
87.812	16.958	1333.702	1019.132
88.826	16.942	1332.422	1017.965
89.841	16.981	1331.290	1017.246
90.855	17.083	1330.250	1016.970
91.870	17.069	1329.451	1016.188
92.884	17.061	1329.235	1015.886
93.899	17.088	1327.680	1014.768
94.914	17.158	1327.607	1015.039
95.928	17.183	1326.235	1014.047
96.943	17.181	1325.102	1013.084
97.957	17.083	1324.125	1011.663
98.972	17.137	1323.147	1011.149
99.987	17.135	1321.964	1010.142
101.001	17.093	1321.519	1009.464
102.016	17.030	1320.502	1008.219
103.030	17.078	1319.622	1007.745
104.045	17.113	1318.332	1006.878
105.060	16.985	1317.338	1005.273
106.074	16.814	1315.652	1002.885
107.089	16.667	1314.528	1001.072
108.103	16.723	1312.977	1000.131
109.118	16.672	1311.616	998.707
110.133	16.636	1310.333	997.425
111.147	16.690	1309.247	996.832
112.162	16.673	1307.996	995.690
113.176	16.723	1307.121	995.232
114.191	16.766	1305.916	994.479
115.206	16.814	1304.879	993.881
116.220	16.710	1303.321	991.998
117.235	16.773	1302.591	991.721
118.249	16.728	1301.195	990.307
119.264	16.639	1300.310	989.029
120.279	16.631	1299.219	988.063
121.293	16.562	1298.389	986.942
122.308	16.612	1296.811	985.944
123.322	16.535	1296.180	984.930
124.337	16.607	1294.707	984.141
125.352	16.599	1293.562	983.140
126.366	16.538	1292.735	982.072
127.381	16.587	1291.613	981.413
128.395	16.613	1290.610	980.717
129.410	16.676	1289.628	980.249
130.424	16.702	1289.198	979.987
131.439	16.715	1288.052	979.104
132.454	16.736	1287.051	978.376
133.468	16.863	1285.853	978.110
134.483	16.820	1285.217	977.292
135.497	16.887	1284.384	976.962
136.512	16.837	1283.074	975.587
137.527	16.849	1281.669	974.505
138.541	16.815	1280.034	972.981
139.556	16.964	1279.018	972.977
140.570	17.063	1278.258	972.877
141.585	17.099	1276.619	971.752
142.600	17.086	1276.173	971.249
143.614	17.156	1275.084	970.734
144.629	17.171	1273.853	969.798
145.643	17.054	1272.500	968.015
146.658	17.046	1271.272	966.952
147.673	16.994	1269.923	965.542
148.687	16.881	1268.958	964.082
149.702	16.771	1267.552	962.300
150.716	16.663	1266.462	960.776
151.731	16.804	1265.084	960.447
152.746	16.790	1264.060	959.504
153.760	17.025	1261.979	959.171
154.775	16.926	1261.153	957.895
155.789	17.015	1260.381	957.729
156.804	17.078	1259.203	957.102
157.819	17.151	1258.147	956.625
158.833	17.165	1257.604	956.206
159.848	17.271	1256.703	956.033
160.862	17.251	1255.756	955.115
161.877	17.195	1253.977	953.364
162.892	16.837	1253.488	950.902
163.906	16.896	1252.462	950.371
164.921	16.865	1251.707	949.539
165.935	17.015	1250.241	949.184
166.950	17.006	1249.510	948.490
167.964	16.978	1249.105	947.943
168.979	16.906	1248.379	946.906
169.994	16.953	1248.141	946.908
171.008	17.145	1246.871	946.928
172.023	17.021	1246.218	945.658
173.037	17.264	1245.209	946.165
174.052	17.163	1244.573	945.036
175.067	17.034	1243.232	943.215
176.081	16.999	1242.469	942.359
177.096	17.002	1241.010	941.185
178.110	16.977	1239.847	940.079
179.125	16.997	1239.155	939.583
180.140	17.044	1237.673	938.638
181.154	17.120	1236.673	938.215
182.169	17.237	1235.383	937.800
183.183	17.328	1234.495	937.546
184.198	17.474	1232.808	936.986
185.213	17.367	1231.819	935.561
186.227	17.344	1231.146	934.840
187.242	17.380	1230.277	934.294
188.256	17.471	1228.974	933.723
189.271	17.382	1228.394	932.710
190.286	17.228	1227.295	930.951
191.300	17.018	1225.629	928.455
192.315	16.986	1224.681	927.482
193.329	16.918	1224.488	926.879
194.344	17.088	1223.897	927.278
195.359	17.111	1223.634	927.126
196.373	17.225	1222.984	927.170
197.388	17.361	1222.377	927.371
198.402	17.572	1222.069	928.206
199.417	17.525	1221.769	927.637
200.432	17.619	1220.817	927.348
201.446	17.662	1220.242	927.062
202.461	17.630	1219.361	926.137
203.475	17.680	1218.149	925.403
204.490	17.581	1216.360	923.426
205.504	17.489	1215.131	921.915
206.519	17.460	1213.762	920.638
207.534	17.586	1212.569	920.333
208.548	17.533	1211.521	919.167
209.563	17.461	1211.254	918.497
210.577	17.424	1210.728	917.814
211.592	17.651	1209.166	917.771
212.607	17.763	1208.303	917.638
213.621	17.671	1207.847	916.720
214.636	17.534	1206.768	915.082
215.650	17.715	1205.849	915.279
216.665	17.779	1204.927	914.841
217.680	17.908	1203.691	914.508
218.694	17.876	1203.591	914.182
219.709	17.847	1202.430	913.066
220.723	17.816	1201.704	912.267
221.738	17.760	1200.947	911.313
222.753	17.764	1200.264	910.734
223.767	17.804	1199.755	910.478
224.782	17.839	1198.897	909.937
225.796	17.954	1198.307	910.023
226.811	18.081	1197.233	909.801
227.826	17.827	1196.402	907.736
228.840	17.836	1195.850	907.284
229.855	17.904	1194.679	906.679
230.869	17.899	1194.109	906.137
231.884	17.833	1193.153	904.985
232.899	17.829	1192.140	904.116
233.913	17.767	1191.728	903.390
234.928	17.663	1191.267	902.415
235.942	17.697	1190.287	901.770
236.957	17.654	1188.935	900.438
237.972	17.667	1188.707	900.256
238.986	17.868	1187.769	900.528
240.001	17.762	1187.071	899.358
241.015	17.815	1186.235	898.926
242.030	17.823	1185.596	898.405
243.045	17.794	1184.836	897.595
244.059	17.892	1184.088	897.464
245.074	17.974	1183.135	897.094
246.088	18.042	1182.257	896.703
247.103	18.108	1181.679	896.533
248.117	18.152	1180.617	895.880
249.132	18.321	1180.595	896.665
250.147	18.395	1179.631	896.246
251.161	18.492	1179.131	896.290
252.176	18.540	1178.538	896.011
253.190	18.473	1177.530	894.819
254.205	18.587	1177.016	894.940
255.220	18.529	1176.289	894.010
256.234	18.499	1175.699	893.323
257.249	18.672	1174.989	893.608
258.263	18.578	1174.294	892.511
259.278	18.521	1173.650	891.647
260.293	18.569	1173.398	891.625
261.307	18.613	1172.564	891.138
262.322	18.590	1172.347	890.777
263.336	18.606	1171.266	889.960
264.351	18.592	1170.453	889.190
265.366	18.704	1169.665	889.093
266.380	18.730	1169.067	888.695
267.395	18.698	1168.093	887.709
268.409	18.575	1167.280	886.380
269.424	18.557	1166.949	885.954
270.439	18.581	1166.031	885.301
271.453	18.632	1165.565	885.132
272.468	18.653	1164.069	884.030
273.482	18.490	1163.729	882.850
274.497	18.548	1163.081	882.584
275.512	18.542	1162.204	881.805
276.526	18.592	1161.797	881.679
277.541	18.572	1160.954	880.857
278.555	18.667	1160.420	880.858
279.570	18.589	1160.154	880.181
280.585	18.812	1158.832	880.243
281.599	18.795	1157.977	879.428
282.614	18.775	1156.572	878.180
283.628	18.635	1155.763	876.775
284.643	18.632	1154.857	875.993
285.657	18.779	1153.645	875.747
286.672	18.773	1152.895	875.068
287.687	18.848	1151.915	874.628
288.701	18.824	1151.199	873.888
289.716	18.874	1150.241	873.335
290.730	18.867	1149.592	872.728
291.745	18.856	1149.301	872.379
292.760	18.844	1148.976	871.994
293.774	18.789	1148.283	871.110
294.789	19.004	1147.672	871.658
295.803	19.128	1146.520	871.332
296.818	18.922	1145.968	869.798
297.833	18.921	1145.162	869.103
298.847	18.850	1144.710	868.323
299.862	18.852	1143.848	867.605
300.876	18.837	1143.370	867.087
301.891	18.830	1142.705	866.470
302.906	18.991	1141.861	866.564
303.920	19.217	1141.169	867.102
304.935	19.160	1140.557	866.270
305.949	19.336	1139.783	866.491
306.964	19.294	1138.913	865.542
307.979	19.139	1138.537	864.404
308.993	19.051	1138.366	863.754
310.008	19.198	1137.096	863.450
311.022	19.299	1136.180	863.187
312.037	19.259	1135.300	862.239
313.052	19.233	1134.491	861.419
314.066	19.171	1132.962	859.872
315.081	18.987	1132.590	858.598
316.095	18.990	1131.664	857.833
317.110	18.913	1131.018	856.883
318.125	19.077	1130.402	857.160
319.139	18.963	1129.609	855.913
320.154	19.054	1128.663	855.573
321.168	19.025	1128.188	854.995
322.183	19.083	1127.293	854.530
323.197	19.083	1127.100	854.307
324.212	19.131	1126.493	854.010
325.227	19.146	1126.062	853.680
326.241	19.191	1125.007	853.029
327.256	19.135	1124.257	852.107
328.270	19.149	1123.214	851.311
329.285	19.105	1122.061	850.144
330.300	19.147	1121.304	849.702
331.314	19.220	1120.172	849.129
332.329	19.097	1119.709	848.098
333.343	19.253	1118.594	847.946
334.358	19.316	1117.543	847.386
335.373	19.327	1116.740	846.752
336.387	19.295	1116.426	846.285
337.402	19.387	1115.403	845.883
338.416	19.362	1114.995	845.376
339.431	19.430	1114.440	845.216
340.446	19.527	1113.579	844.962
341.460	19.578	1113.109	844.782
342.475	19.680	1112.369	844.641
343.489	19.711	1111.060	843.725
344.504	19.835	1109.909	843.380
345.519	19.820	1109.530	842.943
346.533	19.781	1109.124	842.371
347.548	19.978	1107.995	842.398
348.562	19.935	1107.012	841.368
349.577	19.640	1106.290	839.310
350.592	19.655	1105.491	838.702
351.606	19.532	1104.881	837.571
352.621	19.552	1103.986	836.913
353.635	19.488	1103.536	836.192
354.650	19.541	1102.791	835.809
355.665	19.521	1102.074	835.092
356.679	19.696	1101.264	835.250
357.694	19.674	1100.835	834.748
358.708	19.791	1100.219	834.770
359.723	19.878	1099.175	834.325
360.738	19.753	1098.347	833.019
361.752	19.762	1098.036	832.755
362.767	19.741	1097.855	832.442
363.781	19.752	1097.308	832.007
364.796	19.844	1096.422	831.703
365.810	19.878	1096.090	831.540
366.825	20.048	1095.837	832.092
367.840	20.128	1095.278	831.977
368.854	20.170	1094.466	831.486
369.869	20.133	1093.704	830.659
370.883	20.059	1092.777	829.526
371.898	20.055	1091.909	828.777
372.913	20.086	1091.076	828.218
373.927	20.049	1091.120	828.000
374.942	20.246	1090.163	828.144
375.956	20.181	1089.917	827.572
376.971	20.130	1089.096	826.633
377.986	20.269	1088.798	826.996
379.000	20.287	1088.076	826.457
380.015	20.537	1087.306	826.991
381.029	20.401	1087.076	826.095
382.044	20.425	1086.209	825.478
383.059	20.374	1085.469	824.600
384.073	20.310	1084.636	823.593
385.088	20.306	1083.798	822.864
386.102	20.310	1082.767	822.025
387.117	20.278	1081.913	821.155
388.132	20.168	1080.637	819.594
389.146	20.106	1080.144	818.852
390.161	20.204	1079.085	818.442
391.175	20.228	1078.666	818.161
392.190	20.251	1078.022	817.711
393.205	20.339	1077.618	817.749
394.219	20.359	1076.547	816.958
395.234	20.233	1075.545	815.533
396.248	20.295	1074.263	814.780
397.263	20.244	1073.628	813.986
398.278	20.227	1072.603	813.055
399.292	20.224	1072.069	812.564
400.307	20.163	1071.189	811.543
401.321	20.118	1070.512	810.746
402.336	20.123	1069.974	810.290
403.350	20.229	1068.791	809.818
404.365	20.213	1068.450	809.410
405.380	20.236	1067.928	809.054
406.394	20.306	1067.007	808.607
407.409	20.493	1066.347	808.908
408.423	20.480	1065.772	808.338
409.438	20.592	1065.351	808.472
410.453	20.558	1064.357	807.488
411.467	20.715	1063.367	807.394
412.482	20.644	1063.159	806.836
413.496	20.721	1062.586	806.684
414.511	20.829	1061.948	806.631
415.526	20.825	1061.715	806.361
416.540	20.791	1061.384	805.881
417.555	20.849	1060.326	805.276
418.569	20.693	1059.927	804.180
419.584	20.714	1059.352	803.769
420.599	20.811	1058.847	803.764
421.613	151.265	1401.434	1787.179
422.628	138.975	1451.371	1787.281
