DTS Sentinel unit serial number:	SN413079Multiplexer serial number:	ORYXHardware model number:	OX4-SRSoftware version number:	ORYX F/W v4.00 Oryx Data Collector v3.7.2.0data status	okinstallation	princeton_trtdifferential loss correction	single-endedforward channel	channel 2reverse channel	N/Adate	2019/09/17time	09:07:34forward acquisition time	60.00reverse acquisition time	0.00gamma	496.2192k internal	0.2331k external	0.2331temperature offset calibration	0.9971default loss term (dB/km)	0.3790temperature slope calibration	1.0000multiplexer offset coefficient	1.0000multiplexer slope coefficient	1.0000fibre end	0.00T internal ref (°C)	28.25T ext. ref 1 (°C)	0.15T ext. ref 2 (°C)	25.02length (m)	temperature (°C)	Stokes	anti-Stokes-747.200	-78.618	0.176	0.061
-746.185	800.000	0.041	-0.149
-745.171	800.000	-0.098	0.303
-744.156	204.554	-0.096	0.150
-743.142	800.000	0.071	0.238
-742.127	225.017	-0.094	-0.154
-741.112	-200.000	-0.013	-0.244
-740.098	800.000	0.005	-0.017
-739.083	800.000	0.059	0.234
-738.069	60.038	-0.139	0.138
-737.054	-110.661	-0.079	0.016
-736.039	154.360	-0.185	-0.256
-735.025	696.444	-0.092	0.243
-734.010	-200.000	-0.020	-0.147
-732.996	-15.400	-0.080	0.051
-731.981	-35.950	0.066	0.036
-730.966	-141.466	0.229	-0.023
-729.952	-10.262	-0.235	-0.157
-728.937	-31.640	-0.196	0.111
-727.923	-107.710	-0.174	-0.038
-726.908	221.814	0.193	-0.311
-725.894	-125.394	-0.328	-0.050
-724.879	-91.207	0.051	0.015
-723.864	-155.248	0.379	-0.025
-722.850	-82.048	0.106	0.035
-721.835	800.000	0.041	-0.166
-720.821	156.230	-0.056	-0.077
-719.806	-113.462	-0.252	-0.050
-718.791	-200.000	-0.008	0.072
-717.777	-112.207	0.185	-0.037
-716.762	665.859	-0.045	0.117
-715.748	96.289	0.014	0.017
-714.733	-200.000	-0.003	-0.083
-713.718	-200.000	0.036	-0.233
-712.704	-200.000	0.003	-0.158
-711.689	800.000	-0.050	-0.178
-710.675	771.013	0.039	-0.106
-709.660	-31.297	-0.184	0.104
-708.645	203.568	-0.034	-0.053
-707.631	-152.837	0.298	-0.021
-706.616	23.222	-0.345	-0.284
-705.602	-16.446	-0.289	0.184
-704.587	-77.194	0.236	0.083
-703.572	-55.388	-0.177	-0.080
-702.558	334.782	-0.053	-0.103
-701.543	800.000	-0.077	-0.261
-700.529	-4.990	0.154	0.107
-699.514	31.455	0.288	-0.248
-698.499	-200.000	-0.007	0.096
-697.485	-65.701	-0.434	-0.175
-696.470	-144.702	0.353	0.033
-695.456	36.989	0.437	-0.388
-694.441	165.336	-0.350	-0.497
-693.426	193.599	0.148	-0.225
-692.412	-47.243	-0.192	-0.094
-691.397	-200.000	0.010	-0.116
-690.383	-200.000	0.172	0.000
-689.368	-80.709	-0.169	0.056
-688.354	-200.000	0.011	-0.121
-687.339	-200.000	-0.008	0.049
-686.324	137.426	-0.123	-0.162
-685.310	-63.398	0.030	-0.013
-684.295	114.410	-0.064	0.078
-683.281	19.407	-0.115	0.093
-682.266	-200.000	0.089	-0.397
-681.251	-200.000	-0.026	-0.286
-680.237	-19.501	0.167	-0.104
-679.222	-15.539	0.131	0.084
-678.208	272.450	0.063	0.112
-677.193	174.540	-0.083	-0.121
-676.178	-124.037	0.425	0.067
-675.164	82.876	-0.148	-0.162
-674.149	1.671	0.058	-0.042
-673.135	800.000	-0.058	-0.231
-672.120	629.146	0.140	-0.354
-671.105	800.000	0.034	0.105
-670.091	-120.108	-0.088	0.015
-669.076	5.841	-0.090	0.067
-668.062	-14.449	-0.141	-0.091
-667.047	105.938	0.113	-0.134
-666.032	41.499	0.043	-0.039
-665.018	-77.126	-0.082	-0.029
-664.003	-144.882	-0.257	-0.024
-662.989	-200.000	-0.011	0.122
-661.974	-200.000	0.005	-0.207
-660.959	800.000	-0.078	-0.215
-659.945	-144.585	0.096	0.009
-658.930	-200.000	0.016	0.092
-657.916	-7.308	-0.233	0.159
-656.901	-55.943	0.093	-0.041
-655.886	64.902	-0.204	-0.206
-654.872	-200.000	-0.001	0.068
-653.857	10.223	-0.165	-0.126
-652.843	352.021	0.052	0.104
-651.828	-200.000	0.005	0.149
-650.814	45.748	-0.120	0.112
-649.799	144.175	-0.123	-0.165
-648.784	-200.000	0.020	-0.347
-647.770	-200.000	-0.029	0.161
-646.755	593.612	0.197	-0.488
-645.741	166.590	-0.290	-0.413
-644.726	-91.235	-0.232	0.067
-643.711	129.736	-0.158	0.203
-642.697	800.000	0.033	-0.093
-641.682	-94.843	-0.171	0.047
-640.668	164.108	-0.209	0.295
-639.653	-192.572	0.287	-0.003
-638.638	266.913	0.111	-0.195
-637.624	130.953	0.151	-0.195
-636.609	-156.337	0.127	0.008
-635.595	-188.564	-0.167	-0.002
-634.580	159.691	-0.176	-0.246
-633.565	-32.772	0.205	0.114
-632.551	-132.677	-0.334	0.043
-631.536	800.000	-0.026	0.105
-630.522	188.851	0.046	0.069
-629.507	-57.377	-0.188	-0.083
-628.492	-200.000	0.003	0.264
-627.478	512.463	-0.098	-0.229
-626.463	252.598	0.140	-0.240
-625.449	322.628	0.143	0.273
-624.434	-16.690	0.114	0.072
-623.419	758.699	-0.143	-0.389
-622.405	-199.396	-0.160	0.001
-621.390	-200.000	-0.011	0.216
-620.376	-200.000	0.035	0.186
-619.361	800.000	0.018	0.077
-618.346	165.684	-0.068	-0.097
-617.332	32.968	-0.135	-0.117
-616.317	81.246	-0.216	-0.234
-615.303	480.814	0.163	-0.370
-614.288	-137.624	-0.261	-0.029
-613.273	167.718	0.161	-0.229
-612.259	-8.018	-0.193	0.130
-611.244	-200.000	0.028	0.178
-610.230	-23.971	-0.055	-0.033
-609.215	436.575	0.030	0.066
-608.201	-200.000	0.000	-0.182
-607.186	-99.727	0.066	-0.017
-606.171	800.000	-0.125	-0.347
-605.157	-200.000	0.023	-0.123
-604.142	194.818	0.078	0.118
-603.128	-66.059	0.151	-0.061
-602.113	42.623	-0.231	0.210
-601.098	17.477	-0.076	-0.061
-600.084	208.012	-0.187	-0.293
-599.069	-128.785	-0.165	-0.023
-598.055	-200.000	-0.027	-0.291
-597.040	-13.055	-0.090	-0.059
-596.025	150.927	0.082	0.112
-595.011	254.186	-0.170	-0.292
-593.996	-200.000	0.018	-0.423
-592.982	114.830	0.305	-0.372
-591.967	-19.305	0.132	-0.082
-590.952	629.515	0.098	-0.248
-589.938	537.688	-0.047	-0.112
-588.923	-200.000	-0.003	0.155
-587.909	-200.000	-0.003	0.194
-586.894	-0.761	-0.411	-0.291
-585.879	-182.636	0.287	-0.005
-584.865	-122.688	0.146	0.024
-583.850	162.926	0.107	-0.150
-582.836	92.453	-0.069	0.078
-581.821	-114.318	-0.111	-0.021
-580.806	-94.648	-0.268	-0.073
-579.792	-200.000	0.027	0.161
-578.777	-200.000	0.016	0.341
-577.763	-200.000	0.045	-0.264
-576.748	-142.120	-0.134	-0.013
-575.733	-132.357	0.209	0.027
-574.719	-37.752	-0.364	-0.194
-573.704	800.000	0.141	-0.401
-572.690	-193.096	0.350	-0.003
-571.675	43.180	0.135	-0.124
-570.661	800.000	0.156	-0.546
-569.646	800.000	0.053	-0.163
-568.631	-42.066	-0.246	-0.126
-567.617	-57.200	0.172	0.076
-566.602	-29.109	-0.086	0.050
-565.588	220.364	-0.167	-0.267
-564.573	510.180	0.051	-0.118
-563.558	-200.000	0.071	-0.391
-562.544	-19.518	0.269	0.166
-561.529	62.117	0.112	0.111
-560.515	195.871	0.054	0.082
-559.500	31.596	0.176	-0.151
-558.485	-46.092	-0.168	-0.083
-557.471	-46.235	-0.066	0.033
-556.456	-35.654	0.022	0.012
-555.442	-200.000	-0.054	0.501
-554.427	-6.736	-0.162	-0.110
-553.412	-39.449	0.127	-0.066
-552.398	800.000	0.064	-0.230
-551.383	-5.375	0.193	0.132
-550.369	-40.997	-0.079	0.041
-549.354	-12.039	-0.409	0.268
-548.339	800.000	-0.028	0.115
-547.325	-168.871	0.365	-0.014
-546.310	-200.000	0.028	-0.170
-545.296	800.000	-0.099	0.346
-544.281	62.914	0.172	0.172
-543.266	-200.000	-0.019	-0.107
-542.252	-81.151	-0.024	0.008
-541.237	25.809	0.173	0.144
-540.223	479.034	0.073	0.165
-539.208	-39.696	-0.175	0.091
-538.193	242.279	0.071	0.119
-537.179	-72.748	-0.201	0.074
-536.164	436.066	-0.130	-0.283
-535.150	-200.000	0.057	0.325
-534.135	139.082	-0.143	-0.188
-533.121	-127.653	0.234	0.034
-532.106	800.000	-0.100	0.412
-531.091	-51.275	0.228	-0.106
-530.077	-81.362	-0.052	0.017
-529.062	-95.417	0.163	0.044
-528.048	-200.000	-0.055	-0.253
-527.033	-97.010	-0.380	0.099
-526.018	78.508	0.155	-0.166
-525.004	-25.742	0.176	-0.104
-523.989	242.107	0.155	-0.259
-522.975	-53.101	0.243	0.111
-521.960	800.000	-0.067	0.190
-520.945	-72.240	0.162	0.060
-519.931	800.000	-0.093	-0.372
-518.916	30.883	0.326	0.279
-517.902	161.548	0.149	-0.207
-516.887	-30.914	-0.151	0.085
-515.872	228.301	-0.086	0.140
-514.858	106.808	0.185	-0.220
-513.843	800.000	-0.085	0.273
-512.829	83.939	-0.152	-0.166
-511.814	21.111	0.095	-0.077
-510.799	-97.443	0.246	0.064
-509.785	714.332	-0.088	0.233
-508.770	-150.222	-0.434	0.033
-507.756	-200.000	-0.042	0.287
-506.741	-167.364	-0.168	-0.007
-505.726	140.398	0.161	0.212
-504.712	201.739	0.242	0.372
-503.697	23.073	-0.182	0.149
-502.683	544.242	-0.116	0.277
-501.668	-15.227	-0.357	-0.228
-500.653	102.970	-0.038	-0.044
-499.639	-102.847	0.363	-0.086
-498.624	53.552	0.128	0.122
-497.610	-200.000	0.044	0.293
-496.595	-42.861	0.111	-0.056
-495.581	-105.906	-0.092	-0.021
-494.566	-5.352	-0.206	0.141
-493.551	800.000	-0.063	0.182
-492.537	-29.233	-0.193	-0.110
-491.522	10.240	0.076	0.057
-490.508	87.092	-0.047	-0.052
-489.493	-109.314	-0.001	-0.000
-488.478	-200.000	0.015	-0.110
-487.464	-81.085	0.113	-0.037
-486.449	-64.072	0.158	0.064
-485.435	28.781	0.127	0.107
-484.420	-97.782	-0.167	0.043
-483.405	325.039	-0.067	0.128
-482.391	436.843	0.038	-0.081
-481.376	36.126	-0.130	0.114
-480.362	-49.549	-0.179	0.085
-479.347	-48.561	0.371	-0.178
-478.332	-200.000	0.031	-0.387
-477.318	197.908	-0.115	-0.175
-476.303	-200.000	0.014	-0.114
-475.289	79.223	-0.140	-0.149
-474.274	-200.000	-0.043	0.398
-473.259	2.945	0.264	-0.191
-472.245	-66.031	-0.149	0.059
-471.230	69.702	0.122	-0.125
-470.216	-129.089	0.177	-0.025
-469.201	111.424	0.050	0.060
-468.186	107.069	0.142	0.168
-467.172	130.630	0.149	-0.190
-466.157	641.490	-0.118	-0.299
-465.143	-97.398	0.180	0.047
-464.128	-113.260	-0.208	-0.041
-463.113	59.065	-0.105	-0.103
-462.099	-200.000	-0.006	0.282
-461.084	-200.000	-0.035	-0.301
-460.070	-87.381	0.030	0.009
-459.055	-200.000	0.001	0.228
-458.040	-200.000	-0.020	-0.282
-457.026	-182.163	-0.326	0.006
-456.011	-71.137	0.101	-0.038
-454.997	169.627	-0.083	-0.118
-453.982	293.431	0.057	0.103
-452.968	524.366	-0.070	0.163
-451.953	490.395	0.037	0.085
-450.938	-41.789	-0.376	-0.192
-449.924	-55.522	0.120	0.054
-448.909	161.915	-0.138	0.192
-447.895	-157.951	-0.184	0.011
-446.880	-200.000	0.028	0.140
-445.865	800.000	-0.154	-0.430
-444.851	103.930	-0.089	0.104
-443.836	120.784	-0.172	-0.213
-442.822	800.000	0.084	0.237
-441.807	800.000	-0.092	-0.281
-440.792	-4.740	-0.284	-0.195
-439.778	28.278	0.128	0.108
-438.763	35.698	0.101	0.088
-437.749	800.000	-0.042	-0.178
-436.734	74.708	0.168	-0.175
-435.719	800.000	0.131	0.378
-434.705	-71.946	0.196	0.073
-433.690	-114.176	-0.058	0.011
-432.676	51.954	-0.189	0.179
-431.661	-42.536	-0.173	0.088
-430.646	-172.222	0.232	-0.007
-429.632	6.518	0.110	-0.081
-428.617	-10.619	-0.138	0.091
-427.603	-200.000	-0.001	-0.063
-426.588	-200.000	-0.017	0.362
-425.573	319.330	0.104	0.196
-424.559	-72.336	-0.268	0.099
-423.544	700.030	0.110	-0.287
-422.530	0.873	0.152	0.108
-421.515	-200.000	-0.036	0.212
-420.500	-23.448	-0.123	0.074
-419.486	-200.000	-0.028	0.304
-418.471	800.000	0.122	0.340
-417.457	136.056	-0.206	0.267
-416.442	-62.715	-0.213	0.088
-415.428	-153.534	0.445	-0.031
-414.413	-99.388	0.328	-0.082
-413.398	2.932	0.174	-0.125
-412.384	-153.377	0.088	-0.006
-411.369	800.000	0.028	0.081
-410.355	-200.000	-0.003	0.182
-409.340	-200.000	0.003	0.045
-408.325	92.449	0.223	-0.249
-407.311	-121.166	0.012	-0.002
-406.296	-130.393	-0.176	-0.024
-405.282	-70.970	0.335	0.125
-404.267	-48.532	-0.156	0.074
-403.252	-200.000	-0.036	-0.233
-402.238	135.070	-0.209	-0.270
-401.223	90.836	0.124	0.138
-400.209	-200.000	0.042	0.263
-399.194	-30.254	0.181	-0.102
-398.179	-137.093	-0.281	0.032
-397.165	-61.321	-0.182	-0.076
-396.150	-146.582	0.258	0.022
-395.136	621.158	-0.073	0.182
-394.121	-200.000	0.022	-0.145
-393.106	399.028	0.122	-0.253
-392.092	519.502	-0.202	-0.471
-391.077	-87.123	-0.203	-0.061
-390.063	-3.124	0.159	0.110
-389.048	-50.553	0.116	0.054
-388.033	-200.000	0.017	0.154
-387.019	231.583	0.201	-0.327
-386.004	-200.000	0.022	0.252
-384.990	-200.000	-0.002	-0.105
-383.975	71.690	0.088	-0.090
-382.960	-22.020	0.251	0.151
-381.946	-197.771	-0.469	-0.003
-380.931	-91.992	0.119	0.033
-379.917	53.604	0.048	-0.046
-378.902	-200.000	-0.028	-0.311
-377.888	-200.000	-0.027	0.162
-376.873	270.962	0.112	-0.196
-375.858	18.866	0.220	0.175
-374.844	-18.337	-0.102	-0.063
-373.829	-48.461	-0.240	-0.115
-372.815	800.000	-0.129	-0.415
-371.800	48.844	-0.207	-0.193
-370.785	-168.817	-0.192	-0.007
-369.771	98.028	0.064	0.074
-368.756	-200.000	0.020	-0.156
-367.742	109.348	0.147	-0.175
-366.727	800.000	-0.087	-0.310
-365.712	-44.821	0.347	0.172
-364.698	201.557	0.035	0.053
-363.683	-107.743	0.121	0.026
-362.669	-85.188	0.296	-0.092
-361.654	40.296	-0.108	0.096
-360.639	-27.074	0.337	0.195
-359.625	-82.285	0.240	-0.077
-358.610	419.206	0.113	0.239
-357.596	-32.660	0.205	0.113
-356.581	-163.059	-0.206	0.010
-355.566	-24.476	0.510	-0.301
-354.552	329.415	0.166	0.316
-353.537	-133.528	-0.295	0.037
-352.523	-99.820	-0.237	-0.059
-351.508	-186.581	-0.137	0.002
-350.493	-86.766	0.043	-0.013
-349.479	13.829	-0.206	-0.159
-348.464	-69.507	-0.354	0.134
-347.450	-110.250	0.310	0.064
-346.435	-200.000	-0.058	0.368
-345.420	-81.339	-0.191	-0.062
-344.406	-200.000	0.000	0.030
-343.391	800.000	0.041	0.142
-342.377	-24.555	0.219	-0.129
-341.362	96.101	-0.098	-0.111
-340.348	-24.261	0.159	0.094
-339.333	63.843	-0.156	0.155
-338.318	176.807	-0.053	0.076
-337.304	-200.000	0.097	-0.567
-336.289	-52.080	-0.269	-0.124
-335.275	-200.000	-0.003	0.204
-334.260	3.003	-0.214	0.154
-333.245	-111.160	0.300	-0.061
-332.231	-52.988	0.218	-0.099
-331.216	-137.664	-0.212	-0.024
-330.202	800.000	-0.031	0.129
-329.187	-129.575	0.127	0.017
-328.172	-89.885	-0.293	0.085
-327.158	-155.212	0.259	0.017
-326.143	-5.378	0.246	0.167
-325.129	-107.708	-0.231	-0.050
-324.114	-81.036	-0.319	0.105
-323.099	137.441	0.140	-0.181
-322.085	31.340	-0.217	0.185
-321.070	800.000	0.098	-0.270
-320.056	-50.193	-0.210	-0.098
-319.041	-162.701	0.232	0.011
-318.026	-126.114	-0.215	0.032
-317.012	16.743	0.154	-0.121
-315.997	-36.352	0.142	0.076
-314.983	-96.691	0.212	0.055
-313.968	-50.853	-0.297	-0.138
-312.953	800.000	0.045	-0.138
-311.939	385.418	-0.074	-0.151
-310.924	-120.151	-0.186	-0.031
-309.910	113.687	0.178	0.214
-308.895	-89.328	-0.083	-0.024
-307.880	532.178	-0.104	0.243
-306.866	340.359	-0.007	-0.013
-305.851	800.000	0.079	-0.216
-304.837	-175.712	0.200	0.005
-303.822	59.216	-0.232	-0.226
-302.807	-119.250	-0.087	0.015
-301.793	153.158	-0.070	0.095
-300.778	-200.000	0.010	-0.070
-299.764	-143.224	-0.117	-0.011
-298.749	-128.532	0.148	0.021
-297.735	86.820	-0.098	0.107
-296.720	-51.691	-0.252	0.116
-295.705	-146.717	-0.105	-0.009
-294.691	800.000	-0.051	0.156
-293.676	169.736	-0.133	-0.187
-292.662	-20.892	0.170	0.103
-291.647	16.178	0.171	0.134
-290.632	58.534	-0.305	-0.296
-289.618	-63.775	0.007	0.003
-288.603	800.000	-0.068	0.290
-287.589	800.000	-0.107	-0.369
-286.574	284.220	-0.120	-0.213
-285.559	143.310	-0.067	0.088
-284.545	-39.247	-0.334	-0.174
-283.530	-200.000	-0.038	-0.238
-282.516	-8.675	0.120	-0.080
-281.501	-112.333	0.242	0.048
-280.486	-175.680	-0.167	-0.004
-279.472	-200.000	0.008	0.110
-278.457	51.931	0.135	-0.127
-277.443	-79.561	0.128	0.043
-276.428	-72.165	-0.171	0.063
-275.413	-200.000	0.006	-0.067
-274.399	6.011	-0.160	0.117
-273.384	-200.000	0.023	0.202
-272.370	800.000	-0.142	0.390
-271.355	-3.663	0.074	0.051
-270.340	-200.000	-0.012	0.503
-269.326	54.186	-0.233	-0.222
-268.311	-23.559	-0.153	0.091
-267.297	-9.188	0.124	0.082
-266.282	-134.968	-0.388	-0.046
-265.267	-19.992	-0.314	-0.191
-264.253	84.000	-0.178	-0.192
-263.238	-200.000	-0.013	0.128
-262.224	-29.697	-0.028	0.016
-261.209	-76.130	-0.174	0.061
-260.195	1.699	0.238	0.170
-259.180	-101.914	0.417	-0.099
-258.165	-200.000	-0.025	0.182
-257.151	-200.000	0.008	-0.122
-256.136	-102.650	0.298	-0.070
-255.122	-39.772	-0.099	0.051
-254.107	-200.000	-0.058	-0.403
-253.092	800.000	0.036	0.111
-252.078	337.097	-0.126	0.241
-251.063	-200.000	-0.063	-0.277
-250.049	-66.694	0.369	0.144
-249.034	-7.464	0.023	-0.015
-248.019	21.395	0.087	0.070
-247.005	-155.122	0.252	0.016
-245.990	155.204	-0.186	-0.252
-244.976	278.808	-0.128	-0.225
-243.961	-200.000	-0.046	-0.235
-242.946	-88.247	-0.272	0.080
-241.932	127.871	0.036	0.046
-240.917	-87.122	0.393	0.118
-239.903	668.121	0.094	0.241
-238.888	-153.200	-0.199	0.014
-237.873	800.000	0.088	0.329
-236.859	-200.000	0.019	-0.198
-235.844	800.000	-0.079	0.240
-234.830	67.315	-0.257	-0.259
-233.815	425.907	0.053	-0.113
-232.800	-200.000	-0.018	0.101
-231.786	15.795	0.245	0.190
-230.771	734.004	-0.157	0.414
-229.757	48.939	-0.031	0.029
-228.742	85.571	0.015	0.016
-227.727	800.000	-0.066	0.227
-226.713	53.099	-0.111	-0.105
-225.698	349.244	-0.051	-0.099
-224.684	60.241	-0.280	0.273
-223.669	16.763	-0.213	-0.166
-222.655	-200.000	0.010	0.099
-221.640	-96.750	-0.184	-0.048
-220.625	92.694	-0.161	-0.179
-219.611	-51.248	0.084	-0.039
-218.596	-200.000	0.007	-0.068
-217.582	197.233	0.209	0.314
-216.567	-93.942	-0.220	0.060
-215.552	800.000	0.065	0.179
-214.538	-82.946	0.117	-0.037
-213.523	-11.580	-0.146	0.095
-212.509	14.810	-0.118	-0.091
-211.494	-145.422	-0.266	-0.024
-210.479	-200.000	0.039	0.170
-209.465	-30.610	0.100	0.056
-208.450	37.034	-0.149	-0.130
-207.436	-200.000	-0.045	0.389
-206.421	-200.000	0.019	0.241
-205.406	-138.596	-0.080	0.009
-204.392	196.958	-0.099	0.149
-203.377	-200.000	-0.010	-0.129
-202.363	-84.903	-0.179	0.055
-201.348	-200.000	0.063	-0.415
-200.333	169.928	0.250	0.353
-199.319	91.947	0.311	0.345
-198.304	-86.610	0.468	0.141
-197.290	800.000	0.100	-0.272
-196.275	-17.156	0.214	0.133
-195.260	54.169	-0.232	-0.220
-194.246	-45.176	-0.360	0.176
-193.231	-46.500	0.229	-0.111
-192.217	-8.015	0.123	0.082
-191.202	-200.000	-0.010	-0.310
-190.187	-15.433	0.056	-0.035
-189.173	111.085	-0.087	0.103
-188.158	-97.887	-0.186	0.047
-187.144	-200.000	-0.052	-0.322
-186.129	-26.925	0.452	-0.260
-185.114	800.000	0.091	0.276
-184.100	-200.000	-0.020	0.195
-183.085	800.000	-0.020	-0.073
-182.071	-144.258	-0.157	-0.014
-181.056	800.000	-0.106	-0.308
-180.042	143.183	-0.060	-0.079
-179.027	800.000	0.103	0.405
-178.012	-5.512	0.060	-0.040
-176.998	-59.590	0.150	0.063
-175.983	-200.000	-0.044	-0.205
-174.969	-96.176	-0.070	0.018
-173.954	117.942	0.394	0.477
-172.939	134.572	0.126	0.160
-171.925	44.732	0.078	-0.071
-170.910	177.212	0.196	0.281
-169.896	610.967	-0.111	-0.274
-168.881	108.835	0.160	0.188
-167.866	169.949	0.394	0.555
-166.852	290.088	0.154	0.276
-165.837	-68.948	0.373	0.142
-164.823	206.521	0.219	0.336
-163.808	-200.000	0.023	-0.130
-162.793	335.943	0.031	-0.059
-161.779	800.000	-0.088	-0.261
-160.764	-30.110	0.323	-0.181
-159.750	-175.959	-0.337	-0.009
-158.735	362.554	-0.172	0.339
-157.720	-76.459	0.237	0.082
-156.706	127.749	-0.081	0.101
-155.691	-200.000	0.031	0.206
-154.677	-95.806	0.317	-0.083
-153.662	-200.000	-0.011	0.170
-152.647	15.810	0.129	-0.100
-151.633	-90.910	0.223	-0.063
-150.618	-59.905	0.124	-0.052
-149.604	-200.000	-0.010	-0.094
-148.589	500.554	-0.071	0.160
-147.574	-164.235	0.139	-0.006
-146.560	-200.000	-0.074	0.441
-145.545	260.743	0.129	-0.220
-144.531	-169.916	0.223	-0.008
-143.516	27.258	-0.196	-0.162
-142.502	-6.077	-0.102	-0.069
-141.487	-40.737	0.265	0.135
-140.472	35.165	0.059	0.051
-139.458	-23.829	-0.172	-0.101
-138.443	800.000	0.076	-0.293
-137.429	106.266	0.095	-0.110
-136.414	800.000	0.062	-0.222
-135.399	302.704	0.136	0.247
-134.385	-200.000	-0.029	-0.144
-133.370	-56.566	-0.068	-0.030
-132.356	59.597	0.147	-0.142
-131.341	-200.000	-0.009	0.197
-130.326	-200.000	-0.009	0.350
-129.312	-145.963	-0.060	-0.005
-128.297	-19.836	0.274	-0.166
-127.283	-200.000	0.022	-0.266
-126.268	-200.000	0.005	0.186
-125.253	79.273	-0.189	0.199
-124.239	-74.014	-0.281	0.100
-123.224	800.000	0.053	0.164
-122.210	-111.518	0.507	-0.101
-121.195	800.000	-0.027	0.105
-120.180	6.647	0.304	0.222
-119.166	-112.032	-0.619	-0.123
-118.151	4.022	0.078	-0.056
-117.137	157.842	0.064	0.087
-116.122	-57.045	0.153	-0.066
-115.107	800.000	-0.067	0.203
-114.093	73.704	0.150	0.155
-113.078	-200.000	-0.037	0.495
-112.064	615.942	-0.061	0.149
-111.049	-158.297	0.287	0.016
-110.034	-15.219	-0.380	-0.239
-109.020	-6.662	0.171	0.114
-108.005	695.662	-0.092	0.237
-106.991	84.590	0.073	0.078
-105.976	327.603	-0.089	0.168
-104.962	-123.743	0.059	0.009
-103.947	53.786	0.113	0.106
-102.932	-71.067	-0.246	-0.091
-101.918	431.384	-0.054	0.114
-100.903	-92.178	-0.155	-0.043
-99.889	-200.000	-0.007	0.175
-98.874	-66.073	-0.177	-0.069
-97.859	-96.577	0.262	0.068
-96.845	135.674	-0.192	-0.245
-95.830	-51.733	0.077	0.035
-94.816	-200.000	-0.029	0.171
-93.801	204.472	-0.154	-0.235
-92.786	7.517	-0.052	0.039
-91.772	4.035	0.174	0.125
-90.757	121.215	0.055	0.067
-89.743	-200.000	0.037	0.159
-88.728	189.445	0.123	-0.180
-87.713	772.751	-0.127	-0.340
-86.699	-158.886	-0.437	0.024
-85.684	-200.000	-0.001	-0.042
-84.670	-104.865	0.199	-0.045
-83.655	-200.000	-0.019	-0.197
-82.640	800.000	0.064	0.275
-81.626	-194.341	-0.112	0.001
-80.611	198.098	0.110	0.165
-79.597	-200.000	0.048	-0.306
-78.582	-32.181	-0.063	-0.034
-77.567	-22.191	-0.236	0.140
-76.553	155.501	0.066	0.090
-75.538	-62.810	-0.182	-0.074
-74.524	3.102	0.064	-0.046
-73.509	546.073	0.049	-0.114
-72.494	89.505	-0.207	-0.226
-71.480	-80.044	-0.050	-0.016
-70.465	800.000	-0.055	0.169
-69.451	229.031	-0.147	0.235
-68.436	165.486	0.288	-0.399
-67.422	29.625	0.282	0.235
-66.407	8.706	0.039	-0.029
-65.392	163.343	0.165	-0.228
-64.378	-19.025	0.099	-0.060
-63.363	-61.455	0.437	0.180
-62.349	83.703	0.085	0.091
-61.334	-49.813	-1.227	-0.571
-60.319	18.677	0.703	0.551
-59.305	436.402	-0.405	-0.864
-58.290	149.041	0.962	1.275
-57.276	800.000	0.401	1.500
-56.261	-200.000	109.721	596.544
-55.246	437.289	1509.471	3222.978
-54.232	143.885	2697.192	3523.001
-53.217	97.205	2298.389	2583.896
-52.203	37.290	1903.525	1652.296
-51.188	31.523	1690.352	1423.474
-50.173	28.968	1647.162	1368.072
-49.159	48.512	1701.586	1561.531
-48.144	48.340	1716.830	1574.154
-47.130	31.053	1674.224	1406.120
-46.115	28.393	1659.647	1373.909
-45.100	28.127	1654.792	1367.849
-44.086	28.076	1652.709	1365.695
-43.071	28.084	1650.180	1363.605
-42.057	28.041	1647.761	1361.232
-41.042	28.051	1645.238	1359.170
-40.027	28.230	1642.982	1358.579
-39.013	28.024	1641.794	1356.020
-37.998	28.069	1640.100	1354.898
-36.984	28.149	1638.470	1354.094
-35.969	28.104	1637.351	1352.782
-34.954	28.295	1635.180	1352.339
-33.940	28.205	1633.689	1350.393
-32.925	28.280	1631.698	1349.242
-31.911	28.275	1630.443	1348.114
-30.896	28.222	1628.529	1346.089
-29.881	28.191	1626.956	1344.509
-28.867	28.269	1625.070	1343.473
-27.852	28.300	1623.371	1342.241
-26.838	28.226	1622.501	1340.924
-25.823	28.291	1620.923	1340.047
-24.809	28.286	1619.872	1339.088
-23.794	28.192	1618.561	1337.262
-22.779	28.253	1616.990	1336.355
-21.765	28.318	1615.440	1335.497
-20.750	28.267	1614.252	1334.089
-19.736	28.220	1612.912	1332.589
-18.721	28.313	1611.484	1332.033
-17.706	28.320	1609.638	1330.502
-16.692	28.268	1608.398	1329.046
-15.677	28.319	1607.389	1328.531
-14.663	28.381	1605.658	1327.494
-13.648	28.342	1604.302	1326.040
-12.633	28.260	1602.495	1323.898
-11.619	28.292	1600.845	1322.714
-10.604	28.311	1599.581	1321.758
-9.590	28.315	1598.554	1320.885
-8.575	28.328	1596.862	1319.528
-7.560	28.331	1595.597	1318.453
-6.546	28.306	1595.058	1317.774
-5.531	28.228	1594.025	1316.307
-4.517	28.273	1592.822	1315.583
-3.502	28.230	1591.252	1313.924
-2.487	28.328	1589.880	1313.446
-1.473	28.229	1578.575	1303.351
-0.458	25.774	1560.490	1271.063
0.556	20.759	1561.991	1242.188
1.571	18.678	1586.371	1246.368
2.586	18.152	1598.468	1251.917
3.600	16.168	1545.621	1196.360
4.615	8.992	1435.250	1063.416
5.629	1.750	1371.706	970.233
6.644	0.286	1363.733	955.231
7.659	0.164	1362.319	953.385
8.673	0.117	1361.232	952.244
9.688	0.023	1359.727	950.507
10.702	-0.163	1356.215	946.799
11.717	3.451	1361.644	973.349
12.731	11.559	1374.217	1033.738
13.746	16.731	1381.539	1071.975
14.761	16.986	1381.119	1073.169
15.775	16.289	1378.248	1066.439
16.790	15.267	1375.426	1057.713
17.804	14.457	1373.245	1050.842
18.819	14.083	1372.116	1047.532
19.834	13.806	1371.236	1045.018
20.848	13.479	1369.624	1041.640
21.863	13.329	1368.093	1039.440
22.877	13.197	1366.573	1037.370
23.892	13.111	1366.245	1036.489
24.907	13.054	1365.336	1035.347
25.921	13.079	1364.364	1034.674
26.936	13.183	1363.332	1034.454
27.950	13.256	1362.597	1034.262
28.965	13.282	1361.191	1033.265
29.980	13.301	1360.912	1033.078
30.994	13.391	1359.359	1032.372
32.009	13.386	1358.522	1031.611
33.023	13.323	1357.384	1030.267
34.038	13.441	1355.803	1029.708
35.053	13.294	1355.017	1028.109
36.067	13.327	1354.279	1027.661
37.082	13.253	1353.568	1026.568
38.096	13.298	1352.571	1026.005
39.111	13.316	1351.817	1025.450
40.126	13.175	1351.175	1023.998
41.140	13.149	1350.176	1022.990
42.155	13.167	1349.655	1022.617
43.169	13.152	1349.621	1022.406
44.184	13.082	1349.295	1021.639
45.199	13.042	1348.863	1020.972
46.213	13.195	1348.222	1021.344
47.228	13.168	1347.288	1020.381
48.242	13.102	1346.551	1019.320
49.257	13.264	1344.457	1018.645
50.271	13.233	1342.978	1017.246
51.286	13.250	1341.503	1016.141
52.301	13.240	1340.389	1015.143
53.315	13.162	1339.399	1013.825
54.330	13.171	1338.610	1013.198
55.344	13.165	1337.048	1011.886
56.359	13.168	1336.325	1011.268
57.374	13.174	1335.447	1010.554
58.388	13.182	1334.666	1009.921
59.403	13.170	1334.130	1009.353
60.417	13.026	1333.180	1007.663
61.432	13.094	1332.009	1007.107
62.447	13.068	1331.308	1006.330
63.461	13.048	1329.975	1005.110
64.476	13.072	1328.841	1004.310
65.490	12.993	1327.939	1003.056
66.505	13.076	1326.437	1002.341
67.520	13.079	1325.289	1001.400
68.534	13.112	1324.074	1000.595
69.549	13.089	1322.510	999.187
70.563	13.051	1321.964	998.456
71.578	13.021	1321.240	997.640
72.593	13.025	1319.709	996.419
73.607	13.077	1318.651	995.847
74.622	13.001	1318.075	994.864
75.636	12.964	1317.477	994.103
76.651	12.963	1317.062	993.695
77.666	13.025	1316.388	993.469
78.680	12.992	1315.910	992.822
79.695	12.944	1315.286	991.976
80.709	13.034	1313.998	991.455
81.724	13.131	1313.028	991.218
82.739	13.090	1312.107	990.190
83.753	13.201	1311.347	990.193
84.768	13.325	1310.151	989.947
85.782	13.291	1308.918	988.724
86.797	13.237	1307.778	987.455
87.812	13.198	1306.491	986.159
88.826	13.214	1305.249	985.235
89.841	13.165	1304.000	983.909
90.855	13.232	1303.380	983.753
91.870	13.265	1302.540	983.232
92.884	13.167	1301.769	981.980
93.899	13.313	1300.708	981.960
94.914	13.342	1300.181	981.646
95.928	13.372	1299.276	981.053
96.943	13.337	1298.150	979.906
97.957	13.337	1296.900	978.877
98.972	13.338	1296.296	978.341
99.987	13.295	1295.241	977.202
101.001	13.314	1294.093	976.362
102.016	13.306	1293.132	975.506
103.030	13.339	1292.067	974.809
104.045	13.358	1291.175	974.163
105.060	13.288	1290.006	972.781
106.074	13.120	1288.871	970.853
107.089	13.055	1287.766	969.553
108.103	13.072	1286.418	968.551
109.118	13.155	1285.235	968.061
110.133	13.063	1283.838	966.384
111.147	13.153	1282.431	965.770
112.162	13.185	1280.988	964.781
113.176	13.084	1280.649	963.853
114.191	13.224	1279.496	963.717
115.206	13.203	1278.374	962.665
116.220	13.168	1276.849	961.225
117.235	13.239	1275.529	960.559
118.249	13.129	1274.568	959.111
119.264	13.141	1273.592	958.363
120.279	13.191	1272.909	958.056
121.293	13.220	1271.509	957.080
122.308	13.166	1270.481	955.913
123.322	13.170	1269.346	954.996
124.337	13.133	1268.319	953.926
125.352	13.113	1267.212	952.892
126.366	13.169	1266.110	952.304
127.381	13.224	1265.511	952.085
128.395	13.036	1264.654	950.273
129.410	13.137	1263.031	949.553
130.424	13.162	1262.631	949.308
131.439	13.143	1261.106	947.974
132.454	13.211	1260.259	947.642
133.468	13.227	1259.479	947.064
134.483	13.235	1258.669	946.417
135.497	13.293	1257.383	945.697
136.512	13.181	1256.708	944.466
137.527	13.283	1254.740	943.484
138.541	13.308	1253.410	942.545
139.556	13.283	1251.992	941.250
140.570	13.304	1251.412	940.853
141.585	13.200	1250.601	939.568
142.600	13.275	1249.151	938.818
143.614	13.379	1248.084	938.527
144.629	13.450	1246.706	937.806
145.643	13.320	1245.855	936.350
146.658	13.259	1244.550	934.939
147.673	13.277	1242.673	933.550
148.687	13.302	1241.916	933.040
149.702	13.323	1240.768	932.215
150.716	13.274	1239.360	930.798
151.731	13.223	1238.280	929.618
152.746	13.209	1237.394	928.788
153.760	13.362	1235.656	928.260
154.775	13.494	1234.501	928.052
155.789	13.431	1233.528	926.883
156.804	13.470	1232.439	926.204
157.819	13.471	1231.681	925.559
158.833	13.572	1230.644	925.259
159.848	13.594	1229.883	924.731
160.862	13.513	1228.856	923.423
161.877	13.439	1227.632	922.010
162.892	13.437	1226.322	920.933
163.906	13.466	1225.491	920.386
164.921	13.388	1224.980	919.489
165.935	13.457	1224.379	919.342
166.950	13.570	1223.296	919.073
167.964	13.502	1222.560	918.061
168.979	13.482	1221.869	917.350
169.994	13.608	1220.614	917.027
171.008	13.612	1219.956	916.473
172.023	13.676	1219.149	916.139
173.037	13.661	1218.549	915.523
174.052	13.566	1217.552	914.170
175.067	13.612	1216.671	913.680
176.081	13.522	1215.599	912.300
177.096	13.633	1214.573	912.056
178.110	13.493	1214.031	910.801
179.125	13.523	1212.416	909.674
180.140	13.564	1211.486	909.123
181.154	13.657	1209.577	908.116
182.169	13.789	1208.406	907.878
183.183	13.793	1207.623	907.232
184.198	13.740	1206.346	905.906
185.213	13.810	1205.288	905.414
186.227	13.838	1204.125	904.612
187.242	13.856	1203.076	903.841
188.256	13.849	1202.331	903.164
189.271	13.833	1201.313	902.228
190.286	13.718	1200.317	900.776
191.300	13.641	1199.595	899.738
192.315	13.605	1198.796	898.863
193.329	13.612	1198.102	898.305
194.344	13.748	1197.192	898.276
195.359	13.693	1197.324	897.999
196.373	13.795	1196.655	897.971
197.388	13.937	1195.657	897.908
198.402	13.947	1195.388	897.684
199.417	14.025	1194.490	897.351
200.432	14.119	1193.392	896.953
201.446	14.048	1192.686	895.957
202.461	14.213	1191.626	895.970
203.475	14.167	1190.615	894.887
204.490	14.066	1189.452	893.391
205.504	13.983	1188.368	892.049
206.519	14.103	1186.981	891.576
207.534	13.994	1185.820	890.039
208.548	14.088	1184.670	889.600
209.563	14.011	1184.458	888.952
210.577	13.975	1183.480	887.945
211.592	14.074	1182.455	887.625
212.607	14.118	1181.638	887.170
213.621	14.227	1180.417	886.754
214.636	14.166	1179.918	885.979
215.650	14.123	1179.281	885.194
216.665	14.171	1178.063	884.456
217.680	14.185	1177.272	883.855
218.694	14.264	1176.636	883.722
219.709	14.227	1175.730	882.763
220.723	14.287	1175.058	882.498
221.738	14.233	1174.339	881.597
222.753	14.237	1173.720	881.072
223.767	14.279	1172.934	880.627
224.782	14.420	1171.989	880.584
225.796	14.364	1171.409	879.779
226.811	14.428	1171.000	879.730
227.826	14.356	1170.174	878.654
228.840	14.340	1169.190	877.753
229.855	14.279	1168.963	877.180
230.869	14.433	1168.011	877.199
231.884	14.180	1167.521	875.424
232.899	14.364	1166.555	875.586
233.913	14.354	1165.743	874.846
234.928	14.300	1164.637	873.661
235.942	14.257	1163.994	872.874
236.957	14.302	1163.150	872.400
237.972	14.351	1162.270	871.916
238.986	14.312	1162.083	871.498
240.001	14.406	1161.256	871.288
241.015	14.363	1160.457	870.391
242.030	14.456	1159.631	870.178
243.045	14.571	1158.873	870.135
244.059	14.538	1157.812	869.089
245.074	14.475	1157.339	868.326
246.088	14.545	1156.311	867.846
247.103	14.586	1155.335	867.247
248.117	14.629	1154.964	867.116
249.132	14.661	1154.379	866.767
250.147	14.747	1153.377	866.383
251.161	14.848	1152.596	866.243
252.176	14.822	1152.189	865.723
253.190	14.760	1151.467	864.787
254.205	14.928	1150.485	864.837
255.220	14.887	1150.302	864.415
256.234	14.775	1149.768	863.355
257.249	14.897	1148.849	863.222
258.263	14.752	1148.488	862.125
259.278	14.763	1147.865	861.637
260.293	14.936	1147.152	861.915
261.307	14.926	1146.281	861.136
262.322	14.853	1146.299	860.694
263.336	14.967	1145.238	860.411
264.351	15.015	1144.563	860.076
265.366	14.953	1144.079	859.314
266.380	15.097	1143.111	859.250
267.395	14.993	1142.258	858.002
268.409	15.039	1141.287	857.432
269.424	15.131	1140.908	857.541
270.439	15.032	1140.406	856.583
271.453	15.120	1139.960	856.621
272.468	15.068	1138.724	855.354
273.482	15.113	1138.053	855.000
274.497	15.048	1137.595	854.251
275.512	15.167	1136.665	854.081
276.526	15.055	1136.090	853.003
277.541	15.207	1135.250	853.071
278.555	15.046	1134.474	851.596
279.570	15.157	1133.872	851.632
280.585	15.099	1133.274	850.814
281.599	15.150	1132.190	850.184
282.614	15.149	1131.306	849.436
283.628	15.282	1130.075	849.111
284.643	15.231	1129.268	848.173
285.657	15.222	1128.707	847.631
286.672	15.324	1127.098	846.865
287.687	15.320	1126.050	845.978
288.701	15.271	1126.170	845.746
289.716	15.335	1125.043	845.148
290.730	15.270	1124.718	844.503
291.745	15.269	1124.063	843.933
292.760	15.336	1122.996	843.393
293.774	15.401	1122.437	843.227
294.789	15.326	1122.179	842.580
295.803	15.370	1121.414	842.149
296.818	15.417	1120.719	841.788
297.833	15.457	1119.845	841.261
298.847	15.509	1119.128	840.908
299.862	15.426	1118.529	839.968
300.876	15.510	1117.237	839.345
301.891	15.433	1117.074	838.763
302.906	15.640	1116.043	838.947
303.920	15.669	1115.236	838.408
304.935	15.632	1115.011	837.985
305.949	15.540	1114.508	837.072
306.964	15.698	1113.452	836.989
307.979	15.765	1112.434	836.483
308.993	15.648	1112.050	835.542
310.008	15.630	1111.220	834.753
311.022	15.793	1110.588	835.013
312.037	15.671	1109.741	833.701
313.052	15.740	1108.890	833.328
314.066	15.730	1107.314	832.017
315.081	15.644	1107.070	831.340
316.095	15.737	1106.190	831.064
317.110	15.609	1105.914	830.151
318.125	15.623	1104.814	829.318
319.139	15.645	1104.102	828.823
320.154	15.716	1103.453	828.607
321.168	15.722	1102.874	828.132
322.183	15.688	1102.592	827.680
323.197	15.769	1101.947	827.518
324.212	15.764	1100.940	826.664
325.227	15.744	1100.659	826.284
326.241	15.893	1099.950	826.411
327.256	15.837	1098.777	825.179
328.270	15.818	1097.834	824.305
329.285	15.815	1097.115	823.680
330.300	15.795	1096.318	822.909
331.314	15.825	1095.442	822.323
332.329	15.839	1094.773	821.821
333.343	15.717	1094.075	820.629
334.358	15.874	1093.072	820.566
335.373	15.893	1092.632	820.256
336.387	16.040	1091.402	819.976
337.402	16.036	1090.767	819.410
338.416	16.009	1090.060	818.672
339.431	15.963	1089.813	818.191
340.446	16.060	1089.282	818.192
341.460	16.080	1088.627	817.722
342.475	16.086	1087.827	817.081
343.489	16.156	1086.887	816.640
344.504	16.091	1085.891	815.506
345.519	16.177	1085.019	815.192
346.533	16.220	1084.417	814.874
347.548	16.189	1083.660	814.086
348.562	16.201	1082.846	813.459
349.577	16.314	1081.612	813.004
350.592	16.178	1081.262	812.017
351.606	16.178	1080.567	811.424
352.621	16.056	1079.982	810.326
353.635	16.204	1079.363	810.501
354.650	16.310	1078.287	810.130
355.665	16.199	1077.954	809.274
356.679	16.148	1077.567	808.669
357.694	16.186	1077.222	808.520
358.708	16.363	1076.068	808.429
359.723	16.458	1075.127	808.106
360.738	16.339	1074.727	807.163
361.752	16.296	1074.072	806.395
362.767	16.348	1073.592	806.210
363.781	16.342	1072.970	805.646
364.796	16.442	1072.338	805.574
365.810	16.494	1071.616	805.207
366.825	16.488	1071.408	804.955
367.840	16.451	1071.095	804.471
368.854	16.649	1070.004	804.521
369.869	16.578	1069.425	803.679
370.883	16.524	1068.527	802.676
371.898	16.466	1067.757	801.751
372.913	16.582	1067.156	801.778
373.927	16.530	1066.769	801.170
374.942	16.683	1066.102	801.324
375.956	16.606	1065.685	800.575
376.971	16.751	1065.065	800.723
377.986	16.742	1064.522	800.199
379.000	16.699	1063.898	799.456
380.015	16.825	1063.521	799.700
381.029	16.746	1062.493	798.483
382.044	16.770	1062.098	798.226
383.059	16.765	1061.571	797.739
384.073	16.789	1060.718	797.138
385.088	16.829	1059.437	796.295
386.102	16.875	1058.809	795.966
387.117	16.770	1057.800	794.648
388.132	16.775	1056.854	793.889
389.146	16.682	1056.388	793.033
390.161	16.739	1055.669	792.689
391.175	16.711	1054.825	791.856
392.190	16.833	1054.267	791.937
393.205	16.913	1053.617	791.752
394.219	16.941	1052.527	790.992
395.234	16.789	1051.955	789.784
396.248	16.975	1050.476	789.468
397.263	16.962	1049.450	788.567
398.278	16.780	1049.415	787.625
399.292	16.779	1048.564	786.913
400.307	16.812	1047.808	786.427
401.321	16.880	1047.351	786.332
402.336	16.908	1046.322	785.618
403.350	16.955	1045.617	785.240
404.365	17.016	1045.173	785.117
405.380	17.010	1044.453	784.479
406.394	17.034	1043.427	783.750
407.409	16.970	1042.945	783.025
408.423	17.129	1041.923	782.922
409.438	17.006	1041.396	781.890
410.453	17.155	1040.945	782.169
411.467	17.170	1040.314	781.691
412.482	17.078	1039.416	780.524
413.496	17.305	1038.433	780.762
414.511	17.255	1038.296	780.360
415.526	17.276	1037.720	779.953
416.540	17.499	1036.958	780.336
417.555	17.377	1036.563	779.408
418.569	17.417	1036.133	779.202
419.584	17.315	1035.757	778.381
420.599	17.405	1035.332	778.405
421.613	104.563	1323.206	1475.243
422.628	95.844	1365.113	1475.314
