DTS Sentinel unit serial number:	SN413079Multiplexer serial number:	ORYXHardware model number:	OX4-SRSoftware version number:	ORYX F/W v4.00 Oryx Data Collector v3.7.2.0data status	okinstallation	princeton_trtdifferential loss correction	single-endedforward channel	channel 2reverse channel	N/Adate	2019/09/17time	07:23:34forward acquisition time	60.00reverse acquisition time	0.00gamma	496.2192k internal	0.2334k external	0.2334temperature offset calibration	0.9975default loss term (dB/km)	0.3790temperature slope calibration	1.0000multiplexer offset coefficient	1.0000multiplexer slope coefficient	1.0000fibre end	0.00T internal ref (°C)	27.20T ext. ref 1 (°C)	0.12T ext. ref 2 (°C)	21.48length (m)	temperature (°C)	Stokes	anti-Stokes-747.200	-152.364	0.194	-0.014
-746.185	-200.000	0.041	0.189
-745.171	434.728	0.148	0.324
-744.156	-74.259	-0.405	-0.147
-743.142	139.126	0.014	-0.018
-742.127	-200.000	0.006	0.070
-741.112	800.000	-0.105	0.431
-740.098	567.580	-0.057	0.140
-739.083	-200.000	0.025	0.140
-738.069	74.170	-0.111	-0.117
-737.054	780.437	0.077	-0.211
-736.039	-128.068	-0.236	0.034
-735.025	-83.226	-0.163	0.053
-734.010	-117.938	-0.208	-0.037
-732.996	112.644	-0.232	0.283
-731.981	-137.557	-0.335	0.038
-730.966	800.000	0.057	-0.220
-729.952	-163.851	-0.364	0.017
-728.937	-70.985	-0.328	-0.124
-727.923	-75.665	-0.103	-0.037
-726.908	118.996	0.036	0.045
-725.894	-58.035	-0.022	0.010
-724.879	-56.022	-0.166	0.074
-723.864	115.804	-0.149	0.184
-722.850	-200.000	0.028	-0.258
-721.835	546.527	-0.162	-0.389
-720.821	-96.898	-0.197	0.052
-719.806	72.118	-0.054	0.056
-718.791	-200.000	0.013	0.252
-717.777	800.000	-0.015	-0.054
-716.762	134.273	-0.097	0.127
-715.748	800.000	-0.046	-0.178
-714.733	23.082	0.242	0.199
-713.718	79.649	0.133	-0.143
-712.704	57.818	-0.163	-0.160
-711.689	-48.947	-0.118	0.057
-710.675	59.230	-0.129	0.127
-709.660	-99.564	-0.043	-0.011
-708.645	394.868	-0.032	-0.067
-707.631	-189.574	0.539	0.006
-706.616	34.026	-0.194	-0.170
-705.602	304.431	0.213	-0.397
-704.587	-95.277	-0.351	-0.095
-703.572	-30.059	0.043	0.024
-702.558	-15.391	-0.138	-0.088
-701.543	141.650	0.126	0.168
-700.529	651.197	-0.067	0.173
-699.514	156.014	-0.145	0.200
-698.499	26.066	0.149	0.125
-697.485	591.934	0.081	0.201
-696.470	39.413	-0.198	0.178
-695.456	-200.000	-0.048	-0.221
-694.441	-88.609	-0.076	-0.023
-693.426	241.251	-0.175	-0.293
-692.412	-200.000	0.032	0.282
-691.397	-86.535	-0.259	0.080
-690.383	74.219	-0.078	0.082
-689.368	-200.000	-0.080	-0.562
-688.354	227.074	-0.178	0.289
-687.339	321.232	-0.103	-0.196
-686.324	298.198	-0.171	-0.315
-685.310	-200.000	-0.053	-0.253
-684.295	-200.000	-0.054	0.246
-683.281	-22.820	0.239	-0.145
-682.266	-107.613	-0.219	0.048
-681.251	800.000	0.106	-0.345
-680.237	117.680	-0.152	-0.187
-679.222	170.504	-0.176	-0.253
-678.208	25.962	-0.150	0.126
-677.193	-200.000	-0.005	0.053
-676.178	236.020	0.096	-0.160
-675.164	191.984	0.077	-0.117
-674.149	-42.027	0.219	-0.113
-673.135	800.000	-0.113	-0.341
-672.120	52.220	-0.102	-0.098
-671.105	9.046	0.237	0.179
-670.091	507.211	0.120	-0.279
-669.076	181.380	-0.062	0.091
-668.062	-151.885	-0.310	0.023
-667.047	499.170	-0.171	-0.394
-666.032	-116.793	0.173	-0.032
-665.018	-104.890	0.311	-0.072
-664.003	-111.253	0.074	-0.015
-662.989	800.000	0.115	0.347
-661.974	-200.000	-0.102	-0.455
-660.959	316.749	0.113	0.213
-659.945	175.578	-0.134	-0.195
-658.930	127.748	-0.120	-0.153
-657.916	-99.142	0.089	-0.023
-656.901	800.000	-0.085	-0.331
-655.886	276.957	0.102	0.182
-654.872	242.002	0.108	-0.181
-653.857	325.577	0.124	-0.238
-652.843	13.050	0.121	0.094
-651.828	-200.000	-0.005	0.036
-650.814	143.955	-0.112	-0.149
-649.799	-161.602	-0.235	0.012
-648.784	-180.727	-0.277	0.006
-647.770	-70.421	-0.367	-0.139
-646.755	137.035	0.199	-0.261
-645.741	-140.712	-0.207	-0.021
-644.726	-0.373	0.123	-0.087
-643.711	-116.034	-0.182	0.034
-642.697	25.731	0.026	-0.022
-641.682	-52.716	0.150	0.069
-640.668	-103.112	-0.219	0.052
-639.653	383.144	-0.135	-0.278
-638.638	85.916	-0.173	-0.191
-637.624	88.993	-0.143	0.159
-636.609	-82.702	0.498	0.161
-635.595	18.282	-0.197	-0.158
-634.580	78.681	-0.218	-0.233
-633.565	-36.761	0.198	0.106
-632.551	-152.112	0.287	-0.021
-631.536	111.210	0.129	-0.156
-630.522	800.000	0.026	-0.101
-629.507	-200.000	-0.031	0.208
-628.492	39.664	0.152	-0.137
-627.478	-95.181	-0.123	0.033
-626.463	216.943	0.062	0.099
-625.449	-140.911	-0.115	-0.012
-624.434	-105.082	0.134	0.031
-623.419	800.000	-0.022	0.094
-622.405	-64.521	-0.054	0.022
-621.390	18.902	-0.058	0.047
-620.376	-200.000	0.022	0.168
-619.361	223.352	-0.074	-0.119
-618.346	114.928	0.058	0.071
-617.332	800.000	0.037	-0.144
-616.317	364.310	0.070	0.141
-615.303	302.677	-0.199	-0.368
-614.288	8.523	0.214	0.161
-613.273	-69.444	0.095	0.036
-612.259	282.576	-0.067	0.120
-611.244	-64.357	0.149	-0.061
-610.230	647.746	-0.076	0.195
-609.215	246.159	-0.104	-0.175
-608.201	-150.946	-0.036	0.003
-607.186	18.759	-0.113	-0.091
-606.171	-60.376	-0.318	-0.135
-605.157	800.000	0.062	0.178
-604.142	25.483	0.278	0.231
-603.128	800.000	0.056	-0.240
-602.113	800.000	-0.037	-0.110
-601.098	800.000	0.071	-0.207
-600.084	-76.891	-0.184	-0.064
-599.069	-200.000	-0.028	-0.123
-598.055	22.910	-0.112	-0.092
-597.040	-124.761	-0.354	0.055
-596.025	-79.146	0.228	-0.077
-595.011	373.168	-0.079	-0.161
-593.996	250.650	-0.178	-0.302
-592.982	-200.000	-0.014	0.104
-591.967	-200.000	0.035	0.207
-590.952	325.958	0.160	-0.305
-589.938	-200.000	0.023	-0.232
-588.923	274.137	0.072	-0.127
-587.909	-43.394	0.258	0.130
-586.894	30.174	0.297	0.253
-585.879	30.314	-0.127	0.108
-584.865	28.370	0.161	0.136
-583.850	294.730	-0.088	-0.160
-582.836	125.707	-0.070	0.088
-581.821	800.000	0.109	0.350
-580.806	800.000	-0.078	-0.222
-579.792	74.503	-0.131	-0.137
-578.777	-200.000	0.021	0.115
-577.763	-76.825	-0.255	0.089
-576.748	269.178	-0.113	-0.198
-575.733	32.962	-0.095	0.082
-574.719	187.418	0.116	0.173
-573.704	-63.224	-0.071	-0.029
-572.690	23.630	0.225	0.185
-571.675	170.300	-0.154	0.220
-570.661	-76.839	-0.268	0.094
-569.646	86.605	-0.087	0.096
-568.631	628.975	-0.053	-0.133
-567.617	104.448	0.130	0.153
-566.602	442.278	-0.018	-0.038
-565.588	-135.946	0.255	-0.030
-564.573	-25.952	-0.238	-0.140
-563.558	140.941	0.041	0.054
-562.544	-38.701	-0.067	-0.035
-561.529	4.486	0.158	-0.116
-560.515	-163.182	-0.081	0.004
-559.500	-167.026	-0.167	-0.007
-558.485	60.989	-0.222	-0.220
-557.471	361.953	0.062	0.124
-556.456	-130.921	0.165	0.022
-555.442	-75.236	-0.418	-0.149
-554.427	458.849	0.067	-0.149
-553.412	-200.000	0.008	-0.157
-552.398	606.296	0.122	-0.304
-551.383	42.566	-0.075	0.068
-550.369	-34.463	0.471	-0.257
-549.354	800.000	-0.083	0.237
-548.339	-53.271	0.177	-0.081
-547.325	68.983	-0.170	0.175
-546.310	-76.016	-0.022	0.008
-545.296	223.575	-0.161	0.259
-544.281	-106.982	0.215	-0.047
-543.266	-200.000	-0.028	-0.152
-542.252	800.000	-0.075	0.253
-541.237	-200.000	0.010	0.278
-540.223	410.936	-0.086	-0.182
-539.208	229.121	0.142	-0.231
-538.193	180.589	0.068	-0.099
-537.179	338.624	-0.069	0.133
-536.164	722.351	-0.037	-0.098
-535.150	-49.535	-0.154	-0.073
-534.135	-200.000	0.051	0.298
-533.121	-104.111	-0.190	-0.044
-532.106	-88.600	0.184	0.055
-531.091	415.442	0.131	0.277
-530.077	4.438	0.448	0.328
-529.062	418.041	-0.156	0.332
-528.048	800.000	0.116	-0.337
-527.033	-108.012	-0.320	0.069
-526.018	-200.000	-0.006	0.081
-525.004	800.000	-0.088	-0.285
-523.989	-31.001	0.216	0.121
-522.975	-200.000	0.015	0.120
-521.960	-88.200	-0.140	-0.042
-520.945	112.691	-0.168	-0.203
-519.931	79.873	0.155	0.166
-518.916	49.436	0.316	0.296
-517.902	-69.574	-0.369	0.141
-516.887	-200.000	0.017	0.260
-515.872	142.348	0.034	0.045
-514.858	-87.400	-0.151	0.046
-513.843	800.000	0.053	0.190
-512.829	576.891	-0.099	-0.242
-511.814	800.000	0.130	0.497
-510.799	420.202	0.108	-0.231
-509.785	59.987	-0.241	0.237
-508.770	-126.989	-0.339	-0.050
-507.756	143.145	0.184	0.244
-506.741	-93.530	-0.252	0.069
-505.726	800.000	-0.032	-0.103
-504.712	258.972	-0.084	-0.145
-503.697	-133.629	-0.090	-0.011
-502.683	-145.071	-0.252	-0.023
-501.668	87.624	-0.108	-0.119
-500.653	800.000	0.112	0.315
-499.639	76.523	-0.163	0.172
-498.624	-75.708	0.094	-0.033
-497.610	-30.434	0.202	0.114
-496.595	-56.155	0.264	0.117
-495.581	-67.061	-0.154	0.060
-494.566	-78.764	-0.274	-0.093
-493.551	45.498	0.093	-0.086
-492.537	-114.338	-0.405	-0.078
-491.522	-36.554	-0.354	0.190
-490.508	273.255	-0.121	0.213
-489.493	-200.000	-0.040	0.224
-488.478	23.642	0.246	-0.201
-487.464	48.943	-0.070	0.065
-486.449	-200.000	-0.063	-0.307
-485.435	-141.085	0.090	-0.009
-484.420	79.746	-0.094	0.101
-483.405	-80.295	-0.256	0.085
-482.391	-103.199	0.137	-0.032
-481.376	2.131	0.261	-0.188
-480.362	289.894	0.082	0.148
-479.347	104.288	0.186	-0.218
-478.332	-29.051	-0.170	-0.097
-477.318	-45.903	-0.243	0.119
-476.303	-200.000	0.057	-0.290
-475.289	174.933	0.118	-0.169
-474.274	-100.946	-0.048	-0.012
-473.259	-74.397	-0.288	-0.103
-472.245	122.710	0.178	0.221
-471.230	-182.564	0.120	-0.002
-470.216	-200.000	-0.014	0.199
-469.201	800.000	0.102	-0.399
-468.186	225.587	-0.203	-0.327
-467.172	800.000	0.051	-0.139
-466.157	-28.392	0.422	0.242
-465.143	-66.532	-0.397	-0.157
-464.128	-132.881	0.301	-0.038
-463.113	186.937	-0.066	-0.098
-462.099	-16.985	-0.269	0.169
-461.084	0.365	-0.165	0.117
-460.070	709.349	-0.097	-0.255
-459.055	83.291	-0.189	0.204
-458.040	-154.933	-0.182	0.012
-457.026	-167.742	-0.222	-0.009
-456.011	-87.601	-0.316	0.095
-454.997	-127.044	-0.201	0.029
-453.982	193.249	0.219	-0.329
-452.968	21.636	-0.255	0.206
-451.953	-73.675	-0.247	-0.090
-450.938	162.568	0.045	0.063
-449.924	-75.550	0.149	0.053
-448.909	-31.873	-0.221	-0.123
-447.895	-200.000	0.027	-0.221
-446.880	59.993	-0.089	0.088
-445.865	-200.000	-0.043	-0.321
-444.851	10.482	0.314	0.237
-443.836	-117.577	0.262	0.047
-442.822	-52.311	0.197	0.091
-441.807	-105.406	-0.165	0.037
-440.792	527.648	-0.118	-0.276
-439.778	-92.749	-0.218	0.061
-438.763	800.000	-0.149	-0.462
-437.749	-25.486	0.150	0.088
-436.734	77.877	0.190	-0.201
-435.719	800.000	-0.035	0.102
-434.705	-109.650	-0.229	0.048
-433.690	53.843	0.053	-0.051
-432.676	189.729	0.141	-0.210
-431.661	-42.229	0.267	-0.135
-430.646	-14.152	0.173	-0.111
-429.632	-113.935	0.335	-0.065
-428.617	325.958	0.102	0.195
-427.603	0.354	-0.156	0.111
-426.588	-120.807	-0.227	-0.038
-425.573	-200.000	-0.004	0.049
-424.559	-86.632	0.187	-0.057
-423.544	-52.073	0.184	0.085
-422.530	-6.391	-0.242	0.164
-421.515	-45.670	-0.246	-0.121
-420.500	-124.886	0.195	-0.030
-419.486	-80.295	-0.297	0.099
-418.471	-121.757	0.102	0.017
-417.457	-200.000	-0.001	-0.062
-416.442	-200.000	-0.074	0.341
-415.428	118.771	-0.246	-0.302
-414.413	-68.051	-0.232	-0.090
-413.398	-200.000	0.052	0.301
-412.384	-130.893	0.086	0.011
-411.369	111.439	-0.203	-0.242
-410.355	467.775	-0.038	-0.084
-409.340	274.946	0.175	0.307
-408.325	-78.885	0.120	0.041
-407.311	800.000	-0.046	-0.178
-406.296	26.222	0.194	0.161
-405.282	-16.808	-0.185	0.116
-404.267	42.017	-0.442	-0.398
-403.252	-23.237	-0.090	-0.054
-402.238	-126.727	-0.100	-0.015
-401.223	676.050	-0.112	0.288
-400.209	131.721	0.056	0.072
-399.194	-10.655	-0.216	-0.142
-398.179	85.773	0.209	-0.228
-397.165	24.164	-0.205	-0.168
-396.150	-104.442	-0.021	-0.005
-395.136	77.150	0.206	-0.217
-394.121	-75.360	-0.108	-0.038
-393.106	-63.059	0.425	0.174
-392.092	-48.266	0.116	-0.055
-391.077	800.000	-0.035	0.146
-390.063	-200.000	0.016	0.222
-389.048	101.459	0.050	-0.058
-388.033	144.982	-0.186	-0.247
-387.019	-3.783	-0.087	0.060
-386.004	-25.224	0.125	0.074
-384.990	29.926	0.097	0.082
-383.975	192.461	-0.047	-0.070
-382.960	-114.754	-0.158	0.030
-381.946	800.000	-0.030	0.096
-380.931	-200.000	-0.040	-0.241
-379.917	-90.840	-0.265	0.076
-378.902	744.170	0.185	-0.493
-377.888	218.132	-0.046	-0.073
-376.873	321.405	-0.095	0.179
-375.858	-145.401	-0.043	-0.004
-374.844	363.561	0.124	0.246
-373.829	290.305	-0.140	-0.251
-372.815	22.751	-0.081	0.065
-371.800	372.028	0.065	0.131
-370.785	-163.130	0.270	-0.013
-369.771	-200.000	-0.000	-0.111
-368.756	133.762	0.077	-0.098
-367.742	-62.199	-0.029	0.012
-366.727	32.995	-0.189	0.162
-365.712	800.000	-0.090	0.355
-364.698	-131.409	0.044	0.006
-363.683	-140.411	0.232	-0.024
-362.669	-132.147	-0.231	-0.030
-361.654	336.641	-0.135	0.260
-360.639	-54.167	0.262	-0.118
-359.625	2.889	0.113	-0.081
-358.610	-200.000	-0.024	0.157
-357.596	-200.000	-0.007	0.031
-356.581	-29.926	0.178	0.100
-355.566	97.829	0.087	-0.099
-354.552	47.853	0.095	-0.088
-353.537	455.029	-0.165	0.363
-352.523	-107.836	0.196	-0.042
-351.508	23.072	0.163	-0.133
-350.493	-5.504	-0.182	0.124
-349.479	800.000	-0.021	-0.087
-348.464	575.049	0.096	-0.231
-347.450	-119.379	-0.336	0.058
-346.435	-64.800	0.157	0.063
-345.420	-172.672	-0.118	-0.004
-344.406	-200.000	-0.017	-0.103
-343.391	-106.370	0.168	0.037
-342.377	54.625	0.153	-0.146
-341.362	-117.398	0.343	0.061
-340.348	285.023	-0.106	-0.189
-339.333	-200.000	-0.007	-0.031
-338.318	-70.545	-0.107	0.040
-337.304	183.851	0.039	0.057
-336.289	-119.780	-0.118	0.020
-335.275	-68.534	-0.053	0.020
-334.260	302.321	0.049	-0.090
-333.245	-128.122	-0.165	-0.023
-332.231	-118.055	0.100	-0.018
-331.216	67.719	-0.116	-0.118
-330.202	56.628	0.088	-0.085
-329.187	-112.354	0.288	-0.057
-328.172	0.650	0.458	0.324
-327.158	701.438	-0.070	0.183
-326.143	214.256	0.150	-0.234
-325.129	-200.000	-0.035	-0.156
-324.114	800.000	0.026	0.109
-323.099	-200.000	0.037	0.406
-322.085	85.324	0.097	0.106
-321.070	800.000	-0.005	-0.018
-320.056	7.953	0.275	-0.204
-319.041	-47.095	0.076	0.037
-318.026	-200.000	0.003	0.033
-317.012	-77.507	0.305	-0.105
-315.997	157.298	0.161	-0.220
-314.983	-145.832	-0.246	-0.022
-313.968	-200.000	-0.016	0.109
-312.953	800.000	-0.104	-0.289
-311.939	88.510	0.067	-0.074
-310.924	-112.483	0.198	-0.039
-309.910	-200.000	0.031	-0.195
-308.895	-128.928	-0.088	-0.012
-307.880	37.154	0.066	0.058
-306.866	-38.136	-0.262	0.137
-305.851	-112.473	-0.018	-0.004
-304.837	76.439	0.046	0.048
-303.822	334.714	-0.109	0.208
-302.807	184.950	0.103	-0.151
-301.793	21.196	0.265	-0.213
-300.778	180.249	-0.089	0.129
-299.764	68.597	-0.117	0.119
-298.749	-119.253	-0.072	-0.012
-297.735	800.000	-0.101	0.309
-296.720	770.181	-0.075	0.202
-295.705	-200.000	0.006	-0.128
-294.691	-95.159	0.355	0.095
-293.676	85.958	0.212	0.230
-292.662	352.005	-0.218	-0.426
-291.647	11.325	-0.248	-0.188
-290.632	-200.000	0.014	-0.358
-289.618	800.000	-0.099	0.383
-288.603	150.012	-0.053	0.071
-287.589	101.799	-0.287	0.330
-286.574	-22.033	-0.115	-0.069
-285.559	-105.726	0.155	0.035
-284.545	-111.741	0.146	0.029
-283.530	-200.000	-0.014	-0.174
-282.516	-25.459	0.154	-0.090
-281.501	-30.846	-0.310	-0.173
-280.486	426.488	-0.179	0.381
-279.472	22.992	0.165	-0.133
-278.457	211.612	0.118	-0.184
-277.443	-117.961	-0.107	0.019
-276.428	145.674	0.082	-0.109
-275.413	510.041	-0.061	0.139
-274.399	482.785	-0.038	-0.085
-273.384	41.284	-0.043	-0.038
-272.370	-200.000	0.053	-0.344
-271.355	800.000	0.023	-0.070
-270.340	800.000	0.060	0.195
-269.326	800.000	-0.082	-0.285
-268.311	-36.702	0.301	0.159
-267.297	-3.101	0.115	0.079
-266.282	-46.051	-0.417	0.203
-265.267	70.369	-0.085	-0.086
-264.253	3.988	0.130	0.094
-263.238	384.231	0.031	0.063
-262.224	800.000	-0.136	0.378
-261.209	-200.000	0.035	-0.206
-260.195	585.451	-0.101	-0.244
-259.180	-142.043	0.041	-0.004
-258.165	-200.000	0.122	-0.000
-257.151	87.287	-0.171	0.186
-256.136	-200.000	0.025	0.166
-255.122	112.331	-0.137	0.164
-254.107	184.020	0.177	0.259
-253.092	-200.000	-0.014	0.276
-252.078	127.736	0.229	-0.287
-251.063	-99.323	0.247	0.061
-250.049	25.365	-0.100	0.082
-249.034	-200.000	0.002	0.101
-248.019	-90.072	0.144	0.041
-247.005	175.960	0.149	-0.213
-245.990	-47.858	-0.085	0.040
-244.976	11.587	0.037	0.028
-243.961	-62.498	0.075	0.031
-242.946	103.450	-0.220	0.255
-241.932	91.112	-0.164	0.181
-240.917	800.000	0.017	0.065
-239.903	-28.828	-0.202	0.114
-238.888	-41.933	0.323	-0.163
-237.873	314.410	0.039	-0.071
-236.859	-110.780	0.348	-0.071
-235.844	-158.379	-0.195	0.011
-234.830	-144.893	0.305	0.027
-233.815	637.486	0.052	-0.130
-232.800	-200.000	0.005	-0.152
-231.786	-89.017	-0.280	-0.082
-230.771	-140.314	-0.037	-0.004
-229.757	-105.704	0.232	-0.052
-228.742	-133.936	0.250	-0.031
-227.727	-2.788	0.269	0.185
-226.713	32.498	-0.177	-0.151
-225.698	-111.181	0.197	0.040
-224.684	-200.000	0.071	-0.335
-223.669	-35.528	0.149	-0.080
-222.655	-200.000	-0.024	0.396
-221.640	-135.953	-0.169	-0.020
-220.625	-200.000	0.051	0.228
-219.611	29.265	0.277	-0.232
-218.596	81.892	-0.177	-0.188
-217.582	-52.103	-0.241	0.110
-216.567	-39.649	0.250	0.129
-215.552	491.540	0.210	-0.474
-214.538	800.000	-0.045	0.130
-213.523	114.002	0.260	-0.312
-212.509	800.000	-0.033	0.093
-211.494	-94.397	-0.112	-0.030
-210.479	-6.929	-0.188	-0.126
-209.465	-17.768	0.185	-0.115
-208.450	-83.414	-0.131	-0.041
-207.436	658.680	-0.101	-0.256
-206.421	-196.378	0.084	-0.001
-205.406	35.765	0.186	0.161
-204.392	513.755	0.162	-0.373
-203.377	126.600	-0.142	0.176
-202.363	110.024	0.174	0.205
-201.348	-114.645	0.234	-0.044
-200.333	800.000	-0.056	0.198
-199.319	-55.666	0.165	0.073
-198.304	-64.534	-0.210	-0.084
-197.290	169.540	0.115	-0.162
-196.275	-200.000	0.025	0.127
-195.260	-138.393	0.145	0.016
-194.246	-107.606	0.247	-0.053
-193.231	218.295	-0.132	0.208
-192.217	-130.645	-0.222	0.029
-191.202	-129.571	0.316	-0.043
-190.187	-28.749	-0.181	-0.103
-189.173	498.898	-0.068	0.155
-188.158	-98.613	0.275	0.069
-187.144	800.000	-0.043	-0.165
-186.129	44.644	0.182	-0.164
-185.114	-52.832	0.226	0.103
-184.100	-200.000	-0.012	-0.184
-183.085	61.240	-0.081	-0.079
-182.071	800.000	-0.054	-0.202
-181.056	495.997	0.024	0.054
-180.042	348.843	0.077	0.150
-179.027	-152.387	-0.042	0.003
-178.012	-39.766	0.157	-0.081
-176.998	330.161	0.081	-0.153
-175.983	108.419	0.254	-0.298
-174.969	4.765	0.186	0.134
-173.954	28.540	0.121	0.101
-172.939	-200.000	0.029	0.211
-171.925	-56.011	0.044	-0.019
-170.910	48.717	0.254	0.234
-169.896	-50.067	-0.240	-0.112
-168.881	-47.381	0.085	0.041
-167.866	-33.290	-0.409	0.222
-166.852	29.293	0.335	0.279
-165.837	-7.997	-0.206	0.137
-164.823	-88.876	-0.072	-0.021
-163.808	-174.877	0.291	0.008
-162.793	-200.000	0.017	0.444
-161.779	-161.158	0.270	0.014
-160.764	-68.804	-0.435	0.165
-159.750	-31.003	-0.265	-0.147
-158.735	-138.071	0.190	0.021
-157.720	-42.656	-0.090	-0.045
-156.706	800.000	-0.089	0.295
-155.691	-16.849	-0.105	0.065
-154.677	299.119	-0.133	0.241
-153.662	83.996	0.140	-0.150
-152.647	133.980	0.182	-0.232
-151.633	-14.377	0.166	0.105
-150.618	-200.000	0.021	-0.345
-149.604	800.000	0.030	-0.120
-148.589	-200.000	-0.025	-0.151
-147.574	392.431	0.049	0.100
-146.560	-200.000	0.009	0.037
-145.545	-40.586	-0.189	-0.097
-144.531	-98.778	-0.149	-0.037
-143.516	120.392	0.013	0.016
-142.502	-87.734	-0.317	-0.094
-141.487	-200.000	0.011	0.241
-140.472	370.757	0.228	0.453
-139.458	-200.000	0.019	0.176
-138.443	-200.000	0.072	0.309
-137.429	389.535	0.178	0.361
-136.414	800.000	-0.055	-0.214
-135.399	248.109	0.122	0.203
-134.385	-169.568	-0.182	-0.006
-133.370	-125.007	0.101	-0.015
-132.356	-117.387	-0.089	-0.016
-131.341	161.179	-0.042	0.058
-130.326	-36.091	0.157	-0.083
-129.312	10.655	0.054	-0.041
-128.297	-200.000	-0.014	0.482
-127.283	-153.561	0.348	0.024
-126.268	-137.241	0.334	-0.037
-125.253	532.455	-0.088	-0.205
-124.239	32.970	-0.142	-0.121
-123.224	-47.092	-0.149	-0.071
-122.210	-69.372	0.215	-0.081
-121.195	494.293	0.112	0.253
-120.180	-51.249	-0.249	-0.114
-119.166	-152.609	0.152	-0.011
-118.151	229.516	0.126	-0.201
-117.137	-76.440	0.310	-0.107
-116.122	-200.000	-0.192	0.000
-115.107	362.466	0.163	-0.321
-114.093	-150.584	-0.162	-0.012
-113.078	119.856	0.124	0.151
-112.064	-19.733	-0.200	-0.121
-111.049	800.000	0.042	-0.138
-110.034	-119.429	0.171	0.029
-109.020	-200.000	0.001	-0.107
-108.005	-90.445	-0.141	-0.040
-106.991	348.391	0.050	0.096
-105.976	800.000	0.038	-0.105
-104.962	-92.132	0.216	-0.060
-103.947	-27.016	-0.157	0.090
-102.932	-54.555	0.235	-0.104
-101.918	-200.000	-0.003	-0.050
-100.903	-170.613	-0.197	0.007
-99.889	10.570	-0.261	0.195
-98.874	30.997	0.182	0.153
-97.859	105.170	0.091	0.106
-96.845	-116.486	0.373	-0.067
-95.830	-33.420	-0.248	0.135
-94.816	84.055	0.174	-0.186
-93.801	361.992	0.134	0.263
-92.786	233.073	-0.044	-0.072
-91.772	-79.160	-0.100	0.033
-90.757	-118.933	0.130	-0.022
-89.743	-200.000	-0.015	-0.175
-88.728	800.000	0.059	0.181
-87.713	180.225	0.073	-0.105
-86.699	197.847	0.299	0.448
-85.684	-200.000	0.025	0.154
-84.670	-200.000	-0.247	0.001
-83.655	-46.988	-0.301	-0.144
-82.640	-200.000	0.001	-0.408
-81.626	-154.017	-0.116	0.008
-80.611	-200.000	-0.011	-0.265
-79.597	-85.341	-0.512	0.156
-78.582	175.614	-0.050	0.071
-77.567	-104.691	-0.161	0.036
-76.553	-200.000	0.001	0.167
-75.538	5.281	-0.192	0.138
-74.524	312.298	-0.120	-0.220
-73.509	-200.000	-0.019	0.158
-72.494	257.951	0.072	0.122
-71.480	531.119	-0.115	0.267
-70.465	-73.469	0.171	-0.061
-69.451	-106.671	-0.121	-0.026
-68.436	-15.115	-0.256	-0.160
-67.422	-72.696	-0.492	0.178
-66.407	-183.369	0.094	-0.002
-65.392	123.796	0.076	0.094
-64.378	-200.000	0.005	0.063
-63.363	49.868	0.181	0.167
-62.349	-200.000	-0.227	-0.001
-61.334	347.818	-0.760	-1.466
-60.319	39.860	0.557	0.489
-59.305	792.198	-0.377	-1.016
-58.290	403.077	0.648	1.334
-57.276	124.587	1.149	1.415
-56.261	-200.000	115.121	646.724
-55.246	469.869	1509.303	3317.998
-54.232	146.934	2680.050	3525.820
-53.217	96.457	2285.284	2558.467
-52.203	36.178	1896.565	1634.432
-51.188	30.358	1687.788	1410.396
-50.173	27.896	1646.564	1357.614
-49.159	49.486	1701.377	1566.338
-48.144	47.939	1715.639	1567.740
-47.130	29.950	1674.553	1396.035
-46.115	27.238	1660.122	1363.645
-45.100	27.055	1655.209	1358.191
-44.086	27.062	1652.541	1355.996
-43.071	27.155	1649.601	1354.222
-42.057	27.059	1647.593	1351.806
-41.042	27.073	1645.649	1350.259
-40.027	27.080	1643.726	1348.679
-39.013	27.027	1641.704	1346.578
-37.998	27.011	1640.209	1345.180
-36.984	27.029	1638.730	1344.049
-35.969	27.176	1637.139	1343.773
-34.954	27.229	1635.958	1343.147
-33.940	27.230	1633.926	1341.432
-32.925	27.228	1631.943	1339.736
-31.911	27.160	1630.578	1338.059
-30.896	27.220	1628.792	1336.981
-29.881	27.104	1627.254	1334.815
-28.867	27.188	1625.360	1333.826
-27.852	27.173	1624.372	1332.849
-26.838	27.194	1622.478	1331.394
-25.823	27.263	1621.114	1330.732
-24.809	27.222	1620.447	1329.830
-23.794	27.167	1618.700	1327.940
-22.779	27.139	1617.262	1326.507
-21.765	27.221	1615.357	1325.489
-20.750	27.247	1613.720	1324.282
-19.736	27.262	1612.465	1323.304
-18.721	27.264	1610.818	1321.920
-17.706	27.230	1609.800	1320.781
-16.692	27.316	1608.064	1319.929
-15.677	27.168	1607.177	1318.074
-14.663	27.400	1605.589	1318.402
-13.648	27.255	1604.134	1316.107
-12.633	27.261	1602.637	1314.867
-11.619	27.221	1601.173	1313.328
-10.604	27.337	1599.216	1312.506
-9.590	27.244	1598.243	1310.985
-8.575	27.221	1597.708	1310.325
-7.560	27.256	1595.659	1308.848
-6.546	27.204	1595.024	1307.899
-5.531	27.273	1593.669	1307.235
-4.517	27.181	1592.612	1305.652
-3.502	27.176	1591.625	1304.755
-2.487	27.310	1589.758	1304.135
-1.473	26.930	1577.985	1291.723
-0.458	23.974	1558.519	1254.923
0.556	18.525	1559.705	1222.154
1.571	16.168	1583.052	1223.264
2.586	15.828	1595.509	1230.297
3.600	14.529	1542.409	1180.062
4.615	8.049	1434.981	1054.994
5.629	1.507	1373.384	968.060
6.644	0.244	1365.651	954.530
7.659	0.120	1364.544	952.882
8.673	0.097	1363.229	951.732
9.688	-0.000	1361.363	949.734
10.702	-0.097	1358.360	946.948
11.717	3.104	1363.418	970.610
12.731	10.895	1374.921	1028.140
13.746	16.374	1382.783	1068.683
14.761	17.131	1382.708	1073.315
15.775	16.248	1380.220	1065.714
16.790	15.145	1378.250	1057.144
17.804	14.407	1375.288	1050.131
18.819	13.997	1374.239	1046.655
19.834	13.864	1372.711	1044.562
20.848	13.475	1372.142	1041.586
21.863	13.316	1370.402	1039.175
22.877	13.213	1369.176	1037.507
23.892	13.105	1368.526	1036.247
24.907	13.186	1367.312	1035.743
25.921	13.163	1366.557	1034.935
26.936	13.173	1365.626	1034.201
27.950	13.333	1364.369	1034.158
28.965	13.309	1363.728	1033.430
29.980	13.314	1362.998	1032.819
30.994	13.360	1361.935	1032.210
32.009	13.488	1360.882	1032.118
33.023	13.365	1360.097	1030.662
34.038	13.357	1358.676	1029.449
35.053	13.268	1357.758	1028.107
36.067	13.294	1356.817	1027.467
37.082	13.385	1355.461	1026.913
38.096	13.314	1355.120	1026.123
39.111	13.301	1353.978	1025.088
40.126	13.223	1353.002	1023.773
41.140	13.121	1352.564	1022.720
42.155	13.145	1352.467	1022.705
43.169	13.144	1351.661	1021.997
44.184	13.144	1351.302	1021.635
45.199	13.152	1351.035	1021.395
46.213	13.249	1350.454	1021.462
47.228	13.299	1349.384	1020.872
48.242	13.226	1348.395	1019.582
49.257	13.276	1346.342	1018.251
50.271	13.240	1345.389	1017.218
51.286	13.264	1344.338	1016.480
52.301	13.307	1342.492	1015.259
53.315	13.188	1342.002	1014.064
54.330	13.176	1340.652	1012.886
55.344	13.113	1339.828	1011.785
56.359	13.165	1338.883	1011.299
57.374	13.141	1337.479	1010.004
58.388	13.138	1336.317	1009.016
59.403	13.039	1336.629	1008.562
60.417	13.098	1336.099	1008.431
61.432	13.049	1335.158	1007.335
62.447	13.063	1333.578	1006.136
63.461	13.057	1332.598	1005.274
64.476	13.036	1331.732	1004.400
65.490	13.022	1330.091	1002.992
66.505	13.063	1328.853	1002.215
67.520	13.095	1327.877	1001.587
68.534	13.085	1326.579	1000.457
69.549	13.064	1325.721	999.597
70.563	13.084	1324.463	998.680
71.578	13.166	1323.287	998.199
72.593	12.900	1322.417	995.849
73.607	12.981	1321.438	995.515
74.622	13.007	1320.903	995.177
75.636	13.019	1319.466	994.081
76.651	13.039	1319.322	994.000
77.666	13.058	1318.652	993.524
78.680	13.026	1317.831	992.623
79.695	13.027	1317.147	992.031
80.709	13.073	1316.320	991.594
81.724	13.201	1315.672	991.786
82.739	13.187	1314.717	990.893
83.753	13.091	1314.231	989.864
84.768	13.370	1312.101	989.846
85.782	13.325	1311.558	989.079
86.797	13.258	1310.395	987.712
87.812	13.118	1309.200	985.890
88.826	13.320	1307.680	985.859
89.841	13.135	1307.115	984.247
90.855	13.292	1306.088	984.321
91.870	13.295	1305.139	983.536
92.884	13.411	1303.751	983.089
93.899	13.374	1303.691	982.742
94.914	13.538	1302.458	982.694
95.928	13.433	1301.624	981.358
96.943	13.411	1300.694	980.440
97.957	13.312	1299.859	979.136
98.972	13.343	1298.856	978.475
99.987	13.305	1297.941	977.475
101.001	13.282	1296.915	976.484
102.016	13.160	1296.332	975.236
103.030	13.283	1295.095	974.948
104.045	13.360	1294.012	974.499
105.060	13.334	1292.619	973.210
106.074	13.255	1291.477	971.799
107.089	13.108	1290.542	970.147
108.103	13.143	1289.100	969.179
109.118	13.107	1288.333	968.307
110.133	13.071	1286.592	966.705
111.147	13.140	1285.695	966.345
112.162	13.119	1284.105	964.941
113.176	13.247	1282.840	964.652
114.191	13.379	1281.658	964.449
115.206	13.287	1280.669	963.085
116.220	13.299	1279.332	962.066
117.235	13.173	1278.644	960.729
118.249	13.158	1277.782	959.911
119.264	13.221	1276.316	959.091
120.279	13.145	1275.573	958.002
121.293	13.128	1274.570	957.065
122.308	13.157	1273.685	956.484
123.322	13.157	1272.544	955.544
124.337	13.175	1271.262	954.600
125.352	13.147	1270.221	953.573
126.366	13.158	1269.515	953.025
127.381	13.203	1268.461	952.406
128.395	13.187	1267.323	951.378
129.410	13.136	1266.619	950.472
130.424	13.209	1265.809	950.198
131.439	13.191	1264.494	949.021
132.454	13.133	1263.872	948.141
133.468	13.238	1262.991	947.999
134.483	13.269	1261.978	947.332
135.497	13.306	1261.274	946.929
136.512	13.259	1259.607	945.323
137.527	13.283	1258.563	944.597
138.541	13.217	1257.118	943.051
139.556	13.249	1255.515	941.946
140.570	13.323	1254.600	941.598
141.585	13.377	1253.222	940.791
142.600	13.417	1252.245	940.199
143.614	13.338	1251.574	939.164
144.629	13.462	1250.175	938.733
145.643	13.443	1249.038	937.691
146.658	13.278	1248.093	935.962
147.673	13.379	1246.549	935.295
148.687	13.284	1245.783	934.102
149.702	13.338	1243.907	932.915
150.716	13.322	1242.643	931.794
151.731	13.391	1241.287	931.082
152.746	13.363	1240.380	930.161
153.760	13.369	1239.556	929.498
154.775	13.410	1238.290	928.692
155.789	13.356	1237.361	927.616
156.804	13.454	1236.165	927.183
157.819	13.422	1235.096	926.123
158.833	13.584	1233.852	926.011
159.848	13.633	1233.276	925.772
160.862	13.569	1232.418	924.690
161.877	13.539	1231.059	923.419
162.892	13.519	1229.905	922.363
163.906	13.431	1229.411	921.421
164.921	13.373	1228.575	920.386
165.935	13.466	1227.443	919.974
166.950	13.540	1226.773	919.802
167.964	13.548	1226.186	919.327
168.979	13.646	1225.115	918.987
169.994	13.539	1224.385	917.764
171.008	13.620	1223.457	917.435
172.023	13.648	1222.353	916.679
173.037	13.668	1222.059	916.490
174.052	13.749	1220.974	916.044
175.067	13.574	1220.258	914.456
176.081	13.528	1218.987	913.169
177.096	13.580	1218.057	912.679
178.110	13.536	1217.272	911.767
179.125	13.580	1215.969	910.957
180.140	13.705	1214.604	910.538
181.154	13.625	1213.416	909.129
182.169	13.736	1211.976	908.578
183.183	13.729	1211.350	907.988
184.198	13.750	1209.842	906.889
185.213	13.860	1208.662	906.529
186.227	13.789	1207.710	905.347
187.242	13.948	1206.206	905.008
188.256	13.837	1205.655	903.906
189.271	13.957	1204.675	903.748
190.286	13.718	1203.687	901.627
191.300	13.597	1202.893	900.293
192.315	13.731	1202.326	900.514
193.329	13.673	1201.404	899.430
194.344	13.760	1200.771	899.351
195.359	13.681	1200.683	898.779
196.373	13.802	1200.099	898.917
197.388	13.842	1199.717	898.767
198.402	13.967	1198.965	898.800
199.417	14.074	1197.744	898.381
200.432	14.070	1197.150	897.835
201.446	14.088	1196.220	897.156
202.461	14.025	1195.245	896.006
203.475	14.087	1194.384	895.614
204.490	13.994	1193.369	894.273
205.504	13.987	1192.291	893.351
206.519	14.008	1191.119	892.508
207.534	13.997	1189.983	891.514
208.548	13.976	1189.043	890.619
209.563	14.043	1188.270	890.322
210.577	14.128	1187.009	889.751
211.592	14.141	1186.252	889.177
212.607	14.071	1185.946	888.496
213.621	14.132	1184.828	887.902
214.636	14.270	1183.487	887.556
215.650	14.090	1183.103	886.232
216.665	14.224	1182.013	886.048
217.680	14.281	1181.329	885.760
218.694	14.250	1180.336	884.776
219.709	14.229	1179.774	884.164
220.723	14.205	1179.206	883.532
221.738	14.237	1178.362	882.993
222.753	14.301	1177.079	882.289
223.767	14.217	1176.619	881.423
224.782	14.407	1175.835	881.762
225.796	14.313	1175.448	880.899
226.811	14.358	1174.601	880.421
227.826	14.361	1173.996	879.909
228.840	14.255	1173.135	878.624
229.855	14.340	1172.377	878.427
230.869	14.352	1171.588	877.820
231.884	14.340	1171.048	877.275
232.899	14.335	1169.854	876.275
233.913	14.276	1169.498	875.621
234.928	14.356	1168.401	875.142
235.942	14.266	1168.137	874.399
236.957	14.346	1167.031	873.912
237.972	14.264	1166.807	873.234
238.986	14.307	1166.133	872.882
240.001	14.438	1164.892	872.557
241.015	14.508	1164.079	872.236
242.030	14.548	1162.852	871.452
243.045	14.467	1162.282	870.521
244.059	14.429	1161.894	869.960
245.074	14.516	1160.764	869.491
246.088	14.536	1160.204	869.096
247.103	14.608	1159.632	868.963
248.117	14.557	1159.067	868.202
249.132	14.743	1158.080	868.351
250.147	14.698	1157.522	867.620
251.161	14.676	1156.796	866.887
252.176	14.816	1156.054	866.979
253.190	14.776	1155.474	866.260
254.205	14.844	1154.945	866.142
255.220	14.883	1154.584	865.994
256.234	14.854	1153.573	865.012
257.249	14.892	1152.625	864.419
258.263	14.806	1152.250	863.618
259.278	14.904	1151.544	863.518
260.293	14.869	1150.823	862.720
261.307	15.065	1150.172	863.166
262.322	14.916	1149.722	861.982
263.336	14.967	1148.954	861.593
264.351	14.989	1148.744	861.476
265.366	15.056	1147.902	861.114
266.380	15.059	1146.854	860.264
267.395	15.105	1146.301	860.008
268.409	15.041	1145.680	859.137
269.424	15.031	1144.630	858.223
270.439	15.033	1144.316	857.925
271.453	15.010	1143.811	857.352
272.468	15.081	1142.537	856.683
273.482	15.010	1141.775	855.671
274.497	15.085	1141.303	855.626
275.512	15.145	1140.516	855.269
276.526	15.087	1140.006	854.513
277.541	15.030	1139.286	853.608
278.555	15.213	1138.586	853.938
279.570	15.134	1138.084	853.086
280.585	15.296	1137.000	853.021
281.599	15.224	1136.026	851.850
282.614	15.303	1135.069	851.457
283.628	15.251	1134.103	850.393
284.643	15.207	1133.027	849.292
285.657	15.257	1132.398	848.995
286.672	15.305	1131.085	848.180
287.687	15.331	1130.164	847.544
288.701	15.263	1129.843	846.888
289.716	15.428	1128.762	846.834
290.730	15.252	1128.471	845.654
291.745	15.351	1127.833	845.599
292.760	15.386	1126.754	844.891
293.774	15.439	1126.265	844.718
294.789	15.558	1125.618	844.752
295.803	15.366	1125.261	843.446
296.818	15.522	1124.325	843.455
297.833	15.516	1123.435	842.682
298.847	15.421	1122.875	841.713
299.862	15.534	1122.311	841.780
300.876	15.511	1121.376	840.889
301.891	15.495	1120.598	840.152
302.906	15.533	1120.227	839.991
303.920	15.622	1119.461	839.783
304.935	15.554	1118.832	838.901
305.949	15.690	1118.051	838.918
306.964	15.619	1117.694	838.223
307.979	15.658	1116.857	837.712
308.993	15.621	1115.914	836.750
310.008	15.765	1115.112	836.790
311.022	15.701	1114.092	835.630
312.037	15.676	1113.473	834.970
313.052	15.784	1112.561	834.747
314.066	15.656	1111.596	833.315
315.081	15.745	1110.444	832.821
316.095	15.683	1110.027	832.127
317.110	15.603	1109.402	831.187
318.125	15.642	1108.523	830.646
319.139	15.702	1107.871	830.382
320.154	15.736	1107.122	829.913
321.168	15.733	1106.607	829.439
322.183	15.679	1106.542	829.052
323.197	15.734	1105.460	828.441
324.212	15.764	1104.760	827.987
325.227	15.812	1104.225	827.751
326.241	15.750	1103.703	826.984
327.256	15.748	1102.771	826.198
328.270	15.706	1101.368	824.872
329.285	15.833	1100.753	824.961
330.300	15.826	1099.927	824.234
331.314	15.811	1098.954	823.357
332.329	15.827	1098.197	822.797
333.343	15.758	1097.565	821.912
334.358	15.823	1096.531	821.382
335.373	15.940	1095.686	821.247
336.387	15.899	1095.119	820.547
337.402	15.939	1094.744	820.392
338.416	15.950	1094.083	819.877
339.431	16.036	1092.778	819.245
340.446	16.046	1092.588	819.077
341.460	16.080	1092.012	818.740
342.475	16.236	1090.514	818.302
343.489	16.173	1089.910	817.466
344.504	16.210	1089.124	816.985
345.519	16.213	1088.489	816.453
346.533	16.319	1087.601	816.224
347.548	16.212	1087.178	815.320
348.562	16.196	1086.321	814.527
349.577	16.236	1085.385	813.948
350.592	16.114	1085.033	813.020
351.606	16.107	1084.467	812.493
352.621	16.092	1083.382	811.536
353.635	16.230	1082.736	811.645
354.650	16.193	1081.718	810.631
355.665	16.161	1081.198	810.014
356.679	16.224	1080.418	809.661
357.694	16.153	1080.270	809.137
358.708	16.231	1079.869	809.139
359.723	16.286	1079.034	808.705
360.738	16.398	1077.810	808.257
361.752	16.309	1077.685	807.662
362.767	16.201	1077.436	806.890
363.781	16.367	1076.438	806.865
364.796	16.355	1076.043	806.436
365.810	16.479	1075.299	806.402
366.825	16.575	1074.117	805.900
367.840	16.642	1073.846	805.946
368.854	16.684	1073.119	805.530
369.869	16.701	1072.694	805.218
370.883	16.555	1071.913	803.869
371.898	16.498	1071.076	802.898
372.913	16.479	1070.633	802.405
373.927	16.515	1070.399	802.330
374.942	16.599	1069.845	802.240
375.956	16.645	1068.955	801.718
376.971	16.675	1068.296	801.297
377.986	16.756	1067.561	801.058
379.000	16.641	1067.561	800.445
380.015	16.737	1066.782	800.242
381.029	16.755	1066.212	799.828
382.044	16.722	1065.112	798.775
383.059	16.823	1064.591	798.794
384.073	16.801	1063.707	797.955
385.088	16.796	1063.370	797.609
386.102	16.881	1061.883	796.818
387.117	16.856	1060.929	795.914
388.132	16.654	1060.532	794.599
389.146	16.749	1059.372	794.105
390.161	16.754	1058.488	793.397
391.175	16.768	1057.934	792.979
392.190	16.901	1056.929	792.776
393.205	17.046	1056.332	792.933
394.219	16.895	1055.805	791.763
395.234	16.920	1054.656	790.948
396.248	16.801	1053.596	789.529
397.263	16.864	1052.726	789.102
398.278	16.903	1052.141	788.777
399.292	16.921	1051.403	788.236
400.307	16.789	1051.075	787.307
401.321	16.870	1050.080	786.867
402.336	16.738	1049.860	786.019
403.350	16.802	1049.084	785.667
404.365	16.935	1048.163	785.521
405.380	17.168	1047.176	785.789
406.394	17.047	1046.852	784.921
407.409	17.073	1046.063	784.378
408.423	17.025	1045.307	783.522
409.438	17.093	1044.607	783.243
410.453	17.214	1044.181	783.412
411.467	17.130	1043.415	782.379
412.482	17.282	1042.649	782.432
413.496	17.270	1041.767	781.649
414.511	17.248	1041.292	781.119
415.526	17.271	1040.820	780.802
416.540	17.317	1040.366	780.607
417.555	17.369	1039.801	780.351
418.569	17.412	1039.463	780.227
419.584	17.306	1039.150	779.438
420.599	17.348	1038.722	779.239
421.613	105.222	1325.246	1478.149
422.628	96.529	1366.970	1478.251
