DTS Sentinel unit serial number:	SN413079Multiplexer serial number:	ORYXHardware model number:	OX4-SRSoftware version number:	ORYX F/W v4.00 Oryx Data Collector v3.7.2.0data status	okinstallation	princeton_trtdifferential loss correction	single-endedforward channel	channel 2reverse channel	N/Adate	2019/09/15time	08:03:35forward acquisition time	60.00reverse acquisition time	0.00gamma	496.2192k internal	0.2325k external	0.2325temperature offset calibration	1.0030default loss term (dB/km)	0.3790temperature slope calibration	1.0000multiplexer offset coefficient	1.0000multiplexer slope coefficient	1.0000fibre end	0.00T internal ref (°C)	30.81T ext. ref 1 (°C)	4.98T ext. ref 2 (°C)	26.78length (m)	temperature (°C)	Stokes	anti-Stokes-747.200	-70.927	-0.103	0.039
-746.185	-200.000	0.028	0.209
-745.171	-200.000	-0.015	-0.206
-744.156	-37.897	0.305	0.164
-743.142	84.823	-0.135	0.150
-742.127	150.759	-0.087	-0.120
-741.112	82.582	-0.168	0.184
-740.098	-47.233	0.200	-0.098
-739.083	-129.875	-0.509	-0.070
-738.069	800.000	0.052	0.168
-737.054	-86.639	0.200	-0.062
-736.039	800.000	-0.062	0.189
-735.025	-200.000	-0.013	-0.293
-734.010	-200.000	0.015	-0.213
-732.996	163.080	-0.038	-0.054
-731.981	-131.667	0.258	-0.034
-730.966	308.738	0.078	0.147
-729.952	-61.660	0.067	-0.028
-728.937	-82.635	-0.499	0.163
-727.923	668.803	-0.088	0.230
-726.908	79.030	-0.126	-0.136
-725.894	-131.862	0.268	-0.035
-724.879	296.367	-0.268	-0.495
-723.864	-65.002	-0.166	-0.068
-722.850	623.855	0.131	0.332
-721.835	-104.125	0.154	-0.036
-720.821	-141.566	-0.305	0.031
-719.806	-200.000	0.039	-0.197
-718.791	0.451	0.067	0.048
-717.777	63.440	0.181	0.183
-716.762	13.210	-0.393	-0.307
-715.748	-140.779	-0.012	0.001
-714.733	122.491	-0.181	0.228
-713.718	116.669	-0.114	-0.141
-712.704	800.000	-0.103	0.334
-711.689	-88.114	0.113	0.034
-710.675	313.966	0.181	-0.344
-709.660	-84.507	-0.223	0.071
-708.645	-4.070	0.175	0.122
-707.631	-186.231	-0.485	-0.007
-706.616	-143.929	-0.178	-0.017
-705.602	87.943	-0.099	-0.111
-704.587	194.670	0.055	-0.084
-703.572	79.915	-0.035	-0.038
-702.558	800.000	-0.085	-0.349
-701.543	-89.313	0.081	-0.024
-700.529	-105.686	0.170	0.039
-699.514	103.163	-0.075	-0.089
-698.499	0.249	0.242	0.174
-697.485	-196.685	0.373	-0.002
-696.470	-200.000	-0.022	-0.231
-695.456	-76.929	0.274	0.096
-694.441	92.224	-0.105	-0.119
-693.426	775.753	-0.041	0.112
-692.412	-128.749	-0.309	-0.044
-691.397	-200.000	-0.018	0.096
-690.383	-114.361	-0.423	0.082
-689.368	-130.099	0.131	-0.018
-688.354	-200.000	-0.007	-0.052
-687.339	-118.210	0.295	0.053
-686.324	183.975	-0.094	0.140
-685.310	-64.537	-0.301	0.123
-684.295	-200.000	0.000	0.103
-683.281	-200.000	-0.004	-0.450
-682.266	-200.000	-0.002	-0.346
-681.251	-200.000	0.016	0.297
-680.237	-128.574	0.145	-0.021
-679.222	-101.906	-0.185	-0.045
-678.208	-104.112	-0.180	-0.042
-677.193	-20.373	0.007	-0.004
-676.178	101.133	0.269	-0.315
-675.164	-200.000	0.037	-0.187
-674.149	27.432	0.086	0.073
-673.135	-26.551	0.271	0.160
-672.120	-89.316	-0.100	-0.030
-671.105	109.440	-0.205	-0.247
-670.091	800.000	-0.019	0.074
-669.076	108.294	-0.212	-0.255
-668.062	32.356	-0.217	-0.189
-667.047	800.000	0.130	-0.386
-666.032	-40.151	-0.265	-0.139
-665.018	83.104	-0.009	-0.009
-664.003	37.032	-0.146	0.129
-662.989	800.000	0.052	0.177
-661.974	27.414	0.092	0.078
-660.959	107.150	-0.303	-0.362
-659.945	675.233	-0.118	0.309
-658.930	-42.572	0.280	-0.144
-657.916	283.527	-0.068	0.122
-656.901	-139.372	-0.496	0.054
-655.886	-200.000	0.006	-0.214
-654.872	-77.752	-0.173	0.060
-653.857	-130.480	0.235	-0.032
-652.843	149.558	0.140	0.191
-651.828	-159.856	-0.268	-0.015
-650.814	3.453	0.166	-0.122
-649.799	-200.000	0.030	0.263
-648.784	800.000	-0.017	0.062
-647.770	-24.437	-0.153	0.092
-646.755	-33.024	-0.234	0.130
-645.741	-200.000	-0.059	0.438
-644.726	800.000	-0.018	-0.064
-643.711	800.000	-0.079	0.239
-642.697	-48.645	-0.481	-0.232
-641.682	800.000	-0.107	0.319
-640.668	-156.793	0.261	-0.016
-639.653	800.000	-0.089	-0.247
-638.638	800.000	0.042	-0.178
-637.624	-15.125	0.145	0.093
-636.609	-200.000	-0.030	-0.345
-635.595	-200.000	-0.010	0.252
-634.580	117.631	0.151	0.187
-633.565	-200.000	-0.031	-0.417
-632.551	155.851	-0.101	0.140
-631.536	800.000	0.094	0.381
-630.522	-134.857	0.092	0.011
-629.507	12.216	-0.034	0.026
-628.492	52.101	-0.344	-0.330
-627.478	124.684	0.174	-0.220
-626.463	-157.223	0.110	0.007
-625.449	200.430	-0.132	-0.204
-624.434	-200.000	-0.011	-0.076
-623.419	13.513	0.156	0.122
-622.405	800.000	0.020	0.060
-621.390	202.924	-0.181	-0.281
-620.376	169.031	-0.151	-0.216
-619.361	-200.000	0.022	-0.544
-618.346	-85.109	-0.106	-0.033
-617.332	63.632	0.451	0.455
-616.317	-62.755	0.225	-0.094
-615.303	338.412	-0.118	-0.231
-614.288	-77.335	-0.266	-0.093
-613.273	74.182	-0.106	-0.112
-612.259	23.440	0.100	0.082
-611.244	-200.000	-0.001	-0.420
-610.230	-200.000	-0.031	-0.142
-609.215	102.353	-0.293	-0.343
-608.201	-104.344	-0.232	-0.054
-607.186	-123.610	0.354	-0.056
-606.171	-140.861	0.224	0.023
-605.157	120.306	-0.156	0.195
-604.142	-136.536	-0.181	-0.021
-603.128	43.317	-0.288	0.264
-602.113	-200.000	0.040	0.180
-601.098	-200.000	0.005	0.180
-600.084	-200.000	-0.037	-0.182
-599.069	-200.000	0.041	0.221
-598.055	800.000	0.098	-0.276
-597.040	-52.096	-0.120	-0.056
-596.025	48.599	-0.199	0.187
-595.011	-19.260	0.098	-0.061
-593.996	-200.000	0.029	0.142
-592.982	-154.403	-0.372	-0.025
-591.967	-134.470	0.354	0.043
-590.952	-153.908	-0.115	0.008
-589.938	-40.844	-0.085	0.044
-588.923	-59.489	-0.203	0.088
-587.909	-49.904	0.160	-0.076
-586.894	-26.941	-0.124	-0.073
-585.879	-62.574	0.096	-0.040
-584.865	-121.700	-0.124	0.020
-583.850	80.081	-0.191	0.206
-582.836	-9.122	-0.113	0.076
-581.821	14.275	-0.159	-0.124
-580.806	37.145	0.061	-0.054
-579.792	22.210	-0.257	-0.211
-578.777	213.628	0.158	-0.251
-577.763	92.970	-0.149	-0.169
-576.748	-110.519	-0.218	0.045
-575.733	-173.330	0.642	-0.020
-574.719	557.752	0.120	-0.291
-573.704	-54.979	-0.277	-0.125
-572.690	-138.750	-0.051	-0.006
-571.675	32.197	-0.277	0.240
-570.661	-200.000	-0.050	-0.301
-569.646	800.000	0.039	0.168
-568.631	-78.019	-0.147	0.051
-567.617	-71.023	0.121	-0.046
-566.602	800.000	-0.137	-0.400
-565.588	402.721	0.068	0.143
-564.573	-200.000	0.061	-0.310
-563.558	766.250	0.102	-0.277
-562.544	-160.160	-0.211	0.011
-561.529	290.306	-0.099	0.180
-560.515	-74.977	0.172	0.062
-559.500	-39.738	0.168	0.088
-558.485	194.301	0.175	0.265
-557.471	71.725	-0.059	-0.062
-556.456	583.170	-0.083	0.203
-555.442	-200.000	-0.037	0.232
-554.427	-41.740	-0.097	-0.050
-553.412	-200.000	-0.020	0.182
-552.398	183.607	-0.073	0.108
-551.383	58.961	-0.132	-0.130
-550.369	-200.000	0.225	0.001
-549.354	-173.900	0.059	-0.002
-548.339	-126.270	-0.289	-0.043
-547.325	96.901	-0.065	-0.074
-546.310	52.002	0.285	-0.271
-545.296	107.159	-0.119	0.141
-544.281	-123.255	-0.258	-0.041
-543.266	-200.000	-0.010	0.125
-542.252	-200.000	-0.009	-0.079
-541.237	-82.078	-0.089	0.029
-540.223	-148.118	0.330	0.027
-539.208	81.655	0.143	-0.155
-538.193	95.425	-0.164	0.187
-537.179	-176.215	-0.287	-0.008
-536.164	2.096	0.224	-0.162
-535.150	-80.794	-0.254	0.084
-534.135	15.326	-0.188	0.147
-533.121	800.000	-0.061	0.254
-532.106	800.000	0.114	-0.399
-531.091	-178.778	-0.196	0.004
-530.077	800.000	0.101	0.314
-529.062	392.926	-0.071	-0.148
-528.048	328.235	0.184	0.354
-527.033	87.143	-0.155	0.172
-526.018	-41.908	0.120	0.062
-525.004	390.183	0.046	0.095
-523.989	753.408	0.100	-0.271
-522.975	181.167	-0.124	-0.182
-521.960	-32.424	-0.153	0.085
-520.945	450.015	-0.147	-0.325
-519.931	800.000	-0.026	-0.104
-518.916	-86.556	-0.137	0.042
-517.902	24.602	0.242	0.201
-516.887	-82.988	-0.212	0.068
-515.872	-10.433	0.063	0.042
-514.858	-16.110	-0.325	-0.207
-513.843	-143.171	0.234	0.023
-512.829	800.000	0.024	0.068
-511.814	-200.000	0.034	-0.153
-510.799	76.675	0.063	0.066
-509.785	632.611	0.064	0.162
-508.770	-32.713	0.259	-0.144
-507.756	531.228	-0.154	-0.363
-506.741	20.304	0.137	0.111
-505.726	-200.000	0.009	-0.061
-504.712	-135.188	-0.064	0.008
-503.697	800.000	-0.060	-0.225
-502.683	-200.000	0.001	-0.365
-501.668	798.694	-0.054	-0.149
-500.653	-54.694	0.315	-0.142
-499.639	66.759	-0.136	-0.138
-498.624	-72.108	0.042	-0.016
-497.610	-142.215	-0.225	0.022
-496.595	-5.896	-0.088	0.060
-495.581	-40.289	0.253	0.132
-494.566	8.170	0.082	-0.061
-493.551	51.290	-0.403	0.382
-492.537	-200.000	-0.001	-0.190
-491.522	-1.106	0.255	-0.180
-490.508	-64.980	0.091	-0.037
-489.493	800.000	0.042	0.160
-488.478	-89.540	-0.301	-0.088
-487.464	35.696	-0.208	-0.183
-486.449	-14.596	-0.053	0.034
-485.435	153.551	-0.116	0.158
-484.420	156.726	0.094	0.130
-483.405	15.432	-0.166	-0.130
-482.391	-200.000	-0.010	0.050
-481.376	-200.000	-0.000	-0.242
-480.362	11.016	0.325	0.248
-479.347	458.848	0.029	0.065
-478.332	48.749	-0.244	0.228
-477.318	-17.142	0.279	-0.176
-476.303	74.081	0.153	0.161
-475.289	248.776	-0.152	0.258
-474.274	-21.342	-0.130	0.080
-473.259	36.268	-0.052	0.046
-472.245	116.356	0.062	0.076
-471.230	-51.674	0.301	-0.140
-470.216	-50.694	-0.205	0.097
-469.201	800.000	0.055	0.179
-468.186	112.285	-0.268	0.324
-467.172	800.000	0.029	0.126
-466.157	-116.648	-0.247	0.045
-465.143	-200.000	0.015	0.089
-464.128	48.590	-0.166	-0.156
-463.113	194.467	-0.197	0.298
-462.099	-51.774	0.051	0.024
-461.084	-200.000	-0.008	0.093
-460.070	560.231	-0.042	0.101
-459.055	-55.486	-0.170	-0.076
-458.040	-55.581	-0.296	0.132
-457.026	-123.695	0.187	0.030
-456.011	191.785	-0.065	0.098
-454.997	-105.800	-0.325	-0.073
-453.982	-200.000	-0.225	0.000
-452.968	-200.000	0.022	0.125
-451.953	63.019	-0.159	0.158
-450.938	-20.891	0.146	-0.089
-449.924	-200.000	0.039	0.216
-448.909	-163.808	-0.174	-0.008
-447.895	107.590	0.313	0.371
-446.880	-131.829	0.204	-0.027
-445.865	95.624	-0.156	0.177
-444.851	-105.297	0.158	-0.036
-443.836	800.000	0.047	-0.168
-442.822	109.788	-0.181	-0.216
-441.807	581.753	0.089	0.217
-440.792	800.000	-0.086	0.294
-439.778	-83.753	0.343	0.109
-438.763	427.919	-0.135	-0.290
-437.749	760.996	0.020	-0.054
-436.734	400.708	-0.069	0.145
-435.719	65.561	0.259	-0.262
-434.705	-24.452	0.198	-0.118
-433.690	-99.117	-0.035	0.009
-432.676	482.057	0.126	0.286
-431.661	-200.000	-0.012	-0.078
-430.646	367.529	-0.097	-0.196
-429.632	-56.665	0.228	0.100
-428.617	-131.688	0.156	0.020
-427.603	-129.677	0.475	-0.065
-426.588	61.746	-0.094	0.094
-425.573	493.426	-0.047	0.107
-424.559	-200.000	-0.026	0.190
-423.544	98.715	0.190	-0.218
-422.530	10.425	-0.032	-0.024
-421.515	-37.631	0.195	-0.103
-420.500	800.000	-0.052	0.174
-419.486	-116.773	0.059	-0.011
-418.471	-88.587	0.339	0.101
-417.457	-100.241	-0.266	0.066
-416.442	15.148	0.216	0.169
-415.428	-84.380	0.151	-0.048
-414.413	-200.000	0.012	-0.097
-413.398	-75.462	0.160	-0.057
-412.384	-75.211	0.498	0.177
-411.369	375.010	-0.061	-0.123
-410.355	206.459	-0.122	-0.189
-409.340	-75.571	-0.262	0.093
-408.325	-85.903	-0.255	0.079
-407.311	800.000	-0.023	-0.098
-406.296	95.218	-0.151	0.172
-405.282	131.926	0.171	-0.219
-404.267	88.406	0.207	-0.229
-403.252	46.033	0.194	0.179
-402.238	-19.847	-0.227	-0.140
-401.223	-5.981	-0.183	0.125
-400.209	800.000	0.066	0.234
-399.194	-121.498	0.389	-0.064
-398.179	-127.614	-0.311	-0.045
-397.165	-166.408	-0.384	0.016
-396.150	-150.222	-0.271	-0.021
-395.136	-200.000	0.044	0.342
-394.121	-200.000	-0.037	-0.221
-393.106	-127.541	0.104	0.015
-392.092	-68.748	-0.078	0.030
-391.077	751.356	0.055	0.147
-390.063	2.347	0.217	-0.156
-389.048	25.967	0.149	-0.124
-388.033	-182.323	-0.111	-0.002
-387.019	73.020	-0.231	0.240
-386.004	-77.498	-0.309	0.107
-384.990	800.000	0.033	-0.109
-383.975	-200.000	0.056	-0.317
-382.960	10.044	0.017	-0.013
-381.946	-103.315	0.086	-0.020
-380.931	446.731	-0.055	0.120
-379.917	-48.143	-0.297	-0.142
-378.902	169.853	-0.142	-0.202
-377.888	-138.164	-0.242	0.027
-376.873	800.000	0.063	0.238
-375.858	-200.000	0.001	0.038
-374.844	226.581	-0.118	-0.190
-373.829	0.050	0.353	-0.250
-372.815	44.868	0.029	-0.027
-371.800	-118.785	0.034	0.006
-370.785	-142.332	0.127	0.012
-369.771	-51.655	-0.242	0.112
-368.756	338.508	0.137	-0.264
-367.742	-21.691	0.155	0.094
-366.727	-200.000	0.019	0.216
-365.712	-75.823	-0.321	0.113
-364.698	-36.917	0.100	0.053
-363.683	-200.000	0.054	0.240
-362.669	-22.107	0.412	0.249
-361.654	-116.544	-0.129	0.024
-360.639	-200.000	-0.015	0.141
-359.625	529.015	0.060	-0.142
-358.610	800.000	-0.087	-0.328
-357.596	800.000	0.069	-0.231
-356.581	79.080	-0.194	-0.207
-355.566	13.882	-0.339	0.262
-354.552	77.671	-0.166	-0.176
-353.537	-10.459	0.116	-0.076
-352.523	-200.000	0.050	0.392
-351.508	-50.393	-0.281	0.132
-350.493	444.964	0.039	0.086
-349.479	240.576	-0.113	0.187
-348.464	156.853	-0.089	0.122
-347.450	-35.336	0.053	-0.029
-346.435	-200.000	0.007	0.070
-345.420	251.764	0.064	0.108
-344.406	-200.000	0.029	0.243
-343.391	145.683	-0.188	0.250
-342.377	117.831	0.037	-0.045
-341.362	158.307	0.077	0.106
-340.348	800.000	0.029	-0.102
-339.333	-27.540	0.167	0.096
-338.318	-42.713	0.131	-0.066
-337.304	-75.731	0.137	0.048
-336.289	-1.962	0.122	-0.085
-335.275	800.000	0.019	-0.053
-334.260	-12.210	0.133	0.086
-333.245	800.000	-0.044	-0.129
-332.231	-140.893	-0.064	0.007
-331.216	-97.079	0.316	0.082
-330.202	-61.014	0.170	-0.071
-329.187	-200.000	-0.006	-0.031
-328.172	10.933	0.186	-0.141
-327.158	-200.000	-0.033	0.214
-326.143	601.973	-0.118	0.292
-325.129	-200.000	0.059	0.266
-324.114	800.000	0.028	-0.119
-323.099	168.065	-0.035	-0.050
-322.085	-18.920	0.182	-0.112
-321.070	800.000	0.103	-0.444
-320.056	-200.000	-0.015	0.373
-319.041	519.823	-0.031	-0.071
-318.026	204.545	-0.108	0.166
-317.012	62.798	0.072	0.072
-315.997	-18.084	-0.200	-0.124
-314.983	380.395	-0.088	-0.178
-313.968	157.547	-0.238	-0.327
-312.953	208.815	-0.172	0.267
-311.939	-159.670	-0.376	0.021
-310.924	-35.994	-0.152	-0.081
-309.910	-8.389	0.156	0.104
-308.895	-149.059	-0.287	0.023
-307.880	-73.896	0.140	0.050
-306.866	119.373	0.214	-0.262
-305.851	168.656	0.101	0.142
-304.837	76.753	0.227	-0.238
-303.822	-94.301	-0.121	-0.033
-302.807	-123.682	-0.167	-0.026
-301.793	159.682	0.092	-0.127
-300.778	41.907	-0.197	-0.177
-299.764	347.361	-0.103	0.201
-298.749	359.633	-0.036	0.072
-297.735	-200.000	0.022	-0.180
-296.720	-69.940	0.169	-0.064
-295.705	329.659	0.106	-0.202
-294.691	800.000	0.118	0.358
-293.676	-27.757	0.302	0.174
-292.662	113.837	0.156	-0.187
-291.647	-53.165	0.430	-0.196
-290.632	131.453	-0.107	0.136
-289.618	-200.000	-0.007	0.092
-288.603	264.048	0.069	0.119
-287.589	172.197	0.177	0.252
-286.574	-139.074	-0.141	0.015
-285.559	-200.000	-0.072	-0.523
-284.545	238.461	-0.225	0.370
-283.530	422.981	-0.076	0.163
-282.516	96.105	0.117	-0.133
-281.501	72.895	-0.172	-0.178
-280.486	463.834	0.100	0.222
-279.472	-66.567	0.117	0.046
-278.457	163.936	-0.059	0.082
-277.443	-49.568	0.150	0.071
-276.428	800.000	0.056	0.184
-275.413	107.853	0.086	0.102
-274.399	17.219	0.173	-0.136
-273.384	800.000	0.100	-0.375
-272.370	-62.253	0.120	0.050
-271.355	-134.313	0.212	-0.026
-270.340	-72.944	-0.292	-0.106
-269.326	-25.474	0.188	-0.110
-268.311	800.000	-0.040	0.113
-267.297	-86.297	-0.258	0.079
-266.282	43.133	-0.033	-0.030
-265.267	421.938	0.120	0.255
-264.253	-0.451	-0.171	0.120
-263.238	88.713	0.159	-0.175
-262.224	-135.006	-0.425	0.051
-261.209	-200.000	-0.020	-0.193
-260.195	24.900	0.200	-0.164
-259.180	102.251	-0.019	-0.022
-258.165	800.000	0.069	-0.248
-257.151	-200.000	-0.005	-0.141
-256.136	-14.082	0.158	0.101
-255.122	800.000	-0.061	-0.246
-254.107	210.541	0.203	-0.316
-253.092	331.868	-0.138	-0.263
-252.078	800.000	0.065	0.202
-251.063	138.020	-0.095	0.123
-250.049	-126.837	0.395	0.058
-249.034	-52.020	0.280	-0.129
-248.019	-36.714	0.372	-0.198
-247.005	-200.000	0.018	0.118
-245.990	59.270	-0.298	-0.291
-244.976	-148.791	-0.128	0.010
-243.961	136.408	-0.170	0.220
-242.946	67.244	0.224	0.226
-241.932	404.708	-0.082	0.171
-240.917	-85.657	0.213	-0.065
-239.903	-74.039	-0.364	-0.131
-238.888	-43.182	0.207	0.104
-237.873	800.000	-0.004	0.016
-236.859	-155.570	-0.289	0.018
-235.844	-66.422	0.198	0.078
-234.830	-197.242	0.169	0.001
-233.815	-200.000	0.030	0.315
-232.800	800.000	0.062	0.256
-231.786	800.000	-0.023	0.076
-230.771	64.163	0.075	0.074
-229.757	-9.332	0.213	-0.141
-228.742	9.494	-0.276	-0.207
-227.727	-200.000	0.004	-0.102
-226.713	-200.000	0.005	-0.126
-225.698	-200.000	-0.039	0.341
-224.684	-56.834	-0.108	-0.047
-223.669	-50.017	-0.260	0.122
-222.655	-111.096	0.455	0.092
-221.640	-96.362	0.224	0.059
-220.625	-168.784	-0.154	-0.006
-219.611	100.124	0.093	-0.107
-218.596	-200.000	0.001	0.036
-217.582	-99.822	-0.100	0.025
-216.567	-86.363	0.299	-0.091
-215.552	279.337	0.156	-0.275
-214.538	29.724	0.034	-0.029
-213.523	67.923	-0.105	-0.106
-212.509	-154.240	-0.254	0.017
-211.494	800.000	0.044	-0.171
-210.479	113.720	0.185	-0.222
-209.465	-152.572	0.193	-0.014
-208.450	800.000	0.053	0.155
-207.436	-148.662	0.030	0.002
-206.421	113.750	-0.129	0.155
-205.406	-151.820	0.040	-0.003
-204.392	-36.864	-0.042	0.022
-203.377	-200.000	-0.030	0.295
-202.363	59.387	0.265	-0.258
-201.348	134.920	0.178	0.228
-200.333	-21.511	-0.225	-0.135
-199.319	87.259	0.108	0.118
-198.304	-89.422	0.152	0.044
-197.290	-2.656	-0.041	-0.028
-196.275	-200.000	0.007	0.204
-195.260	41.004	0.121	-0.107
-194.246	-66.632	-0.192	-0.075
-193.231	-82.997	-0.235	0.075
-192.217	-116.988	0.210	-0.038
-191.202	-110.667	0.211	-0.043
-190.187	198.389	-0.087	0.131
-189.173	-41.504	-0.286	-0.145
-188.158	443.769	0.147	0.319
-187.144	513.965	0.096	0.221
-186.129	-8.589	-0.188	-0.125
-185.114	407.716	0.149	0.312
-184.100	77.231	-0.070	-0.074
-183.085	800.000	-0.041	0.140
-182.071	-200.000	0.002	-0.282
-181.056	-141.209	0.134	0.014
-180.042	-160.833	0.427	0.022
-179.027	-200.000	0.044	-0.297
-178.012	-51.862	0.175	0.080
-176.998	800.000	0.008	-0.025
-175.983	144.487	-0.077	-0.101
-174.969	-112.038	-0.346	0.069
-173.954	-200.000	-0.138	0.001
-172.939	224.822	0.163	-0.260
-171.925	50.691	-0.336	-0.314
-170.910	800.000	0.031	0.108
-169.896	-200.000	-0.029	0.151
-168.881	-102.803	0.153	-0.036
-167.866	84.195	-0.241	0.260
-166.852	158.265	0.209	-0.286
-165.837	80.064	0.155	-0.164
-164.823	-76.929	0.604	-0.208
-163.808	-93.561	-0.310	-0.085
-162.793	-17.226	-0.039	0.024
-161.779	104.919	-0.089	0.103
-160.764	-133.069	0.332	-0.041
-159.750	-145.976	-0.070	0.006
-158.735	197.751	-0.071	-0.107
-157.720	-57.986	0.224	0.097
-156.706	-2.504	0.226	-0.156
-155.691	-193.845	-0.355	-0.003
-154.677	-200.000	-0.003	-0.092
-153.662	-200.000	-0.001	-0.055
-152.647	47.022	0.152	-0.139
-151.633	297.619	0.041	-0.074
-150.618	-139.945	-0.156	-0.016
-149.604	-200.000	-0.060	-0.294
-148.589	-110.415	0.204	0.042
-147.574	26.829	0.111	-0.091
-146.560	247.182	0.036	-0.060
-145.545	139.768	0.040	0.051
-144.531	240.223	0.188	0.309
-143.516	-42.681	-0.300	0.150
-142.502	-149.790	0.318	-0.025
-141.487	-200.000	-0.022	-0.111
-140.472	23.033	-0.111	0.089
-139.458	800.000	-0.127	0.350
-138.443	10.899	-0.254	0.191
-137.429	800.000	0.055	0.166
-136.414	-92.164	-0.377	0.105
-135.399	-7.375	0.103	0.069
-134.385	498.248	0.035	-0.079
-133.370	800.000	0.036	0.134
-132.356	99.737	-0.128	-0.146
-131.341	-89.263	-0.262	0.076
-130.326	145.689	0.107	-0.141
-129.312	-200.000	-0.030	0.155
-128.297	-55.530	0.203	0.089
-127.283	-133.813	-0.078	0.010
-126.268	-46.564	0.145	0.070
-125.253	341.679	-0.109	-0.210
-124.239	-200.000	-0.032	0.149
-123.224	800.000	0.041	-0.112
-122.210	-200.000	-0.019	-0.085
-121.195	213.720	-0.142	0.221
-120.180	-113.345	-0.202	-0.039
-119.166	-28.919	-0.119	-0.067
-118.151	197.319	-0.121	-0.181
-117.137	-144.655	-0.294	-0.027
-116.122	-200.000	0.009	-0.049
-115.107	16.636	-0.114	-0.089
-114.093	-117.074	0.232	0.042
-113.078	-200.000	0.028	0.334
-112.064	-200.000	-0.035	0.302
-111.049	-92.298	0.353	0.098
-110.034	-200.000	0.001	-0.260
-109.020	-51.716	-0.228	0.105
-108.005	-65.576	0.026	0.010
-106.991	-105.551	-0.028	-0.006
-105.976	173.579	0.158	0.225
-104.962	154.258	0.164	-0.221
-103.947	-101.486	-0.074	-0.018
-102.932	-79.535	0.197	-0.066
-101.918	26.854	-0.245	-0.202
-100.903	-123.223	0.302	-0.048
-99.889	-49.817	-0.158	-0.074
-98.874	591.642	0.061	-0.149
-97.859	195.527	-0.093	-0.139
-96.845	-30.748	0.289	-0.161
-95.830	800.000	-0.081	-0.281
-94.816	-200.000	-0.006	0.147
-93.801	-85.432	0.378	0.116
-92.786	205.102	-0.198	0.302
-91.772	800.000	-0.054	0.224
-90.757	-115.529	-0.296	0.055
-89.743	-145.036	-0.160	-0.014
-88.728	328.922	-0.039	0.073
-87.713	795.642	-0.075	0.203
-86.699	-76.733	-0.284	-0.098
-85.684	-17.449	0.173	0.107
-84.670	-73.014	-0.115	-0.041
-83.655	-51.240	0.214	0.099
-82.640	-8.460	0.082	-0.054
-81.626	41.388	0.102	-0.091
-80.611	623.888	-0.068	0.169
-79.597	-141.227	-0.208	0.021
-78.582	-127.940	0.264	0.037
-77.567	-51.219	0.252	0.116
-76.553	-200.000	-0.079	-0.511
-75.538	397.815	0.054	-0.110
-74.524	9.326	0.135	0.101
-73.509	513.629	-0.047	0.108
-72.494	150.607	-0.050	-0.067
-71.480	-200.000	0.042	-0.256
-70.465	-200.000	0.006	-0.143
-69.451	-30.151	-0.079	-0.044
-68.436	27.782	-0.165	0.136
-67.422	-196.335	-0.335	0.002
-66.407	800.000	0.027	0.103
-65.392	-200.000	0.020	-0.171
-64.378	-200.000	-0.024	0.558
-63.363	20.776	0.162	-0.129
-62.349	247.635	-0.213	-0.353
-61.334	235.703	-0.739	-1.200
-60.319	297.535	0.413	0.746
-59.305	549.700	-0.392	-0.923
-58.290	358.740	0.435	0.854
-57.276	540.941	0.721	1.687
-56.261	-200.000	100.725	594.599
-55.246	574.171	1415.937	3392.447
-54.232	188.853	2613.828	3842.441
-53.217	110.469	2281.667	2693.116
-52.203	40.131	1900.013	1677.313
-51.188	33.980	1687.883	1443.460
-50.173	31.359	1644.369	1386.773
-49.159	49.552	1693.512	1565.585
-48.144	50.654	1709.661	1588.739
-47.130	33.667	1669.268	1424.964
-46.115	30.967	1654.800	1392.416
-45.100	30.796	1650.178	1387.198
-44.086	30.720	1647.988	1384.737
-43.071	30.731	1645.218	1382.442
-42.057	30.685	1642.620	1379.864
-41.042	30.696	1640.506	1378.114
-40.027	30.788	1638.540	1377.083
-39.013	30.715	1636.853	1375.074
-37.998	30.630	1635.801	1373.507
-36.984	30.745	1634.000	1372.793
-35.969	30.768	1632.781	1371.881
-34.954	30.873	1630.807	1370.943
-33.940	30.814	1629.175	1369.079
-32.925	30.852	1627.419	1367.830
-31.911	30.766	1626.012	1365.963
-30.896	30.818	1623.788	1364.417
-29.881	30.739	1622.604	1362.793
-28.867	30.795	1620.148	1361.085
-27.852	30.848	1619.228	1360.645
-26.838	30.759	1617.893	1358.822
-25.823	30.825	1616.477	1358.055
-24.809	30.816	1615.173	1356.845
-23.794	30.851	1613.632	1355.747
-22.779	30.956	1611.993	1355.084
-21.765	30.883	1610.510	1353.252
-20.750	30.778	1608.956	1351.133
-19.736	30.822	1607.937	1350.541
-18.721	30.879	1606.119	1349.369
-17.706	30.807	1604.636	1347.550
-16.692	30.864	1603.148	1346.663
-15.677	30.809	1601.860	1345.128
-14.663	30.883	1600.865	1344.772
-13.648	30.889	1598.911	1343.123
-12.633	30.849	1597.639	1341.710
-11.619	30.813	1596.051	1340.062
-10.604	30.727	1594.714	1338.275
-9.590	30.745	1593.907	1337.672
-8.575	30.922	1592.133	1337.401
-7.560	30.888	1590.846	1336.022
-6.546	30.871	1589.936	1335.082
-5.531	30.858	1588.352	1333.607
-4.517	30.885	1587.432	1332.974
-3.502	30.886	1586.235	1331.920
-2.487	31.022	1584.353	1331.262
-1.473	30.682	1573.345	1319.545
-0.458	28.190	1553.909	1285.712
0.556	23.967	1555.778	1255.643
1.571	21.947	1579.573	1260.242
2.586	21.475	1592.603	1267.108
3.600	19.115	1539.283	1208.038
4.615	11.917	1432.210	1076.739
5.629	5.959	1371.580	993.459
6.644	5.037	1364.299	982.295
7.659	4.997	1362.806	980.882
8.673	4.947	1361.697	979.682
9.688	4.948	1359.752	978.200
10.702	4.850	1356.924	975.463
11.717	7.598	1363.070	997.066
12.731	14.778	1374.744	1050.827
13.746	18.980	1381.429	1082.341
14.761	18.695	1379.865	1079.228
15.775	17.601	1377.431	1070.362
16.790	16.597	1374.420	1061.628
17.804	15.855	1371.891	1054.935
18.819	15.491	1370.590	1051.563
19.834	15.209	1369.662	1048.992
20.848	14.907	1368.650	1046.237
21.863	14.669	1367.485	1043.765
22.877	14.520	1365.837	1041.481
23.892	14.561	1364.772	1040.834
24.907	14.608	1364.024	1040.465
25.921	14.544	1363.541	1039.608
26.936	14.655	1361.954	1038.992
27.950	14.571	1361.698	1038.182
28.965	14.803	1360.063	1038.286
29.980	14.811	1359.061	1037.482
30.994	14.829	1358.324	1036.939
32.009	14.866	1357.211	1036.224
33.023	14.857	1355.867	1035.050
34.038	14.798	1354.476	1033.535
35.053	14.682	1353.258	1031.795
36.067	14.652	1352.208	1030.721
37.082	14.664	1351.325	1030.027
38.096	14.778	1350.598	1030.088
39.111	14.771	1349.595	1029.186
40.126	14.722	1348.432	1027.911
41.140	14.586	1347.296	1026.112
42.155	14.466	1347.289	1025.278
43.169	14.431	1347.142	1024.863
44.184	14.496	1346.176	1024.434
45.199	14.551	1345.863	1024.445
46.213	14.586	1345.559	1024.337
47.228	14.554	1345.216	1023.790
48.242	14.592	1343.857	1022.898
49.257	14.554	1342.195	1021.308
50.271	14.678	1340.733	1020.866
51.286	14.745	1339.476	1020.230
52.301	14.614	1337.977	1018.197
53.315	14.650	1336.960	1017.549
54.330	14.574	1336.218	1016.435
55.344	14.500	1334.700	1014.738
56.359	14.530	1333.829	1014.168
57.374	14.518	1333.185	1013.514
58.388	14.423	1332.254	1012.143
59.403	14.444	1331.727	1011.780
60.417	14.444	1331.007	1011.141
61.432	14.412	1330.216	1010.258
62.447	14.390	1329.042	1009.147
63.461	14.290	1327.634	1007.382
64.476	14.272	1327.223	1006.871
65.490	14.264	1325.899	1005.729
66.505	14.275	1324.202	1004.420
67.520	14.361	1323.140	1004.044
68.534	14.384	1322.267	1003.432
69.549	14.396	1321.159	1002.575
70.563	14.325	1320.136	1001.281
71.578	14.342	1319.060	1000.482
72.593	14.320	1318.109	999.535
73.607	14.227	1317.658	998.548
74.622	14.258	1316.915	998.084
75.636	14.268	1315.968	997.339
76.651	14.235	1314.987	996.308
77.666	14.265	1314.833	996.281
78.680	14.253	1314.633	995.969
79.695	14.347	1313.516	995.596
80.709	14.461	1312.315	995.280
81.724	14.432	1311.822	994.645
82.739	14.514	1311.013	994.433
83.753	14.522	1310.088	993.691
84.768	14.664	1309.088	993.688
85.782	14.756	1307.861	993.221
86.797	14.583	1307.020	991.465
87.812	14.508	1306.019	990.174
88.826	14.598	1304.406	989.395
89.841	14.616	1303.228	988.520
90.855	14.662	1302.444	988.109
91.870	14.716	1301.292	987.468
92.884	14.701	1300.600	986.769
93.899	14.846	1299.411	986.633
94.914	14.814	1299.007	986.050
95.928	14.786	1298.053	985.074
96.943	14.736	1297.434	984.223
97.957	14.698	1296.363	983.099
98.972	14.783	1295.298	982.704
99.987	14.784	1294.237	981.819
101.001	14.733	1293.409	980.803
102.016	14.786	1292.310	980.197
103.030	14.699	1291.736	979.161
104.045	14.774	1290.191	978.342
105.060	14.690	1289.066	976.916
106.074	14.532	1287.770	974.918
107.089	14.474	1286.485	973.525
108.103	14.416	1285.202	972.128
109.118	14.444	1284.008	971.303
110.133	14.470	1282.604	970.304
111.147	14.447	1281.072	968.928
112.162	14.470	1280.083	968.225
113.176	14.553	1278.982	967.788
114.191	14.548	1277.839	966.812
115.206	14.550	1276.862	965.995
116.220	14.550	1275.741	965.066
117.235	14.563	1274.456	964.082
118.249	14.542	1273.242	962.958
119.264	14.521	1271.979	961.797
120.279	14.516	1271.121	961.031
121.293	14.366	1270.474	959.596
122.308	14.416	1269.299	958.911
123.322	14.494	1268.111	958.373
124.337	14.319	1267.317	956.688
125.352	14.378	1266.119	956.035
126.366	14.352	1264.968	954.936
127.381	14.345	1263.679	953.834
128.395	14.419	1262.600	953.359
129.410	14.411	1262.211	952.933
130.424	14.470	1261.291	952.493
131.439	14.459	1260.304	951.600
132.454	14.572	1259.164	951.300
133.468	14.574	1258.420	950.667
134.483	14.453	1258.242	949.758
135.497	14.623	1257.025	949.726
136.512	14.468	1255.775	947.813
137.527	14.619	1254.278	947.457
138.541	14.627	1252.703	946.226
139.556	14.500	1252.312	945.132
140.570	14.689	1250.736	944.926
141.585	14.707	1249.321	943.876
142.600	14.721	1248.182	943.011
143.614	14.864	1247.320	943.082
144.629	14.781	1246.532	941.936
145.643	14.920	1245.291	941.698
146.658	14.771	1243.919	939.741
147.673	14.717	1242.451	938.241
148.687	14.541	1242.103	936.908
149.702	14.618	1240.449	936.009
150.716	14.665	1238.730	934.894
151.731	14.741	1237.266	934.132
152.746	14.631	1236.915	933.167
153.760	14.596	1235.834	932.074
154.775	14.697	1234.542	931.581
155.789	14.821	1233.701	931.554
156.804	14.755	1232.705	930.352
157.819	14.822	1231.730	929.907
158.833	14.858	1231.096	929.549
159.848	14.955	1229.721	928.963
160.862	14.888	1228.741	927.774
161.877	14.842	1227.555	926.539
162.892	14.750	1226.632	925.251
163.906	14.792	1225.291	924.388
164.921	14.680	1224.921	923.407
165.935	14.745	1224.123	923.084
166.950	14.754	1223.242	922.389
167.964	14.829	1222.324	922.028
168.979	14.869	1221.628	921.641
169.994	14.889	1221.024	921.215
171.008	14.897	1220.394	920.702
172.023	14.914	1219.334	919.916
173.037	14.921	1219.123	919.711
174.052	14.952	1217.923	918.898
175.067	14.936	1216.307	917.511
176.081	14.800	1215.324	915.939
177.096	14.852	1214.748	915.712
178.110	14.817	1213.365	914.396
179.125	14.845	1212.280	913.649
180.140	14.880	1210.759	912.616
181.154	14.934	1209.786	912.097
182.169	14.956	1208.485	911.153
183.183	14.999	1207.808	910.793
184.198	15.097	1206.744	910.447
185.213	15.105	1205.228	909.262
186.227	15.067	1204.412	908.364
187.242	15.157	1203.276	907.914
188.256	15.233	1202.479	907.641
189.271	15.206	1201.750	906.865
190.286	15.109	1200.350	905.205
191.300	14.929	1199.545	903.547
192.315	14.855	1198.753	902.468
193.329	14.858	1198.311	902.071
194.344	14.838	1198.113	901.735
195.359	14.988	1197.056	901.668
196.373	15.063	1197.187	902.092
197.388	15.121	1196.311	901.665
198.402	15.313	1195.747	902.194
199.417	15.359	1195.262	901.995
200.432	15.398	1194.197	901.319
201.446	15.439	1193.602	901.015
202.461	15.457	1192.604	900.273
203.475	15.429	1191.746	899.396
204.490	15.376	1190.235	897.894
205.504	15.312	1189.138	896.645
206.519	15.248	1187.766	895.191
207.534	15.313	1186.637	894.605
208.548	15.319	1186.088	894.144
209.563	15.363	1185.307	893.709
210.577	15.322	1184.350	892.692
211.592	15.411	1183.192	892.212
212.607	15.477	1182.839	892.220
213.621	15.528	1182.078	891.837
214.636	15.426	1180.908	890.338
215.650	15.499	1180.163	890.082
216.665	15.613	1178.963	889.701
217.680	15.597	1178.159	888.929
218.694	15.587	1177.839	888.561
219.709	15.512	1177.072	887.505
220.723	15.553	1175.583	886.521
221.738	15.608	1175.529	886.690
222.753	15.591	1174.733	885.921
223.767	15.733	1173.526	885.684
224.782	15.785	1172.833	885.356
225.796	15.742	1172.620	884.889
226.811	15.727	1171.844	884.146
227.826	15.609	1171.181	882.948
228.840	15.677	1170.351	882.603
229.855	15.675	1169.673	882.002
230.869	15.706	1168.906	881.506
231.884	15.702	1167.846	880.607
232.899	15.624	1167.376	879.770
233.913	15.567	1166.181	878.491
234.928	15.482	1166.088	877.899
235.942	15.632	1165.316	878.023
236.957	15.503	1164.385	876.571
237.972	15.480	1163.844	875.966
238.986	15.575	1163.393	876.046
240.001	15.640	1161.927	875.201
241.015	15.692	1161.363	874.970
242.030	15.603	1160.966	874.129
243.045	15.743	1159.675	873.811
244.059	15.697	1159.000	872.984
245.074	15.786	1158.070	872.666
246.088	15.776	1157.448	872.069
247.103	15.935	1156.726	872.271
248.117	15.861	1156.085	871.328
249.132	15.998	1155.567	871.570
250.147	15.991	1154.900	870.956
251.161	16.107	1153.977	870.779
252.176	16.138	1153.762	870.700
253.190	16.302	1152.652	870.631
254.205	16.338	1152.143	870.355
255.220	16.333	1151.461	869.741
256.234	16.165	1151.079	868.505
257.249	16.202	1150.412	868.116
258.263	16.208	1149.595	867.454
259.278	16.250	1148.899	867.071
260.293	16.288	1148.312	866.742
261.307	16.428	1147.385	866.688
262.322	16.470	1146.631	866.257
263.336	16.375	1146.409	865.526
264.351	16.404	1145.898	865.208
265.366	16.453	1145.044	864.738
266.380	16.437	1144.275	863.999
267.395	16.374	1143.251	862.832
268.409	16.349	1142.319	861.920
269.424	16.346	1141.821	861.454
270.439	16.362	1141.492	861.214
271.453	16.380	1140.664	860.601
272.468	16.340	1139.756	859.638
273.482	16.394	1138.970	859.241
274.497	16.372	1138.359	858.593
275.512	16.406	1138.052	858.459
276.526	16.418	1136.979	857.635
277.541	16.429	1136.004	856.882
278.555	16.507	1135.649	856.932
279.570	16.627	1134.811	856.830
280.585	16.488	1134.629	855.916
281.599	16.591	1133.286	855.348
282.614	16.524	1132.235	854.141
283.628	16.598	1130.683	853.264
284.643	16.515	1130.360	852.526
285.657	16.362	1129.630	851.132
286.672	16.508	1128.674	851.072
287.687	16.598	1127.426	850.509
288.701	16.551	1126.916	849.809
289.716	16.594	1126.103	849.340
290.730	16.628	1125.547	849.013
291.745	16.572	1125.187	848.385
292.760	16.592	1124.382	847.805
293.774	16.829	1123.159	847.995
294.789	16.807	1123.156	847.804
295.803	16.776	1122.744	847.267
296.818	16.746	1121.605	846.180
297.833	16.700	1120.969	845.396
298.847	16.731	1120.088	844.812
299.862	16.711	1119.639	844.298
300.876	16.714	1118.966	843.731
301.891	16.757	1118.248	843.329
302.906	16.810	1117.691	843.096
303.920	16.903	1116.914	842.900
304.935	17.041	1116.108	842.905
305.949	17.042	1115.669	842.504
306.964	17.124	1115.094	842.399
307.979	16.987	1114.184	840.957
308.993	16.993	1113.297	840.247
310.008	16.997	1112.633	839.689
311.022	16.991	1112.318	839.350
312.037	16.933	1110.990	837.983
313.052	16.885	1110.439	837.258
314.066	16.929	1109.242	836.498
315.081	16.908	1108.468	835.735
316.095	16.858	1107.974	835.045
317.110	16.753	1107.115	833.804
318.125	16.901	1106.339	833.875
319.139	16.874	1105.327	832.906
320.154	16.927	1104.760	832.667
321.168	16.879	1104.433	832.110
322.183	16.856	1103.717	831.386
323.197	17.035	1103.209	831.804
324.212	16.960	1102.516	830.841
325.227	17.011	1102.078	830.690
326.241	17.017	1101.001	829.833
327.256	16.994	1100.741	829.449
328.270	17.031	1099.391	828.542
329.285	16.971	1098.607	827.583
330.300	16.959	1097.434	826.567
331.314	17.177	1096.677	826.988
332.329	17.158	1095.827	826.178
333.343	17.157	1094.842	825.358
334.358	17.111	1094.316	824.666
335.373	17.179	1093.393	824.228
336.387	17.256	1092.718	824.018
337.402	17.206	1092.064	823.213
338.416	17.288	1091.510	823.119
339.431	17.299	1090.685	822.475
340.446	17.307	1090.315	822.164
341.460	17.409	1089.671	822.096
342.475	17.437	1088.896	821.573
343.489	17.401	1088.091	820.719
344.504	17.509	1087.098	820.421
345.519	17.588	1086.275	820.106
346.533	17.583	1085.188	819.188
347.548	17.577	1084.647	818.678
348.562	17.621	1083.773	818.159
349.577	17.555	1082.911	817.120
350.592	17.547	1082.062	816.366
351.606	17.448	1081.478	815.379
352.621	17.315	1080.796	814.159
353.635	17.466	1080.065	814.259
354.650	17.502	1079.429	813.877
355.665	17.524	1078.372	813.112
356.679	17.488	1078.044	812.622
357.694	17.441	1077.779	812.125
358.708	17.578	1076.742	811.925
359.723	17.652	1075.878	811.556
360.738	17.609	1075.492	810.989
361.752	17.531	1075.466	810.526
362.767	17.620	1074.293	809.992
363.781	17.620	1074.268	809.904
364.796	17.634	1073.935	809.646
365.810	17.797	1072.712	809.424
366.825	17.790	1072.267	808.986
367.840	17.801	1071.986	808.751
368.854	17.929	1070.913	808.478
369.869	17.983	1070.249	808.164
370.883	17.914	1069.433	807.148
371.898	17.833	1068.948	806.329
372.913	17.888	1068.111	805.883
373.927	17.832	1068.150	805.576
374.942	17.966	1067.270	805.473
375.956	17.784	1067.044	804.376
376.971	17.933	1066.471	804.574
377.986	18.047	1065.395	804.228
379.000	18.049	1065.009	803.876
380.015	18.080	1064.538	803.595
381.029	18.163	1064.132	803.606
382.044	18.124	1063.280	802.706
383.059	18.119	1062.352	801.914
384.073	18.091	1061.579	801.126
385.088	18.185	1060.382	800.592
386.102	18.198	1059.688	800.058
387.117	18.070	1058.820	798.736
388.132	18.007	1057.889	797.668
389.146	18.062	1057.082	797.243
390.161	18.044	1056.523	796.668
391.175	17.920	1056.046	795.662
392.190	18.177	1055.327	796.244
393.205	18.133	1054.696	795.495
394.219	18.162	1053.512	794.665
395.234	18.067	1052.586	793.458
396.248	18.163	1051.501	793.012
397.263	18.024	1050.563	791.591
398.278	18.047	1049.687	790.968
399.292	18.033	1049.034	790.341
400.307	18.062	1048.354	789.891
401.321	18.086	1047.808	789.522
402.336	18.070	1047.276	788.979
403.350	18.114	1046.566	788.576
404.365	18.083	1045.785	787.777
405.380	18.064	1045.014	787.037
406.394	18.154	1044.575	787.052
407.409	18.360	1043.494	787.114
408.423	18.327	1043.358	786.790
409.438	18.474	1042.366	786.646
410.453	18.274	1041.817	785.244
411.467	18.412	1041.397	785.494
412.482	18.448	1040.665	785.035
413.496	18.571	1039.763	784.848
414.511	18.517	1039.144	784.064
415.526	18.615	1038.844	784.219
416.540	18.636	1038.505	783.989
417.555	18.608	1037.823	783.276
418.569	18.574	1037.317	782.668
419.584	18.522	1036.907	782.052
420.599	18.551	1036.511	781.816
421.613	150.467	1401.392	1795.206
422.628	137.469	1454.538	1795.304
