DTS Sentinel unit serial number:	SN413079Multiplexer serial number:	ORYXHardware model number:	OX4-SRSoftware version number:	ORYX F/W v4.00 Oryx Data Collector v3.7.2.0data status	okinstallation	princeton_trtdifferential loss correction	single-endedforward channel	channel 2reverse channel	N/Adate	2019/09/10time	19:05:11forward acquisition time	60.00reverse acquisition time	0.00gamma	496.2192k internal	0.2323k external	0.2323temperature offset calibration	0.9939default loss term (dB/km)	0.3790temperature slope calibration	1.0000multiplexer offset coefficient	1.0000multiplexer slope coefficient	1.0000fibre end	0.00T internal ref (°C)	34.37T ext. ref 1 (°C)	-0.34T ext. ref 2 (°C)	26.60length (m)	temperature (°C)	Stokes	anti-Stokes-747.200	-76.400	-0.215	0.076
-746.185	17.583	-0.131	0.105
-745.171	-81.403	-0.193	-0.064
-744.156	82.928	-0.187	0.206
-743.142	-148.765	-0.325	-0.027
-742.127	-43.549	0.348	0.177
-741.112	-40.507	-0.138	0.072
-740.098	-5.387	-0.333	0.231
-739.083	-100.837	0.063	0.016
-738.069	232.286	-0.127	0.211
-737.054	242.846	-0.058	0.099
-736.039	-139.093	-0.186	0.020
-735.025	-174.631	0.287	0.008
-734.010	-142.308	0.030	0.003
-732.996	-147.816	-0.208	0.018
-731.981	263.605	0.162	-0.285
-730.966	-200.000	-0.044	-0.246
-729.952	-88.114	-0.227	0.069
-728.937	-73.718	0.071	0.026
-727.923	175.167	-0.124	-0.181
-726.908	279.072	-0.132	-0.237
-725.894	665.754	0.095	-0.246
-724.879	-166.064	-0.454	0.020
-723.864	436.399	-0.021	0.047
-722.850	-98.768	-0.156	-0.040
-721.835	-59.196	-0.270	0.117
-720.821	-74.334	0.095	-0.034
-719.806	-159.755	-0.349	-0.019
-718.791	-54.577	-0.297	-0.136
-717.777	-200.000	-0.031	0.271
-716.762	-200.000	0.043	0.543
-715.748	-71.534	0.173	-0.065
-714.733	213.416	0.092	0.146
-713.718	11.609	0.157	0.122
-712.704	-106.485	-0.261	0.059
-711.689	-39.575	-0.185	0.098
-710.675	109.877	0.051	-0.061
-709.660	121.572	0.221	0.278
-708.645	79.668	0.046	0.050
-707.631	180.864	-0.097	-0.144
-706.616	327.633	0.215	-0.417
-705.602	-167.939	0.091	0.004
-704.587	-200.000	0.079	0.416
-703.572	-115.127	0.087	-0.017
-702.558	170.867	0.214	-0.309
-701.543	-200.000	-0.005	-0.170
-700.529	-200.000	0.047	-0.264
-699.514	800.000	0.120	-0.362
-698.499	800.000	0.037	-0.156
-697.485	145.440	-0.086	-0.116
-696.470	-54.108	0.496	0.228
-695.456	-200.000	0.013	-0.082
-694.441	-200.000	-0.021	-0.313
-693.426	740.246	0.067	-0.182
-692.412	-164.689	-0.289	0.013
-691.397	-200.000	-0.023	0.116
-690.383	-42.186	0.389	0.200
-689.368	800.000	-0.015	-0.052
-688.354	524.475	0.068	-0.162
-687.339	387.959	-0.042	-0.088
-686.324	310.470	-0.116	0.218
-685.310	316.075	-0.082	-0.155
-684.295	-65.495	-0.448	0.181
-683.281	45.428	0.236	-0.220
-682.266	115.276	0.050	0.061
-681.251	615.582	-0.054	0.136
-680.237	-84.056	-0.090	0.029
-679.222	-75.701	-0.189	0.068
-678.208	-117.811	-0.160	0.029
-677.193	800.000	0.020	-0.082
-676.178	-85.963	-0.021	0.007
-675.164	173.893	-0.123	-0.179
-674.149	-43.412	-0.116	-0.059
-673.135	-154.454	-0.089	-0.006
-672.120	-29.480	-0.131	0.076
-671.105	-200.000	-0.022	-0.107
-670.091	-92.116	0.460	-0.131
-669.076	-141.225	0.089	-0.009
-668.062	-200.000	-0.063	-0.293
-667.047	796.450	-0.071	0.196
-666.032	468.316	0.040	0.090
-665.018	361.348	-0.107	-0.216
-664.003	800.000	-0.099	-0.344
-662.989	-200.000	0.020	-0.104
-661.974	-200.000	0.019	-0.149
-660.959	-98.992	-0.418	0.107
-659.945	-200.000	0.022	0.332
-658.930	-200.000	0.013	-0.271
-657.916	130.639	0.210	-0.271
-656.901	-181.919	-0.258	0.005
-655.886	-85.994	0.105	0.033
-654.872	-47.186	0.290	-0.142
-653.857	-78.865	-0.149	0.051
-652.843	-0.616	-0.220	-0.157
-651.828	259.794	-0.073	-0.126
-650.814	-200.000	0.059	-0.273
-649.799	187.006	-0.163	-0.244
-648.784	-200.000	0.019	0.145
-647.770	125.063	-0.291	-0.369
-646.755	-6.572	0.123	-0.084
-645.741	-131.158	-0.161	-0.022
-644.726	441.987	0.090	0.197
-643.711	-114.818	-0.177	0.034
-642.697	800.000	-0.068	0.249
-641.682	-25.225	-0.240	0.143
-640.668	88.147	-0.152	0.170
-639.653	155.446	0.074	0.103
-638.638	-40.991	0.353	0.183
-637.624	190.624	-0.077	-0.116
-636.609	-70.706	0.080	0.030
-635.595	-200.000	-0.009	-0.351
-634.580	233.460	-0.072	-0.119
-633.565	182.671	-0.244	-0.362
-632.551	-200.000	0.049	0.234
-631.536	800.000	0.083	-0.345
-630.522	-151.088	0.218	0.017
-629.507	-200.000	-0.034	0.212
-628.492	800.000	-0.122	0.408
-627.478	-22.703	-0.066	-0.040
-626.463	319.076	-0.163	-0.311
-625.449	-46.510	0.022	-0.011
-624.434	352.933	0.033	-0.065
-623.419	800.000	-0.107	0.296
-622.405	157.325	-0.236	0.328
-621.390	486.716	0.082	0.188
-620.376	22.426	-0.195	0.160
-619.361	11.526	0.328	-0.253
-618.346	65.210	0.176	0.178
-617.332	24.433	0.214	0.178
-616.317	201.367	0.052	0.080
-615.303	631.367	0.094	-0.239
-614.288	3.247	-0.229	0.168
-613.273	3.369	-0.204	0.149
-612.259	-100.276	-0.439	0.110
-611.244	-103.694	0.179	-0.042
-610.230	-110.902	-0.186	-0.039
-609.215	-143.980	0.477	0.045
-608.201	800.000	0.105	0.337
-607.186	13.739	0.258	0.202
-606.171	102.110	0.243	0.286
-605.157	-161.331	0.278	-0.014
-604.142	-52.459	-0.307	-0.143
-603.128	44.737	0.082	0.076
-602.113	-33.514	-0.352	-0.195
-601.098	-97.559	-0.160	0.042
-600.084	-76.008	-0.152	-0.054
-599.069	245.454	0.145	0.244
-598.055	41.564	-0.345	-0.314
-597.040	103.441	0.171	0.201
-596.025	20.192	-0.274	-0.222
-595.011	800.000	0.011	-0.042
-593.996	-149.194	-0.171	-0.014
-592.982	136.117	0.147	0.192
-591.967	-41.035	0.438	0.227
-590.952	-200.000	0.039	0.285
-589.938	-200.000	-0.008	0.045
-588.923	-137.221	-0.454	-0.052
-587.909	-56.074	0.149	0.066
-586.894	800.000	-0.042	-0.157
-585.879	-152.425	0.175	0.013
-584.865	-85.302	0.411	-0.129
-583.850	-20.713	0.319	-0.196
-582.836	-38.109	0.302	0.161
-581.821	352.115	0.185	0.369
-580.806	-200.000	-0.001	-0.354
-579.792	800.000	-0.032	0.119
-578.777	-200.000	0.024	0.116
-577.763	-44.795	0.192	0.096
-576.748	102.365	0.332	-0.389
-575.733	-108.503	-0.231	-0.050
-574.719	350.468	-0.085	0.169
-573.704	800.000	0.009	0.038
-572.690	-98.356	0.127	0.033
-571.675	-200.000	-0.019	0.127
-570.661	27.802	0.199	-0.169
-569.646	320.403	-0.100	0.191
-568.631	-200.000	-0.010	-0.198
-567.617	186.476	0.116	-0.173
-566.602	275.571	0.063	-0.113
-565.588	-200.000	-0.011	0.063
-564.573	139.864	0.216	0.285
-563.558	-57.503	0.180	0.079
-562.544	-200.000	-0.032	0.402
-561.529	108.267	-0.038	0.046
-560.515	-112.792	-0.112	-0.022
-559.500	-200.000	0.009	-0.070
-558.485	35.183	0.244	-0.214
-557.471	-47.710	-0.149	0.072
-556.456	-57.255	-0.209	-0.092
-555.442	-176.638	0.166	-0.004
-554.427	100.468	0.045	0.052
-553.412	-51.742	-0.112	0.052
-552.398	102.539	-0.192	-0.225
-551.383	127.126	0.138	-0.176
-550.369	-200.000	-0.031	0.278
-549.354	-20.091	-0.488	-0.301
-548.339	41.046	-0.280	0.254
-547.325	-101.134	0.345	-0.085
-546.310	-11.201	0.097	0.064
-545.296	18.818	-0.335	0.269
-544.281	-125.935	0.156	0.024
-543.266	73.151	0.085	-0.089
-542.252	-189.213	0.132	0.002
-541.237	800.000	-0.097	-0.294
-540.223	109.948	-0.157	-0.188
-539.208	-18.051	-0.214	-0.134
-538.193	331.245	0.108	0.209
-537.179	-200.000	-0.028	-0.516
-536.164	800.000	0.040	-0.175
-535.150	-124.400	0.340	0.053
-534.135	800.000	-0.072	0.284
-533.121	-200.000	0.041	0.200
-532.106	124.474	-0.263	0.331
-531.091	-58.941	-0.121	-0.052
-530.077	-32.227	-0.097	0.055
-529.062	113.708	-0.159	-0.193
-528.048	800.000	-0.081	-0.241
-527.033	642.987	0.147	0.375
-526.018	186.459	0.114	-0.171
-525.004	732.871	-0.097	-0.260
-523.989	-86.535	-0.526	-0.161
-522.975	-57.818	-0.247	0.108
-521.960	22.462	0.236	0.193
-520.945	-115.959	0.163	-0.030
-519.931	694.617	-0.046	0.122
-518.916	-37.931	-0.188	-0.100
-517.902	-200.000	-0.039	-0.252
-516.887	-56.293	0.168	0.075
-515.872	800.000	-0.054	-0.165
-514.858	-175.623	0.349	-0.009
-513.843	-200.000	-0.001	-0.013
-512.829	18.845	0.185	0.148
-511.814	49.969	0.380	-0.359
-510.799	321.991	0.053	0.100
-509.785	-200.000	-0.014	0.105
-508.770	1.457	-0.036	0.026
-507.756	-189.820	-0.123	-0.001
-506.741	800.000	-0.014	0.047
-505.726	-200.000	0.008	0.034
-504.712	-2.722	-0.363	0.254
-503.697	-200.000	-0.014	-0.070
-502.683	-200.000	-0.003	0.106
-501.668	178.997	-0.248	0.362
-500.653	193.675	-0.081	-0.122
-499.639	-32.805	-0.187	-0.104
-498.624	-33.077	-0.217	-0.120
-497.610	188.520	-0.071	0.106
-496.595	-133.652	0.129	0.016
-495.581	-21.843	-0.121	0.073
-494.566	8.088	0.157	-0.118
-493.551	-200.000	-0.049	-0.240
-492.537	14.983	0.234	-0.183
-491.522	-57.509	0.046	0.020
-490.508	800.000	0.087	0.246
-489.493	150.502	-0.113	-0.154
-488.478	-200.000	-0.234	0.000
-487.464	800.000	-0.121	-0.343
-486.449	-200.000	0.042	0.214
-485.435	-200.000	-0.051	0.334
-484.420	-26.109	-0.033	-0.019
-483.405	64.301	-0.058	0.058
-482.391	-128.096	-0.119	-0.017
-481.376	800.000	-0.124	0.345
-480.362	-39.387	-0.264	-0.138
-479.347	36.895	0.214	-0.189
-478.332	103.076	-0.169	-0.197
-477.318	-98.555	0.041	-0.010
-476.303	5.329	0.101	0.074
-475.289	-74.692	-0.179	0.064
-474.274	-200.000	-0.389	-0.001
-473.259	-186.667	0.132	0.002
-472.245	-80.740	0.250	-0.083
-471.230	-198.986	-0.067	-0.000
-470.216	-83.259	-0.132	-0.042
-469.201	86.126	0.194	0.213
-468.186	21.551	0.256	0.208
-467.172	-5.381	0.099	0.068
-466.157	-200.000	0.042	0.321
-465.143	540.597	-0.021	-0.050
-464.128	267.867	0.097	0.170
-463.113	141.149	0.158	0.208
-462.099	-50.500	0.162	0.076
-461.084	757.895	-0.083	-0.225
-460.070	257.052	-0.052	-0.089
-459.055	-200.000	0.007	0.150
-458.040	-83.771	-0.214	-0.068
-457.026	-200.000	0.007	-0.152
-456.011	800.000	-0.045	0.145
-454.997	-16.947	-0.077	-0.048
-453.982	800.000	-0.056	-0.224
-452.968	-147.873	-0.191	0.016
-451.953	800.000	-0.040	0.119
-450.938	-37.017	-0.198	-0.106
-449.924	64.391	-0.221	-0.222
-448.909	-129.332	0.307	-0.043
-447.895	-73.186	-0.316	-0.115
-446.880	-37.892	0.080	-0.042
-445.865	123.348	0.177	-0.221
-444.851	216.410	-0.061	0.096
-443.836	51.374	0.085	-0.080
-442.822	268.231	-0.129	0.225
-441.807	800.000	0.059	0.193
-440.792	155.508	-0.121	0.166
-439.778	-70.407	-0.250	-0.094
-438.763	102.403	0.211	0.246
-437.749	-200.000	-0.002	-0.280
-436.734	-85.095	0.142	0.044
-435.719	-29.994	0.315	0.179
-434.705	-148.122	0.161	-0.013
-433.690	-54.256	-0.222	0.101
-432.676	-30.477	0.277	0.157
-431.661	-8.373	-0.167	-0.112
-430.646	800.000	-0.010	0.035
-429.632	255.349	-0.118	0.201
-428.617	-83.443	0.235	-0.075
-427.603	-104.279	0.232	-0.054
-426.588	167.249	0.162	-0.229
-425.573	165.869	-0.188	0.265
-424.559	-52.027	0.226	0.105
-423.544	-100.303	0.336	0.083
-422.530	-19.461	0.171	0.105
-421.515	-135.156	-0.213	0.026
-420.500	-4.100	-0.281	0.194
-419.486	-82.858	0.095	0.030
-418.471	369.185	0.107	0.215
-417.457	322.182	0.070	0.132
-416.442	134.470	-0.168	-0.217
-415.428	-102.146	0.134	0.032
-414.413	-98.897	-0.261	-0.066
-413.398	800.000	-0.045	-0.182
-412.384	-200.000	0.006	-0.107
-411.369	-145.685	0.599	-0.053
-410.355	-115.347	-0.476	-0.089
-409.340	-104.414	0.180	-0.041
-408.325	122.805	-0.030	-0.038
-407.311	-70.848	0.194	0.073
-406.296	652.545	-0.081	-0.207
-405.282	-39.551	0.122	-0.063
-404.267	-117.584	0.461	-0.083
-403.252	-200.000	0.057	-0.422
-402.238	46.112	-0.062	0.057
-401.223	-150.208	-0.141	0.011
-400.209	-183.605	-0.100	0.002
-399.194	800.000	0.044	-0.168
-398.179	-91.686	0.110	0.031
-397.165	383.855	0.092	-0.188
-396.150	63.211	0.122	0.122
-395.136	91.161	0.087	-0.097
-394.121	49.593	0.094	-0.089
-393.106	119.191	-0.072	0.089
-392.092	-55.574	0.175	-0.078
-391.077	174.018	-0.059	0.085
-390.063	800.000	-0.110	-0.339
-389.048	-36.655	-0.101	0.054
-388.033	309.909	-0.111	0.207
-387.019	-193.382	0.234	-0.002
-386.004	-15.779	-0.133	0.084
-384.990	475.293	0.059	0.132
-383.975	-61.902	0.273	0.114
-382.960	71.413	0.182	-0.189
-381.946	-200.000	0.024	-0.189
-380.931	206.111	-0.091	-0.141
-379.917	5.894	0.130	-0.096
-378.902	259.636	0.080	0.138
-377.888	-90.665	-0.126	0.036
-376.873	148.330	0.069	0.093
-375.858	488.667	-0.089	-0.201
-374.844	-114.713	-0.345	0.066
-373.829	-200.000	-0.008	0.213
-372.815	-82.688	-0.352	0.113
-371.800	74.526	-0.203	-0.212
-370.785	117.643	-0.224	0.274
-369.771	177.277	0.064	-0.093
-368.756	-176.154	-0.219	-0.006
-367.742	-180.088	0.328	0.007
-366.727	-96.742	0.347	0.091
-365.712	15.032	0.267	-0.208
-364.698	53.828	-0.220	-0.210
-363.683	-110.719	-0.428	-0.088
-362.669	800.000	0.099	-0.368
-361.654	-49.729	-0.091	-0.043
-360.639	121.591	-0.090	-0.111
-359.625	188.461	-0.013	-0.020
-358.610	-31.119	0.085	0.048
-357.596	-200.000	-0.037	-0.200
-356.581	206.364	0.224	-0.346
-355.566	-152.061	-0.138	-0.010
-354.552	12.000	0.185	0.142
-353.537	-160.352	-0.184	0.010
-352.523	44.330	0.136	-0.124
-351.508	671.517	0.054	0.140
-350.493	441.666	0.057	-0.124
-349.479	800.000	0.023	0.087
-348.464	54.916	-0.197	0.189
-347.450	41.150	0.284	-0.255
-346.435	-106.643	0.029	-0.006
-345.420	-93.925	-0.272	-0.074
-344.406	-200.000	0.038	0.412
-343.391	-60.057	0.146	0.062
-342.377	-54.392	0.145	-0.065
-341.362	96.728	0.193	-0.220
-340.348	800.000	0.043	-0.125
-339.333	800.000	0.067	-0.219
-338.318	-200.000	0.243	0.001
-337.304	-83.325	-0.166	0.053
-336.289	114.551	0.170	-0.206
-335.275	-169.068	0.234	-0.009
-334.260	368.092	0.128	0.257
-333.245	51.428	0.112	0.106
-332.231	-200.000	-0.004	-0.219
-331.216	214.655	0.063	0.099
-330.202	375.527	-0.025	0.052
-329.187	800.000	-0.046	0.132
-328.172	800.000	0.149	-0.593
-327.158	-200.000	0.026	0.177
-326.143	-200.000	0.001	0.123
-325.129	352.928	0.132	-0.260
-324.114	-200.000	0.002	0.369
-323.099	-47.647	-0.090	0.044
-322.085	7.473	0.068	0.050
-321.070	73.533	-0.027	-0.029
-320.056	13.808	0.042	-0.033
-319.041	-51.378	0.308	0.143
-318.026	172.513	0.173	-0.247
-317.012	3.455	0.135	-0.098
-315.997	52.281	0.286	0.271
-314.983	18.042	0.067	0.053
-313.968	800.000	0.026	-0.111
-312.953	-106.652	0.098	-0.022
-311.939	-200.000	0.043	-0.208
-310.924	800.000	0.067	-0.265
-309.910	456.600	-0.092	-0.203
-308.895	-56.379	-0.461	0.203
-307.880	198.708	-0.103	-0.156
-306.866	168.742	-0.212	-0.300
-305.851	800.000	-0.050	-0.157
-304.837	-91.011	0.357	0.102
-303.822	800.000	0.057	-0.193
-302.807	224.628	0.034	-0.054
-301.793	-200.000	-0.028	-0.202
-300.778	-146.448	-0.066	-0.006
-299.764	51.516	0.139	0.131
-298.749	-188.102	-0.181	0.002
-297.735	273.282	-0.063	-0.110
-296.720	274.277	-0.213	0.373
-295.705	397.731	-0.144	-0.299
-294.691	-37.394	-0.201	-0.107
-293.676	800.000	-0.035	-0.097
-292.662	-40.993	0.331	-0.170
-291.647	114.881	-0.207	-0.251
-290.632	-200.000	-0.010	-0.104
-289.618	302.013	0.165	-0.303
-288.603	25.487	-0.305	0.251
-287.589	-200.000	0.034	0.174
-286.574	-141.821	0.280	0.028
-285.559	-200.000	-0.006	-0.035
-284.545	800.000	-0.047	0.139
-283.530	116.682	0.111	0.135
-282.516	-200.000	-0.029	0.248
-281.501	241.310	-0.071	-0.117
-280.486	-200.000	-0.040	0.179
-279.472	14.211	0.087	-0.067
-278.457	197.081	0.060	-0.091
-277.443	23.862	-0.256	0.209
-276.428	134.615	-0.229	0.294
-275.413	-136.882	0.144	0.016
-274.399	-193.937	0.116	-0.001
-273.384	-117.146	-0.179	0.032
-272.370	-36.048	0.198	0.106
-271.355	268.247	0.091	-0.158
-270.340	-137.234	-0.168	-0.019
-269.326	-53.442	-0.117	0.053
-268.311	-70.877	0.109	0.041
-267.297	-200.000	0.018	0.292
-266.282	-200.000	-0.013	0.176
-265.267	-200.000	0.035	0.353
-264.253	14.929	0.058	0.045
-263.238	800.000	-0.033	-0.113
-262.224	111.825	-0.343	0.411
-261.209	-23.665	-0.235	-0.140
-260.195	-0.603	-0.102	0.071
-259.180	33.665	-0.199	-0.171
-258.165	159.432	0.131	-0.180
-257.151	-2.183	0.369	0.256
-256.136	159.589	0.059	0.082
-255.122	-169.820	-0.234	0.008
-254.107	232.685	-0.192	0.313
-253.092	440.509	-0.088	-0.190
-252.078	-192.565	-0.443	-0.004
-251.063	-118.256	-0.097	-0.017
-250.049	266.863	-0.102	-0.177
-249.034	-200.000	-0.006	-0.049
-248.019	800.000	0.053	0.207
-247.005	-200.000	-0.009	-0.060
-245.990	17.408	-0.145	-0.114
-244.976	-174.441	0.372	0.011
-243.961	-200.000	0.186	0.001
-242.946	-147.590	-0.393	-0.033
-241.932	551.001	0.079	0.187
-240.917	-200.000	0.008	-0.300
-239.903	178.401	0.139	0.200
-238.888	-13.288	-0.148	-0.095
-237.873	-17.133	-0.189	-0.118
-236.859	-133.730	0.147	0.018
-235.844	533.605	0.116	0.273
-234.830	-200.000	0.013	-0.273
-233.815	45.820	0.020	-0.018
-232.800	-200.000	0.006	0.232
-231.786	-75.615	-0.133	0.047
-230.771	-34.819	0.106	-0.057
-229.757	-95.818	-0.552	-0.146
-228.742	-200.000	-0.268	-0.001
-227.727	39.641	0.161	0.143
-226.713	780.241	0.069	-0.188
-225.698	-155.647	-0.204	0.013
-224.684	-15.964	-0.144	0.091
-223.669	-200.000	0.031	0.331
-222.655	23.575	-0.309	0.252
-221.640	-30.845	0.302	-0.169
-220.625	-200.000	-0.005	0.112
-219.611	-13.024	-0.279	0.180
-218.596	-73.429	-0.324	0.117
-217.582	-103.271	-0.516	-0.120
-216.567	-156.878	0.427	-0.026
-215.552	-144.376	-0.214	-0.020
-214.538	-94.401	-0.070	-0.019
-213.523	-30.097	0.167	-0.094
-212.509	8.656	-0.272	-0.203
-211.494	-74.785	0.082	-0.029
-210.479	396.485	0.091	0.189
-209.465	102.372	0.059	-0.069
-208.450	-0.943	-0.281	0.197
-207.436	150.850	-0.064	-0.087
-206.421	-23.747	-0.141	0.083
-205.406	-102.531	-0.227	-0.054
-204.392	164.336	-0.084	0.117
-203.377	49.216	-0.068	-0.064
-202.363	328.970	-0.102	0.193
-201.348	-200.000	0.007	-0.049
-200.333	149.395	0.172	-0.231
-199.319	-200.000	0.011	-0.099
-198.304	-92.999	0.252	0.070
-197.290	-200.000	0.011	-0.250
-196.275	748.005	0.078	-0.208
-195.260	8.466	0.170	0.126
-194.246	-158.886	-0.226	-0.013
-193.231	-200.000	0.006	0.088
-192.217	170.543	0.102	-0.144
-191.202	-99.882	-0.176	-0.044
-190.187	184.498	0.244	-0.357
-189.173	-56.408	0.154	-0.067
-188.158	150.347	-0.056	0.076
-187.144	-105.899	0.148	0.033
-186.129	220.806	-0.118	-0.188
-185.114	-93.714	-0.114	0.031
-184.100	-127.640	-0.083	-0.012
-183.085	-200.000	0.041	-0.251
-182.071	0.163	0.040	0.028
-181.056	-200.000	-0.028	0.220
-180.042	-165.822	0.330	-0.014
-179.027	800.000	-0.024	-0.084
-178.012	-82.197	0.230	-0.074
-176.998	800.000	-0.065	-0.240
-175.983	68.628	0.042	0.043
-174.969	24.771	0.173	0.142
-173.954	-200.000	-0.023	0.158
-172.939	491.259	-0.158	-0.358
-171.925	27.647	0.184	0.153
-170.910	350.534	0.067	-0.131
-169.896	68.455	0.155	0.157
-168.881	800.000	0.113	-0.385
-167.866	62.504	0.107	-0.106
-166.852	-148.445	0.118	0.010
-165.837	493.432	0.023	-0.052
-164.823	-41.742	0.088	-0.045
-163.808	-108.023	0.162	0.035
-162.793	-106.051	-0.006	0.001
-161.779	-102.877	-0.071	-0.017
-160.764	-200.000	-0.035	0.279
-159.750	-200.000	0.004	0.202
-158.735	-200.000	-0.025	0.206
-157.720	278.153	0.118	0.208
-156.706	-119.140	0.110	-0.019
-155.691	-200.000	0.004	0.354
-154.677	234.692	0.140	-0.228
-153.662	-90.056	-0.091	0.026
-152.647	-200.000	0.012	-0.063
-151.633	414.406	-0.068	-0.142
-150.618	-8.526	-0.151	-0.100
-149.604	113.598	0.064	-0.077
-148.589	-6.177	-0.092	-0.062
-147.574	-53.652	0.302	0.136
-146.560	-200.000	-0.010	-0.120
-145.545	63.487	-0.175	0.174
-144.531	-40.244	0.117	-0.060
-143.516	-59.848	-0.188	0.079
-142.502	-200.000	0.067	-0.445
-141.487	-200.000	-0.008	-0.465
-140.472	17.286	0.272	-0.213
-139.458	92.687	0.204	0.227
-138.443	-5.005	0.086	-0.058
-137.429	800.000	-0.019	0.070
-136.414	-76.964	-0.302	0.104
-135.399	-185.834	-0.279	-0.004
-134.385	-112.920	0.321	-0.063
-133.370	481.950	-0.166	0.373
-132.356	111.351	0.044	0.052
-131.341	-164.698	0.352	-0.016
-130.326	-51.115	-0.061	-0.028
-129.312	235.863	0.058	0.095
-128.297	-61.817	-0.241	-0.099
-127.283	-102.419	0.421	-0.099
-126.268	-58.698	0.270	-0.115
-125.253	15.396	-0.061	-0.047
-124.239	800.000	0.068	-0.219
-123.224	-52.578	-0.184	0.084
-122.210	-200.000	-0.017	0.110
-121.195	69.066	-0.160	0.162
-120.180	280.698	0.018	-0.031
-119.166	44.617	-0.162	0.147
-118.151	161.576	-0.192	-0.264
-117.137	-165.674	-0.196	0.008
-116.122	-133.871	-0.365	0.045
-115.107	559.221	-0.092	-0.220
-114.093	-200.000	0.007	0.212
-113.078	-53.712	0.046	-0.021
-112.064	-153.474	-0.557	-0.038
-111.049	-135.797	-0.115	0.013
-110.034	-25.297	-0.257	-0.150
-109.020	-61.780	-0.171	0.071
-108.005	223.580	0.077	0.123
-106.991	68.206	0.020	-0.020
-105.976	732.500	-0.063	0.165
-104.962	634.440	0.075	0.188
-103.947	72.701	0.201	0.207
-102.932	-33.053	0.354	0.194
-101.918	-86.328	0.266	-0.081
-100.903	-200.000	-0.001	0.238
-99.889	-200.000	-0.008	0.127
-98.874	65.905	-0.103	0.103
-97.859	33.781	0.351	0.301
-96.845	-140.429	-0.112	-0.012
-95.830	-200.000	0.007	0.070
-94.816	-82.547	-0.181	-0.058
-93.801	-122.355	0.168	-0.027
-92.786	-189.883	0.076	-0.001
-91.772	460.354	-0.067	0.148
-90.757	-69.515	-0.091	-0.034
-89.743	-111.815	-0.513	0.102
-88.728	-200.000	-0.014	-0.287
-87.713	-141.761	0.217	0.021
-86.699	21.266	-0.011	0.009
-85.684	-7.959	0.056	0.037
-84.670	121.341	-0.105	0.129
-83.655	-25.398	-0.325	0.189
-82.640	107.047	0.268	0.314
-81.626	51.047	-0.077	-0.071
-80.611	-7.236	-0.266	0.177
-79.597	-200.000	-0.022	0.295
-78.582	-155.339	0.343	-0.022
-77.567	-26.165	0.055	-0.032
-76.553	506.940	-0.110	0.252
-75.538	476.614	0.077	0.170
-74.524	178.867	-0.120	0.173
-73.509	-154.774	-0.290	-0.019
-72.494	123.753	0.042	0.052
-71.480	216.053	0.110	0.172
-70.465	99.323	-0.185	0.210
-69.451	2.587	0.099	0.070
-68.436	-200.000	0.012	-0.133
-67.422	793.863	0.124	-0.336
-66.407	-88.195	-0.156	0.046
-65.392	36.424	-0.084	0.073
-64.378	-200.000	0.017	-0.364
-63.363	70.971	-0.060	0.061
-62.349	609.830	0.158	0.389
-61.334	166.792	-0.644	-0.898
-60.319	99.826	0.460	0.524
-59.305	263.592	-0.446	-0.762
-58.290	126.613	0.721	0.897
-57.276	800.000	0.550	1.703
-56.261	-200.000	102.515	608.187
-55.246	617.290	1428.705	3524.328
-54.232	182.054	2651.833	3839.356
-53.217	114.954	2310.530	2770.483
-52.203	44.058	1920.205	1730.091
-51.188	37.678	1706.465	1488.866
-50.173	34.956	1661.509	1429.286
-49.159	52.612	1712.613	1607.564
-48.144	55.298	1729.531	1643.733
-47.130	37.264	1683.915	1465.840
-46.115	34.366	1668.682	1430.804
-45.100	34.268	1663.679	1425.720
-44.086	34.197	1661.413	1423.194
-43.071	34.207	1658.788	1420.960
-42.057	34.140	1656.580	1418.515
-41.042	34.178	1654.200	1416.704
-40.027	34.209	1652.413	1415.347
-39.013	34.343	1649.858	1414.101
-37.998	34.175	1648.618	1411.732
-36.984	34.228	1647.145	1410.805
-35.969	34.357	1645.515	1410.312
-34.954	34.376	1644.071	1409.156
-33.940	34.341	1642.199	1407.239
-32.925	34.405	1640.166	1405.910
-31.911	34.368	1638.467	1404.125
-30.896	34.446	1636.529	1402.985
-29.881	34.284	1635.451	1400.813
-28.867	34.382	1633.670	1399.953
-27.852	34.394	1632.041	1398.587
-26.838	34.340	1631.071	1397.307
-25.823	34.369	1629.080	1395.756
-24.809	34.424	1627.584	1394.826
-23.794	34.399	1626.166	1393.373
-22.779	34.491	1624.621	1392.663
-21.765	34.368	1623.651	1390.878
-20.750	34.387	1621.465	1389.089
-19.736	34.375	1620.045	1387.732
-18.721	34.459	1618.296	1386.786
-17.706	34.397	1616.625	1384.853
-16.692	34.341	1615.242	1383.203
-15.677	34.343	1614.275	1382.337
-14.663	34.330	1613.114	1381.190
-13.648	34.431	1611.352	1380.361
-12.633	34.403	1609.731	1378.716
-11.619	34.420	1608.141	1377.418
-10.604	34.457	1606.491	1376.220
-9.590	34.547	1604.853	1375.408
-8.575	34.393	1604.040	1373.550
-7.560	34.400	1602.680	1372.378
-6.546	34.416	1601.656	1371.568
-5.531	34.422	1600.352	1370.440
-4.517	34.411	1599.539	1369.605
-3.502	34.389	1597.998	1368.076
-2.487	34.442	1596.712	1367.301
-1.473	33.888	1584.814	1353.117
-0.458	30.600	1564.075	1312.196
0.556	24.014	1562.735	1274.071
1.571	21.415	1586.054	1274.059
2.586	20.803	1599.838	1280.516
3.600	18.902	1548.187	1225.524
4.615	10.360	1437.101	1080.728
5.629	1.584	1369.609	973.879
6.644	-0.221	1360.726	955.993
7.659	-0.351	1358.660	953.628
8.673	-0.308	1357.410	952.938
9.688	-0.490	1356.022	950.724
10.702	-0.727	1353.225	947.182
11.717	2.568	1359.516	972.437
12.731	11.643	1377.415	1043.301
13.746	18.120	1387.198	1092.128
14.761	18.735	1387.429	1096.135
15.775	18.794	1386.219	1095.463
16.790	18.772	1386.094	1095.127
17.804	18.878	1385.438	1095.186
18.819	19.029	1384.778	1095.530
19.834	19.125	1384.133	1095.529
20.848	19.146	1384.001	1095.465
21.863	19.148	1382.691	1094.343
22.877	19.069	1382.133	1093.302
23.892	19.086	1381.078	1092.478
24.907	19.083	1380.112	1091.597
25.921	19.208	1379.254	1091.617
26.936	19.160	1378.174	1090.358
27.950	19.068	1377.447	1089.111
28.965	19.069	1376.156	1087.996
29.980	19.175	1374.053	1086.904
30.994	19.152	1373.260	1086.041
32.009	19.128	1371.738	1084.587
33.023	19.062	1371.369	1083.781
34.038	19.097	1369.645	1082.544
35.053	19.098	1368.882	1081.850
36.067	19.074	1368.073	1080.970
37.082	19.115	1366.827	1080.147
38.096	19.106	1365.801	1079.184
39.111	19.097	1364.898	1078.319
40.126	19.161	1364.144	1078.028
41.140	19.151	1363.352	1077.239
42.155	19.042	1363.792	1076.813
43.169	19.019	1363.908	1076.667
44.184	19.120	1363.242	1076.674
45.199	19.089	1362.595	1075.875
46.213	19.049	1362.025	1075.078
47.228	19.054	1361.351	1074.482
48.242	19.085	1359.722	1073.298
49.257	19.011	1358.380	1071.683
50.271	19.089	1356.897	1070.902
51.286	19.094	1355.797	1069.973
52.301	19.122	1354.662	1069.151
53.315	19.089	1353.500	1067.938
54.330	19.096	1352.725	1067.277
55.344	19.177	1351.359	1066.604
56.359	19.117	1350.406	1065.386
57.374	18.903	1350.276	1063.863
58.388	19.053	1349.391	1064.003
59.403	19.064	1348.974	1063.648
60.417	19.040	1348.246	1062.831
61.432	19.014	1347.524	1062.003
62.447	19.082	1346.465	1061.495
63.461	19.190	1344.690	1060.671
64.476	19.093	1344.457	1059.794
65.490	19.194	1343.017	1059.187
66.505	19.109	1342.009	1057.779
67.520	19.186	1339.996	1056.570
68.534	19.150	1339.112	1055.555
69.549	19.150	1338.166	1054.715
70.563	19.122	1337.504	1053.929
71.578	19.019	1336.347	1052.298
72.593	19.045	1335.390	1051.606
73.607	19.190	1334.232	1051.487
74.622	19.083	1333.899	1050.479
75.636	19.064	1333.444	1049.916
76.651	19.111	1332.536	1049.391
77.666	19.186	1331.687	1049.087
78.680	19.156	1331.319	1048.524
79.695	19.122	1330.372	1047.476
80.709	19.147	1329.572	1046.906
81.724	19.153	1328.663	1046.136
82.739	19.081	1327.734	1044.870
83.753	19.061	1326.601	1043.768
84.768	19.076	1325.432	1042.848
85.782	19.046	1324.075	1041.503
86.797	19.152	1322.883	1041.115
87.812	19.113	1321.626	1039.800
88.826	19.069	1320.731	1038.735
89.841	19.213	1319.874	1038.841
90.855	19.216	1318.498	1037.682
91.870	19.103	1317.912	1036.448
92.884	19.229	1316.572	1036.063
93.899	19.122	1315.827	1034.743
94.914	19.172	1315.279	1034.518
95.928	19.184	1314.228	1033.675
96.943	19.176	1313.487	1032.952
97.957	19.246	1312.335	1032.374
98.972	19.147	1311.662	1031.157
99.987	19.284	1310.561	1031.019
101.001	19.244	1309.449	1029.814
102.016	19.165	1309.005	1028.902
103.030	19.105	1307.870	1027.561
104.045	19.186	1307.331	1027.530
105.060	19.191	1305.561	1026.078
106.074	19.203	1304.486	1025.214
107.089	19.192	1303.402	1024.208
108.103	19.192	1302.582	1023.471
109.118	19.256	1300.952	1022.480
110.133	19.211	1300.160	1021.500
111.147	19.270	1298.596	1020.531
112.162	19.336	1297.365	1019.863
113.176	19.271	1296.226	1018.491
114.191	19.271	1295.520	1017.851
115.206	19.272	1294.261	1016.775
116.220	19.316	1292.741	1015.751
117.235	19.262	1291.864	1014.653
118.249	19.241	1290.827	1013.626
119.264	19.215	1290.072	1012.790
120.279	19.225	1289.339	1012.183
121.293	19.289	1288.272	1011.632
122.308	19.241	1287.300	1010.496
123.322	19.387	1286.048	1010.285
124.337	19.259	1285.462	1008.984
125.352	19.388	1283.609	1008.190
126.366	19.227	1282.924	1006.624
127.381	19.265	1282.138	1006.141
128.395	19.262	1281.106	1005.223
129.410	19.335	1279.976	1004.675
130.424	19.221	1279.449	1003.507
131.439	19.294	1278.651	1003.221
132.454	19.328	1277.325	1002.289
133.468	19.271	1276.569	1001.273
134.483	19.300	1276.219	1001.080
135.497	19.352	1275.112	1000.425
136.512	19.302	1273.871	999.071
137.527	19.370	1272.281	998.132
138.541	19.348	1271.210	997.071
139.556	19.305	1269.850	995.670
140.570	19.178	1268.917	994.118
141.585	19.163	1267.798	993.066
142.600	19.196	1266.372	992.050
143.614	19.254	1265.562	991.663
144.629	19.253	1264.793	990.967
145.643	19.278	1263.812	990.253
146.658	19.143	1263.082	988.819
147.673	19.285	1261.132	988.018
148.687	19.304	1260.170	987.289
149.702	19.127	1259.177	985.407
150.716	19.177	1257.593	984.372
151.731	19.232	1257.126	984.232
152.746	19.309	1255.345	983.190
153.760	19.258	1254.630	982.253
154.775	19.229	1253.962	981.474
155.789	19.353	1252.710	981.114
156.804	19.201	1251.995	979.606
157.819	19.365	1250.412	979.210
158.833	19.298	1249.901	978.343
159.848	19.330	1249.164	977.861
160.862	19.375	1247.926	977.061
161.877	19.255	1247.620	976.056
162.892	19.224	1246.851	975.191
163.906	19.303	1245.889	974.797
164.921	19.389	1244.780	974.333
165.935	19.359	1243.922	973.402
166.950	19.360	1243.611	973.079
167.964	19.384	1242.952	972.615
168.979	19.401	1242.178	972.018
169.994	19.450	1241.478	971.660
171.008	19.407	1241.022	970.975
172.023	19.416	1240.225	970.316
173.037	19.458	1239.401	969.819
174.052	19.463	1238.590	969.131
175.067	19.389	1237.631	967.880
176.081	19.428	1236.906	967.442
177.096	19.398	1236.209	966.648
178.110	19.423	1234.915	965.690
179.125	19.542	1233.825	965.415
180.140	19.491	1232.711	964.173
181.154	19.494	1231.434	963.105
182.169	19.458	1230.831	962.348
183.183	19.474	1229.491	961.304
184.198	19.478	1228.676	960.607
185.213	19.417	1228.005	959.657
186.227	19.406	1227.338	958.988
187.242	19.478	1225.715	958.036
188.256	19.442	1225.538	957.614
189.271	19.387	1224.393	956.329
190.286	19.410	1223.694	955.827
191.300	19.523	1222.437	955.384
192.315	19.464	1222.234	954.815
193.329	19.579	1221.684	954.934
194.344	19.458	1221.619	954.129
195.359	19.520	1221.161	954.031
196.373	19.583	1220.233	953.569
197.388	19.481	1219.972	952.718
198.402	19.401	1219.722	951.996
199.417	19.489	1219.359	952.116
200.432	19.508	1218.689	951.611
201.446	19.487	1217.941	950.828
202.461	19.482	1217.398	950.292
203.475	19.519	1216.362	949.604
204.490	19.523	1215.244	948.668
205.504	19.434	1214.225	947.301
206.519	19.669	1213.140	947.659
207.534	19.620	1212.042	946.449
208.548	19.509	1211.130	945.046
209.563	19.605	1210.407	944.922
210.577	19.586	1209.375	943.930
211.592	19.564	1208.321	942.902
212.607	19.543	1208.202	942.616
213.621	19.621	1207.568	942.460
214.636	19.526	1206.946	941.374
215.650	19.652	1205.687	940.996
216.665	19.589	1205.075	940.093
217.680	19.477	1204.211	938.723
218.694	19.496	1203.441	938.146
219.709	19.607	1202.418	937.865
220.723	19.412	1202.494	936.787
221.738	19.529	1201.253	936.368
222.753	19.617	1200.088	935.853
223.767	19.494	1199.682	934.791
224.782	19.656	1199.303	935.291
225.796	19.711	1198.689	935.023
226.811	19.615	1197.915	933.822
227.826	19.680	1197.316	933.621
228.840	19.629	1196.732	932.809
229.855	19.687	1196.091	932.540
230.869	19.660	1195.469	931.824
231.884	19.705	1194.203	930.998
232.899	19.728	1193.592	930.561
233.913	19.729	1193.538	930.446
234.928	19.704	1192.998	929.809
235.942	19.791	1191.953	929.377
236.957	19.611	1191.729	928.154
237.972	19.793	1190.695	928.242
238.986	19.691	1190.294	927.299
240.001	19.719	1189.696	926.905
241.015	19.843	1188.461	926.524
242.030	19.727	1187.961	925.433
243.045	19.828	1186.989	925.133
244.059	19.836	1185.990	924.314
245.074	19.881	1185.336	923.965
246.088	19.958	1184.029	923.270
247.103	19.856	1183.756	922.436
248.117	19.840	1183.172	921.814
249.132	19.748	1182.539	920.748
250.147	19.897	1181.537	920.678
251.161	19.854	1180.898	919.873
252.176	19.740	1180.682	919.017
253.190	19.979	1179.488	919.275
254.205	19.992	1178.618	918.584
255.220	19.921	1178.584	918.096
256.234	19.992	1177.677	917.687
257.249	19.963	1177.113	917.010
258.263	19.877	1176.934	916.337
259.278	19.923	1176.078	915.831
260.293	20.012	1175.597	915.848
261.307	20.028	1174.943	915.340
262.322	19.944	1174.244	914.270
263.336	19.937	1173.654	913.696
264.351	20.027	1172.985	913.569
265.366	19.843	1172.658	912.264
266.380	20.019	1171.716	912.376
267.395	19.976	1170.852	911.398
268.409	19.934	1170.399	910.743
269.424	20.013	1169.953	910.728
270.439	19.970	1169.488	910.059
271.453	20.037	1168.714	909.732
272.468	20.055	1167.829	909.058
273.482	19.897	1166.955	907.467
274.497	20.050	1166.886	908.133
275.512	20.091	1166.097	907.655
276.526	20.011	1165.511	906.700
277.541	20.021	1164.848	906.154
278.555	20.142	1164.159	906.173
279.570	20.121	1163.429	905.414
280.585	19.983	1162.541	903.922
281.599	20.196	1161.500	904.145
282.614	20.055	1160.747	902.745
283.628	20.151	1159.858	902.470
284.643	20.056	1159.241	901.416
285.657	20.159	1157.838	900.780
286.672	20.217	1157.100	900.431
287.687	20.300	1156.241	900.110
288.701	20.108	1156.014	898.862
289.716	20.091	1155.609	898.379
290.730	20.236	1154.309	898.036
291.745	20.145	1153.766	897.066
292.760	20.281	1152.972	897.073
293.774	20.150	1152.870	896.235
294.789	20.300	1152.162	896.382
295.803	20.237	1151.787	895.685
296.818	20.181	1150.990	894.698
297.833	20.202	1150.386	894.256
298.847	20.280	1149.332	893.761
299.862	20.194	1148.983	892.967
300.876	20.202	1148.700	892.706
301.891	20.348	1147.651	892.564
302.906	20.350	1146.879	891.895
303.920	20.378	1146.216	891.443
304.935	20.311	1145.459	890.433
305.949	20.386	1144.702	890.148
306.964	20.368	1144.202	889.592
307.979	20.387	1143.685	889.207
308.993	20.458	1142.723	888.744
310.008	20.377	1142.318	887.935
311.022	20.482	1141.354	887.645
312.037	20.382	1140.878	886.685
313.052	20.431	1139.731	885.964
314.066	20.508	1138.688	885.468
315.081	20.481	1138.357	884.997
316.095	20.283	1138.421	883.956
317.110	20.456	1136.972	883.633
318.125	20.418	1136.425	882.940
319.139	20.468	1135.959	882.752
320.154	20.478	1135.110	882.065
321.168	20.465	1134.712	881.612
322.183	20.528	1134.084	881.365
323.197	20.545	1133.107	880.614
324.212	20.524	1132.714	880.122
325.227	20.535	1132.293	879.776
326.241	20.521	1131.918	879.333
327.256	20.543	1131.184	878.800
328.270	20.547	1130.042	877.852
329.285	20.558	1129.144	877.134
330.300	20.664	1128.261	876.904
331.314	20.645	1127.267	875.961
332.329	20.553	1127.258	875.410
333.343	20.590	1126.144	874.653
334.358	20.656	1125.348	874.290
335.373	20.669	1124.709	873.783
336.387	20.656	1123.991	873.080
337.402	20.683	1123.078	872.430
338.416	20.645	1122.710	871.876
339.431	20.672	1122.008	871.390
340.446	20.659	1121.841	871.116
341.460	20.565	1121.077	869.978
342.475	20.769	1120.071	870.140
343.489	20.722	1119.029	869.019
344.504	20.836	1117.998	868.711
345.519	20.724	1117.618	867.777
346.533	20.788	1116.793	867.382
347.548	20.816	1115.953	866.792
348.562	20.860	1115.160	866.318
349.577	20.776	1114.735	865.495
350.592	20.808	1113.409	864.543
351.606	20.826	1112.762	864.054
352.621	20.722	1112.658	863.384
353.635	20.833	1111.362	862.851
354.650	20.829	1111.414	862.796
355.665	20.883	1110.512	862.285
356.679	20.913	1110.067	862.011
357.694	20.735	1109.780	860.835
358.708	20.795	1108.872	860.348
359.723	20.771	1107.931	859.424
360.738	20.829	1107.221	859.082
361.752	20.834	1106.715	858.641
362.767	20.967	1106.151	858.781
363.781	20.967	1105.534	858.226
364.796	20.961	1105.215	857.875
365.810	21.066	1104.345	857.638
366.825	20.925	1103.770	856.422
367.840	21.140	1103.373	857.097
368.854	21.113	1102.531	856.231
369.869	21.041	1101.809	855.243
370.883	21.051	1100.981	854.575
371.898	21.033	1100.382	853.946
372.913	20.981	1100.247	853.512
373.927	20.917	1100.188	853.075
374.942	21.111	1099.189	853.171
375.956	21.041	1098.585	852.285
376.971	21.065	1098.304	852.110
377.986	20.999	1097.724	851.265
379.000	21.251	1096.597	851.544
380.015	21.166	1096.279	850.806
381.029	21.061	1095.943	849.957
382.044	21.133	1094.966	849.477
383.059	21.210	1093.896	848.944
384.073	21.152	1093.472	848.257
385.088	21.117	1093.083	847.713
386.102	21.195	1091.779	847.004
387.117	21.196	1090.951	846.293
388.132	21.213	1090.263	845.767
389.146	21.246	1089.395	845.177
390.161	21.169	1088.988	844.416
391.175	21.189	1088.490	844.048
392.190	21.145	1087.599	843.073
393.205	21.177	1086.673	842.432
394.219	21.268	1086.067	842.329
395.234	21.282	1085.444	841.838
396.248	21.305	1084.887	841.444
397.263	21.362	1083.820	840.815
398.278	21.403	1083.227	840.476
399.292	21.397	1082.416	839.745
400.307	21.417	1081.431	839.001
401.321	21.357	1081.111	838.390
402.336	21.315	1080.916	837.964
403.350	21.327	1079.716	837.021
404.365	21.437	1078.775	836.742
405.380	21.434	1078.307	836.291
406.394	21.424	1077.614	835.633
407.409	21.431	1077.050	835.151
408.423	21.516	1076.191	834.818
409.438	21.374	1075.703	833.688
410.453	21.400	1075.120	833.285
411.467	21.533	1073.787	832.812
412.482	21.452	1073.579	832.195
413.496	21.523	1072.697	831.771
414.511	21.475	1072.265	831.138
415.526	21.555	1071.841	831.115
416.540	21.522	1071.243	830.421
417.555	21.632	1070.764	830.497
418.569	21.635	1070.360	830.124
419.584	21.511	1069.667	828.928
420.599	21.434	1069.763	828.561
421.613	147.689	1395.870	1791.913
422.628	136.132	1443.343	1792.021
