DTS Sentinel unit serial number:	SN413079Multiplexer serial number:	ORYXHardware model number:	OX4-SRSoftware version number:	ORYX F/W v4.00 Oryx Data Collector v3.7.2.0data status	okinstallation	princeton_trtdifferential loss correction	single-endedforward channel	channel 2reverse channel	N/Adate	2019/09/14time	20:11:35forward acquisition time	60.00reverse acquisition time	0.00gamma	496.2192k internal	0.2321k external	0.2321temperature offset calibration	1.0093default loss term (dB/km)	0.3790temperature slope calibration	1.0000multiplexer offset coefficient	1.0000multiplexer slope coefficient	1.0000fibre end	0.00T internal ref (°C)	33.87T ext. ref 1 (°C)	4.87T ext. ref 2 (°C)	28.28length (m)	temperature (°C)	Stokes	anti-Stokes-747.200	-45.987	-0.268	-0.133
-746.185	466.892	-0.092	0.208
-745.171	800.000	0.143	-0.429
-744.156	248.571	-0.117	0.200
-743.142	-84.401	-0.106	0.034
-742.127	288.081	-0.086	0.158
-741.112	4.290	-0.220	-0.163
-740.098	236.584	0.100	-0.167
-739.083	193.333	-0.314	-0.479
-738.069	54.742	-0.191	-0.186
-737.054	2.513	-0.345	0.253
-736.039	-38.627	-0.152	0.081
-735.025	-200.000	-0.009	0.143
-734.010	13.140	0.160	0.125
-732.996	-200.000	-0.043	0.293
-731.981	344.870	-0.067	0.133
-730.966	33.994	-0.242	-0.213
-729.952	-56.861	0.156	-0.069
-728.937	-140.171	0.113	0.012
-727.923	800.000	0.032	-0.122
-726.908	-200.000	0.023	-0.250
-725.894	-62.211	-0.424	0.178
-724.879	397.452	-0.300	-0.633
-723.864	-200.000	-0.018	-0.152
-722.850	18.725	0.336	0.271
-721.835	7.234	0.161	-0.121
-720.821	-54.552	-0.257	0.117
-719.806	131.397	0.063	0.082
-718.791	-135.602	-0.272	0.033
-717.777	-49.472	-0.297	0.143
-716.762	302.311	-0.081	-0.150
-715.748	132.336	0.022	0.029
-714.733	289.380	0.118	-0.216
-713.718	37.515	0.070	0.063
-712.704	-115.740	-0.343	0.065
-711.689	800.000	0.023	-0.087
-710.675	-200.000	-0.046	-0.324
-709.660	-54.420	-0.246	0.113
-708.645	800.000	-0.043	-0.135
-707.631	-32.466	0.237	0.133
-706.616	-149.574	-0.315	-0.025
-705.602	218.618	0.060	0.097
-704.587	86.709	-0.246	-0.274
-703.572	-200.000	0.025	0.137
-702.558	-130.816	-0.315	-0.043
-701.543	800.000	-0.082	-0.245
-700.529	12.174	0.375	-0.291
-699.514	350.851	-0.124	-0.247
-698.499	-41.043	-0.264	-0.138
-697.485	800.000	-0.077	0.298
-696.470	-32.011	-0.164	0.092
-695.456	3.127	-0.112	-0.082
-694.441	-126.201	-0.304	0.046
-693.426	254.332	-0.153	-0.265
-692.412	725.827	-0.057	-0.154
-691.397	-148.453	-0.067	-0.006
-690.383	134.826	0.090	0.118
-689.368	-199.466	-0.463	0.002
-688.354	-39.064	-0.393	-0.208
-687.339	591.592	0.124	0.308
-686.324	-200.000	-0.030	0.204
-685.310	-200.000	-0.001	0.046
-684.295	1.337	-0.091	0.066
-683.281	587.525	-0.211	-0.524
-682.266	800.000	0.034	-0.100
-681.251	6.110	0.169	-0.126
-680.237	-123.980	0.072	0.011
-679.222	0.480	0.059	0.043
-678.208	800.000	0.073	-0.321
-677.193	-200.000	-0.054	-0.422
-676.178	110.501	0.151	0.183
-675.164	800.000	-0.056	-0.245
-674.149	-85.412	-0.404	0.127
-673.135	800.000	0.092	-0.313
-672.120	-39.074	-0.341	0.181
-671.105	67.788	0.140	0.144
-670.091	624.906	0.162	0.412
-669.076	800.000	-0.032	0.138
-668.062	-113.397	-0.091	0.018
-667.047	3.713	-0.124	-0.091
-666.032	219.810	0.070	-0.112
-665.018	-110.782	-0.167	0.035
-664.003	-176.478	-0.081	-0.002
-662.989	310.502	0.196	-0.370
-661.974	92.128	0.145	0.165
-660.959	-200.000	0.023	0.107
-659.945	451.633	-0.079	-0.176
-658.930	-143.209	0.219	0.021
-657.916	-36.784	-0.170	0.092
-656.901	-106.125	-0.291	-0.066
-655.886	58.937	0.057	-0.057
-654.872	-60.490	-0.093	-0.040
-653.857	-127.285	0.136	-0.020
-652.843	-130.108	0.316	-0.043
-651.828	-200.000	-0.008	-0.162
-650.814	-17.369	-0.162	0.103
-649.799	-200.000	-0.017	0.347
-648.784	107.249	-0.012	-0.015
-647.770	78.673	0.156	0.168
-646.755	191.457	-0.120	-0.181
-645.741	-38.182	0.334	-0.178
-644.726	15.302	0.132	0.104
-643.711	101.147	-0.157	0.184
-642.697	800.000	0.070	-0.310
-641.682	469.846	0.105	-0.237
-640.668	-200.000	0.019	-0.138
-639.653	-200.000	0.022	-0.285
-638.638	-123.780	-0.426	-0.068
-637.624	342.571	-0.054	-0.105
-636.609	-200.000	-0.032	-0.298
-635.595	33.463	-0.072	-0.063
-634.580	-106.432	-0.087	0.020
-633.565	94.073	-0.183	-0.209
-632.551	-127.407	0.367	-0.054
-631.536	-200.000	-0.007	0.075
-630.522	239.690	0.132	-0.221
-629.507	-139.207	-0.320	-0.035
-628.492	-86.643	0.245	0.076
-627.478	88.334	0.090	0.100
-626.463	-200.000	0.029	0.485
-625.449	60.384	0.107	0.107
-624.434	-150.029	-0.448	-0.035
-623.419	104.458	0.310	-0.367
-622.405	-33.415	0.189	-0.105
-621.390	22.097	-0.385	-0.316
-620.376	-112.570	0.184	0.037
-619.361	-200.000	-0.042	-0.291
-618.346	-200.000	-0.088	-0.394
-617.332	800.000	-0.039	-0.151
-616.317	29.807	0.363	0.311
-615.303	96.237	-0.282	-0.324
-614.288	112.268	-0.231	-0.281
-613.273	-198.287	0.133	-0.001
-612.259	-122.316	0.123	0.020
-611.244	91.678	-0.106	0.120
-610.230	-116.770	0.229	-0.042
-609.215	-200.000	0.019	0.287
-608.201	142.683	0.107	-0.143
-607.186	41.389	0.166	0.151
-606.171	-140.746	0.163	0.017
-605.157	-200.000	-0.001	0.133
-604.142	54.034	-0.140	0.135
-603.128	-56.048	-0.250	-0.112
-602.113	-200.000	0.030	-0.170
-601.098	-114.392	0.139	0.027
-600.084	-37.256	-0.308	0.165
-599.069	-63.194	0.166	0.069
-598.055	301.507	0.130	0.241
-597.040	63.451	0.152	-0.153
-596.025	-106.400	-0.157	-0.035
-595.011	3.200	-0.074	0.054
-593.996	633.444	-0.068	-0.174
-592.982	-200.000	-0.039	0.386
-591.967	564.740	0.142	0.346
-590.952	-123.012	-0.156	0.025
-589.938	39.465	0.143	-0.129
-588.923	-200.000	0.005	0.376
-587.909	26.311	0.184	-0.154
-586.894	-200.000	0.038	0.192
-585.879	315.256	0.050	0.094
-584.865	-47.968	-0.171	-0.083
-583.850	7.810	-0.109	-0.082
-582.836	153.443	-0.175	0.241
-581.821	-80.700	-0.173	0.058
-580.806	-200.000	0.032	-0.239
-579.792	-81.380	0.448	-0.148
-578.777	-108.704	-0.307	-0.066
-577.763	-36.518	0.104	0.056
-576.748	-69.566	0.200	-0.077
-575.733	494.939	-0.078	-0.180
-574.719	-58.832	-0.310	-0.135
-573.704	-140.830	-0.354	-0.037
-572.690	-8.342	-0.277	-0.187
-571.675	282.750	-0.128	-0.231
-570.661	67.422	0.011	0.011
-569.646	-42.666	-0.122	0.062
-568.631	65.948	0.085	-0.086
-567.617	-154.979	-0.240	-0.016
-566.602	-73.476	-0.124	-0.045
-565.588	429.498	0.161	-0.349
-564.573	-200.000	0.041	0.287
-563.558	-69.933	-0.044	0.017
-562.544	-4.561	-0.192	-0.133
-561.529	-200.000	-0.023	-0.171
-560.515	-11.206	-0.109	0.072
-559.500	103.815	0.188	-0.222
-558.485	-91.858	-0.117	0.033
-557.471	-85.493	0.242	0.076
-556.456	9.462	-0.039	0.030
-555.442	-24.684	-0.290	0.173
-554.427	185.443	-0.047	0.071
-553.412	126.957	-0.274	-0.348
-552.398	-13.966	-0.312	-0.202
-551.383	275.981	-0.150	0.268
-550.369	-43.797	0.257	-0.130
-549.354	-155.260	0.101	-0.007
-548.339	84.662	-0.111	-0.121
-547.325	1.646	0.107	0.077
-546.310	-200.000	-0.000	-0.132
-545.296	-200.000	-0.036	0.200
-544.281	-138.263	-0.115	0.013
-543.266	-200.000	0.010	0.084
-542.252	-200.000	-0.042	-0.305
-541.237	12.191	-0.069	0.053
-540.223	-22.253	-0.048	0.029
-539.208	73.342	-0.117	-0.122
-538.193	-18.536	0.112	-0.070
-537.179	-183.981	-0.155	-0.003
-536.164	38.395	0.202	0.180
-535.150	-178.427	-0.200	0.005
-534.135	-200.000	-0.006	-0.112
-533.121	-200.000	-0.018	-0.133
-532.106	-73.684	-0.251	0.091
-531.091	-165.722	0.330	0.014
-530.077	-72.541	0.120	0.044
-529.062	-200.000	-0.002	-0.296
-528.048	800.000	-0.051	0.215
-527.033	674.334	-0.095	0.248
-526.018	248.099	0.040	0.068
-525.004	-156.026	0.043	0.003
-523.989	-200.000	0.042	0.188
-522.975	800.000	0.035	0.146
-521.960	-190.918	0.384	-0.004
-520.945	359.276	0.131	-0.262
-519.931	-95.937	-0.147	0.039
-518.916	-126.729	-0.217	0.032
-517.902	-27.373	0.051	-0.030
-516.887	-98.870	-0.247	0.063
-515.872	-200.000	0.056	-0.443
-514.858	51.603	0.244	0.232
-513.843	-179.148	0.284	0.006
-512.829	-140.166	-0.112	-0.012
-511.814	-111.728	-0.297	0.060
-510.799	-200.000	-0.005	0.100
-509.785	-136.282	-0.066	0.008
-508.770	90.440	0.024	0.027
-507.756	-134.335	0.083	-0.010
-506.741	-92.020	0.191	-0.054
-505.726	82.380	-0.200	0.217
-504.712	800.000	-0.019	-0.066
-503.697	263.293	0.109	-0.189
-502.683	58.929	0.224	0.221
-501.668	800.000	-0.027	0.096
-500.653	-73.166	-0.043	0.016
-499.639	539.084	0.049	-0.116
-498.624	-101.934	-0.205	0.049
-497.610	78.064	-0.151	0.161
-496.595	43.012	0.300	-0.274
-495.581	101.408	0.253	0.295
-494.566	-200.000	-0.031	-0.270
-493.551	57.794	-0.367	-0.359
-492.537	-63.719	-0.353	0.145
-491.522	504.729	-0.110	-0.256
-490.508	-102.548	-0.191	-0.046
-489.493	-156.141	-0.127	-0.008
-488.478	-171.482	0.180	0.006
-487.464	38.359	-0.135	-0.120
-486.449	-120.905	-0.392	-0.066
-485.435	-200.000	-0.078	-0.398
-484.420	-116.352	0.376	-0.070
-483.405	800.000	-0.056	-0.168
-482.391	188.218	-0.235	0.352
-481.376	-200.000	0.002	-0.256
-480.362	-200.000	0.014	0.129
-479.347	-200.000	0.020	0.274
-478.332	-70.486	-0.247	0.094
-477.318	-64.083	-0.274	-0.112
-476.303	-158.362	0.075	0.004
-475.289	800.000	-0.007	-0.027
-474.274	800.000	0.033	0.107
-473.259	800.000	0.080	0.298
-472.245	-40.624	0.195	0.101
-471.230	80.142	-0.102	0.109
-470.216	-106.806	0.197	-0.044
-469.201	-200.000	-0.003	0.032
-468.186	-200.000	0.007	0.147
-467.172	478.782	-0.030	0.068
-466.157	628.370	-0.048	-0.121
-465.143	-200.000	-0.019	-0.151
-464.128	-200.000	-0.075	-0.361
-463.113	76.917	-0.060	0.063
-462.099	-178.229	0.445	-0.010
-461.084	38.496	0.055	-0.049
-460.070	-122.621	-0.294	-0.048
-459.055	-200.000	0.030	0.189
-458.040	-200.000	0.028	0.179
-457.026	-49.997	0.262	0.124
-456.011	-82.584	0.175	-0.057
-454.997	48.184	0.124	-0.116
-453.982	-200.000	0.040	0.340
-452.968	632.336	-0.070	0.177
-451.953	-63.798	0.133	0.054
-450.938	-200.000	-0.008	0.101
-449.924	-120.535	0.329	-0.056
-448.909	1.906	0.149	-0.107
-447.895	800.000	-0.066	-0.279
-446.880	-19.551	0.230	0.142
-445.865	-87.393	-0.295	0.089
-444.851	154.280	0.082	-0.112
-443.836	438.560	-0.087	0.190
-442.822	240.449	-0.077	0.128
-441.807	-200.000	0.016	-0.204
-440.792	-200.000	-0.026	-0.133
-439.778	-69.276	-0.031	-0.012
-438.763	518.227	-0.064	-0.149
-437.749	-200.000	-0.013	-0.119
-436.734	96.808	0.172	0.196
-435.719	-158.596	-0.254	0.015
-434.705	-190.210	0.191	-0.002
-433.690	-20.509	-0.143	0.088
-432.676	570.118	0.050	-0.122
-431.661	313.267	-0.144	0.271
-430.646	800.000	0.046	0.165
-429.632	-200.000	-0.008	-0.337
-428.617	-200.000	0.049	0.258
-427.603	-200.000	-0.011	0.050
-426.588	158.640	-0.186	-0.258
-425.573	98.231	-0.127	0.146
-424.559	271.879	0.211	0.371
-423.544	137.650	-0.218	-0.285
-422.530	166.322	-0.094	-0.132
-421.515	800.000	0.133	0.401
-420.500	-123.068	-0.167	0.027
-419.486	-200.000	-0.005	-0.162
-418.471	3.202	-0.019	0.013
-417.457	364.958	-0.055	0.111
-416.442	329.271	0.047	0.091
-415.428	800.000	-0.010	0.031
-414.413	-200.000	-0.018	-0.097
-413.398	-200.000	0.017	-0.174
-412.384	33.880	0.224	0.195
-411.369	-131.307	-0.344	-0.045
-410.355	-29.386	-0.130	0.074
-409.340	800.000	0.046	0.158
-408.325	-49.542	0.082	-0.039
-407.311	-66.094	-0.262	0.104
-406.296	0.477	0.379	0.270
-405.282	69.596	0.166	-0.171
-404.267	576.533	0.019	-0.047
-403.252	-113.232	-0.247	0.048
-402.238	-12.336	-0.303	0.197
-401.223	-44.409	-0.264	-0.132
-400.209	-46.505	-0.239	-0.117
-399.194	402.211	-0.141	-0.295
-398.179	-75.080	-0.288	0.103
-397.165	-97.554	0.383	0.099
-396.150	-136.467	0.078	0.009
-395.136	307.684	-0.071	0.132
-394.121	349.777	-0.150	-0.295
-393.106	800.000	0.031	0.126
-392.092	-200.000	-0.016	0.093
-391.077	-56.610	0.401	-0.177
-390.063	233.278	-0.077	-0.127
-389.048	-22.807	-0.033	0.020
-388.033	-112.896	0.278	0.055
-387.019	-46.871	-0.367	-0.179
-386.004	-8.889	0.033	-0.022
-384.990	150.138	-0.182	0.246
-383.975	25.527	-0.266	-0.221
-382.960	-134.082	0.173	-0.021
-381.946	-200.000	-0.037	0.443
-380.931	19.144	0.044	-0.035
-379.917	-121.633	0.199	-0.033
-378.902	375.203	-0.147	-0.299
-377.888	317.161	-0.012	0.022
-376.873	-7.011	-0.225	-0.152
-375.858	-200.000	0.022	0.178
-374.844	-200.000	-0.013	0.208
-373.829	800.000	-0.021	0.071
-372.815	369.590	0.184	-0.371
-371.800	-131.714	-0.098	0.013
-370.785	-27.277	-0.108	0.063
-369.771	-200.000	0.001	0.010
-368.756	367.898	0.044	-0.090
-367.742	162.984	-0.119	-0.167
-366.727	356.095	-0.074	-0.148
-365.712	32.817	0.207	0.179
-364.698	83.717	0.178	0.193
-363.683	-111.146	-0.171	0.035
-362.669	-61.774	-0.236	-0.098
-361.654	-37.198	0.231	-0.123
-360.639	-59.272	-0.253	-0.109
-359.625	237.867	-0.131	0.216
-358.610	-200.000	-0.069	0.350
-357.596	-102.952	0.008	-0.002
-356.581	-200.000	0.012	-0.060
-355.566	-69.825	-0.262	0.100
-354.552	6.305	-0.064	0.047
-353.537	-48.077	0.216	-0.104
-352.523	800.000	-0.140	-0.386
-351.508	95.123	0.146	-0.165
-350.493	606.064	-0.052	-0.128
-349.479	29.322	0.092	0.078
-348.464	668.314	-0.050	0.128
-347.450	174.127	0.254	-0.365
-346.435	125.715	-0.080	-0.101
-345.420	-200.000	0.074	-0.425
-344.406	-117.427	-0.479	-0.086
-343.391	-13.974	0.093	-0.060
-342.377	-46.110	0.142	0.070
-341.362	-200.000	0.037	0.162
-340.348	-200.000	0.042	0.202
-339.333	429.740	0.064	-0.138
-338.318	440.352	-0.075	-0.164
-337.304	-200.000	-0.030	-0.244
-336.289	-158.469	-0.527	0.030
-335.275	-3.522	0.217	0.150
-334.260	54.632	0.139	0.134
-333.245	100.839	0.118	0.136
-332.231	800.000	0.063	0.244
-331.216	-131.929	-0.032	0.004
-330.202	-159.077	0.215	-0.012
-329.187	-200.000	0.009	0.225
-328.172	-200.000	-0.018	0.240
-327.158	748.498	-0.044	-0.117
-326.143	-39.143	0.278	0.145
-325.129	-49.185	-0.277	0.132
-324.114	118.281	0.234	-0.287
-323.099	-55.806	0.167	-0.074
-322.085	-104.985	0.102	0.023
-321.070	-100.295	0.197	-0.049
-320.056	-137.715	0.138	-0.015
-319.041	265.219	0.113	-0.196
-318.026	-112.709	-0.297	0.059
-317.012	-132.474	0.291	0.037
-315.997	62.116	0.128	0.127
-314.983	177.656	-0.125	0.180
-313.968	-118.039	0.098	-0.017
-312.953	-200.000	-0.010	0.252
-311.939	-4.230	0.231	0.159
-310.924	-200.000	0.001	-0.131
-309.910	262.729	0.003	-0.006
-308.895	215.620	-0.117	0.185
-307.880	-36.608	-0.249	-0.133
-306.866	-26.664	0.262	0.152
-305.851	-5.900	-0.143	0.097
-304.837	12.541	0.109	0.084
-303.822	458.293	0.029	-0.064
-302.807	800.000	0.029	0.081
-301.793	-200.000	-0.051	-0.305
-300.778	-200.000	-0.004	0.121
-299.764	-200.000	0.059	0.327
-298.749	704.742	-0.105	-0.274
-297.735	-25.940	-0.325	-0.190
-296.720	18.571	0.155	-0.123
-295.705	4.741	0.300	-0.219
-294.691	-53.037	0.221	-0.101
-293.676	295.862	0.097	-0.176
-292.662	50.201	0.396	0.371
-291.647	-91.715	0.283	0.080
-290.632	-31.677	-0.131	0.073
-289.618	-200.000	0.021	0.181
-288.603	170.904	0.090	-0.128
-287.589	10.049	-0.203	-0.153
-286.574	-89.249	-0.162	0.047
-285.559	-150.261	0.190	0.015
-284.545	-8.234	0.210	-0.141
-283.530	-97.180	0.227	0.059
-282.516	-200.000	0.049	0.493
-281.501	69.693	0.100	0.103
-280.486	15.024	-0.124	0.096
-279.472	-88.661	0.182	0.054
-278.457	800.000	-0.031	0.116
-277.443	-200.000	-0.026	0.387
-276.428	62.008	0.189	-0.187
-275.413	27.284	-0.125	-0.104
-274.399	165.119	-0.038	-0.053
-273.384	800.000	-0.038	-0.136
-272.370	-122.656	-0.305	-0.049
-271.355	-47.099	0.172	0.083
-270.340	-200.000	0.006	-0.228
-269.326	123.404	-0.117	-0.146
-268.311	81.848	0.177	0.191
-267.297	118.552	-0.283	0.346
-266.282	-200.000	-0.009	-0.062
-265.267	-12.027	0.152	0.099
-264.253	800.000	0.054	0.190
-263.238	-148.229	0.171	-0.014
-262.224	-83.502	-0.120	-0.038
-261.209	800.000	-0.103	0.317
-260.195	-105.487	-0.217	0.049
-259.180	59.457	0.219	-0.214
-258.165	-114.966	0.358	0.067
-257.151	800.000	-0.016	-0.047
-256.136	-200.000	0.021	-0.149
-255.122	-200.000	0.034	-0.162
-254.107	-200.000	0.036	-0.186
-253.092	247.804	0.148	0.249
-252.078	495.574	0.080	-0.183
-251.063	-71.996	0.245	-0.090
-250.049	-155.789	0.085	-0.005
-249.034	-200.000	0.046	-0.438
-248.019	384.156	-0.090	-0.183
-247.005	-12.398	0.104	-0.067
-245.990	102.295	0.178	-0.207
-244.976	-39.100	0.143	0.075
-243.961	-118.143	0.191	-0.034
-242.946	-140.243	0.132	-0.014
-241.932	-185.214	-0.268	0.004
-240.917	-55.788	-0.005	0.002
-239.903	-200.000	-0.000	-0.029
-238.888	68.885	-0.089	-0.090
-237.873	164.324	-0.079	0.111
-236.859	11.097	-0.303	-0.229
-235.844	344.421	0.061	0.118
-234.830	-175.675	-0.164	-0.004
-233.815	-104.905	0.158	0.036
-232.800	135.829	0.134	-0.173
-231.786	800.000	-0.059	-0.243
-230.771	-200.000	0.040	-0.250
-229.757	341.549	0.124	-0.241
-228.742	14.619	0.295	0.228
-227.727	384.588	0.110	-0.225
-226.713	-200.000	0.027	0.143
-225.698	42.862	0.152	0.138
-224.684	592.454	0.137	0.336
-223.669	403.152	0.198	0.411
-222.655	-128.123	-0.108	-0.015
-221.640	-200.000	-0.035	-0.210
-220.625	-14.205	-0.211	0.135
-219.611	117.512	-0.167	-0.203
-218.596	64.673	0.163	0.163
-217.582	152.548	-0.019	-0.026
-216.567	-124.371	-0.212	0.033
-215.552	147.239	-0.045	0.060
-214.538	-25.551	0.323	0.189
-213.523	-65.881	0.183	-0.072
-212.509	-38.149	-0.100	0.053
-211.494	-1.341	-0.280	-0.195
-210.479	349.156	-0.025	0.048
-209.465	329.467	-0.042	0.080
-208.450	373.925	0.078	0.158
-207.436	-200.000	-0.027	0.145
-206.421	29.372	-0.154	0.130
-205.406	-200.000	0.061	-0.349
-204.392	-159.464	0.241	-0.013
-203.377	-99.598	0.396	-0.098
-202.363	-200.000	-0.089	0.572
-201.348	-190.055	-0.298	-0.003
-200.333	251.912	0.106	-0.179
-199.319	-200.000	-0.041	0.182
-198.304	-200.000	0.004	0.044
-197.290	-17.517	-0.224	0.140
-196.275	-105.559	0.277	0.062
-195.260	303.684	0.078	-0.143
-194.246	59.741	-0.059	-0.057
-193.231	-122.391	-0.070	0.011
-192.217	-200.000	0.049	0.349
-191.202	-103.049	-0.501	-0.117
-190.187	117.842	0.177	-0.215
-189.173	-50.510	0.114	0.053
-188.158	-55.509	0.136	0.060
-187.144	628.142	-0.081	0.203
-186.129	-23.121	-0.352	-0.210
-185.114	-124.822	-0.352	-0.054
-184.100	-80.371	-0.148	-0.049
-183.085	204.563	0.055	0.085
-182.071	701.773	0.063	0.165
-181.056	-59.805	-0.050	-0.021
-180.042	299.347	0.068	-0.124
-179.027	61.844	0.109	0.107
-178.012	186.895	0.233	0.343
-176.998	-1.562	-0.052	-0.036
-175.983	0.279	-0.082	0.058
-174.969	-185.972	-0.134	-0.002
-173.954	-108.832	-0.039	-0.008
-172.939	151.657	-0.071	0.096
-171.925	-71.806	0.188	-0.069
-170.910	-189.231	0.327	0.004
-169.896	-163.881	-0.027	0.001
-168.881	800.000	-0.060	0.174
-167.866	800.000	-0.058	-0.238
-166.852	-134.187	-0.233	-0.028
-165.837	100.592	0.143	0.164
-164.823	-145.332	0.374	0.033
-163.808	-32.255	0.146	-0.081
-162.793	-200.000	0.018	-0.140
-161.779	181.778	-0.128	-0.186
-160.764	-143.872	-0.091	-0.008
-159.750	-8.611	0.074	-0.049
-158.735	-200.000	0.043	0.468
-157.720	-30.501	-0.332	0.186
-156.706	-200.000	0.067	0.310
-155.691	-5.860	0.139	0.094
-154.677	-102.006	0.189	-0.045
-153.662	69.266	0.116	0.118
-152.647	-108.179	-0.173	-0.037
-151.633	800.000	-0.038	0.133
-150.618	10.914	-0.199	-0.150
-149.604	354.679	0.304	-0.598
-148.589	-46.422	0.247	0.120
-147.574	-200.000	-0.011	-0.313
-146.560	-105.852	-0.251	0.056
-145.545	-200.000	0.014	0.351
-144.531	10.518	-0.029	-0.022
-143.516	-57.928	-0.475	0.205
-142.502	-182.111	0.270	0.005
-141.487	526.858	-0.075	0.175
-140.472	298.733	-0.043	0.078
-139.458	53.600	0.431	0.408
-138.443	159.238	-0.226	0.310
-137.429	-200.000	-0.032	-0.271
-136.414	334.840	-0.079	-0.151
-135.399	-200.000	-0.013	-0.471
-134.385	-169.466	0.087	-0.003
-133.370	161.376	0.247	0.341
-132.356	-200.000	-0.019	0.088
-131.341	205.187	-0.164	-0.251
-130.326	7.666	-0.234	-0.173
-129.312	573.393	-0.120	0.288
-128.297	-76.701	0.189	0.065
-127.283	-19.001	-0.055	0.034
-126.268	-134.878	0.261	-0.031
-125.253	800.000	0.106	-0.314
-124.239	78.095	0.110	0.116
-123.224	213.955	-0.133	0.208
-122.210	173.948	-0.099	-0.141
-121.195	-132.605	-0.199	-0.025
-120.180	28.526	0.214	-0.178
-119.166	-121.439	-0.074	0.012
-118.151	-85.229	-0.290	-0.089
-117.137	389.742	-0.052	0.105
-116.122	226.591	-0.055	0.088
-115.107	304.497	-0.084	0.154
-114.093	-139.128	-0.116	-0.012
-113.078	18.311	0.309	0.243
-112.064	25.543	-0.080	-0.066
-111.049	-139.092	-0.348	0.037
-110.034	307.365	-0.101	0.185
-109.020	-138.103	-0.284	-0.031
-108.005	-43.858	-0.028	0.014
-106.991	-51.284	0.255	-0.118
-105.976	1.824	-0.344	0.245
-104.962	-32.076	-0.171	0.095
-103.947	559.826	0.081	0.192
-102.932	-200.000	-0.007	0.030
-101.918	-50.658	-0.250	0.116
-100.903	-30.430	-0.382	0.213
-99.889	-200.000	0.057	0.333
-98.874	40.308	-0.334	-0.296
-97.859	203.137	0.123	0.188
-96.845	35.931	-0.088	0.076
-95.830	-91.009	-0.180	0.051
-94.816	-200.000	-0.020	-0.157
-93.801	800.000	-0.019	-0.067
-92.786	38.381	0.148	0.130
-91.772	-95.444	-0.314	0.083
-90.757	800.000	0.030	0.124
-89.743	-56.292	0.143	0.062
-88.728	-163.897	0.101	0.005
-87.713	634.618	0.114	-0.285
-86.699	544.631	0.028	-0.067
-85.684	96.825	-0.209	-0.236
-84.670	-85.262	-0.085	-0.026
-83.655	-200.000	0.058	0.287
-82.640	-40.423	0.082	0.042
-81.626	-31.799	-0.113	0.062
-80.611	122.260	-0.130	0.160
-79.597	603.262	0.041	0.101
-78.582	-200.000	0.037	0.270
-77.567	800.000	-0.134	-0.385
-76.553	10.838	-0.164	0.123
-75.538	253.698	0.132	-0.222
-74.524	-51.440	0.347	-0.160
-73.509	-200.000	0.012	0.201
-72.494	212.391	0.183	-0.285
-71.480	-200.000	-0.030	-0.137
-70.465	368.771	0.091	0.181
-69.451	-200.000	-0.057	0.311
-68.436	10.580	0.247	0.186
-67.422	-97.237	-0.060	0.015
-66.407	-200.000	0.039	0.272
-65.392	96.210	-0.390	-0.439
-64.378	348.847	0.085	-0.165
-63.363	-34.221	-0.133	-0.072
-62.349	26.628	0.288	-0.237
-61.334	-38.465	-1.134	-0.590
-60.319	-166.231	0.700	0.029
-59.305	-200.000	-0.049	-0.792
-58.290	16.658	0.714	0.555
-57.276	507.354	0.645	1.473
-56.261	-200.000	96.011	574.953
-55.246	634.852	1390.413	3470.050
-54.232	192.137	2587.549	3839.163
-53.217	113.169	2282.058	2722.585
-52.203	43.145	1901.949	1707.404
-51.188	37.281	1692.756	1475.177
-50.173	34.446	1648.951	1415.934
-49.159	52.115	1695.872	1589.532
-48.144	54.475	1711.470	1621.810
-47.130	36.795	1671.819	1453.053
-46.115	33.888	1657.090	1418.528
-45.100	33.763	1652.013	1413.199
-44.086	33.733	1649.540	1410.800
-43.071	33.775	1646.924	1408.817
-42.057	33.753	1644.271	1406.336
-41.042	33.748	1642.389	1404.631
-40.027	33.762	1640.526	1403.086
-39.013	33.780	1638.015	1401.014
-37.998	33.681	1637.158	1399.494
-36.984	33.828	1636.037	1399.563
-35.969	33.936	1633.903	1398.474
-34.954	33.847	1632.801	1396.822
-33.940	33.790	1631.075	1394.871
-32.925	33.838	1629.406	1393.746
-31.911	33.857	1627.464	1392.168
-30.896	33.902	1625.439	1390.708
-29.881	33.920	1623.725	1389.321
-28.867	33.759	1622.831	1387.318
-27.852	33.826	1620.971	1386.164
-26.838	33.885	1618.924	1384.791
-25.823	33.842	1617.926	1383.572
-24.809	33.935	1616.128	1382.649
-23.794	33.868	1615.107	1381.234
-22.779	33.794	1613.473	1379.250
-21.765	33.865	1611.859	1378.329
-20.750	33.913	1609.817	1376.878
-19.736	34.006	1608.666	1376.511
-18.721	33.859	1607.657	1374.525
-17.706	33.972	1605.613	1373.543
-16.692	33.908	1604.354	1371.946
-15.677	34.019	1602.673	1371.257
-14.663	33.873	1601.829	1369.429
-13.648	33.907	1600.047	1368.098
-12.633	34.006	1598.570	1367.489
-11.619	33.895	1597.370	1365.609
-10.604	33.910	1595.573	1364.132
-9.590	33.926	1594.174	1362.994
-8.575	33.933	1592.739	1361.762
-7.560	33.941	1592.073	1361.195
-6.546	33.858	1590.690	1359.366
-5.531	33.932	1589.513	1358.832
-4.517	33.959	1588.234	1357.882
-3.502	33.862	1587.506	1356.515
-2.487	33.891	1586.158	1355.517
-1.473	33.630	1573.932	1343.162
-0.458	30.655	1553.727	1305.035
0.556	27.213	1554.011	1271.155
1.571	24.600	1577.907	1272.013
2.586	24.067	1591.312	1278.876
3.600	21.226	1537.795	1216.008
4.615	12.977	1429.154	1076.397
5.629	6.064	1365.198	984.921
6.644	4.968	1357.639	972.545
7.659	4.845	1356.185	970.653
8.673	4.835	1355.074	969.708
9.688	4.833	1353.746	968.663
10.702	4.724	1350.815	965.804
11.717	7.856	1356.748	989.458
12.731	15.680	1370.183	1048.123
13.746	20.323	1377.670	1082.793
14.761	20.018	1375.551	1079.132
15.775	18.925	1373.090	1070.306
16.790	17.825	1370.939	1061.694
17.804	17.106	1368.039	1054.886
18.819	16.646	1366.676	1050.889
19.834	16.311	1365.197	1047.581
20.848	16.237	1363.901	1046.031
21.863	15.915	1363.012	1043.263
22.877	15.889	1361.093	1041.544
23.892	15.756	1360.835	1040.429
24.907	15.817	1359.947	1040.036
25.921	15.734	1359.521	1039.106
26.936	15.816	1358.648	1038.851
27.950	15.858	1357.453	1038.103
28.965	15.854	1356.564	1037.307
29.980	16.014	1355.265	1037.211
30.994	16.094	1353.986	1036.632
32.009	16.150	1352.988	1036.121
33.023	16.140	1351.753	1035.020
34.038	16.029	1350.608	1033.370
35.053	15.971	1349.510	1032.085
36.067	15.959	1348.578	1031.207
37.082	16.000	1347.422	1030.480
38.096	16.015	1346.091	1029.463
39.111	16.027	1345.935	1029.329
40.126	15.894	1344.971	1027.689
41.140	15.838	1343.917	1026.451
42.155	15.675	1343.695	1025.195
43.169	15.729	1343.216	1025.069
44.184	15.711	1343.073	1024.756
45.199	15.666	1342.594	1024.028
46.213	15.789	1341.783	1024.066
47.228	15.895	1340.543	1023.678
48.242	15.930	1339.985	1023.374
49.257	15.911	1338.424	1021.977
50.271	15.881	1336.775	1020.444
51.286	15.917	1335.720	1019.764
52.301	15.902	1334.680	1018.787
53.315	15.824	1333.338	1017.205
54.330	15.832	1332.219	1016.306
55.344	15.820	1331.273	1015.427
56.359	15.795	1330.243	1014.400
57.374	15.752	1329.258	1013.300
58.388	15.667	1328.548	1012.156
59.403	15.636	1328.174	1011.598
60.417	15.699	1327.130	1011.091
61.432	15.550	1326.917	1009.941
62.447	15.605	1325.081	1008.782
63.461	15.588	1324.064	1007.819
64.476	15.437	1323.338	1006.270
65.490	15.461	1321.793	1005.152
66.505	15.593	1320.342	1004.747
67.520	15.567	1319.098	1003.557
68.534	15.721	1317.620	1003.265
69.549	15.643	1317.008	1002.247
70.563	15.571	1315.986	1000.949
71.578	15.458	1314.980	999.420
72.593	15.366	1314.205	998.198
73.607	15.290	1313.738	997.302
74.622	15.400	1312.368	996.829
75.636	15.490	1311.766	996.817
76.651	15.404	1311.564	996.063
77.666	15.574	1310.680	996.310
78.680	15.524	1309.897	995.331
79.695	15.556	1309.461	995.103
80.709	15.572	1308.606	994.460
81.724	15.677	1307.473	994.135
82.739	15.695	1307.075	993.850
83.753	15.880	1306.379	994.327
84.768	15.991	1304.807	993.693
85.782	15.879	1304.686	992.853
86.797	15.971	1303.017	992.038
87.812	15.963	1301.480	990.735
88.826	15.875	1300.019	989.017
89.841	15.914	1299.203	988.535
90.855	16.004	1298.414	988.377
91.870	15.972	1297.861	987.683
92.884	15.999	1296.779	986.928
93.899	16.077	1295.978	986.686
94.914	16.060	1295.178	985.889
95.928	16.104	1294.770	985.752
96.943	16.062	1293.705	984.605
97.957	15.953	1292.638	983.075
98.972	15.949	1291.665	982.223
99.987	16.000	1290.528	981.565
101.001	15.942	1289.481	980.346
102.016	15.974	1288.902	980.009
103.030	16.034	1287.711	979.362
104.045	15.988	1286.702	978.240
105.060	15.919	1285.423	976.783
106.074	15.814	1284.132	975.108
107.089	15.709	1282.680	973.308
108.103	15.624	1281.815	972.076
109.118	15.688	1280.449	971.325
110.133	15.662	1279.258	970.182
111.147	15.642	1277.674	968.781
112.162	15.738	1276.497	968.357
113.176	15.653	1275.744	967.213
114.191	15.826	1274.770	967.382
115.206	15.830	1273.347	966.237
116.220	15.831	1272.166	965.260
117.235	15.878	1271.094	964.634
118.249	15.719	1270.379	963.094
119.264	15.747	1269.119	962.215
120.279	15.713	1267.905	961.016
121.293	15.583	1267.462	959.850
122.308	15.635	1266.157	959.077
123.322	15.615	1264.950	957.961
124.337	15.621	1263.931	957.137
125.352	15.497	1262.733	955.445
126.366	15.573	1261.665	954.981
127.381	15.539	1260.652	953.936
128.395	15.577	1259.614	953.284
129.410	15.533	1258.693	952.252
130.424	15.641	1258.235	952.432
131.439	15.676	1256.834	951.487
132.454	15.779	1256.156	951.472
133.468	15.827	1255.478	951.143
134.483	15.810	1254.934	950.553
135.497	15.877	1253.420	949.700
136.512	15.749	1252.520	948.212
137.527	15.730	1251.092	946.939
138.541	15.782	1249.878	946.230
139.556	15.816	1248.430	945.242
140.570	15.956	1247.541	945.271
141.585	16.035	1246.179	944.595
142.600	16.080	1245.108	943.957
143.614	16.113	1244.732	943.773
144.629	16.026	1243.836	942.522
145.643	16.047	1242.203	941.318
146.658	15.958	1241.174	939.961
147.673	15.960	1239.568	938.672
148.687	15.796	1238.436	936.817
149.702	15.765	1237.139	935.581
150.716	15.806	1235.970	934.841
151.731	15.731	1234.867	933.508
152.746	15.865	1233.554	933.178
153.760	15.943	1232.170	932.477
154.775	15.944	1231.453	931.858
155.789	15.992	1230.499	931.320
156.804	15.881	1229.690	930.013
157.819	16.077	1228.356	929.999
158.833	16.150	1227.113	929.379
159.848	16.165	1226.269	928.742
160.862	16.138	1225.873	928.214
161.877	16.047	1224.716	926.754
162.892	15.891	1223.653	925.011
163.906	15.863	1222.407	923.834
164.921	15.939	1221.829	923.729
165.935	15.875	1221.092	922.738
166.950	15.988	1220.710	922.988
167.964	16.020	1220.201	922.699
168.979	16.057	1218.841	921.792
169.994	15.964	1218.704	921.098
171.008	16.022	1217.716	920.586
172.023	16.140	1216.783	920.439
173.037	16.180	1216.062	920.033
174.052	16.247	1214.937	919.464
175.067	16.042	1213.688	917.325
176.081	16.012	1213.102	916.639
177.096	16.031	1211.959	915.793
178.110	16.020	1211.038	914.956
179.125	16.106	1209.608	914.261
180.140	16.058	1209.152	913.580
181.154	16.150	1207.663	912.867
182.169	16.223	1206.090	911.993
183.183	16.236	1205.276	911.371
184.198	16.351	1204.163	911.069
185.213	16.358	1203.102	910.222
186.227	16.350	1201.816	909.122
187.242	16.383	1201.285	908.818
188.256	16.480	1200.218	908.452
189.271	16.360	1199.346	907.070
190.286	16.318	1197.777	905.579
191.300	15.953	1197.436	903.281
192.315	15.910	1196.437	902.217
193.329	15.913	1196.200	901.974
194.344	16.031	1195.302	901.847
195.359	16.061	1195.016	901.716
196.373	16.191	1194.241	901.744
197.388	16.313	1193.877	902.040
198.402	16.536	1193.254	902.680
199.417	16.602	1192.611	902.470
200.432	16.572	1192.237	901.944
201.446	16.645	1191.364	901.591
202.461	16.667	1190.719	901.144
203.475	16.679	1189.620	900.296
204.490	16.635	1188.086	898.822
205.504	16.464	1186.874	896.918
206.519	16.428	1185.857	895.877
207.534	16.411	1184.904	894.991
208.548	16.543	1183.769	894.750
209.563	16.454	1183.058	893.667
210.577	16.583	1181.861	893.362
211.592	16.584	1181.062	892.683
212.607	16.621	1180.600	892.451
213.621	16.583	1180.043	891.750
214.636	16.692	1178.853	891.347
215.650	16.770	1177.581	890.717
216.665	16.676	1177.433	890.030
217.680	16.726	1176.088	889.197
218.694	16.841	1175.629	889.378
219.709	16.804	1174.502	888.251
220.723	16.713	1173.851	887.202
221.738	16.750	1173.126	886.773
222.753	16.742	1172.609	886.258
223.767	16.781	1171.747	885.731
224.782	16.902	1171.226	885.892
225.796	17.015	1170.420	885.797
226.811	17.026	1169.569	885.132
227.826	16.835	1168.903	883.555
228.840	16.756	1168.453	882.722
229.855	16.968	1167.381	882.938
230.869	16.822	1167.080	881.874
231.884	16.816	1166.072	881.003
232.899	16.807	1165.095	880.141
233.913	16.789	1164.417	879.455
234.928	16.756	1163.394	878.435
235.942	16.762	1162.770	877.915
236.957	16.825	1162.071	877.636
237.972	16.737	1161.160	876.415
238.986	16.863	1161.019	876.881
240.001	16.775	1159.701	875.357
241.015	16.740	1159.414	874.883
242.030	16.934	1158.420	875.054
243.045	16.971	1157.383	874.386
244.059	16.942	1157.186	874.012
245.074	16.964	1156.125	873.241
246.088	16.977	1155.590	872.831
247.103	17.090	1154.554	872.552
248.117	17.076	1154.020	871.995
249.132	17.262	1153.337	872.358
250.147	17.264	1152.856	871.928
251.161	17.416	1151.567	871.654
252.176	17.451	1151.265	871.531
253.190	17.449	1150.888	871.154
254.205	17.426	1150.651	870.783
255.220	17.645	1148.796	870.421
256.234	17.606	1148.686	870.057
257.249	17.424	1148.490	868.907
258.263	17.551	1147.635	868.828
259.278	17.618	1146.723	868.405
260.293	17.679	1146.432	868.415
261.307	17.546	1146.077	867.396
262.322	17.549	1145.298	866.743
263.336	17.593	1144.731	866.460
264.351	17.681	1143.916	866.212
265.366	17.691	1143.371	865.775
266.380	17.681	1142.360	864.884
267.395	17.628	1141.723	864.056
268.409	17.658	1140.680	863.344
269.424	17.713	1140.103	863.108
270.439	17.702	1139.305	862.371
271.453	17.607	1138.571	861.259
272.468	17.433	1138.218	860.038
273.482	17.520	1137.339	859.734
274.497	17.606	1136.375	859.362
275.512	17.582	1135.913	858.820
276.526	17.619	1135.302	858.466
277.541	17.564	1134.654	857.622
278.555	17.670	1133.790	857.426
279.570	17.797	1132.925	857.336
280.585	17.753	1132.008	856.344
281.599	17.758	1131.529	855.931
282.614	17.763	1130.468	855.078
283.628	17.598	1129.402	853.373
284.643	17.799	1128.425	853.562
285.657	17.708	1128.002	852.711
286.672	17.701	1126.767	851.669
287.687	17.815	1125.203	850.977
288.701	17.807	1125.106	850.789
289.716	17.775	1124.416	850.035
290.730	17.714	1123.681	849.100
291.745	17.832	1122.996	849.094
292.760	17.881	1122.655	849.005
293.774	17.969	1121.812	848.728
294.789	17.990	1121.306	848.377
295.803	17.820	1120.474	846.829
296.818	17.875	1119.888	846.585
297.833	17.871	1119.023	845.833
298.847	17.861	1118.042	844.970
299.862	17.922	1117.570	844.841
300.876	18.013	1116.330	844.274
301.891	17.996	1115.768	843.695
302.906	18.165	1114.902	843.797
303.920	18.200	1114.224	843.380
304.935	18.090	1114.344	842.855
305.949	18.204	1113.760	842.900
306.964	18.309	1112.995	842.765
307.979	18.206	1111.781	841.265
308.993	18.081	1111.509	840.369
310.008	18.145	1110.725	840.016
311.022	18.093	1110.116	839.226
312.037	18.154	1109.007	838.611
313.052	18.157	1108.115	837.880
314.066	18.093	1106.916	836.583
315.081	18.027	1105.999	835.494
316.095	17.979	1105.431	834.758
317.110	17.969	1104.593	834.001
318.125	18.047	1103.988	833.854
319.139	18.098	1102.944	833.240
320.154	18.078	1102.546	832.766
321.168	18.099	1101.954	832.349
322.183	18.041	1101.206	831.426
323.197	18.239	1100.501	831.786
324.212	18.121	1100.349	831.022
325.227	18.091	1099.540	830.191
326.241	18.229	1098.760	830.198
327.256	18.101	1098.301	829.156
328.270	18.084	1097.353	828.285
329.285	18.140	1096.433	827.791
330.300	18.197	1095.142	827.018
331.314	18.252	1094.181	826.486
332.329	18.307	1093.028	825.806
333.343	18.261	1092.765	825.314
334.358	18.316	1091.689	824.693
335.373	18.317	1091.393	824.398
336.387	18.362	1090.918	824.185
337.402	18.433	1089.824	823.624
338.416	18.448	1088.834	822.877
339.431	18.472	1088.658	822.787
340.446	18.505	1088.203	822.531
341.460	18.612	1087.349	822.321
342.475	18.620	1086.230	821.443
343.489	18.567	1085.707	820.720
344.504	18.682	1084.560	820.330
345.519	18.660	1083.890	819.647
346.533	18.792	1082.839	819.408
347.548	18.738	1082.521	818.835
348.562	18.821	1081.621	818.482
349.577	18.684	1080.728	817.082
350.592	18.549	1080.098	815.889
351.606	18.552	1079.151	815.115
352.621	18.512	1078.545	814.396
353.635	18.621	1077.533	814.075
354.650	18.657	1077.163	813.897
355.665	18.643	1076.523	813.274
356.679	18.777	1075.582	813.127
357.694	18.598	1075.152	811.878
358.708	18.798	1074.742	812.445
359.723	18.703	1073.986	811.352
360.738	18.571	1073.950	810.630
361.752	18.777	1073.133	810.913
362.767	18.871	1072.003	810.434
363.781	18.751	1071.674	809.547
364.796	18.976	1071.317	810.267
365.810	18.872	1070.669	809.211
366.825	19.155	1070.063	810.017
367.840	19.096	1069.595	809.312
368.854	19.112	1069.298	809.093
369.869	19.127	1068.085	808.172
370.883	19.080	1067.199	807.212
371.898	18.997	1066.678	806.354
372.913	19.039	1066.018	805.983
373.927	19.052	1065.760	805.774
374.942	19.200	1064.886	805.739
375.956	19.082	1064.411	804.756
376.971	19.120	1063.862	804.445
377.986	19.232	1063.338	804.499
379.000	19.237	1062.599	803.893
380.015	19.173	1062.313	803.308
381.029	19.343	1061.649	803.527
382.044	19.212	1061.447	802.691
383.059	19.314	1060.184	802.141
384.073	19.250	1059.546	801.291
385.088	19.317	1058.623	800.832
386.102	19.311	1057.673	800.013
387.117	19.344	1056.768	799.411
388.132	19.190	1055.944	798.004
389.146	19.119	1055.292	797.114
390.161	19.244	1054.085	796.709
391.175	19.291	1053.350	796.298
392.190	19.259	1053.018	795.829
393.205	19.404	1052.244	795.843
394.219	19.325	1051.518	794.862
395.234	19.298	1050.695	794.045
396.248	19.208	1049.656	792.775
397.263	19.242	1048.724	792.157
398.278	19.146	1047.979	791.083
399.292	19.097	1047.071	790.100
400.307	19.140	1046.516	789.809
401.321	19.160	1045.756	789.260
402.336	19.231	1045.226	789.113
403.350	19.062	1044.894	788.019
404.365	19.393	1043.498	788.410
405.380	19.367	1042.823	787.714
406.394	19.412	1042.269	787.432
407.409	19.432	1041.630	786.967
408.423	19.579	1040.672	786.844
409.438	19.691	1040.053	786.819
410.453	19.614	1039.568	786.033
411.467	19.736	1038.945	786.045
412.482	19.776	1038.106	785.522
413.496	19.705	1037.981	785.037
414.511	19.767	1037.119	784.597
415.526	19.820	1036.832	784.551
416.540	19.856	1036.173	784.145
417.555	19.881	1035.510	783.685
418.569	19.895	1035.094	783.364
419.584	19.788	1035.040	782.772
420.599	19.808	1034.235	782.185
421.613	151.447	1401.696	1792.137
422.628	138.301	1455.239	1792.240
