DTS Sentinel unit serial number:	SN413079Multiplexer serial number:	ORYXHardware model number:	OX4-SRSoftware version number:	ORYX F/W v4.00 Oryx Data Collector v3.7.2.0data status	okinstallation	princeton_trtdifferential loss correction	single-endedforward channel	channel 2reverse channel	N/Adate	2019/09/13time	17:59:35forward acquisition time	60.00reverse acquisition time	0.00gamma	496.2192k internal	0.2317k external	0.2317temperature offset calibration	1.0207default loss term (dB/km)	0.3790temperature slope calibration	1.0000multiplexer offset coefficient	1.0000multiplexer slope coefficient	1.0000fibre end	0.00T internal ref (°C)	35.05T ext. ref 1 (°C)	4.75T ext. ref 2 (°C)	27.83length (m)	temperature (°C)	Stokes	anti-Stokes-747.200	-134.615	0.038	-0.005
-746.185	369.802	0.013	-0.026
-745.171	-119.148	-0.163	-0.029
-744.156	388.620	0.112	0.235
-743.142	-43.761	0.107	-0.054
-742.127	27.983	-0.111	0.095
-741.112	49.580	0.168	0.160
-740.098	269.751	-0.096	0.170
-739.083	-110.255	-0.016	-0.003
-738.069	-98.447	0.186	-0.048
-737.054	-108.670	0.129	-0.028
-736.039	-184.080	-0.409	-0.007
-735.025	144.054	0.160	0.216
-734.010	-200.000	-0.018	-0.145
-732.996	800.000	-0.022	-0.066
-731.981	-200.000	-0.004	-0.497
-730.966	-5.285	-0.127	0.089
-729.952	800.000	0.040	-0.135
-728.937	-93.387	-0.181	-0.051
-727.923	-44.228	0.373	0.189
-726.908	254.573	-0.146	-0.253
-725.894	10.838	0.071	-0.055
-724.879	15.251	0.290	-0.230
-723.864	-33.019	0.172	-0.096
-722.850	253.454	0.145	-0.250
-721.835	9.386	-0.367	-0.281
-720.821	-93.900	-0.145	-0.040
-719.806	800.000	-0.108	-0.362
-718.791	579.930	-0.122	-0.302
-717.777	-9.954	0.080	-0.054
-716.762	-132.519	0.327	-0.042
-715.748	25.936	0.208	-0.175
-714.733	-5.178	0.076	0.053
-713.718	-200.000	0.014	-0.312
-712.704	549.431	-0.027	0.065
-711.689	97.582	-0.054	0.062
-710.675	-66.419	-0.348	-0.140
-709.660	-64.613	-0.169	-0.069
-708.645	-200.000	0.000	-0.030
-707.631	-200.000	0.004	0.319
-706.616	800.000	-0.050	-0.167
-705.602	-200.000	0.017	0.459
-704.587	-73.605	0.049	-0.018
-703.572	-88.601	-0.286	0.086
-702.558	-145.985	0.128	-0.011
-701.543	-108.534	0.414	-0.090
-700.529	-200.000	0.014	0.099
-699.514	800.000	0.065	-0.194
-698.499	-35.977	-0.253	-0.138
-697.485	-122.356	-0.110	0.018
-696.470	54.762	-0.076	-0.075
-695.456	731.136	0.121	0.328
-694.441	-166.497	0.069	0.003
-693.426	489.940	0.151	-0.348
-692.412	61.306	0.221	0.222
-691.397	107.364	-0.117	0.141
-690.383	-69.017	-0.284	0.110
-689.368	-35.559	0.267	-0.147
-688.354	800.000	-0.094	-0.398
-687.339	-2.134	0.070	-0.050
-686.324	800.000	0.081	-0.260
-685.310	800.000	0.082	-0.232
-684.295	-17.077	0.271	-0.173
-683.281	49.888	0.092	0.088
-682.266	177.504	-0.101	0.148
-681.251	800.000	-0.058	-0.208
-680.237	-140.235	0.126	0.013
-679.222	88.448	-0.302	-0.338
-678.208	-200.000	-0.004	-0.296
-677.193	266.521	0.063	-0.110
-676.178	-200.000	-0.005	-0.226
-675.164	17.222	0.012	-0.010
-674.149	-200.000	0.010	0.159
-673.135	28.788	-0.158	0.135
-672.120	800.000	0.142	-0.483
-671.105	-200.000	-0.016	0.272
-670.091	800.000	0.057	0.175
-669.076	-30.676	0.143	-0.082
-668.062	-49.009	0.256	-0.124
-667.047	-200.000	-0.009	-0.385
-666.032	48.857	-0.173	0.164
-665.018	800.000	0.081	0.271
-664.003	684.253	-0.077	-0.202
-662.989	-76.324	0.082	-0.029
-661.974	49.054	-0.023	-0.021
-660.959	-22.788	0.191	-0.117
-659.945	515.530	-0.193	-0.454
-658.930	-52.211	-0.057	-0.027
-657.916	-158.329	-0.113	0.007
-656.901	-79.950	-0.505	0.171
-655.886	-200.000	0.000	-0.140
-654.872	800.000	0.036	-0.135
-653.857	-93.465	-0.164	0.046
-652.843	-78.094	-0.160	-0.055
-651.828	713.197	-0.054	-0.144
-650.814	-6.026	0.249	-0.172
-649.799	1.486	-0.200	0.145
-648.784	-75.207	0.149	0.054
-647.770	-200.000	0.010	-0.167
-646.755	-200.000	-0.011	-0.163
-645.741	-33.180	-0.230	-0.129
-644.726	77.520	0.185	-0.199
-643.711	800.000	0.067	-0.208
-642.697	-200.000	-0.012	0.279
-641.682	-82.752	-0.209	0.068
-640.668	53.283	-0.094	0.091
-639.653	-63.650	0.201	-0.083
-638.638	301.643	0.007	0.014
-637.624	800.000	0.050	-0.219
-636.609	214.292	0.164	0.261
-635.595	-200.000	-0.006	-0.125
-634.580	-200.000	-0.015	-0.282
-633.565	-37.730	0.179	-0.096
-632.551	800.000	-0.060	-0.202
-631.536	-105.989	0.231	-0.052
-630.522	280.614	0.073	-0.131
-629.507	91.557	-0.063	-0.071
-628.492	39.103	-0.137	0.124
-627.478	-200.000	-0.042	0.226
-626.463	259.454	0.078	0.135
-625.449	-200.000	-0.015	0.301
-624.434	-33.245	-0.362	0.202
-623.419	15.121	-0.260	-0.205
-622.405	800.000	-0.069	-0.252
-621.390	-200.000	-0.047	0.312
-620.376	-32.256	-0.405	0.228
-619.361	266.810	0.080	-0.141
-618.346	-200.000	-0.009	0.237
-617.332	-174.021	-0.394	0.012
-616.317	33.499	0.048	0.042
-615.303	-200.000	0.027	0.350
-614.288	162.006	-0.136	-0.192
-613.273	-200.000	-0.035	-0.281
-612.259	-94.382	-0.247	-0.068
-611.244	-60.345	-0.238	0.102
-610.230	-51.508	-0.225	0.106
-609.215	2.828	0.230	-0.168
-608.201	143.359	-0.096	0.128
-607.186	-63.638	0.083	0.034
-606.171	-42.877	0.046	-0.023
-605.157	-200.000	-0.066	0.291
-604.142	117.965	0.191	-0.237
-603.128	-200.000	-0.019	-0.157
-602.113	-58.169	-0.093	-0.041
-601.098	-13.111	0.362	0.237
-600.084	800.000	-0.041	-0.150
-599.069	-200.000	0.065	-0.318
-598.055	-20.497	-0.438	-0.271
-597.040	101.566	-0.069	-0.080
-596.025	-37.910	0.064	-0.034
-595.011	282.601	0.064	0.115
-593.996	43.785	0.093	-0.086
-592.982	-200.000	0.006	-0.229
-591.967	-200.000	0.010	0.284
-590.952	250.316	0.058	0.100
-589.938	-12.129	-0.177	0.117
-588.923	-18.762	0.323	-0.202
-587.909	800.000	0.043	0.137
-586.894	-200.000	0.006	-0.243
-585.879	-119.881	-0.177	0.031
-584.865	-46.797	-0.251	0.123
-583.850	2.686	-0.242	-0.176
-582.836	165.384	0.120	0.170
-581.821	-50.336	0.094	0.045
-580.806	-200.000	-0.027	-0.152
-579.792	173.312	0.100	-0.145
-578.777	111.914	-0.195	-0.237
-577.763	-200.000	0.022	0.114
-576.748	17.697	0.167	-0.134
-575.733	800.000	0.108	0.387
-574.719	-123.614	-0.285	0.045
-573.704	-200.000	-0.033	0.315
-572.690	315.790	-0.129	-0.245
-571.675	46.011	-0.300	-0.279
-570.661	101.609	-0.164	-0.192
-569.646	800.000	-0.081	0.329
-568.631	-136.420	0.188	-0.022
-567.617	-80.015	0.296	0.100
-566.602	116.392	0.185	-0.228
-565.588	54.640	0.109	0.106
-564.573	-140.799	0.547	0.057
-563.558	800.000	-0.104	-0.434
-562.544	231.484	-0.085	0.141
-561.529	-200.000	-0.008	-0.068
-560.515	-68.941	0.167	-0.065
-559.500	-127.222	-0.117	0.017
-558.485	52.148	-0.211	0.202
-557.471	-164.048	-0.059	-0.003
-556.456	-19.083	0.064	-0.040
-555.442	48.659	0.091	0.086
-554.427	-177.283	-0.158	-0.004
-553.412	-18.250	0.285	-0.179
-552.398	-176.949	-0.361	0.009
-551.383	-200.000	0.012	0.138
-550.369	-200.000	-0.020	0.203
-549.354	-117.103	0.364	0.067
-548.339	-30.747	-0.167	0.095
-547.325	67.314	-0.082	-0.084
-546.310	-200.000	-0.008	0.197
-545.296	-200.000	-0.099	0.443
-544.281	60.404	0.363	-0.360
-543.266	2.817	0.140	-0.102
-542.252	-200.000	0.055	-0.378
-541.237	-200.000	-0.004	0.193
-540.223	-60.847	-0.323	-0.137
-539.208	-99.175	-0.199	-0.051
-538.193	84.104	-0.113	0.124
-537.179	-122.943	-0.155	0.025
-536.164	40.582	0.271	0.245
-535.150	-83.165	-0.188	0.061
-534.135	-109.533	0.091	-0.019
-533.121	89.826	0.155	-0.174
-532.106	42.886	0.393	0.360
-531.091	-86.213	-0.352	-0.109
-530.077	-200.000	-0.009	-0.318
-529.062	-14.740	-0.254	-0.164
-528.048	160.220	-0.061	0.086
-527.033	128.954	-0.071	0.091
-526.018	-100.880	-0.298	0.074
-525.004	-41.699	0.168	0.087
-523.989	-200.000	-0.011	0.232
-522.975	214.249	-0.147	0.234
-521.960	-151.218	0.285	-0.021
-520.945	800.000	-0.085	-0.351
-519.931	800.000	0.085	-0.271
-518.916	-34.212	0.126	-0.070
-517.902	-200.000	-0.008	0.366
-516.887	215.501	-0.201	0.321
-515.872	356.310	0.067	0.134
-514.858	-2.362	0.151	-0.106
-513.843	73.257	0.099	-0.103
-512.829	800.000	-0.021	-0.093
-511.814	-22.876	0.194	-0.117
-510.799	151.570	0.183	-0.250
-509.785	-76.460	-0.361	-0.127
-508.770	-200.000	-0.019	0.772
-507.756	195.341	0.040	-0.062
-506.741	-200.000	-0.046	-0.244
-505.726	-80.508	-0.159	0.053
-504.712	-154.836	-0.082	0.005
-503.697	-99.764	0.022	0.005
-502.683	14.726	0.096	0.075
-501.668	-66.662	-0.334	0.133
-500.653	-11.481	-0.278	-0.184
-499.639	-200.000	-0.004	0.103
-498.624	540.262	-0.159	0.378
-497.610	33.551	0.111	0.096
-496.595	-58.312	0.321	0.140
-495.581	-200.000	0.230	0.000
-494.566	161.405	0.251	-0.352
-493.551	227.027	0.092	-0.150
-492.537	-200.000	-0.061	0.403
-491.522	362.383	0.066	-0.132
-490.508	-49.092	0.080	-0.038
-489.493	-128.778	-0.057	-0.008
-488.478	29.426	-0.196	-0.167
-487.464	115.039	-0.033	-0.041
-486.449	-200.000	-0.052	-0.273
-485.435	46.627	-0.308	0.287
-484.420	-175.539	-0.117	-0.003
-483.405	-35.389	0.223	-0.121
-482.391	451.295	0.034	0.076
-481.376	-200.000	-0.027	-0.401
-480.362	321.660	0.110	-0.210
-479.347	-200.000	0.030	-0.186
-478.332	-200.000	-0.025	-0.271
-477.318	6.262	-0.200	-0.149
-476.303	-137.948	-0.099	0.011
-475.289	-168.199	-0.254	-0.010
-474.274	196.029	0.118	0.180
-473.259	-200.000	0.015	0.327
-472.245	-41.748	-0.343	-0.176
-471.230	182.829	0.220	-0.325
-470.216	644.280	0.099	-0.254
-469.201	-51.502	-0.378	-0.177
-468.186	800.000	-0.079	0.261
-467.172	75.846	-0.102	0.108
-466.157	-148.086	-0.457	-0.038
-465.143	-125.086	-0.290	-0.045
-464.128	-200.000	-0.001	0.180
-463.113	-176.327	-0.282	0.007
-462.099	-2.084	0.117	-0.082
-461.084	-200.000	-0.018	0.088
-460.070	-80.712	0.181	0.060
-459.055	-97.457	-0.402	0.105
-458.040	36.816	-0.206	-0.183
-457.026	54.096	0.120	0.115
-456.011	-41.857	-0.219	-0.113
-454.997	421.146	-0.002	0.004
-453.982	-49.992	0.275	0.130
-452.968	-16.188	0.117	-0.074
-451.953	-200.000	0.023	-0.180
-450.938	-179.258	-0.203	-0.005
-449.924	-200.000	0.033	-0.184
-448.909	-11.955	0.064	-0.042
-447.895	282.019	0.122	-0.219
-446.880	-73.518	-0.095	-0.035
-445.865	-97.346	-0.062	0.016
-444.851	331.281	0.137	-0.265
-443.836	-200.000	0.028	0.281
-442.822	-200.000	-0.038	-0.328
-441.807	800.000	0.019	0.058
-440.792	-41.824	0.047	-0.024
-439.778	-10.317	0.275	-0.182
-438.763	139.583	-0.073	0.096
-437.749	-200.000	-0.016	0.177
-436.734	800.000	0.131	0.415
-435.719	282.337	0.085	-0.153
-434.705	-134.302	0.418	0.051
-433.690	-200.000	0.050	0.243
-432.676	-200.000	-0.023	-0.133
-431.661	800.000	0.033	-0.107
-430.646	-0.083	-0.204	0.145
-429.632	-95.241	-0.221	-0.060
-428.617	-10.507	-0.148	0.098
-427.603	-135.843	0.380	0.045
-426.588	-73.156	0.150	-0.055
-425.573	157.101	0.148	0.204
-424.559	-107.317	-0.241	0.053
-423.544	800.000	0.031	-0.119
-422.530	-12.628	0.243	-0.159
-421.515	-200.000	-0.072	-0.397
-420.500	800.000	0.100	0.380
-419.486	-54.759	-0.276	-0.125
-418.471	800.000	-0.089	0.306
-417.457	288.793	0.081	-0.147
-416.442	-200.000	0.016	-0.342
-415.428	-81.594	0.094	-0.031
-414.413	154.397	0.055	-0.075
-413.398	800.000	-0.101	-0.363
-412.384	-200.000	-0.079	-0.380
-411.369	242.541	0.173	0.289
-410.355	172.713	0.033	0.048
-409.340	-56.096	0.154	-0.068
-408.325	263.758	0.192	0.334
-407.311	135.363	0.132	0.171
-406.296	159.906	0.066	-0.092
-405.282	-91.745	0.385	-0.109
-404.267	69.444	-0.127	0.130
-403.252	527.068	-0.197	-0.463
-402.238	800.000	0.044	0.123
-401.223	-24.233	0.170	0.101
-400.209	224.449	0.103	0.166
-399.194	-58.893	0.155	-0.067
-398.179	-200.000	-0.047	-0.310
-397.165	70.533	0.047	-0.049
-396.150	-11.754	0.162	0.106
-395.136	-200.000	-0.012	-0.236
-394.121	585.319	0.015	-0.037
-393.106	-73.082	-0.220	-0.081
-392.092	41.541	-0.173	0.156
-391.077	237.581	0.312	-0.517
-390.063	-68.185	0.207	0.080
-389.048	800.000	0.023	-0.082
-388.033	241.038	0.167	-0.278
-387.019	-28.651	-0.444	0.255
-386.004	3.652	0.044	0.032
-384.990	-137.432	0.265	-0.030
-383.975	800.000	0.051	-0.181
-382.960	572.765	-0.100	0.242
-381.946	100.717	-0.205	-0.238
-380.931	-82.064	0.378	-0.123
-379.917	-172.640	0.073	-0.002
-378.902	-137.844	0.282	0.032
-377.888	416.713	-0.030	-0.065
-376.873	-113.618	-0.068	0.013
-375.858	-200.000	-0.015	0.340
-374.844	-98.462	0.152	0.039
-373.829	70.200	0.048	-0.049
-372.815	24.064	0.111	-0.092
-371.800	-8.404	-0.314	-0.211
-370.785	-81.583	0.141	0.046
-369.771	-31.837	-0.156	0.087
-368.756	-200.000	-0.024	0.342
-367.742	-200.000	0.031	-0.365
-366.727	-118.983	0.399	-0.070
-365.712	-158.757	0.123	-0.007
-364.698	-85.558	-0.166	0.052
-363.683	214.256	-0.116	-0.184
-362.669	3.307	-0.272	0.197
-361.654	-113.258	-0.335	-0.066
-360.639	-200.000	-0.026	-0.166
-359.625	-68.093	-0.282	-0.110
-358.610	30.370	-0.320	0.272
-357.596	83.884	0.178	0.193
-356.581	800.000	-0.023	-0.073
-355.566	-82.692	0.237	0.077
-354.552	400.305	0.045	0.093
-353.537	-82.007	0.429	0.140
-352.523	325.969	0.104	0.199
-351.508	-200.000	0.062	0.273
-350.493	-108.761	-0.398	-0.085
-349.479	310.161	0.091	0.170
-348.464	-54.901	0.066	-0.030
-347.450	-200.000	0.074	-0.567
-346.435	800.000	-0.042	-0.179
-345.420	127.277	-0.080	-0.101
-344.406	-200.000	0.017	0.213
-343.391	-200.000	0.052	-0.248
-342.377	17.428	0.086	-0.068
-341.362	6.714	0.182	-0.135
-340.348	72.617	-0.186	0.193
-339.333	-71.634	-0.330	-0.123
-338.318	33.608	-0.142	0.123
-337.304	-77.279	0.112	0.039
-336.289	-90.152	-0.091	0.026
-335.275	-200.000	0.017	-0.182
-334.260	231.529	-0.097	-0.158
-333.245	-200.000	-0.144	-0.001
-332.231	-109.468	0.093	0.020
-331.216	98.677	0.282	0.325
-330.202	-200.000	-0.019	-0.117
-329.187	23.043	-0.299	0.244
-328.172	131.806	-0.056	0.071
-327.158	-142.051	0.357	0.035
-326.143	70.900	0.280	-0.289
-325.129	607.895	-0.015	-0.036
-324.114	77.945	0.126	-0.134
-323.099	-200.000	-0.016	0.161
-322.085	-58.314	0.082	0.036
-321.070	72.384	-0.079	0.082
-320.056	177.731	-0.173	-0.252
-319.041	-200.000	0.044	0.268
-318.026	-200.000	0.034	-0.155
-317.012	-58.764	-0.191	-0.082
-315.997	800.000	0.061	0.241
-314.983	134.776	0.284	0.367
-313.968	-51.803	0.244	-0.113
-312.953	-200.000	-0.065	-0.492
-311.939	-139.083	-0.047	0.005
-310.924	-60.380	0.134	-0.057
-309.910	-86.366	0.297	0.091
-308.895	-200.000	-0.000	0.190
-307.880	800.000	0.048	0.141
-306.866	643.673	0.131	0.333
-305.851	-200.000	-0.016	0.265
-304.837	84.671	-0.131	-0.143
-303.822	-200.000	0.054	-0.263
-302.807	583.395	-0.105	-0.256
-301.793	-93.206	-0.428	0.118
-300.778	175.891	-0.190	0.274
-299.764	-90.459	0.238	-0.069
-298.749	525.573	0.071	0.167
-297.735	800.000	0.096	0.265
-296.720	-9.412	0.153	-0.102
-295.705	-200.000	-0.007	-0.137
-294.691	-127.672	-0.076	-0.011
-293.676	-31.115	0.130	-0.073
-292.662	800.000	0.137	-0.455
-291.647	-131.286	-0.231	0.030
-290.632	252.436	-0.123	0.208
-289.618	-200.000	-0.055	0.300
-288.603	500.487	0.052	-0.119
-287.589	-143.293	0.131	-0.013
-286.574	-46.755	0.283	-0.138
-285.559	52.300	0.191	0.182
-284.545	772.277	-0.157	0.427
-283.530	-19.296	-0.112	0.069
-282.516	-200.000	0.031	0.214
-281.501	150.487	0.241	0.325
-280.486	16.124	-0.205	0.161
-279.472	209.735	0.139	-0.216
-278.457	800.000	-0.078	-0.254
-277.443	-11.738	0.037	-0.024
-276.428	-200.000	0.008	-0.214
-275.413	300.682	-0.110	0.202
-274.399	-200.000	0.023	0.240
-273.384	520.939	0.134	-0.313
-272.370	0.491	0.183	-0.130
-271.355	-33.608	0.117	-0.064
-270.340	714.254	-0.083	-0.220
-269.326	-2.492	0.261	-0.182
-268.311	-200.000	-0.025	-0.114
-267.297	16.678	0.176	-0.138
-266.282	401.255	0.111	-0.231
-265.267	800.000	-0.048	-0.198
-264.253	4.373	-0.178	-0.130
-263.238	-173.665	0.337	0.010
-262.224	-200.000	-0.003	0.067
-261.209	-89.315	-0.333	0.097
-260.195	-200.000	-0.011	0.285
-259.180	247.714	0.177	0.297
-258.165	90.941	-0.074	-0.083
-257.151	390.229	0.095	-0.196
-256.136	680.639	0.038	0.098
-255.122	28.891	0.051	0.043
-254.107	127.367	0.155	0.196
-253.092	526.849	0.116	0.271
-252.078	271.944	0.044	0.078
-251.063	-200.000	-0.021	-0.154
-250.049	-70.118	0.509	-0.192
-249.034	-104.921	-0.060	-0.014
-248.019	529.284	0.041	-0.097
-247.005	103.746	-0.165	-0.192
-245.990	-200.000	0.011	0.074
-244.976	41.613	0.021	-0.019
-243.961	191.754	0.194	0.291
-242.946	-200.000	-0.053	0.327
-241.932	-89.533	0.144	-0.042
-240.917	-200.000	0.032	-0.176
-239.903	160.012	-0.112	0.155
-238.888	120.769	-0.023	0.028
-237.873	-200.000	0.035	-0.162
-236.859	-16.117	-0.168	-0.106
-235.844	-200.000	0.015	0.182
-234.830	-134.696	0.324	-0.039
-233.815	-170.327	-0.177	0.006
-232.800	51.871	0.162	0.153
-231.786	149.836	-0.112	-0.151
-230.771	-129.230	0.297	0.041
-229.757	-125.586	0.097	-0.015
-228.742	11.555	-0.200	0.152
-227.727	-200.000	-0.086	-0.449
-226.713	-200.000	0.004	-0.252
-225.698	80.990	0.347	0.371
-224.684	-200.000	-0.027	-0.329
-223.669	-200.000	0.082	0.372
-222.655	-125.820	-0.195	0.029
-221.640	169.364	0.245	0.347
-220.625	-200.000	0.013	0.071
-219.611	-56.343	-0.320	-0.141
-218.596	-83.781	-0.105	-0.033
-217.582	800.000	0.089	0.312
-216.567	-166.893	-0.348	0.014
-215.552	-74.187	0.297	-0.106
-214.538	-200.000	-0.037	0.291
-213.523	334.346	-0.071	-0.136
-212.509	-162.554	-0.108	-0.005
-211.494	-200.000	-0.024	0.326
-210.479	-200.000	0.044	0.283
-209.465	140.180	-0.141	-0.184
-208.450	-106.376	0.234	-0.052
-207.436	-55.852	0.152	0.067
-206.421	49.587	-0.119	0.111
-205.406	112.048	0.264	0.316
-204.392	37.455	-0.133	0.117
-203.377	800.000	0.078	0.295
-202.363	56.084	0.026	-0.025
-201.348	-200.000	0.001	-0.158
-200.333	-200.000	0.022	-0.113
-199.319	-200.000	0.012	-0.236
-198.304	37.850	-0.071	0.063
-197.290	-165.021	0.217	0.010
-196.275	365.034	0.052	0.103
-195.260	-115.420	-0.504	0.094
-194.246	-200.000	0.020	-0.103
-193.231	131.960	-0.248	0.316
-192.217	-82.136	-0.204	-0.066
-191.202	115.719	-0.078	0.094
-190.187	-200.000	-0.042	0.250
-189.173	45.206	0.209	-0.191
-188.158	-200.000	-0.049	0.389
-187.144	-200.000	0.014	0.189
-186.129	-32.001	-0.220	-0.122
-185.114	-107.530	-0.170	-0.037
-184.100	-200.000	0.011	0.155
-183.085	-159.927	-0.212	-0.011
-182.071	-85.556	-0.274	-0.084
-181.056	234.136	-0.094	0.154
-180.042	800.000	-0.041	0.157
-179.027	109.119	0.088	-0.104
-178.012	46.716	-0.137	-0.126
-176.998	37.047	-0.205	-0.179
-175.983	466.513	0.025	0.056
-174.969	-131.567	-0.031	-0.004
-173.954	43.035	0.172	0.155
-172.939	-109.276	0.177	-0.037
-171.925	279.208	0.153	-0.271
-170.910	-200.000	-0.022	0.107
-169.896	294.629	-0.063	0.115
-168.881	-200.000	-0.019	-0.172
-167.866	19.170	0.295	-0.234
-166.852	-200.000	-0.033	0.157
-165.837	159.457	0.179	-0.246
-164.823	235.244	-0.216	-0.354
-163.808	139.205	-0.137	-0.178
-162.793	800.000	-0.076	0.221
-161.779	-158.233	0.248	-0.014
-160.764	-200.000	0.006	0.298
-159.750	204.925	-0.224	0.344
-158.735	-200.000	-0.002	0.047
-157.720	-92.669	0.289	0.080
-156.706	-2.520	-0.256	0.178
-155.691	800.000	0.084	-0.332
-154.677	46.133	0.096	0.088
-153.662	-113.988	-0.051	-0.010
-152.647	39.234	0.080	-0.071
-151.633	-35.218	-0.399	0.215
-150.618	-81.224	0.135	-0.044
-149.604	-35.259	0.066	-0.036
-148.589	-159.537	-0.234	0.013
-147.574	356.065	0.042	-0.082
-146.560	-200.000	-0.017	-0.102
-145.545	800.000	0.138	0.431
-144.531	-200.000	-0.030	0.151
-143.516	-200.000	-0.017	0.095
-142.502	-110.535	0.137	-0.028
-141.487	108.236	0.161	-0.190
-140.472	800.000	-0.011	0.045
-139.458	-200.000	0.016	0.231
-138.443	522.700	-0.142	-0.330
-137.429	-193.802	0.134	-0.001
-136.414	269.964	-0.069	-0.120
-135.399	-50.958	-0.199	0.092
-134.385	-77.833	-0.359	0.122
-133.370	621.901	-0.190	-0.473
-132.356	-200.000	-0.059	0.334
-131.341	406.713	0.040	0.083
-130.326	387.874	-0.120	-0.245
-129.312	-99.438	-0.386	0.096
-128.297	-89.221	0.247	-0.072
-127.283	340.703	0.106	-0.205
-126.268	-138.442	-0.533	-0.058
-125.253	-200.000	0.022	-0.180
-124.239	766.576	-0.124	-0.334
-123.224	-141.471	0.206	-0.021
-122.210	37.317	0.266	-0.233
-121.195	800.000	-0.074	-0.249
-120.180	-87.544	-0.155	0.046
-119.166	-200.000	-0.042	0.324
-118.151	-84.012	0.138	0.043
-117.137	81.677	0.087	-0.093
-116.122	-18.960	-0.162	0.099
-115.107	579.068	-0.115	0.278
-114.093	450.625	-0.087	-0.190
-113.078	301.986	-0.061	-0.111
-112.064	33.341	0.151	0.129
-111.049	-107.270	-0.180	-0.039
-110.034	-200.000	0.031	0.214
-109.020	588.184	-0.060	0.145
-108.005	-157.817	-0.366	-0.021
-106.991	90.634	-0.061	-0.068
-105.976	-145.686	0.120	0.011
-104.962	102.917	0.095	-0.110
-103.947	103.927	-0.167	-0.193
-102.932	-107.749	0.101	0.022
-101.918	-200.000	-0.001	-0.078
-100.903	-46.264	0.226	0.110
-99.889	-200.000	0.057	-0.525
-98.874	-200.000	-0.052	-0.290
-97.859	-200.000	-0.008	-0.145
-96.845	-200.000	0.037	-0.161
-95.830	-200.000	-0.053	-0.364
-94.816	66.590	0.099	-0.100
-93.801	-15.436	-0.279	0.176
-92.786	272.390	-0.163	0.284
-91.772	164.142	0.103	-0.143
-90.757	-29.824	0.161	0.091
-89.743	16.163	0.152	-0.119
-88.728	-200.000	-0.035	0.307
-87.713	-108.532	-0.325	0.069
-86.699	89.520	-0.255	-0.281
-85.684	-200.000	0.034	-0.194
-84.670	511.532	0.038	0.088
-83.655	-200.000	-0.028	0.171
-82.640	-200.000	-0.036	-0.344
-81.626	-200.000	-0.001	0.176
-80.611	-200.000	-0.014	-0.293
-79.597	-133.925	0.165	-0.020
-78.582	-12.778	-0.307	-0.197
-77.567	-94.660	0.135	0.036
-76.553	-54.374	0.191	0.086
-75.538	-200.000	0.028	-0.325
-74.524	2.170	-0.219	-0.156
-73.509	-56.233	0.216	-0.095
-72.494	-152.180	-0.140	0.010
-71.480	149.836	0.048	0.064
-70.465	-200.000	0.025	-0.462
-69.451	-65.666	0.293	0.116
-68.436	-200.000	-0.003	-0.099
-67.422	-16.135	0.147	-0.092
-66.407	-200.000	-0.037	0.377
-65.392	-14.193	0.320	0.203
-64.378	121.338	-0.161	-0.197
-63.363	-20.823	0.151	-0.091
-62.349	645.287	0.058	-0.147
-61.334	79.276	-0.953	-1.007
-60.319	218.322	0.258	0.406
-59.305	800.000	-0.274	-0.801
-58.290	800.000	0.399	1.319
-57.276	800.000	0.424	1.327
-56.261	-200.000	98.348	594.958
-55.246	658.613	1399.993	3548.826
-54.232	186.825	2613.404	3836.373
-53.217	118.148	2301.247	2795.318
-52.203	44.985	1914.354	1737.063
-51.188	38.470	1702.319	1495.043
-50.173	35.577	1657.383	1433.969
-49.159	53.902	1706.439	1615.477
-48.144	57.240	1723.822	1657.077
-47.130	38.115	1680.023	1472.553
-46.115	35.148	1665.225	1437.301
-45.100	34.930	1660.245	1431.315
-44.086	34.923	1657.290	1428.658
-43.071	34.915	1654.860	1426.447
-42.057	34.871	1652.530	1424.055
-41.042	34.968	1650.271	1422.772
-40.027	34.968	1648.274	1420.993
-39.013	34.923	1645.915	1418.569
-37.998	35.012	1644.656	1418.094
-36.984	34.933	1643.120	1416.123
-35.969	35.051	1641.732	1415.747
-34.954	35.007	1640.253	1414.091
-33.940	34.993	1638.584	1412.486
-32.925	35.014	1636.718	1410.978
-31.911	35.013	1635.188	1409.597
-30.896	35.007	1633.404	1407.960
-29.881	34.972	1632.134	1406.548
-28.867	34.935	1629.949	1404.339
-27.852	35.095	1628.380	1404.110
-26.838	35.099	1626.462	1402.425
-25.823	35.078	1625.364	1401.273
-24.809	35.113	1624.393	1400.631
-23.794	35.077	1622.584	1398.758
-22.779	35.096	1621.242	1397.682
-21.765	35.113	1619.080	1395.885
-20.750	34.978	1618.133	1394.034
-19.736	35.103	1615.974	1393.027
-18.721	35.159	1614.423	1392.041
-17.706	35.106	1613.539	1390.840
-16.692	35.056	1611.961	1389.057
-15.677	35.104	1609.727	1387.427
-14.663	35.090	1609.052	1386.691
-13.648	35.115	1607.434	1385.418
-12.633	35.036	1606.075	1383.623
-11.619	35.074	1604.922	1382.846
-10.604	35.059	1603.241	1381.240
-9.590	35.158	1601.500	1380.399
-8.575	35.068	1600.601	1378.918
-7.560	35.020	1599.475	1377.546
-6.546	35.082	1597.906	1376.588
-5.531	35.102	1596.947	1375.854
-4.517	35.068	1595.918	1374.665
-3.502	35.052	1594.462	1373.243
-2.487	35.071	1593.246	1372.277
-1.473	34.683	1580.944	1358.867
-0.458	30.927	1559.582	1314.027
0.556	28.504	1557.471	1270.838
1.571	25.210	1579.997	1265.905
2.586	23.950	1592.241	1266.633
3.600	20.647	1537.515	1200.241
4.615	12.466	1429.169	1062.884
5.629	5.886	1365.339	974.561
6.644	4.734	1357.198	961.550
7.659	4.730	1355.903	960.524
8.673	4.657	1355.381	959.618
9.688	4.880	1353.369	959.483
10.702	4.816	1351.210	957.474
11.717	7.381	1356.153	976.707
12.731	15.204	1370.161	1035.215
13.746	21.399	1379.992	1080.972
14.761	22.346	1380.359	1087.014
15.775	21.488	1378.123	1079.870
16.790	20.562	1375.436	1071.956
17.804	19.639	1373.007	1064.290
18.819	19.301	1372.016	1061.343
19.834	19.157	1370.806	1059.426
20.848	19.074	1369.877	1058.105
21.863	18.830	1368.295	1055.290
22.877	18.702	1367.426	1053.739
23.892	18.722	1366.078	1052.735
24.907	18.716	1365.538	1052.188
25.921	18.610	1364.966	1051.002
26.936	18.649	1364.092	1050.474
27.950	18.684	1362.989	1049.751
28.965	18.856	1361.957	1049.911
29.980	18.940	1360.678	1049.343
30.994	18.917	1360.121	1048.680
32.009	19.006	1359.225	1048.443
33.023	18.957	1357.837	1046.981
34.038	18.851	1356.513	1045.221
35.053	18.817	1355.342	1044.019
36.067	18.858	1354.016	1043.155
37.082	18.954	1352.711	1042.642
38.096	18.969	1352.042	1042.121
39.111	18.946	1351.535	1041.502
40.126	18.729	1350.803	1039.533
41.140	18.667	1349.095	1037.751
42.155	18.514	1348.926	1036.601
43.169	18.401	1348.320	1035.365
44.184	18.348	1348.179	1034.841
45.199	18.386	1347.583	1034.520
46.213	18.567	1346.949	1035.034
47.228	18.744	1346.114	1035.372
48.242	18.805	1345.249	1034.979
49.257	18.682	1344.209	1033.352
50.271	18.742	1342.487	1032.297
51.286	18.753	1341.609	1031.592
52.301	18.697	1340.090	1029.999
53.315	18.641	1338.714	1028.512
54.330	18.508	1337.597	1026.771
55.344	18.491	1336.269	1025.556
56.359	18.520	1335.426	1024.994
57.374	18.490	1334.220	1023.795
58.388	18.356	1333.688	1022.500
59.403	18.454	1332.666	1022.206
60.417	18.357	1332.361	1021.304
61.432	18.285	1331.369	1020.027
62.447	18.336	1330.183	1019.331
63.461	18.150	1329.242	1017.414
64.476	18.176	1327.889	1016.442
65.490	18.169	1326.679	1015.382
66.505	18.207	1325.457	1014.587
67.520	18.098	1324.519	1013.130
68.534	18.303	1323.155	1013.211
69.549	18.293	1321.792	1012.017
70.563	18.110	1320.822	1010.109
71.578	18.011	1319.829	1008.671
72.593	18.082	1318.965	1008.343
73.607	18.084	1318.041	1007.559
74.622	18.087	1317.364	1006.966
75.636	18.146	1316.890	1006.863
76.651	18.135	1315.976	1006.014
77.666	18.263	1315.495	1006.308
78.680	18.187	1315.100	1005.468
79.695	18.323	1314.460	1005.693
80.709	18.330	1313.889	1005.208
81.724	18.391	1313.176	1004.931
82.739	18.576	1312.434	1005.358
83.753	18.669	1311.871	1005.384
84.768	18.805	1310.544	1005.074
85.782	18.890	1309.859	1004.953
86.797	18.921	1308.281	1003.836
87.812	18.745	1307.093	1001.807
88.826	18.722	1306.050	1000.787
89.841	18.832	1304.857	1000.424
90.855	18.883	1304.037	1000.007
91.870	18.931	1303.240	999.582
92.884	18.910	1302.308	998.657
93.899	19.046	1301.453	998.703
94.914	19.021	1301.003	998.125
95.928	18.995	1300.054	997.156
96.943	18.987	1298.808	996.067
97.957	18.824	1298.673	994.930
98.972	18.846	1297.022	993.709
99.987	18.920	1295.880	993.169
101.001	18.839	1295.381	992.234
102.016	18.836	1294.212	991.232
103.030	18.923	1293.316	990.961
104.045	18.898	1292.330	989.975
105.060	18.700	1291.461	988.082
106.074	18.519	1289.524	985.468
107.089	18.408	1287.876	983.488
108.103	18.263	1286.675	981.650
109.118	18.246	1285.255	980.380
110.133	18.325	1283.784	979.625
111.147	18.287	1282.712	978.505
112.162	18.339	1281.908	978.101
113.176	18.445	1280.247	977.352
114.191	18.520	1279.709	977.283
115.206	18.496	1278.701	976.290
116.220	18.397	1277.524	974.741
117.235	18.490	1276.457	974.369
118.249	18.419	1275.237	972.951
119.264	18.314	1274.587	971.769
120.279	18.192	1273.203	969.936
121.293	18.260	1271.598	969.017
122.308	18.133	1270.704	967.527
123.322	18.052	1269.745	966.259
124.337	18.085	1268.578	965.467
125.352	18.133	1267.709	964.992
126.366	18.018	1266.553	963.377
127.381	18.181	1265.114	963.119
128.395	18.132	1264.386	962.204
129.410	18.110	1263.942	961.654
130.424	18.352	1263.100	962.291
131.439	18.377	1261.834	961.378
132.454	18.413	1261.386	961.154
133.468	18.385	1260.196	960.010
134.483	18.443	1259.765	959.918
135.497	18.451	1258.909	959.224
136.512	18.532	1257.514	958.532
137.527	18.469	1256.356	957.210
138.541	18.516	1254.931	956.307
139.556	18.586	1253.545	955.555
140.570	18.639	1252.805	955.199
141.585	18.694	1251.643	954.537
142.600	18.794	1250.587	954.200
143.614	18.909	1249.779	954.140
144.629	18.927	1248.905	953.484
145.643	18.966	1247.425	952.486
146.658	18.750	1246.269	950.328
147.673	18.634	1244.765	948.452
148.687	18.524	1243.732	946.978
149.702	18.590	1241.993	945.930
150.716	18.460	1241.169	944.502
151.731	18.437	1239.923	943.343
152.746	18.437	1238.878	942.469
153.760	18.623	1237.376	942.264
154.775	18.740	1236.295	942.000
155.789	18.762	1235.492	941.426
156.804	18.727	1234.919	940.711
157.819	18.746	1233.630	939.751
158.833	18.870	1233.505	940.251
159.848	18.982	1231.973	939.611
160.862	18.855	1231.227	938.265
161.877	18.748	1229.783	936.497
162.892	18.539	1228.402	934.227
163.906	18.489	1227.715	933.350
164.921	18.608	1226.599	933.067
165.935	18.676	1225.715	932.678
166.950	18.735	1225.357	932.643
167.964	18.693	1224.644	931.794
168.979	18.645	1223.736	930.761
169.994	18.740	1222.910	930.564
171.008	18.744	1222.130	929.909
172.023	18.814	1221.537	929.757
173.037	18.900	1220.812	929.584
174.052	18.790	1220.305	928.524
175.067	18.721	1218.266	926.518
176.081	18.595	1217.318	925.034
177.096	18.595	1216.533	924.353
178.110	18.603	1215.288	923.371
179.125	18.740	1214.005	923.049
180.140	18.718	1213.199	922.237
181.154	18.801	1212.087	921.758
182.169	18.882	1210.918	921.221
183.183	18.962	1210.138	920.972
184.198	19.092	1208.978	920.706
185.213	19.044	1208.058	919.666
186.227	18.958	1207.158	918.440
187.242	19.036	1205.982	917.879
188.256	19.117	1205.064	917.531
189.271	19.155	1203.859	916.738
190.286	19.002	1202.678	914.943
191.300	18.635	1201.892	912.311
192.315	18.483	1200.885	910.657
193.329	18.538	1200.020	910.214
194.344	18.672	1199.916	910.769
195.359	18.809	1199.352	910.987
196.373	18.794	1199.394	910.855
197.388	18.898	1199.179	911.165
198.402	19.055	1198.205	911.175
199.417	19.239	1197.903	911.836
200.432	19.295	1197.433	911.697
201.446	19.315	1196.995	911.388
202.461	19.460	1195.633	911.036
203.475	19.460	1194.856	910.364
204.490	19.269	1193.311	908.099
205.504	19.042	1192.080	905.887
206.519	19.123	1190.402	904.955
207.534	19.110	1189.468	904.099
208.548	19.115	1188.319	903.173
209.563	19.063	1187.653	902.312
210.577	19.137	1187.329	902.376
211.592	19.209	1186.092	901.734
212.607	19.383	1185.146	901.841
213.621	19.419	1184.330	901.332
214.636	19.268	1183.840	900.088
215.650	19.376	1182.910	899.867
216.665	19.469	1181.852	899.465
217.680	19.516	1181.428	899.307
218.694	19.602	1180.365	898.865
219.709	19.636	1179.578	898.367
220.723	19.443	1179.111	896.928
221.738	19.390	1178.306	895.958
222.753	19.394	1177.656	895.406
223.767	19.371	1176.994	894.705
224.782	19.612	1176.446	895.461
225.796	19.672	1176.029	895.372
226.811	19.649	1174.946	894.350
227.826	19.503	1173.920	892.733
228.840	19.544	1172.893	892.087
229.855	19.414	1172.768	891.242
230.869	19.423	1171.628	890.340
231.884	19.358	1170.848	889.336
232.899	19.300	1169.843	888.194
233.913	19.312	1169.046	887.574
234.928	19.202	1168.627	886.612
235.942	19.319	1167.419	886.217
236.957	19.194	1167.076	885.234
237.972	19.214	1166.527	884.845
238.986	19.299	1165.481	884.409
240.001	19.366	1164.773	884.136
241.015	19.252	1164.391	883.184
242.030	19.434	1163.453	883.326
243.045	19.539	1162.492	883.056
244.059	19.564	1162.027	882.753
245.074	19.553	1160.685	881.599
246.088	19.625	1160.524	881.768
247.103	19.605	1160.251	881.377
248.117	19.670	1159.319	880.922
249.132	19.889	1158.709	881.499
250.147	20.071	1158.380	882.096
251.161	20.274	1157.362	882.277
252.176	20.193	1156.718	881.293
253.190	20.226	1156.293	881.061
254.205	20.378	1155.431	881.097
255.220	20.267	1155.282	880.342
256.234	20.360	1153.879	879.666
257.249	20.310	1153.576	879.102
258.263	20.216	1153.151	878.227
259.278	20.294	1152.547	878.082
260.293	20.237	1152.244	877.487
261.307	20.445	1151.420	877.835
262.322	20.490	1150.679	877.416
263.336	20.444	1149.883	876.499
264.351	20.440	1149.508	876.117
265.366	20.466	1148.777	875.615
266.380	20.434	1148.172	874.912
267.395	20.364	1147.142	873.698
268.409	20.304	1146.614	872.920
269.424	20.346	1145.892	872.501
270.439	20.318	1145.074	871.662
271.453	20.242	1144.551	870.803
272.468	20.155	1143.660	869.612
273.482	20.201	1142.917	869.200
274.497	20.189	1142.302	868.599
275.512	20.229	1141.658	868.232
276.526	20.169	1140.729	867.149
277.541	20.174	1140.528	866.942
278.555	20.218	1139.527	866.325
279.570	20.463	1138.945	867.028
280.585	20.535	1138.104	866.670
281.599	20.600	1136.931	866.027
282.614	20.509	1135.628	864.504
283.628	20.380	1134.660	863.048
284.643	20.260	1134.264	862.073
285.657	20.298	1133.257	861.420
286.672	20.297	1132.404	860.690
287.687	20.477	1131.069	860.493
288.701	20.406	1130.756	859.829
289.716	20.479	1129.954	859.500
290.730	20.364	1129.492	858.507
291.745	20.510	1128.318	858.259
292.760	20.579	1127.710	858.061
293.774	20.600	1127.808	858.162
294.789	20.736	1127.173	858.277
295.803	20.643	1126.393	857.147
296.818	20.491	1125.590	855.711
297.833	20.504	1124.644	854.983
298.847	20.495	1123.755	854.187
299.862	20.479	1123.094	853.530
300.876	20.527	1122.614	853.321
301.891	20.686	1121.774	853.391
302.906	20.664	1121.122	852.709
303.920	20.761	1120.818	852.876
304.935	20.899	1120.202	853.011
305.949	21.064	1119.534	853.231
306.964	20.856	1119.368	852.012
307.979	20.805	1118.100	850.723
308.993	20.790	1117.368	850.019
310.008	20.811	1116.761	849.584
311.022	20.861	1115.787	849.012
312.037	20.987	1114.845	848.835
313.052	20.691	1113.975	846.653
314.066	20.646	1113.132	845.722
315.081	20.646	1111.963	844.758
316.095	20.527	1111.579	843.816
317.110	20.555	1110.423	842.995
318.125	20.634	1109.633	842.706
319.139	20.545	1108.991	841.713
320.154	20.511	1108.568	841.151
321.168	20.625	1107.760	841.015
322.183	20.627	1107.564	840.803
323.197	20.625	1106.802	840.141
324.212	20.751	1105.898	839.986
325.227	20.710	1105.629	839.512
326.241	20.777	1104.816	839.146
327.256	20.763	1103.748	838.192
328.270	20.797	1102.809	837.566
329.285	20.627	1102.004	836.063
330.300	20.734	1100.982	835.728
331.314	20.753	1100.022	835.019
332.329	20.750	1099.491	834.524
333.343	20.697	1098.610	833.528
334.358	20.821	1097.924	833.531
335.373	20.899	1097.604	833.586
336.387	20.927	1096.273	832.633
337.402	20.950	1095.393	832.004
338.416	21.093	1095.129	832.408
339.431	21.070	1094.861	832.023
340.446	21.182	1094.147	831.940
341.460	21.332	1093.552	832.128
342.475	21.415	1092.608	831.729
343.489	21.346	1091.866	830.765
344.504	21.401	1090.858	830.186
345.519	21.468	1090.162	829.902
346.533	21.549	1089.308	829.561
347.548	21.470	1089.153	828.996
348.562	21.548	1088.125	828.510
349.577	21.404	1086.949	826.857
350.592	21.126	1085.854	824.639
351.606	21.136	1084.931	823.912
352.621	21.024	1084.472	822.961
353.635	21.023	1083.711	822.309
354.650	21.122	1083.134	822.266
355.665	21.139	1082.463	821.763
356.679	21.225	1082.044	821.775
357.694	21.247	1081.052	821.055
358.708	21.342	1080.325	820.876
359.723	21.461	1079.605	820.811
360.738	21.298	1079.554	819.935
361.752	21.389	1078.930	819.817
362.767	21.415	1078.659	819.660
363.781	21.466	1077.890	819.240
364.796	21.511	1077.679	819.220
365.810	21.561	1076.794	818.709
366.825	21.668	1076.309	818.769
367.840	21.709	1076.397	818.952
368.854	21.909	1075.098	818.827
369.869	21.894	1074.491	818.221
370.883	21.713	1073.848	816.818
371.898	21.697	1072.629	815.740
372.913	21.643	1072.066	814.992
373.927	21.708	1071.853	815.060
374.942	21.851	1071.270	815.208
375.956	21.766	1071.025	814.556
376.971	21.828	1070.132	814.093
377.986	21.921	1069.515	813.983
379.000	21.914	1069.231	813.659
380.015	21.949	1068.988	813.568
381.029	22.183	1068.447	814.164
382.044	22.016	1067.693	812.746
383.059	22.058	1066.385	811.873
384.073	21.883	1065.888	810.615
385.088	22.024	1064.840	810.394
386.102	22.102	1063.662	809.790
387.117	21.884	1062.462	807.801
388.132	21.809	1061.552	806.690
389.146	21.697	1061.306	805.916
390.161	21.752	1060.175	805.237
391.175	21.735	1059.908	804.887
392.190	21.776	1059.270	804.520
393.205	21.885	1058.557	804.406
394.219	21.880	1057.688	803.655
395.234	21.897	1056.308	802.611
396.248	21.917	1055.344	801.900
397.263	21.690	1054.959	800.496
398.278	21.619	1054.702	799.908
399.292	21.691	1053.629	799.351
400.307	21.579	1052.464	797.888
401.321	21.781	1051.676	798.138
402.336	21.705	1051.109	797.291
403.350	21.656	1050.546	796.570
404.365	21.696	1049.961	796.240
405.380	21.855	1049.260	796.360
406.394	21.946	1048.447	796.084
407.409	22.031	1047.702	795.832
408.423	22.037	1047.420	795.578
409.438	22.189	1046.897	795.798
410.453	22.134	1046.086	794.863
411.467	22.206	1045.697	794.819
412.482	22.419	1044.741	794.984
413.496	22.292	1044.433	794.108
414.511	22.447	1043.597	794.100
415.526	22.505	1043.110	793.923
416.540	22.517	1042.941	793.778
417.555	22.454	1042.160	792.829
418.569	22.455	1041.774	792.467
419.584	22.474	1040.954	791.858
420.599	22.504	1040.284	791.415
421.613	154.704	1399.843	1788.608
422.628	141.619	1452.225	1788.715
