DTS Sentinel unit serial number:	SN413079Multiplexer serial number:	ORYXHardware model number:	OX4-SRSoftware version number:	ORYX F/W v4.00 Oryx Data Collector v3.7.2.0data status	okinstallation	princeton_trtdifferential loss correction	single-endedforward channel	channel 2reverse channel	N/Adate	2019/09/18time	00:11:34forward acquisition time	60.00reverse acquisition time	0.00gamma	496.2192k internal	0.2349k external	0.2349temperature offset calibration	0.9981default loss term (dB/km)	0.3790temperature slope calibration	1.0000multiplexer offset coefficient	1.0000multiplexer slope coefficient	1.0000fibre end	0.00T internal ref (°C)	23.75T ext. ref 1 (°C)	0.16T ext. ref 2 (°C)	17.30length (m)	temperature (°C)	Stokes	anti-Stokes-747.200	353.014	-0.036	0.071
-746.185	239.959	0.167	0.277
-745.171	-200.000	-0.015	-0.168
-744.156	38.603	-0.176	-0.157
-743.142	-127.191	0.375	-0.055
-742.127	-57.468	-0.457	-0.200
-741.112	569.997	0.083	0.202
-740.098	113.220	-0.075	0.090
-739.083	-118.576	0.063	-0.011
-738.069	124.772	-0.152	0.191
-737.054	160.708	0.011	0.015
-736.039	-139.494	-0.313	0.033
-735.025	-200.000	-0.025	0.162
-734.010	305.811	-0.077	-0.143
-732.996	-43.385	-0.332	-0.167
-731.981	-128.209	-0.160	0.023
-730.966	160.409	0.101	0.141
-729.952	-153.365	-0.417	0.029
-728.937	284.945	-0.125	0.224
-727.923	-151.539	0.060	0.004
-726.908	-88.243	0.183	-0.055
-725.894	800.000	-0.050	-0.139
-724.879	332.345	-0.169	-0.326
-723.864	-200.000	0.020	0.136
-722.850	-200.000	-0.003	-0.015
-721.835	130.677	0.055	-0.070
-720.821	-200.000	0.022	-0.149
-719.806	-125.905	0.412	-0.062
-718.791	-200.000	-0.017	-0.081
-717.777	800.000	0.081	-0.284
-716.762	174.623	0.077	-0.112
-715.748	315.073	0.224	0.421
-714.733	114.330	-0.175	-0.212
-713.718	-200.000	0.010	-0.075
-712.704	-180.419	-0.254	0.005
-711.689	-139.569	0.191	-0.020
-710.675	-43.947	-0.337	0.169
-709.660	-200.000	0.020	-0.119
-708.645	-200.000	0.037	0.330
-707.631	292.464	-0.134	-0.243
-706.616	-1.541	0.340	-0.239
-705.602	-172.248	-0.153	-0.005
-704.587	-114.330	-0.421	0.081
-703.572	-84.684	0.369	0.116
-702.558	-80.892	-0.110	0.036
-701.543	800.000	0.090	-0.251
-700.529	371.038	-0.023	0.047
-699.514	-200.000	0.001	0.114
-698.499	33.472	0.202	-0.175
-697.485	800.000	0.017	0.049
-696.470	-33.407	0.076	0.042
-695.456	133.656	-0.172	0.222
-694.441	800.000	-0.099	0.276
-693.426	-135.271	0.259	-0.031
-692.412	1.169	-0.384	0.275
-691.397	-119.174	-0.204	-0.036
-690.383	-38.227	-0.088	-0.046
-689.368	-32.953	-0.055	0.030
-688.354	800.000	0.034	0.107
-687.339	389.013	0.147	-0.302
-686.324	800.000	0.011	-0.038
-685.310	188.098	-0.115	0.171
-684.295	508.469	0.084	-0.195
-683.281	800.000	-0.081	-0.253
-682.266	-112.650	-0.237	0.047
-681.251	-200.000	-0.006	-0.082
-680.237	-200.000	-0.019	-0.187
-679.222	-21.008	0.088	-0.054
-678.208	-43.187	-0.161	0.081
-677.193	-14.933	0.222	-0.142
-676.178	-64.460	-0.330	-0.134
-675.164	213.984	-0.163	-0.257
-674.149	694.380	-0.087	0.227
-673.135	161.117	-0.068	-0.094
-672.120	-200.000	0.206	0.001
-671.105	58.105	-0.169	-0.165
-670.091	46.008	-0.146	-0.134
-669.076	335.261	-0.112	-0.216
-668.062	173.117	0.100	-0.143
-667.047	34.338	-0.182	-0.158
-666.032	49.903	0.138	0.130
-665.018	800.000	0.078	-0.226
-664.003	141.773	-0.124	0.163
-662.989	-200.000	-0.036	-0.159
-661.974	-170.297	0.146	-0.005
-660.959	6.779	-0.258	0.191
-659.945	650.676	-0.104	-0.264
-658.930	-2.555	-0.368	-0.256
-657.916	672.602	-0.140	0.362
-656.901	-42.446	0.318	0.161
-655.886	632.660	-0.039	0.099
-654.872	-144.346	0.188	0.017
-653.857	-15.894	0.306	0.194
-652.843	-143.183	-0.166	0.016
-651.828	-200.000	-0.015	-0.090
-650.814	51.201	0.048	0.045
-649.799	100.591	-0.119	-0.138
-648.784	350.290	0.104	-0.204
-647.770	292.472	0.143	-0.259
-646.755	-200.000	-0.005	0.131
-645.741	789.732	0.049	-0.135
-644.726	224.909	-0.208	-0.334
-643.711	-106.113	0.219	0.049
-642.697	63.924	0.279	-0.279
-641.682	-121.714	0.112	-0.018
-640.668	-140.907	0.152	-0.016
-639.653	117.703	-0.199	-0.244
-638.638	-200.000	-0.045	0.357
-637.624	-200.000	0.014	0.133
-636.609	800.000	0.178	-0.527
-635.595	40.034	-0.280	-0.250
-634.580	506.873	-0.068	-0.158
-633.565	800.000	-0.021	0.090
-632.551	751.853	0.157	-0.422
-631.536	-33.115	0.144	-0.079
-630.522	-100.228	-0.426	0.105
-629.507	-38.468	-0.329	-0.173
-628.492	-34.342	-0.216	-0.118
-627.478	-91.462	0.137	-0.039
-626.463	-58.733	0.358	-0.154
-625.449	-124.300	-0.242	0.038
-624.434	-200.000	0.074	-0.384
-623.419	0.960	-0.290	-0.207
-622.405	378.363	0.106	-0.216
-621.390	-21.921	0.021	-0.013
-620.376	129.662	-0.122	-0.155
-619.361	-75.058	0.182	-0.065
-618.346	67.558	0.372	0.377
-617.332	419.956	0.060	-0.127
-616.317	-126.796	0.129	-0.019
-615.303	297.447	-0.156	-0.285
-614.288	-200.000	0.002	0.036
-613.273	623.514	0.167	-0.418
-612.259	-108.601	0.585	0.125
-611.244	-28.392	0.477	0.273
-610.230	101.617	-0.042	0.049
-609.215	-171.284	-0.260	0.009
-608.201	-200.000	0.009	-0.265
-607.186	-141.361	-0.111	0.011
-606.171	117.473	-0.132	-0.162
-605.157	192.211	0.213	0.319
-604.142	-173.920	-0.070	-0.002
-603.128	593.621	-0.046	-0.112
-602.113	-61.645	-0.210	0.088
-601.098	25.662	0.311	-0.257
-600.084	388.136	0.171	0.352
-599.069	258.254	-0.100	-0.170
-598.055	-51.121	-0.315	0.147
-597.040	-48.958	-0.282	-0.134
-596.025	300.494	0.063	0.116
-595.011	-113.079	-0.190	0.037
-593.996	-69.511	-0.259	0.098
-592.982	-200.000	-0.011	0.053
-591.967	-166.829	-0.305	0.012
-590.952	-168.135	-0.202	-0.008
-589.938	800.000	0.053	-0.163
-588.923	158.313	0.122	0.169
-587.909	800.000	0.092	0.284
-586.894	-59.224	0.294	0.126
-585.879	539.691	-0.037	-0.088
-584.865	312.136	-0.076	0.142
-583.850	-79.799	0.166	0.055
-582.836	35.633	0.165	-0.144
-581.821	-80.325	0.313	0.104
-580.806	390.139	-0.163	-0.336
-579.792	703.221	-0.063	0.166
-578.777	363.529	-0.116	-0.232
-577.763	800.000	0.050	0.148
-576.748	-113.516	0.090	0.017
-575.733	274.745	-0.191	-0.336
-574.719	-20.813	0.145	0.088
-573.704	-25.024	-0.198	0.117
-572.690	222.265	0.245	0.391
-571.675	429.717	-0.166	0.355
-570.661	18.135	-0.082	0.065
-569.646	217.305	0.066	0.104
-568.631	-40.419	-0.283	-0.146
-567.617	800.000	-0.060	0.187
-566.602	-7.180	0.288	-0.194
-565.588	-200.000	-0.002	0.067
-564.573	-129.993	-0.081	-0.011
-563.558	-200.000	-0.004	-0.165
-562.544	-44.969	-0.194	0.096
-561.529	172.259	0.153	-0.219
-560.515	-166.013	-0.153	0.006
-559.500	486.955	0.088	-0.199
-558.485	-200.000	-0.027	0.139
-557.471	-200.000	-0.008	0.230
-556.456	246.713	-0.058	-0.097
-555.442	-45.197	-0.166	0.082
-554.427	-71.236	-0.275	-0.102
-553.412	-57.915	0.210	0.091
-552.398	25.643	0.185	-0.153
-551.383	-23.445	0.055	0.033
-550.369	800.000	-0.131	-0.378
-549.354	-200.000	-0.010	0.266
-548.339	-200.000	0.027	-0.165
-547.325	54.811	0.380	-0.364
-546.310	-72.874	0.238	-0.087
-545.296	-9.163	-0.094	0.062
-544.281	111.381	0.215	0.257
-543.266	-75.068	0.319	-0.113
-542.252	-200.000	-0.069	-0.324
-541.237	-155.274	-0.210	0.014
-540.223	-11.846	0.027	0.018
-539.208	708.656	0.082	0.216
-538.193	-72.468	0.033	-0.012
-537.179	-173.599	-0.109	-0.003
-536.164	-4.743	0.264	-0.180
-535.150	-133.827	-0.169	0.021
-534.135	800.000	-0.029	0.089
-533.121	-200.000	-0.027	0.213
-532.106	32.250	-0.179	-0.153
-531.091	25.794	-0.235	0.194
-530.077	-22.419	-0.229	0.137
-529.062	-61.670	0.181	0.075
-528.048	35.758	-0.042	0.037
-527.033	67.372	0.186	0.188
-526.018	-143.575	0.182	0.017
-525.004	-130.272	-0.328	0.044
-523.989	-200.000	-0.019	0.106
-522.975	-200.000	0.045	0.270
-521.960	94.488	-0.044	-0.049
-520.945	-135.090	0.092	-0.011
-519.931	180.931	-0.118	-0.171
-518.916	30.268	-0.010	0.009
-517.902	-21.347	-0.293	-0.177
-516.887	118.565	0.167	0.204
-515.872	8.350	0.329	0.245
-514.858	-200.000	-0.005	0.167
-513.843	-200.000	0.085	0.441
-512.829	13.836	-0.058	0.045
-511.814	-51.112	-0.273	-0.127
-510.799	259.303	-0.229	0.392
-509.785	800.000	0.119	0.338
-508.770	-96.130	0.152	-0.040
-507.756	580.193	0.099	-0.241
-506.741	202.379	0.174	0.265
-505.726	-164.615	0.279	-0.013
-504.712	72.569	-0.187	0.193
-503.697	51.223	-0.206	0.193
-502.683	-52.463	0.053	-0.024
-501.668	-200.000	-0.030	-0.169
-500.653	276.834	0.101	-0.177
-499.639	-200.000	-0.029	-0.175
-498.624	207.822	0.235	0.363
-497.610	-200.000	-0.035	0.328
-496.595	-48.372	0.073	-0.035
-495.581	-200.000	0.010	-0.300
-494.566	-90.638	0.570	0.163
-493.551	-116.240	0.373	-0.068
-492.537	13.788	-0.004	-0.003
-491.522	-110.286	0.167	-0.034
-490.508	294.101	-0.030	-0.054
-489.493	-183.551	0.213	-0.004
-488.478	-106.077	0.288	-0.064
-487.464	-85.863	-0.167	0.051
-486.449	-200.000	0.003	0.187
-485.435	-39.018	-0.152	0.079
-484.420	318.012	-0.087	0.163
-483.405	232.748	-0.139	0.227
-482.391	29.013	0.091	-0.076
-481.376	286.239	0.132	0.236
-480.362	18.086	-0.120	-0.094
-479.347	-200.000	-0.000	0.089
-478.332	45.717	-0.163	-0.149
-477.318	-54.787	0.067	0.030
-476.303	-130.237	-0.384	-0.052
-475.289	7.567	0.048	0.036
-474.274	800.000	-0.035	0.117
-473.259	-115.285	0.229	-0.043
-472.245	56.187	-0.160	0.154
-471.230	323.289	-0.228	-0.430
-470.216	264.371	0.171	0.295
-469.201	-113.786	-0.290	0.056
-468.186	276.121	-0.138	-0.243
-467.172	111.277	0.173	-0.206
-466.157	30.363	-0.223	-0.188
-465.143	-101.775	0.236	-0.056
-464.128	-200.000	-0.039	0.503
-463.113	-111.153	0.167	-0.034
-462.099	82.077	-0.286	-0.307
-461.084	-180.533	-0.331	0.007
-460.070	132.147	-0.188	-0.239
-459.055	74.065	0.122	-0.127
-458.040	800.000	0.056	0.190
-457.026	211.076	-0.209	0.324
-456.011	-121.779	0.239	0.039
-454.997	51.835	-0.162	0.153
-453.982	-90.745	0.069	-0.020
-452.968	49.795	-0.201	0.187
-451.953	800.000	0.025	0.103
-450.938	719.485	-0.071	0.187
-449.924	320.599	-0.067	0.127
-448.909	-200.000	0.025	0.160
-447.895	-82.254	0.265	0.085
-446.880	800.000	-0.136	-0.529
-445.865	39.833	-0.190	-0.168
-444.851	-149.938	0.263	-0.020
-443.836	-178.564	0.176	0.004
-442.822	194.676	0.132	0.198
-441.807	-106.225	-0.460	-0.102
-440.792	-200.000	-0.001	-0.074
-439.778	-89.871	0.307	-0.089
-438.763	297.517	-0.070	0.127
-437.749	-34.526	-0.187	-0.101
-436.734	-3.475	-0.254	-0.174
-435.719	-200.000	-0.002	-0.258
-434.705	33.174	0.195	0.167
-433.690	800.000	-0.031	0.126
-432.676	87.370	0.270	0.294
-431.661	-6.533	0.019	0.013
-430.646	-92.605	-0.377	-0.104
-429.632	-200.000	-0.020	-0.259
-428.617	-200.000	-0.280	-0.001
-427.603	102.484	0.144	0.166
-426.588	-54.801	-0.265	0.118
-425.573	-200.000	0.026	-0.294
-424.559	-195.153	0.446	-0.003
-423.544	-200.000	0.038	0.179
-422.530	3.417	-0.302	0.217
-421.515	734.750	-0.014	-0.038
-420.500	-200.000	0.016	0.147
-419.486	179.565	-0.146	-0.211
-418.471	-200.000	0.010	-0.126
-417.457	-78.358	0.216	0.073
-416.442	131.190	0.153	-0.194
-415.428	-164.091	0.345	0.016
-414.413	236.236	-0.139	-0.227
-413.398	49.564	-0.088	0.082
-412.384	226.026	0.170	0.272
-411.369	26.499	-0.312	0.258
-410.355	800.000	-0.089	-0.349
-409.340	11.534	-0.202	-0.153
-408.325	110.413	-0.101	0.120
-407.311	-200.000	0.015	-0.173
-406.296	-89.498	0.261	-0.076
-405.282	48.399	-0.199	0.184
-404.267	-39.126	0.096	-0.050
-403.252	230.092	-0.118	0.189
-402.238	-200.000	-0.005	0.106
-401.223	-65.629	0.119	-0.047
-400.209	-200.000	-0.022	0.325
-399.194	206.206	-0.130	-0.199
-398.179	-200.000	-0.004	0.160
-397.165	-115.048	-0.228	-0.043
-396.150	-17.114	-0.279	-0.173
-395.136	144.066	0.218	-0.286
-394.121	-100.616	-0.139	0.034
-393.106	-18.779	-0.188	0.115
-392.092	-48.069	0.118	0.056
-391.077	195.704	0.104	-0.156
-390.063	-200.000	-0.004	0.468
-389.048	-200.000	-0.003	0.117
-388.033	800.000	0.045	-0.143
-387.019	186.457	0.046	-0.068
-386.004	-45.899	0.379	-0.184
-384.990	3.978	-0.037	-0.027
-383.975	800.000	-0.060	-0.223
-382.960	800.000	-0.066	-0.245
-381.946	-124.188	-0.183	0.028
-380.931	800.000	-0.090	0.281
-379.917	-103.067	-0.256	-0.060
-378.902	72.372	-0.276	0.283
-377.888	-162.562	0.130	-0.006
-376.873	-97.435	0.210	0.054
-375.858	-108.241	-0.318	0.068
-374.844	117.820	-0.176	0.214
-373.829	529.461	-0.096	0.224
-372.815	519.139	-0.134	0.308
-371.800	-100.487	0.104	0.025
-370.785	-169.620	-0.166	-0.006
-369.771	269.703	0.086	0.149
-368.756	800.000	0.023	0.077
-367.742	63.773	-0.143	0.141
-366.727	150.221	0.146	0.195
-365.712	-68.088	-0.204	0.078
-364.698	-10.203	-0.212	-0.138
-363.683	12.269	-0.099	0.075
-362.669	106.278	-0.094	-0.110
-361.654	-120.087	-0.069	-0.012
-360.639	-200.000	-0.052	-0.238
-359.625	-11.607	-0.078	-0.050
-358.610	-61.936	0.337	0.139
-357.596	-200.000	0.007	0.386
-356.581	-200.000	-0.003	0.034
-355.566	800.000	0.010	-0.037
-354.552	93.509	0.050	0.055
-353.537	-92.584	0.070	0.019
-352.523	-9.218	0.297	-0.195
-351.508	-75.658	-0.227	0.079
-350.493	-88.269	0.085	-0.025
-349.479	-156.628	-0.021	-0.001
-348.464	460.676	-0.119	-0.261
-347.450	-29.867	0.426	-0.239
-346.435	476.566	0.053	-0.117
-345.420	84.600	-0.066	0.071
-344.406	-189.776	0.092	-0.001
-343.391	390.744	-0.046	-0.093
-342.377	800.000	-0.066	0.186
-341.362	-106.924	-0.252	-0.055
-340.348	449.754	-0.051	0.112
-339.333	-4.552	0.278	0.189
-338.318	213.087	-0.093	-0.144
-337.304	-200.000	0.032	-0.208
-336.289	225.190	0.046	-0.073
-335.275	800.000	0.082	-0.268
-334.260	-88.362	0.054	-0.016
-333.245	127.524	-0.196	-0.245
-332.231	-200.000	0.053	-0.350
-331.216	-114.706	0.218	-0.041
-330.202	800.000	0.050	0.153
-329.187	800.000	0.046	0.166
-328.172	800.000	0.056	-0.212
-327.158	-124.620	0.347	0.053
-326.143	-85.324	-0.411	-0.126
-325.129	-34.329	0.165	-0.089
-324.114	76.668	0.166	0.173
-323.099	800.000	-0.072	-0.233
-322.085	16.378	-0.176	0.137
-321.070	-200.000	-0.054	0.245
-320.056	258.698	0.155	0.262
-319.041	-32.533	-0.166	0.091
-318.026	-53.994	-0.038	0.017
-317.012	-115.832	0.265	0.049
-315.997	207.279	0.149	-0.228
-314.983	319.491	-0.042	0.077
-313.968	-99.854	-0.080	0.020
-312.953	52.472	0.139	-0.131
-311.939	800.000	-0.089	-0.315
-310.924	296.286	0.071	-0.128
-309.910	202.011	-0.221	0.334
-308.895	124.360	0.125	-0.155
-307.880	-61.834	-0.275	0.113
-306.866	90.025	-0.067	0.074
-305.851	-149.500	-0.124	-0.010
-304.837	-127.151	-0.162	-0.023
-303.822	-76.453	0.154	-0.053
-302.807	-20.005	-0.106	0.064
-301.793	800.000	0.045	-0.182
-300.778	21.771	-0.074	0.059
-299.764	800.000	0.026	-0.097
-298.749	7.926	0.206	0.151
-297.735	-186.386	-0.306	0.004
-296.720	-58.460	0.145	-0.062
-295.705	-22.189	0.185	0.110
-294.691	-200.000	-0.080	0.360
-293.676	-200.000	-0.068	-0.316
-292.662	40.205	0.139	-0.122
-291.647	190.263	-0.250	-0.368
-290.632	-129.652	-0.152	0.021
-289.618	-67.486	0.205	0.079
-288.603	-200.000	0.043	-0.281
-287.589	600.993	-0.068	-0.167
-286.574	-200.000	-0.032	0.259
-285.559	27.972	0.451	-0.373
-284.545	-116.835	-0.210	0.038
-283.530	800.000	-0.081	0.268
-282.516	800.000	0.037	0.131
-281.501	43.061	0.250	0.224
-280.486	279.621	-0.086	0.150
-279.472	-109.669	0.075	-0.016
-278.457	3.282	0.253	-0.180
-277.443	598.460	-0.078	0.190
-276.428	229.145	0.021	-0.034
-275.413	800.000	0.110	-0.462
-274.399	-16.496	-0.048	-0.030
-273.384	-61.747	-0.142	0.058
-272.370	800.000	-0.068	0.271
-271.355	-35.122	-0.283	-0.151
-270.340	18.165	-0.293	-0.229
-269.326	-151.972	0.070	-0.005
-268.311	193.741	-0.177	-0.263
-267.297	-142.975	-0.198	-0.019
-266.282	219.489	-0.176	0.276
-265.267	-117.242	0.185	0.033
-264.253	202.460	-0.189	0.286
-263.238	-200.000	-0.001	-0.073
-262.224	462.822	-0.115	-0.251
-261.209	312.078	-0.178	-0.327
-260.195	10.148	-0.217	-0.162
-259.180	100.530	-0.108	0.123
-258.165	-200.000	0.029	-0.238
-257.151	-200.000	0.004	0.172
-256.136	-200.000	-0.011	-0.108
-255.122	-117.980	0.283	0.050
-254.107	-33.782	-0.122	0.066
-253.092	-200.000	0.034	-0.200
-252.078	800.000	0.065	0.182
-251.063	800.000	-0.038	0.149
-250.049	136.309	-0.097	0.124
-249.034	-63.055	0.175	0.071
-248.019	-200.000	0.054	0.264
-247.005	-3.205	-0.301	-0.206
-245.990	-107.949	-0.429	-0.091
-244.976	-200.000	0.034	0.182
-243.961	-65.043	-0.241	-0.095
-242.946	-32.775	0.117	0.064
-241.932	647.245	-0.129	-0.323
-240.917	800.000	-0.059	-0.161
-239.903	-200.000	-0.016	0.300
-238.888	-26.215	0.210	-0.121
-237.873	157.033	0.245	0.332
-236.859	-200.000	-0.021	0.110
-235.844	150.204	0.112	0.148
-234.830	400.060	-0.052	0.106
-233.815	753.002	-0.067	-0.178
-232.800	68.903	0.414	-0.417
-231.786	-200.000	-0.007	0.406
-230.771	138.624	0.153	-0.197
-229.757	-60.960	-0.213	-0.088
-228.742	-125.409	0.160	0.024
-227.727	-39.659	-0.331	0.169
-226.713	103.392	0.096	0.110
-225.698	124.805	0.055	-0.068
-224.684	79.795	-0.190	0.199
-223.669	-200.000	0.018	0.111
-222.655	528.588	0.145	0.335
-221.640	703.388	0.179	-0.461
-220.625	258.689	-0.133	0.225
-219.611	192.176	0.129	-0.190
-218.596	-169.146	-0.265	-0.010
-217.582	-10.067	0.230	-0.150
-216.567	-92.530	0.260	0.071
-215.552	680.003	-0.038	-0.098
-214.538	800.000	0.046	-0.124
-213.523	458.865	-0.218	0.474
-212.509	172.232	0.055	-0.077
-211.494	123.591	0.073	-0.089
-210.479	800.000	0.108	-0.332
-209.465	-92.131	0.205	0.057
-208.450	-150.956	0.207	0.015
-207.436	31.845	0.177	0.149
-206.421	-35.589	0.366	-0.194
-205.406	-166.396	0.186	0.008
-204.392	-200.000	0.006	0.026
-203.377	111.681	-0.142	-0.167
-202.363	94.240	-0.292	-0.324
-201.348	800.000	0.048	-0.155
-200.333	-200.000	0.012	-0.189
-199.319	129.886	0.227	-0.284
-198.304	-129.916	0.131	0.018
-197.290	-200.000	-0.003	-0.242
-196.275	80.178	-0.101	0.107
-195.260	-0.806	-0.009	0.006
-194.246	44.757	-0.411	-0.370
-193.231	-74.878	0.124	0.044
-192.217	797.382	0.122	0.329
-191.202	215.934	0.078	0.120
-190.187	-14.633	-0.239	0.150
-189.173	398.491	0.071	0.146
-188.158	140.586	-0.070	-0.090
-187.144	-101.009	0.161	-0.038
-186.129	101.123	0.065	0.074
-185.114	-200.000	0.018	0.078
-184.100	-200.000	0.000	-0.082
-183.085	-121.236	-0.278	0.045
-182.071	-97.003	-0.238	-0.061
-181.056	216.072	-0.176	-0.274
-180.042	800.000	0.081	0.256
-179.027	-114.914	0.162	0.030
-178.012	-168.169	0.285	-0.011
-176.998	-60.739	0.319	0.132
-175.983	-57.230	-0.096	-0.041
-174.969	-200.000	-0.001	-0.114
-173.954	119.066	0.119	-0.144
-172.939	-200.000	-0.013	0.421
-171.925	469.245	-0.094	0.206
-170.910	-32.400	0.338	0.184
-169.896	397.286	-0.062	-0.126
-168.881	240.450	0.142	0.232
-167.866	-99.825	0.341	0.083
-166.852	150.636	0.416	0.552
-165.837	300.318	-0.245	-0.440
-164.823	-104.881	0.377	0.084
-163.808	-23.658	0.221	-0.130
-162.793	-75.334	-0.173	-0.060
-161.779	-101.050	-0.102	0.024
-160.764	-96.577	0.139	0.036
-159.750	-128.726	-0.112	0.015
-158.735	466.690	0.105	0.229
-157.720	85.834	-0.053	0.057
-156.706	-200.000	0.024	-0.240
-155.691	7.361	-0.330	0.241
-154.677	-200.000	-0.020	-0.179
-153.662	-200.000	0.025	0.258
-152.647	59.527	-0.028	-0.027
-151.633	301.757	-0.080	0.144
-150.618	-12.050	0.064	-0.041
-149.604	-77.518	0.319	0.108
-148.589	-142.011	0.147	-0.014
-147.574	800.000	-0.032	-0.111
-146.560	253.494	0.102	0.170
-145.545	354.964	-0.059	-0.114
-144.531	38.139	0.355	0.308
-143.516	227.163	0.077	0.121
-142.502	-73.190	0.303	-0.108
-141.487	800.000	-0.072	0.288
-140.472	800.000	0.092	0.274
-139.458	-23.193	-0.216	0.127
-138.443	800.000	0.069	-0.226
-137.429	-84.766	-0.089	0.027
-136.414	-200.000	0.036	0.264
-135.399	209.028	-0.073	-0.111
-134.385	35.963	-0.062	0.053
-133.370	136.850	0.060	0.076
-132.356	519.220	-0.086	-0.197
-131.341	-200.000	0.055	0.350
-130.326	23.855	0.110	0.088
-129.312	-118.457	-0.144	0.025
-128.297	-29.262	-0.246	-0.137
-127.283	-171.988	-0.182	-0.006
-126.268	-126.939	0.217	-0.031
-125.253	620.352	-0.046	0.112
-124.239	365.904	0.185	0.364
-123.224	800.000	-0.116	0.468
-122.210	658.958	0.098	0.245
-121.195	800.000	-0.037	-0.141
-120.180	-28.341	-0.057	-0.032
-119.166	-92.644	0.188	-0.051
-118.151	16.623	-0.042	-0.032
-117.137	-200.000	0.042	0.270
-116.122	182.861	-0.180	0.259
-115.107	-200.000	-0.063	-0.429
-114.093	-145.081	0.315	0.028
-113.078	81.282	0.129	-0.136
-112.064	-200.000	-0.030	-0.299
-111.049	-200.000	-0.061	0.332
-110.034	-200.000	0.022	0.304
-109.020	347.190	-0.110	0.210
-108.005	81.657	-0.025	0.026
-106.991	-200.000	0.013	-0.108
-105.976	251.997	-0.203	0.337
-104.962	-88.270	0.403	0.117
-103.947	284.335	0.089	0.157
-102.932	-72.837	-0.449	-0.161
-101.918	98.466	-0.259	0.291
-100.903	-105.116	-0.179	-0.040
-99.889	-91.665	-0.153	0.042
-98.874	-200.000	0.009	0.058
-97.859	157.226	0.191	0.257
-96.845	800.000	-0.089	0.312
-95.830	-200.000	-0.005	-0.221
-94.816	-200.000	0.079	-0.364
-93.801	131.952	0.221	-0.278
-92.786	42.796	-0.309	-0.274
-91.772	374.711	-0.006	-0.012
-90.757	-77.684	0.130	0.044
-89.743	248.459	-0.160	0.264
-88.728	136.857	-0.067	0.086
-87.713	646.557	0.070	0.175
-86.699	800.000	0.025	-0.076
-85.684	42.646	0.233	0.206
-84.670	1.168	-0.158	-0.110
-83.655	-62.131	-0.139	-0.056
-82.640	36.538	-0.065	0.056
-81.626	619.137	-0.117	-0.286
-80.611	-11.542	-0.072	-0.046
-79.597	-27.764	0.037	-0.021
-78.582	800.000	-0.100	0.417
-77.567	117.462	0.111	-0.133
-76.553	141.433	0.127	0.164
-75.538	91.024	-0.168	0.183
-74.524	800.000	-0.072	-0.264
-73.509	-58.315	0.122	-0.052
-72.494	-200.000	-0.020	-0.221
-71.480	-60.593	0.056	0.023
-70.465	800.000	-0.074	0.207
-69.451	-200.000	0.057	-0.428
-68.436	-11.443	-0.223	-0.143
-67.422	-103.031	0.097	0.022
-66.407	203.651	-0.121	-0.183
-65.392	50.212	0.196	-0.180
-64.378	377.065	-0.094	0.187
-63.363	-185.160	0.221	0.003
-62.349	-146.414	0.124	0.011
-61.334	87.185	-1.194	-1.284
-60.319	140.871	0.770	0.990
-59.305	800.000	-0.356	-1.156
-58.290	157.537	0.910	1.224
-57.276	481.330	0.688	1.519
-56.261	-200.000	123.384	665.531
-55.246	448.017	1541.119	3298.536
-54.232	147.818	2698.211	3535.446
-53.217	92.479	2277.107	2496.051
-52.203	32.727	1893.711	1592.304
-51.188	26.709	1691.473	1376.644
-50.173	24.673	1652.794	1329.976
-49.159	46.099	1720.911	1548.569
-48.144	43.852	1732.598	1541.938
-47.130	26.368	1684.383	1368.077
-46.115	23.824	1669.591	1336.899
-45.100	23.660	1664.623	1331.633
-44.086	23.690	1661.924	1329.646
-43.071	23.609	1659.654	1327.177
-42.057	23.634	1657.438	1325.535
-41.042	23.611	1655.603	1323.848
-40.027	23.595	1653.432	1321.937
-39.013	23.609	1652.067	1320.896
-37.998	23.557	1650.249	1319.005
-36.984	23.643	1649.272	1318.811
-35.969	23.780	1647.281	1318.185
-34.954	23.826	1645.617	1317.135
-33.940	23.721	1644.282	1315.238
-32.925	23.829	1642.613	1314.656
-31.911	23.738	1641.073	1312.694
-30.896	23.708	1639.316	1311.016
-29.881	23.797	1637.846	1310.445
-28.867	23.772	1636.277	1308.952
-27.852	23.678	1635.024	1307.207
-26.838	23.737	1633.090	1306.041
-25.823	23.732	1632.018	1305.097
-24.809	23.794	1631.083	1304.755
-23.794	23.804	1629.121	1303.206
-22.779	23.747	1628.115	1301.934
-21.765	23.772	1626.109	1300.460
-20.750	23.732	1624.743	1299.024
-19.736	23.877	1623.335	1298.906
-18.721	23.794	1621.985	1297.165
-17.706	23.698	1620.651	1295.347
-16.692	23.821	1618.896	1294.793
-15.677	23.821	1617.663	1293.750
-14.663	23.754	1616.603	1292.365
-13.648	23.736	1615.220	1291.076
-12.633	23.842	1613.710	1290.593
-11.619	23.830	1612.262	1289.291
-10.604	23.747	1610.545	1287.268
-9.590	23.759	1609.459	1286.436
-8.575	23.812	1607.803	1285.442
-7.560	23.758	1607.358	1284.644
-6.546	23.775	1606.354	1283.914
-5.531	23.740	1605.026	1282.553
-4.517	23.815	1603.411	1281.750
-3.502	23.612	1603.086	1279.979
-2.487	23.855	1600.789	1279.844
-1.473	23.365	1588.812	1266.715
-0.458	20.397	1569.672	1230.410
0.556	15.200	1571.608	1199.016
1.571	12.888	1596.130	1200.803
2.586	12.662	1608.679	1208.476
3.600	11.730	1554.191	1160.827
4.615	6.315	1448.836	1046.133
5.629	1.241	1389.810	971.012
6.644	0.219	1382.747	959.482
7.659	0.113	1381.823	958.078
8.673	0.120	1380.998	957.471
9.688	0.168	1378.503	955.957
10.702	-0.025	1375.531	952.592
11.717	2.588	1378.497	971.136
12.731	9.396	1389.649	1022.284
13.746	15.215	1398.009	1065.446
14.761	16.835	1399.015	1076.413
15.775	16.274	1397.346	1071.475
16.790	15.255	1394.623	1062.836
17.804	14.517	1392.198	1056.220
18.819	14.083	1391.379	1052.757
19.834	13.882	1389.679	1050.110
20.848	13.572	1388.721	1047.331
21.863	13.370	1387.083	1044.730
22.877	13.222	1386.348	1043.146
23.892	13.122	1385.385	1041.697
24.907	13.202	1384.367	1041.348
25.921	13.220	1383.404	1040.640
26.936	13.229	1382.607	1040.008
27.950	13.223	1381.625	1039.138
28.965	13.332	1380.356	1038.777
29.980	13.278	1379.982	1038.064
30.994	13.439	1378.309	1037.723
32.009	13.457	1378.102	1037.591
33.023	13.459	1376.468	1036.277
34.038	13.315	1375.614	1034.646
35.053	13.354	1374.598	1034.033
36.067	13.328	1373.069	1032.629
37.082	13.317	1372.403	1031.967
38.096	13.325	1371.540	1031.276
39.111	13.326	1370.515	1030.420
40.126	13.235	1370.017	1029.389
41.140	13.219	1368.944	1028.395
42.155	13.164	1368.556	1027.665
43.169	13.153	1368.351	1027.353
44.184	13.051	1368.474	1026.724
45.199	13.211	1367.553	1026.932
46.213	13.136	1366.960	1025.929
47.228	13.250	1365.675	1025.587
48.242	13.278	1364.806	1025.018
49.257	13.213	1362.884	1023.077
50.271	13.216	1361.620	1022.057
51.286	13.125	1360.809	1020.794
52.301	13.276	1359.281	1020.493
53.315	13.301	1357.607	1019.301
54.330	13.202	1357.371	1018.422
55.344	13.233	1355.907	1017.423
56.359	13.193	1354.885	1016.317
57.374	13.161	1353.851	1015.258
58.388	13.100	1353.152	1014.268
59.403	13.076	1352.373	1013.449
60.417	13.187	1351.566	1013.436
61.432	13.138	1350.752	1012.434
62.447	13.105	1349.826	1011.450
63.461	13.122	1348.437	1010.422
64.476	13.069	1347.568	1009.358
65.490	13.048	1346.267	1008.167
66.505	13.162	1344.567	1007.500
67.520	13.085	1343.849	1006.401
68.534	13.128	1342.214	1005.353
69.549	13.100	1341.700	1004.707
70.563	13.143	1340.215	1003.769
71.578	13.131	1339.006	1002.698
72.593	12.987	1338.114	1001.071
73.607	12.982	1337.476	1000.473
74.622	13.073	1336.422	1000.147
75.636	13.108	1335.588	999.645
76.651	12.991	1335.009	998.418
77.666	13.047	1334.414	998.224
78.680	13.002	1333.896	997.473
79.695	13.055	1332.678	996.793
80.709	13.093	1331.871	996.334
81.724	13.122	1331.191	995.912
82.739	13.142	1330.289	995.267
83.753	13.003	1329.662	993.873
84.768	13.293	1327.822	994.157
85.782	13.327	1326.575	993.339
86.797	13.219	1325.524	991.817
87.812	13.119	1324.262	990.185
88.826	13.172	1323.304	989.695
89.841	13.126	1322.431	988.680
90.855	13.115	1321.940	988.163
91.870	13.269	1320.501	987.919
92.884	13.284	1319.224	986.962
93.899	13.333	1318.564	986.673
94.914	13.262	1317.872	985.646
95.928	13.351	1316.673	985.195
96.943	13.305	1315.768	984.157
97.957	13.311	1314.915	983.465
98.972	13.309	1313.796	982.530
99.987	13.324	1313.026	981.955
101.001	13.254	1311.870	980.588
102.016	13.313	1311.244	980.382
103.030	13.418	1309.836	979.865
104.045	13.371	1308.881	978.790
105.060	13.288	1307.857	977.447
106.074	13.343	1306.285	976.510
107.089	13.139	1305.413	974.569
108.103	13.139	1304.343	973.684
109.118	13.191	1302.685	972.661
110.133	13.125	1301.479	971.289
111.147	13.165	1299.997	970.331
112.162	13.195	1299.034	969.702
113.176	13.227	1297.846	968.918
114.191	13.386	1296.685	968.899
115.206	13.214	1295.743	967.099
116.220	13.116	1294.721	965.683
117.235	13.228	1293.682	965.477
118.249	13.282	1292.389	964.740
119.264	13.265	1291.211	963.674
120.279	13.246	1290.145	962.681
121.293	13.134	1289.259	961.286
122.308	13.207	1288.028	960.709
123.322	13.217	1286.905	959.840
124.337	13.124	1286.157	958.660
125.352	13.130	1284.779	957.585
126.366	13.036	1283.979	956.360
127.381	13.210	1282.484	956.166
128.395	13.199	1281.395	955.208
129.410	13.237	1280.207	954.457
130.424	13.162	1280.515	954.169
131.439	13.293	1278.372	953.240
132.454	13.187	1277.781	952.108
133.468	13.238	1277.014	951.743
134.483	13.149	1276.411	950.697
135.497	13.130	1275.274	949.659
136.512	13.228	1273.930	949.134
137.527	13.281	1272.670	948.415
138.541	13.217	1270.987	946.712
139.556	13.394	1269.295	946.379
140.570	13.278	1268.894	945.336
141.585	13.378	1267.272	944.615
142.600	13.359	1266.056	943.516
143.614	13.376	1265.652	943.225
144.629	13.584	1264.253	943.287
145.643	13.527	1263.149	942.055
146.658	13.384	1262.060	940.346
147.673	13.259	1260.931	938.714
148.687	13.365	1259.932	938.487
149.702	13.297	1258.397	936.875
150.716	13.303	1256.982	935.771
151.731	13.381	1255.576	935.085
152.746	13.360	1254.149	933.821
153.760	13.398	1253.351	933.355
154.775	13.498	1252.124	932.921
155.789	13.455	1251.279	931.972
156.804	13.394	1250.082	930.652
157.819	13.423	1249.114	930.013
158.833	13.398	1248.004	928.961
159.848	13.643	1246.579	929.196
160.862	13.525	1246.392	928.310
161.877	13.568	1244.323	926.930
162.892	13.443	1243.680	925.669
163.906	13.406	1242.942	924.832
164.921	13.430	1241.851	924.070
165.935	13.602	1241.012	924.327
166.950	13.564	1240.205	923.429
167.964	13.623	1239.523	923.167
168.979	13.640	1238.746	922.605
169.994	13.473	1238.296	921.257
171.008	13.636	1237.046	921.155
172.023	13.538	1237.123	920.585
173.037	13.677	1235.712	920.225
174.052	13.628	1235.002	919.344
175.067	13.636	1233.308	918.046
176.081	13.587	1232.737	917.268
177.096	13.574	1231.676	916.326
178.110	13.626	1230.618	915.741
179.125	13.632	1229.130	914.589
180.140	13.602	1228.138	913.605
181.154	13.659	1226.787	912.833
182.169	13.766	1225.664	912.504
183.183	13.720	1224.860	911.570
184.198	13.774	1223.061	910.446
185.213	13.937	1222.048	910.505
186.227	13.833	1221.497	909.445
187.242	13.845	1220.136	908.416
188.256	13.857	1219.493	907.924
189.271	13.914	1218.043	907.076
190.286	13.784	1216.903	905.437
191.300	13.676	1216.788	904.684
192.315	13.652	1215.970	903.863
193.329	13.666	1215.083	903.201
194.344	13.692	1214.875	903.109
195.359	13.704	1213.959	902.414
196.373	13.887	1213.146	902.720
197.388	13.836	1212.902	902.186
198.402	13.893	1212.817	902.350
199.417	14.011	1211.776	902.135
200.432	14.081	1210.892	901.779
201.446	14.061	1210.127	901.023
202.461	14.087	1209.227	900.414
203.475	14.104	1208.341	899.765
204.490	14.062	1206.931	898.406
205.504	13.999	1205.917	897.232
206.519	14.132	1204.593	896.884
207.534	14.069	1203.448	895.618
208.548	14.073	1202.189	894.618
209.563	13.996	1201.674	893.746
210.577	14.123	1200.778	893.679
211.592	14.107	1199.766	892.760
212.607	14.257	1198.916	892.856
213.621	14.225	1198.585	892.357
214.636	14.188	1197.289	891.116
215.650	14.180	1196.459	890.376
216.665	14.247	1195.521	889.958
217.680	14.374	1194.231	889.597
218.694	14.225	1193.757	888.372
219.709	14.342	1192.721	888.147
220.723	14.335	1192.657	887.980
221.738	14.348	1191.506	887.116
222.753	14.416	1190.672	886.776
223.767	14.349	1189.986	885.831
224.782	14.321	1189.687	885.384
225.796	14.290	1188.886	884.545
226.811	14.439	1187.667	884.351
227.826	14.399	1187.540	883.965
228.840	14.303	1186.568	882.654
229.855	14.485	1185.945	883.077
230.869	14.381	1184.901	881.669
231.884	14.379	1183.980	880.896
232.899	14.398	1183.125	880.280
233.913	14.254	1182.988	879.343
234.928	14.414	1181.938	879.326
235.942	14.478	1181.184	879.029
236.957	14.448	1180.334	878.157
237.972	14.399	1179.854	877.463
238.986	14.541	1179.007	877.503
240.001	14.448	1178.609	876.641
241.015	14.449	1177.177	875.503
242.030	14.435	1176.598	874.921
243.045	14.444	1175.996	874.445
244.059	14.529	1174.994	874.066
245.074	14.625	1174.114	873.841
246.088	14.683	1173.033	873.258
247.103	14.556	1172.424	872.068
248.117	14.644	1172.010	872.142
249.132	14.616	1171.260	871.358
250.147	14.756	1170.324	871.314
251.161	14.791	1169.659	870.924
252.176	14.742	1169.305	870.333
253.190	14.862	1168.418	870.217
254.205	14.906	1167.530	869.710
255.220	14.849	1167.450	869.274
256.234	14.975	1166.797	869.368
257.249	14.979	1165.683	868.479
258.263	14.902	1165.289	867.709
259.278	15.004	1164.430	867.522
260.293	14.918	1163.855	866.572
261.307	15.012	1163.241	866.525
262.322	15.031	1162.396	865.915
263.336	15.139	1161.849	865.990
264.351	15.093	1161.167	865.168
265.366	15.059	1160.662	864.542
266.380	15.087	1159.731	863.914
267.395	15.038	1158.994	863.037
268.409	15.122	1158.390	862.947
269.424	15.104	1157.334	861.986
270.439	14.999	1157.248	861.305
271.453	14.948	1156.687	860.553
272.468	15.010	1155.786	860.126
273.482	15.071	1155.069	859.829
274.497	15.221	1154.170	859.853
275.512	15.215	1153.052	858.910
276.526	15.011	1153.462	858.094
277.541	15.183	1152.088	857.878
278.555	15.159	1150.731	856.667
279.570	15.318	1150.269	857.061
280.585	15.247	1149.707	856.206
281.599	15.249	1148.631	855.337
282.614	15.297	1148.111	855.121
283.628	15.368	1146.521	854.220
284.643	15.353	1145.577	853.364
285.657	15.337	1144.771	852.611
286.672	15.336	1144.098	852.026
287.687	15.321	1143.319	851.294
288.701	15.325	1142.405	850.559
289.716	15.410	1141.433	850.193
290.730	15.464	1140.460	849.667
291.745	15.365	1140.106	848.825
292.760	15.473	1139.378	848.754
293.774	15.427	1138.989	848.154
294.789	15.486	1138.567	848.065
295.803	15.511	1137.526	847.341
296.818	15.457	1137.045	846.636
297.833	15.418	1136.410	845.892
298.847	15.649	1135.128	846.023
299.862	15.548	1134.369	844.878
300.876	15.534	1133.929	844.403
301.891	15.553	1133.472	844.082
302.906	15.618	1132.597	843.686
303.920	15.579	1132.221	843.133
304.935	15.686	1131.530	843.081
305.949	15.646	1130.736	842.217
306.964	15.699	1129.920	841.798
307.979	15.682	1129.250	841.137
308.993	15.776	1128.808	841.207
310.008	15.655	1127.959	839.893
311.022	15.773	1127.015	839.704
312.037	15.851	1125.792	839.108
313.052	15.749	1125.240	838.113
314.066	15.648	1124.658	837.104
315.081	15.785	1123.265	836.672
316.095	15.580	1123.069	835.436
317.110	15.764	1122.139	835.581
318.125	15.672	1121.532	834.600
319.139	15.756	1120.506	834.181
320.154	15.707	1120.097	833.559
321.168	15.883	1119.299	833.763
322.183	15.792	1118.729	832.813
323.197	15.846	1118.150	832.577
324.212	15.754	1117.670	831.690
325.227	15.746	1117.145	831.186
326.241	15.832	1116.664	831.180
327.256	15.773	1115.943	830.276
328.270	15.787	1114.871	829.477
329.285	15.897	1113.261	828.747
330.300	15.819	1112.846	827.979
331.314	15.918	1111.518	827.404
332.329	15.916	1110.651	826.676
333.343	15.944	1109.784	826.095
334.358	15.883	1109.096	825.214
335.373	15.938	1108.581	825.027
336.387	16.061	1107.554	824.791
337.402	15.993	1106.691	823.744
338.416	15.995	1106.125	823.256
339.431	16.060	1105.603	823.115
340.446	16.079	1104.938	822.638
341.460	16.066	1104.254	821.992
342.475	16.099	1103.904	821.822
343.489	16.092	1102.588	820.735
344.504	16.133	1101.822	820.293
345.519	16.220	1100.914	819.963
346.533	16.252	1099.833	819.243
347.548	16.389	1099.183	819.352
348.562	16.305	1098.464	818.336
349.577	16.252	1097.570	817.341
350.592	16.288	1097.063	817.065
351.606	16.207	1096.671	816.307
352.621	16.147	1095.996	815.446
353.635	16.157	1094.924	814.623
354.650	16.118	1094.576	814.103
355.665	16.195	1093.671	813.727
356.679	16.292	1092.941	813.581
357.694	16.367	1092.709	813.696
358.708	16.415	1091.266	812.780
359.723	16.452	1090.830	812.565
360.738	16.449	1090.092	811.927
361.752	16.366	1089.713	811.173
362.767	16.469	1089.176	811.196
363.781	16.343	1088.806	810.244
364.796	16.368	1088.035	809.721
365.810	16.485	1087.170	809.565
366.825	16.487	1086.840	809.259
367.840	16.577	1086.123	809.083
368.854	16.528	1085.709	808.466
369.869	16.582	1084.597	807.827
370.883	16.721	1083.680	807.734
371.898	16.570	1083.209	806.594
372.913	16.476	1082.785	805.758
373.927	16.639	1082.352	806.140
374.942	16.760	1081.358	805.905
375.956	16.610	1081.442	805.181
376.971	16.721	1080.225	804.733
377.986	16.731	1079.791	804.387
379.000	16.838	1079.227	804.402
380.015	16.878	1078.656	804.093
381.029	16.910	1077.725	803.480
382.044	16.819	1077.409	802.742
383.059	16.897	1076.614	802.450
384.073	16.766	1075.701	801.080
385.088	16.822	1074.789	800.595
386.102	16.854	1073.971	800.064
387.117	16.823	1073.015	799.132
388.132	16.840	1071.814	798.248
389.146	16.889	1071.249	797.987
390.161	16.871	1070.514	797.285
391.175	16.921	1070.054	797.106
392.190	16.869	1069.325	796.248
393.205	16.802	1068.701	795.400
394.219	16.969	1067.586	795.281
395.234	16.944	1066.921	794.598
396.248	16.942	1065.857	793.727
397.263	16.958	1064.411	792.655
398.278	16.837	1064.262	791.908
399.292	16.932	1063.842	791.971
400.307	16.979	1062.577	791.177
401.321	17.048	1062.064	791.046
402.336	16.953	1061.805	790.343
403.350	16.863	1060.768	789.081
404.365	17.104	1059.703	789.339
405.380	17.122	1059.532	789.227
406.394	17.135	1058.399	788.373
407.409	17.197	1057.739	788.098
408.423	17.173	1057.324	787.610
409.438	17.131	1056.569	786.784
410.453	17.188	1055.945	786.513
411.467	17.202	1055.157	785.921
412.482	17.191	1054.356	785.201
413.496	17.283	1053.907	785.224
414.511	17.376	1053.018	784.923
415.526	17.423	1052.584	784.744
416.540	17.279	1052.535	783.973
417.555	17.384	1052.032	784.014
418.569	17.404	1051.198	783.416
419.584	17.376	1050.978	783.054
420.599	17.387	1050.502	782.679
421.613	107.938	1331.120	1488.041
422.628	99.338	1371.943	1488.121
