DTS Sentinel unit serial number:	SN413079Multiplexer serial number:	ORYXHardware model number:	OX4-SRSoftware version number:	ORYX F/W v4.00 Oryx Data Collector v3.7.2.0data status	okinstallation	princeton_trtdifferential loss correction	single-endedforward channel	channel 2reverse channel	N/Adate	2019/09/11time	23:25:11forward acquisition time	60.00reverse acquisition time	0.00gamma	496.2192k internal	0.2325k external	0.2325temperature offset calibration	1.0077default loss term (dB/km)	0.3790temperature slope calibration	1.0000multiplexer offset coefficient	1.0000multiplexer slope coefficient	1.0000fibre end	0.00T internal ref (°C)	34.31T ext. ref 1 (°C)	1.87T ext. ref 2 (°C)	28.87length (m)	temperature (°C)	Stokes	anti-Stokes-747.200	247.583	-0.130	0.221
-746.185	743.297	-0.077	0.208
-745.171	-9.079	-0.271	0.183
-744.156	-10.098	-0.045	-0.030
-743.142	-0.028	0.003	-0.002
-742.127	169.649	-0.104	0.150
-741.112	-19.792	0.243	0.151
-740.098	800.000	-0.097	0.335
-739.083	456.762	0.061	-0.136
-738.069	-136.635	-0.371	-0.043
-737.054	-133.725	0.203	-0.025
-736.039	800.000	-0.086	-0.258
-735.025	-200.000	0.011	0.246
-734.010	2.238	-0.060	0.043
-732.996	800.000	-0.089	-0.384
-731.981	-200.000	-0.100	-0.572
-730.966	-151.041	0.500	0.038
-729.952	-200.000	0.014	-0.247
-728.937	210.745	-0.088	-0.139
-727.923	13.751	0.075	-0.059
-726.908	-57.922	0.199	0.088
-725.894	-101.247	-0.352	0.087
-724.879	236.230	0.133	-0.223
-723.864	-85.074	-0.514	-0.162
-722.850	620.995	-0.132	-0.334
-721.835	381.779	-0.136	-0.281
-720.821	800.000	0.060	-0.212
-719.806	-200.000	0.010	-0.214
-718.791	-200.000	-0.018	-0.128
-717.777	130.750	-0.218	-0.282
-716.762	105.925	0.104	-0.124
-715.748	216.787	0.032	0.052
-714.733	-122.280	-0.235	-0.039
-713.718	-135.736	-0.061	0.007
-712.704	-43.162	0.168	-0.086
-711.689	4.162	0.098	-0.072
-710.675	-28.512	0.104	-0.061
-709.660	-84.410	0.225	-0.072
-708.645	-113.969	0.146	0.028
-707.631	-60.229	-0.196	0.084
-706.616	-200.000	-0.031	-0.137
-705.602	607.673	-0.051	0.127
-704.587	800.000	-0.120	0.336
-703.572	203.514	0.141	0.220
-702.558	-67.773	-0.112	0.044
-701.543	-200.000	0.009	0.091
-700.529	63.956	-0.136	-0.138
-699.514	-71.174	-0.359	-0.136
-698.499	54.605	0.113	-0.110
-697.485	338.614	-0.032	-0.062
-696.470	-200.000	-0.031	0.418
-695.456	-113.629	-0.286	-0.056
-694.441	136.625	0.079	-0.104
-693.426	307.386	0.141	0.264
-692.412	-167.709	0.070	-0.003
-691.397	-9.193	0.191	0.129
-690.383	800.000	0.073	-0.233
-689.368	-128.994	-0.140	-0.020
-688.354	-200.000	0.018	0.190
-687.339	-94.225	0.166	-0.046
-686.324	46.053	0.096	-0.090
-685.310	-200.000	0.009	0.202
-684.295	-200.000	0.011	0.300
-683.281	15.955	-0.158	-0.125
-682.266	-200.000	0.026	-0.422
-681.251	-200.000	-0.040	0.442
-680.237	-200.000	0.035	0.241
-679.222	800.000	0.166	-0.532
-678.208	105.005	0.032	0.038
-677.193	800.000	-0.058	0.231
-676.178	-94.871	0.178	-0.048
-675.164	-49.828	-0.297	-0.142
-674.149	-200.000	-0.027	0.132
-673.135	86.052	-0.128	-0.142
-672.120	32.702	0.210	0.183
-671.105	169.012	-0.145	0.208
-670.091	-200.000	0.024	-0.264
-669.076	-200.000	-0.012	-0.199
-668.062	13.276	0.077	-0.060
-667.047	-152.747	0.189	0.014
-666.032	293.318	-0.126	0.232
-665.018	383.200	-0.040	-0.083
-664.003	800.000	0.019	-0.074
-662.989	128.439	-0.213	-0.273
-661.974	-148.000	0.321	0.027
-660.959	171.008	0.289	0.417
-659.945	45.950	-0.327	0.304
-658.930	-111.065	-0.315	-0.065
-657.916	32.582	0.192	-0.167
-656.901	339.605	-0.125	-0.245
-655.886	800.000	0.164	0.484
-654.872	-0.333	0.303	0.217
-653.857	184.657	0.084	-0.125
-652.843	421.279	-0.175	-0.376
-651.828	-41.964	0.083	-0.043
-650.814	-100.585	-0.247	-0.061
-649.799	59.972	-0.043	0.042
-648.784	315.906	0.068	-0.129
-647.770	215.647	-0.162	0.259
-646.755	66.629	0.092	-0.094
-645.741	-200.000	0.011	0.393
-644.726	20.982	0.070	-0.057
-643.711	33.712	0.130	-0.113
-642.697	174.095	-0.090	-0.131
-641.682	-200.000	0.037	-0.446
-640.668	-68.621	0.293	0.114
-639.653	-149.068	-0.193	-0.016
-638.638	-149.307	-0.100	-0.008
-637.624	-188.740	-0.146	0.002
-636.609	6.666	0.178	-0.133
-635.595	-90.158	0.234	0.068
-634.580	128.732	0.233	0.299
-633.565	-8.499	0.121	0.082
-632.551	-53.427	-0.254	0.117
-631.536	-13.238	-0.196	0.128
-630.522	-14.137	-0.137	0.089
-629.507	-63.871	0.203	-0.084
-628.492	616.848	-0.029	0.074
-627.478	518.669	0.089	0.209
-626.463	621.377	0.086	0.218
-625.449	-70.558	-0.073	-0.028
-624.434	-86.714	-0.199	-0.061
-623.419	-13.938	0.274	-0.178
-622.405	-136.856	0.090	0.010
-621.390	-200.000	-0.013	0.188
-620.376	357.398	-0.035	-0.070
-619.361	-116.162	0.365	0.068
-618.346	-190.164	-0.109	0.001
-617.332	-200.000	0.012	-0.088
-616.317	-85.103	-0.256	-0.080
-615.303	135.371	-0.191	0.250
-614.288	-200.000	-0.021	0.153
-613.273	-118.716	0.267	-0.047
-612.259	41.570	0.177	0.161
-611.244	800.000	-0.060	-0.184
-610.230	-200.000	-0.018	0.101
-609.215	296.222	0.090	-0.165
-608.201	0.669	0.067	-0.048
-607.186	38.584	-0.259	-0.232
-606.171	76.322	0.085	0.091
-605.157	84.065	0.155	0.169
-604.142	488.694	-0.157	-0.360
-603.128	-56.242	0.229	0.102
-602.113	48.774	-0.224	0.211
-601.098	76.002	-0.213	0.226
-600.084	-30.033	0.331	-0.189
-599.069	-200.000	-0.015	-0.205
-598.055	-63.651	-0.164	0.067
-597.040	-105.757	-0.287	-0.065
-596.025	-70.418	0.123	0.047
-595.011	107.338	-0.136	-0.162
-593.996	-27.652	-0.276	0.161
-592.982	-23.179	0.047	0.029
-591.967	-200.000	-0.034	-0.260
-590.952	800.000	-0.119	0.337
-589.938	295.103	0.089	0.163
-588.923	800.000	-0.015	0.065
-587.909	22.199	-0.137	0.113
-586.894	4.707	0.234	0.172
-585.879	-54.561	0.160	-0.072
-584.865	285.580	-0.078	-0.141
-583.850	-48.809	-0.299	-0.144
-582.836	26.789	0.172	-0.144
-581.821	-53.207	-0.256	-0.118
-580.806	-136.514	0.132	0.015
-579.792	74.069	0.122	-0.128
-578.777	47.438	0.158	0.147
-577.763	-70.207	-0.017	-0.006
-576.748	235.252	-0.090	0.149
-575.733	-200.000	-0.003	-0.143
-574.719	-17.649	0.076	0.048
-573.704	-94.067	-0.360	0.099
-572.690	22.919	0.179	0.147
-571.675	267.919	0.116	0.203
-570.661	73.923	0.009	-0.009
-569.646	168.740	0.105	0.150
-568.631	-62.104	0.235	0.098
-567.617	-200.000	0.041	0.327
-566.602	67.172	-0.069	0.070
-565.588	256.449	0.096	0.165
-564.573	360.296	-0.075	0.151
-563.558	-108.797	-0.354	0.076
-562.544	42.405	0.243	0.221
-561.529	-175.439	0.256	0.007
-560.515	-52.540	-0.391	-0.181
-559.500	-200.000	-0.066	-0.483
-558.485	-111.778	0.178	-0.036
-557.471	-6.784	0.378	-0.257
-556.456	-200.000	0.026	-0.128
-555.442	-45.975	0.250	-0.123
-554.427	489.295	0.183	-0.419
-553.412	96.611	0.139	0.159
-552.398	-200.000	-0.032	0.220
-551.383	36.639	0.105	0.093
-550.369	-200.000	0.014	-0.369
-549.354	255.090	0.046	-0.079
-548.339	-112.648	0.180	0.036
-547.325	-74.456	-0.297	0.107
-546.310	-117.142	0.129	0.024
-545.296	-15.655	0.309	-0.197
-544.281	64.771	0.116	-0.117
-543.266	-55.957	-0.033	0.015
-542.252	-200.000	-0.004	0.019
-541.237	71.772	-0.302	-0.314
-540.223	380.250	-0.011	0.023
-539.208	-139.391	0.369	-0.040
-538.193	-27.701	0.220	0.128
-537.179	-105.411	0.154	-0.035
-536.164	296.277	0.043	-0.079
-535.150	21.413	-0.074	-0.060
-534.135	179.778	-0.043	-0.063
-533.121	274.023	0.213	0.377
-532.106	391.996	-0.073	0.151
-531.091	-63.492	-0.141	-0.058
-530.077	448.758	-0.165	-0.363
-529.062	-3.357	-0.133	0.093
-528.048	573.223	-0.020	-0.050
-527.033	-200.000	-0.035	0.156
-526.018	800.000	-0.023	0.071
-525.004	159.316	-0.096	-0.134
-523.989	-200.000	-0.049	0.228
-522.975	0.714	0.205	-0.147
-521.960	-107.610	-0.173	-0.038
-520.945	-5.324	0.179	-0.123
-519.931	-20.273	0.107	-0.066
-518.916	-142.822	-0.090	0.009
-517.902	-62.744	0.183	0.076
-516.887	19.881	0.072	0.058
-515.872	-95.557	-0.048	0.013
-514.858	-44.313	0.187	-0.094
-513.843	-95.884	0.162	0.043
-512.829	40.339	0.120	-0.108
-511.814	-200.000	-0.024	-0.182
-510.799	-200.000	0.042	-0.264
-509.785	-200.000	-0.046	0.320
-508.770	-200.000	-0.018	-0.098
-507.756	-1.336	-0.201	-0.142
-506.741	190.746	-0.078	0.117
-505.726	103.626	0.215	0.253
-504.712	-200.000	-0.018	0.237
-503.697	560.458	-0.026	0.064
-502.683	-104.977	0.343	0.078
-501.668	250.210	-0.121	0.205
-500.653	800.000	-0.126	0.424
-499.639	135.146	-0.050	-0.065
-498.624	-200.000	-0.077	0.437
-497.610	501.623	0.068	0.156
-496.595	108.626	0.147	0.176
-495.581	-200.000	-0.097	0.449
-494.566	-72.323	-0.173	-0.064
-493.551	283.254	-0.080	-0.144
-492.537	-200.000	0.033	0.156
-491.522	113.829	-0.019	0.023
-490.508	-200.000	0.018	-0.236
-489.493	-200.000	0.003	-0.151
-488.478	207.680	-0.154	-0.240
-487.464	20.307	-0.083	0.067
-486.449	-88.486	0.105	-0.031
-485.435	800.000	0.011	0.040
-484.420	112.183	-0.102	0.123
-483.405	-200.000	-0.062	0.346
-482.391	16.995	0.187	0.148
-481.376	29.094	0.098	-0.083
-480.362	-90.884	0.143	0.041
-479.347	-150.680	0.154	0.012
-478.332	-94.884	-0.224	0.061
-477.318	289.618	-0.106	0.193
-476.303	400.690	-0.012	-0.025
-475.289	-111.540	0.196	0.040
-474.274	383.737	-0.066	-0.136
-473.259	-145.536	-0.321	-0.029
-472.245	148.340	0.071	0.096
-471.230	-200.000	-0.056	0.460
-470.216	0.874	-0.065	0.046
-469.201	-73.176	-0.095	-0.035
-468.186	-200.000	0.021	-0.268
-467.172	800.000	-0.035	0.120
-466.157	52.106	-0.086	-0.082
-465.143	-105.865	0.261	-0.059
-464.128	383.848	0.108	-0.222
-463.113	-48.410	-0.262	-0.126
-462.099	-103.514	0.280	0.066
-461.084	-77.637	-0.241	-0.083
-460.070	294.315	-0.058	-0.106
-459.055	800.000	-0.028	0.118
-458.040	-200.000	-0.011	-0.210
-457.026	-26.996	-0.191	-0.111
-456.011	-156.190	-0.338	0.021
-454.997	-200.000	0.001	-0.068
-453.982	116.923	0.243	0.298
-452.968	374.258	-0.103	-0.210
-451.953	-200.000	0.071	-0.430
-450.938	29.606	-0.202	-0.172
-449.924	145.736	0.166	-0.222
-448.909	-35.917	0.253	0.137
-447.895	-200.000	0.016	-0.176
-446.880	-116.891	0.183	-0.033
-445.865	-4.946	-0.171	0.117
-444.851	-77.052	0.124	0.043
-443.836	59.487	0.132	-0.130
-442.822	-200.000	-0.024	0.153
-441.807	420.123	0.188	0.402
-440.792	-200.000	-0.001	-0.108
-439.778	93.398	-0.172	-0.194
-438.763	-200.000	-0.001	-0.201
-437.749	-161.039	-0.170	-0.009
-436.734	115.973	0.100	-0.122
-435.719	39.672	0.085	0.076
-434.705	-94.893	0.231	0.062
-433.690	800.000	0.105	0.347
-432.676	127.165	-0.082	-0.103
-431.661	-167.667	-0.164	-0.006
-430.646	-55.615	0.168	-0.075
-429.632	-200.000	0.048	0.352
-428.617	-48.350	-0.359	-0.173
-427.603	-152.730	-0.242	-0.017
-426.588	-54.627	-0.118	-0.053
-425.573	800.000	0.042	0.131
-424.559	-0.468	0.040	-0.028
-423.544	10.395	0.126	-0.096
-422.530	800.000	-0.071	-0.202
-421.515	800.000	0.046	0.135
-420.500	590.688	-0.181	-0.445
-419.486	-200.000	0.013	0.201
-418.471	36.941	0.214	0.189
-417.457	-163.250	0.074	-0.004
-416.442	800.000	0.105	0.292
-415.428	105.861	0.117	-0.138
-414.413	-120.264	-0.158	-0.027
-413.398	195.161	0.219	0.332
-412.384	-155.162	-0.672	-0.044
-411.369	-34.546	0.131	0.072
-410.355	261.213	-0.137	0.236
-409.340	28.899	0.247	0.209
-408.325	-62.249	0.289	0.120
-407.311	800.000	-0.072	0.277
-406.296	151.490	0.065	0.088
-405.282	-200.000	-0.010	-0.251
-404.267	188.453	0.034	-0.050
-403.252	-2.644	-0.024	-0.016
-402.238	121.069	0.115	-0.142
-401.223	85.674	-0.148	0.162
-400.209	-200.000	-0.013	-0.395
-399.194	-103.345	-0.155	-0.036
-398.179	-51.727	-0.155	-0.072
-397.165	-200.000	-0.015	0.134
-396.150	-110.901	0.046	-0.009
-395.136	-200.000	0.023	0.170
-394.121	800.000	-0.036	0.110
-393.106	-10.741	-0.166	-0.109
-392.092	168.874	-0.164	-0.232
-391.077	124.699	0.161	0.202
-390.063	-4.338	-0.198	0.137
-389.048	-99.503	0.171	-0.043
-388.033	-200.000	-0.009	0.162
-387.019	621.443	-0.067	-0.168
-386.004	-80.447	-0.499	-0.166
-384.990	-17.983	-0.180	0.112
-383.975	321.977	0.065	0.123
-382.960	-33.194	-0.272	-0.150
-381.946	-200.000	-0.036	-0.311
-380.931	800.000	0.158	0.436
-379.917	88.376	0.092	0.102
-378.902	-77.987	0.252	-0.086
-377.888	-200.000	0.038	-0.209
-376.873	-46.167	0.169	0.083
-375.858	-158.738	-0.153	-0.009
-374.844	756.945	-0.102	-0.274
-373.829	2.031	0.175	-0.126
-372.815	527.075	0.244	-0.572
-371.800	-112.172	0.309	-0.062
-370.785	-72.263	0.129	-0.047
-369.771	-79.935	0.104	0.035
-368.756	-79.267	-0.301	-0.102
-367.742	6.551	-0.243	0.179
-366.727	-44.355	-0.063	0.032
-365.712	29.854	0.066	0.056
-364.698	-103.650	-0.228	0.053
-363.683	-31.201	0.266	0.149
-362.669	-55.056	-0.161	-0.072
-361.654	58.289	-0.083	-0.081
-360.639	800.000	0.073	0.257
-359.625	80.277	-0.063	-0.068
-358.610	147.685	0.145	-0.194
-357.596	-200.000	-0.054	0.365
-356.581	800.000	-0.072	0.272
-355.566	165.440	-0.069	0.097
-354.552	-171.379	-0.211	0.007
-353.537	70.881	0.122	-0.125
-352.523	-30.602	-0.141	0.079
-351.508	-67.835	-0.256	0.100
-350.493	783.246	-0.064	-0.173
-349.479	83.842	-0.174	0.189
-348.464	-138.574	-0.514	-0.056
-347.450	-74.640	0.348	0.124
-346.435	198.675	0.157	-0.239
-345.420	272.792	-0.211	-0.369
-344.406	800.000	-0.047	-0.200
-343.391	-50.512	-0.054	0.025
-342.377	800.000	-0.024	0.067
-341.362	-139.204	0.079	-0.008
-340.348	-200.000	-0.031	0.181
-339.333	-200.000	-0.008	-0.134
-338.318	-32.591	-0.052	0.029
-337.304	-54.074	-0.064	-0.029
-336.289	11.659	-0.045	0.034
-335.275	58.159	0.088	-0.086
-334.260	-40.631	0.295	0.152
-333.245	-200.000	0.049	-0.372
-332.231	77.353	-0.227	-0.239
-331.216	-21.046	0.273	0.166
-330.202	27.319	-0.101	-0.085
-329.187	-200.000	-0.049	0.279
-328.172	152.404	-0.283	-0.383
-327.158	-45.963	-0.103	-0.050
-326.143	-90.796	0.104	0.030
-325.129	-125.899	0.170	-0.025
-324.114	-200.000	-0.032	0.264
-323.099	-200.000	0.413	0.000
-322.085	-89.168	0.302	0.088
-321.070	465.689	-0.023	0.050
-320.056	-94.646	-0.416	-0.112
-319.041	326.681	0.064	-0.123
-318.026	474.703	0.144	-0.323
-317.012	125.670	-0.051	0.064
-315.997	-48.726	0.175	0.083
-314.983	114.911	-0.175	0.212
-313.968	384.249	0.058	-0.118
-312.953	-193.976	-0.195	-0.002
-311.939	226.584	-0.081	-0.130
-310.924	172.863	-0.065	-0.093
-309.910	-46.533	0.292	0.142
-308.895	800.000	-0.092	-0.273
-307.880	-200.000	-0.018	-0.427
-306.866	91.153	-0.086	-0.096
-305.851	120.450	-0.042	0.052
-304.837	29.980	0.052	-0.044
-303.822	-200.000	-0.024	-0.172
-302.807	294.026	-0.151	-0.273
-301.793	-4.419	0.562	-0.385
-300.778	-70.839	0.205	-0.077
-299.764	-200.000	0.036	0.302
-298.749	-200.000	-0.015	-0.235
-297.735	800.000	-0.035	0.121
-296.720	114.549	0.300	0.362
-295.705	42.722	0.099	-0.090
-294.691	362.517	0.070	0.140
-293.676	190.002	0.120	0.178
-292.662	352.087	-0.059	-0.117
-291.647	-58.009	-0.158	-0.068
-290.632	-42.499	0.252	-0.127
-289.618	81.933	0.307	-0.330
-288.603	-64.604	-0.183	0.073
-287.589	269.510	0.135	0.235
-286.574	-91.810	0.088	0.025
-285.559	288.039	-0.072	-0.129
-284.545	-40.951	0.092	0.047
-283.530	800.000	-0.133	-0.364
-282.516	800.000	-0.092	-0.260
-281.501	-88.855	-0.084	-0.025
-280.486	-85.623	0.100	0.031
-279.472	800.000	0.085	-0.253
-278.457	91.792	-0.217	-0.242
-277.443	-200.000	-0.014	-0.335
-276.428	-106.662	-0.192	-0.042
-275.413	449.813	-0.105	-0.230
-274.399	-137.068	-0.240	-0.027
-273.384	209.253	0.028	-0.044
-272.370	57.309	0.094	-0.091
-271.355	-200.000	0.026	0.118
-270.340	-200.000	0.053	0.383
-269.326	-200.000	0.104	0.000
-268.311	-66.622	-0.024	-0.009
-267.297	-200.000	0.002	0.254
-266.282	583.466	-0.086	-0.210
-265.267	-77.297	0.136	-0.047
-264.253	250.969	-0.021	-0.035
-263.238	800.000	-0.088	-0.252
-262.224	-115.059	-0.417	0.078
-261.209	-200.000	-0.012	-0.260
-260.195	422.445	0.072	0.154
-259.180	-184.287	0.375	0.006
-258.165	-14.668	-0.132	0.084
-257.151	127.081	-0.124	0.155
-256.136	3.572	-0.299	0.216
-255.122	-65.380	0.220	0.088
-254.107	-62.609	-0.275	-0.113
-253.092	-144.904	-0.220	0.020
-252.078	-200.000	0.034	-0.336
-251.063	22.471	-0.185	-0.150
-250.049	341.251	0.104	0.202
-249.034	-200.000	-0.034	0.156
-248.019	-132.394	0.258	-0.033
-247.005	-175.234	-0.077	0.002
-245.990	-5.553	-0.095	-0.065
-244.976	412.604	0.098	-0.206
-243.961	800.000	0.030	0.091
-242.946	-115.172	0.266	-0.050
-241.932	469.095	0.087	-0.193
-240.917	800.000	-0.067	-0.289
-239.903	-27.859	-0.206	0.118
-238.888	30.109	-0.160	0.135
-237.873	-98.687	0.285	0.072
-236.859	-200.000	0.005	0.320
-235.844	51.761	-0.101	-0.095
-234.830	-77.325	-0.467	0.160
-233.815	36.708	0.195	-0.170
-232.800	298.352	0.149	0.272
-231.786	-200.000	0.031	0.169
-230.771	-141.344	-0.130	0.013
-229.757	-16.969	-0.070	-0.044
-228.742	-25.492	0.282	-0.165
-227.727	142.852	-0.107	0.141
-226.713	-26.865	-0.080	0.046
-225.698	800.000	0.031	-0.094
-224.684	73.552	-0.179	-0.185
-223.669	119.238	-0.011	-0.014
-222.655	383.328	-0.069	0.141
-221.640	-200.000	0.016	-0.201
-220.625	800.000	-0.037	-0.162
-219.611	450.378	0.072	-0.157
-218.596	281.244	-0.200	0.354
-217.582	-200.000	-0.024	0.182
-216.567	20.462	-0.112	0.090
-215.552	800.000	0.102	0.340
-214.538	56.390	-0.117	0.112
-213.523	271.513	0.092	0.160
-212.509	55.506	-0.133	0.128
-211.494	800.000	0.058	-0.238
-210.479	774.585	0.149	-0.403
-209.465	800.000	0.099	-0.295
-208.450	-77.747	-0.294	0.101
-207.436	-200.000	0.007	0.107
-206.421	35.163	-0.179	-0.155
-205.406	-7.373	-0.142	0.095
-204.392	800.000	-0.069	0.194
-203.377	-200.000	0.016	0.307
-202.363	-198.481	0.391	-0.002
-201.348	476.588	0.066	0.148
-200.333	-200.000	-0.013	0.116
-199.319	312.594	0.091	0.168
-198.304	145.069	0.217	-0.287
-197.290	22.253	-0.128	-0.103
-196.275	34.276	-0.081	-0.069
-195.260	-200.000	-0.001	0.083
-194.246	-95.346	-0.292	0.078
-193.231	216.513	-0.029	-0.045
-192.217	131.996	-0.123	0.156
-191.202	54.799	0.126	-0.120
-190.187	425.829	0.072	-0.154
-189.173	800.000	0.085	-0.243
-188.158	-200.000	-0.084	0.498
-187.144	-39.760	-0.238	-0.123
-186.129	800.000	0.034	-0.123
-185.114	-102.715	0.472	0.111
-184.100	7.363	0.140	0.103
-183.085	-17.110	0.204	-0.127
-182.071	310.539	0.072	0.133
-181.056	-84.666	0.464	0.144
-180.042	-200.000	-0.011	0.102
-179.027	155.347	-0.168	0.228
-178.012	700.131	-0.105	0.273
-176.998	-64.929	-0.338	-0.135
-175.983	215.089	0.129	-0.202
-174.969	140.813	-0.178	-0.233
-173.954	-200.000	0.052	-0.399
-172.939	625.068	0.046	0.114
-171.925	-106.604	-0.188	-0.041
-170.910	-200.000	0.000	-0.015
-169.896	176.577	-0.103	-0.148
-168.881	101.962	-0.052	0.060
-167.866	37.211	-0.251	0.220
-166.852	310.262	-0.128	-0.236
-165.837	123.882	0.104	0.129
-164.823	130.991	-0.099	-0.125
-163.808	187.509	-0.036	0.054
-162.793	-60.659	0.146	0.061
-161.779	-45.878	0.222	-0.108
-160.764	411.290	-0.124	-0.259
-159.750	800.000	-0.029	0.086
-158.735	-124.401	0.189	-0.029
-157.720	-18.152	-0.060	0.037
-156.706	800.000	-0.011	0.032
-155.691	-177.071	-0.155	-0.004
-154.677	-200.000	0.054	0.326
-153.662	-200.000	0.029	0.166
-152.647	14.244	-0.019	0.014
-151.633	-200.000	0.002	0.350
-150.618	248.940	0.291	0.487
-149.604	-129.197	-0.385	0.053
-148.589	-200.000	-0.042	0.217
-147.574	-72.801	0.086	0.031
-146.560	800.000	0.053	-0.203
-145.545	100.032	0.184	0.211
-144.531	38.320	0.138	0.121
-143.516	18.657	-0.138	0.109
-142.502	-149.192	-0.390	0.031
-141.487	-72.077	0.433	0.159
-140.472	-158.591	-0.125	-0.007
-139.458	800.000	-0.097	-0.299
-138.443	76.769	-0.061	-0.064
-137.429	-27.948	0.067	0.038
-136.414	-200.000	0.027	-0.152
-135.399	-11.676	0.150	0.097
-134.385	-184.068	-0.064	0.001
-133.370	265.864	0.152	0.261
-132.356	186.471	0.141	-0.207
-131.341	-118.625	-0.077	-0.013
-130.326	341.574	-0.133	0.257
-129.312	70.021	-0.070	-0.071
-128.297	-200.000	-0.028	0.144
-127.283	-200.000	-0.006	0.050
-126.268	-73.114	-0.185	0.067
-125.253	-185.192	0.211	-0.003
-124.239	-53.575	-0.286	-0.129
-123.224	-200.000	0.019	-0.147
-122.210	265.615	0.169	0.290
-121.195	-61.450	0.127	0.053
-120.180	-82.288	0.148	-0.047
-119.166	-178.611	0.080	0.002
-118.151	-67.042	-0.076	0.029
-117.137	232.243	-0.082	-0.133
-116.122	800.000	0.035	0.151
-115.107	129.986	-0.252	0.318
-114.093	-112.245	-0.150	-0.030
-113.078	33.748	0.304	0.260
-112.064	83.293	0.044	0.047
-111.049	594.163	0.134	-0.325
-110.034	7.991	0.349	0.258
-109.020	329.451	-0.047	0.089
-108.005	-119.345	0.330	0.057
-106.991	374.228	-0.042	0.084
-105.976	800.000	-0.067	0.280
-104.962	-200.000	-0.013	-0.082
-103.947	24.862	0.155	-0.126
-102.932	-200.000	0.027	-0.465
-101.918	-90.369	-0.216	0.062
-100.903	401.982	-0.096	-0.199
-99.889	206.033	-0.103	-0.157
-98.874	135.324	-0.045	0.057
-97.859	-200.000	0.039	0.218
-96.845	-69.634	0.221	0.083
-95.830	104.852	-0.111	-0.129
-94.816	-22.683	0.115	-0.068
-93.801	21.976	-0.215	-0.173
-92.786	0.338	0.411	0.288
-91.772	332.348	-0.041	0.078
-90.757	800.000	0.048	0.203
-89.743	-3.078	0.224	0.154
-88.728	-101.398	0.026	0.006
-87.713	-200.000	-0.010	0.115
-86.699	14.753	0.046	-0.036
-85.684	2.738	0.247	-0.176
-84.670	-200.000	-0.020	-0.468
-83.655	-7.969	-0.109	-0.072
-82.640	87.205	-0.115	-0.125
-81.626	-18.997	-0.187	-0.114
-80.611	-200.000	-0.015	-0.121
-79.597	-45.977	0.179	0.087
-78.582	800.000	-0.029	0.095
-77.567	-3.333	-0.083	0.057
-76.553	45.849	-0.060	0.055
-75.538	-200.000	-0.019	-0.322
-74.524	14.555	0.097	0.074
-73.509	74.441	0.297	0.306
-72.494	400.994	0.027	0.055
-71.480	260.655	-0.157	-0.266
-70.465	-40.285	0.069	0.035
-69.451	-48.111	0.212	-0.101
-68.436	-21.616	-0.203	-0.122
-67.422	-102.488	0.061	0.014
-66.407	-200.000	0.034	0.213
-65.392	-81.511	0.353	-0.114
-64.378	-91.309	0.618	0.174
-63.363	278.424	0.127	-0.223
-62.349	-161.458	0.410	0.021
-61.334	64.152	-1.020	-1.009
-60.319	-2.442	0.650	0.447
-59.305	-200.000	-0.032	-0.885
-58.290	390.677	0.541	1.102
-57.276	800.000	0.482	1.428
-56.261	-200.000	97.796	584.320
-55.246	555.251	1390.553	3287.600
-54.232	153.673	2598.075	3495.963
-53.217	108.188	2283.831	2675.081
-52.203	43.629	1900.797	1707.730
-51.188	37.578	1690.044	1472.709
-50.173	34.822	1645.340	1413.355
-49.159	52.965	1694.298	1591.833
-48.144	56.167	1711.604	1631.997
-47.130	37.308	1668.133	1451.368
-46.115	34.348	1652.753	1415.973
-45.100	34.187	1648.443	1411.034
-44.086	34.184	1645.751	1408.651
-43.071	34.095	1643.361	1405.894
-42.057	34.231	1640.560	1404.440
-41.042	34.211	1638.678	1402.628
-40.027	34.221	1636.470	1400.754
-39.013	34.030	1634.977	1398.022
-37.998	34.082	1633.252	1396.871
-36.984	34.148	1631.704	1395.975
-35.969	34.364	1629.773	1395.846
-34.954	34.298	1628.573	1394.286
-33.940	34.299	1626.442	1392.408
-32.925	34.262	1624.992	1390.842
-31.911	34.213	1623.671	1389.298
-30.896	34.257	1621.421	1387.639
-29.881	34.284	1620.226	1386.762
-28.867	34.296	1617.995	1384.884
-27.852	34.299	1616.719	1383.757
-26.838	34.321	1615.240	1382.596
-25.823	34.270	1614.299	1381.365
-24.809	34.345	1612.794	1380.567
-23.794	34.293	1611.429	1378.967
-22.779	34.342	1609.874	1377.933
-21.765	34.318	1608.687	1376.692
-20.750	34.315	1606.407	1374.668
-19.736	34.368	1605.217	1373.975
-18.721	34.348	1603.909	1372.657
-17.706	34.395	1601.773	1371.109
-16.692	34.301	1600.683	1369.450
-15.677	34.356	1599.269	1368.578
-14.663	34.451	1597.647	1367.816
-13.648	34.370	1596.135	1365.887
-12.633	34.452	1594.685	1365.181
-11.619	34.439	1592.899	1363.503
-10.604	34.391	1591.918	1362.267
-9.590	34.359	1590.819	1361.042
-8.575	34.473	1588.943	1360.196
-7.560	34.326	1588.231	1358.489
-6.546	34.414	1587.039	1358.042
-5.531	34.397	1586.045	1357.018
-4.517	34.283	1585.173	1355.403
-3.502	34.429	1583.179	1354.683
-2.487	34.394	1582.214	1353.556
-1.473	34.028	1570.880	1341.222
-0.458	31.444	1550.852	1306.049
0.556	27.992	1551.779	1274.716
1.571	25.696	1575.885	1278.118
2.586	25.107	1589.865	1285.126
3.600	22.301	1536.747	1222.610
4.615	12.677	1425.258	1071.471
5.629	3.728	1357.966	965.087
6.644	2.012	1349.394	948.256
7.659	1.890	1347.717	946.237
8.673	1.857	1346.301	944.953
9.688	1.711	1344.965	943.024
10.702	1.545	1342.170	939.957
11.717	5.116	1349.157	966.924
12.731	15.440	1368.110	1045.006
13.746	23.912	1382.785	1109.202
14.761	25.924	1384.924	1123.372
15.775	26.126	1384.984	1124.577
16.790	26.254	1384.567	1124.937
17.804	26.363	1383.933	1125.000
18.819	26.575	1383.724	1126.052
19.834	26.727	1382.801	1126.142
20.848	26.689	1382.430	1125.508
21.863	26.656	1381.443	1124.402
22.877	26.738	1380.367	1123.933
23.892	26.613	1379.880	1122.660
24.907	26.692	1379.094	1122.414
25.921	26.697	1378.253	1121.662
26.936	26.570	1377.372	1120.055
27.950	26.618	1375.978	1119.118
28.965	26.655	1374.797	1118.291
29.980	26.587	1373.462	1116.683
30.994	26.653	1371.999	1115.802
32.009	26.767	1370.811	1115.440
33.023	26.622	1369.925	1113.732
34.038	26.608	1368.901	1112.713
35.053	26.653	1367.977	1112.141
36.067	26.615	1367.141	1111.126
37.082	26.655	1366.202	1110.512
38.096	26.688	1364.783	1109.464
39.111	26.658	1364.424	1108.890
40.126	26.650	1364.162	1108.529
41.140	26.561	1363.478	1107.330
42.155	26.571	1362.904	1106.827
43.169	26.624	1362.982	1107.117
44.184	26.623	1362.725	1106.802
45.199	26.613	1361.716	1105.829
46.213	26.637	1361.811	1105.951
47.228	26.653	1360.615	1104.980
48.242	26.639	1359.356	1103.778
49.257	26.637	1358.252	1102.771
50.271	26.707	1356.646	1101.795
51.286	26.631	1355.441	1100.253
52.301	26.645	1354.348	1099.354
53.315	26.657	1353.305	1098.487
54.330	26.577	1352.648	1097.366
55.344	26.814	1350.723	1097.143
56.359	26.641	1350.608	1095.907
57.374	26.590	1349.815	1094.856
58.388	26.684	1349.040	1094.701
59.403	26.675	1348.559	1094.158
60.417	26.614	1347.881	1093.143
61.432	26.711	1346.790	1092.746
62.447	26.649	1346.112	1091.724
63.461	26.650	1344.944	1090.688
64.476	26.551	1344.325	1089.497
65.490	26.780	1342.908	1089.623
66.505	26.640	1341.836	1087.821
67.520	26.680	1339.946	1086.430
68.534	26.732	1339.091	1085.951
69.549	26.590	1338.517	1084.542
70.563	26.579	1337.905	1083.884
71.578	26.788	1336.243	1083.692
72.593	26.659	1335.831	1082.488
73.607	26.777	1334.873	1082.321
74.622	26.735	1334.167	1081.402
75.636	26.638	1333.852	1080.476
76.651	26.672	1333.121	1079.991
77.666	26.674	1332.451	1079.363
78.680	26.689	1331.935	1078.938
79.695	26.667	1331.145	1078.069
80.709	26.663	1330.005	1077.029
81.724	26.651	1329.443	1076.407
82.739	26.725	1328.412	1075.916
83.753	26.653	1327.598	1074.735
84.768	26.613	1326.760	1073.726
85.782	26.737	1325.197	1073.099
86.797	26.835	1323.912	1072.544
87.812	26.647	1323.451	1070.961
88.826	26.629	1322.508	1069.997
89.841	26.765	1320.922	1069.426
90.855	26.730	1320.205	1068.541
91.870	26.737	1319.402	1067.837
92.884	26.664	1318.821	1066.842
93.899	26.784	1317.903	1066.712
94.914	26.797	1316.908	1065.888
95.928	26.851	1315.932	1065.321
96.943	26.728	1315.913	1064.490
97.957	26.764	1315.079	1063.932
98.972	26.642	1314.202	1062.412
99.987	26.731	1313.298	1062.108
101.001	26.699	1312.954	1061.551
102.016	26.672	1311.552	1060.166
103.030	26.662	1310.280	1058.985
104.045	26.764	1309.719	1059.035
105.060	26.769	1308.848	1058.266
106.074	26.834	1307.551	1057.503
107.089	26.751	1306.828	1056.340
108.103	26.831	1305.704	1055.803
109.118	26.776	1304.670	1054.553
110.133	26.833	1303.654	1053.974
111.147	26.872	1302.129	1052.872
112.162	26.756	1301.455	1051.558
113.176	26.789	1300.319	1050.740
114.191	26.916	1299.343	1050.597
115.206	26.763	1298.303	1048.777
116.220	26.787	1297.441	1048.127
117.235	26.828	1296.732	1047.697
118.249	26.811	1295.360	1046.394
119.264	26.927	1294.454	1046.241
120.279	26.850	1293.904	1045.263
121.293	26.976	1292.666	1044.891
122.308	26.846	1292.589	1043.989
123.322	26.970	1291.193	1043.485
124.337	26.765	1290.546	1041.689
125.352	26.946	1289.792	1042.028
126.366	26.902	1288.977	1041.029
127.381	26.901	1288.043	1040.172
128.395	26.886	1287.446	1039.511
129.410	26.813	1286.525	1038.259
130.424	26.875	1285.890	1038.008
131.439	26.923	1284.910	1037.402
132.454	26.849	1284.319	1036.408
133.468	26.832	1283.663	1035.689
134.483	26.794	1283.372	1035.149
135.497	26.855	1282.431	1034.647
136.512	26.819	1281.107	1033.282
137.527	26.926	1279.825	1032.762
138.541	26.860	1278.708	1031.395
139.556	26.725	1277.660	1029.692
140.570	26.910	1277.052	1030.159
141.585	26.929	1275.689	1029.080
142.600	26.907	1274.558	1027.954
143.614	26.794	1274.057	1026.818
144.629	26.778	1273.121	1025.883
145.643	26.756	1271.695	1024.514
146.658	26.740	1270.913	1023.706
147.673	26.824	1269.813	1023.201
148.687	26.778	1269.126	1022.298
149.702	26.806	1267.631	1021.163
150.716	26.746	1266.576	1019.882
151.731	26.813	1265.643	1019.419
152.746	26.892	1264.786	1019.082
153.760	26.935	1263.849	1018.479
154.775	26.785	1263.031	1016.888
155.789	26.835	1262.165	1016.381
156.804	26.804	1261.084	1015.248
157.819	26.920	1260.507	1015.342
158.833	26.846	1259.705	1014.192
159.848	26.842	1259.178	1013.654
160.862	26.972	1258.057	1013.392
161.877	26.999	1257.110	1012.687
162.892	26.971	1256.440	1011.905
163.906	26.992	1255.589	1011.243
164.921	27.027	1255.430	1011.225
165.935	26.849	1254.401	1009.314
166.950	26.876	1254.235	1009.241
167.964	27.030	1253.408	1009.339
168.979	26.996	1252.528	1008.357
169.994	26.896	1252.165	1007.417
171.008	26.934	1251.458	1006.969
172.023	26.956	1250.861	1006.524
173.037	26.978	1249.811	1005.710
174.052	26.947	1248.907	1004.726
175.067	26.943	1248.399	1004.205
176.081	26.950	1247.600	1003.512
177.096	26.963	1247.036	1003.043
178.110	27.092	1245.854	1002.714
179.125	27.012	1245.099	1001.575
180.140	27.145	1243.812	1001.185
181.154	27.047	1243.100	999.984
182.169	27.010	1241.533	998.433
183.183	26.879	1241.190	997.347
184.198	27.038	1239.693	996.930
185.213	27.081	1238.941	996.470
186.227	27.016	1238.384	995.578
187.242	27.137	1237.039	995.075
188.256	27.113	1236.070	994.073
189.271	27.016	1235.987	993.385
190.286	27.070	1234.994	992.796
191.300	27.071	1234.176	992.055
192.315	26.979	1233.756	991.128
193.329	26.980	1233.521	990.858
194.344	27.201	1232.645	991.270
195.359	27.109	1232.596	990.645
196.373	27.051	1231.707	989.524
197.388	26.943	1231.743	988.878
198.402	26.902	1231.373	988.273
199.417	26.921	1230.878	987.892
200.432	27.073	1229.750	987.721
201.446	27.017	1229.563	987.180
202.461	26.979	1229.005	986.438
203.475	27.180	1227.556	986.278
204.490	27.053	1226.919	984.993
205.504	27.020	1225.907	983.914
206.519	27.137	1225.042	983.767
207.534	27.098	1224.173	982.770
208.548	27.073	1223.592	982.079
209.563	27.092	1222.362	981.108
210.577	27.167	1221.705	980.898
211.592	27.165	1220.599	979.917
212.607	27.172	1220.014	979.396
213.621	27.255	1218.970	978.919
214.636	27.211	1218.872	978.514
215.650	27.232	1217.851	977.721
216.665	27.132	1216.753	976.217
217.680	27.145	1216.129	975.698
218.694	27.193	1214.927	974.905
219.709	27.163	1214.622	974.412
220.723	27.183	1213.989	973.931
221.738	27.175	1212.956	972.973
222.753	27.093	1212.586	972.147
223.767	27.108	1212.024	971.690
224.782	27.287	1211.157	971.869
225.796	27.316	1210.497	971.406
226.811	27.317	1210.260	971.135
227.826	27.258	1209.710	970.293
228.840	27.328	1208.905	969.937
229.855	27.249	1208.264	968.913
230.869	27.426	1207.595	969.236
231.884	27.214	1207.166	967.678
232.899	27.226	1206.087	966.790
233.913	27.264	1205.939	966.787
234.928	27.349	1205.211	966.572
235.942	27.338	1204.426	965.799
236.957	27.388	1203.653	965.358
237.972	27.344	1203.242	964.707
238.986	27.379	1202.134	963.917
240.001	27.403	1201.787	963.684
241.015	27.436	1200.971	963.117
242.030	27.359	1200.595	962.323
243.045	27.529	1199.403	962.184
244.059	27.504	1198.463	961.213
245.074	27.535	1197.641	960.629
246.088	27.511	1197.103	959.985
247.103	27.437	1196.674	959.169
248.117	27.516	1195.599	958.635
249.132	27.498	1194.843	957.851
250.147	27.559	1194.069	957.467
251.161	27.623	1193.152	956.982
252.176	27.532	1192.828	956.161
253.190	27.548	1192.215	955.671
254.205	27.554	1191.567	955.098
255.220	27.550	1191.145	954.653
256.234	27.483	1190.851	953.982
257.249	27.629	1189.739	953.769
258.263	27.575	1189.491	953.203
259.278	27.609	1188.978	952.885
260.293	27.570	1188.162	951.945
261.307	27.579	1187.782	951.600
262.322	27.605	1187.027	951.049
263.336	27.689	1186.070	950.636
264.351	27.577	1185.658	949.636
265.366	27.524	1185.509	949.160
266.380	27.571	1184.504	948.513
267.395	27.658	1183.830	948.345
268.409	27.579	1183.452	947.547
269.424	27.601	1182.894	947.128
270.439	27.607	1182.154	946.484
271.453	27.711	1181.376	946.320
272.468	27.533	1180.732	944.796
273.482	27.609	1179.979	944.503
274.497	27.592	1179.762	944.159
275.512	27.601	1179.456	943.875
276.526	27.735	1178.356	943.607
277.541	27.668	1177.870	942.785
278.555	27.767	1176.898	942.434
279.570	27.715	1176.032	941.389
280.585	27.698	1175.433	940.739
281.599	27.780	1174.252	940.135
282.614	27.775	1173.753	939.627
283.628	27.813	1172.725	938.917
284.643	27.786	1172.005	938.117
285.657	27.766	1171.413	937.455
286.672	27.730	1170.301	936.301
287.687	27.817	1169.408	935.946
288.701	27.804	1169.075	935.533
289.716	27.809	1168.495	935.011
290.730	27.843	1167.584	934.373
291.745	27.834	1167.266	933.988
292.760	27.824	1166.370	933.139
293.774	27.823	1166.024	932.773
294.789	27.811	1165.593	932.287
295.803	28.006	1164.503	932.328
296.818	27.936	1163.902	931.404
297.833	28.030	1163.289	931.310
298.847	27.858	1162.935	930.069
299.862	27.949	1162.044	929.740
300.876	27.917	1161.473	929.037
301.891	27.920	1161.129	928.693
302.906	27.982	1160.259	928.233
303.920	27.966	1159.830	927.726
304.935	27.992	1158.815	926.964
305.949	28.061	1158.135	926.686
306.964	27.937	1157.950	925.829
307.979	28.110	1156.885	925.769
308.993	27.934	1156.586	924.560
310.008	28.148	1155.538	924.722
311.022	28.111	1154.914	923.952
312.037	27.958	1154.504	922.772
313.052	28.098	1153.400	922.511
314.066	27.926	1152.752	921.047
315.081	28.020	1151.864	920.730
316.095	28.109	1151.437	920.756
317.110	28.140	1150.997	920.475
318.125	28.239	1149.906	920.022
319.139	28.105	1149.430	918.883
320.154	28.126	1148.810	918.412
321.168	28.132	1148.295	917.949
322.183	28.064	1147.702	917.054
323.197	28.114	1147.317	916.917
324.212	28.175	1146.143	916.204
325.227	28.123	1146.104	915.830
326.241	28.207	1145.720	915.859
327.256	28.210	1144.714	914.989
328.270	28.248	1144.007	914.534
329.285	28.232	1143.355	913.851
330.300	28.198	1142.612	913.008
331.314	28.240	1141.788	912.481
332.329	28.232	1141.026	911.751
333.343	28.270	1140.230	911.223
334.358	28.224	1139.559	910.378
335.373	28.281	1138.936	910.081
336.387	28.337	1138.024	909.551
337.402	28.466	1137.351	909.570
338.416	28.297	1136.885	908.281
339.431	28.411	1136.204	908.222
340.446	28.380	1135.835	907.693
341.460	28.414	1135.117	907.205
342.475	28.461	1134.162	906.595
343.489	28.415	1133.193	905.513
344.504	28.311	1132.494	904.360
345.519	28.484	1131.450	904.299
346.533	28.526	1130.510	903.678
347.548	28.425	1130.137	902.801
348.562	28.478	1129.402	902.396
349.577	28.389	1128.883	901.461
350.592	28.446	1127.982	900.942
351.606	28.526	1127.199	900.629
352.621	28.521	1126.824	900.228
353.635	28.498	1126.409	899.702
354.650	28.484	1125.920	899.164
355.665	28.599	1124.949	898.871
356.679	28.577	1124.673	898.462
357.694	28.553	1123.987	897.718
358.708	28.454	1123.343	896.642
359.723	28.398	1122.665	895.746
360.738	28.433	1121.875	895.208
361.752	28.544	1121.517	895.385
362.767	28.695	1120.476	895.211
363.781	28.710	1120.076	894.887
364.796	28.690	1120.156	894.771
365.810	28.648	1119.404	893.890
366.825	28.734	1118.605	893.588
367.840	28.667	1118.167	892.837
368.854	28.747	1117.609	892.702
369.869	28.772	1116.750	892.058
370.883	28.769	1116.015	891.374
371.898	28.723	1115.497	890.658
372.913	28.773	1114.675	890.167
373.927	28.784	1114.294	889.835
374.942	28.771	1113.933	889.405
375.956	28.801	1113.380	889.033
376.971	28.780	1112.902	888.469
377.986	28.920	1112.094	888.421
379.000	28.807	1111.710	887.490
380.015	28.844	1111.194	887.178
381.029	28.854	1110.223	886.372
382.044	28.713	1110.212	885.607
383.059	28.941	1108.983	885.647
384.073	28.846	1108.325	884.585
385.088	28.815	1107.644	883.815
386.102	28.841	1106.872	883.243
387.117	28.883	1105.689	882.425
388.132	28.948	1104.999	882.106
389.146	28.906	1104.621	881.525
390.161	28.918	1104.009	881.018
391.175	28.919	1103.408	880.466
392.190	28.953	1102.369	879.720
393.205	28.951	1101.934	879.284
394.219	29.072	1100.461	878.611
395.234	29.104	1100.400	878.636
396.248	29.046	1099.531	877.590
397.263	28.963	1098.927	876.634
398.278	29.033	1098.171	876.284
399.292	29.074	1097.848	876.146
400.307	29.133	1097.258	875.876
401.321	29.103	1096.420	874.987
402.336	29.057	1095.845	874.233
403.350	29.126	1094.741	873.602
404.365	29.121	1094.357	873.194
405.380	29.090	1093.999	872.685
406.394	29.176	1093.233	872.404
407.409	29.111	1092.484	871.421
408.423	29.176	1091.830	871.131
409.438	29.293	1090.720	870.723
410.453	29.264	1090.266	870.146
411.467	29.291	1089.414	869.517
412.482	29.276	1088.918	868.974
413.496	29.173	1088.431	868.022
414.511	29.302	1087.749	868.007
415.526	29.152	1087.385	866.932
416.540	29.240	1087.194	867.120
417.555	29.215	1086.622	866.467
418.569	29.267	1086.176	866.282
419.584	29.287	1085.748	865.959
420.599	29.271	1085.335	865.476
421.613	102.603	1318.369	1447.974
422.628	95.550	1352.313	1448.075
