DTS Sentinel unit serial number:	SN413079Multiplexer serial number:	ORYXHardware model number:	OX4-SRSoftware version number:	ORYX F/W v4.00 Oryx Data Collector v3.7.2.0data status	okinstallation	princeton_trtdifferential loss correction	single-endedforward channel	channel 2reverse channel	N/Adate	2019/09/16time	19:27:34forward acquisition time	60.00reverse acquisition time	0.00gamma	496.2192k internal	0.2322k external	0.2322temperature offset calibration	0.9964default loss term (dB/km)	0.3790temperature slope calibration	1.0000multiplexer offset coefficient	1.0000multiplexer slope coefficient	1.0000fibre end	0.00T internal ref (°C)	34.59T ext. ref 1 (°C)	0.05T ext. ref 2 (°C)	27.57length (m)	temperature (°C)	Stokes	anti-Stokes-747.200	129.298	-0.080	0.104
-746.185	800.000	-0.080	0.318
-745.171	-200.000	-0.044	-0.298
-744.156	800.000	0.108	0.321
-743.142	-156.648	0.251	0.016
-742.127	-164.311	0.222	0.010
-741.112	-67.110	0.057	-0.023
-740.098	-200.000	0.019	0.092
-739.083	-75.691	0.230	-0.082
-738.069	-61.218	-0.189	0.080
-737.054	61.197	0.177	-0.178
-736.039	-137.426	-0.130	0.015
-735.025	174.091	0.118	0.172
-734.010	203.950	-0.112	-0.175
-732.996	75.940	-0.180	0.192
-731.981	337.986	-0.103	-0.202
-730.966	-22.246	-0.169	0.103
-729.952	-98.896	-0.072	0.018
-728.937	-87.275	-0.150	-0.046
-727.923	-154.290	-0.294	-0.020
-726.908	274.476	-0.011	-0.021
-725.894	-145.113	-0.193	0.018
-724.879	-23.911	-0.151	-0.091
-723.864	104.676	0.022	-0.026
-722.850	61.440	0.234	-0.235
-721.835	79.600	-0.208	-0.226
-720.821	-200.000	0.081	-0.614
-719.806	134.506	0.261	0.341
-718.791	-37.065	0.152	0.082
-717.777	-200.000	-0.026	0.192
-716.762	-78.477	-0.087	0.030
-715.748	119.001	0.175	-0.219
-714.733	-200.000	-0.024	0.148
-713.718	102.233	-0.042	-0.050
-712.704	-6.273	-0.057	-0.039
-711.689	800.000	0.080	0.329
-710.675	313.799	-0.075	-0.142
-709.660	563.695	0.088	-0.215
-708.645	-57.080	0.110	-0.049
-707.631	-200.000	-0.002	0.027
-706.616	84.073	0.169	-0.186
-705.602	-38.070	-0.421	0.226
-704.587	247.467	-0.077	-0.132
-703.572	40.415	-0.227	-0.206
-702.558	-174.019	0.214	0.006
-701.543	164.266	0.048	0.068
-700.529	-175.710	0.188	-0.005
-699.514	-200.000	-0.027	0.236
-698.499	92.716	0.069	0.078
-697.485	-146.590	0.397	-0.035
-696.470	-19.999	-0.221	0.137
-695.456	-200.000	-0.022	0.204
-694.441	800.000	-0.094	-0.373
-693.426	-200.000	-0.011	0.182
-692.412	-65.038	-0.037	-0.015
-691.397	248.987	-0.091	-0.155
-690.383	-150.968	-0.166	-0.013
-689.368	46.767	0.074	-0.069
-688.354	-0.517	-0.170	0.122
-687.339	127.129	-0.161	0.206
-686.324	-109.214	0.302	0.065
-685.310	800.000	0.016	-0.064
-684.295	800.000	0.088	-0.378
-683.281	-78.337	0.039	-0.013
-682.266	-23.578	-0.241	-0.146
-681.251	-68.064	-0.275	0.108
-680.237	-5.289	-0.175	0.121
-679.222	128.764	-0.078	0.100
-678.208	-200.000	0.000	-0.380
-677.193	-200.000	-0.004	-0.237
-676.178	235.994	0.052	0.086
-675.164	-197.129	-0.268	-0.002
-674.149	44.315	-0.081	-0.075
-673.135	-142.917	-0.219	0.021
-672.120	274.763	0.137	0.244
-671.105	-152.466	-0.048	0.003
-670.091	107.850	-0.160	-0.192
-669.076	-200.000	0.036	-0.182
-668.062	800.000	-0.137	-0.544
-667.047	-200.000	-0.027	0.542
-666.032	-200.000	-0.002	0.278
-665.018	-60.894	0.060	0.025
-664.003	-39.673	0.179	0.094
-662.989	-200.000	-0.001	0.291
-661.974	-200.000	-0.033	-0.210
-660.959	103.203	0.166	-0.196
-659.945	14.947	-0.335	-0.264
-658.930	800.000	0.024	0.093
-657.916	-157.275	0.262	0.016
-656.901	-200.000	0.014	-0.110
-655.886	800.000	-0.014	-0.050
-654.872	-173.330	0.200	0.006
-653.857	-200.000	0.005	-0.067
-652.843	-39.861	-0.213	-0.112
-651.828	-200.000	-0.025	-0.358
-650.814	-39.073	-0.231	-0.122
-649.799	-200.000	0.001	-0.346
-648.784	-25.385	0.136	-0.081
-647.770	-85.829	-0.318	-0.099
-646.755	349.520	-0.143	0.284
-645.741	-30.814	-0.326	-0.186
-644.726	283.065	0.081	-0.147
-643.711	-61.032	0.100	0.043
-642.697	91.979	0.203	-0.230
-641.682	101.013	0.247	0.289
-640.668	385.576	-0.040	-0.082
-639.653	191.932	-0.175	0.265
-638.638	-29.460	0.244	0.140
-637.624	-14.215	-0.201	-0.131
-636.609	-29.623	0.220	0.126
-635.595	89.938	0.029	0.032
-634.580	9.985	0.152	-0.116
-633.565	800.000	-0.135	-0.578
-632.551	800.000	-0.075	0.319
-631.536	-98.147	0.282	-0.073
-630.522	744.726	0.074	0.200
-629.507	118.172	-0.143	0.177
-628.492	-90.499	-0.318	-0.092
-627.478	-200.000	-0.059	-0.289
-626.463	148.376	-0.163	0.221
-625.449	67.088	0.070	-0.072
-624.434	-40.333	-0.370	0.194
-623.419	23.975	0.126	0.104
-622.405	-200.000	-0.016	0.104
-621.390	-62.103	-0.106	-0.044
-620.376	-200.000	-0.048	0.472
-619.361	-200.000	-0.003	0.194
-618.346	-200.000	0.001	-0.056
-617.332	-200.000	0.004	-0.311
-616.317	523.262	-0.102	0.240
-615.303	-138.250	-0.175	-0.019
-614.288	-150.163	0.308	-0.024
-613.273	-57.511	0.177	0.078
-612.259	-72.935	0.333	0.123
-611.244	660.411	0.040	0.103
-610.230	-46.349	-0.061	0.030
-609.215	-19.840	0.087	-0.054
-608.201	435.667	-0.160	0.350
-607.186	-200.000	-0.016	0.217
-606.171	-200.000	-0.017	0.151
-605.157	800.000	-0.021	0.067
-604.142	-129.862	-0.363	0.050
-603.128	-200.000	0.038	-0.209
-602.113	107.096	0.268	-0.320
-601.098	800.000	0.004	-0.011
-600.084	235.954	0.156	-0.260
-599.069	-200.000	-0.036	-0.266
-598.055	6.508	-0.290	-0.216
-597.040	-47.610	0.198	0.096
-596.025	521.333	-0.031	-0.074
-595.011	-16.690	0.206	-0.131
-593.996	147.233	0.217	-0.294
-592.982	-162.682	0.124	-0.006
-591.967	22.031	0.150	0.123
-590.952	64.153	-0.255	-0.257
-589.938	-138.519	-0.333	-0.037
-588.923	-200.000	-0.006	0.198
-587.909	389.280	-0.026	-0.055
-586.894	-200.000	0.017	-0.373
-585.879	-125.897	-0.183	-0.028
-584.865	342.668	-0.099	-0.195
-583.850	423.978	-0.082	-0.178
-582.836	-129.275	-0.269	-0.038
-581.821	-200.000	0.047	-0.281
-580.806	-48.548	-0.065	0.031
-579.792	-200.000	0.020	-0.187
-578.777	-200.000	-0.044	0.219
-577.763	-58.555	0.436	-0.190
-576.748	-51.186	-0.256	-0.120
-575.733	421.803	-0.073	-0.157
-574.719	-200.000	-0.069	-0.401
-573.704	-200.000	-0.011	0.079
-572.690	-200.000	-0.021	-0.124
-571.675	-200.000	0.004	0.049
-570.661	-45.116	-0.253	-0.126
-569.646	-200.000	-0.020	-0.196
-568.631	-200.000	-0.016	-0.387
-567.617	295.804	-0.143	0.262
-566.602	117.075	-0.113	-0.139
-565.588	27.070	-0.059	0.050
-564.573	-2.468	0.260	0.183
-563.558	-200.000	0.040	-0.255
-562.544	-93.082	0.391	0.109
-561.529	-107.160	-0.112	0.025
-560.515	-101.652	0.349	-0.085
-559.500	-97.323	-0.041	0.011
-558.485	-47.375	-0.594	-0.290
-557.471	-100.686	0.133	-0.033
-556.456	672.579	-0.158	-0.410
-555.442	-200.000	-0.051	0.326
-554.427	-200.000	0.043	-0.220
-553.412	123.510	0.113	-0.142
-552.398	-200.000	0.051	-0.495
-551.383	2.111	-0.034	-0.025
-550.369	-30.537	-0.276	0.157
-549.354	17.315	-0.177	0.141
-548.339	-83.895	0.110	-0.035
-547.325	-78.408	-0.280	0.096
-546.310	96.265	0.306	-0.351
-545.296	-102.891	-0.196	0.047
-544.281	800.000	0.034	-0.096
-543.266	76.484	-0.111	0.118
-542.252	552.875	0.048	-0.116
-541.237	399.417	0.049	-0.104
-540.223	-124.641	0.115	0.018
-539.208	-104.622	0.034	-0.008
-538.193	357.440	-0.136	0.271
-537.179	800.000	-0.021	-0.077
-536.164	-87.441	-0.341	0.103
-535.150	-200.000	0.026	0.137
-534.135	295.392	-0.096	-0.176
-533.121	-200.000	-0.025	-0.269
-532.106	-200.000	-0.018	-0.182
-531.091	-153.355	-0.426	0.030
-530.077	-76.593	0.251	0.088
-529.062	-52.618	-0.248	-0.115
-528.048	96.516	0.124	-0.142
-527.033	-103.527	0.103	-0.024
-526.018	-200.000	-0.034	0.154
-525.004	9.788	-0.201	-0.152
-523.989	288.064	0.175	0.318
-522.975	-200.000	-0.009	-0.529
-521.960	149.776	0.051	0.069
-520.945	-190.127	0.155	-0.002
-519.931	360.268	0.138	-0.277
-518.916	-179.231	-0.098	-0.002
-517.902	176.516	0.057	0.083
-516.887	800.000	0.101	-0.286
-515.872	109.190	-0.168	-0.201
-514.858	-45.205	0.167	-0.083
-513.843	-200.000	0.066	0.296
-512.829	-200.000	0.033	-0.199
-511.814	-200.000	0.025	0.147
-510.799	174.473	0.104	-0.150
-509.785	160.591	0.094	-0.132
-508.770	-110.583	-0.103	0.021
-507.756	51.718	0.084	-0.080
-506.741	-31.260	-0.079	0.045
-505.726	800.000	0.014	0.054
-504.712	50.802	-0.192	0.182
-503.697	334.165	0.063	-0.122
-502.683	155.686	-0.221	-0.305
-501.668	-200.000	0.030	0.342
-500.653	800.000	0.070	0.200
-499.639	-200.000	-0.022	0.145
-498.624	158.957	-0.073	0.101
-497.610	-125.553	-0.478	0.073
-496.595	651.624	0.028	0.071
-495.581	754.173	-0.109	0.296
-494.566	285.145	0.247	-0.445
-493.551	-2.293	-0.274	-0.193
-492.537	380.396	-0.050	-0.102
-491.522	-99.405	0.218	-0.055
-490.508	-46.676	0.233	0.114
-489.493	-200.000	-0.060	0.421
-488.478	246.153	-0.032	0.054
-487.464	800.000	-0.139	0.496
-486.449	-54.292	-0.380	0.172
-485.435	-148.534	-0.504	0.041
-484.420	-200.000	0.058	-0.315
-483.405	-151.427	-0.238	-0.018
-482.391	250.199	0.101	0.171
-481.376	10.949	0.334	-0.255
-480.362	-127.500	0.337	0.049
-479.347	238.975	-0.023	-0.038
-478.332	-65.406	0.050	0.020
-477.318	320.563	0.060	-0.114
-476.303	115.872	0.258	-0.316
-475.289	-195.291	0.430	0.003
-474.274	346.264	0.068	-0.134
-473.259	725.857	-0.091	0.244
-472.245	-86.269	-0.179	0.055
-471.230	-200.000	0.039	-0.408
-470.216	800.000	-0.083	-0.279
-469.201	270.684	0.205	0.360
-468.186	-42.580	0.344	0.175
-467.172	284.212	-0.081	-0.145
-466.157	-66.174	0.046	0.018
-465.143	-56.912	-0.095	0.042
-464.128	-200.000	-0.010	0.266
-463.113	-179.829	-0.198	0.004
-462.099	-143.638	-0.073	-0.007
-461.084	-48.746	-0.210	-0.101
-460.070	101.957	0.054	-0.063
-459.055	394.064	-0.226	0.471
-458.040	103.184	-0.173	-0.203
-457.026	209.458	0.131	0.205
-456.011	-135.201	0.329	-0.039
-454.997	304.300	-0.060	0.111
-453.982	753.016	-0.055	0.147
-452.968	62.655	0.088	0.087
-451.953	-55.643	0.284	-0.127
-450.938	-11.546	0.167	0.109
-449.924	157.949	-0.131	0.181
-448.909	57.612	0.222	0.217
-447.895	-61.625	-0.173	-0.073
-446.880	40.402	-0.314	-0.282
-445.865	130.009	0.199	0.254
-444.851	59.230	0.125	-0.123
-443.836	-200.000	-0.003	0.116
-442.822	800.000	0.040	-0.132
-441.807	189.741	0.112	0.167
-440.792	-9.612	-0.278	0.185
-439.778	800.000	-0.042	-0.154
-438.763	-200.000	-0.023	-0.279
-437.749	800.000	-0.226	-0.650
-436.734	-200.000	0.034	0.166
-435.719	-168.955	-0.370	0.014
-434.705	800.000	-0.085	0.349
-433.690	54.055	0.161	0.155
-432.676	-200.000	0.053	0.321
-431.661	-106.330	-0.254	-0.057
-430.646	180.038	0.196	0.286
-429.632	800.000	-0.041	-0.141
-428.617	-11.458	0.034	0.023
-427.603	-25.660	-0.131	-0.077
-426.588	-38.560	-0.213	-0.112
-425.573	29.836	0.245	-0.209
-424.559	-200.000	0.028	0.226
-423.544	71.634	-0.023	0.023
-422.530	-200.000	-0.037	0.322
-421.515	-32.042	-0.175	0.097
-420.500	-181.750	0.242	-0.005
-419.486	318.615	-0.213	-0.403
-418.471	-39.208	0.347	-0.182
-417.457	-105.375	0.199	0.045
-416.442	-200.000	0.049	0.264
-415.428	-164.759	-0.062	-0.003
-414.413	18.334	0.087	-0.069
-413.398	57.625	0.128	0.125
-412.384	103.912	0.168	0.197
-411.369	-52.578	-0.221	-0.102
-410.355	-60.904	0.197	0.083
-409.340	-122.104	-0.320	0.052
-408.325	78.808	-0.221	0.236
-407.311	14.061	0.109	0.084
-406.296	101.954	0.173	-0.201
-405.282	340.846	-0.112	0.217
-404.267	40.209	-0.061	0.055
-403.252	-200.000	-0.078	0.442
-402.238	800.000	-0.069	-0.203
-401.223	186.833	-0.086	0.128
-400.209	-124.512	-0.439	0.068
-399.194	191.233	0.181	0.271
-398.179	139.005	0.191	0.251
-397.165	627.528	-0.037	-0.094
-396.150	128.768	0.112	0.143
-395.136	-37.526	0.385	0.205
-394.121	800.000	-0.064	-0.257
-393.106	16.587	-0.001	0.001
-392.092	-46.212	-0.167	0.082
-391.077	496.643	-0.104	0.238
-390.063	74.035	0.110	-0.115
-389.048	9.633	-0.176	-0.133
-388.033	-188.410	0.257	0.003
-387.019	-200.000	0.005	-0.070
-386.004	-34.897	-0.390	0.212
-384.990	62.227	-0.124	-0.123
-383.975	168.746	-0.208	-0.296
-382.960	800.000	0.016	-0.049
-381.946	-200.000	-0.008	-0.208
-380.931	47.353	-0.173	-0.160
-379.917	-140.708	-0.057	0.006
-378.902	70.020	-0.064	-0.066
-377.888	-1.644	-0.312	-0.219
-376.873	-71.068	0.127	0.048
-375.858	-132.043	0.093	-0.012
-374.844	188.980	0.083	-0.124
-373.829	-29.654	-0.055	0.031
-372.815	-129.530	0.190	-0.026
-371.800	328.611	0.032	-0.061
-370.785	800.000	-0.023	-0.085
-369.771	-63.036	-0.385	0.158
-368.756	-138.864	0.264	-0.029
-367.742	-138.962	0.094	0.010
-366.727	313.575	-0.129	0.241
-365.712	-200.000	0.002	-0.178
-364.698	587.580	-0.124	0.303
-363.683	-133.202	-0.702	0.088
-362.669	-66.949	0.356	0.140
-361.654	-200.000	-0.031	0.473
-360.639	127.266	-0.054	0.068
-359.625	-24.979	0.034	-0.020
-358.610	800.000	0.065	-0.184
-357.596	-200.000	0.036	-0.281
-356.581	-200.000	-0.037	0.213
-355.566	800.000	0.004	0.013
-354.552	-137.687	-0.214	-0.024
-353.537	525.116	-0.098	0.229
-352.523	3.675	0.083	-0.060
-351.508	-200.000	0.044	-0.214
-350.493	-181.668	0.098	-0.002
-349.479	-45.168	0.082	0.041
-348.464	-142.499	0.189	-0.018
-347.450	360.569	0.016	-0.032
-346.435	251.107	-0.085	-0.144
-345.420	-65.633	-0.250	-0.100
-344.406	-65.183	0.241	-0.097
-343.391	-140.428	0.158	-0.016
-342.377	161.481	-0.133	-0.186
-341.362	-200.000	0.002	-0.017
-340.348	55.260	-0.143	-0.137
-339.333	-118.535	0.148	0.026
-338.318	-35.079	-0.140	0.076
-337.304	116.939	0.139	-0.170
-336.289	-156.714	0.277	-0.017
-335.275	-26.640	0.244	-0.142
-334.260	800.000	0.146	-0.476
-333.245	-60.836	0.334	-0.140
-332.231	-92.478	-0.194	-0.054
-331.216	-148.140	-0.320	0.026
-330.202	393.935	-0.057	0.118
-329.187	-200.000	-0.008	-0.262
-328.172	139.660	0.093	-0.122
-327.158	-162.685	0.221	0.011
-326.143	-200.000	-0.029	-0.316
-325.129	800.000	-0.009	0.027
-324.114	-78.787	0.219	0.074
-323.099	102.345	0.038	-0.045
-322.085	-200.000	0.021	0.123
-321.070	0.729	-0.076	0.054
-320.056	-182.973	-0.095	0.002
-319.041	9.452	-0.224	-0.169
-318.026	-200.000	0.005	0.271
-317.012	795.064	-0.098	0.267
-315.997	-113.196	-0.313	0.061
-314.983	-200.000	-0.009	0.116
-313.968	-26.213	-0.191	0.111
-312.953	-200.000	0.018	-0.092
-311.939	75.348	0.100	0.104
-310.924	800.000	-0.130	0.436
-309.910	800.000	-0.097	0.295
-308.895	144.668	0.157	0.208
-307.880	-103.934	0.030	0.007
-306.866	104.541	0.197	-0.231
-305.851	305.434	0.179	0.330
-304.837	-0.626	-0.147	0.104
-303.822	188.172	-0.040	0.059
-302.807	-200.000	0.003	-0.184
-301.793	162.240	0.186	-0.258
-300.778	340.227	-0.130	0.251
-299.764	-69.992	-0.351	-0.133
-298.749	211.416	0.144	-0.225
-297.735	-140.727	0.037	-0.004
-296.720	17.629	0.164	-0.130
-295.705	120.743	0.273	-0.337
-294.691	263.125	0.049	0.085
-293.676	753.878	0.057	-0.153
-292.662	-28.090	0.132	0.076
-291.647	-66.183	-0.168	0.066
-290.632	-124.005	0.280	-0.044
-289.618	-80.033	-0.096	0.032
-288.603	178.203	0.036	0.053
-287.589	-106.366	-0.274	-0.061
-286.574	110.919	0.169	0.202
-285.559	-36.168	0.109	0.058
-284.545	566.770	0.046	0.110
-283.530	21.533	0.210	0.170
-282.516	-200.000	-0.035	-0.212
-281.501	-82.950	-0.106	-0.034
-280.486	800.000	-0.126	0.359
-279.472	-200.000	-0.041	0.187
-278.457	-122.152	0.421	-0.068
-277.443	552.630	0.154	-0.367
-276.428	25.009	0.290	0.239
-275.413	192.058	-0.212	0.317
-274.399	-200.000	-0.021	0.129
-273.384	-144.957	0.593	0.054
-272.370	800.000	-0.033	0.109
-271.355	-93.316	0.223	-0.061
-270.340	-200.000	-0.025	-0.350
-269.326	306.731	0.052	0.096
-268.311	80.728	-0.125	-0.133
-267.297	108.543	0.146	-0.172
-266.282	-200.000	0.015	0.325
-265.267	669.714	0.087	0.222
-264.253	128.482	0.172	0.217
-263.238	-200.000	0.078	0.474
-262.224	130.287	0.299	0.379
-261.209	-200.000	-0.048	-0.316
-260.195	-68.913	-0.182	-0.069
-259.180	3.479	0.080	-0.058
-258.165	800.000	-0.099	-0.278
-257.151	-69.516	-0.131	0.050
-256.136	622.822	-0.062	0.156
-255.122	298.640	0.091	0.165
-254.107	4.572	-0.175	-0.127
-253.092	-59.324	-0.065	-0.028
-252.078	800.000	0.086	0.240
-251.063	274.596	-0.102	0.179
-250.049	-120.479	0.144	0.024
-249.034	-119.991	0.233	0.040
-248.019	-92.958	0.466	-0.129
-247.005	1.400	-0.158	-0.112
-245.990	10.624	0.031	-0.023
-244.976	-200.000	0.003	0.029
-243.961	-93.708	0.387	-0.106
-242.946	-157.798	0.201	-0.012
-241.932	0.050	0.220	0.155
-240.917	800.000	-0.016	-0.069
-239.903	-29.696	0.200	-0.113
-238.888	-200.000	0.009	0.171
-237.873	-51.096	0.125	-0.058
-236.859	-68.119	-0.135	0.052
-235.844	82.852	0.191	-0.206
-234.830	-111.907	-0.145	-0.029
-233.815	-5.134	0.261	0.178
-232.800	43.085	-0.258	0.233
-231.786	-200.000	0.010	-0.046
-230.771	-15.290	0.095	-0.060
-229.757	800.000	-0.043	0.148
-228.742	46.323	0.066	0.061
-227.727	227.185	0.106	-0.171
-226.713	-127.936	0.282	-0.040
-225.698	196.735	0.136	-0.206
-224.684	-200.000	0.052	-0.389
-223.669	-14.232	-0.127	-0.081
-222.655	19.274	-0.019	0.015
-221.640	-33.768	0.333	0.182
-220.625	-109.369	-0.273	0.057
-219.611	34.254	-0.128	-0.110
-218.596	127.553	-0.173	-0.218
-217.582	-200.000	-0.030	0.212
-216.567	24.617	-0.206	-0.169
-215.552	800.000	-0.033	-0.124
-214.538	393.323	-0.220	0.454
-213.523	26.522	0.219	0.181
-212.509	628.841	-0.085	0.212
-211.494	-52.485	-0.211	0.096
-210.479	114.478	-0.042	0.050
-209.465	40.875	-0.039	-0.035
-208.450	91.507	-0.010	0.011
-207.436	392.653	0.064	0.131
-206.421	361.528	0.123	0.245
-205.406	-200.000	0.004	-0.083
-204.392	-108.807	0.345	-0.073
-203.377	-85.513	-0.220	-0.068
-202.363	578.395	0.062	-0.149
-201.348	800.000	-0.073	0.208
-200.333	127.288	-0.064	0.081
-199.319	800.000	0.068	-0.207
-198.304	126.582	-0.178	-0.223
-197.290	-16.112	0.072	-0.045
-196.275	99.324	-0.185	0.211
-195.260	52.623	0.101	0.096
-194.246	35.576	-0.096	-0.083
-193.231	5.532	-0.205	0.150
-192.217	218.163	0.098	0.155
-191.202	115.350	0.140	0.169
-190.187	-116.093	0.046	-0.008
-189.173	-61.185	-0.122	-0.051
-188.158	-200.000	0.000	0.183
-187.144	41.322	-0.179	-0.160
-186.129	-23.565	0.153	0.091
-185.114	-183.439	0.340	-0.006
-184.100	-200.000	-0.008	-0.062
-183.085	-22.592	-0.214	-0.128
-182.071	215.421	0.160	0.251
-181.056	115.669	-0.125	-0.151
-180.042	-78.193	-0.135	-0.046
-179.027	-51.641	0.225	-0.104
-178.012	-40.758	-0.283	0.145
-176.998	773.538	0.084	0.225
-175.983	577.651	-0.109	-0.263
-174.969	476.555	-0.055	-0.123
-173.954	13.417	0.198	-0.151
-172.939	-159.540	-0.398	-0.022
-171.925	237.489	0.173	0.284
-170.910	-58.772	-0.180	0.077
-169.896	800.000	0.092	-0.345
-168.881	150.310	0.192	-0.257
-167.866	-200.000	0.025	-0.196
-166.852	17.426	-0.206	-0.161
-165.837	-17.294	0.168	-0.105
-164.823	-158.080	-0.177	-0.010
-163.808	219.006	0.268	0.423
-162.793	-113.115	-0.261	0.051
-161.779	341.623	0.029	-0.056
-160.764	90.765	0.036	-0.040
-159.750	-37.069	0.238	0.126
-158.735	-137.335	-0.428	0.048
-157.720	-37.060	-0.125	-0.066
-156.706	800.000	0.122	0.511
-155.691	271.701	0.137	-0.239
-154.677	-142.949	0.279	-0.027
-153.662	93.802	0.235	0.263
-152.647	-73.534	-0.158	0.057
-151.633	50.386	-0.173	0.162
-150.618	-111.174	0.550	-0.111
-149.604	24.898	0.224	-0.183
-148.589	800.000	0.080	-0.248
-147.574	115.651	-0.288	0.348
-146.560	421.779	-0.114	0.241
-145.545	-69.675	0.087	0.033
-144.531	37.572	0.113	0.099
-143.516	-137.609	-0.157	-0.017
-142.502	-200.000	0.008	-0.177
-141.487	106.596	0.389	0.456
-140.472	-50.102	-0.308	-0.144
-139.458	132.704	-0.174	-0.221
-138.443	-129.283	0.314	0.043
-137.429	133.951	-0.291	0.372
-136.414	-40.320	-0.137	0.070
-135.399	-200.000	0.095	0.449
-134.385	-96.889	-0.169	0.044
-133.370	-200.000	-0.022	-0.104
-132.356	-200.000	-0.007	-0.356
-131.341	-200.000	0.044	0.274
-130.326	554.621	0.114	0.270
-129.312	434.619	-0.130	0.279
-128.297	361.794	-0.136	-0.268
-127.283	174.031	-0.162	0.231
-126.268	244.733	-0.115	0.191
-125.253	-200.000	-0.030	0.325
-124.239	-200.000	0.079	-0.673
-123.224	67.082	0.232	-0.233
-122.210	-200.000	0.009	0.084
-121.195	800.000	-0.078	0.270
-120.180	-200.000	-0.097	0.459
-119.166	83.195	-0.168	0.180
-118.151	-200.000	-0.036	-0.433
-117.137	-125.001	0.146	-0.022
-116.122	2.172	-0.129	-0.092
-115.107	-3.747	0.115	-0.079
-114.093	800.000	-0.119	0.329
-113.078	-143.963	0.278	-0.026
-112.064	-184.752	0.125	-0.002
-111.049	286.023	0.138	-0.245
-110.034	185.789	0.109	-0.159
-109.020	571.821	0.068	-0.163
-108.005	-57.626	0.173	-0.075
-106.991	-168.153	-0.096	-0.004
-105.976	213.244	0.138	0.214
-104.962	23.217	-0.298	-0.241
-103.947	289.953	0.126	0.226
-102.932	21.129	-0.137	0.110
-101.918	-200.000	0.057	0.391
-100.903	117.756	-0.027	-0.033
-99.889	800.000	-0.082	0.343
-98.874	-190.118	0.171	-0.002
-97.859	-47.201	-0.118	-0.057
-96.845	-14.458	-0.199	0.126
-95.830	-64.230	0.054	-0.022
-94.816	6.784	0.236	-0.173
-93.801	-81.880	-0.204	-0.066
-92.786	-200.000	-0.075	-0.341
-91.772	-19.430	0.359	-0.219
-90.757	-200.000	-0.042	-0.198
-89.743	44.426	0.335	-0.303
-88.728	23.373	-0.065	-0.052
-87.713	322.588	-0.064	-0.119
-86.699	-47.588	-0.071	0.034
-85.684	-200.000	0.004	-0.217
-84.670	-22.830	0.012	-0.007
-83.655	391.717	-0.162	0.331
-82.640	-161.028	0.088	-0.005
-81.626	95.965	-0.517	0.581
-80.611	4.324	0.215	-0.155
-79.597	24.405	-0.121	0.098
-78.582	-49.383	-0.317	-0.149
-77.567	-200.000	-0.026	-0.126
-76.553	17.536	-0.227	0.178
-75.538	-101.096	0.279	-0.067
-74.524	59.751	-0.275	0.267
-73.509	168.525	0.083	0.117
-72.494	263.128	-0.012	0.020
-71.480	-143.632	-0.074	0.007
-70.465	-200.000	0.024	0.181
-69.451	-169.312	0.146	0.005
-68.436	204.642	0.100	-0.152
-67.422	75.304	0.172	-0.179
-66.407	-8.477	0.084	0.056
-65.392	-171.442	-0.087	-0.003
-64.378	-110.075	0.226	0.046
-63.363	-84.305	0.321	0.100
-62.349	12.766	0.019	-0.014
-61.334	64.095	-1.028	-1.017
-60.319	153.391	0.285	0.384
-59.305	800.000	-0.333	-0.918
-58.290	392.662	0.481	0.984
-57.276	759.457	0.667	1.777
-56.261	-200.000	94.197	558.906
-55.246	551.485	1372.681	3240.005
-54.232	156.995	2570.152	3493.381
-53.217	107.272	2286.521	2672.764
-52.203	43.826	1908.252	1717.970
-51.188	37.862	1698.411	1483.776
-50.173	35.124	1654.566	1425.074
-49.159	51.863	1700.197	1590.890
-48.144	54.997	1717.099	1630.234
-47.130	37.512	1676.315	1461.605
-46.115	34.750	1661.758	1428.246
-45.100	34.521	1657.035	1422.427
-44.086	34.510	1654.386	1420.013
-43.071	34.441	1651.948	1417.349
-42.057	34.500	1649.496	1415.628
-41.042	34.447	1647.600	1413.550
-40.027	34.461	1645.681	1411.952
-39.013	34.412	1643.862	1409.972
-37.998	34.414	1642.081	1408.407
-36.984	34.408	1641.033	1407.404
-35.969	34.670	1638.765	1407.332
-34.954	34.531	1637.704	1405.342
-33.940	34.543	1635.618	1403.587
-32.925	34.583	1633.902	1402.354
-31.911	34.589	1632.321	1400.982
-30.896	34.535	1630.610	1399.062
-29.881	34.496	1629.242	1397.547
-28.867	34.549	1627.255	1396.180
-27.852	34.637	1625.398	1395.168
-26.838	34.556	1624.298	1393.581
-25.823	34.621	1622.996	1392.881
-24.809	34.599	1621.787	1391.626
-23.794	34.687	1619.926	1390.622
-22.779	34.701	1618.160	1389.146
-21.765	34.694	1616.954	1388.008
-20.750	34.632	1615.262	1386.051
-19.736	34.584	1614.102	1384.653
-18.721	34.722	1612.346	1384.092
-17.706	34.660	1611.013	1382.443
-16.692	34.585	1609.653	1380.675
-15.677	34.535	1608.291	1379.091
-14.663	34.557	1606.892	1377.998
-13.648	34.665	1605.255	1377.319
-12.633	34.691	1603.654	1376.078
-11.619	34.638	1601.941	1374.171
-10.604	34.742	1600.657	1373.765
-9.590	34.627	1599.747	1372.097
-8.575	34.690	1598.302	1371.260
-7.560	34.668	1597.107	1370.019
-6.546	34.609	1596.398	1368.934
-5.531	34.612	1595.454	1368.094
-4.517	34.616	1594.048	1366.859
-3.502	34.586	1592.999	1365.692
-2.487	34.649	1591.232	1364.576
-1.473	34.278	1579.031	1351.424
-0.458	30.945	1558.424	1310.346
0.556	24.697	1557.159	1271.749
1.571	21.915	1579.812	1270.030
2.586	21.206	1592.713	1275.111
3.600	19.206	1540.753	1219.264
4.615	10.762	1430.369	1076.096
5.629	2.097	1362.111	969.794
6.644	0.199	1353.104	951.316
7.659	0.081	1351.337	949.246
8.673	-0.003	1350.441	947.997
9.688	-0.077	1348.859	946.341
10.702	-0.172	1345.639	943.400
11.717	3.835	1352.434	973.341
12.731	12.816	1366.829	1040.545
13.746	17.862	1372.936	1077.026
14.761	17.339	1370.560	1071.768
15.775	16.108	1368.265	1062.131
16.790	15.120	1365.098	1053.368
17.804	14.380	1362.731	1046.799
18.819	14.040	1361.448	1043.586
19.834	13.641	1360.234	1040.063
20.848	13.490	1358.818	1037.937
21.863	13.154	1357.979	1035.104
22.877	13.012	1356.626	1033.090
23.892	13.053	1355.674	1032.530
24.907	13.013	1354.881	1031.581
25.921	13.064	1353.966	1031.115
26.936	13.046	1353.369	1030.458
27.950	13.079	1352.291	1029.748
28.965	13.155	1351.220	1029.321
29.980	13.297	1349.712	1028.962
30.994	13.275	1349.489	1028.562
32.009	13.345	1348.425	1028.096
33.023	13.290	1347.434	1026.909
34.038	13.157	1346.673	1025.412
35.053	13.302	1345.430	1025.277
36.067	13.245	1344.172	1023.874
37.082	13.191	1343.086	1022.619
38.096	13.263	1342.079	1022.206
39.111	13.273	1341.514	1021.750
40.126	13.215	1340.532	1020.553
41.140	13.077	1339.598	1018.902
42.155	13.010	1339.180	1018.077
43.169	12.996	1339.312	1018.002
44.184	13.078	1338.962	1018.151
45.199	13.062	1338.559	1017.655
46.213	13.126	1337.772	1017.359
47.228	13.179	1336.925	1016.953
48.242	13.175	1335.690	1015.897
49.257	13.129	1334.509	1014.629
50.271	13.136	1333.125	1013.531
51.286	13.264	1331.381	1012.900
52.301	13.162	1330.143	1011.246
53.315	13.144	1328.995	1010.170
54.330	13.056	1328.196	1008.939
55.344	13.001	1327.190	1007.746
56.359	13.142	1325.556	1007.280
57.374	13.019	1325.546	1006.429
58.388	12.942	1324.689	1005.222
59.403	12.932	1324.176	1004.679
60.417	12.996	1323.465	1004.443
61.432	12.922	1322.461	1003.142
62.447	13.079	1320.929	1002.845
63.461	12.967	1319.563	1001.042
64.476	13.005	1318.690	1000.520
65.490	12.893	1317.714	999.011
66.505	12.974	1316.217	998.278
67.520	12.862	1315.304	996.820
68.534	13.034	1314.184	996.925
69.549	13.068	1313.015	996.154
70.563	12.995	1311.901	994.781
71.578	13.030	1310.269	993.667
72.593	12.843	1309.951	992.210
73.607	12.819	1309.208	991.418
74.622	12.828	1308.341	990.728
75.636	12.780	1307.651	989.828
76.651	12.851	1306.676	989.425
77.666	12.843	1306.441	989.111
78.680	12.951	1305.648	989.073
79.695	12.991	1304.217	988.144
80.709	12.973	1303.717	987.570
81.724	13.026	1302.701	987.028
82.739	13.056	1301.903	986.513
83.753	13.122	1301.115	986.224
84.768	13.166	1300.207	985.712
85.782	13.210	1298.770	984.794
86.797	13.236	1297.425	983.847
87.812	13.073	1296.585	982.151
88.826	13.014	1295.652	981.008
89.841	13.162	1294.460	980.898
90.855	13.237	1293.174	980.283
91.870	13.216	1292.374	979.462
92.884	13.266	1291.314	978.869
93.899	13.165	1290.878	977.855
94.914	13.317	1289.897	977.923
95.928	13.272	1288.763	976.708
96.943	13.221	1288.292	975.966
97.957	13.234	1287.108	975.058
98.972	13.332	1286.190	974.854
99.987	13.236	1284.849	973.186
101.001	13.207	1284.093	972.361
102.016	13.194	1283.295	971.593
103.030	13.257	1282.517	971.287
104.045	13.273	1281.504	970.529
105.060	13.202	1280.345	969.149
106.074	13.135	1279.020	967.665
107.089	13.030	1277.940	966.149
108.103	13.025	1276.774	965.152
109.118	13.043	1275.812	964.448
110.133	13.049	1274.400	963.328
111.147	13.012	1272.812	961.824
112.162	13.038	1271.816	961.140
113.176	12.972	1270.983	960.039
114.191	13.038	1270.142	959.704
115.206	13.077	1268.746	958.790
116.220	13.075	1267.753	957.946
117.235	13.070	1266.215	956.668
118.249	13.064	1265.567	956.061
119.264	12.992	1264.606	954.833
120.279	13.006	1263.408	953.927
121.293	13.062	1262.260	953.298
122.308	13.077	1261.256	952.542
123.322	12.958	1260.337	951.075
124.337	12.975	1259.154	950.199
125.352	13.112	1257.990	950.024
126.366	13.035	1257.144	948.859
127.381	13.069	1256.181	948.240
128.395	13.153	1255.005	947.751
129.410	13.081	1253.855	946.387
130.424	13.086	1253.495	946.060
131.439	13.067	1252.413	945.052
132.454	13.079	1251.413	944.284
133.468	13.165	1250.443	943.957
134.483	13.214	1249.631	943.540
135.497	13.228	1248.535	942.709
136.512	13.192	1247.269	941.468
137.527	13.100	1246.597	940.350
138.541	13.208	1244.878	939.584
139.556	13.098	1243.688	937.981
140.570	13.216	1242.475	937.651
141.585	13.252	1241.501	937.035
142.600	13.180	1240.006	935.421
143.614	13.326	1239.453	935.746
144.629	13.319	1238.229	934.701
145.643	13.344	1236.780	933.663
146.658	13.289	1235.644	932.412
147.673	13.259	1234.508	931.302
148.687	13.192	1233.474	930.067
149.702	13.106	1232.060	928.430
150.716	13.141	1230.988	927.741
151.731	13.211	1229.315	926.788
152.746	13.198	1228.352	925.910
153.760	13.228	1227.070	925.030
154.775	13.318	1225.984	924.628
155.789	13.266	1225.165	923.641
156.804	13.355	1223.991	923.174
157.819	13.282	1222.977	921.915
158.833	13.408	1222.138	921.908
159.848	13.359	1221.289	920.912
160.862	13.585	1220.012	921.123
161.877	13.272	1219.056	918.579
162.892	13.291	1217.605	917.510
163.906	13.309	1216.977	917.054
164.921	13.394	1215.843	916.594
165.935	13.255	1215.546	915.516
166.950	13.367	1214.928	915.589
167.964	13.352	1214.105	914.805
168.979	13.387	1213.142	914.194
169.994	13.333	1213.049	913.743
171.008	13.413	1211.480	912.924
172.023	13.538	1210.747	912.980
173.037	13.567	1209.394	912.039
174.052	13.572	1208.564	911.360
175.067	13.381	1207.984	909.790
176.081	13.334	1206.973	908.689
177.096	13.324	1206.149	907.933
178.110	13.544	1204.444	907.775
179.125	13.426	1203.720	906.505
180.140	13.406	1202.617	905.484
181.154	13.541	1201.295	905.144
182.169	13.483	1200.344	904.033
183.183	13.567	1199.271	903.603
184.198	13.567	1198.097	902.637
185.213	13.652	1196.815	902.056
186.227	13.618	1195.889	901.093
187.242	13.694	1194.493	900.373
188.256	13.721	1193.719	899.856
189.271	13.705	1192.778	898.981
190.286	13.469	1192.151	897.148
191.300	13.466	1191.202	896.341
192.315	13.482	1190.502	895.822
193.329	13.432	1189.998	895.093
194.344	13.493	1189.129	894.687
195.359	13.571	1188.445	894.516
196.373	13.580	1187.914	894.085
197.388	13.606	1187.702	893.990
198.402	13.737	1187.460	894.432
199.417	13.895	1186.065	894.152
200.432	13.944	1185.486	893.903
201.446	13.883	1184.237	892.551
202.461	13.841	1183.915	892.008
203.475	13.884	1182.769	891.294
204.490	13.934	1181.443	890.486
205.504	13.810	1180.504	889.031
206.519	13.949	1179.073	888.622
207.534	13.858	1177.775	887.076
208.548	13.807	1177.373	886.424
209.563	13.852	1176.452	885.892
210.577	13.921	1175.411	885.397
211.592	13.887	1175.096	884.900
212.607	13.956	1174.207	884.522
213.621	14.018	1173.170	883.991
214.636	14.005	1172.371	883.242
215.650	13.993	1171.301	882.295
216.665	14.117	1169.899	881.816
217.680	14.160	1169.041	881.322
218.694	14.163	1168.693	880.996
219.709	14.147	1168.056	880.351
220.723	14.123	1167.448	879.691
221.738	14.089	1166.584	878.781
222.753	14.144	1165.920	878.493
223.767	14.120	1165.109	877.678
224.782	14.088	1164.764	877.171
225.796	14.281	1163.860	877.428
226.811	14.266	1163.024	876.643
227.826	14.160	1162.765	875.815
228.840	14.194	1162.255	875.533
229.855	14.204	1161.476	874.920
230.869	14.289	1160.263	874.374
231.884	14.262	1159.230	873.376
232.899	14.264	1158.554	872.801
233.913	14.304	1157.763	872.338
234.928	14.168	1157.240	871.156
235.942	14.216	1156.745	870.954
236.957	14.225	1155.901	870.287
237.972	14.143	1155.298	869.330
238.986	14.114	1154.731	868.673
240.001	14.232	1153.240	868.095
241.015	14.266	1152.658	867.752
242.030	14.231	1152.141	867.106
243.045	14.270	1151.234	866.549
244.059	14.364	1150.780	866.622
245.074	14.318	1150.028	865.739
246.088	14.419	1148.381	864.948
247.103	14.460	1147.856	864.686
248.117	14.380	1147.374	863.831
249.132	14.445	1146.761	863.632
250.147	14.491	1146.626	863.691
251.161	14.633	1145.629	863.598
252.176	14.632	1144.868	862.944
253.190	14.618	1144.283	862.355
254.205	14.646	1143.503	861.837
255.220	14.698	1143.197	861.796
256.234	14.758	1142.402	861.432
257.249	14.786	1141.514	860.829
258.263	14.694	1141.139	859.998
259.278	14.813	1139.965	859.648
260.293	14.817	1139.432	859.189
261.307	14.872	1138.836	858.946
262.322	14.910	1138.414	858.747
263.336	14.809	1137.824	857.706
264.351	14.968	1137.036	857.852
265.366	14.997	1136.043	857.176
266.380	14.942	1135.677	856.542
267.395	14.917	1134.399	855.376
268.409	14.789	1134.269	854.548
269.424	14.792	1133.916	854.221
270.439	14.941	1133.028	854.236
271.453	14.909	1132.131	853.324
272.468	14.942	1130.827	852.432
273.482	14.909	1130.654	852.060
274.497	14.974	1129.988	851.814
275.512	14.816	1129.741	850.745
276.526	14.967	1128.762	850.700
277.541	14.960	1128.005	850.018
278.555	14.917	1127.275	849.176
279.570	15.111	1126.323	849.367
280.585	15.060	1125.845	848.673
281.599	15.067	1124.984	847.987
282.614	15.106	1123.738	847.169
283.628	15.094	1122.856	846.368
284.643	15.030	1121.809	845.183
285.657	15.053	1120.899	844.535
286.672	15.039	1120.615	844.178
287.687	15.076	1119.469	843.427
288.701	15.129	1118.733	843.064
289.716	15.195	1117.780	842.604
290.730	15.189	1117.028	841.933
291.745	15.235	1116.799	841.915
292.760	15.139	1116.186	840.896
293.774	15.192	1115.442	840.528
294.789	15.192	1115.111	840.201
295.803	15.400	1113.986	840.323
296.818	15.267	1113.399	839.138
297.833	15.119	1112.836	837.901
298.847	15.263	1111.765	837.738
299.862	15.320	1111.189	837.515
300.876	15.343	1110.660	837.161
301.891	15.339	1110.018	836.580
302.906	15.387	1109.178	836.112
303.920	15.382	1108.403	835.428
304.935	15.463	1107.898	835.376
305.949	15.414	1107.488	834.751
306.964	15.462	1106.672	834.303
307.979	15.530	1105.978	834.040
308.993	15.414	1105.303	832.886
310.008	15.498	1104.451	832.585
311.022	15.623	1103.528	832.434
312.037	15.535	1102.595	831.223
313.052	15.487	1101.791	830.304
314.066	15.434	1101.110	829.456
315.081	15.330	1100.375	828.314
316.095	15.528	1099.573	828.614
317.110	15.542	1098.463	827.776
318.125	15.429	1098.382	827.083
319.139	15.365	1097.489	826.023
320.154	15.560	1096.943	826.498
321.168	15.437	1096.413	825.420
322.183	15.466	1096.056	825.221
323.197	15.489	1095.358	824.735
324.212	15.586	1094.195	824.265
325.227	15.626	1093.749	824.048
326.241	15.565	1093.236	823.294
327.256	15.596	1092.342	822.697
328.270	15.534	1091.669	821.813
329.285	15.545	1090.953	821.257
330.300	15.644	1089.751	820.764
331.314	15.705	1088.673	820.175
332.329	15.593	1088.016	819.061
333.343	15.647	1087.319	818.726
334.358	15.809	1086.115	818.538
335.373	15.791	1085.573	817.970
336.387	15.808	1085.127	817.643
337.402	15.789	1084.137	816.734
338.416	15.763	1083.231	815.851
339.431	15.931	1082.370	815.946
340.446	15.945	1081.922	815.602
341.460	16.051	1081.153	815.463
342.475	15.968	1080.364	814.395
343.489	15.898	1080.000	813.711
344.504	16.055	1078.887	813.557
345.519	15.993	1078.105	812.597
346.533	15.999	1077.110	811.805
347.548	16.079	1076.327	811.526
348.562	15.991	1076.000	810.786
349.577	15.977	1075.153	810.006
350.592	15.975	1074.409	809.366
351.606	15.970	1073.625	808.682
352.621	15.931	1072.652	807.689
353.635	15.923	1071.873	806.991
354.650	16.057	1071.346	807.167
355.665	16.087	1070.507	806.607
356.679	16.047	1070.104	806.042
357.694	16.078	1069.908	805.970
358.708	16.149	1069.115	805.639
359.723	16.092	1068.563	804.882
360.738	16.086	1067.921	804.295
361.752	16.248	1066.966	804.276
362.767	16.108	1066.563	803.236
363.781	16.132	1065.934	802.806
364.796	16.228	1065.382	802.774
365.810	16.240	1064.905	802.404
366.825	16.269	1064.555	802.207
367.840	16.400	1063.875	802.245
368.854	16.317	1063.446	801.455
369.869	16.423	1062.478	801.158
370.883	16.358	1061.538	800.072
371.898	16.413	1060.821	799.721
372.913	16.358	1060.511	799.153
373.927	16.456	1060.002	799.162
374.942	16.525	1059.168	798.788
375.956	16.545	1058.518	798.321
376.971	16.466	1058.078	797.547
377.986	16.509	1057.573	797.300
379.000	16.598	1056.872	797.118
380.015	16.503	1056.432	796.269
381.029	16.605	1055.974	796.337
382.044	16.568	1055.379	795.642
383.059	16.720	1054.407	795.552
384.073	16.774	1053.483	795.040
385.088	16.631	1052.705	793.710
386.102	16.672	1051.952	793.264
387.117	16.620	1050.590	791.924
388.132	16.509	1050.161	791.011
389.146	16.564	1049.785	790.916
390.161	16.633	1048.732	790.375
391.175	16.698	1047.795	789.903
392.190	16.653	1047.254	789.214
393.205	16.719	1046.338	788.759
394.219	16.705	1045.896	788.294
395.234	16.710	1045.023	787.589
396.248	16.732	1044.181	786.986
397.263	16.504	1043.307	785.200
398.278	16.664	1042.544	785.296
399.292	16.589	1041.594	784.166
400.307	16.601	1041.011	783.713
401.321	16.658	1040.582	783.584
402.336	16.627	1040.057	782.976
403.350	16.820	1039.103	783.079
404.365	16.705	1038.229	781.822
405.380	16.708	1037.626	781.313
406.394	16.696	1037.070	780.767
407.409	16.746	1036.262	780.321
408.423	16.832	1035.681	780.212
409.438	16.877	1034.979	779.820
410.453	17.050	1034.123	779.904
411.467	17.054	1033.189	779.148
412.482	17.000	1032.902	778.616
413.496	17.132	1032.022	778.488
414.511	17.127	1031.474	777.983
415.526	17.026	1031.357	777.363
416.540	17.118	1030.562	777.116
417.555	17.154	1030.129	776.883
418.569	17.287	1029.387	776.865
419.584	17.178	1029.265	776.204
420.599	17.169	1028.582	775.578
421.613	99.429	1314.428	1445.358
422.628	90.962	1356.039	1445.515
