DTS Sentinel unit serial number:	SN413079Multiplexer serial number:	ORYXHardware model number:	OX4-SRSoftware version number:	ORYX F/W v4.00 Oryx Data Collector v3.7.2.0data status	okinstallation	princeton_trtdifferential loss correction	single-endedforward channel	channel 2reverse channel	N/Adate	2019/09/12time	12:33:11forward acquisition time	60.00reverse acquisition time	0.00gamma	496.2192k internal	0.2299k external	0.2299temperature offset calibration	1.0078default loss term (dB/km)	0.3790temperature slope calibration	1.0000multiplexer offset coefficient	1.0000multiplexer slope coefficient	1.0000fibre end	0.00T internal ref (°C)	40.50T ext. ref 1 (°C)	2.03T ext. ref 2 (°C)	35.60length (m)	temperature (°C)	Stokes	anti-Stokes-747.200	-200.000	0.029	0.142
-746.185	134.928	0.176	0.233
-745.171	36.214	-0.326	0.293
-744.156	-168.693	0.154	0.006
-743.142	277.405	0.145	-0.263
-742.127	1.137	-0.258	0.189
-741.112	-134.056	-0.395	0.050
-740.098	43.609	-0.196	0.183
-739.083	-147.083	0.147	0.013
-738.069	9.913	0.209	-0.162
-737.054	-15.566	0.298	-0.194
-736.039	164.180	-0.035	-0.051
-735.025	800.000	-0.030	-0.126
-734.010	-126.657	-0.062	-0.009
-732.996	174.551	-0.041	-0.060
-731.981	246.369	0.112	0.193
-730.966	-118.943	-0.224	0.040
-729.952	44.114	-0.044	-0.041
-728.937	-176.860	-0.151	-0.004
-727.923	-10.870	-0.295	-0.199
-726.908	126.610	0.015	-0.019
-725.894	-108.217	-0.258	0.057
-724.879	39.786	0.170	-0.156
-723.864	222.993	-0.130	-0.214
-722.850	601.015	-0.015	0.039
-721.835	10.460	-0.159	-0.123
-720.821	177.715	-0.104	-0.155
-719.806	-7.649	-0.244	0.168
-718.791	37.882	-0.037	0.034
-717.777	-42.180	-0.362	0.189
-716.762	-93.045	-0.137	0.039
-715.748	-80.545	-0.267	0.091
-714.733	88.965	-0.086	-0.097
-713.718	-111.531	-0.210	0.044
-712.704	800.000	0.115	-0.481
-711.689	-122.765	-0.291	0.048
-710.675	-52.906	0.070	0.033
-709.660	35.606	0.155	0.139
-708.645	-97.916	0.328	-0.086
-707.631	-200.000	-0.008	-0.096
-706.616	-200.000	-0.089	0.467
-705.602	-200.000	-0.035	0.156
-704.587	-90.581	0.190	-0.056
-703.572	42.904	0.096	-0.089
-702.558	521.401	0.048	0.115
-701.543	-51.476	-0.094	-0.045
-700.529	30.747	-0.249	-0.217
-699.514	113.416	-0.103	-0.127
-698.499	-28.029	-0.174	-0.103
-697.485	-25.344	0.292	0.176
-696.470	23.167	-0.436	-0.364
-695.456	27.720	-0.303	-0.260
-694.441	-200.000	-0.020	0.150
-693.426	223.456	-0.161	-0.264
-692.412	307.934	-0.045	-0.085
-691.397	746.406	-0.189	0.517
-690.383	101.145	0.043	-0.051
-689.368	-23.805	-0.171	-0.104
-688.354	-200.000	-0.007	0.211
-687.339	-200.000	-0.060	0.322
-686.324	-200.000	0.041	0.265
-685.310	114.806	0.073	0.090
-684.295	120.341	-0.194	-0.246
-683.281	39.333	-0.264	-0.240
-682.266	164.027	0.194	-0.278
-681.251	-73.872	0.165	0.061
-680.237	147.030	0.078	0.107
-679.222	-81.692	0.042	0.014
-678.208	-18.811	-0.143	-0.091
-677.193	-200.000	0.019	-0.466
-676.178	-200.000	-0.028	-0.591
-675.164	45.074	-0.179	0.167
-674.149	800.000	-0.030	0.115
-673.135	-30.834	-0.371	-0.213
-672.120	65.227	-0.192	0.198
-671.105	800.000	-0.082	-0.353
-670.091	-200.000	0.016	-0.191
-669.076	362.086	-0.063	-0.128
-668.062	79.306	-0.140	-0.153
-667.047	800.000	0.041	-0.139
-666.032	-127.102	0.181	0.027
-665.018	258.525	0.047	0.083
-664.003	-103.077	-0.285	0.069
-662.989	29.359	0.255	-0.220
-661.974	482.403	0.064	-0.148
-660.959	142.912	0.197	-0.266
-659.945	129.500	-0.220	-0.286
-658.930	800.000	0.040	-0.152
-657.916	347.947	-0.119	-0.239
-656.901	405.023	0.015	-0.031
-655.886	623.149	-0.131	0.336
-654.872	800.000	0.123	0.354
-653.857	201.068	-0.108	0.169
-652.843	188.174	-0.114	-0.173
-651.828	-80.210	0.166	0.056
-650.814	84.848	0.068	0.076
-649.799	-147.490	-0.370	-0.032
-648.784	196.169	-0.018	-0.027
-647.770	800.000	0.059	-0.198
-646.755	351.576	0.040	0.080
-645.741	-0.656	0.120	-0.086
-644.726	-200.000	-0.201	0.000
-643.711	-200.000	0.021	0.184
-642.697	241.551	-0.054	-0.092
-641.682	95.488	-0.347	0.402
-640.668	-54.697	-0.108	0.049
-639.653	-182.120	0.359	-0.007
-638.638	94.924	0.180	0.209
-637.624	15.269	-0.088	-0.070
-636.609	-200.000	-0.046	0.230
-635.595	-92.290	-0.210	-0.060
-634.580	32.654	0.165	0.145
-633.565	-17.880	-0.198	0.126
-632.551	-55.352	-0.177	0.081
-631.536	-109.142	-0.150	-0.032
-630.522	19.768	-0.118	-0.096
-629.507	-200.000	0.048	0.262
-628.492	-123.801	-0.331	0.053
-627.478	-200.000	0.035	-0.265
-626.463	14.799	-0.118	-0.094
-625.449	-200.000	-0.003	-0.088
-624.434	-138.145	0.110	-0.012
-623.419	61.617	-0.123	-0.125
-622.405	-72.490	-0.326	-0.122
-621.390	80.798	0.041	-0.045
-620.376	800.000	-0.040	0.139
-619.361	-49.417	0.232	0.112
-618.346	-147.619	-0.215	-0.018
-617.332	-124.941	-0.197	-0.031
-616.317	-161.253	0.096	0.005
-615.303	502.733	-0.105	0.246
-614.288	-10.701	-0.111	0.075
-613.273	-149.610	-0.246	0.020
-612.259	240.153	-0.074	0.125
-611.244	1.941	-0.144	-0.105
-610.230	-26.480	0.113	-0.067
-609.215	-125.642	-0.257	0.040
-608.201	191.834	-0.097	-0.149
-607.186	1.939	0.023	0.017
-606.171	-20.002	0.097	0.061
-605.157	-166.717	-0.147	0.006
-604.142	800.000	-0.052	-0.183
-603.128	-200.000	-0.005	0.055
-602.113	-200.000	0.010	0.066
-601.098	-126.502	0.131	-0.020
-600.084	39.577	-0.045	-0.041
-599.069	370.615	-0.159	0.327
-598.055	-134.617	-0.272	-0.034
-597.040	-80.173	0.369	-0.126
-596.025	-15.376	0.041	-0.027
-595.011	-112.969	-0.305	-0.061
-593.996	1.697	0.145	0.106
-592.982	73.467	0.147	-0.156
-591.967	-45.915	0.372	-0.186
-590.952	-67.550	-0.014	0.006
-589.938	134.017	0.108	-0.142
-588.923	199.942	-0.090	0.141
-587.909	-67.807	-0.264	0.105
-586.894	800.000	0.086	-0.320
-585.879	-37.472	-0.030	-0.016
-584.865	392.498	0.140	0.295
-583.850	-200.000	-0.069	0.506
-582.836	195.619	0.172	0.265
-581.821	17.828	-0.069	0.055
-580.806	-103.955	-0.277	-0.065
-579.792	-200.000	0.005	0.181
-578.777	-75.801	-0.181	0.065
-577.763	800.000	-0.028	-0.091
-576.748	-12.014	0.235	-0.156
-575.733	800.000	-0.045	-0.168
-574.719	305.486	-0.089	-0.167
-573.704	61.702	0.151	0.152
-572.690	-144.335	-0.416	-0.039
-571.675	383.697	0.081	0.170
-570.661	124.256	-0.146	0.186
-569.646	-200.000	0.021	0.108
-568.631	103.722	-0.156	0.186
-567.617	81.643	0.152	-0.167
-566.602	800.000	-0.067	0.259
-565.588	22.093	-0.043	0.035
-564.573	-200.000	-0.045	-0.341
-563.558	202.802	0.034	-0.054
-562.544	45.417	0.271	-0.253
-561.529	-200.000	0.009	-0.393
-560.515	-200.000	-0.045	-0.288
-559.500	-169.750	0.227	-0.008
-558.485	-25.536	-0.170	0.102
-557.471	159.586	0.111	0.156
-556.456	-93.977	-0.435	-0.121
-555.442	218.643	0.192	0.311
-554.427	-90.909	0.331	0.096
-553.412	800.000	-0.122	0.382
-552.398	-62.829	0.197	-0.082
-551.383	199.607	-0.190	-0.295
-550.369	-61.849	-0.050	0.021
-549.354	-15.532	0.254	0.164
-548.339	-5.722	0.226	-0.157
-547.325	-200.000	-0.023	0.105
-546.310	24.739	0.166	-0.139
-545.296	-9.190	0.113	0.076
-544.281	-12.482	0.136	0.090
-543.266	67.211	0.069	-0.071
-542.252	108.415	0.206	-0.249
-541.237	116.974	-0.186	-0.231
-540.223	-19.371	0.057	0.036
-539.208	56.087	-0.094	0.093
-538.193	151.913	0.073	0.101
-537.179	-200.000	0.081	-0.367
-536.164	-23.632	-0.162	-0.098
-535.150	109.547	-0.168	-0.204
-534.135	-147.990	0.183	0.015
-533.121	167.428	0.267	-0.384
-532.106	-200.000	0.017	-0.142
-531.091	-45.690	-0.407	-0.203
-530.077	-200.000	-0.023	-0.190
-529.062	-200.000	-0.007	0.065
-528.048	64.354	0.233	0.237
-527.033	-19.578	0.114	-0.072
-526.018	-67.195	-0.305	0.122
-525.004	410.606	-0.186	-0.399
-523.989	13.528	0.105	-0.082
-522.975	-200.000	-0.031	-0.188
-521.960	-157.248	-0.090	-0.006
-520.945	-37.379	-0.194	0.105
-519.931	-116.070	0.199	0.037
-518.916	722.782	-0.061	-0.163
-517.902	-59.088	0.098	0.043
-516.887	-95.640	0.148	-0.040
-515.872	377.664	0.047	0.097
-514.858	-200.000	-0.005	0.101
-513.843	91.821	-0.074	-0.084
-512.829	-124.001	-0.105	0.017
-511.814	16.283	0.332	-0.265
-510.799	687.298	0.044	-0.116
-509.785	10.340	0.117	0.090
-508.770	-102.692	0.114	-0.027
-507.756	-200.000	0.090	-0.410
-506.741	580.497	0.112	-0.277
-505.726	-51.212	0.071	0.033
-504.712	-200.000	-0.049	-0.241
-503.697	-115.462	0.158	0.030
-502.683	800.000	0.041	0.145
-501.668	-84.327	0.077	-0.025
-500.653	-146.837	-0.098	-0.009
-499.639	-61.998	0.055	-0.023
-498.624	210.032	0.118	-0.187
-497.610	-100.370	-0.097	0.024
-496.595	-99.237	-0.142	-0.036
-495.581	345.564	0.078	0.156
-494.566	30.994	-0.212	0.183
-493.551	104.064	0.099	-0.118
-492.537	-83.576	0.224	-0.072
-491.522	-17.247	0.254	0.161
-490.508	-200.000	-0.000	-0.136
-489.493	-96.412	0.295	-0.079
-488.478	52.863	-0.145	0.140
-487.464	-130.216	-0.140	0.019
-486.449	374.773	-0.074	0.151
-485.435	-108.066	-0.185	-0.041
-484.420	115.514	-0.281	0.347
-483.405	800.000	-0.056	-0.244
-482.391	800.000	0.049	0.209
-481.376	99.919	-0.109	-0.127
-480.362	-200.000	0.057	0.385
-479.347	-111.860	0.123	0.025
-478.332	148.879	-0.111	-0.151
-477.318	-61.469	0.206	-0.088
-476.303	-30.233	0.332	0.191
-475.289	-14.663	0.104	-0.068
-474.274	-113.959	-0.332	0.065
-473.259	155.358	0.215	0.299
-472.245	-146.192	0.275	-0.024
-471.230	-53.344	-0.125	-0.058
-470.216	-77.121	-0.134	0.047
-469.201	17.794	0.270	0.217
-468.186	7.969	-0.099	-0.075
-467.172	-113.464	-0.266	-0.053
-466.157	-168.892	-0.446	-0.017
-465.143	-139.299	0.117	0.013
-464.128	-200.000	0.038	-0.213
-463.113	-185.797	0.135	0.002
-462.099	-110.495	0.155	-0.032
-461.084	-22.379	-0.135	-0.082
-460.070	712.800	-0.061	0.162
-459.055	-126.557	-0.057	0.009
-458.040	800.000	-0.137	0.432
-457.026	4.623	-0.033	0.024
-456.011	136.974	-0.220	-0.290
-454.997	-76.641	0.063	-0.022
-453.982	800.000	-0.071	-0.207
-452.968	-52.948	-0.187	-0.087
-451.953	-200.000	0.046	-0.212
-450.938	152.576	-0.194	-0.268
-449.924	-200.000	0.000	-0.137
-448.909	-200.000	0.034	-0.338
-447.895	-79.132	-0.206	0.071
-446.880	60.177	0.222	0.222
-445.865	-20.864	-0.088	-0.054
-444.851	201.691	-0.125	-0.195
-443.836	62.549	0.153	-0.154
-442.822	111.714	-0.192	-0.233
-441.807	48.692	0.278	-0.263
-440.792	-145.020	0.046	-0.004
-439.778	70.432	0.137	0.143
-438.763	269.097	0.127	-0.225
-437.749	37.200	-0.157	0.140
-436.734	800.000	0.044	-0.172
-435.719	-35.711	0.179	-0.098
-434.705	108.373	0.079	-0.095
-433.690	-200.000	0.018	-0.179
-432.676	800.000	0.081	-0.241
-431.661	-200.000	-0.033	0.191
-430.646	125.144	-0.310	0.394
-429.632	800.000	0.041	0.137
-428.617	645.395	-0.046	-0.120
-427.603	-60.320	0.303	-0.130
-426.588	12.663	0.151	-0.117
-425.573	255.655	0.121	0.209
-424.559	655.665	0.008	-0.020
-423.544	-164.891	-0.200	-0.009
-422.530	30.987	0.035	-0.030
-421.515	800.000	-0.061	-0.261
-420.500	-200.000	-0.008	0.181
-419.486	-22.420	0.262	0.160
-418.471	-85.085	0.124	-0.039
-417.457	-25.238	0.159	0.095
-416.442	-98.436	0.280	-0.072
-415.428	-69.953	0.100	-0.039
-414.413	202.662	0.058	0.090
-413.398	-26.466	0.138	-0.081
-412.384	-200.000	0.004	0.021
-411.369	800.000	-0.047	0.133
-410.355	105.017	-0.193	0.229
-409.340	-43.993	0.178	-0.090
-408.325	-62.542	-0.144	0.060
-407.311	-200.000	0.067	0.329
-406.296	162.230	-0.146	-0.205
-405.282	25.640	0.408	0.342
-404.267	36.270	0.311	0.276
-403.252	-200.000	0.035	-0.209
-402.238	-200.000	0.006	-0.030
-401.223	125.165	-0.141	-0.179
-400.209	109.988	0.176	-0.213
-399.194	129.901	-0.139	-0.180
-398.179	-111.351	-0.148	-0.030
-397.165	-115.588	0.318	-0.060
-396.150	800.000	0.037	0.129
-395.136	-51.280	-0.363	0.171
-394.121	800.000	-0.025	-0.088
-393.106	372.342	0.177	-0.362
-392.092	1.617	-0.242	0.175
-391.077	193.603	0.047	0.072
-390.063	-38.133	-0.092	0.049
-389.048	23.140	0.232	0.191
-388.033	-200.000	-0.006	-0.104
-387.019	-200.000	-0.020	-0.420
-386.004	-8.128	-0.331	0.224
-384.990	0.966	0.119	0.086
-383.975	-77.595	0.089	0.031
-382.960	423.225	0.124	0.268
-381.946	-58.798	0.360	0.157
-380.931	800.000	-0.020	-0.069
-379.917	80.993	0.226	-0.245
-378.902	591.573	0.064	-0.158
-377.888	-200.000	0.016	0.191
-376.873	800.000	0.107	-0.309
-375.858	-65.101	-0.095	-0.039
-374.844	65.837	-0.134	-0.137
-373.829	-200.000	0.045	-0.217
-372.815	66.591	-0.050	-0.051
-371.800	222.388	0.142	0.230
-370.785	-168.562	0.054	-0.002
-369.771	464.693	-0.040	-0.089
-368.756	-16.879	0.389	-0.247
-367.742	-200.000	-0.006	-0.317
-366.727	-200.000	0.011	0.110
-365.712	-91.946	-0.175	0.050
-364.698	-136.545	-0.136	-0.016
-363.683	367.968	-0.120	-0.244
-362.669	800.000	-0.062	-0.212
-361.654	273.724	-0.022	-0.040
-360.639	171.193	0.057	-0.082
-359.625	-72.368	0.192	-0.071
-358.610	77.524	-0.102	0.109
-357.596	-2.753	-0.079	-0.056
-356.581	-48.526	0.113	-0.055
-355.566	-164.176	0.231	-0.011
-354.552	303.533	-0.097	-0.180
-353.537	75.798	-0.148	-0.157
-352.523	-116.442	-0.378	0.070
-351.508	180.086	0.087	0.129
-350.493	-49.952	-0.372	0.177
-349.479	-119.647	-0.156	-0.027
-348.464	310.167	-0.073	-0.136
-347.450	-100.550	0.127	-0.031
-346.435	91.176	-0.145	0.164
-345.420	541.199	-0.049	-0.117
-344.406	-34.689	-0.120	0.066
-343.391	-140.536	-0.222	-0.023
-342.377	30.258	-0.081	-0.069
-341.362	255.921	-0.098	-0.168
-340.348	800.000	-0.083	-0.361
-339.333	-125.217	-0.243	0.037
-338.318	-200.000	0.003	0.196
-337.304	800.000	-0.105	0.324
-336.289	374.645	0.062	-0.128
-335.275	-200.000	-0.046	0.336
-334.260	800.000	-0.024	0.087
-333.245	-200.000	0.140	0.664
-332.231	-18.393	0.125	-0.078
-331.216	-116.353	-0.192	-0.036
-330.202	523.767	-0.132	0.312
-329.187	-200.000	-0.041	0.212
-328.172	-200.000	0.013	-0.243
-327.158	268.743	-0.174	-0.306
-326.143	800.000	0.060	-0.179
-325.129	104.883	-0.253	-0.299
-324.114	-22.845	0.211	0.128
-323.099	-182.889	0.162	0.003
-322.085	800.000	-0.057	0.176
-321.070	-200.000	-0.008	0.126
-320.056	35.714	-0.168	-0.148
-319.041	-200.000	0.013	-0.108
-318.026	10.620	-0.029	-0.022
-317.012	224.363	0.315	-0.511
-315.997	-200.000	0.047	0.413
-314.983	259.885	-0.126	-0.219
-313.968	-8.663	-0.240	0.162
-312.953	-129.645	0.134	-0.019
-311.939	-158.413	0.311	0.018
-310.924	-200.000	-0.028	0.187
-309.910	74.923	-0.342	-0.362
-308.895	-200.000	-0.023	0.319
-307.880	441.583	0.041	0.091
-306.866	1.602	-0.290	-0.210
-305.851	-108.017	0.434	-0.094
-304.837	-88.546	-0.060	-0.018
-303.822	-36.443	0.057	-0.031
-302.807	-75.917	-0.059	0.021
-301.793	-149.787	-0.135	-0.011
-300.778	-200.000	0.056	0.384
-299.764	-97.032	-0.151	0.040
-298.749	-200.000	-0.026	0.216
-297.735	-165.814	0.200	0.009
-296.720	800.000	-0.015	0.057
-295.705	-89.235	0.145	-0.043
-294.691	-127.109	0.033	-0.005
-293.676	84.399	-0.287	0.315
-292.662	800.000	-0.044	0.150
-291.647	-20.362	0.205	-0.126
-290.632	-16.718	0.285	-0.181
-289.618	-129.145	0.231	0.032
-288.603	-200.000	-0.001	-0.073
-287.589	-15.486	0.310	0.199
-286.574	-15.514	-0.146	-0.094
-285.559	-31.941	0.183	0.103
-284.545	543.172	0.130	0.311
-283.530	-21.838	-0.264	0.161
-282.516	103.596	-0.117	-0.137
-281.501	-167.186	0.113	-0.005
-280.486	800.000	-0.098	-0.284
-279.472	-200.000	-0.022	-0.195
-278.457	-66.833	-0.169	-0.067
-277.443	-3.856	0.146	-0.102
-276.428	-99.458	0.088	0.022
-275.413	800.000	-0.011	0.032
-274.399	-200.000	0.007	-0.141
-273.384	-11.985	-0.096	-0.063
-272.370	137.023	0.092	-0.120
-271.355	-51.700	-0.029	0.014
-270.340	-157.216	-0.206	-0.012
-269.326	-97.263	0.278	0.073
-268.311	-200.000	0.388	-0.001
-267.297	-200.000	0.009	-0.061
-266.282	-23.939	-0.097	-0.058
-265.267	-200.000	-0.013	-0.111
-264.253	30.467	-0.057	0.049
-263.238	800.000	0.151	-0.462
-262.224	68.250	0.145	0.149
-261.209	179.608	-0.059	-0.087
-260.195	-126.916	0.067	0.010
-259.180	800.000	-0.061	-0.233
-258.165	20.749	0.246	-0.200
-257.151	-200.000	0.042	0.321
-256.136	-131.175	-0.392	-0.052
-255.122	52.161	0.078	-0.074
-254.107	-178.938	0.290	-0.007
-253.092	800.000	0.059	0.177
-252.078	-4.274	0.071	-0.049
-251.063	629.526	-0.075	0.189
-250.049	-182.342	0.170	-0.003
-249.034	-200.000	0.027	-0.191
-248.019	358.863	0.162	-0.324
-247.005	800.000	0.151	0.448
-245.990	-56.412	-0.088	0.039
-244.976	64.630	0.049	-0.050
-243.961	-200.000	-0.010	0.348
-242.946	1.757	0.232	0.167
-241.932	268.417	0.084	-0.147
-240.917	-28.135	0.106	0.061
-239.903	624.391	0.084	0.213
-238.888	800.000	-0.160	0.455
-237.873	-200.000	0.003	0.122
-236.859	-90.006	0.091	0.027
-235.844	-84.380	0.345	0.109
-234.830	138.549	-0.408	0.536
-233.815	-200.000	0.024	0.314
-232.800	-167.635	0.097	-0.004
-231.786	-200.000	-0.019	0.388
-230.771	-51.588	-0.581	0.271
-229.757	-200.000	-0.031	-0.320
-228.742	-200.000	0.002	-0.164
-227.727	-39.350	0.156	-0.082
-226.713	79.894	-0.195	0.209
-225.698	-38.333	-0.254	-0.135
-224.684	547.110	0.168	-0.402
-223.669	-136.133	-0.396	0.046
-222.655	-200.000	-0.008	-0.154
-221.640	24.377	-0.355	0.294
-220.625	-79.735	-0.078	-0.026
-219.611	-118.583	0.241	-0.043
-218.596	-45.711	0.118	-0.058
-217.582	-63.047	0.271	-0.112
-216.567	63.875	0.262	0.263
-215.552	-200.000	-0.002	0.336
-214.538	19.373	-0.265	0.213
-213.523	-17.450	0.150	-0.094
-212.509	761.134	-0.079	0.214
-211.494	-200.000	-0.007	0.087
-210.479	202.311	-0.150	-0.231
-209.465	-122.270	0.260	0.043
-208.450	-200.000	0.020	-0.298
-207.436	-200.000	-0.002	-0.013
-206.421	800.000	-0.095	-0.313
-205.406	-14.885	0.106	0.068
-204.392	27.359	0.055	-0.046
-203.377	102.536	0.125	-0.146
-202.363	407.134	-0.152	0.322
-201.348	248.666	-0.196	0.331
-200.333	-200.000	-0.048	-0.336
-199.319	-110.562	-0.263	-0.054
-198.304	269.117	-0.069	-0.120
-197.290	-200.000	0.021	0.406
-196.275	500.782	-0.118	-0.272
-195.260	-161.258	-0.138	-0.007
-194.246	-84.615	-0.202	-0.063
-193.231	546.650	-0.076	0.182
-192.217	53.917	0.294	0.282
-191.202	-200.000	-0.009	0.191
-190.187	-12.793	0.154	0.100
-189.173	50.869	0.061	-0.058
-188.158	-113.589	-0.274	-0.054
-187.144	800.000	-0.060	-0.255
-186.129	610.057	-0.008	0.019
-185.114	800.000	-0.099	-0.290
-184.100	15.891	-0.168	0.132
-183.085	-200.000	0.041	-0.287
-182.071	-200.000	-0.016	0.175
-181.056	170.217	-0.155	0.221
-180.042	248.934	0.169	0.286
-179.027	-83.730	0.068	0.022
-178.012	56.983	-0.105	-0.102
-176.998	-130.054	0.251	0.034
-175.983	739.313	0.139	-0.373
-174.969	800.000	0.032	0.137
-173.954	-100.118	-0.162	0.040
-172.939	-141.516	0.164	-0.017
-171.925	-112.367	0.143	-0.029
-170.910	244.755	0.234	0.393
-169.896	572.229	-0.112	0.273
-168.881	308.719	-0.214	0.398
-167.866	800.000	-0.071	-0.230
-166.852	800.000	-0.057	0.226
-165.837	459.108	0.157	0.348
-164.823	-10.001	-0.107	0.071
-163.808	-119.930	0.296	0.051
-162.793	17.339	-0.161	0.127
-161.779	-200.000	-0.045	0.289
-160.764	-126.893	0.311	0.046
-159.750	-34.091	-0.064	-0.035
-158.735	2.193	-0.170	-0.123
-157.720	-142.201	0.261	-0.026
-156.706	75.625	-0.094	-0.099
-155.691	-57.841	0.353	0.154
-154.677	-175.884	-0.381	-0.010
-153.662	-200.000	-0.019	-0.135
-152.647	295.398	0.060	-0.110
-151.633	-2.802	0.138	-0.097
-150.618	2.981	-0.283	0.205
-149.604	258.723	0.186	-0.320
-148.589	25.800	-0.113	-0.094
-147.574	-27.787	-0.237	0.137
-146.560	-49.924	0.036	0.017
-145.545	-184.789	0.225	0.004
-144.531	462.489	0.135	-0.301
-143.516	56.315	0.344	-0.333
-142.502	-200.000	0.000	-0.004
-141.487	800.000	-0.064	0.219
-140.472	-192.414	-0.052	-0.000
-139.458	-145.897	0.367	-0.032
-138.443	-19.182	0.122	0.076
-137.429	-80.507	-0.070	-0.023
-136.414	518.132	-0.095	0.222
-135.399	-114.267	0.035	0.007
-134.385	-50.725	0.414	0.194
-133.370	203.238	-0.115	0.177
-132.356	24.999	-0.185	0.153
-131.341	-28.127	-0.324	0.186
-130.326	-144.497	0.237	-0.022
-129.312	-114.149	0.253	0.049
-128.297	-21.242	0.258	0.157
-127.283	225.900	0.114	0.184
-126.268	-86.175	-0.205	-0.063
-125.253	-69.187	-0.133	-0.051
-124.239	-72.240	-0.144	0.053
-123.224	-66.749	0.100	-0.039
-122.210	-19.708	0.181	0.112
-121.195	123.968	0.259	0.324
-120.180	-200.000	0.020	0.140
-119.166	-127.478	0.269	-0.039
-118.151	-200.000	-0.046	-0.213
-117.137	-90.961	-0.351	-0.101
-116.122	39.418	-0.270	-0.241
-115.107	66.740	0.180	-0.182
-114.093	-28.888	0.306	0.175
-113.078	-100.497	0.266	0.065
-112.064	800.000	-0.048	-0.176
-111.049	-200.000	-0.005	0.341
-110.034	170.229	0.062	0.089
-109.020	-165.016	0.138	0.006
-108.005	-200.000	0.039	0.260
-106.991	243.691	-0.138	0.231
-105.976	-132.148	0.286	-0.037
-104.962	-200.000	-0.004	-0.074
-103.947	-200.000	-0.003	0.071
-102.932	800.000	0.111	-0.421
-101.918	31.361	0.147	-0.126
-100.903	-131.166	-0.133	0.018
-99.889	-99.966	0.516	-0.128
-98.874	-116.813	0.229	0.042
-97.859	726.933	0.069	0.183
-96.845	-73.460	0.295	0.107
-95.830	-81.182	0.287	-0.094
-94.816	800.000	0.024	-0.093
-93.801	16.556	0.071	0.056
-92.786	-144.335	0.080	-0.007
-91.772	237.033	0.152	-0.250
-90.757	800.000	-0.057	-0.209
-89.743	499.405	0.074	0.169
-88.728	90.286	-0.125	-0.139
-87.713	-103.471	0.143	0.033
-86.699	33.308	0.322	-0.278
-85.684	-9.950	-0.270	-0.179
-84.670	-200.000	0.024	0.151
-83.655	-200.000	0.008	0.277
-82.640	-200.000	-0.004	-0.201
-81.626	-200.000	0.023	0.239
-80.611	-38.290	-0.535	-0.282
-79.597	155.178	-0.068	-0.093
-78.582	-96.908	0.280	-0.073
-77.567	-140.763	-0.200	-0.021
-76.553	395.726	-0.029	-0.060
-75.538	31.710	0.292	0.250
-74.524	-67.159	0.092	0.036
-73.509	30.386	-0.108	-0.092
-72.494	800.000	0.067	-0.259
-71.480	-25.651	0.135	-0.079
-70.465	-89.039	0.087	-0.026
-69.451	9.183	0.174	0.131
-68.436	-200.000	0.106	-0.468
-67.422	12.185	0.151	-0.116
-66.407	-109.011	-0.270	0.057
-65.392	-200.000	0.021	-0.240
-64.378	11.681	-0.144	-0.110
-63.363	316.108	-0.091	-0.171
-62.349	348.287	-0.124	0.243
-61.334	313.374	-0.480	-0.896
-60.319	287.462	0.089	0.160
-59.305	-200.000	-0.198	-0.880
-58.290	165.324	0.433	0.608
-57.276	336.598	0.743	1.433
-56.261	-200.000	76.872	515.674
-55.246	515.615	1340.982	3111.240
-54.232	145.189	2579.742	3428.806
-53.217	110.149	2353.199	2806.176
-52.203	49.755	1965.724	1839.946
-51.188	43.725	1754.830	1595.146
-50.173	40.941	1709.177	1532.169
-49.159	55.474	1744.156	1676.602
-48.144	60.582	1762.997	1734.268
-47.130	43.741	1726.435	1569.207
-46.115	40.607	1712.075	1531.940
-45.100	40.458	1707.658	1526.784
-44.086	40.342	1705.583	1523.977
-43.071	40.407	1702.867	1521.983
-42.057	40.268	1700.948	1519.141
-41.042	40.338	1698.324	1517.275
-40.027	40.375	1697.018	1516.334
-39.013	40.414	1694.468	1514.294
-37.998	40.360	1693.231	1512.711
-36.984	40.352	1691.771	1511.291
-35.969	40.550	1690.277	1511.402
-34.954	40.551	1688.620	1509.866
-33.940	40.495	1686.761	1507.717
-32.925	40.562	1684.052	1505.747
-31.911	40.402	1683.002	1503.536
-30.896	40.554	1681.100	1502.930
-29.881	40.454	1679.525	1500.707
-28.867	40.500	1677.804	1499.454
-27.852	40.491	1676.740	1498.378
-26.838	40.439	1675.218	1496.566
-25.823	40.555	1673.727	1496.049
-24.809	40.649	1671.780	1494.960
-23.794	40.538	1670.737	1493.131
-22.779	40.568	1669.166	1491.894
-21.765	40.532	1667.671	1490.224
-20.750	40.460	1665.992	1488.127
-19.736	40.560	1664.935	1487.871
-18.721	40.466	1663.244	1485.599
-17.706	40.512	1661.728	1484.531
-16.692	40.619	1659.706	1483.466
-15.677	40.444	1658.875	1481.354
-14.663	40.470	1657.648	1480.393
-13.648	40.577	1655.711	1479.403
-12.633	40.481	1654.466	1477.519
-11.619	40.490	1653.105	1476.312
-10.604	40.577	1650.769	1474.815
-9.590	40.606	1649.550	1473.878
-8.575	40.531	1648.608	1472.422
-7.560	40.496	1647.558	1471.164
-6.546	40.544	1646.037	1470.108
-5.531	40.464	1645.145	1468.656
-4.517	40.458	1644.171	1467.687
-3.502	40.459	1642.628	1466.258
-2.487	40.544	1641.392	1465.724
-1.473	40.381	1629.639	1453.972
-0.458	37.829	1608.984	1416.963
0.556	33.875	1608.052	1378.672
1.571	30.880	1631.643	1376.685
2.586	29.832	1645.599	1380.517
3.600	25.863	1589.481	1304.650
4.615	14.111	1468.939	1126.463
5.629	3.966	1395.422	1004.423
6.644	2.247	1385.720	986.264
7.659	1.993	1384.302	983.533
8.673	2.005	1383.087	982.663
9.688	1.875	1381.514	980.622
10.702	1.584	1378.394	976.452
11.717	5.443	1386.148	1006.733
12.731	16.443	1407.855	1093.972
13.746	25.073	1422.711	1161.609
14.761	26.719	1423.902	1173.149
15.775	26.893	1423.642	1173.958
16.790	26.974	1423.696	1174.417
17.804	27.017	1422.925	1173.957
18.819	27.258	1422.132	1174.756
19.834	27.261	1421.411	1174.077
20.848	27.210	1420.974	1173.282
21.863	27.314	1420.232	1173.237
22.877	27.314	1419.468	1172.499
23.892	27.296	1418.615	1171.577
24.907	27.289	1417.480	1170.495
25.921	27.281	1416.455	1169.487
26.936	27.232	1415.466	1168.253
27.950	27.408	1414.138	1168.188
28.965	27.341	1412.775	1166.524
29.980	27.242	1411.724	1164.923
30.994	27.272	1410.906	1164.334
32.009	27.362	1409.524	1163.665
33.023	27.171	1408.788	1161.734
34.038	27.225	1407.640	1161.031
35.053	27.329	1406.129	1160.345
36.067	27.298	1405.319	1159.375
37.082	27.246	1404.416	1158.201
38.096	27.316	1403.364	1157.673
39.111	27.306	1402.711	1156.969
40.126	27.229	1401.814	1155.636
41.140	27.250	1401.380	1155.309
42.155	27.291	1401.072	1155.217
43.169	27.304	1401.365	1155.439
44.184	27.258	1400.852	1154.617
45.199	27.256	1400.451	1154.173
46.213	27.274	1399.925	1153.756
47.228	27.273	1398.950	1152.843
48.242	27.331	1397.441	1151.861
49.257	27.279	1395.906	1150.169
50.271	27.284	1394.769	1149.160
51.286	27.248	1393.615	1147.882
52.301	27.244	1392.293	1146.666
53.315	27.262	1391.444	1145.978
54.330	27.264	1390.611	1145.201
55.344	27.307	1389.090	1144.117
56.359	27.249	1388.016	1142.770
57.374	27.421	1386.810	1142.757
58.388	27.287	1386.644	1141.676
59.403	27.313	1386.562	1141.672
60.417	27.243	1385.622	1140.358
61.432	27.269	1384.850	1139.784
62.447	27.329	1384.303	1139.609
63.461	27.378	1382.676	1138.476
64.476	27.305	1381.988	1137.348
65.490	27.313	1380.774	1136.302
66.505	27.317	1378.967	1134.737
67.520	27.308	1377.853	1133.662
68.534	27.251	1377.012	1132.519
69.549	27.314	1375.733	1131.755
70.563	27.232	1375.127	1130.650
71.578	27.328	1374.328	1130.490
72.593	27.282	1373.382	1129.322
73.607	27.209	1373.372	1128.760
74.622	27.237	1372.219	1127.888
75.636	27.357	1371.062	1127.579
76.651	27.238	1370.521	1126.301
77.666	27.346	1369.842	1126.310
78.680	27.306	1369.411	1125.607
79.695	27.310	1368.453	1124.749
80.709	27.308	1368.011	1124.273
81.724	27.302	1367.293	1123.548
82.739	27.335	1366.246	1122.790
83.753	27.296	1365.410	1121.760
84.768	27.265	1364.126	1120.419
85.782	27.387	1362.663	1119.867
86.797	27.356	1361.717	1118.802
87.812	27.341	1360.643	1117.727
88.826	27.257	1359.872	1116.478
89.841	27.304	1358.733	1115.730
90.855	27.349	1357.814	1115.154
91.870	27.346	1357.049	1114.410
92.884	27.494	1356.150	1114.482
93.899	27.378	1355.191	1112.881
94.914	27.328	1354.156	1111.630
95.928	27.281	1353.695	1110.864
96.943	27.298	1353.124	1110.402
97.957	27.318	1352.133	1109.614
98.972	27.416	1350.724	1108.955
99.987	27.338	1350.157	1107.916
101.001	27.304	1349.388	1106.983
102.016	27.243	1348.346	1105.658
103.030	27.245	1347.662	1105.013
104.045	27.388	1346.437	1104.776
105.060	27.428	1345.376	1104.050
106.074	27.390	1344.682	1103.155
107.089	27.394	1343.646	1102.232
108.103	27.356	1342.692	1101.122
109.118	27.357	1341.509	1100.058
110.133	27.379	1340.607	1099.357
111.147	27.447	1338.915	1098.280
112.162	27.391	1338.259	1097.306
113.176	27.396	1337.184	1096.359
114.191	27.470	1336.134	1095.843
115.206	27.376	1335.516	1094.678
116.220	27.490	1334.169	1094.161
117.235	27.444	1333.403	1093.159
118.249	27.411	1332.669	1092.262
119.264	27.340	1331.550	1090.822
120.279	27.473	1330.918	1091.004
121.293	27.498	1330.114	1090.402
122.308	27.477	1329.571	1089.735
123.322	27.515	1328.729	1089.171
124.337	27.577	1327.697	1088.602
125.352	27.509	1327.107	1087.616
126.366	27.492	1325.944	1086.466
127.381	27.615	1324.586	1085.987
128.395	27.547	1324.343	1085.287
129.410	27.518	1323.721	1084.507
130.424	27.504	1322.719	1083.512
131.439	27.513	1322.075	1082.942
132.454	27.548	1321.135	1082.280
133.468	27.582	1320.250	1081.660
134.483	27.523	1319.959	1080.981
135.497	27.576	1319.121	1080.509
136.512	27.489	1318.254	1079.188
137.527	27.583	1316.697	1078.378
138.541	27.469	1315.678	1076.769
139.556	27.444	1314.660	1075.698
140.570	27.464	1313.480	1074.752
141.585	27.412	1312.769	1073.772
142.600	27.467	1311.426	1072.898
143.614	27.519	1310.433	1072.301
144.629	27.501	1309.439	1071.285
145.643	27.510	1308.131	1070.172
146.658	27.398	1307.335	1068.770
147.673	27.409	1306.623	1068.159
148.687	27.426	1305.573	1067.304
149.702	27.318	1304.429	1065.643
150.716	27.338	1303.475	1064.888
151.731	27.396	1302.328	1064.192
152.746	27.491	1300.879	1063.467
153.760	27.400	1300.192	1062.284
154.775	27.440	1299.750	1062.059
155.789	27.468	1298.121	1060.800
156.804	27.565	1297.176	1060.501
157.819	27.457	1296.234	1059.006
158.833	27.374	1296.379	1058.546
159.848	27.489	1295.232	1058.186
160.862	27.502	1294.156	1057.289
161.877	27.561	1293.621	1057.098
162.892	27.424	1293.113	1055.798
163.906	27.443	1292.424	1055.249
164.921	27.550	1291.555	1055.070
165.935	27.520	1290.638	1054.052
166.950	27.528	1289.998	1053.481
167.964	27.541	1289.506	1053.061
168.979	27.561	1288.555	1052.307
169.994	27.649	1287.992	1052.265
171.008	27.571	1287.538	1051.346
172.023	27.554	1286.324	1050.164
173.037	27.521	1286.365	1049.916
174.052	27.630	1284.931	1049.281
175.067	27.530	1284.337	1048.127
176.081	27.576	1283.576	1047.677
177.096	27.496	1283.010	1046.664
178.110	27.609	1281.904	1046.320
179.125	27.565	1281.057	1045.284
180.140	27.615	1279.854	1044.492
181.154	27.632	1278.695	1043.555
182.169	27.505	1277.926	1042.107
183.183	27.562	1276.370	1041.069
184.198	27.619	1275.511	1040.607
185.213	27.647	1274.596	1039.923
186.227	27.750	1273.278	1039.345
187.242	27.606	1273.127	1038.310
188.256	27.736	1271.942	1037.990
189.271	27.680	1271.251	1037.017
190.286	27.518	1270.675	1035.533
191.300	27.712	1270.010	1036.004
192.315	27.595	1269.686	1034.983
193.329	27.684	1269.169	1034.971
194.344	27.702	1268.638	1034.553
195.359	27.719	1267.977	1034.016
196.373	27.659	1267.475	1033.178
197.388	27.558	1267.664	1032.665
198.402	27.673	1266.557	1032.325
199.417	27.685	1266.186	1032.001
200.432	27.720	1265.561	1031.593
201.446	27.606	1265.493	1030.804
202.461	27.751	1264.278	1030.545
203.475	27.637	1263.464	1029.147
204.490	27.558	1262.921	1028.164
205.504	27.637	1261.752	1027.566
206.519	27.718	1261.062	1027.374
207.534	27.633	1259.925	1025.874
208.548	27.584	1259.310	1025.008
209.563	27.746	1257.772	1024.575
210.577	27.733	1257.240	1023.981
211.592	27.796	1256.214	1023.405
212.607	27.821	1255.464	1022.845
213.621	27.799	1255.075	1022.314
214.636	27.846	1254.414	1021.946
215.650	27.819	1253.365	1020.851
216.665	27.855	1252.235	1020.042
217.680	27.839	1251.258	1019.066
218.694	27.827	1250.120	1017.985
219.709	27.886	1249.635	1017.828
220.723	27.985	1248.888	1017.678
221.738	27.764	1248.878	1016.349
222.753	27.716	1247.873	1015.178
223.767	27.816	1246.952	1014.896
224.782	27.881	1247.099	1015.285
225.796	27.869	1246.027	1014.253
226.811	28.018	1245.349	1014.443
227.826	27.812	1244.697	1012.674
228.840	28.025	1244.175	1013.344
229.855	27.869	1243.824	1012.105
230.869	27.900	1243.053	1011.558
231.884	27.889	1242.614	1011.053
232.899	27.807	1241.539	1009.635
233.913	27.858	1240.942	1009.342
234.928	27.864	1240.446	1008.882
235.942	27.925	1239.995	1008.760
236.957	28.003	1238.927	1008.231
237.972	27.927	1238.385	1007.286
238.986	28.067	1237.320	1007.099
240.001	28.053	1237.214	1006.846
241.015	28.053	1236.339	1006.045
242.030	28.059	1235.373	1005.205
243.045	28.084	1234.637	1004.655
244.059	28.081	1234.021	1004.045
245.074	28.058	1233.352	1003.288
246.088	28.042	1232.152	1002.137
247.103	28.047	1231.390	1001.453
248.117	27.995	1231.069	1000.821
249.132	28.022	1230.530	1000.441
250.147	28.209	1229.236	1000.321
251.161	28.130	1228.686	999.352
252.176	28.120	1228.271	998.873
253.190	28.100	1227.581	998.113
254.205	28.147	1226.603	997.487
255.220	28.117	1226.308	996.997
256.234	28.194	1225.347	996.546
257.249	28.184	1224.747	995.918
258.263	28.096	1224.525	995.169
259.278	28.221	1223.439	994.876
260.293	28.193	1223.000	994.281
261.307	28.269	1222.510	994.206
262.322	28.126	1221.754	992.728
263.336	28.212	1221.017	992.507
264.351	28.275	1220.647	992.458
265.366	28.176	1220.283	991.538
266.380	28.317	1219.407	991.502
267.395	28.212	1218.456	990.076
268.409	28.068	1218.417	989.176
269.424	28.281	1217.104	989.176
270.439	28.295	1216.957	989.041
271.453	28.184	1216.200	987.743
272.468	28.193	1215.491	987.123
273.482	28.198	1214.825	986.527
274.497	28.363	1214.228	986.840
275.512	28.341	1213.929	986.391
276.526	28.320	1213.463	985.813
277.541	28.261	1212.595	984.703
278.555	28.287	1211.875	984.174
279.570	28.473	1210.537	983.996
280.585	28.262	1210.114	982.434
281.599	28.292	1209.316	981.860
282.614	28.277	1208.484	981.014
283.628	28.461	1207.449	981.072
284.643	28.296	1206.971	979.716
285.657	28.296	1205.666	978.569
286.672	28.403	1205.112	978.607
287.687	28.328	1204.253	977.424
288.701	28.451	1203.529	977.405
289.716	28.403	1202.844	976.504
290.730	28.372	1202.318	975.825
291.745	28.386	1201.554	975.192
292.760	28.327	1201.023	974.365
293.774	28.493	1200.586	974.806
294.789	28.522	1199.944	974.348
295.803	28.483	1198.937	973.238
296.818	28.415	1199.005	972.849
297.833	28.470	1198.008	972.246
298.847	28.407	1197.341	971.283
299.862	28.570	1196.417	971.309
300.876	28.472	1195.966	970.341
301.891	28.548	1195.281	970.099
302.906	28.679	1194.614	970.166
303.920	28.663	1193.764	969.308
304.935	28.563	1193.346	968.355
305.949	28.596	1192.462	967.725
306.964	28.589	1191.792	967.055
307.979	28.580	1191.750	966.889
308.993	28.626	1190.801	966.276
310.008	28.725	1189.805	965.905
311.022	28.643	1189.076	964.794
312.037	28.665	1188.662	964.489
313.052	28.631	1187.391	963.197
314.066	28.627	1186.705	962.532
315.081	28.698	1185.921	962.182
316.095	28.598	1185.681	961.381
317.110	28.675	1184.972	961.121
318.125	28.661	1184.299	960.421
319.139	28.787	1183.348	960.224
320.154	28.719	1182.725	959.274
321.168	28.735	1182.280	958.912
322.183	28.708	1181.529	958.077
323.197	28.728	1181.303	957.914
324.212	28.731	1180.473	957.172
325.227	28.758	1180.065	956.897
326.241	28.878	1179.409	956.906
327.256	28.777	1178.754	955.766
328.270	28.748	1177.842	954.787
329.285	28.786	1177.029	954.245
330.300	28.950	1176.249	954.376
331.314	28.810	1175.436	952.909
332.329	28.756	1174.804	952.030
333.343	28.788	1174.075	951.524
334.358	28.852	1172.946	950.853
335.373	28.959	1172.298	950.798
336.387	29.019	1171.539	950.408
337.402	28.906	1171.412	949.639
338.416	28.914	1170.757	949.065
339.431	28.845	1170.307	948.256
340.446	28.855	1169.355	947.456
341.460	28.908	1168.905	947.277
342.475	28.989	1167.748	946.673
343.489	28.968	1167.133	945.983
344.504	28.972	1165.949	944.959
345.519	28.986	1165.317	944.437
346.533	29.058	1164.378	943.963
347.548	28.929	1163.718	942.682
348.562	29.119	1162.879	942.895
349.577	29.077	1162.049	941.922
350.592	28.973	1161.710	941.032
351.606	29.014	1161.042	940.616
352.621	29.065	1160.345	940.229
353.635	29.106	1159.584	939.737
354.650	29.121	1159.026	939.278
355.665	29.176	1157.863	938.533
356.679	29.175	1157.680	938.297
357.694	29.194	1157.165	937.892
358.708	29.115	1156.252	936.667
359.723	29.192	1155.836	936.639
360.738	29.068	1155.422	935.590
361.752	29.203	1154.627	935.549
362.767	29.184	1154.128	934.965
363.781	29.174	1153.261	934.129
364.796	29.230	1152.830	933.983
365.810	29.293	1152.154	933.673
366.825	29.268	1151.655	933.057
367.840	29.339	1151.167	932.941
368.854	29.459	1150.198	932.680
369.869	29.404	1149.989	932.151
370.883	29.376	1149.102	931.204
371.898	29.286	1148.569	930.237
372.913	29.318	1147.816	929.708
373.927	29.415	1147.206	929.621
374.942	29.440	1146.662	929.222
375.956	29.383	1146.383	928.626
376.971	29.331	1146.077	928.033
377.986	29.434	1145.301	927.842
379.000	29.627	1144.361	927.968
380.015	29.364	1144.462	926.645
381.029	29.385	1143.315	925.741
382.044	29.462	1142.964	925.763
383.059	29.491	1142.575	925.510
384.073	29.402	1141.510	924.117
385.088	29.466	1140.568	923.595
386.102	29.505	1139.506	922.849
387.117	29.401	1138.827	921.697
388.132	29.457	1138.108	921.313
389.146	29.541	1136.956	920.718
390.161	29.463	1136.621	919.980
391.175	29.517	1135.756	919.466
392.190	29.511	1135.431	919.088
393.205	29.539	1134.512	918.403
394.219	29.520	1133.823	917.673
395.234	29.663	1132.958	917.599
396.248	29.597	1132.295	916.652
397.263	29.655	1131.576	916.280
398.278	29.591	1130.922	915.353
399.292	29.649	1130.634	915.325
400.307	29.764	1129.369	914.787
401.321	29.645	1128.899	913.739
402.336	29.636	1128.519	913.304
403.350	29.645	1127.840	912.721
404.365	29.781	1127.122	912.728
405.380	29.785	1126.345	912.040
406.394	29.742	1125.551	911.101
407.409	29.859	1124.735	910.938
408.423	29.806	1124.104	910.087
409.438	29.928	1123.284	909.939
410.453	29.828	1122.715	908.908
411.467	29.800	1122.097	908.191
412.482	29.792	1121.202	907.344
413.496	29.818	1120.731	907.013
414.511	29.864	1120.305	906.810
415.526	29.883	1119.446	906.128
416.540	29.981	1119.023	906.186
417.555	29.833	1118.727	905.141
418.569	29.916	1118.343	905.159
419.584	29.905	1117.951	904.706
420.599	29.862	1117.574	904.113
421.613	89.455	1304.147	1380.762
422.628	84.116	1331.331	1380.885
