DTS Sentinel unit serial number:	SN413079Multiplexer serial number:	ORYXHardware model number:	OX4-SRSoftware version number:	ORYX F/W v4.00 Oryx Data Collector v3.7.2.0data status	okinstallation	princeton_trtdifferential loss correction	single-endedforward channel	channel 2reverse channel	N/Adate	2019/09/14time	20:07:35forward acquisition time	60.00reverse acquisition time	0.00gamma	496.2192k internal	0.2321k external	0.2321temperature offset calibration	1.0096default loss term (dB/km)	0.3790temperature slope calibration	1.0000multiplexer offset coefficient	1.0000multiplexer slope coefficient	1.0000fibre end	0.00T internal ref (°C)	33.94T ext. ref 1 (°C)	4.87T ext. ref 2 (°C)	28.31length (m)	temperature (°C)	Stokes	anti-Stokes-747.200	167.931	0.092	-0.132
-746.185	472.300	-0.152	0.347
-745.171	-159.073	-0.085	0.005
-744.156	-200.000	0.050	0.405
-743.142	-75.665	-0.205	0.074
-742.127	-84.103	0.120	-0.039
-741.112	67.413	-0.175	-0.181
-740.098	691.660	-0.166	0.439
-739.083	-119.619	-0.371	-0.065
-738.069	-200.000	-0.035	-0.197
-737.054	29.111	-0.146	-0.125
-736.039	160.593	-0.041	-0.058
-735.025	113.398	0.130	0.159
-734.010	278.996	-0.144	0.259
-732.996	-140.731	0.140	0.015
-731.981	-24.250	0.120	0.072
-730.966	23.117	-0.181	0.150
-729.952	129.759	0.156	-0.202
-728.937	435.255	0.141	0.311
-727.923	339.652	-0.061	-0.120
-726.908	-45.832	-0.240	-0.120
-725.894	410.198	-0.101	-0.215
-724.879	-45.419	0.393	-0.197
-723.864	-23.306	-0.072	-0.044
-722.850	152.757	-0.083	0.115
-721.835	189.065	0.147	0.222
-720.821	536.763	0.059	-0.142
-719.806	-200.000	-0.027	-0.124
-718.791	242.592	0.105	-0.177
-717.777	-200.000	0.039	-0.187
-716.762	-26.343	-0.199	0.118
-715.748	-155.354	0.308	0.020
-714.733	-62.468	-0.277	0.116
-713.718	204.082	0.028	-0.044
-712.704	732.517	0.025	0.067
-711.689	724.145	-0.089	0.239
-710.675	332.654	-0.139	-0.271
-709.660	114.316	0.111	-0.136
-708.645	-200.000	-0.030	0.166
-707.631	-164.025	0.078	0.004
-706.616	-73.624	0.338	0.124
-705.602	-135.959	0.275	-0.033
-704.587	-200.000	0.028	0.211
-703.572	-126.951	-0.262	0.039
-702.558	-86.343	-0.424	0.132
-701.543	-200.000	-0.009	0.072
-700.529	80.786	-0.185	0.201
-699.514	41.343	-0.213	0.194
-698.499	35.823	0.178	-0.158
-697.485	63.582	0.174	-0.177
-696.470	102.441	-0.216	-0.255
-695.456	800.000	0.053	0.228
-694.441	-67.004	-0.178	-0.071
-693.426	232.442	0.098	0.162
-692.412	-15.637	0.248	0.160
-691.397	642.145	0.019	0.048
-690.383	-38.564	-0.194	0.104
-689.368	199.805	0.173	0.268
-688.354	800.000	-0.069	0.241
-687.339	257.627	0.141	-0.244
-686.324	123.328	-0.162	-0.205
-685.310	80.930	0.131	0.142
-684.295	-147.026	-0.237	0.020
-683.281	-200.000	0.028	-0.205
-682.266	-24.059	0.193	0.117
-681.251	106.370	-0.084	0.100
-680.237	298.777	0.131	-0.244
-679.222	-119.998	0.450	-0.078
-678.208	-153.744	-0.328	0.023
-677.193	-1.049	0.304	-0.217
-676.178	295.234	-0.047	0.087
-675.164	203.852	-0.061	-0.095
-674.149	-54.673	-0.179	0.081
-673.135	342.039	-0.068	0.134
-672.120	-16.877	0.267	0.170
-671.105	246.699	-0.171	-0.291
-670.091	-144.370	-0.367	0.034
-669.076	-36.041	0.115	0.063
-668.062	-200.000	0.070	-0.344
-667.047	728.792	-0.128	0.344
-666.032	-7.477	-0.288	-0.196
-665.018	143.923	-0.103	-0.138
-664.003	-9.990	0.332	0.222
-662.989	-153.570	-0.122	-0.009
-661.974	137.910	0.056	0.074
-660.959	-188.362	-0.079	0.001
-659.945	183.081	0.155	0.231
-658.930	-72.582	-0.071	0.026
-657.916	-4.756	-0.039	0.027
-656.901	29.334	-0.153	0.131
-655.886	-138.058	-0.269	-0.030
-654.872	-95.124	-0.155	-0.042
-653.857	362.506	-0.181	0.365
-652.843	-200.000	-0.011	0.145
-651.828	329.840	-0.011	-0.022
-650.814	80.037	0.072	-0.078
-649.799	68.797	0.183	0.189
-648.784	1.784	0.064	0.047
-647.770	32.299	0.257	0.223
-646.755	526.501	-0.017	0.040
-645.741	-5.279	-0.108	0.075
-644.726	524.205	0.121	-0.287
-643.711	195.009	0.141	-0.216
-642.697	-38.891	0.434	0.230
-641.682	38.611	0.172	0.155
-640.668	621.522	-0.058	0.147
-639.653	800.000	-0.067	-0.206
-638.638	-175.984	0.319	-0.009
-637.624	86.450	-0.165	0.183
-636.609	-200.000	-0.016	-0.125
-635.595	139.387	-0.110	-0.146
-634.580	-11.849	0.190	-0.126
-633.565	800.000	-0.101	-0.293
-632.551	248.093	-0.060	0.102
-631.536	67.818	-0.263	-0.270
-630.522	-200.000	0.040	-0.183
-629.507	-97.289	-0.099	-0.026
-628.492	-72.410	-0.143	-0.053
-627.478	53.602	-0.245	-0.237
-626.463	-200.000	0.031	-0.171
-625.449	800.000	0.102	-0.291
-624.434	-68.531	0.381	-0.149
-623.419	522.850	0.179	0.424
-622.405	51.901	-0.115	-0.110
-621.390	193.945	-0.093	-0.141
-620.376	-160.011	-0.155	-0.009
-619.361	106.808	-0.251	-0.300
-618.346	-73.796	-0.133	-0.049
-617.332	-74.168	-0.281	0.102
-616.317	-99.645	-0.323	0.082
-615.303	52.810	0.320	-0.308
-614.288	146.998	-0.096	0.130
-613.273	800.000	-0.115	-0.425
-612.259	-200.000	0.010	-0.358
-611.244	-200.000	-0.164	0.000
-610.230	136.086	-0.243	-0.318
-609.215	-57.636	0.191	-0.084
-608.201	-179.781	-0.114	0.002
-607.186	-47.274	0.112	0.055
-606.171	100.474	0.023	-0.027
-605.157	763.311	0.056	-0.152
-604.142	800.000	0.066	0.199
-603.128	166.299	-0.049	-0.070
-602.113	-162.498	-0.270	-0.013
-601.098	-88.080	0.196	-0.059
-600.084	-73.047	0.259	0.095
-599.069	66.518	0.188	0.192
-598.055	190.854	0.059	-0.089
-597.040	-200.000	-0.030	0.399
-596.025	-18.457	0.324	-0.203
-595.011	328.805	0.113	0.217
-593.996	-160.867	-0.351	-0.019
-592.982	274.636	-0.156	0.278
-591.967	800.000	-0.062	0.223
-590.952	397.230	-0.091	0.192
-589.938	-98.872	0.055	-0.014
-588.923	-200.000	-0.041	-0.363
-587.909	800.000	0.073	0.292
-586.894	-66.480	0.459	0.183
-585.879	418.338	0.058	-0.125
-584.865	-56.094	0.194	0.087
-583.850	-112.524	0.165	0.033
-582.836	800.000	0.053	-0.186
-581.821	800.000	-0.016	-0.052
-580.806	-81.690	0.189	-0.062
-579.792	-200.000	-0.021	0.204
-578.777	-64.866	-0.180	-0.073
-577.763	-33.855	0.153	-0.084
-576.748	190.800	0.107	-0.161
-575.733	-91.057	0.330	-0.095
-574.719	250.796	0.152	-0.259
-573.704	800.000	-0.048	-0.175
-572.690	103.958	-0.240	-0.283
-571.675	-47.277	-0.206	0.100
-570.661	800.000	0.087	0.304
-569.646	-8.475	0.176	0.119
-568.631	-17.001	0.092	0.058
-567.617	-37.775	-0.207	-0.111
-566.602	14.283	0.339	-0.265
-565.588	-122.194	0.221	0.036
-564.573	430.653	0.074	-0.161
-563.558	35.557	-0.072	0.063
-562.544	67.739	0.151	-0.155
-561.529	-200.000	0.016	-0.125
-560.515	-95.484	0.144	0.039
-559.500	139.735	-0.005	0.007
-558.485	306.256	-0.185	-0.345
-557.471	-200.000	-0.004	-0.243
-556.456	-127.618	0.063	0.009
-555.442	-81.316	0.187	0.062
-554.427	133.516	-0.096	-0.125
-553.412	43.258	-0.078	0.072
-552.398	800.000	0.061	0.204
-551.383	75.253	0.174	-0.184
-550.369	749.490	-0.157	0.424
-549.354	-44.966	0.274	-0.137
-548.339	-124.298	0.403	0.063
-547.325	800.000	-0.054	0.212
-546.310	-189.792	0.127	0.001
-545.296	-174.522	0.019	0.001
-544.281	-165.121	0.049	0.002
-543.266	72.921	0.130	0.136
-542.252	67.532	-0.146	0.150
-541.237	-111.254	-0.408	0.084
-540.223	800.000	-0.049	0.166
-539.208	768.805	-0.091	-0.249
-538.193	337.958	0.189	-0.369
-537.179	-24.298	-0.278	-0.166
-536.164	235.876	0.179	-0.297
-535.150	-130.901	-0.198	-0.027
-534.135	207.235	0.098	0.154
-533.121	-121.239	-0.223	-0.037
-532.106	-124.812	-0.382	0.059
-531.091	-45.443	0.164	0.081
-530.077	172.064	0.090	-0.130
-529.062	-27.257	-0.378	0.221
-528.048	-200.000	0.020	0.344
-527.033	-181.676	-0.079	-0.002
-526.018	-111.503	-0.211	0.043
-525.004	800.000	-0.032	0.090
-523.989	-79.802	0.079	0.027
-522.975	-38.763	-0.139	0.073
-521.960	401.418	0.012	-0.025
-520.945	-200.000	-0.006	-0.039
-519.931	-188.278	-0.091	0.001
-518.916	0.183	-0.174	-0.124
-517.902	-106.217	-0.378	0.085
-516.887	-184.452	-0.176	-0.003
-515.872	19.564	-0.170	-0.137
-514.858	700.145	-0.034	0.089
-513.843	360.287	0.142	-0.285
-512.829	202.897	-0.068	-0.106
-511.814	-173.863	0.134	0.004
-510.799	-200.000	-0.012	0.189
-509.785	411.866	0.065	-0.137
-508.770	-200.000	0.010	-0.335
-507.756	-156.233	0.285	0.018
-506.741	-200.000	-0.001	0.151
-505.726	222.741	0.147	0.237
-504.712	-200.000	-0.012	-0.139
-503.697	-200.000	-0.003	-0.069
-502.683	4.972	0.120	0.089
-501.668	800.000	0.094	0.271
-500.653	-51.627	-0.113	-0.053
-499.639	302.694	-0.096	-0.178
-498.624	-200.000	0.005	0.034
-497.610	397.988	-0.080	0.167
-496.595	-164.068	-0.069	0.003
-495.581	-103.110	-0.128	0.030
-494.566	386.774	0.097	0.201
-493.551	57.196	-0.059	0.057
-492.537	125.938	0.142	-0.180
-491.522	-129.064	-0.120	0.017
-490.508	-44.811	-0.126	0.063
-489.493	57.151	-0.199	-0.194
-488.478	169.783	0.155	0.221
-487.464	-129.496	0.368	0.051
-486.449	101.808	-0.164	-0.191
-485.435	-140.361	-0.155	0.016
-484.420	800.000	0.079	0.308
-483.405	-44.798	-0.119	0.060
-482.391	99.891	-0.194	0.225
-481.376	177.702	-0.092	0.134
-480.362	-174.561	0.163	-0.005
-479.347	-60.569	-0.234	0.099
-478.332	-96.009	0.277	-0.074
-477.318	-98.043	-0.202	-0.052
-476.303	12.446	0.202	-0.156
-475.289	-20.845	0.090	-0.055
-474.274	-12.020	-0.178	0.116
-473.259	-200.000	-0.023	0.170
-472.245	-96.812	0.282	-0.074
-471.230	224.128	0.148	0.239
-470.216	22.342	0.132	0.108
-469.201	-123.664	-0.123	0.019
-468.186	560.898	-0.046	-0.112
-467.172	496.524	0.119	-0.274
-466.157	800.000	0.081	0.314
-465.143	7.210	0.031	-0.023
-464.128	286.649	0.037	-0.068
-463.113	-120.117	-0.141	-0.024
-462.099	-171.187	-0.118	0.004
-461.084	267.565	-0.009	-0.015
-460.070	49.930	0.082	0.077
-459.055	-200.000	0.041	0.230
-458.040	152.518	0.244	-0.333
-457.026	800.000	0.028	-0.122
-456.011	-80.624	-0.141	0.047
-454.997	89.651	0.116	-0.130
-453.982	-0.685	-0.244	0.173
-452.968	-114.804	-0.137	-0.026
-451.953	-143.602	-0.164	0.016
-450.938	800.000	0.054	0.211
-449.924	-39.534	-0.065	0.034
-448.909	283.131	-0.116	-0.208
-447.895	252.842	0.080	-0.136
-446.880	-36.369	0.084	0.045
-445.865	-21.126	0.104	0.063
-444.851	-87.255	-0.029	0.009
-443.836	800.000	0.109	-0.334
-442.822	800.000	0.094	0.269
-441.807	-200.000	-0.011	0.242
-440.792	290.816	-0.070	-0.127
-439.778	287.552	0.254	-0.459
-438.763	-51.359	0.216	0.101
-437.749	190.745	-0.039	0.059
-436.734	800.000	-0.057	-0.244
-435.719	-200.000	0.100	0.465
-434.705	-53.766	0.048	0.022
-433.690	-59.200	0.018	0.008
-432.676	-153.808	-0.300	-0.021
-431.661	62.730	0.096	-0.096
-430.646	181.912	0.162	-0.238
-429.632	-149.154	-0.326	0.026
-428.617	-103.903	0.468	-0.109
-427.603	135.853	0.043	0.056
-426.588	-12.396	-0.167	-0.109
-425.573	8.924	-0.164	0.124
-424.559	-98.129	0.066	0.017
-423.544	-20.269	-0.242	0.149
-422.530	-164.764	0.153	-0.007
-421.515	800.000	0.057	-0.201
-420.500	194.330	-0.083	0.125
-419.486	-55.300	0.475	0.213
-418.471	11.281	-0.140	-0.107
-417.457	-36.763	-0.113	0.060
-416.442	37.401	0.069	0.061
-415.428	800.000	0.090	0.257
-414.413	110.074	0.112	0.134
-413.398	800.000	-0.028	0.103
-412.384	390.703	0.096	0.200
-411.369	259.639	-0.076	-0.130
-410.355	254.717	0.076	0.130
-409.340	-14.620	0.176	0.113
-408.325	-200.000	-0.061	-0.360
-407.311	-200.000	0.019	0.215
-406.296	-131.519	0.430	0.057
-405.282	-14.169	-0.237	0.152
-404.267	800.000	0.065	-0.240
-403.252	11.153	-0.161	0.122
-402.238	-35.012	0.460	0.250
-401.223	-66.265	-0.405	0.161
-400.209	-13.302	0.144	-0.093
-399.194	-200.000	0.000	0.032
-398.179	800.000	-0.084	0.246
-397.165	-84.422	-0.201	0.063
-396.150	20.544	0.193	0.156
-395.136	123.326	-0.273	-0.341
-394.121	443.525	0.082	-0.178
-393.106	800.000	-0.029	-0.116
-392.092	70.936	-0.119	-0.122
-391.077	-44.696	-0.346	0.172
-390.063	-72.703	0.383	0.141
-389.048	-200.000	0.013	-0.105
-388.033	568.921	-0.059	-0.144
-387.019	547.575	0.144	0.344
-386.004	-37.433	-0.175	0.093
-384.990	-114.217	0.168	-0.032
-383.975	-43.120	-0.372	-0.188
-382.960	-86.532	-0.189	-0.058
-381.946	-60.443	-0.094	0.040
-380.931	-81.282	0.088	0.029
-379.917	-67.975	0.121	0.047
-378.902	-86.560	-0.089	0.027
-377.888	800.000	-0.059	0.163
-376.873	339.914	-0.122	-0.237
-375.858	172.702	-0.157	-0.226
-374.844	315.810	-0.082	0.154
-373.829	800.000	-0.008	0.023
-372.815	22.193	0.052	-0.043
-371.800	-200.000	0.011	-0.222
-370.785	20.142	0.112	-0.090
-369.771	-58.555	-0.129	0.056
-368.756	36.794	0.177	-0.156
-367.742	-63.468	0.280	0.115
-366.727	-22.211	-0.137	0.083
-365.712	159.346	-0.131	-0.182
-364.698	-18.630	-0.166	0.103
-363.683	-200.000	0.009	0.201
-362.669	125.323	-0.089	0.111
-361.654	228.983	-0.076	0.123
-360.639	-139.116	-0.278	0.030
-359.625	-179.097	-0.205	0.005
-358.610	-58.436	0.349	-0.151
-357.596	-15.291	-0.448	-0.286
-356.581	-200.000	0.000	-0.087
-355.566	199.451	0.057	0.087
-354.552	-200.000	0.010	-0.047
-353.537	65.005	-0.327	-0.329
-352.523	-51.123	-0.287	0.134
-351.508	800.000	-0.097	0.397
-350.493	-72.094	-0.125	-0.046
-349.479	-110.353	-0.360	-0.074
-348.464	29.319	0.091	-0.077
-347.450	-22.554	-0.171	0.103
-346.435	-200.000	-0.003	-0.062
-345.420	-158.005	0.409	-0.024
-344.406	-80.856	-0.240	-0.079
-343.391	-200.000	0.048	0.322
-342.377	37.291	0.128	-0.113
-341.362	317.995	0.075	-0.141
-340.348	-169.095	0.304	0.011
-339.333	-200.000	0.041	-0.215
-338.318	-35.331	0.152	0.082
-337.304	-200.000	-0.049	0.360
-336.289	-200.000	0.021	-0.490
-335.275	617.802	-0.076	-0.191
-334.260	-113.183	-0.364	-0.071
-333.245	-200.000	-0.029	0.203
-332.231	347.894	0.062	0.122
-331.216	-47.872	-0.249	-0.120
-330.202	-2.757	0.192	0.133
-329.187	159.698	0.086	-0.119
-328.172	800.000	-0.033	-0.110
-327.158	47.865	0.139	-0.129
-326.143	-137.161	0.395	0.045
-325.129	-67.529	-0.123	0.048
-324.114	94.357	0.190	-0.214
-323.099	-2.983	0.200	0.139
-322.085	144.498	0.126	-0.167
-321.070	106.213	-0.026	0.030
-320.056	800.000	-0.013	-0.040
-319.041	-107.408	-0.186	0.041
-318.026	-37.605	0.177	-0.094
-317.012	224.568	-0.216	-0.348
-315.997	800.000	0.011	-0.036
-314.983	800.000	0.009	0.039
-313.968	-14.750	-0.099	-0.063
-312.953	38.054	-0.184	-0.163
-311.939	33.302	0.118	0.102
-310.924	17.548	0.203	0.160
-309.910	393.437	0.076	-0.157
-308.895	800.000	-0.003	-0.009
-307.880	-111.859	0.195	0.039
-306.866	-200.000	0.021	0.122
-305.851	-37.333	0.061	-0.032
-304.837	17.641	0.230	0.181
-303.822	30.722	-0.293	0.249
-302.807	197.852	0.158	0.240
-301.793	-200.000	-0.010	-0.131
-300.778	175.723	0.120	0.174
-299.764	29.603	0.085	-0.072
-298.749	-148.975	0.183	0.015
-297.735	-145.871	0.201	-0.018
-296.720	-142.883	-0.074	-0.007
-295.705	50.715	-0.060	0.057
-294.691	-200.000	-0.015	-0.120
-293.676	-149.238	0.024	0.002
-292.662	-95.391	0.114	-0.030
-291.647	197.912	0.152	-0.231
-290.632	-54.737	-0.112	0.050
-289.618	63.365	-0.129	-0.128
-288.603	-2.064	0.116	0.081
-287.589	-162.127	0.089	0.004
-286.574	-66.530	-0.266	0.105
-285.559	-141.013	0.058	0.006
-284.545	-34.374	0.188	-0.102
-283.530	23.464	-0.128	0.105
-282.516	613.453	0.044	0.109
-281.501	-194.335	0.198	0.002
-280.486	271.003	0.106	-0.186
-279.472	302.511	-0.090	0.166
-278.457	-75.979	-0.205	-0.072
-277.443	211.213	-0.068	0.106
-276.428	-24.011	-0.074	0.044
-275.413	-144.544	-0.148	-0.014
-274.399	10.719	-0.151	0.114
-273.384	42.998	-0.110	0.099
-272.370	-72.953	0.598	0.218
-271.355	87.197	-0.203	0.223
-270.340	17.577	-0.174	-0.137
-269.326	-138.258	0.172	-0.019
-268.311	-48.099	0.218	-0.104
-267.297	-160.493	-0.231	0.012
-266.282	-24.583	0.142	0.084
-265.267	162.051	-0.031	-0.043
-264.253	-41.255	0.171	0.087
-263.238	-58.976	-0.151	-0.065
-262.224	-200.000	0.066	-0.395
-261.209	574.778	-0.131	-0.317
-260.195	800.000	0.122	-0.418
-259.180	29.755	0.029	-0.024
-258.165	-61.591	-0.186	-0.077
-257.151	-122.515	0.272	0.044
-256.136	72.262	-0.107	0.110
-255.122	-22.837	-0.224	-0.134
-254.107	-113.513	-0.263	0.051
-253.092	-200.000	-0.005	0.236
-252.078	-169.228	0.187	-0.007
-251.063	-134.488	0.182	0.022
-250.049	-200.000	-0.038	0.189
-249.034	-200.000	-0.019	-0.102
-248.019	-3.064	0.191	0.132
-247.005	-136.124	0.355	0.041
-245.990	-101.981	-0.190	0.045
-244.976	-72.868	-0.333	0.121
-243.961	800.000	-0.048	0.197
-242.946	113.929	-0.121	0.146
-241.932	-38.101	0.256	0.135
-240.917	-77.162	-0.171	0.059
-239.903	800.000	-0.134	-0.369
-238.888	27.188	0.172	-0.143
-237.873	7.111	-0.283	0.209
-236.859	32.574	0.181	-0.155
-235.844	-173.393	-0.352	-0.011
-234.830	-64.804	0.335	-0.134
-233.815	-175.980	0.357	-0.009
-232.800	43.655	-0.222	-0.201
-231.786	219.646	0.113	0.180
-230.771	-140.458	0.018	-0.002
-229.757	-200.000	0.047	0.274
-228.742	800.000	0.082	-0.318
-227.727	-135.586	-0.236	0.028
-226.713	800.000	0.029	0.106
-225.698	436.372	-0.154	-0.331
-224.684	216.363	0.079	0.125
-223.669	112.286	-0.203	0.244
-222.655	765.996	0.081	0.219
-221.640	-35.171	-0.222	0.120
-220.625	-166.268	-0.290	0.012
-219.611	-4.697	-0.061	-0.042
-218.596	-70.339	-0.431	-0.162
-217.582	-148.230	0.237	-0.019
-216.567	-106.614	-0.246	0.054
-215.552	-102.008	0.250	-0.060
-214.538	21.125	0.141	-0.113
-213.523	-200.000	-0.016	-0.138
-212.509	-99.347	0.111	-0.028
-211.494	267.733	0.049	-0.085
-210.479	137.006	0.178	0.231
-209.465	-105.063	-0.165	-0.037
-208.450	472.724	0.058	-0.130
-207.436	800.000	-0.165	0.553
-206.421	21.480	0.108	0.087
-205.406	-25.954	-0.154	0.090
-204.392	-36.811	0.148	0.079
-203.377	-5.958	-0.465	0.315
-202.363	155.062	-0.144	0.196
-201.348	81.725	-0.249	-0.267
-200.333	102.178	-0.145	-0.168
-199.319	-40.977	0.190	0.097
-198.304	-200.000	-0.007	-0.034
-197.290	800.000	0.066	-0.204
-196.275	86.166	0.224	-0.244
-195.260	110.034	0.102	0.121
-194.246	111.427	0.082	0.098
-193.231	-13.137	-0.232	-0.149
-192.217	290.620	0.125	0.225
-191.202	-141.078	0.119	0.012
-190.187	-121.020	-0.260	-0.043
-189.173	-71.017	-0.184	0.068
-188.158	39.670	0.248	-0.220
-187.144	-145.085	0.181	0.016
-186.129	8.445	0.158	0.118
-185.114	49.707	-0.057	0.053
-184.100	-91.181	0.222	0.063
-183.085	800.000	-0.038	-0.164
-182.071	165.085	0.064	-0.090
-181.056	169.259	-0.176	0.249
-180.042	103.174	-0.177	0.205
-179.027	-200.000	-0.024	0.248
-178.012	800.000	-0.045	0.180
-176.998	217.131	0.105	0.166
-175.983	3.631	0.120	0.086
-174.969	57.440	0.169	0.163
-173.954	329.407	-0.028	0.054
-172.939	-5.206	0.274	0.186
-171.925	800.000	-0.085	0.334
-170.910	-200.000	-0.008	-0.286
-169.896	-134.329	-0.260	-0.032
-168.881	-83.613	-0.168	-0.053
-167.866	142.700	0.166	0.218
-166.852	577.181	-0.076	-0.185
-165.837	-155.880	0.200	0.013
-164.823	-200.000	-0.001	-0.368
-163.808	167.727	0.193	-0.271
-162.793	776.331	-0.042	0.115
-161.779	-200.000	-0.000	0.224
-160.764	800.000	-0.017	-0.065
-159.750	800.000	-0.062	-0.186
-158.735	102.234	-0.110	0.128
-157.720	554.538	-0.026	0.063
-156.706	202.348	0.135	-0.205
-155.691	60.450	0.125	0.122
-154.677	-200.000	0.020	-0.098
-153.662	30.722	-0.268	-0.226
-152.647	-15.408	-0.456	0.288
-151.633	-200.000	-0.004	0.121
-150.618	-200.000	0.005	0.088
-149.604	7.720	0.087	0.065
-148.589	253.434	0.054	-0.092
-147.574	376.703	0.090	-0.182
-146.560	-114.093	-0.144	0.028
-145.545	-200.000	0.014	-0.071
-144.531	-200.000	-0.027	0.368
-143.516	-40.786	0.277	0.142
-142.502	-127.503	0.190	-0.027
-141.487	800.000	-0.042	0.122
-140.472	-94.214	-0.202	0.055
-139.458	-98.287	-0.071	-0.018
-138.443	-32.285	-0.366	-0.202
-137.429	-200.000	-0.007	-0.156
-136.414	-126.581	0.299	-0.044
-135.399	-114.851	0.064	0.012
-134.385	32.571	-0.160	-0.136
-133.370	369.323	-0.090	-0.180
-132.356	-200.000	0.067	-0.317
-131.341	-24.830	0.117	-0.068
-130.326	-141.083	-0.119	0.012
-129.312	34.298	0.154	-0.132
-128.297	800.000	0.076	0.282
-127.283	270.213	-0.169	0.292
-126.268	231.386	0.199	0.322
-125.253	245.639	0.036	-0.059
-124.239	227.708	0.096	0.154
-123.224	-97.205	-0.400	0.103
-122.210	7.848	0.139	0.103
-121.195	-117.432	0.306	0.055
-120.180	800.000	0.026	0.089
-119.166	-163.013	0.259	-0.012
-118.151	-10.862	0.140	-0.091
-117.137	103.883	-0.181	0.210
-116.122	97.406	-0.109	-0.123
-115.107	394.734	0.028	0.057
-114.093	201.380	-0.081	0.123
-113.078	-125.334	-0.102	0.015
-112.064	-200.000	-0.004	-0.118
-111.049	-150.399	0.259	-0.020
-110.034	-88.319	-0.368	0.108
-109.020	-90.943	0.240	-0.068
-108.005	159.142	0.154	0.212
-106.991	-55.481	0.228	0.101
-105.976	-81.139	0.270	-0.088
-104.962	201.727	0.061	0.093
-103.947	119.528	-0.120	0.146
-102.932	15.559	0.112	-0.087
-101.918	-200.000	-0.058	-0.338
-100.903	216.746	0.170	-0.267
-99.889	92.050	-0.026	-0.029
-98.874	292.248	0.047	0.084
-97.859	-141.357	0.227	0.023
-96.845	-131.167	0.276	-0.036
-95.830	-75.150	-0.191	0.067
-94.816	-50.642	0.230	0.107
-93.801	-200.000	-0.069	0.398
-92.786	-200.000	-0.077	0.555
-91.772	207.799	-0.110	0.170
-90.757	-141.935	0.275	-0.027
-89.743	-141.577	0.495	-0.049
-88.728	-182.765	-0.102	-0.002
-87.713	33.631	0.106	-0.091
-86.699	-182.240	0.204	-0.004
-85.684	-200.000	0.009	0.051
-84.670	-27.452	-0.071	-0.041
-83.655	46.034	0.243	0.222
-82.640	122.390	0.172	0.212
-81.626	-17.157	-0.225	0.140
-80.611	16.432	0.135	0.105
-79.597	137.994	0.260	0.335
-78.582	-115.704	0.036	0.007
-77.567	-200.000	0.027	0.189
-76.553	-200.000	-0.045	0.204
-75.538	-77.265	-0.439	0.150
-74.524	191.097	-0.162	-0.240
-73.509	800.000	0.009	0.030
-72.494	-132.928	0.125	-0.016
-71.480	-129.553	0.189	-0.026
-70.465	-200.000	-0.004	0.191
-69.451	-200.000	-0.012	0.270
-68.436	-24.121	0.228	-0.134
-67.422	-127.000	-0.186	-0.027
-66.407	52.033	0.192	0.180
-65.392	79.841	-0.068	-0.072
-64.378	800.000	0.063	0.222
-63.363	-200.000	-0.040	0.407
-62.349	131.320	-0.150	-0.190
-61.334	14.870	-0.960	-0.739
-60.319	57.517	0.342	0.329
-59.305	502.177	-0.415	-0.944
-58.290	143.085	0.750	0.981
-57.276	800.000	0.525	1.790
-56.261	-200.000	95.803	571.462
-55.246	626.040	1391.952	3456.156
-54.232	191.407	2590.644	3838.237
-53.217	112.787	2283.219	2721.152
-52.203	43.046	1902.921	1707.841
-51.188	37.146	1693.997	1475.579
-50.173	34.509	1649.284	1417.020
-49.159	52.285	1696.282	1591.560
-48.144	54.328	1713.213	1622.742
-47.130	36.842	1672.251	1454.130
-46.115	33.916	1657.605	1419.515
-45.100	33.819	1653.302	1415.054
-44.086	33.804	1650.363	1412.372
-43.071	33.865	1647.549	1410.355
-42.057	33.867	1644.385	1407.607
-41.042	33.840	1642.447	1405.693
-40.027	33.780	1640.683	1403.686
-39.013	33.782	1638.746	1401.985
-37.998	33.757	1637.702	1400.849
-36.984	33.920	1635.791	1400.364
-35.969	33.941	1634.616	1399.457
-34.954	33.969	1632.878	1398.122
-33.940	33.958	1631.306	1396.636
-32.925	33.936	1629.612	1394.970
-31.911	33.894	1627.748	1393.009
-30.896	33.905	1625.671	1391.261
-29.881	33.900	1624.333	1390.023
-28.867	33.924	1622.956	1388.964
-27.852	34.003	1620.986	1387.797
-26.838	34.001	1619.116	1386.131
-25.823	33.935	1618.600	1385.153
-24.809	34.000	1616.508	1383.776
-23.794	33.990	1615.226	1382.555
-22.779	33.912	1613.908	1380.807
-21.765	33.956	1612.258	1379.653
-20.750	34.002	1610.960	1378.822
-19.736	33.889	1609.276	1376.507
-18.721	33.994	1608.022	1376.142
-17.706	33.971	1606.820	1374.896
-16.692	33.877	1605.555	1373.080
-15.677	33.906	1603.478	1371.458
-14.663	34.002	1602.002	1370.833
-13.648	34.046	1600.685	1369.968
-12.633	33.880	1599.687	1367.862
-11.619	33.998	1597.335	1366.649
-10.604	33.995	1596.182	1365.584
-9.590	34.049	1594.619	1364.582
-8.575	34.027	1593.649	1363.538
-7.560	33.988	1592.682	1362.378
-6.546	33.896	1591.552	1360.699
-5.531	33.909	1590.508	1359.843
-4.517	33.884	1589.276	1358.555
-3.502	33.902	1588.047	1357.580
-2.487	34.068	1586.383	1357.287
-1.473	33.651	1574.013	1343.701
-0.458	30.677	1554.251	1305.935
0.556	27.299	1554.121	1271.780
1.571	24.679	1578.054	1272.628
2.586	24.100	1591.224	1278.974
3.600	21.289	1537.723	1216.323
4.615	13.036	1428.734	1076.406
5.629	6.104	1365.014	984.988
6.644	4.988	1357.242	972.336
7.659	4.868	1356.350	970.867
8.673	4.749	1355.590	969.492
9.688	4.875	1353.725	968.858
10.702	4.900	1350.567	966.666
11.717	7.965	1356.668	990.026
12.731	15.558	1370.333	1047.424
13.746	20.299	1377.799	1082.690
14.761	20.013	1375.869	1079.292
15.775	18.946	1373.067	1070.358
16.790	17.819	1370.579	1061.321
17.804	17.030	1368.042	1054.362
18.819	16.795	1366.582	1051.682
19.834	16.301	1365.929	1048.023
20.848	16.152	1364.311	1045.767
21.863	15.909	1363.229	1043.336
22.877	15.900	1361.366	1041.765
23.892	15.820	1360.907	1040.828
24.907	15.754	1360.671	1040.146
25.921	15.771	1359.755	1039.455
26.936	15.858	1358.643	1039.055
27.950	15.918	1357.630	1038.558
28.965	15.953	1356.563	1037.866
29.980	16.023	1355.562	1037.436
30.994	16.140	1353.931	1036.815
32.009	16.109	1353.468	1036.182
33.023	16.146	1352.190	1035.336
34.038	16.111	1350.513	1033.746
35.053	15.935	1350.133	1032.287
36.067	16.036	1348.469	1031.539
37.082	16.070	1347.011	1030.542
38.096	16.043	1346.601	1029.970
39.111	16.133	1345.451	1029.552
40.126	15.874	1345.489	1027.908
41.140	15.787	1343.925	1026.092
42.155	15.670	1343.637	1025.068
43.169	15.743	1343.022	1024.953
44.184	15.763	1342.634	1024.687
45.199	15.745	1342.792	1024.608
46.213	15.754	1341.967	1023.940
47.228	15.841	1341.597	1024.099
48.242	15.991	1340.129	1023.799
49.257	15.922	1338.550	1022.080
50.271	15.934	1337.364	1021.161
51.286	15.967	1335.835	1020.098
52.301	15.957	1334.520	1018.943
53.315	15.823	1333.288	1017.104
54.330	15.819	1332.501	1016.392
55.344	15.718	1331.535	1014.953
56.359	15.801	1330.287	1014.416
57.374	15.734	1329.466	1013.295
58.388	15.629	1329.365	1012.495
59.403	15.740	1328.167	1012.162
60.417	15.656	1327.607	1011.138
61.432	15.708	1326.356	1010.409
62.447	15.540	1325.597	1008.733
63.461	15.523	1324.296	1007.555
64.476	15.678	1323.045	1007.439
65.490	15.544	1322.221	1005.923
66.505	15.702	1320.153	1005.203
67.520	15.592	1319.774	1004.171
68.534	15.641	1318.745	1003.587
69.549	15.633	1317.622	1002.600
70.563	15.588	1316.415	1001.321
71.578	15.501	1315.444	999.977
72.593	15.478	1314.270	998.858
73.607	15.435	1313.743	998.114
74.622	15.442	1313.026	997.522
75.636	15.476	1312.350	997.123
76.651	15.559	1311.236	996.681
77.666	15.494	1311.343	996.287
78.680	15.514	1310.974	996.043
79.695	15.567	1309.857	995.416
80.709	15.650	1309.043	995.202
81.724	15.735	1308.179	994.960
82.739	15.677	1307.342	993.894
83.753	15.933	1306.301	994.527
84.768	15.964	1305.224	993.801
85.782	16.012	1304.192	993.209
86.797	16.038	1302.978	992.348
87.812	15.874	1301.984	990.538
88.826	15.903	1300.763	989.694
89.841	15.961	1300.130	989.467
90.855	15.990	1298.645	988.420
91.870	16.082	1297.815	988.237
92.884	15.955	1297.298	987.011
93.899	16.052	1296.689	987.029
94.914	16.157	1295.504	986.655
95.928	16.196	1294.854	986.299
96.943	15.927	1294.050	984.029
97.957	16.085	1292.802	983.913
98.972	15.954	1292.083	982.517
99.987	15.953	1291.096	981.677
101.001	16.065	1290.237	981.587
102.016	16.038	1289.200	980.551
103.030	16.116	1287.595	979.700
104.045	16.021	1287.289	978.826
105.060	16.013	1285.631	977.432
106.074	15.851	1284.486	975.536
107.089	15.723	1283.146	973.690
108.103	15.601	1282.237	972.214
109.118	15.608	1280.882	971.139
110.133	15.629	1279.221	969.916
111.147	15.679	1277.931	969.137
112.162	15.614	1277.186	968.116
113.176	15.850	1275.445	968.064
114.191	15.783	1274.941	967.212
115.206	15.805	1273.666	966.287
116.220	15.794	1272.573	965.308
117.235	15.710	1271.380	963.834
118.249	15.705	1270.226	962.847
119.264	15.658	1269.442	961.897
120.279	15.641	1268.422	960.944
121.293	15.594	1267.378	959.798
122.308	15.643	1266.276	959.158
123.322	15.628	1265.065	958.071
124.337	15.624	1264.058	957.200
125.352	15.659	1262.919	956.455
126.366	15.674	1261.372	955.284
127.381	15.578	1260.828	954.241
128.395	15.619	1259.743	953.566
129.410	15.562	1259.079	952.660
130.424	15.695	1258.048	952.550
131.439	15.818	1256.797	952.213
132.454	15.803	1256.284	951.652
133.468	15.877	1255.370	951.296
134.483	15.830	1255.014	950.676
135.497	15.910	1254.089	950.344
136.512	15.870	1252.492	948.824
137.527	15.818	1251.263	947.516
138.541	15.805	1250.072	946.454
139.556	15.813	1248.828	945.473
140.570	15.847	1247.832	944.827
141.585	15.977	1246.694	944.616
142.600	16.026	1245.201	943.675
143.614	16.070	1244.561	943.353
144.629	16.110	1243.813	942.922
145.643	16.001	1242.909	941.544
146.658	16.006	1240.828	939.914
147.673	15.915	1239.457	938.283
148.687	15.955	1238.418	937.637
149.702	15.915	1237.586	936.701
150.716	15.835	1235.690	934.739
151.731	15.834	1234.787	933.972
152.746	15.903	1233.617	933.384
153.760	16.051	1231.904	932.827
154.775	15.940	1231.484	931.813
155.789	15.982	1230.441	931.170
156.804	15.930	1229.673	930.217
157.819	16.082	1228.586	930.152
158.833	16.183	1227.816	930.046
159.848	16.143	1226.992	929.120
160.862	16.134	1226.014	928.245
161.877	15.960	1225.140	926.547
162.892	15.873	1224.223	925.291
163.906	15.852	1223.293	924.394
164.921	15.950	1222.010	923.876
165.935	15.955	1221.450	923.398
166.950	16.155	1220.594	923.767
167.964	15.938	1220.287	922.265
168.979	16.067	1219.031	921.941
169.994	16.069	1218.619	921.555
171.008	16.065	1217.880	920.894
172.023	16.177	1216.757	920.578
173.037	16.252	1216.096	920.401
174.052	16.226	1215.284	919.564
175.067	16.025	1214.021	917.437
176.081	15.999	1213.255	916.631
177.096	16.061	1212.013	915.951
178.110	16.164	1210.927	915.609
179.125	16.254	1210.024	915.330
180.140	16.238	1208.446	913.971
181.154	16.305	1207.271	913.363
182.169	16.281	1206.591	912.641
183.183	16.208	1205.691	911.483
184.198	16.334	1204.576	911.241
185.213	16.264	1203.922	910.284
186.227	16.362	1202.329	909.526
187.242	16.422	1201.417	909.079
188.256	16.412	1200.351	908.140
189.271	16.414	1199.100	907.124
190.286	16.353	1198.309	906.120
191.300	16.007	1197.755	903.767
192.315	15.922	1197.032	902.684
193.329	15.989	1196.719	902.727
194.344	16.036	1195.856	902.249
195.359	16.187	1195.251	902.519
196.373	16.249	1194.947	902.541
197.388	16.306	1194.383	902.342
198.402	16.487	1193.712	902.720
199.417	16.563	1193.431	902.831
200.432	16.604	1192.501	902.267
201.446	16.777	1191.362	902.246
202.461	16.735	1190.989	901.660
203.475	16.726	1189.937	900.738
204.490	16.673	1188.580	899.347
205.504	16.543	1187.046	897.421
206.519	16.543	1186.286	896.764
207.534	16.432	1185.196	895.274
208.548	16.610	1183.733	895.033
209.563	16.601	1183.158	894.470
210.577	16.514	1182.643	893.540
211.592	16.486	1182.047	892.864
212.607	16.641	1180.951	892.777
213.621	16.673	1179.945	892.104
214.636	16.644	1179.278	891.368
215.650	16.718	1178.145	890.824
216.665	16.766	1177.414	890.440
217.680	16.781	1176.972	890.108
218.694	16.834	1175.671	889.323
219.709	16.769	1175.197	888.544
220.723	16.839	1173.788	887.771
221.738	16.782	1173.356	887.067
222.753	16.808	1172.766	886.676
223.767	16.862	1172.075	886.356
224.782	17.025	1171.152	886.434
225.796	17.025	1171.094	886.312
226.811	17.087	1169.899	885.651
227.826	16.878	1169.574	884.237
228.840	16.878	1168.762	883.548
229.855	16.790	1168.049	882.467
230.869	16.944	1166.836	882.276
231.884	16.859	1166.282	881.339
232.899	16.823	1165.397	880.406
233.913	16.756	1164.836	879.552
234.928	16.816	1164.069	879.206
235.942	16.731	1163.307	878.116
236.957	16.773	1162.303	877.497
237.972	16.760	1161.959	877.094
238.986	16.870	1161.018	876.874
240.001	16.837	1160.010	875.862
241.015	16.837	1159.183	875.162
242.030	16.909	1158.893	875.236
243.045	16.849	1158.138	874.279
244.059	16.968	1157.288	874.172
245.074	17.010	1156.595	873.789
246.088	17.107	1155.554	873.423
247.103	17.158	1154.925	873.136
248.117	17.121	1154.542	872.576
249.132	17.292	1153.760	872.789
250.147	17.427	1152.890	872.745
251.161	17.354	1152.820	872.240
252.176	17.382	1152.141	871.794
253.190	17.484	1151.454	871.715
254.205	17.434	1151.057	871.084
255.220	17.677	1149.860	871.343
256.234	17.463	1149.521	869.915
257.249	17.439	1149.100	869.397
258.263	17.478	1148.249	868.877
259.278	17.477	1147.523	868.246
260.293	17.475	1146.926	867.705
261.307	17.613	1146.560	868.054
262.322	17.710	1145.654	867.788
263.336	17.688	1145.177	867.236
264.351	17.658	1144.719	866.659
265.366	17.614	1143.770	865.640
266.380	17.680	1143.049	865.356
267.395	17.659	1142.105	864.454
268.409	17.623	1141.123	863.456
269.424	17.639	1140.656	863.103
270.439	17.662	1140.133	862.751
271.453	17.513	1139.484	861.429
272.468	17.486	1138.420	860.411
273.482	17.521	1137.875	860.098
274.497	17.587	1136.850	859.585
275.512	17.687	1136.268	859.571
276.526	17.618	1135.607	858.648
277.541	17.596	1135.112	858.086
278.555	17.587	1134.228	857.296
279.570	17.713	1133.566	857.356
280.585	17.683	1133.219	856.862
281.599	17.799	1131.975	856.430
282.614	17.750	1131.062	855.416
283.628	17.761	1129.811	854.451
284.643	17.700	1128.966	853.433
285.657	17.686	1127.997	852.555
286.672	17.739	1126.877	851.894
287.687	17.834	1126.573	852.063
288.701	17.743	1125.529	850.746
289.716	17.918	1124.648	850.878
290.730	17.833	1124.146	850.000
291.745	17.845	1123.249	849.305
292.760	17.860	1123.023	849.131
293.774	17.882	1122.519	848.787
294.789	17.953	1121.863	848.570
295.803	17.985	1120.828	847.868
296.818	17.891	1119.913	846.638
297.833	17.958	1118.981	846.189
298.847	17.961	1118.583	845.826
299.862	17.918	1117.666	844.848
300.876	17.899	1117.335	844.427
301.891	18.125	1116.399	844.764
302.906	18.104	1115.725	844.075
303.920	18.121	1115.353	843.800
304.935	18.194	1114.617	843.528
305.949	18.269	1114.141	843.465
306.964	18.208	1113.482	842.593
307.979	18.134	1112.610	841.494
308.993	18.175	1111.989	841.150
310.008	18.317	1110.595	840.719
311.022	18.349	1110.374	840.632
312.037	18.306	1109.359	839.578
313.052	18.310	1108.435	838.826
314.066	18.105	1107.598	837.115
315.081	17.921	1106.985	835.676
316.095	17.961	1105.839	834.934
317.110	18.049	1105.420	834.971
318.125	18.032	1104.479	834.107
319.139	18.093	1103.597	833.662
320.154	18.190	1102.775	833.443
321.168	18.014	1102.690	832.445
322.183	18.137	1101.669	832.200
323.197	18.169	1101.323	832.022
324.212	18.145	1101.063	831.633
325.227	18.224	1100.198	831.291
326.241	18.157	1099.727	830.534
327.256	18.185	1098.932	829.997
328.270	18.150	1097.873	828.955
329.285	18.144	1096.764	828.013
330.300	18.322	1095.567	827.898
331.314	18.182	1094.784	826.556
332.329	18.269	1093.667	826.060
333.343	18.259	1092.863	825.330
334.358	18.300	1092.345	825.067
335.373	18.367	1092.010	825.065
336.387	18.410	1091.011	824.441
337.402	18.445	1090.214	823.933
338.416	18.359	1089.543	822.943
339.431	18.487	1089.298	823.296
340.446	18.552	1088.733	823.109
341.460	18.697	1087.599	822.877
342.475	18.720	1086.739	822.263
343.489	18.723	1085.912	821.579
344.504	18.823	1084.894	821.214
345.519	18.821	1084.180	820.593
346.533	18.810	1083.504	819.952
347.548	18.829	1082.774	819.420
348.562	18.861	1082.131	819.011
349.577	18.765	1081.259	817.822
350.592	18.772	1080.511	817.219
351.606	18.585	1079.484	815.482
352.621	18.502	1079.162	814.772
353.635	18.487	1078.842	814.387
354.650	18.630	1077.495	813.977
355.665	18.602	1077.034	813.424
356.679	18.686	1075.920	812.906
357.694	18.695	1075.842	812.820
358.708	18.739	1075.366	812.595
359.723	18.779	1074.502	812.061
360.738	18.831	1073.719	811.640
361.752	18.811	1073.225	811.103
362.767	18.758	1072.838	810.488
363.781	18.859	1072.606	810.719
364.796	18.739	1071.968	809.595
365.810	18.924	1071.175	809.796
366.825	18.909	1071.062	809.572
367.840	19.053	1070.326	809.621
368.854	19.124	1069.758	809.452
369.869	19.217	1068.707	809.022
370.883	19.094	1068.354	808.106
371.898	18.982	1067.204	806.641
372.913	19.119	1066.400	806.602
373.927	19.099	1066.235	806.313
374.942	19.146	1066.004	806.286
375.956	19.253	1065.188	806.100
376.971	19.191	1064.253	805.030
377.986	19.179	1063.896	804.634
379.000	19.177	1063.661	804.374
380.015	19.325	1062.814	804.355
381.029	19.406	1062.214	804.207
382.044	19.331	1061.735	803.421
383.059	19.390	1060.839	802.951
384.073	19.319	1060.097	801.987
385.088	19.284	1059.607	801.380
386.102	19.266	1058.769	800.591
387.117	19.339	1057.236	799.702
388.132	19.170	1056.541	798.321
389.146	19.244	1055.720	797.972
390.161	19.242	1054.659	797.093
391.175	19.123	1054.197	796.120
392.190	19.274	1053.423	796.165
393.205	19.418	1052.861	796.335
394.219	19.487	1051.791	795.771
395.234	19.303	1051.402	794.560
396.248	19.299	1050.330	793.660
397.263	19.350	1049.040	792.848
398.278	19.241	1048.700	792.021
399.292	19.249	1047.784	791.297
400.307	19.272	1046.927	790.687
401.321	19.224	1046.474	790.053
402.336	19.220	1045.671	789.360
403.350	19.299	1044.726	788.937
404.365	19.335	1044.390	788.780
405.380	19.327	1043.584	788.061
406.394	19.496	1042.583	788.010
407.409	19.428	1042.231	787.363
408.423	19.587	1041.658	787.587
409.438	19.581	1040.744	786.798
410.453	19.644	1040.211	786.610
411.467	19.638	1039.584	786.040
412.482	19.747	1038.884	785.938
413.496	19.703	1038.185	785.137
414.511	19.813	1037.629	785.148
415.526	19.838	1037.166	784.841
416.540	19.998	1037.007	785.380
417.555	19.855	1036.236	784.075
418.569	19.764	1035.748	783.227
419.584	19.936	1034.844	783.249
420.599	19.842	1034.819	782.737
421.613	151.391	1401.256	1791.199
422.628	138.285	1454.628	1791.311
