DTS Sentinel unit serial number:	SN413079Multiplexer serial number:	ORYXHardware model number:	OX4-SRSoftware version number:	ORYX F/W v4.00 Oryx Data Collector v3.7.2.0data status	okinstallation	princeton_trtdifferential loss correction	single-endedforward channel	channel 2reverse channel	N/Adate	2019/09/11time	04:29:10forward acquisition time	60.00reverse acquisition time	0.00gamma	496.2192k internal	0.2329k external	0.2329temperature offset calibration	0.9937default loss term (dB/km)	0.3790temperature slope calibration	1.0000multiplexer offset coefficient	1.0000multiplexer slope coefficient	1.0000fibre end	0.00T internal ref (°C)	29.56T ext. ref 1 (°C)	-0.28T ext. ref 2 (°C)	23.39length (m)	temperature (°C)	Stokes	anti-Stokes-747.200	239.462	0.060	-0.101
-746.185	185.002	0.137	-0.205
-745.171	-2.233	0.067	0.047
-744.156	-200.000	0.010	0.182
-743.142	-41.248	-0.258	-0.134
-742.127	800.000	0.100	0.376
-741.112	-200.000	-0.032	-0.382
-740.098	-126.428	-0.201	-0.030
-739.083	-48.910	0.260	0.126
-738.069	211.957	-0.103	-0.163
-737.054	-9.568	-0.304	0.204
-736.039	332.449	-0.081	-0.157
-735.025	163.253	0.154	0.218
-734.010	56.201	-0.168	0.164
-732.996	-62.001	-0.202	-0.085
-731.981	9.412	0.133	0.102
-730.966	800.000	0.061	0.215
-729.952	135.610	-0.245	-0.321
-728.937	-167.663	-0.329	0.013
-727.923	-151.323	0.128	0.010
-726.908	458.630	-0.163	-0.365
-725.894	-156.833	-0.147	-0.009
-724.879	-62.047	0.045	0.019
-723.864	-9.814	-0.229	-0.154
-722.850	-99.288	0.309	-0.078
-721.835	196.124	-0.141	-0.216
-720.821	800.000	-0.089	-0.329
-719.806	-200.000	-0.020	-0.225
-718.791	-200.000	-0.039	0.403
-717.777	118.785	-0.137	-0.170
-716.762	800.000	0.023	0.084
-715.748	-173.294	-0.420	0.013
-714.733	304.536	-0.101	0.188
-713.718	-200.000	0.023	0.252
-712.704	-17.426	-0.332	-0.210
-711.689	800.000	-0.064	-0.198
-710.675	286.197	-0.093	-0.170
-709.660	215.557	0.228	-0.364
-708.645	-72.058	-0.236	0.088
-707.631	-139.238	0.158	0.017
-706.616	-200.000	-0.099	-0.542
-705.602	-132.192	0.316	0.041
-704.587	-200.000	0.002	0.157
-703.572	108.437	0.270	-0.324
-702.558	187.817	-0.111	-0.166
-701.543	-64.922	-0.413	-0.168
-700.529	107.944	-0.163	-0.195
-699.514	695.569	0.049	0.129
-698.499	-200.000	0.045	-0.397
-697.485	-101.031	-0.064	0.016
-696.470	-164.637	0.162	0.007
-695.456	-200.000	-0.039	-0.244
-694.441	46.069	-0.071	-0.066
-693.426	-38.479	0.377	0.200
-692.412	-3.630	-0.227	-0.159
-691.397	663.748	-0.064	-0.166
-690.383	-118.582	0.052	0.009
-689.368	316.528	-0.063	-0.120
-688.354	-91.644	0.245	0.070
-687.339	2.689	-0.152	-0.111
-686.324	-131.562	0.526	0.070
-685.310	-200.000	-0.026	0.131
-684.295	35.017	-0.303	-0.266
-683.281	-54.502	-0.487	0.222
-682.266	-200.000	-0.010	-0.046
-681.251	800.000	-0.071	-0.265
-680.237	-66.638	-0.249	0.099
-679.222	209.570	-0.187	0.294
-678.208	169.366	0.237	-0.340
-677.193	-39.115	-0.281	-0.148
-676.178	196.873	0.127	-0.195
-675.164	352.323	0.080	-0.159
-674.149	80.542	0.175	-0.189
-673.135	60.924	0.160	-0.160
-672.120	-150.128	-0.111	-0.009
-671.105	257.525	0.044	-0.076
-670.091	117.375	0.147	0.182
-669.076	-50.782	-0.098	0.046
-668.062	61.832	0.109	0.109
-667.047	239.566	-0.067	-0.111
-666.032	-187.135	0.202	0.003
-665.018	-200.000	-0.005	-0.097
-664.003	-100.745	-0.262	-0.065
-662.989	8.954	-0.134	-0.102
-661.974	800.000	-0.071	0.241
-660.959	-200.000	-0.043	-0.271
-659.945	800.000	0.102	-0.392
-658.930	-139.453	0.135	0.014
-657.916	-44.823	0.274	-0.137
-656.901	252.243	-0.236	-0.404
-655.886	-200.000	-0.276	-0.000
-654.872	-200.000	0.002	0.103
-653.857	-129.745	-0.232	0.032
-652.843	241.239	0.154	0.258
-651.828	-123.422	-0.146	-0.023
-650.814	38.208	0.251	-0.225
-649.799	-71.150	-0.275	-0.104
-648.784	-15.323	0.268	0.172
-647.770	-73.426	-0.195	0.071
-646.755	-62.463	0.264	-0.110
-645.741	-200.000	0.010	0.209
-644.726	86.699	0.259	-0.287
-643.711	800.000	0.007	-0.033
-642.697	105.075	0.162	-0.192
-641.682	306.912	0.198	-0.370
-640.668	-154.102	-0.153	-0.010
-639.653	-200.000	-0.066	0.366
-638.638	-29.696	-0.402	-0.230
-637.624	67.766	0.092	-0.095
-636.609	68.942	0.209	0.215
-635.595	-200.000	0.007	0.045
-634.580	800.000	0.098	-0.285
-633.565	-140.521	-0.193	0.020
-632.551	-129.936	0.087	-0.012
-631.536	69.939	0.083	0.086
-630.522	632.260	0.093	-0.237
-629.507	35.306	-0.048	0.042
-628.492	634.888	0.110	0.281
-627.478	-172.811	-0.255	0.008
-626.463	-105.981	-0.220	-0.050
-625.449	91.453	0.229	0.258
-624.434	148.164	-0.081	0.110
-623.419	-77.019	-0.325	0.114
-622.405	-150.473	-0.280	-0.022
-621.390	-171.760	-0.258	-0.008
-620.376	388.238	-0.075	-0.156
-619.361	-200.000	0.044	-0.262
-618.346	-63.435	0.074	-0.030
-617.332	-10.582	-0.434	-0.288
-616.317	-200.000	-0.001	0.159
-615.303	-73.268	-0.100	-0.037
-614.288	107.200	-0.211	-0.252
-613.273	153.240	0.084	0.115
-612.259	52.164	0.155	-0.148
-611.244	130.096	-0.024	0.031
-610.230	-69.625	-0.232	-0.089
-609.215	-19.012	-0.201	0.125
-608.201	86.965	-0.197	0.218
-607.186	-39.259	-0.140	0.074
-606.171	-200.000	0.015	-0.318
-605.157	800.000	0.015	-0.054
-604.142	279.253	0.141	0.251
-603.128	-200.000	-0.007	0.162
-602.113	184.870	0.080	-0.119
-601.098	26.536	0.219	0.184
-600.084	-200.000	-0.032	-0.194
-599.069	-188.631	0.123	-0.002
-598.055	-148.947	-0.467	-0.038
-597.040	-200.000	-0.092	0.432
-596.025	-63.276	0.194	0.080
-595.011	111.963	0.229	0.277
-593.996	101.754	-0.165	0.193
-592.982	-144.060	-0.244	-0.023
-591.967	-200.000	0.044	0.254
-590.952	-200.000	0.008	-0.131
-589.938	-48.685	-0.071	-0.034
-588.923	-135.306	-0.222	-0.027
-587.909	413.123	-0.051	-0.109
-586.894	-136.722	-0.232	0.027
-585.879	65.353	0.108	-0.110
-584.865	-124.502	-0.414	0.064
-583.850	-95.457	-0.141	-0.038
-582.836	-76.664	0.262	-0.092
-581.821	-43.068	-0.217	0.110
-580.806	-12.261	-0.181	0.119
-579.792	454.468	-0.068	0.152
-578.777	-200.000	0.028	0.159
-577.763	633.177	-0.031	0.079
-576.748	-84.095	0.140	0.044
-575.733	800.000	-0.009	-0.036
-574.719	-200.000	0.006	-0.261
-573.704	194.416	-0.106	-0.160
-572.690	-183.709	-0.089	-0.002
-571.675	340.651	0.117	-0.228
-570.661	-39.860	0.142	-0.074
-569.646	800.000	0.044	0.153
-568.631	25.885	0.130	0.109
-567.617	-200.000	-0.054	-0.281
-566.602	800.000	-0.057	0.212
-565.588	423.767	-0.241	0.518
-564.573	-81.478	-0.248	0.082
-563.558	660.773	0.075	-0.194
-562.544	800.000	-0.172	-0.623
-561.529	61.082	0.214	0.212
-560.515	-52.203	0.086	0.040
-559.500	-175.914	-0.149	0.004
-558.485	800.000	-0.121	-0.405
-557.471	87.309	-0.132	-0.146
-556.456	800.000	-0.069	-0.285
-555.442	-91.057	-0.430	-0.123
-554.427	800.000	-0.086	-0.244
-553.412	-50.926	0.094	0.044
-552.398	-41.403	-0.172	-0.088
-551.383	-200.000	-0.063	-0.278
-550.369	-62.439	-0.352	-0.146
-549.354	800.000	-0.019	0.071
-548.339	524.045	0.053	-0.124
-547.325	-115.466	-0.240	0.045
-546.310	0.220	-0.045	0.032
-545.296	-200.000	-0.012	-0.154
-544.281	623.215	-0.066	0.167
-543.266	-200.000	-0.016	-0.205
-542.252	247.828	0.152	-0.257
-541.237	25.533	-0.257	0.214
-540.223	680.995	-0.082	0.213
-539.208	-200.000	-0.007	-0.282
-538.193	-31.299	-0.173	0.097
-537.179	-106.721	0.268	0.059
-536.164	-12.943	0.161	0.105
-535.150	131.334	0.183	-0.235
-534.135	-128.434	-0.260	-0.037
-533.121	-30.035	-0.039	0.022
-532.106	-200.000	0.039	0.179
-531.091	-94.866	-0.125	-0.034
-530.077	-128.240	-0.242	-0.034
-529.062	53.367	0.227	0.218
-528.048	204.110	-0.285	-0.442
-527.033	-15.423	0.238	-0.152
-526.018	93.787	-0.145	-0.164
-525.004	-200.000	-0.001	-0.126
-523.989	394.357	0.147	0.306
-522.975	-20.748	-0.099	0.061
-521.960	22.583	-0.125	0.102
-520.945	-129.791	-0.339	-0.047
-519.931	438.102	0.146	0.318
-518.916	-140.590	0.161	-0.017
-517.902	79.833	-0.097	0.104
-516.887	-91.502	0.248	0.071
-515.872	-57.852	0.161	0.070
-514.858	-134.433	0.191	0.023
-513.843	102.988	-0.143	0.167
-512.829	-200.000	0.023	0.212
-511.814	-67.702	-0.158	-0.062
-510.799	-129.939	-0.448	-0.061
-509.785	484.157	-0.141	-0.320
-508.770	-148.554	0.103	0.008
-507.756	-142.044	0.299	-0.030
-506.741	28.009	-0.048	0.040
-505.726	143.105	-0.122	-0.162
-504.712	-200.000	-0.021	0.145
-503.697	34.691	0.058	-0.051
-502.683	-26.518	-0.152	-0.089
-501.668	722.710	-0.072	-0.191
-500.653	366.098	-0.099	-0.199
-499.639	86.920	0.150	-0.165
-498.624	231.150	0.084	-0.138
-497.610	-200.000	-0.022	0.128
-496.595	125.442	0.172	-0.216
-495.581	443.915	0.093	-0.204
-494.566	44.646	-0.292	-0.268
-493.551	-20.951	0.295	-0.181
-492.537	-117.150	0.427	-0.078
-491.522	-79.965	0.085	0.028
-490.508	-200.000	0.069	-0.334
-489.493	-200.000	-0.037	-0.207
-488.478	-11.351	0.123	-0.081
-487.464	-49.419	0.154	-0.073
-486.449	-106.371	0.141	-0.031
-485.435	208.008	-0.133	-0.207
-484.420	-183.112	-0.015	0.000
-483.405	-112.289	0.125	0.025
-482.391	64.611	-0.282	0.284
-481.376	-42.510	-0.232	-0.118
-480.362	-122.804	0.295	-0.047
-479.347	-200.000	0.029	0.235
-478.332	-104.243	0.225	-0.052
-477.318	78.678	0.204	-0.218
-476.303	800.000	-0.077	0.297
-475.289	45.840	0.338	-0.311
-474.274	191.538	-0.137	0.206
-473.259	148.339	-0.216	0.291
-472.245	-79.828	0.043	-0.015
-471.230	-200.000	-0.021	-0.125
-470.216	660.861	0.053	0.137
-469.201	568.899	0.045	0.109
-468.186	285.512	-0.032	-0.058
-467.172	29.289	-0.337	0.285
-466.157	201.168	0.118	-0.181
-465.143	-175.962	-0.085	-0.002
-464.128	-67.121	0.249	-0.098
-463.113	-45.967	0.291	0.143
-462.099	159.703	0.233	0.323
-461.084	-200.000	0.009	0.116
-460.070	555.188	-0.148	-0.355
-459.055	11.155	-0.243	0.185
-458.040	227.546	-0.122	0.198
-457.026	800.000	-0.075	0.313
-456.011	-13.842	-0.223	-0.143
-454.997	117.777	0.165	0.202
-453.982	-200.000	0.060	0.405
-452.968	-54.558	0.277	0.125
-451.953	15.637	-0.139	0.109
-450.938	-15.085	-0.193	0.123
-449.924	265.195	-0.094	-0.164
-448.909	-38.241	-0.231	-0.122
-447.895	-200.000	0.275	-0.001
-446.880	-19.342	0.071	-0.044
-445.865	-132.051	-0.276	-0.036
-444.851	-119.055	-0.314	0.055
-443.836	182.771	0.057	0.083
-442.822	-200.000	-0.034	-0.312
-441.807	-88.221	0.129	0.038
-440.792	14.330	0.154	0.119
-439.778	800.000	0.119	-0.375
-438.763	224.025	-0.079	0.127
-437.749	104.981	-0.115	0.135
-436.734	-133.173	0.073	-0.009
-435.719	269.918	-0.097	-0.170
-434.705	-102.678	0.197	0.047
-433.690	-200.000	0.025	0.211
-432.676	-200.000	-0.046	0.492
-431.661	-200.000	0.018	0.216
-430.646	800.000	-0.032	-0.100
-429.632	-141.453	0.259	0.026
-428.617	-200.000	0.034	-0.292
-427.603	800.000	0.019	0.072
-426.588	-143.596	0.105	0.010
-425.573	149.443	-0.220	0.296
-424.559	80.408	0.066	-0.071
-423.544	50.802	0.229	0.215
-422.530	-74.973	0.259	-0.092
-421.515	800.000	-0.070	0.194
-420.500	-69.296	-0.306	-0.117
-419.486	-60.110	0.337	-0.143
-418.471	800.000	-0.098	0.313
-417.457	-135.115	0.132	-0.016
-416.442	176.923	0.127	0.183
-415.428	209.447	-0.158	-0.247
-414.413	143.169	0.115	-0.152
-413.398	170.836	0.155	0.220
-412.384	31.709	-0.185	-0.158
-411.369	-123.137	0.431	0.069
-410.355	187.588	0.073	0.109
-409.340	99.664	-0.158	0.182
-408.325	60.236	-0.068	0.066
-407.311	200.928	-0.102	-0.156
-406.296	-153.478	-0.012	0.001
-405.282	-84.976	-0.069	-0.021
-404.267	140.048	-0.036	0.047
-403.252	665.382	0.052	-0.134
-402.238	800.000	-0.071	0.245
-401.223	-18.168	-0.073	-0.045
-400.209	800.000	-0.145	-0.456
-399.194	-22.785	-0.108	-0.065
-398.179	800.000	0.051	-0.149
-397.165	58.262	-0.144	0.140
-396.150	10.126	-0.084	-0.063
-395.136	800.000	-0.076	0.212
-394.121	-139.357	0.200	0.021
-393.106	-200.000	0.055	-0.244
-392.092	-77.631	-0.090	-0.031
-391.077	34.915	0.027	0.023
-390.063	-200.000	-0.006	0.156
-389.048	222.069	-0.139	0.223
-388.033	-21.666	0.301	-0.182
-387.019	-200.000	-0.017	0.141
-386.004	129.361	-0.103	-0.130
-384.990	-154.258	0.145	0.010
-383.975	-126.906	-0.159	-0.023
-382.960	-76.537	-0.168	0.059
-381.946	101.529	0.272	-0.315
-380.931	-200.000	-0.006	-0.350
-379.917	183.736	0.120	0.177
-378.902	462.745	0.085	0.187
-377.888	-155.738	-0.157	-0.010
-376.873	-200.000	0.002	-0.190
-375.858	-31.180	-0.192	0.107
-374.844	10.134	0.336	-0.253
-373.829	-74.213	0.209	0.075
-372.815	52.364	0.239	0.227
-371.800	572.541	-0.126	0.306
-370.785	-200.000	-0.079	0.386
-369.771	800.000	0.032	-0.120
-368.756	304.741	-0.059	-0.108
-367.742	-16.214	0.191	-0.120
-366.727	106.755	0.142	-0.167
-365.712	21.990	-0.247	-0.200
-364.698	730.542	-0.070	0.185
-363.683	-200.000	0.014	-0.229
-362.669	-59.434	-0.296	0.126
-361.654	794.726	0.079	-0.217
-360.639	-200.000	0.000	-0.138
-359.625	-72.089	0.183	0.067
-358.610	21.729	-0.139	-0.112
-357.596	13.080	0.123	-0.095
-356.581	-156.052	0.051	0.003
-355.566	-24.534	-0.097	0.057
-354.552	-200.000	0.052	0.292
-353.537	24.516	0.049	-0.040
-352.523	-160.682	-0.403	-0.021
-351.508	-25.679	0.301	-0.176
-350.493	90.307	-0.141	-0.157
-349.479	80.604	0.232	0.247
-348.464	82.262	0.159	-0.171
-347.450	68.953	-0.133	-0.136
-346.435	800.000	-0.084	0.245
-345.420	800.000	-0.043	-0.142
-344.406	342.789	0.014	0.027
-343.391	62.153	0.261	-0.258
-342.377	738.989	-0.121	0.321
-341.362	204.708	-0.165	-0.254
-340.348	-55.559	-0.174	0.077
-339.333	-23.943	0.190	-0.112
-338.318	-80.737	0.183	-0.060
-337.304	349.713	0.038	-0.075
-336.289	122.465	0.070	0.087
-335.275	-73.942	0.212	-0.076
-334.260	-110.984	-0.184	-0.037
-333.245	77.772	0.101	0.107
-332.231	-135.953	-0.197	-0.023
-331.216	-102.526	0.212	0.050
-330.202	-72.966	-0.050	0.018
-329.187	-199.510	-0.296	-0.002
-328.172	-10.075	0.283	-0.187
-327.158	172.367	0.056	0.080
-326.143	34.590	-0.179	0.155
-325.129	-95.524	-0.120	-0.032
-324.114	-113.791	0.094	0.018
-323.099	124.485	-0.190	0.237
-322.085	-200.000	0.017	0.216
-321.070	-11.007	0.174	-0.114
-320.056	-26.891	-0.246	0.142
-319.041	-4.662	-0.306	0.210
-318.026	-188.749	0.309	-0.004
-317.012	133.831	0.068	-0.087
-315.997	-121.672	-0.195	-0.032
-314.983	-51.055	0.101	0.047
-313.968	800.000	-0.037	0.119
-312.953	260.837	0.085	-0.145
-311.939	-200.000	0.019	0.346
-310.924	632.156	0.015	0.039
-309.910	41.832	0.077	-0.069
-308.895	359.619	0.105	-0.208
-307.880	-200.000	-0.092	-0.426
-306.866	-200.000	-0.019	-0.229
-305.851	-200.000	0.017	-0.187
-304.837	-159.847	0.083	-0.004
-303.822	-200.000	0.040	-0.284
-302.807	156.847	0.222	-0.304
-301.793	-200.000	-0.007	0.302
-300.778	-28.272	0.309	-0.177
-299.764	-57.542	0.032	-0.014
-298.749	42.819	-0.079	-0.071
-297.735	14.802	0.137	0.106
-296.720	800.000	-0.042	0.165
-295.705	81.686	-0.049	-0.052
-294.691	37.772	0.163	-0.144
-293.676	-66.713	0.295	-0.116
-292.662	-8.305	-0.386	0.257
-291.647	-60.657	0.242	0.102
-290.632	-200.000	0.017	-0.291
-289.618	74.702	-0.103	-0.107
-288.603	-163.180	-0.102	0.005
-287.589	-161.126	0.121	-0.006
-286.574	-179.244	-0.042	-0.001
-285.559	-200.000	-0.012	0.150
-284.545	21.501	0.217	-0.175
-283.530	39.840	0.111	-0.099
-282.516	-80.730	0.302	-0.099
-281.501	-75.135	-0.390	-0.138
-280.486	253.925	-0.104	0.177
-279.472	79.183	0.132	-0.140
-278.457	28.127	-0.100	-0.083
-277.443	92.398	-0.068	-0.075
-276.428	414.290	-0.053	-0.111
-275.413	-74.957	0.105	-0.037
-274.399	-68.811	-0.097	-0.037
-273.384	-53.800	0.159	-0.072
-272.370	63.181	0.141	0.140
-271.355	507.986	-0.059	-0.134
-270.340	-132.214	0.301	0.039
-269.326	-39.748	0.306	-0.158
-268.311	-85.402	0.212	-0.065
-267.297	-36.236	0.165	0.088
-266.282	-200.000	0.008	0.108
-265.267	-76.520	0.289	0.100
-264.253	249.741	0.154	-0.257
-263.238	-69.907	0.268	0.101
-262.224	315.978	-0.083	0.154
-261.209	-200.000	0.025	0.305
-260.195	-106.607	-0.175	0.039
-259.180	800.000	-0.064	-0.262
-258.165	341.578	0.180	-0.347
-257.151	-200.000	-0.018	-0.307
-256.136	123.775	0.159	0.197
-255.122	263.011	0.088	0.151
-254.107	-103.649	-0.094	-0.022
-253.092	-18.365	0.133	0.082
-252.078	800.000	0.149	0.407
-251.063	-200.000	-0.029	0.315
-250.049	387.682	-0.149	0.304
-249.034	56.757	0.209	-0.201
-248.019	-54.525	-0.350	0.157
-247.005	73.430	0.234	0.242
-245.990	-126.618	0.470	0.069
-244.976	22.497	0.136	-0.110
-243.961	-104.693	-0.435	0.099
-242.946	-117.759	0.159	0.028
-241.932	217.115	-0.185	0.291
-240.917	739.292	-0.089	-0.235
-239.903	44.191	0.140	0.127
-238.888	23.308	-0.185	-0.150
-237.873	-40.200	0.416	0.214
-236.859	158.364	-0.294	0.403
-235.844	282.813	-0.155	0.274
-234.830	314.308	0.066	-0.123
-233.815	-91.581	0.335	0.094
-232.800	-84.987	-0.326	-0.101
-231.786	205.342	0.133	0.204
-230.771	-9.846	0.133	0.087
-229.757	-200.000	0.001	-0.117
-228.742	-114.315	-0.240	-0.046
-227.727	44.495	0.357	-0.324
-226.713	3.227	0.246	-0.176
-225.698	-65.830	0.221	0.087
-224.684	-200.000	-0.024	0.198
-223.669	12.365	0.213	-0.162
-222.655	131.249	0.172	0.218
-221.640	-200.000	-0.112	0.000
-220.625	-2.952	0.073	0.050
-219.611	2.113	-0.294	0.209
-218.596	295.395	0.186	0.335
-217.582	-122.193	-0.435	-0.070
-216.567	-143.159	-0.144	-0.014
-215.552	-200.000	0.035	-0.223
-214.538	-194.024	-0.114	-0.001
-213.523	699.092	0.090	0.233
-212.509	-81.748	-0.233	0.075
-211.494	197.751	0.020	-0.030
-210.479	-200.000	-0.017	-0.186
-209.465	-40.230	-0.395	0.203
-208.450	-110.914	-0.172	0.035
-207.436	57.776	-0.120	0.116
-206.421	179.207	-0.238	0.344
-205.406	-56.933	0.131	-0.057
-204.392	15.221	-0.111	-0.086
-203.377	780.006	-0.059	-0.159
-202.363	-200.000	0.111	-0.566
-201.348	-49.194	0.271	0.128
-200.333	250.508	0.223	0.374
-199.319	-77.895	-0.354	-0.120
-198.304	156.692	-0.135	0.184
-197.290	-84.664	-0.071	-0.022
-196.275	-37.728	-0.160	-0.084
-195.260	-116.782	0.358	0.065
-194.246	95.951	-0.318	-0.358
-193.231	715.796	0.071	-0.187
-192.217	-31.667	0.216	-0.120
-191.202	800.000	-0.044	-0.166
-190.187	-118.172	0.234	-0.041
-189.173	-24.301	0.109	-0.064
-188.158	-104.264	-0.242	0.055
-187.144	201.755	-0.084	-0.128
-186.129	800.000	0.038	0.127
-185.114	218.837	-0.026	-0.041
-184.100	25.231	-0.013	0.011
-183.085	73.650	0.205	-0.212
-182.071	-29.287	-0.099	-0.056
-181.056	208.498	0.213	0.328
-180.042	111.787	0.092	0.110
-179.027	-143.490	-0.155	-0.015
-178.012	143.920	-0.136	-0.178
-176.998	800.000	0.126	0.418
-175.983	164.878	0.102	-0.142
-174.969	76.553	0.104	0.109
-173.954	660.286	0.039	0.098
-172.939	-82.643	0.175	-0.056
-171.925	285.396	-0.128	-0.227
-170.910	-200.000	-0.009	0.245
-169.896	-88.631	0.186	0.054
-168.881	53.274	-0.178	0.168
-167.866	800.000	-0.052	-0.162
-166.852	36.745	0.243	-0.212
-165.837	-200.000	0.038	0.227
-164.823	-158.701	0.115	0.006
-163.808	-200.000	0.016	0.405
-162.793	14.393	-0.086	-0.066
-161.779	46.144	-0.232	0.212
-160.764	-56.309	0.220	0.096
-159.750	-200.000	-0.032	-0.156
-158.735	-60.687	0.156	-0.065
-157.720	137.788	0.004	-0.005
-156.706	-52.288	-0.091	0.041
-155.691	-49.775	-0.152	0.071
-154.677	360.454	0.173	0.341
-153.662	800.000	-0.069	0.231
-152.647	1.724	-0.237	0.168
-151.633	-141.836	0.244	-0.024
-150.618	-200.000	-0.070	-0.341
-149.604	-57.633	0.392	0.169
-148.589	715.628	-0.203	0.530
-147.574	601.525	-0.041	-0.101
-146.560	-130.433	-0.139	0.018
-145.545	690.492	-0.160	0.413
-144.531	-14.162	-0.085	0.054
-143.516	184.477	0.132	-0.193
-142.502	36.359	0.178	-0.155
-141.487	-59.441	0.045	0.019
-140.472	148.644	-0.121	0.161
-139.458	-71.835	0.090	0.033
-138.443	392.442	-0.301	0.615
-137.429	232.567	-0.152	0.245
-136.414	-200.000	0.015	-0.320
-135.399	-117.514	0.211	0.037
-134.385	407.106	-0.173	-0.359
-133.370	-13.256	0.332	0.212
-132.356	800.000	-0.083	-0.260
-131.341	31.183	0.107	-0.090
-130.326	-94.227	0.304	-0.082
-129.312	-136.487	-0.026	0.003
-128.297	-152.803	0.127	0.009
-127.283	-200.000	0.035	0.162
-126.268	-68.912	0.124	0.047
-125.253	-106.657	0.377	0.082
-124.239	-122.995	-0.454	0.072
-123.224	92.353	-0.152	0.169
-122.210	-65.443	-0.263	0.104
-121.195	-145.163	0.056	0.005
-120.180	606.619	0.027	0.067
-119.166	-110.575	0.300	-0.061
-118.151	-138.093	-0.223	-0.024
-117.137	592.714	0.122	-0.296
-116.122	-37.161	0.278	-0.146
-115.107	-200.000	-0.024	-0.318
-114.093	50.989	-0.095	0.088
-113.078	-200.000	0.009	0.183
-112.064	-200.000	-0.028	0.220
-111.049	800.000	-0.069	-0.235
-110.034	-128.473	0.157	0.022
-109.020	395.745	-0.053	0.109
-108.005	-119.648	-0.400	-0.068
-106.991	-133.370	-0.273	0.034
-105.976	-121.170	-0.032	-0.005
-104.962	265.770	0.136	0.232
-103.947	-168.648	0.035	0.001
-102.932	-200.000	0.061	-0.342
-101.918	272.048	0.033	0.057
-100.903	800.000	0.029	0.081
-99.889	185.303	0.187	-0.272
-98.874	-8.137	-0.287	0.190
-97.859	-107.677	-0.123	-0.026
-96.845	-200.000	0.027	0.241
-95.830	121.392	0.186	-0.228
-94.816	-200.000	-0.035	0.260
-93.801	136.888	-0.115	0.147
-92.786	207.860	0.178	0.273
-91.772	-150.301	0.159	-0.012
-90.757	15.201	0.069	0.053
-89.743	506.698	-0.129	-0.294
-88.728	170.453	-0.081	0.114
-87.713	482.487	0.051	0.114
-86.699	37.786	0.101	-0.088
-85.684	86.655	0.270	-0.292
-84.670	-51.219	-0.203	0.093
-83.655	383.079	-0.141	0.284
-82.640	-109.855	-0.313	0.064
-81.626	20.231	0.167	-0.132
-80.611	-41.085	0.179	0.091
-79.597	22.911	0.408	-0.329
-78.582	41.509	-0.215	0.191
-77.567	-53.493	0.119	0.054
-76.553	251.620	0.082	0.136
-75.538	-134.540	0.164	-0.020
-74.524	-46.637	0.184	-0.088
-73.509	171.081	0.080	-0.113
-72.494	-200.000	0.009	0.075
-71.480	-26.798	-0.208	-0.119
-70.465	-147.977	-0.185	0.015
-69.451	-200.000	-0.006	0.041
-68.436	-85.929	-0.153	-0.046
-67.422	-121.624	-0.186	0.030
-66.407	-105.489	0.282	0.063
-65.392	800.000	-0.119	0.475
-64.378	59.703	-0.108	-0.105
-63.363	-35.062	-0.416	-0.222
-62.349	402.649	0.080	0.165
-61.334	70.964	-0.938	-0.953
-60.319	147.137	0.545	0.718
-59.305	-200.000	-0.166	-0.924
-58.290	288.938	0.542	0.963
-57.276	800.000	0.566	1.560
-56.261	-200.000	105.766	612.817
-55.246	504.434	1507.345	3420.486
-54.232	174.742	2710.275	3844.717
-53.217	104.725	2301.946	2659.349
-52.203	38.881	1905.219	1668.252
-51.188	32.689	1691.647	1434.253
-50.173	30.079	1648.433	1378.178
-49.159	49.072	1702.231	1567.213
-48.144	49.509	1716.689	1583.761
-47.130	32.313	1674.737	1416.860
-46.115	29.648	1660.039	1384.434
-45.100	29.566	1654.678	1379.300
-44.086	29.458	1652.533	1376.649
-43.071	29.502	1649.514	1374.410
-42.057	29.340	1647.652	1371.597
-41.042	29.439	1645.313	1370.327
-40.027	29.485	1643.108	1368.775
-39.013	29.435	1641.057	1366.646
-37.998	29.339	1640.226	1365.192
-36.984	29.471	1638.412	1364.601
-35.969	29.513	1637.326	1363.951
-34.954	29.643	1635.160	1363.052
-33.940	29.542	1633.815	1361.135
-32.925	29.673	1631.880	1360.434
-31.911	29.592	1630.059	1358.264
-30.896	29.508	1628.339	1356.158
-29.881	29.570	1626.787	1355.266
-28.867	29.518	1625.201	1353.515
-27.852	29.443	1624.107	1351.996
-26.838	29.485	1622.617	1351.014
-25.823	29.565	1621.051	1350.239
-24.809	29.589	1619.856	1349.368
-23.794	29.560	1618.394	1347.880
-22.779	29.543	1617.627	1347.069
-21.765	29.533	1615.204	1344.924
-20.750	29.575	1613.163	1343.476
-19.736	29.507	1612.370	1342.266
-18.721	29.598	1610.574	1341.383
-17.706	29.517	1609.441	1339.795
-16.692	29.660	1607.357	1339.044
-15.677	29.607	1606.305	1337.726
-14.663	29.696	1604.941	1337.188
-13.648	29.668	1603.567	1335.781
-12.633	29.604	1601.974	1333.944
-11.619	29.550	1600.592	1332.348
-10.604	29.692	1599.103	1332.077
-9.590	29.654	1597.679	1330.570
-8.575	29.687	1596.280	1329.589
-7.560	29.630	1595.821	1328.738
-6.546	29.618	1594.715	1327.682
-5.531	29.575	1593.383	1326.212
-4.517	29.566	1592.414	1325.289
-3.502	29.619	1591.104	1324.528
-2.487	29.580	1589.828	1323.131
-1.473	29.291	1577.930	1311.123
-0.458	26.624	1558.377	1276.062
0.556	20.766	1560.563	1246.060
1.571	18.615	1585.222	1249.981
2.586	18.359	1598.841	1258.728
3.600	16.627	1546.257	1204.901
4.615	8.753	1436.743	1067.180
5.629	1.225	1372.312	971.177
6.644	-0.272	1364.337	955.915
7.659	-0.221	1362.991	955.209
8.673	-0.306	1362.189	954.025
9.688	-0.341	1360.020	952.200
10.702	-0.524	1356.957	948.813
11.717	3.109	1364.249	976.933
12.731	12.342	1382.190	1048.888
13.746	19.811	1393.813	1105.533
14.761	21.685	1396.370	1119.447
15.775	21.994	1396.379	1121.329
16.790	22.129	1395.825	1121.652
17.804	22.141	1395.377	1121.269
18.819	22.297	1395.169	1121.994
19.834	22.396	1394.479	1121.974
20.848	22.456	1393.691	1121.624
21.863	22.450	1393.009	1120.937
22.877	22.428	1392.463	1120.259
23.892	22.449	1391.489	1119.509
24.907	22.552	1390.151	1118.984
25.921	22.451	1389.561	1117.774
26.936	22.444	1388.369	1116.670
27.950	22.550	1387.178	1116.285
28.965	22.452	1386.287	1114.846
29.980	22.356	1384.959	1113.074
30.994	22.384	1383.948	1112.339
32.009	22.449	1382.958	1111.859
33.023	22.377	1381.975	1110.516
34.038	22.471	1380.535	1109.848
35.053	22.415	1379.868	1108.862
36.067	22.363	1378.881	1107.647
37.082	22.450	1377.856	1107.272
38.096	22.452	1376.652	1106.217
39.111	22.456	1376.239	1105.813
40.126	22.456	1375.616	1105.214
41.140	22.429	1374.842	1104.326
42.155	22.447	1374.729	1104.247
43.169	22.373	1374.983	1103.889
44.184	22.388	1374.143	1103.210
45.199	22.467	1373.728	1103.280
46.213	22.443	1373.062	1102.497
47.228	22.493	1372.114	1101.947
48.242	22.452	1370.810	1100.550
49.257	22.426	1369.638	1099.345
50.271	22.435	1368.107	1098.078
51.286	22.497	1366.218	1096.848
52.301	22.532	1365.333	1096.260
53.315	22.425	1365.008	1095.238
54.330	22.442	1364.161	1094.564
55.344	22.559	1362.276	1093.684
56.359	22.308	1361.782	1091.630
57.374	22.500	1360.910	1092.026
58.388	22.436	1360.115	1090.895
59.403	22.438	1360.202	1090.881
60.417	22.519	1358.953	1090.283
61.432	22.440	1358.180	1089.081
62.447	22.495	1357.411	1088.706
63.461	22.320	1356.479	1086.782
64.476	22.459	1355.073	1086.415
65.490	22.477	1354.162	1085.700
66.505	22.477	1352.770	1084.490
67.520	22.440	1351.386	1083.057
68.534	22.483	1350.659	1082.643
69.549	22.435	1349.545	1081.360
70.563	22.501	1348.861	1081.118
71.578	22.540	1347.761	1080.380
72.593	22.552	1347.124	1079.851
73.607	22.515	1346.178	1078.771
74.622	22.490	1345.697	1078.135
75.636	22.544	1344.669	1077.545
76.651	22.468	1343.902	1076.374
77.666	22.413	1343.448	1075.577
78.680	22.548	1342.610	1075.634
79.695	22.483	1342.175	1074.794
80.709	22.519	1341.312	1074.225
81.724	22.496	1340.538	1073.371
82.739	22.458	1339.585	1072.280
83.753	22.548	1338.823	1072.125
84.768	22.410	1337.716	1070.305
85.782	22.507	1336.247	1069.626
86.797	22.522	1335.182	1068.767
87.812	22.644	1333.977	1068.446
88.826	22.512	1333.045	1066.806
89.841	22.567	1331.772	1066.029
90.855	22.530	1331.086	1065.163
91.870	22.603	1329.704	1064.401
92.884	22.558	1329.371	1063.766
93.899	22.582	1328.727	1063.304
94.914	22.620	1327.737	1062.648
95.928	22.577	1326.859	1061.591
96.943	22.533	1326.122	1060.642
97.957	22.607	1325.530	1060.520
98.972	22.490	1324.728	1059.081
99.987	22.524	1323.536	1058.242
101.001	22.354	1322.730	1056.480
102.016	22.509	1321.404	1056.259
103.030	22.533	1320.621	1055.679
104.045	22.541	1319.819	1054.997
105.060	22.581	1318.722	1054.262
106.074	22.633	1317.632	1053.610
107.089	22.664	1316.467	1052.771
108.103	22.632	1315.478	1051.698
109.118	22.658	1314.509	1050.983
110.133	22.639	1313.234	1049.760
111.147	22.640	1312.376	1048.988
112.162	22.639	1311.055	1047.829
113.176	22.579	1309.989	1046.527
114.191	22.691	1309.336	1046.581
115.206	22.668	1307.843	1045.158
116.220	22.541	1307.689	1044.188
117.235	22.632	1306.498	1043.683
118.249	22.612	1305.131	1042.385
119.264	22.634	1304.094	1041.593
120.279	22.541	1303.884	1040.785
121.293	22.701	1302.848	1040.807
122.308	22.709	1301.844	1039.958
123.322	22.697	1300.753	1038.926
124.337	22.630	1300.192	1037.989
125.352	22.650	1298.809	1036.917
126.366	22.609	1298.526	1036.354
127.381	22.734	1297.424	1036.118
128.395	22.661	1296.599	1034.936
129.410	22.547	1296.252	1033.903
130.424	22.690	1294.954	1033.613
131.439	22.664	1294.065	1032.658
132.454	22.669	1293.192	1031.900
133.468	22.629	1292.805	1031.269
134.483	22.651	1292.164	1030.792
135.497	22.590	1290.993	1029.409
136.512	22.656	1289.735	1028.701
137.527	22.735	1288.510	1028.097
138.541	22.627	1287.410	1026.494
139.556	22.498	1286.564	1024.979
140.570	22.530	1285.658	1024.353
141.585	22.554	1284.143	1023.194
142.600	22.576	1283.032	1022.346
143.614	22.619	1282.374	1021.983
144.629	22.508	1281.893	1020.864
145.643	22.481	1280.484	1019.497
146.658	22.606	1279.083	1019.013
147.673	22.520	1278.489	1017.956
148.687	22.488	1277.668	1017.023
149.702	22.589	1275.947	1016.146
150.716	22.664	1274.491	1015.333
151.731	22.589	1273.564	1014.068
152.746	22.573	1272.744	1013.234
153.760	22.764	1271.273	1013.072
154.775	22.675	1271.049	1012.293
155.789	22.717	1270.040	1011.641
156.804	22.518	1269.353	1009.864
157.819	22.517	1268.528	1009.112
158.833	22.612	1267.896	1009.061
159.848	22.705	1266.701	1008.555
160.862	22.669	1265.973	1007.682
161.877	22.730	1265.047	1007.202
162.892	22.754	1264.431	1006.760
163.906	22.810	1263.295	1006.087
164.921	22.790	1262.653	1005.370
165.935	22.723	1261.723	1004.163
166.950	22.731	1261.522	1003.958
167.964	22.719	1260.892	1003.297
168.979	22.765	1260.097	1002.838
169.994	22.768	1259.667	1002.427
171.008	22.744	1258.775	1001.488
172.023	22.806	1258.269	1001.347
173.037	22.743	1257.728	1000.473
174.052	22.794	1256.489	999.689
175.067	22.752	1256.009	998.982
176.081	22.962	1254.564	998.931
177.096	22.796	1253.660	997.183
178.110	22.701	1253.528	996.455
179.125	22.781	1252.504	996.004
180.140	22.844	1251.355	995.357
181.154	22.754	1250.384	993.990
182.169	22.734	1249.140	992.798
183.183	22.811	1248.279	992.458
184.198	22.876	1246.914	991.655
185.213	22.808	1246.620	990.950
186.227	22.968	1245.113	990.563
187.242	22.848	1244.552	989.352
188.256	22.853	1243.544	988.495
189.271	23.031	1242.388	988.484
190.286	22.841	1242.164	987.152
191.300	22.905	1241.400	986.816
192.315	22.924	1240.874	986.417
193.329	22.883	1240.413	985.733
194.344	22.955	1239.978	985.703
195.359	22.857	1239.932	985.034
196.373	22.846	1239.410	984.471
197.388	22.753	1238.839	983.413
198.402	22.769	1238.635	983.254
199.417	22.831	1238.284	983.231
200.432	22.859	1237.510	982.687
201.446	22.864	1236.624	981.923
202.461	22.928	1235.643	981.412
203.475	22.840	1235.001	980.327
204.490	22.830	1234.065	979.444
205.504	22.827	1233.201	978.656
206.519	22.944	1232.105	978.345
207.534	22.838	1231.528	977.213
208.548	22.904	1230.330	976.541
209.563	22.994	1229.337	976.164
210.577	23.093	1227.825	975.423
211.592	22.992	1227.634	974.627
212.607	22.922	1227.411	973.980
213.621	23.085	1226.274	973.887
214.636	23.053	1225.523	973.028
215.650	23.063	1224.336	972.055
216.665	23.043	1223.513	971.208
217.680	22.892	1223.379	970.186
218.694	23.036	1221.721	969.574
219.709	23.047	1221.396	969.291
220.723	23.004	1220.592	968.333
221.738	22.955	1219.980	967.494
222.753	22.890	1219.217	966.447
223.767	23.030	1218.742	966.750
224.782	23.035	1218.134	966.210
225.796	22.981	1217.824	965.583
226.811	23.054	1216.869	965.137
227.826	23.035	1216.471	964.631
228.840	23.094	1215.798	964.335
229.855	23.006	1215.449	963.491
230.869	23.098	1214.754	963.360
231.884	23.046	1213.782	962.218
232.899	23.069	1213.081	961.706
233.913	22.988	1212.391	960.634
234.928	23.149	1212.251	961.314
235.942	23.218	1211.321	960.864
236.957	23.121	1210.713	959.769
237.972	23.174	1209.939	959.358
238.986	23.074	1209.579	958.444
240.001	23.134	1208.996	958.227
241.015	23.383	1207.812	958.550
242.030	23.350	1206.870	957.538
243.045	23.297	1206.224	956.653
244.059	23.215	1205.840	955.821
245.074	23.273	1204.613	955.078
246.088	23.220	1204.591	954.691
247.103	23.280	1203.643	954.176
248.117	23.227	1202.974	953.275
249.132	23.174	1201.924	952.073
250.147	23.249	1201.411	951.986
251.161	23.238	1200.735	951.310
252.176	23.317	1199.735	950.857
253.190	23.318	1199.019	950.212
254.205	23.274	1198.450	949.438
255.220	23.307	1197.882	949.084
256.234	23.302	1197.480	948.655
257.249	23.299	1196.757	947.981
258.263	23.262	1196.219	947.274
259.278	23.348	1195.779	947.300
260.293	23.387	1195.057	946.854
261.307	23.406	1194.546	946.466
262.322	23.416	1193.876	945.903
263.336	23.509	1192.846	945.503
264.351	23.429	1192.499	944.718
265.366	23.461	1191.763	944.221
266.380	23.398	1191.487	943.580
267.395	23.401	1190.755	942.936
268.409	23.418	1190.020	942.357
269.424	23.407	1189.376	941.708
270.439	23.401	1189.038	941.324
271.453	23.417	1188.090	940.578
272.468	23.387	1187.461	939.837
273.482	23.406	1186.795	939.326
274.497	23.436	1186.504	939.170
275.512	23.507	1185.721	938.843
276.526	23.407	1185.226	937.841
277.541	23.467	1184.506	937.505
278.555	23.542	1183.811	937.268
279.570	23.573	1182.930	936.652
280.585	23.521	1182.309	935.803
281.599	23.549	1181.262	935.035
282.614	23.522	1180.614	934.298
283.628	23.539	1179.223	933.207
284.643	23.512	1178.978	932.786
285.657	23.507	1177.652	931.629
286.672	23.614	1176.923	931.532
287.687	23.592	1176.175	930.742
288.701	23.561	1175.593	930.039
289.716	23.577	1175.265	929.779
290.730	23.681	1174.265	929.448
291.745	23.703	1173.521	928.897
292.760	23.588	1173.440	928.145
293.774	23.607	1172.817	927.670
294.789	23.725	1172.033	927.586
295.803	23.687	1171.914	927.208
296.818	23.625	1170.968	926.056
297.833	23.623	1170.239	925.388
298.847	23.628	1169.499	924.745
299.862	23.761	1168.546	924.602
300.876	23.704	1167.949	923.753
301.891	23.850	1167.221	923.853
302.906	23.856	1166.600	923.313
303.920	23.864	1166.022	922.816
304.935	23.851	1165.366	922.146
305.949	23.886	1164.604	921.641
306.964	23.734	1164.365	920.587
307.979	23.836	1163.211	920.120
308.993	23.804	1162.854	919.588
310.008	23.837	1161.967	918.976
311.022	23.849	1161.378	918.489
312.037	23.789	1160.521	917.420
313.052	23.735	1160.282	916.871
314.066	23.725	1159.135	915.837
315.081	23.675	1158.315	914.848
316.095	23.839	1157.834	915.231
317.110	23.854	1156.991	914.560
318.125	23.995	1156.540	914.849
319.139	23.924	1155.637	913.690
320.154	23.876	1155.115	912.948
321.168	23.959	1154.503	912.812
322.183	23.909	1153.820	911.933
323.197	23.948	1153.438	911.752
324.212	23.914	1152.946	911.109
325.227	23.871	1152.441	910.406
326.241	23.997	1151.873	910.524
327.256	24.020	1151.144	909.984
328.270	24.002	1150.210	909.070
329.285	24.002	1149.342	908.306
330.300	23.932	1148.899	907.520
331.314	23.939	1147.730	906.549
332.329	23.943	1147.448	906.267
333.343	23.992	1146.601	905.771
334.358	24.031	1145.683	905.161
335.373	24.077	1145.196	904.929
336.387	24.187	1144.255	904.663
337.402	24.009	1143.791	903.314
338.416	24.102	1143.028	903.102
339.431	24.022	1142.330	902.068
340.446	24.175	1141.848	902.379
341.460	24.202	1141.033	901.795
342.475	24.194	1140.299	901.093
343.489	24.246	1139.106	900.334
344.504	24.174	1138.435	899.362
345.519	24.198	1137.678	898.804
346.533	24.227	1137.127	898.434
347.548	24.276	1135.888	897.623
348.562	24.211	1135.572	896.967
349.577	24.211	1135.108	896.520
350.592	24.297	1133.666	895.736
351.606	24.117	1133.601	894.700
352.621	24.223	1132.825	894.540
353.635	24.195	1132.580	894.127
354.650	24.187	1131.983	893.535
355.665	24.287	1131.172	893.319
356.679	24.380	1130.537	893.205
357.694	24.328	1129.864	892.332
358.708	24.381	1128.887	891.750
359.723	24.274	1128.358	890.716
360.738	24.345	1127.333	890.183
361.752	24.325	1127.481	890.122
362.767	24.316	1126.669	889.356
363.781	24.271	1126.044	888.559
364.796	24.483	1125.435	889.056
365.810	24.334	1125.295	888.127
366.825	24.531	1124.459	888.366
367.840	24.425	1124.321	887.651
368.854	24.355	1123.783	886.799
369.869	24.361	1122.671	885.877
370.883	24.474	1121.847	885.706
371.898	24.571	1121.130	885.543
372.913	24.532	1120.800	885.012
373.927	24.501	1120.360	884.433
374.942	24.454	1119.699	883.598
375.956	24.458	1119.481	883.369
376.971	24.441	1118.698	882.590
377.986	24.544	1117.918	882.406
379.000	24.590	1117.425	882.164
380.015	24.598	1116.798	881.629
381.029	24.538	1116.297	880.862
382.044	24.600	1115.543	880.495
383.059	24.681	1114.776	880.210
384.073	24.746	1113.736	879.631
385.088	24.602	1113.496	878.653
386.102	24.657	1112.334	877.928
387.117	24.466	1111.968	876.627
388.132	24.600	1110.720	876.221
389.146	24.738	1110.052	876.293
390.161	24.747	1108.787	875.263
391.175	24.780	1108.849	875.395
392.190	24.730	1108.082	874.465
393.205	24.705	1107.782	874.029
394.219	24.697	1106.976	873.277
395.234	24.760	1105.947	872.694
396.248	24.751	1105.143	871.940
397.263	24.793	1104.405	871.484
398.278	24.873	1103.795	871.318
399.292	24.894	1103.070	870.769
400.307	24.722	1102.950	869.763
401.321	24.819	1101.730	869.195
402.336	24.941	1100.790	868.966
403.350	24.817	1100.718	868.234
404.365	24.858	1100.331	868.047
405.380	24.848	1099.604	867.350
406.394	24.799	1098.699	866.323
407.409	24.944	1097.634	866.105
408.423	24.931	1097.182	865.612
409.438	24.954	1096.113	864.804
410.453	25.057	1095.498	864.737
411.467	24.917	1095.174	863.730
412.482	24.983	1094.261	863.251
413.496	24.916	1093.249	862.055
414.511	24.993	1093.144	862.266
415.526	25.037	1092.641	862.005
416.540	25.020	1092.035	861.366
417.555	25.019	1091.449	860.826
418.569	24.968	1091.405	860.466
419.584	25.047	1091.183	860.598
420.599	25.048	1090.290	859.823
421.613	147.913	1403.201	1798.157
422.628	136.840	1448.773	1798.231
