DTS Sentinel unit serial number:	SN413079Multiplexer serial number:	ORYXHardware model number:	OX4-SRSoftware version number:	ORYX F/W v4.00 Oryx Data Collector v3.7.2.0data status	okinstallation	princeton_trtdifferential loss correction	single-endedforward channel	channel 2reverse channel	N/Adate	2019/09/18time	20:19:34forward acquisition time	60.00reverse acquisition time	0.00gamma	496.2192k internal	0.2334k external	0.2334temperature offset calibration	1.0027default loss term (dB/km)	0.3790temperature slope calibration	1.0000multiplexer offset coefficient	1.0000multiplexer slope coefficient	1.0000fibre end	0.00T internal ref (°C)	28.98T ext. ref 1 (°C)	0.85T ext. ref 2 (°C)	19.73length (m)	temperature (°C)	Stokes	anti-Stokes-747.200	-49.213	0.019	0.009
-746.185	294.322	-0.165	0.302
-745.171	-200.000	0.002	0.091
-744.156	-200.000	0.024	0.179
-743.142	-51.455	0.241	0.113
-742.127	-200.000	-0.104	0.000
-741.112	-112.341	-0.196	-0.039
-740.098	408.273	-0.251	0.534
-739.083	-113.576	0.091	0.018
-738.069	35.330	-0.201	0.177
-737.054	-2.826	0.128	-0.090
-736.039	171.324	-0.322	-0.464
-735.025	-100.569	0.535	0.133
-734.010	-93.243	-0.297	0.083
-732.996	357.757	0.026	-0.051
-731.981	-120.762	-0.273	-0.046
-730.966	-159.952	-0.086	-0.005
-729.952	-92.169	-0.099	0.028
-728.937	372.297	0.084	-0.172
-727.923	132.245	-0.114	-0.147
-726.908	-200.000	-0.017	-0.128
-725.894	80.574	-0.311	0.337
-724.879	-67.431	0.070	-0.028
-723.864	-200.000	-0.055	-0.408
-722.850	-200.000	0.036	-0.179
-721.835	-115.536	0.265	0.050
-720.821	-145.410	-0.358	0.032
-719.806	800.000	-0.021	-0.090
-718.791	-131.422	0.131	0.017
-717.777	42.115	0.017	-0.015
-716.762	444.739	0.043	0.094
-715.748	-200.000	0.021	-0.320
-714.733	800.000	0.089	0.254
-713.718	-38.769	0.359	-0.190
-712.704	-115.731	-0.166	0.031
-711.689	-168.458	0.310	0.012
-710.675	325.143	-0.181	-0.347
-709.660	65.710	0.114	-0.116
-708.645	88.168	0.128	-0.142
-707.631	217.999	-0.147	-0.235
-706.616	800.000	0.113	-0.350
-705.602	297.577	-0.173	0.319
-704.587	-112.183	-0.181	0.036
-703.572	35.364	0.022	-0.020
-702.558	-25.542	0.114	-0.067
-701.543	696.636	-0.057	0.149
-700.529	0.292	-0.218	-0.156
-699.514	666.719	-0.029	0.076
-698.499	800.000	-0.078	-0.321
-697.485	11.496	0.195	-0.150
-696.470	-120.267	0.419	0.072
-695.456	284.029	-0.144	0.259
-694.441	-144.753	-0.200	0.018
-693.426	452.535	-0.052	-0.115
-692.412	422.748	-0.063	-0.135
-691.397	-80.822	-0.056	0.019
-690.383	-200.000	0.046	-0.269
-689.368	-12.393	-0.174	-0.114
-688.354	131.221	0.186	-0.239
-687.339	-200.000	-0.059	0.393
-686.324	-23.606	-0.289	0.174
-685.310	-134.520	0.299	0.037
-684.295	326.869	0.059	0.113
-683.281	-200.000	-0.042	0.205
-682.266	158.651	-0.171	-0.238
-681.251	-200.000	-0.044	0.470
-680.237	800.000	0.028	-0.082
-679.222	-29.045	-0.423	-0.243
-678.208	-200.000	0.087	0.459
-677.193	-85.427	-0.131	0.041
-676.178	-83.679	0.197	0.063
-675.164	-32.905	-0.195	0.109
-674.149	-200.000	-0.074	0.374
-673.135	-85.249	0.321	-0.101
-672.120	23.434	0.208	0.172
-671.105	112.557	-0.061	-0.074
-670.091	235.276	0.128	0.211
-669.076	162.774	-0.133	-0.187
-668.062	-200.000	0.025	0.116
-667.047	-200.000	-0.008	-0.075
-666.032	800.000	-0.154	-0.460
-665.018	-200.000	-0.029	-0.255
-664.003	-200.000	-0.040	-0.247
-662.989	-106.431	0.065	-0.014
-661.974	-144.637	-0.162	0.015
-660.959	800.000	-0.045	0.158
-659.945	-62.777	0.292	0.121
-658.930	192.483	0.187	-0.282
-657.916	800.000	-0.123	-0.425
-656.901	44.794	0.163	-0.150
-655.886	-44.219	0.255	-0.128
-654.872	298.948	-0.100	0.185
-653.857	-145.128	-0.517	0.047
-652.843	15.475	0.121	0.095
-651.828	380.439	-0.167	0.342
-650.814	9.572	0.059	-0.045
-649.799	-54.654	0.327	-0.148
-648.784	-86.389	-0.163	0.050
-647.770	-200.000	0.010	0.085
-646.755	624.887	-0.098	-0.249
-645.741	-28.113	0.198	-0.115
-644.726	-200.000	-0.021	-0.337
-643.711	800.000	0.090	-0.359
-642.697	-34.127	0.110	-0.061
-641.682	73.234	-0.117	-0.123
-640.668	235.532	0.158	0.261
-639.653	431.010	0.177	-0.383
-638.638	-180.470	-0.177	-0.004
-637.624	800.000	-0.066	0.218
-636.609	182.628	0.193	0.285
-635.595	52.644	-0.128	0.122
-634.580	-145.205	0.165	-0.015
-633.565	57.374	-0.199	0.195
-632.551	-17.739	-0.256	0.161
-631.536	249.047	0.064	0.108
-630.522	-108.934	-0.118	0.025
-629.507	129.212	0.147	-0.187
-628.492	102.457	0.224	-0.263
-627.478	-126.481	-0.039	-0.006
-626.463	734.065	-0.145	-0.387
-625.449	-96.044	-0.471	-0.125
-624.434	-35.086	-0.321	-0.175
-623.419	143.486	0.126	-0.168
-622.405	-178.169	-0.212	-0.005
-621.390	-113.618	-0.075	0.015
-620.376	-90.419	-0.356	0.103
-619.361	-200.000	-0.036	-0.253
-618.346	-129.020	0.062	0.009
-617.332	24.106	0.082	0.067
-616.317	110.627	-0.054	-0.065
-615.303	30.027	-0.151	-0.129
-614.288	94.214	0.108	-0.122
-613.273	-200.000	0.075	0.394
-612.259	800.000	0.055	0.157
-611.244	69.629	0.093	-0.096
-610.230	-200.000	0.022	0.235
-609.215	-200.000	0.050	0.296
-608.201	-200.000	-0.068	-0.312
-607.186	-133.068	0.419	0.053
-606.171	-29.756	0.105	-0.060
-605.157	270.553	0.066	0.116
-604.142	35.868	0.001	-0.001
-603.128	-179.188	0.193	-0.004
-602.113	800.000	-0.038	-0.124
-601.098	-3.638	0.121	-0.084
-600.084	-74.768	0.248	-0.089
-599.069	-165.485	-0.442	0.019
-598.055	800.000	-0.034	0.141
-597.040	800.000	0.054	-0.164
-596.025	800.000	-0.109	-0.428
-595.011	-200.000	0.018	0.117
-593.996	-126.140	-0.271	-0.041
-592.982	5.749	-0.158	0.117
-591.967	-97.385	0.262	-0.068
-590.952	-52.740	-0.213	0.098
-589.938	-156.406	0.070	0.004
-588.923	294.613	-0.089	0.162
-587.909	-102.683	0.090	0.022
-586.894	90.253	-0.228	-0.255
-585.879	21.669	-0.242	-0.197
-584.865	-10.603	0.198	-0.131
-583.850	-106.053	0.433	-0.097
-582.836	-48.124	0.144	-0.069
-581.821	-44.986	-0.308	0.153
-580.806	-200.000	-0.034	0.157
-579.792	-92.104	0.526	-0.149
-578.777	-24.050	-0.028	-0.016
-577.763	297.075	0.130	0.237
-576.748	-115.373	-0.120	-0.023
-575.733	-163.804	-0.174	-0.008
-574.719	-19.137	-0.217	0.134
-573.704	-77.115	0.237	-0.083
-572.690	-46.679	-0.134	0.065
-571.675	-200.000	-0.036	-0.218
-570.661	61.413	0.415	-0.412
-569.646	36.355	0.037	-0.033
-568.631	188.264	0.123	-0.184
-567.617	41.720	0.144	-0.131
-566.602	18.719	-0.141	-0.113
-565.588	798.807	0.046	0.127
-564.573	-86.713	0.196	0.060
-563.558	181.505	0.167	0.245
-562.544	-18.897	-0.214	-0.133
-561.529	-75.803	-0.158	-0.056
-560.515	-81.093	-0.058	0.019
-559.500	-115.507	-0.115	-0.022
-558.485	-104.964	0.237	-0.054
-557.471	-94.467	-0.190	-0.052
-556.456	269.216	0.102	0.179
-555.442	-132.822	-0.038	-0.005
-554.427	16.516	-0.212	-0.167
-553.412	339.417	0.118	0.229
-552.398	-59.277	0.121	0.052
-551.383	68.232	-0.059	-0.060
-550.369	-96.764	0.096	-0.025
-549.354	800.000	0.094	0.288
-548.339	59.984	0.011	-0.011
-547.325	-33.803	-0.262	-0.144
-546.310	206.207	-0.123	-0.191
-545.296	-65.728	-0.194	-0.077
-544.281	15.535	-0.097	-0.076
-543.266	-161.792	0.333	-0.017
-542.252	-200.000	-0.023	-0.506
-541.237	-93.095	0.258	-0.072
-540.223	130.154	-0.152	0.195
-539.208	-4.033	-0.131	-0.091
-538.193	-40.844	0.283	-0.146
-537.179	241.806	0.062	0.104
-536.164	168.684	-0.154	0.219
-535.150	-131.618	0.192	-0.025
-534.135	-186.663	-0.368	-0.005
-533.121	266.506	-0.125	-0.218
-532.106	74.935	-0.245	0.257
-531.091	148.545	0.197	0.265
-530.077	800.000	0.035	0.134
-529.062	-75.744	-0.427	0.151
-528.048	279.693	0.049	-0.088
-527.033	-124.188	-0.528	-0.082
-526.018	-112.148	0.088	-0.018
-525.004	9.954	-0.087	0.066
-523.989	32.393	0.306	-0.264
-522.975	562.014	-0.069	0.166
-521.960	-160.457	0.056	0.003
-520.945	-88.351	-0.066	0.020
-519.931	223.596	0.186	-0.299
-518.916	15.554	0.179	-0.140
-517.902	-12.438	-0.110	0.072
-516.887	39.104	-0.128	0.114
-515.872	-105.030	0.139	0.032
-514.858	302.897	-0.277	-0.512
-513.843	-42.395	0.082	0.042
-512.829	320.330	0.258	-0.487
-511.814	109.264	0.073	0.086
-510.799	-54.819	0.184	0.083
-509.785	175.962	-0.172	0.248
-508.770	89.656	0.029	0.032
-507.756	800.000	0.051	0.179
-506.741	800.000	-0.062	-0.192
-505.726	-80.390	-0.103	0.034
-504.712	-145.264	-0.038	0.003
-503.697	2.857	-0.154	0.111
-502.683	800.000	0.104	0.417
-501.668	502.912	-0.035	0.079
-500.653	308.065	-0.105	-0.194
-499.639	800.000	-0.116	0.349
-498.624	110.524	0.097	-0.115
-497.610	-47.958	0.100	0.048
-496.595	87.822	0.239	-0.263
-495.581	22.953	0.054	-0.044
-494.566	-200.000	-0.009	0.233
-493.551	-25.111	0.231	-0.136
-492.537	-200.000	0.035	0.253
-491.522	-63.801	-0.073	0.030
-490.508	29.425	0.047	0.039
-489.493	-200.000	0.034	-0.236
-488.478	-74.003	0.179	-0.064
-487.464	79.140	0.164	-0.175
-486.449	84.706	-0.140	-0.153
-485.435	99.408	-0.207	-0.238
-484.420	321.312	-0.150	0.283
-483.405	800.000	0.035	0.130
-482.391	-200.000	0.009	0.262
-481.376	-95.610	-0.209	0.056
-480.362	-200.000	0.032	-0.263
-479.347	24.910	0.110	-0.091
-478.332	-172.127	0.121	0.004
-477.318	155.588	0.157	-0.215
-476.303	120.081	-0.030	-0.036
-475.289	-200.000	0.017	-0.160
-474.274	-122.481	-0.170	0.027
-473.259	81.607	0.227	-0.244
-472.245	-200.000	-0.035	0.152
-471.230	-195.109	0.412	-0.003
-470.216	-102.322	0.382	-0.091
-469.201	-115.217	0.045	0.008
-468.186	-91.364	0.174	-0.049
-467.172	-119.284	0.232	0.040
-466.157	-3.220	-0.088	-0.061
-465.143	112.412	-0.243	-0.292
-464.128	253.996	0.260	0.442
-463.113	-200.000	0.018	0.411
-462.099	-108.424	-0.086	0.018
-461.084	185.814	-0.136	-0.201
-460.070	-183.041	-0.304	0.005
-459.055	-129.077	0.210	0.029
-458.040	-101.266	-0.124	0.030
-457.026	800.000	0.078	-0.299
-456.011	51.666	-0.151	0.143
-454.997	233.676	-0.125	-0.205
-453.982	-200.000	-0.012	0.120
-452.968	-200.000	-0.013	-0.241
-451.953	47.440	0.208	0.192
-450.938	-200.000	0.066	0.330
-449.924	-131.679	-0.352	-0.046
-448.909	266.321	0.061	0.105
-447.895	653.974	0.031	-0.079
-446.880	-200.000	-0.035	0.252
-445.865	-200.000	-0.023	-0.260
-444.851	647.110	-0.045	-0.115
-443.836	-47.785	-0.090	-0.043
-442.822	149.924	-0.079	0.106
-441.807	-142.638	0.340	-0.033
-440.792	-62.275	0.217	0.090
-439.778	-159.253	-0.185	-0.010
-438.763	56.418	-0.218	-0.211
-437.749	800.000	0.087	-0.239
-436.734	-79.889	0.303	-0.101
-435.719	-71.707	-0.064	-0.024
-434.705	-200.000	0.036	-0.307
-433.690	800.000	-0.098	0.286
-432.676	34.147	0.363	-0.314
-431.661	340.940	0.040	0.077
-430.646	-55.537	0.094	0.042
-429.632	346.963	0.083	-0.163
-428.617	168.741	-0.044	-0.063
-427.603	227.018	0.232	-0.374
-426.588	-200.000	0.036	0.199
-425.573	-102.845	0.342	0.081
-424.559	89.757	-0.158	0.175
-423.544	-200.000	-0.003	-0.230
-422.530	184.592	-0.141	-0.208
-421.515	-200.000	0.047	0.283
-420.500	-103.754	-0.130	0.030
-419.486	152.875	0.104	-0.142
-418.471	334.227	0.055	-0.105
-417.457	-9.584	0.067	0.044
-416.442	-71.957	0.451	-0.166
-415.428	120.257	-0.152	0.187
-414.413	-69.276	-0.114	-0.043
-413.398	238.526	0.101	-0.167
-412.384	-200.000	0.003	0.239
-411.369	267.187	-0.122	-0.212
-410.355	161.238	0.089	0.123
-409.340	42.928	-0.135	0.122
-408.325	-17.021	0.067	-0.042
-407.311	-101.275	-0.397	0.096
-406.296	31.473	0.160	0.136
-405.282	-200.000	-0.026	-0.147
-404.267	-131.501	0.045	0.006
-403.252	-85.305	0.171	0.053
-402.238	136.569	-0.101	-0.130
-401.223	25.571	0.087	-0.071
-400.209	8.147	0.183	-0.137
-399.194	275.485	-0.112	-0.197
-398.179	-39.540	0.069	0.036
-397.165	178.695	0.079	-0.115
-396.150	-78.664	-0.204	0.069
-395.136	391.078	-0.079	0.163
-394.121	4.375	-0.103	-0.075
-393.106	17.715	0.301	-0.238
-392.092	-25.671	-0.259	0.151
-391.077	-100.348	-0.314	0.077
-390.063	8.233	0.296	-0.221
-389.048	281.270	-0.145	-0.257
-388.033	-200.000	0.027	0.418
-387.019	800.000	0.027	-0.100
-386.004	-160.712	-0.398	0.021
-384.990	-200.000	-0.011	-0.103
-383.975	54.198	0.243	0.231
-382.960	59.731	0.097	0.095
-381.946	103.985	0.030	0.035
-380.931	-101.767	0.140	0.034
-379.917	197.688	-0.124	-0.188
-378.902	-14.333	0.160	-0.102
-377.888	27.095	-0.222	0.185
-376.873	49.588	0.256	-0.239
-375.858	-200.000	-0.029	0.305
-374.844	-22.469	-0.300	0.180
-373.829	493.459	0.024	-0.054
-372.815	110.368	-0.073	-0.087
-371.800	787.917	0.055	0.151
-370.785	103.150	0.060	-0.070
-369.771	-200.000	-0.046	0.332
-368.756	48.918	0.136	0.126
-367.742	-200.000	-0.046	-0.284
-366.727	-200.000	0.044	-0.263
-365.712	-135.364	0.155	-0.018
-364.698	58.742	-0.109	0.106
-363.683	-10.723	0.222	0.145
-362.669	-163.494	0.253	0.012
-361.654	314.740	-0.035	0.065
-360.639	104.991	-0.131	-0.153
-359.625	-67.765	0.247	-0.096
-358.610	-115.861	0.348	-0.064
-357.596	-7.406	0.267	-0.179
-356.581	800.000	-0.120	-0.368
-355.566	682.804	-0.015	0.039
-354.552	-200.000	-0.011	-0.247
-353.537	33.733	0.013	-0.011
-352.523	-144.872	0.089	0.008
-351.508	-109.658	0.418	0.087
-350.493	30.468	0.162	0.137
-349.479	800.000	-0.069	-0.199
-348.464	-100.293	-0.233	0.057
-347.450	800.000	0.027	-0.093
-346.435	-200.000	0.013	-0.191
-345.420	-159.048	-0.389	0.022
-344.406	800.000	0.144	0.476
-343.391	-30.924	-0.160	-0.089
-342.377	-67.196	-0.123	0.048
-341.362	404.358	-0.034	0.071
-340.348	-97.830	0.145	0.037
-339.333	2.647	-0.075	0.054
-338.318	800.000	0.074	0.233
-337.304	800.000	0.044	0.153
-336.289	30.664	-0.311	-0.263
-335.275	800.000	-0.088	-0.253
-334.260	111.823	-0.180	0.215
-333.245	-41.571	-0.169	0.086
-332.231	22.233	0.196	-0.158
-331.216	56.050	-0.202	0.194
-330.202	-84.585	0.175	0.054
-329.187	-200.000	0.338	-0.002
-328.172	-102.445	-0.143	-0.034
-327.158	-200.000	-0.019	0.293
-326.143	-129.985	0.372	0.050
-325.129	800.000	-0.008	-0.021
-324.114	50.243	-0.197	0.184
-323.099	-104.388	0.195	0.045
-322.085	-114.596	-0.088	-0.017
-321.070	34.298	-0.149	-0.128
-320.056	800.000	0.079	0.318
-319.041	754.715	-0.032	0.086
-318.026	-48.014	-0.163	0.078
-317.012	143.372	0.192	-0.252
-315.997	-200.000	-0.032	0.244
-314.983	-119.627	-0.404	0.069
-313.968	267.225	-0.023	0.040
-312.953	-24.706	-0.088	-0.052
-311.939	-68.511	-0.188	-0.072
-310.924	20.654	-0.052	0.042
-309.910	-200.000	-0.024	0.487
-308.895	-200.000	-0.034	0.190
-307.880	-200.000	0.012	-0.086
-306.866	-100.457	0.206	0.050
-305.851	122.611	0.107	-0.132
-304.837	-200.000	0.028	0.132
-303.822	-104.601	0.258	0.059
-302.807	220.017	0.201	0.319
-301.793	115.262	-0.206	-0.249
-300.778	-122.589	0.275	0.044
-299.764	80.802	0.172	0.183
-298.749	-158.119	-0.079	0.005
-297.735	-40.414	0.077	-0.040
-296.720	118.370	-0.099	-0.121
-295.705	33.679	-0.057	-0.049
-294.691	-98.918	0.292	0.073
-293.676	-200.000	0.064	0.388
-292.662	-11.760	-0.397	-0.258
-291.647	-52.188	0.261	0.120
-290.632	-83.640	-0.176	0.056
-289.618	-93.720	0.250	-0.068
-288.603	-102.196	0.121	-0.029
-287.589	-200.000	-0.029	0.175
-286.574	630.008	-0.037	0.093
-285.559	-68.521	-0.162	-0.062
-284.545	101.562	0.090	-0.103
-283.530	-102.195	-0.294	-0.070
-282.516	-110.166	-0.192	0.039
-281.501	83.062	-0.190	-0.204
-280.486	-156.744	-0.107	-0.007
-279.472	146.322	0.423	-0.560
-278.457	-54.866	-0.141	-0.063
-277.443	-75.059	-0.147	-0.052
-276.428	-165.194	0.194	-0.008
-275.413	3.540	-0.049	0.035
-274.399	-22.897	0.170	-0.101
-273.384	-200.000	0.014	-0.086
-272.370	-73.201	-0.127	-0.046
-271.355	-79.160	0.096	0.032
-270.340	-94.359	-0.155	-0.042
-269.326	36.688	-0.113	-0.099
-268.311	7.764	-0.173	-0.128
-267.297	-78.317	0.090	-0.030
-266.282	-1.064	-0.095	0.066
-265.267	-136.819	0.080	0.009
-264.253	13.355	0.232	-0.177
-263.238	-22.403	-0.047	0.028
-262.224	-200.000	-0.035	0.324
-261.209	48.271	0.061	0.056
-260.195	43.085	0.212	-0.190
-259.180	103.448	-0.152	0.176
-258.165	-6.737	-0.310	0.208
-257.151	748.979	0.033	-0.087
-256.136	185.960	0.214	0.313
-255.122	-200.000	0.000	0.100
-254.107	332.874	-0.153	-0.291
-253.092	-75.434	0.268	-0.094
-252.078	800.000	-0.098	-0.314
-251.063	-200.000	-0.022	0.314
-250.049	-57.056	-0.311	-0.135
-249.034	-63.332	-0.248	-0.101
-248.019	-178.287	-0.296	0.007
-247.005	164.428	-0.093	0.130
-245.990	-72.533	-0.202	0.073
-244.976	800.000	0.070	0.209
-243.961	-114.086	-0.233	0.044
-242.946	-200.000	0.002	0.203
-241.932	239.428	0.176	0.289
-240.917	105.742	-0.075	-0.087
-239.903	90.714	-0.158	-0.175
-238.888	723.737	-0.064	0.168
-237.873	-177.966	-0.108	0.003
-236.859	-143.428	0.153	0.014
-235.844	-112.180	0.207	0.041
-234.830	-200.000	0.034	0.219
-233.815	-69.398	0.128	-0.048
-232.800	-200.000	0.064	0.323
-231.786	-200.000	0.029	-0.146
-230.771	47.364	-0.227	0.208
-229.757	-200.000	0.048	0.300
-228.742	-27.887	0.340	0.194
-227.727	-200.000	0.043	0.220
-226.713	-200.000	0.029	0.180
-225.698	-79.615	0.090	0.030
-224.684	737.431	-0.123	-0.324
-223.669	-11.318	0.096	-0.062
-222.655	-78.027	-0.076	-0.026
-221.640	88.358	-0.130	0.143
-220.625	-48.022	0.165	-0.079
-219.611	-75.594	0.071	-0.025
-218.596	26.588	-0.109	-0.090
-217.582	590.512	0.099	-0.240
-216.567	216.181	-0.048	0.075
-215.552	197.668	0.100	-0.151
-214.538	-131.083	0.135	-0.018
-213.523	484.417	0.046	-0.102
-212.509	287.122	0.045	-0.081
-211.494	-175.948	-0.210	-0.005
-210.479	12.969	-0.156	-0.119
-209.465	-120.133	-0.147	0.025
-208.450	-107.890	-0.322	0.069
-207.436	-56.966	0.123	-0.054
-206.421	-14.169	-0.256	0.162
-205.406	-68.263	-0.205	-0.079
-204.392	-68.708	-0.228	0.087
-203.377	-200.000	-0.024	0.354
-202.363	8.730	-0.124	-0.092
-201.348	-59.311	0.243	0.103
-200.333	-71.150	0.152	-0.056
-199.319	-200.000	0.023	0.144
-198.304	63.138	0.057	0.056
-197.290	800.000	0.053	0.201
-196.275	-114.748	0.118	-0.022
-195.260	-2.095	0.163	0.113
-194.246	55.188	0.177	0.168
-193.231	685.479	0.041	0.105
-192.217	44.150	0.138	-0.124
-191.202	800.000	-0.022	-0.072
-190.187	-51.782	0.265	-0.122
-189.173	-62.424	0.050	0.020
-188.158	236.380	-0.086	0.140
-187.144	-84.778	-0.080	0.025
-186.129	800.000	-0.056	0.236
-185.114	35.073	-0.149	0.129
-184.100	472.946	-0.200	0.442
-183.085	800.000	-0.081	0.227
-182.071	84.706	-0.196	0.211
-181.056	-60.830	-0.300	-0.125
-180.042	-200.000	0.026	0.214
-179.027	800.000	0.065	0.179
-178.012	-169.287	-0.238	0.009
-176.998	14.492	0.066	-0.050
-175.983	175.773	-0.173	-0.247
-174.969	11.215	0.280	0.211
-173.954	468.474	0.020	-0.045
-172.939	-200.000	0.028	0.342
-171.925	-200.000	0.002	0.049
-170.910	322.692	0.116	0.218
-169.896	546.504	-0.112	0.264
-168.881	292.005	-0.045	0.080
-167.866	-160.347	0.169	0.009
-166.852	-144.497	-0.331	0.030
-165.837	193.927	0.190	0.282
-164.823	-166.557	-0.384	-0.016
-163.808	-200.000	-0.007	-0.166
-162.793	3.389	-0.114	0.081
-161.779	-61.937	-0.138	0.057
-160.764	-200.000	-0.038	-0.287
-159.750	800.000	0.050	-0.150
-158.735	136.376	0.174	-0.223
-157.720	-200.000	-0.010	-0.236
-156.706	-135.273	-0.234	-0.028
-155.691	800.000	-0.047	0.156
-154.677	269.694	0.136	-0.235
-153.662	-200.000	-0.002	-0.261
-152.647	-87.005	-0.320	0.096
-151.633	-175.685	0.066	-0.002
-150.618	32.999	-0.113	0.096
-149.604	-184.100	-0.179	-0.003
-148.589	-52.525	0.275	-0.125
-147.574	-28.963	0.243	0.137
-146.560	61.485	0.278	-0.271
-145.545	-52.593	0.262	0.119
-144.531	-58.195	-0.254	0.109
-143.516	-200.000	-0.020	-0.134
-142.502	263.382	0.044	0.075
-141.487	-200.000	-0.037	-0.284
-140.472	-200.000	-0.025	0.478
-139.458	-52.667	-0.115	0.052
-138.443	-114.105	-0.448	0.085
-137.429	103.238	0.140	0.161
-136.414	313.007	0.180	0.332
-135.399	-200.000	0.059	0.340
-134.385	-84.302	0.417	-0.129
-133.370	95.090	0.313	-0.350
-132.356	-17.968	-0.151	0.093
-131.341	-101.215	-0.436	-0.105
-130.326	800.000	0.066	-0.199
-129.312	-200.000	-0.034	0.277
-128.297	38.464	-0.151	0.132
-127.283	-200.000	0.076	0.404
-126.268	-200.000	0.025	0.249
-125.253	144.239	0.222	-0.291
-124.239	-175.618	0.251	-0.007
-123.224	161.671	0.113	-0.154
-122.210	746.073	0.083	-0.219
-121.195	87.101	0.049	-0.053
-120.180	307.162	0.090	0.165
-119.166	252.928	-0.113	0.189
-118.151	-48.583	-0.205	0.097
-117.137	-200.000	-0.009	-0.138
-116.122	-98.833	0.190	-0.047
-115.107	-135.766	-0.200	-0.023
-114.093	31.113	-0.075	-0.063
-113.078	-101.900	0.053	0.013
-112.064	423.452	-0.067	0.141
-111.049	-54.678	-0.087	0.039
-110.034	-200.000	-0.029	0.353
-109.020	-80.763	-0.136	-0.044
-108.005	-54.949	-0.244	0.108
-106.991	-137.216	0.414	-0.046
-105.976	298.900	0.038	-0.069
-104.962	298.226	0.136	-0.246
-103.947	4.715	0.129	0.093
-102.932	-49.972	-0.113	-0.053
-101.918	-200.000	-0.012	0.658
-100.903	-9.957	0.115	0.075
-99.889	361.914	-0.099	-0.194
-98.874	-64.407	0.325	0.130
-97.859	-200.000	0.037	0.476
-96.845	-85.984	-0.285	-0.086
-95.830	-176.575	-0.394	-0.010
-94.816	800.000	0.095	0.274
-93.801	38.865	-0.157	0.137
-92.786	89.962	0.156	0.171
-91.772	-31.564	-0.297	0.164
-90.757	-200.000	0.036	-0.192
-89.743	98.161	-0.088	0.100
-88.728	-200.000	0.030	0.351
-87.713	-24.369	0.150	0.088
-86.699	47.081	-0.159	0.145
-85.684	381.697	0.062	-0.125
-84.670	-200.000	-0.041	0.264
-83.655	137.302	-0.129	0.165
-82.640	203.201	0.101	0.152
-81.626	90.654	0.079	0.087
-80.611	-200.000	0.023	-0.510
-79.597	693.892	0.084	0.216
-78.582	-9.574	0.125	0.082
-77.567	99.884	0.049	0.055
-76.553	-159.843	0.471	-0.025
-75.538	-35.706	0.205	0.109
-74.524	-180.783	-0.110	-0.002
-73.509	203.442	0.082	0.124
-72.494	-13.071	0.074	-0.047
-71.480	800.000	0.050	0.206
-70.465	0.966	0.265	-0.186
-69.451	30.496	-0.195	-0.163
-68.436	49.986	-0.181	-0.167
-67.422	-200.000	0.015	-0.154
-66.407	391.796	-0.113	-0.230
-65.392	-50.295	0.155	0.072
-64.378	-48.840	0.368	0.173
-63.363	-37.607	-0.145	0.076
-62.349	-200.000	0.014	0.351
-61.334	134.789	-0.812	-1.031
-60.319	217.069	0.505	0.787
-59.305	-200.000	-0.031	-0.942
-58.290	389.891	0.744	1.509
-57.276	800.000	0.347	1.462
-56.261	-200.000	112.391	697.483
-55.246	531.902	1472.565	3407.807
-54.232	152.132	2642.014	3525.938
-53.217	102.179	2272.266	2596.206
-52.203	38.241	1894.148	1649.613
-51.188	32.159	1688.729	1424.702
-50.173	29.623	1646.996	1370.649
-49.159	53.569	1701.489	1596.661
-48.144	52.332	1715.925	1600.876
-47.130	31.931	1674.737	1410.958
-46.115	29.022	1660.862	1377.469
-45.100	28.860	1655.945	1372.129
-44.086	28.806	1653.426	1369.586
-43.071	28.830	1650.865	1367.586
-42.057	28.804	1648.844	1365.667
-41.042	28.831	1646.750	1364.082
-40.027	28.820	1644.673	1362.224
-39.013	28.858	1642.667	1360.785
-37.998	28.845	1640.964	1359.226
-36.984	28.853	1639.657	1358.148
-35.969	28.922	1638.200	1357.399
-34.954	28.999	1636.604	1356.591
-33.940	28.934	1635.011	1354.740
-32.925	28.930	1633.577	1353.462
-31.911	28.944	1631.853	1352.089
-30.896	28.981	1630.034	1350.797
-29.881	28.930	1628.623	1349.200
-28.867	28.948	1626.460	1347.489
-27.852	28.880	1625.732	1346.332
-26.838	28.989	1623.782	1345.463
-25.823	28.994	1622.867	1344.684
-24.809	29.043	1621.014	1343.457
-23.794	29.019	1620.303	1342.637
-22.779	29.029	1618.635	1341.272
-21.765	29.003	1616.487	1339.252
-20.750	29.023	1614.883	1338.018
-19.736	29.120	1613.508	1337.525
-18.721	29.106	1612.329	1336.397
-17.706	28.982	1611.100	1334.426
-16.692	29.018	1609.400	1333.222
-15.677	28.989	1608.290	1332.040
-14.663	29.062	1607.076	1331.514
-13.648	29.109	1605.389	1330.400
-12.633	29.000	1604.246	1328.615
-11.619	29.027	1602.742	1327.507
-10.604	28.990	1601.408	1326.088
-9.590	29.076	1599.946	1325.444
-8.575	29.093	1598.463	1324.283
-7.560	29.065	1597.484	1323.217
-6.546	28.983	1596.700	1321.928
-5.531	28.973	1595.560	1320.858
-4.517	29.040	1594.358	1320.293
-3.502	29.045	1592.868	1319.043
-2.487	29.075	1591.320	1317.925
-1.473	28.383	1578.589	1302.409
-0.458	24.448	1556.977	1256.878
0.556	18.626	1555.634	1213.257
1.571	15.574	1577.910	1208.603
2.586	14.852	1589.175	1211.886
3.600	13.630	1536.704	1163.199
4.615	8.093	1431.358	1047.080
5.629	2.117	1370.822	965.024
6.644	0.931	1363.364	952.235
7.659	0.929	1361.778	951.025
8.673	0.801	1361.561	949.986
9.688	0.730	1359.279	947.863
10.702	0.684	1355.998	945.210
11.717	3.476	1359.726	965.216
12.731	10.465	1370.562	1016.787
13.746	16.039	1378.882	1057.954
14.761	17.476	1379.699	1067.507
15.775	16.786	1377.936	1061.721
16.790	15.815	1375.325	1053.541
17.804	15.047	1373.237	1047.043
18.819	14.745	1371.337	1043.618
19.834	14.432	1370.314	1040.794
20.848	14.207	1369.118	1038.391
21.863	13.968	1367.517	1035.594
22.877	13.797	1366.916	1033.979
23.892	13.654	1365.660	1032.051
24.907	13.717	1364.042	1031.125
25.921	13.779	1363.586	1031.079
26.936	13.796	1362.572	1030.321
27.950	13.716	1362.117	1029.390
28.965	13.853	1360.695	1029.074
29.980	13.871	1360.324	1028.818
30.994	13.993	1359.078	1028.535
32.009	14.016	1358.073	1027.830
33.023	13.941	1356.875	1026.370
34.038	13.980	1355.048	1025.134
35.053	13.937	1354.162	1024.107
36.067	13.954	1353.099	1023.317
37.082	13.920	1352.505	1022.571
38.096	13.930	1351.309	1021.639
39.111	13.875	1350.969	1020.953
40.126	13.924	1349.791	1020.273
41.140	13.865	1348.911	1019.155
42.155	13.735	1348.951	1018.294
43.169	13.754	1348.476	1017.964
44.184	13.746	1348.175	1017.596
45.199	13.685	1347.868	1016.899
46.213	13.806	1346.867	1016.800
47.228	13.861	1346.026	1016.408
48.242	13.858	1344.966	1015.501
49.257	13.820	1343.875	1014.355
50.271	13.806	1342.031	1012.787
51.286	13.758	1341.170	1011.755
52.301	13.894	1339.436	1011.186
53.315	13.876	1338.469	1010.255
54.330	13.864	1337.114	1009.073
55.344	13.748	1336.340	1007.696
56.359	13.741	1335.218	1006.717
57.374	13.806	1334.016	1006.118
58.388	13.622	1333.973	1004.878
59.403	13.660	1332.930	1004.233
60.417	13.708	1332.178	1003.869
61.432	13.671	1331.652	1003.158
62.447	13.827	1330.028	1002.793
63.461	13.680	1329.035	1001.065
64.476	13.685	1327.884	1000.141
65.490	13.601	1327.055	998.923
66.505	13.637	1325.483	997.869
67.520	13.697	1324.076	997.081
68.534	13.622	1323.473	996.089
69.549	13.686	1321.917	995.211
70.563	13.698	1321.256	994.695
71.578	13.688	1319.699	993.378
72.593	13.576	1318.861	991.989
73.607	13.628	1318.305	991.793
74.622	13.578	1317.292	990.644
75.636	13.525	1316.690	989.785
76.651	13.626	1315.860	989.676
77.666	13.722	1315.296	989.740
78.680	13.576	1314.708	988.341
79.695	13.693	1313.723	988.208
80.709	13.564	1312.919	986.751
81.724	13.676	1312.093	986.709
82.739	13.767	1310.991	986.334
83.753	13.930	1309.884	986.378
84.768	13.830	1309.299	985.258
85.782	13.835	1307.696	983.996
86.797	13.829	1306.477	982.957
87.812	13.728	1305.729	981.708
88.826	13.739	1304.521	980.777
89.841	13.841	1303.338	980.403
90.855	13.786	1302.697	979.511
91.870	13.848	1301.654	979.003
92.884	13.868	1300.696	978.317
93.899	13.924	1299.450	977.622
94.914	13.938	1299.494	977.651
95.928	13.955	1298.325	976.784
96.943	13.967	1297.159	975.889
97.957	13.926	1295.774	974.524
98.972	13.915	1295.295	974.014
99.987	13.909	1294.373	973.195
101.001	13.917	1293.186	972.267
102.016	13.794	1292.386	970.860
103.030	13.942	1291.573	971.029
104.045	13.886	1290.788	970.021
105.060	13.877	1289.571	968.969
106.074	13.925	1287.764	967.806
107.089	13.772	1287.036	966.282
108.103	13.751	1285.797	965.147
109.118	13.787	1284.169	964.049
110.133	13.754	1282.872	962.798
111.147	13.828	1281.606	962.187
112.162	13.921	1280.119	961.525
113.176	13.799	1279.370	960.172
114.191	13.781	1278.871	959.610
115.206	13.762	1277.512	958.396
116.220	13.680	1276.523	957.093
117.235	13.812	1275.597	957.077
118.249	13.839	1274.087	956.017
119.264	13.832	1272.899	955.001
120.279	13.740	1271.999	953.712
121.293	13.817	1270.780	953.157
122.308	13.880	1269.817	952.709
123.322	13.897	1268.487	951.728
124.337	13.910	1267.507	950.979
125.352	13.764	1266.834	949.558
126.366	13.755	1265.455	948.388
127.381	13.776	1264.458	947.677
128.395	13.811	1263.240	946.875
129.410	13.891	1262.138	946.424
130.424	13.700	1262.245	945.332
131.439	13.789	1260.710	944.606
132.454	13.804	1259.766	943.901
133.468	13.808	1259.289	943.482
134.483	13.712	1258.794	942.481
135.497	13.740	1257.506	941.594
136.512	13.849	1256.003	941.002
137.527	13.741	1254.711	939.342
138.541	13.807	1253.084	938.413
139.556	13.897	1251.601	937.726
140.570	13.842	1250.855	936.772
141.585	13.839	1249.383	935.569
142.600	13.994	1248.324	935.567
143.614	13.968	1247.563	934.771
144.629	13.978	1246.572	934.002
145.643	14.050	1245.230	933.318
146.658	14.025	1243.948	932.133
147.673	13.879	1243.102	930.598
148.687	13.843	1242.097	929.563
149.702	13.873	1240.773	928.654
150.716	13.955	1239.207	927.860
151.731	13.931	1238.139	926.845
152.746	13.897	1237.068	925.774
153.760	14.023	1235.739	925.397
154.775	14.035	1234.457	924.421
155.789	14.052	1233.720	923.881
156.804	13.960	1232.617	922.464
157.819	14.021	1231.636	921.986
158.833	14.047	1230.540	921.228
159.848	14.185	1229.308	920.988
160.862	14.152	1228.584	920.182
161.877	14.146	1227.636	919.360
162.892	13.981	1226.534	917.538
163.906	14.107	1225.489	917.370
164.921	13.993	1224.776	916.130
165.935	14.057	1223.701	915.599
166.950	14.107	1222.922	915.206
167.964	14.160	1221.949	914.692
168.979	14.069	1221.729	913.945
169.994	14.090	1221.157	913.548
171.008	14.134	1219.917	912.783
172.023	14.194	1218.966	912.321
173.037	14.206	1218.174	911.713
174.052	14.278	1217.314	911.382
175.067	14.221	1216.496	910.379
176.081	14.098	1215.653	908.995
177.096	14.175	1214.500	908.474
178.110	14.234	1212.821	907.457
179.125	14.159	1212.237	906.531
180.140	14.220	1210.632	905.584
181.154	14.306	1209.487	905.114
182.169	14.247	1208.412	903.909
183.183	14.208	1207.300	902.785
184.198	14.301	1206.220	902.402
185.213	14.323	1204.942	901.486
186.227	14.430	1203.848	901.163
187.242	14.314	1203.241	900.006
188.256	14.439	1202.158	899.787
189.271	14.415	1201.013	898.722
190.286	14.337	1200.418	897.779
191.300	14.214	1199.522	896.365
192.315	14.272	1198.501	895.838
193.329	14.317	1197.821	895.492
194.344	14.308	1197.554	895.161
195.359	14.409	1196.841	895.094
196.373	14.452	1196.055	894.656
197.388	14.450	1195.975	894.508
198.402	14.448	1195.203	893.839
199.417	14.490	1194.576	893.515
200.432	14.664	1193.216	893.350
201.446	14.576	1192.607	892.346
202.461	14.665	1191.645	892.022
203.475	14.622	1191.028	891.254
204.490	14.631	1189.626	890.175
205.504	14.621	1188.063	888.870
206.519	14.599	1187.576	888.313
207.534	14.600	1185.936	887.014
208.548	14.713	1184.995	886.831
209.563	14.649	1183.976	885.651
210.577	14.606	1183.706	885.141
211.592	14.648	1182.322	884.252
212.607	14.698	1181.610	883.906
213.621	14.734	1180.611	883.268
214.636	14.697	1180.188	882.677
215.650	14.676	1179.031	881.622
216.665	14.642	1178.250	880.782
217.680	14.821	1177.119	880.805
218.694	14.882	1176.030	880.231
219.709	14.715	1175.747	879.063
220.723	14.858	1175.200	879.328
221.738	14.710	1174.355	877.840
222.753	14.874	1173.361	877.878
223.767	14.934	1172.638	877.576
224.782	14.887	1172.057	876.819
225.796	14.936	1171.740	876.762
226.811	14.878	1171.411	876.133
227.826	14.908	1170.183	875.293
228.840	14.956	1169.166	874.707
229.855	14.933	1168.258	873.829
230.869	15.050	1167.383	873.709
231.884	14.859	1167.388	872.637
232.899	14.967	1166.120	872.178
233.913	14.914	1165.405	871.288
234.928	14.892	1164.840	870.674
235.942	14.807	1164.185	869.667
236.957	14.866	1163.312	869.244
237.972	14.904	1162.711	868.912
238.986	14.856	1161.998	868.053
240.001	14.994	1161.031	867.970
241.015	14.897	1160.417	866.931
242.030	14.994	1159.269	866.503
243.045	15.012	1158.603	866.017
244.059	15.166	1157.845	866.172
245.074	15.124	1157.219	865.410
246.088	15.189	1156.141	864.861
247.103	15.121	1155.400	863.882
248.117	15.235	1154.597	863.791
249.132	15.245	1153.741	863.128
250.147	15.303	1153.178	862.928
251.161	15.284	1152.724	862.412
252.176	15.368	1151.775	862.059
253.190	15.287	1151.448	861.323
254.205	15.244	1151.218	860.855
255.220	15.410	1150.321	860.958
256.234	15.558	1149.220	860.816
257.249	15.493	1148.677	860.000
258.263	15.476	1148.277	859.537
259.278	15.520	1147.287	858.944
260.293	15.478	1147.279	858.649
261.307	15.562	1146.259	858.238
262.322	15.512	1145.722	857.506
263.336	15.570	1144.968	857.163
264.351	15.484	1144.613	856.381
265.366	15.591	1143.736	856.193
266.380	15.533	1143.247	855.459
267.395	15.641	1142.222	855.163
268.409	15.598	1141.577	854.389
269.424	15.591	1141.145	853.953
270.439	15.513	1140.416	852.933
271.453	15.665	1139.625	853.041
272.468	15.667	1138.514	852.144
273.482	15.640	1138.152	851.661
274.497	15.765	1137.244	851.536
275.512	15.682	1137.012	850.866
276.526	15.629	1136.254	849.960
277.541	15.650	1135.339	849.306
278.555	15.624	1135.038	848.871
279.570	15.724	1134.032	848.548
280.585	15.855	1133.026	848.384
281.599	15.835	1131.821	847.304
282.614	15.795	1131.339	846.667
283.628	15.799	1130.174	845.743
284.643	15.737	1129.496	844.846
285.657	15.929	1128.205	844.769
286.672	15.821	1127.474	843.607
287.687	15.821	1126.758	842.995
288.701	15.795	1125.930	842.172
289.716	15.943	1124.924	842.085
290.730	15.833	1124.492	841.139
291.745	15.917	1123.708	840.894
292.760	15.853	1123.472	840.327
293.774	16.037	1122.344	840.326
294.789	15.891	1122.318	839.505
295.803	15.969	1121.511	839.213
296.818	16.098	1120.474	839.005
297.833	16.136	1119.477	838.372
298.847	16.043	1118.811	837.338
299.862	15.979	1117.934	836.291
300.876	15.957	1117.253	835.596
301.891	16.046	1116.902	835.705
302.906	16.138	1116.218	835.575
303.920	16.138	1115.862	835.233
304.935	15.991	1115.458	834.129
305.949	16.279	1114.170	834.515
306.964	16.306	1113.411	834.007
307.979	16.149	1112.895	832.770
308.993	16.202	1111.677	832.046
310.008	16.269	1110.831	831.672
311.022	16.320	1110.320	831.465
312.037	16.283	1109.673	830.727
313.052	16.316	1108.477	829.918
314.066	16.228	1107.612	828.767
315.081	16.258	1106.976	828.363
316.095	16.214	1106.105	827.421
317.110	16.210	1105.512	826.884
318.125	16.260	1105.106	826.752
319.139	16.185	1104.413	825.793
320.154	16.177	1103.741	825.180
321.168	16.212	1103.065	824.774
322.183	16.333	1102.351	824.757
323.197	16.375	1101.901	824.555
324.212	16.248	1101.631	823.660
325.227	16.292	1100.523	822.971
326.241	16.336	1099.655	822.463
327.256	16.404	1098.836	822.109
328.270	16.441	1098.379	821.874
329.285	16.421	1097.284	820.885
330.300	16.451	1096.206	820.151
331.314	16.528	1095.354	819.813
332.329	16.428	1094.922	818.935
333.343	16.512	1093.483	818.191
334.358	16.510	1092.995	817.744
335.373	16.418	1092.335	816.734
336.387	16.526	1091.495	816.555
337.402	16.508	1090.614	815.737
338.416	16.606	1090.098	815.753
339.431	16.612	1089.626	815.357
340.446	16.663	1088.773	814.893
341.460	16.643	1088.274	814.346
342.475	16.694	1087.106	813.650
343.489	16.610	1086.305	812.574
344.504	16.762	1085.528	812.647
345.519	16.786	1084.647	812.030
346.533	16.798	1083.937	811.487
347.548	16.816	1083.494	811.170
348.562	16.817	1082.421	810.297
349.577	16.835	1081.942	809.956
350.592	16.766	1080.705	808.627
351.606	16.853	1079.925	808.387
352.621	16.845	1079.386	807.874
353.635	16.702	1078.894	806.752
354.650	16.823	1078.386	806.880
355.665	16.822	1077.617	806.228
356.679	16.872	1077.034	805.957
357.694	16.851	1076.531	805.410
358.708	16.937	1075.625	805.068
359.723	16.890	1075.088	804.371
360.738	16.852	1074.762	803.876
361.752	16.888	1074.384	803.696
362.767	16.917	1073.142	802.831
363.781	16.881	1072.669	802.236
364.796	17.030	1072.182	802.504
365.810	17.060	1072.060	802.487
366.825	17.077	1071.079	801.759
367.840	17.073	1070.667	801.361
368.854	17.140	1069.873	801.015
369.869	17.132	1069.230	800.421
370.883	17.125	1068.307	799.629
371.898	17.144	1067.268	798.868
372.913	17.024	1066.922	797.974
373.927	17.149	1066.755	798.368
374.942	17.271	1065.789	798.145
375.956	17.151	1065.690	797.439
376.971	17.365	1064.624	797.572
377.986	17.186	1064.646	796.678
379.000	17.333	1063.613	796.523
380.015	17.345	1063.243	796.236
381.029	17.478	1062.224	796.020
382.044	17.405	1062.047	795.478
383.059	17.420	1060.831	794.566
384.073	17.382	1060.322	793.936
385.088	17.379	1059.574	793.293
386.102	17.377	1058.633	792.508
387.117	17.436	1057.561	791.909
388.132	17.459	1056.728	791.325
389.146	17.486	1056.174	790.966
390.161	17.403	1055.189	789.773
391.175	17.354	1054.661	789.079
392.190	17.323	1054.147	788.482
393.205	17.493	1053.348	788.604
394.219	17.609	1052.373	788.338
395.234	17.432	1051.662	786.920
396.248	17.510	1050.408	786.268
397.263	17.393	1049.644	785.090
398.278	17.404	1048.831	784.463
399.292	17.392	1048.220	783.881
400.307	17.495	1047.573	783.802
401.321	17.496	1047.270	783.508
402.336	17.568	1046.460	783.165
403.350	17.695	1045.390	782.878
404.365	17.545	1044.873	781.733
405.380	17.616	1044.059	781.383
406.394	17.689	1043.555	781.268
407.409	17.607	1043.212	780.567
408.423	17.752	1041.780	780.091
409.438	17.790	1041.317	779.847
410.453	17.663	1040.931	778.910
411.467	17.727	1040.428	778.759
412.482	17.840	1039.245	778.319
413.496	17.794	1038.816	777.718
414.511	17.949	1038.139	777.847
415.526	17.934	1037.538	777.263
416.540	17.933	1037.466	777.133
417.555	17.915	1036.783	776.474
418.569	17.865	1036.388	775.882
419.584	17.955	1035.866	775.828
420.599	17.977	1035.202	775.362
421.613	106.902	1324.506	1478.085
422.628	98.038	1366.634	1478.150
