DTS Sentinel unit serial number:	SN413079Multiplexer serial number:	ORYXHardware model number:	OX4-SRSoftware version number:	ORYX F/W v4.00 Oryx Data Collector v3.7.2.0data status	okinstallation	princeton_trtdifferential loss correction	single-endedforward channel	channel 2reverse channel	N/Adate	2019/09/12time	19:51:49forward acquisition time	15.00reverse acquisition time	0.00gamma	496.2192k internal	0.2326k external	0.2326temperature offset calibration	1.0165default loss term (dB/km)	0.3790temperature slope calibration	1.0000multiplexer offset coefficient	1.0000multiplexer slope coefficient	1.0000fibre end	0.00T internal ref (°C)	31.87T ext. ref 1 (°C)	3.48T ext. ref 2 (°C)	26.57length (m)	temperature (°C)	Stokes	anti-Stokes-747.200	703.937	0.154	0.408
-746.185	-75.172	-0.665	-0.240
-745.171	-102.328	-0.181	-0.044
-744.156	-130.751	0.622	0.084
-743.142	359.640	0.143	-0.289
-742.127	685.071	0.169	-0.446
-741.112	-200.000	0.060	-1.122
-740.098	-127.726	0.661	0.096
-739.083	144.609	-0.367	-0.494
-738.069	-90.157	-0.248	0.073
-737.054	-24.695	-0.463	0.278
-736.039	35.637	-0.492	-0.436
-735.025	-78.202	0.852	-0.295
-734.010	-200.000	0.025	0.309
-732.996	164.950	0.363	0.516
-731.981	427.791	0.301	0.654
-730.966	-200.000	0.144	0.682
-729.952	233.107	-0.472	-0.782
-728.937	-200.000	0.012	-0.734
-727.923	75.674	0.532	-0.567
-726.908	106.885	0.254	0.304
-725.894	-97.724	-0.536	-0.140
-724.879	89.120	-0.703	0.789
-723.864	-136.455	-0.302	0.035
-722.850	5.418	-0.429	0.319
-721.835	40.853	-0.552	0.502
-720.821	159.575	0.381	0.534
-719.806	-200.000	0.106	-0.566
-718.791	60.578	0.597	-0.596
-717.777	-200.000	-0.015	-0.447
-716.762	111.265	0.575	0.698
-715.748	58.865	-0.665	0.659
-714.733	-200.000	0.015	0.340
-713.718	266.504	-0.246	-0.433
-712.704	-61.934	0.397	-0.167
-711.689	-200.000	0.042	0.192
-710.675	364.152	0.045	0.092
-709.660	-138.848	0.891	0.098
-708.645	94.767	-0.172	-0.197
-707.631	1.945	-0.257	-0.186
-706.616	101.105	-0.076	0.089
-705.602	66.196	0.148	0.151
-704.587	306.327	0.287	-0.537
-703.572	-177.701	0.257	0.006
-702.558	-2.922	0.594	0.418
-701.543	788.978	-0.265	-0.732
-700.529	-200.000	0.019	-0.743
-699.514	44.458	0.296	-0.274
-698.499	-73.671	-0.452	-0.166
-697.485	800.000	-0.196	-0.858
-696.470	800.000	-0.170	0.488
-695.456	-114.498	0.467	-0.090
-694.441	246.795	0.368	0.625
-693.426	-86.015	0.811	-0.252
-692.412	419.207	-0.163	-0.351
-691.397	-105.582	-0.606	0.138
-690.383	39.115	0.060	-0.054
-689.368	800.000	0.074	-0.272
-688.354	240.729	-0.332	-0.557
-687.339	578.140	-0.196	-0.483
-686.324	112.697	0.136	-0.166
-685.310	-200.000	-0.084	0.446
-684.295	85.413	0.097	0.108
-683.281	-139.006	0.329	-0.036
-682.266	-22.950	-0.190	0.115
-681.251	-115.159	-0.282	0.054
-680.237	-200.000	0.094	-0.594
-679.222	228.203	-0.330	-0.540
-678.208	471.273	-0.112	-0.254
-677.193	190.246	0.186	-0.281
-676.178	-103.483	-0.508	0.120
-675.164	200.553	-0.343	-0.531
-674.149	-200.000	-0.073	0.694
-673.135	-100.940	-0.613	0.151
-672.120	-131.286	-0.427	0.057
-671.105	36.214	0.240	0.212
-670.091	800.000	-0.309	0.917
-669.076	688.953	-0.253	-0.666
-668.062	20.831	0.291	0.237
-667.047	800.000	0.091	0.326
-666.032	800.000	0.132	0.405
-665.018	-118.450	-0.436	0.078
-664.003	42.751	-0.674	-0.618
-662.989	751.111	0.293	-0.794
-661.974	6.367	0.760	-0.567
-660.959	-160.731	0.170	0.009
-659.945	381.539	-0.097	0.200
-658.930	-6.774	0.036	-0.025
-657.916	482.042	-0.088	-0.201
-656.901	-200.000	0.100	0.569
-655.886	141.766	-0.198	-0.264
-654.872	127.396	-0.495	0.632
-653.857	-200.000	0.017	0.317
-652.843	204.073	0.496	0.772
-651.828	-171.727	-0.267	0.009
-650.814	-82.125	0.647	-0.212
-649.799	-200.000	-0.087	0.409
-648.784	-200.000	0.053	0.458
-647.770	-11.611	0.393	-0.260
-646.755	800.000	-0.146	0.535
-645.741	251.093	-0.293	0.500
-644.726	579.761	0.136	0.335
-643.711	800.000	0.093	-0.280
-642.697	232.402	0.166	0.274
-641.682	170.679	0.129	-0.185
-640.668	-96.331	-0.477	-0.127
-639.653	108.139	0.215	0.257
-638.638	178.767	0.177	-0.260
-637.624	174.359	0.255	0.371
-636.609	27.867	0.408	-0.345
-635.595	-38.997	0.473	-0.250
-634.580	-163.939	-0.819	-0.038
-633.565	-94.407	-0.915	0.251
-632.551	-200.000	-0.000	-0.758
-631.536	201.652	-0.150	0.232
-630.522	2.609	-0.416	0.302
-629.507	-14.144	-0.764	-0.495
-628.492	-79.230	-0.613	0.209
-627.478	-200.000	0.052	-0.329
-626.463	8.853	-0.332	-0.252
-625.449	64.605	0.701	0.710
-624.434	-112.916	0.669	0.133
-623.419	38.134	-0.327	0.292
-622.405	-117.725	0.317	0.057
-621.390	-80.813	-0.663	-0.221
-620.376	-151.078	0.356	0.027
-619.361	-200.000	0.011	0.265
-618.346	-200.000	0.091	0.460
-617.332	-17.223	-0.524	0.332
-616.317	-145.054	-1.229	0.112
-615.303	121.458	-0.386	0.482
-614.288	17.557	0.216	0.172
-613.273	315.839	-0.306	0.579
-612.259	-94.649	-0.253	0.069
-611.244	-105.673	-0.448	0.102
-610.230	96.282	0.267	0.306
-609.215	44.324	0.490	-0.451
-608.201	-200.000	-0.108	0.657
-607.186	86.366	0.323	-0.357
-606.171	588.740	-0.388	-0.960
-605.157	-35.870	0.095	-0.052
-604.142	-172.229	0.984	-0.032
-603.128	624.149	0.187	-0.474
-602.113	-200.000	0.014	-0.197
-601.098	72.622	0.315	0.329
-600.084	335.275	-0.058	0.113
-599.069	308.181	0.290	-0.543
-598.055	125.664	-0.043	-0.054
-597.040	800.000	0.108	-0.401
-596.025	-200.000	0.050	0.718
-595.011	-113.401	0.438	-0.086
-593.996	116.040	0.428	-0.525
-592.982	659.235	-0.202	-0.520
-591.967	43.885	-0.300	0.275
-590.952	-200.000	-0.009	0.290
-589.938	-64.896	-0.426	-0.173
-588.923	-45.085	0.843	0.420
-587.909	761.509	0.180	0.490
-586.894	800.000	0.058	-0.248
-585.879	-119.228	1.035	0.181
-584.865	-127.041	-0.668	-0.098
-583.850	-39.164	0.696	-0.367
-582.836	800.000	-0.245	-0.702
-581.821	77.184	-0.496	0.529
-580.806	-6.522	0.041	0.028
-579.792	105.896	-0.539	0.639
-578.777	-105.065	-0.971	0.223
-577.763	184.192	-0.230	0.342
-576.748	-200.000	0.002	-0.158
-575.733	-200.000	0.063	0.540
-574.719	-200.000	0.018	0.100
-573.704	-200.000	0.021	-0.458
-572.690	32.712	0.802	0.695
-571.675	184.759	-0.067	-0.099
-570.661	-112.224	0.166	0.033
-569.646	-59.634	-0.493	0.212
-568.631	18.529	0.113	-0.091
-567.617	800.000	-0.222	-0.649
-566.602	-91.018	0.139	-0.040
-565.588	-132.716	-0.853	0.109
-564.573	157.233	-0.168	0.233
-563.558	-50.432	0.447	0.211
-562.544	158.818	-0.506	0.704
-561.529	4.487	-0.772	-0.567
-560.515	-123.658	0.194	0.031
-559.500	15.752	-0.617	0.486
-558.485	53.408	-0.582	0.558
-557.471	-25.868	0.610	0.360
-556.456	200.374	-0.153	0.235
-555.442	83.459	-0.200	-0.218
-554.427	617.603	-0.411	-1.033
-553.412	365.649	0.111	0.224
-552.398	-106.876	0.578	0.128
-551.383	51.317	-0.223	-0.212
-550.369	800.000	0.184	0.520
-549.354	-1.198	0.771	0.546
-548.339	-200.000	-0.032	0.627
-547.325	-91.552	0.652	0.186
-546.310	24.159	-0.143	-0.118
-545.296	465.706	-0.244	-0.548
-544.281	-50.557	-0.348	0.164
-543.266	-200.000	-0.137	-0.683
-542.252	27.219	0.294	0.247
-541.237	-192.418	0.079	-0.001
-540.223	-35.602	-0.392	-0.213
-539.208	-21.050	0.234	-0.144
-538.193	-49.537	-0.417	-0.199
-537.179	-91.377	-0.759	0.217
-536.164	-200.000	-0.059	0.319
-535.150	-37.218	-0.175	0.094
-534.135	-200.000	0.132	0.844
-533.121	-103.130	0.469	0.111
-532.106	417.340	-0.215	-0.460
-531.091	-112.807	0.245	0.049
-530.077	540.331	0.179	0.426
-529.062	-89.816	0.705	0.206
-528.048	-57.398	-0.238	0.104
-527.033	305.994	-0.205	-0.382
-526.018	-153.591	-0.471	0.032
-525.004	-170.566	-0.952	0.033
-523.989	-200.000	0.028	-0.314
-522.975	-126.891	-0.652	0.096
-521.960	46.061	-0.382	0.354
-520.945	-105.683	-0.384	0.087
-519.931	-70.639	0.302	-0.114
-518.916	-72.697	0.750	0.277
-517.902	64.886	-0.491	0.495
-516.887	-48.810	-0.426	0.204
-515.872	-165.941	0.611	0.026
-514.858	800.000	0.210	0.637
-513.843	-87.573	0.682	0.206
-512.829	-143.868	-0.325	-0.031
-511.814	-13.631	-0.872	0.564
-510.799	210.373	0.467	0.733
-509.785	-23.779	0.179	0.107
-508.770	-199.476	-0.612	-0.003
-507.756	129.426	-0.421	0.537
-506.741	-200.000	0.072	-0.829
-505.726	800.000	-0.317	-1.032
-504.712	1.045	0.345	-0.247
-503.697	-74.802	-0.732	-0.262
-502.683	459.422	0.249	0.553
-501.668	472.159	0.097	0.217
-500.653	-163.682	-0.574	-0.027
-499.639	223.043	-0.193	-0.310
-498.624	-140.303	-0.240	0.025
-497.610	-176.092	-0.330	0.009
-496.595	41.125	0.562	0.507
-495.581	800.000	-0.114	0.416
-494.566	800.000	-0.095	0.344
-493.551	-200.000	0.079	-0.561
-492.537	681.860	0.129	-0.336
-491.522	48.585	0.397	0.372
-490.508	800.000	0.157	0.628
-489.493	255.754	0.147	0.252
-488.478	314.230	-0.202	0.380
-487.464	63.805	0.430	-0.432
-486.449	176.824	-0.145	0.210
-485.435	130.664	0.348	-0.446
-484.420	-113.640	0.261	-0.051
-483.405	287.773	-0.111	0.201
-482.391	-60.389	-0.535	-0.227
-481.376	800.000	-0.064	0.270
-480.362	423.609	0.062	0.133
-479.347	-82.316	0.077	-0.025
-478.332	-200.000	0.173	-1.376
-477.318	-200.000	-0.035	-0.425
-476.303	664.598	-0.271	0.698
-475.289	60.196	-0.217	0.214
-474.274	248.159	-0.351	0.593
-473.259	-200.000	0.302	1.354
-472.245	-49.260	-0.661	-0.315
-471.230	430.803	-0.111	-0.240
-470.216	238.563	-0.697	-1.156
-469.201	-200.000	0.005	-0.202
-468.186	51.210	0.308	0.291
-467.172	210.162	-0.575	0.900
-466.157	-200.000	0.073	0.341
-465.143	43.886	-0.467	-0.427
-464.128	-130.142	0.559	0.076
-463.113	167.025	0.211	-0.299
-462.099	-12.699	0.660	-0.429
-461.084	-16.410	-0.502	-0.317
-460.070	91.410	0.779	-0.873
-459.055	-15.833	0.143	-0.091
-458.040	25.876	0.376	-0.312
-457.026	-133.869	0.361	-0.045
-456.011	-163.941	-0.851	0.040
-454.997	800.000	0.100	0.325
-453.982	800.000	0.083	-0.361
-452.968	-125.557	0.699	0.106
-451.953	206.515	0.346	-0.536
-450.938	454.803	0.348	-0.769
-449.924	3.884	-0.257	0.187
-448.909	-200.000	-0.090	-0.498
-447.895	255.542	-0.375	0.640
-446.880	800.000	0.206	-0.688
-445.865	63.449	-0.022	0.022
-444.851	-136.755	-0.334	-0.038
-443.836	96.431	0.650	-0.741
-442.822	106.547	-0.507	0.600
-441.807	-200.000	0.019	-0.264
-440.792	496.168	-0.337	-0.771
-439.778	-139.514	0.543	-0.058
-438.763	41.321	0.377	-0.340
-437.749	-65.400	0.390	-0.156
-436.734	89.744	0.178	0.198
-435.719	-200.000	0.052	0.277
-434.705	4.780	-0.923	0.676
-433.690	23.461	-0.273	-0.223
-432.676	800.000	0.302	0.846
-431.661	132.475	0.289	-0.371
-430.646	-139.698	-0.255	-0.027
-429.632	-96.860	-0.473	-0.124
-428.617	-25.331	-0.578	0.341
-427.603	16.148	0.353	0.278
-426.588	-200.000	-0.201	-1.135
-425.573	-39.932	-0.392	-0.204
-424.559	250.982	0.149	0.252
-423.544	-56.666	0.101	0.044
-422.530	29.131	-0.558	0.471
-421.515	-121.291	-0.312	0.052
-420.500	73.878	0.200	0.209
-419.486	-200.000	-0.002	0.016
-418.471	-94.032	0.906	0.248
-417.457	-200.000	0.046	0.467
-416.442	-200.000	0.039	-0.447
-415.428	35.325	-0.639	-0.558
-414.413	257.864	-0.363	-0.622
-413.398	-21.887	0.361	-0.219
-412.384	209.794	0.324	0.506
-411.369	769.571	0.108	0.293
-410.355	800.000	0.069	-0.292
-409.340	-200.000	0.017	1.167
-408.325	-200.000	-0.048	-0.215
-407.311	127.517	0.303	-0.383
-406.296	800.000	0.132	-0.373
-405.282	-52.122	0.501	0.231
-404.267	800.000	-0.103	0.353
-403.252	774.382	0.068	-0.184
-402.238	126.251	-0.307	-0.386
-401.223	6.128	-0.449	-0.331
-400.209	800.000	0.224	-0.726
-399.194	-1.733	1.039	-0.728
-398.179	-84.494	0.398	0.125
-397.165	800.000	-0.124	0.465
-396.150	-78.733	0.499	-0.169
-395.136	-56.418	0.204	0.090
-394.121	-200.000	-0.078	-0.451
-393.106	91.655	-0.075	0.084
-392.092	-50.611	-0.288	-0.135
-391.077	-200.000	-0.087	0.598
-390.063	573.286	-0.446	1.081
-389.048	70.316	-0.511	0.525
-388.033	39.085	0.052	0.047
-387.019	5.425	-0.167	-0.123
-386.004	-10.419	-0.261	0.172
-384.990	293.797	-0.249	0.451
-383.975	800.000	0.240	-0.668
-382.960	-129.300	0.327	-0.045
-381.946	6.263	0.094	-0.070
-380.931	226.477	0.308	-0.497
-379.917	-119.553	-0.268	0.046
-378.902	-200.000	-0.168	0.966
-377.888	547.803	0.188	0.447
-376.873	78.471	0.909	-0.965
-375.858	-200.000	-0.002	0.087
-374.844	-114.053	-0.230	-0.044
-373.829	254.505	0.277	0.471
-372.815	66.606	-0.145	-0.147
-371.800	-200.000	-0.014	0.698
-370.785	311.698	-0.154	-0.287
-369.771	-94.411	0.591	0.160
-368.756	800.000	0.039	0.112
-367.742	-111.849	0.196	0.039
-366.727	17.290	0.518	0.409
-365.712	-73.824	0.541	-0.195
-364.698	-140.298	0.481	0.050
-363.683	-200.000	-0.061	-0.556
-362.669	38.428	0.358	0.317
-361.654	32.742	-0.472	0.406
-360.639	379.287	-0.236	0.480
-359.625	-78.636	0.354	-0.120
-358.610	5.416	-0.550	0.403
-357.596	416.217	0.143	0.304
-356.581	-119.257	0.198	-0.034
-355.566	-73.175	0.537	-0.196
-354.552	-4.646	-0.610	-0.418
-353.537	-200.000	0.041	-0.186
-352.523	183.218	0.141	0.206
-351.508	-200.000	-0.024	0.870
-350.493	100.170	0.650	0.748
-349.479	-200.000	-0.024	-0.197
-348.464	121.244	0.230	0.284
-347.450	-93.393	0.196	0.054
-346.435	1.035	0.224	0.159
-345.420	334.612	-0.619	1.191
-344.406	-1.422	0.968	-0.678
-343.391	27.743	0.556	-0.465
-342.377	800.000	-0.204	0.700
-341.362	77.555	-0.451	0.477
-340.348	11.421	-0.553	0.421
-339.333	800.000	-0.271	0.989
-338.318	150.536	-0.294	0.396
-337.304	711.827	-0.104	-0.272
-336.289	800.000	-0.280	-1.160
-335.275	800.000	0.187	0.653
-334.260	-11.281	-0.467	-0.305
-333.245	37.753	-0.358	0.315
-332.231	-69.277	0.741	-0.283
-331.216	-157.149	-0.666	0.040
-330.202	-200.000	-0.135	-0.870
-329.187	-200.000	0.015	-0.446
-328.172	-78.548	-0.251	0.085
-327.158	542.511	0.109	0.258
-326.143	-147.152	-0.493	-0.042
-325.129	24.568	0.275	0.226
-324.114	275.998	0.159	0.280
-323.099	-124.286	-0.603	0.094
-322.085	800.000	0.144	-0.508
-321.070	-200.000	0.060	0.381
-320.056	32.853	0.392	-0.337
-319.041	-88.749	-0.219	-0.065
-318.026	-197.854	0.385	-0.002
-317.012	800.000	0.088	-0.273
-315.997	-88.567	1.229	-0.363
-314.983	-200.000	-0.081	-0.888
-313.968	591.902	-0.222	0.544
-312.953	-200.000	0.017	0.779
-311.939	69.358	-0.076	0.078
-310.924	-57.292	0.406	-0.177
-309.910	-24.797	0.790	-0.465
-308.895	-200.000	-0.047	0.466
-307.880	-2.431	0.347	0.241
-306.866	-141.861	0.349	0.035
-305.851	-20.123	0.203	-0.124
-304.837	-200.000	-0.040	-0.248
-303.822	146.881	-0.399	0.531
-302.807	-200.000	0.113	0.566
-301.793	-200.000	0.169	-0.765
-300.778	176.573	-0.173	0.250
-299.764	138.098	-0.137	-0.178
-298.749	-156.126	-0.150	0.009
-297.735	-21.770	0.490	-0.295
-296.720	800.000	0.163	-0.498
-295.705	-111.719	-0.041	0.008
-294.691	5.475	-0.329	-0.241
-293.676	43.350	-0.899	-0.814
-292.662	106.325	0.399	0.468
-291.647	-99.597	-0.689	-0.171
-290.632	11.986	0.740	-0.564
-289.618	440.083	-0.161	-0.349
-288.603	-200.000	0.267	-1.594
-287.589	-30.319	0.499	0.280
-286.574	141.511	-0.045	-0.059
-285.559	-52.974	-0.914	0.416
-284.545	-200.000	0.005	0.090
-283.530	-89.119	0.408	0.119
-282.516	80.143	-0.529	-0.564
-281.501	124.624	0.212	-0.264
-280.486	163.688	0.283	-0.394
-279.472	496.561	-0.152	-0.347
-278.457	-28.756	0.573	-0.327
-277.443	42.617	-0.121	-0.110
-276.428	800.000	-0.170	-0.517
-275.413	434.612	0.320	-0.690
-274.399	109.553	0.392	-0.465
-273.384	11.410	-0.601	-0.456
-272.370	68.260	0.382	-0.387
-271.355	478.270	-0.101	0.227
-270.340	-115.006	-0.560	-0.105
-269.326	800.000	-0.244	0.862
-268.311	154.926	0.120	0.164
-267.297	76.629	-0.356	-0.373
-266.282	101.957	0.463	0.535
-265.267	394.564	-0.223	0.460
-264.253	-200.000	0.061	-0.506
-263.238	-124.030	-0.111	-0.017
-262.224	800.000	-0.103	0.421
-261.209	-52.257	-0.392	-0.180
-260.195	-200.000	0.011	0.226
-259.180	73.043	-0.141	-0.146
-258.165	309.106	0.107	-0.197
-257.151	-104.501	-0.382	0.087
-256.136	187.462	0.488	-0.721
-255.122	45.525	-0.959	-0.876
-254.107	-103.466	0.213	0.050
-253.092	207.495	-0.408	-0.630
-252.078	-200.000	-0.072	0.762
-251.063	800.000	-0.067	0.239
-250.049	-101.351	0.337	0.081
-249.034	38.030	0.292	0.257
-248.019	75.438	-0.291	-0.304
-247.005	-8.322	0.289	-0.192
-245.990	-200.000	-0.019	-0.139
-244.976	-124.425	-0.324	0.050
-243.961	109.227	-0.319	0.378
-242.946	66.707	0.338	-0.340
-241.932	20.174	-0.687	-0.548
-240.917	-69.346	0.361	-0.137
-239.903	-26.980	-0.391	-0.226
-238.888	131.024	-0.354	0.449
-237.873	323.796	-0.145	0.273
-236.859	-103.026	-0.251	0.059
-235.844	-187.199	-0.329	-0.004
-234.830	-75.907	0.234	0.082
-233.815	59.826	-0.216	0.210
-232.800	283.749	-0.206	0.365
-231.786	238.320	-0.249	-0.408
-230.771	-200.000	-0.093	1.191
-229.757	-200.000	-0.185	0.879
-228.742	-19.207	-0.668	0.410
-227.727	800.000	-0.049	0.168
-226.713	-157.784	-0.435	0.026
-225.698	99.840	0.021	0.024
-224.684	-59.064	0.558	-0.238
-223.669	-200.000	-0.009	0.073
-222.655	-200.000	0.010	-0.695
-221.640	31.829	0.432	0.368
-220.625	-200.000	-0.000	0.085
-219.611	504.247	-0.233	-0.533
-218.596	-22.963	1.098	-0.654
-217.582	-200.000	0.016	-0.384
-216.567	-41.999	1.106	0.560
-215.552	-106.309	-0.352	0.078
-214.538	-104.981	0.127	0.029
-213.523	-200.000	-0.059	-0.587
-212.509	-200.000	-0.014	-0.327
-211.494	4.874	-0.336	0.244
-210.479	-2.323	0.312	-0.216
-209.465	-39.091	0.806	-0.419
-208.450	133.589	-0.079	-0.102
-207.436	-95.352	0.544	-0.144
-206.421	730.190	0.172	0.453
-205.406	120.421	-0.120	-0.147
-204.392	-39.770	-0.424	-0.219
-203.377	-13.135	0.720	0.462
-202.363	-200.000	-0.077	-1.082
-201.348	92.460	0.177	0.197
-200.333	84.162	0.379	-0.409
-199.319	-97.066	0.864	-0.223
-198.304	-138.163	1.095	0.120
-197.290	-75.289	-0.499	-0.176
-196.275	-182.191	-0.514	0.009
-195.260	-200.000	0.127	-1.098
-194.246	-78.028	0.522	0.178
-193.231	-60.807	0.499	0.208
-192.217	-200.000	0.003	-0.898
-191.202	92.824	0.341	0.380
-190.187	-147.230	-0.942	-0.079
-189.173	-200.000	0.075	-0.377
-188.158	-35.690	0.356	0.191
-187.144	196.807	-0.310	0.466
-186.129	54.141	-0.168	-0.160
-185.114	254.081	0.517	-0.873
-184.100	39.026	0.426	0.376
-183.085	-60.982	-0.474	-0.198
-182.071	-39.591	-0.967	-0.499
-181.056	800.000	0.041	0.177
-180.042	115.002	0.400	-0.481
-179.027	-200.000	-0.069	-0.620
-178.012	81.121	-0.342	-0.364
-176.998	105.640	0.601	-0.701
-175.983	8.559	0.334	0.248
-174.969	-200.000	-0.043	0.390
-173.954	356.861	-0.135	0.266
-172.939	-200.000	0.016	-0.986
-171.925	-200.000	-0.056	0.317
-170.910	107.900	-0.143	-0.168
-169.896	-71.302	-0.320	-0.118
-168.881	-16.429	-0.217	0.136
-167.866	52.514	0.261	0.245
-166.852	-25.451	0.325	0.190
-165.837	190.975	0.047	0.070
-164.823	-43.379	0.553	0.276
-163.808	540.823	0.409	0.960
-162.793	800.000	-0.125	-0.487
-161.779	120.725	-0.207	-0.254
-160.764	800.000	-0.110	0.328
-159.750	94.807	-0.170	0.190
-158.735	-132.724	0.252	0.032
-157.720	105.754	0.498	-0.580
-156.706	-119.719	0.459	0.078
-155.691	166.773	0.276	0.386
-154.677	-130.558	-0.619	-0.082
-153.662	-200.000	0.113	0.754
-152.647	800.000	-0.128	-0.364
-151.633	-151.114	-0.637	-0.047
-150.618	-159.691	-0.064	0.003
-149.604	6.113	-0.230	0.168
-148.589	-9.962	0.379	0.248
-147.574	755.297	-0.107	0.286
-146.560	331.637	0.540	1.026
-145.545	800.000	-0.114	0.487
-144.531	-11.538	0.589	-0.381
-143.516	301.110	-0.137	0.250
-142.502	-200.000	-0.047	-0.443
-141.487	348.563	-0.312	-0.606
-140.472	6.136	-0.582	-0.425
-139.458	-200.000	0.063	0.505
-138.443	272.477	-0.613	1.066
-137.429	25.316	-0.625	0.511
-136.414	-200.000	0.048	0.242
-135.399	-127.133	-0.735	-0.106
-134.385	-200.000	0.044	0.779
-133.370	325.310	-0.222	0.418
-132.356	-160.575	-0.146	-0.008
-131.341	-3.400	0.517	-0.354
-130.326	-1.693	-0.577	0.400
-129.312	-84.523	-0.440	0.137
-128.297	-119.434	1.168	-0.200
-127.283	-79.453	0.511	0.170
-126.268	37.354	0.590	0.515
-125.253	-36.215	0.437	0.232
-124.239	-200.000	-0.077	0.604
-123.224	800.000	0.095	-0.350
-122.210	-22.201	-0.091	0.055
-121.195	-111.288	0.484	0.097
-120.180	-30.276	-1.338	0.748
-119.166	619.864	-0.290	0.717
-118.151	-69.367	-0.037	0.014
-117.137	800.000	-0.176	0.504
-116.122	240.608	-0.194	-0.319
-115.107	24.624	0.077	-0.063
-114.093	441.981	0.102	0.220
-113.078	23.062	0.374	-0.302
-112.064	-200.000	0.033	-0.365
-111.049	800.000	-0.095	-0.404
-110.034	53.230	0.484	-0.456
-109.020	63.784	-0.515	-0.509
-108.005	-76.283	-0.432	0.150
-106.991	-70.412	-0.375	0.140
-105.976	-35.578	0.803	0.429
-104.962	-92.900	-0.490	-0.135
-103.947	-200.000	0.044	-0.678
-102.932	158.346	0.286	-0.391
-101.918	511.467	-0.375	-0.860
-100.903	800.000	0.140	0.391
-99.889	800.000	-0.403	1.135
-98.874	-84.495	0.702	0.218
-97.859	149.745	0.179	-0.238
-96.845	25.383	-0.791	0.646
-95.830	66.754	-0.410	0.410
-94.816	466.103	-0.247	0.544
-93.801	500.902	0.377	0.856
-92.786	237.385	-0.470	0.766
-91.772	328.837	0.190	-0.360
-90.757	-200.000	-0.136	0.740
-89.743	-20.671	-0.127	0.077
-88.728	120.152	-0.446	-0.544
-87.713	13.236	0.235	-0.179
-86.699	77.166	0.207	-0.216
-85.684	-29.354	-0.238	0.134
-84.670	148.116	0.466	-0.618
-83.655	210.913	0.452	-0.698
-82.640	20.612	0.411	-0.326
-81.626	767.661	-0.121	-0.324
-80.611	-200.000	0.016	-0.149
-79.597	157.031	-0.767	-1.043
-78.582	-112.943	-0.304	0.059
-77.567	-200.000	0.074	-0.420
-76.553	127.920	-0.433	0.541
-75.538	12.744	-0.478	0.363
-74.524	89.587	0.314	-0.344
-73.509	-104.732	0.307	0.069
-72.494	-109.164	0.364	0.076
-71.480	-44.664	0.275	-0.135
-70.465	2.022	0.715	-0.507
-69.451	-200.000	0.051	0.281
-68.436	800.000	0.291	-1.152
-67.422	-200.000	-0.033	-0.531
-66.407	-159.130	-0.143	0.008
-65.392	-200.000	-0.027	-0.415
-64.378	800.000	-0.163	-0.603
-63.363	-10.989	0.362	0.235
-62.349	-138.240	0.371	0.040
-61.334	221.572	-0.479	-0.756
-60.319	380.282	0.470	0.946
-59.305	-200.000	0.068	-0.744
-58.290	53.390	1.144	1.077
-57.276	46.905	1.554	1.418
-56.261	-200.000	98.146	607.286
-55.246	655.378	1365.472	3441.999
-54.232	201.793	2538.261	3840.531
-53.217	113.712	2245.886	2678.646
-52.203	41.438	1879.711	1669.633
-51.188	35.020	1673.303	1438.204
-50.173	32.502	1628.665	1381.338
-49.159	51.731	1680.104	1568.619
-48.144	52.389	1695.956	1588.253
-47.130	34.932	1655.444	1421.974
-46.115	32.138	1640.890	1388.791
-45.100	31.651	1636.979	1381.837
-44.086	31.868	1633.748	1380.649
-43.071	31.811	1631.793	1378.523
-42.057	31.775	1629.056	1375.893
-41.042	31.968	1627.189	1375.676
-40.027	31.749	1625.316	1372.435
-39.013	31.575	1623.854	1369.872
-37.998	31.742	1621.782	1369.291
-36.984	31.828	1620.351	1368.655
-35.969	31.831	1619.216	1367.668
-34.954	31.838	1618.310	1366.897
-33.940	31.846	1615.290	1364.350
-32.925	31.870	1614.268	1363.609
-31.911	32.107	1611.758	1363.152
-30.896	31.892	1610.246	1360.258
-29.881	31.909	1609.047	1359.321
-28.867	32.106	1607.642	1359.506
-27.852	31.752	1605.460	1355.043
-26.838	31.996	1604.031	1355.549
-25.823	31.926	1603.262	1354.341
-24.809	31.929	1601.419	1352.748
-23.794	32.052	1599.658	1352.091
-22.779	31.862	1598.953	1350.075
-21.765	31.636	1597.432	1347.112
-20.750	31.770	1596.343	1347.103
-19.736	31.997	1593.823	1346.553
-18.721	31.798	1594.144	1345.343
-17.706	31.666	1591.637	1342.229
-16.692	31.725	1589.440	1340.747
-15.677	31.969	1587.172	1340.520
-14.663	31.737	1588.227	1339.703
-13.648	31.885	1586.843	1339.540
-12.633	31.909	1585.370	1338.409
-11.619	32.175	1581.701	1337.152
-10.604	31.926	1581.279	1334.972
-9.590	32.054	1578.642	1333.605
-8.575	32.075	1577.975	1333.133
-7.560	32.009	1577.426	1332.151
-6.546	31.987	1575.690	1330.472
-5.531	31.627	1576.766	1328.775
-4.517	31.877	1574.699	1328.757
-3.502	32.326	1572.162	1329.736
-2.487	31.817	1572.248	1326.156
-1.473	31.508	1560.052	1313.650
-0.458	28.642	1539.966	1276.782
0.556	26.687	1541.515	1245.810
1.571	24.058	1563.940	1245.459
2.586	23.615	1576.638	1252.334
3.600	21.042	1523.219	1192.231
4.615	12.542	1415.001	1053.229
5.629	4.637	1353.111	958.505
6.644	3.415	1344.256	944.662
7.659	3.385	1343.088	943.576
8.673	3.461	1342.319	943.411
9.688	3.659	1339.641	942.659
10.702	3.136	1336.807	937.393
11.717	6.634	1343.308	963.258
12.731	15.866	1360.118	1032.072
13.746	23.136	1371.533	1085.420
14.761	24.904	1373.927	1098.072
15.775	24.514	1373.699	1095.398
16.790	24.259	1371.218	1091.760
17.804	23.911	1370.708	1089.129
18.819	24.017	1370.344	1089.390
19.834	24.020	1368.704	1088.012
20.848	24.141	1367.070	1087.355
21.863	23.984	1367.353	1086.522
22.877	23.886	1366.838	1085.423
23.892	24.065	1365.047	1084.992
24.907	24.190	1364.058	1084.872
25.921	24.199	1362.664	1083.722
26.936	23.890	1363.211	1082.178
27.950	23.990	1362.073	1081.788
28.965	24.291	1359.737	1081.664
29.980	24.105	1358.862	1079.745
30.994	24.498	1358.252	1081.544
32.009	24.068	1358.837	1079.308
33.023	24.357	1357.412	1079.831
34.038	24.066	1355.718	1076.631
35.053	24.183	1354.220	1076.054
36.067	23.996	1353.136	1073.967
37.082	23.944	1351.887	1072.569
38.096	24.024	1352.039	1073.077
39.111	24.378	1350.865	1074.178
40.126	24.053	1348.834	1070.516
41.140	24.058	1349.255	1070.789
42.155	23.741	1348.213	1067.961
43.169	23.491	1348.907	1066.909
44.184	23.739	1348.150	1067.710
45.199	23.545	1349.331	1067.379
46.213	23.905	1348.634	1068.902
47.228	24.028	1347.206	1068.413
48.242	24.183	1346.896	1068.999
49.257	24.085	1345.431	1067.156
50.271	24.005	1342.911	1064.582
51.286	24.259	1341.577	1064.953
52.301	24.337	1339.759	1063.879
53.315	24.089	1339.392	1062.017
54.330	23.964	1338.237	1060.258
55.344	23.731	1337.668	1058.330
56.359	23.755	1336.965	1057.818
57.374	23.632	1336.181	1056.375
58.388	23.902	1334.568	1056.610
59.403	23.557	1334.710	1054.578
60.417	23.648	1334.402	1054.780
61.432	23.706	1333.361	1054.211
62.447	23.663	1331.772	1052.607
63.461	23.647	1330.425	1051.353
64.476	23.540	1329.366	1049.789
65.490	23.489	1329.283	1049.331
66.505	23.439	1327.545	1047.570
67.520	23.709	1325.641	1047.571
68.534	23.449	1326.590	1046.692
69.549	23.588	1323.273	1044.801
70.563	23.622	1322.962	1044.660
71.578	23.415	1321.422	1042.139
72.593	23.155	1322.182	1041.114
73.607	23.260	1319.565	1039.578
74.622	23.093	1320.285	1039.071
75.636	23.124	1320.523	1039.348
76.651	23.224	1318.826	1038.506
77.666	23.437	1317.300	1038.463
78.680	23.210	1319.138	1038.486
79.695	23.097	1318.019	1036.855
80.709	23.555	1316.584	1038.314
81.724	23.721	1315.961	1038.702
82.739	24.055	1314.509	1039.415
83.753	24.159	1314.018	1039.542
84.768	24.396	1313.721	1040.594
85.782	24.181	1313.124	1038.775
86.797	24.215	1312.569	1038.442
87.812	24.347	1310.033	1037.115
88.826	24.216	1308.808	1035.291
89.841	24.109	1309.730	1035.307
90.855	24.218	1307.712	1034.250
91.870	24.399	1306.922	1034.586
92.884	24.220	1306.795	1033.358
93.899	24.355	1306.373	1033.714
94.914	24.324	1305.917	1033.080
95.928	24.511	1303.660	1032.285
96.943	24.218	1303.424	1030.313
97.957	24.085	1302.728	1028.907
98.972	24.344	1300.689	1028.699
99.987	24.255	1300.800	1028.181
101.001	24.138	1300.247	1026.978
102.016	24.286	1298.339	1026.233
103.030	24.290	1297.752	1025.698
104.045	24.252	1297.105	1024.878
105.060	24.007	1295.754	1022.316
106.074	23.805	1294.416	1020.007
107.089	23.718	1292.782	1018.132
108.103	23.608	1292.088	1016.866
109.118	23.591	1290.349	1015.310
110.133	23.510	1288.598	1013.379
111.147	23.505	1288.078	1012.852
112.162	23.511	1286.982	1011.936
113.176	23.598	1285.332	1011.041
114.191	23.587	1285.287	1010.855
115.206	23.363	1285.238	1009.451
116.220	23.754	1283.007	1009.835
117.235	23.509	1283.156	1008.469
118.249	23.642	1280.117	1006.743
119.264	23.175	1280.428	1004.248
120.279	23.446	1279.018	1004.590
121.293	23.308	1278.785	1003.538
122.308	23.537	1276.620	1003.047
123.322	23.290	1275.421	1000.618
124.337	23.139	1275.044	999.384
125.352	22.823	1275.709	998.026
126.366	23.359	1272.951	998.806
127.381	23.089	1272.413	996.775
128.395	23.209	1270.876	996.155
129.410	23.131	1269.714	994.718
130.424	23.056	1270.367	994.718
131.439	23.311	1269.161	995.121
132.454	23.235	1268.563	994.136
133.468	23.676	1268.195	996.234
134.483	23.495	1267.792	994.814
135.497	23.572	1267.018	994.554
136.512	23.611	1265.162	993.228
137.527	23.606	1263.986	992.188
138.541	23.736	1262.802	991.898
139.556	23.900	1261.424	991.640
140.570	23.989	1261.393	992.026
141.585	23.929	1259.830	990.371
142.600	24.232	1259.257	991.522
143.614	24.170	1259.249	991.081
144.629	24.202	1258.177	990.329
145.643	24.223	1256.656	989.160
146.658	23.997	1255.810	987.150
147.673	24.002	1253.998	985.668
148.687	23.926	1253.113	984.467
149.702	23.371	1253.110	981.302
150.716	23.529	1249.819	979.513
151.731	23.258	1248.611	976.986
152.746	23.432	1248.483	977.756
153.760	23.648	1248.012	978.491
154.775	23.827	1246.549	978.244
155.789	23.988	1245.842	978.486
156.804	23.867	1244.514	976.693
157.819	23.623	1244.329	975.120
158.833	24.068	1243.400	976.751
159.848	24.087	1242.604	976.141
160.862	24.078	1242.122	975.627
161.877	23.910	1240.298	973.187
162.892	23.657	1238.323	970.173
163.906	23.620	1237.498	969.237
164.921	23.274	1237.705	967.426
165.935	23.634	1237.066	968.806
166.950	23.663	1236.742	968.622
167.964	23.945	1236.133	969.597
168.979	23.707	1234.460	966.902
169.994	23.746	1234.105	966.752
171.008	23.556	1233.578	965.218
172.023	23.637	1233.001	965.127
173.037	24.197	1231.734	967.086
174.052	23.998	1232.199	966.285
175.067	23.834	1230.079	963.649
176.081	23.367	1228.914	960.123
177.096	23.629	1228.413	961.063
178.110	23.694	1227.684	960.758
179.125	23.387	1226.668	958.221
180.140	23.819	1225.964	959.917
181.154	24.358	1223.931	961.145
182.169	23.833	1224.228	958.465
183.183	24.284	1221.562	958.719
184.198	24.108	1221.737	957.827
185.213	23.926	1221.093	956.255
186.227	24.108	1219.168	955.642
187.242	24.041	1218.351	954.560
188.256	24.189	1218.448	955.345
189.271	24.318	1217.792	955.435
190.286	24.051	1216.829	953.165
191.300	23.715	1215.361	950.136
192.315	23.659	1214.858	949.360
193.329	23.756	1214.974	949.881
194.344	23.799	1213.408	948.806
195.359	23.566	1212.200	946.530
196.373	23.400	1211.892	945.324
197.388	23.209	1212.366	944.590
198.402	23.797	1211.627	947.066
199.417	24.131	1212.616	949.536
200.432	24.251	1211.270	949.039
201.446	24.337	1210.290	948.645
202.461	24.518	1210.020	949.312
203.475	24.241	1208.882	946.859
204.490	24.147	1207.275	945.018
205.504	23.746	1206.144	941.924
206.519	23.655	1204.752	940.273
207.534	23.466	1203.533	938.239
208.548	23.466	1202.305	937.199
209.563	23.505	1202.094	937.158
210.577	23.350	1201.871	936.082
211.592	23.538	1200.552	935.962
212.607	24.073	1200.332	938.527
213.621	24.186	1200.003	938.782
214.636	24.044	1198.122	936.482
215.650	23.909	1196.654	934.542
216.665	24.135	1196.578	935.588
217.680	24.370	1196.450	936.642
218.694	24.417	1195.463	936.033
219.709	24.292	1193.853	934.032
220.723	24.236	1193.260	933.195
221.738	24.265	1193.571	933.505
222.753	24.099	1191.080	930.609
223.767	23.923	1191.348	929.815
224.782	24.215	1191.346	931.257
225.796	24.237	1191.459	931.376
226.811	23.993	1190.690	929.420
227.826	24.339	1188.809	929.671
228.840	24.063	1188.214	927.685
229.855	23.912	1187.691	926.412
230.869	23.998	1187.423	926.567
231.884	23.939	1185.663	924.803
232.899	23.333	1185.788	921.669
233.913	23.443	1184.625	921.253
234.928	23.841	1182.766	921.791
235.942	23.455	1181.716	918.894
236.957	23.725	1181.348	919.924
237.972	23.356	1180.694	917.421
238.986	23.488	1179.972	917.463
240.001	23.376	1179.982	916.812
241.015	23.417	1179.013	916.186
242.030	23.762	1177.930	917.047
243.045	23.903	1178.126	917.848
244.059	24.008	1177.015	917.440
245.074	24.082	1176.266	917.158
246.088	24.139	1176.733	917.735
247.103	24.146	1175.738	916.914
248.117	24.395	1174.636	917.251
249.132	24.424	1173.729	916.611
250.147	24.557	1173.922	917.366
251.161	24.796	1174.216	918.742
252.176	25.189	1172.046	918.973
253.190	24.821	1172.249	917.167
254.205	25.042	1171.817	917.882
255.220	24.895	1171.266	916.614
256.234	25.044	1171.627	917.578
257.249	25.060	1169.812	916.160
258.263	25.045	1169.756	915.957
259.278	24.785	1169.660	914.471
260.293	25.043	1167.800	914.251
261.307	25.252	1167.477	914.983
262.322	25.340	1165.886	914.105
263.336	25.168	1165.955	913.202
264.351	25.104	1165.500	912.442
265.366	25.170	1164.947	912.260
266.380	24.966	1164.713	910.958
267.395	24.916	1163.847	909.947
268.409	24.584	1163.264	907.727
269.424	24.858	1161.714	907.827
270.439	24.804	1160.783	906.745
271.453	24.519	1161.379	905.684
272.468	24.695	1160.465	905.783
273.482	24.322	1159.629	903.164
274.497	24.541	1158.253	903.116
275.512	24.495	1158.448	902.959
276.526	24.780	1156.598	902.875
277.541	24.497	1156.277	901.114
278.555	24.574	1156.113	901.297
279.570	25.228	1155.136	903.751
280.585	25.180	1154.395	902.851
281.599	25.072	1154.298	902.149
282.614	25.056	1152.173	900.327
283.628	24.441	1151.569	896.688
284.643	24.315	1150.819	895.392
285.657	24.635	1149.245	895.691
286.672	24.357	1149.062	894.078
287.687	24.831	1147.801	895.388
288.701	24.812	1147.038	894.619
289.716	24.884	1145.614	893.792
290.730	24.389	1146.463	891.898
291.745	24.648	1145.416	892.297
292.760	24.998	1144.375	893.152
293.774	24.740	1145.176	892.412
294.789	25.000	1144.266	892.923
295.803	25.306	1142.982	893.364
296.818	24.660	1142.039	889.335
297.833	24.734	1141.695	889.355
298.847	24.593	1140.818	887.894
299.862	24.659	1139.987	887.494
300.876	24.756	1139.220	887.301
301.891	24.930	1139.412	888.233
302.906	24.856	1139.637	887.965
303.920	25.193	1138.028	888.300
304.935	25.327	1137.508	888.479
305.949	25.490	1136.781	888.640
306.964	24.984	1136.659	885.963
307.979	25.107	1134.952	885.162
308.993	25.067	1134.415	884.470
310.008	25.048	1133.445	883.541
311.022	25.498	1132.674	885.079
312.037	25.153	1132.715	883.330
313.052	25.423	1131.133	883.350
314.066	24.874	1130.268	879.895
315.081	24.443	1129.500	877.103
316.095	24.465	1128.051	876.010
317.110	24.599	1127.707	876.318
318.125	24.674	1126.332	875.541
319.139	24.524	1126.502	874.861
320.154	24.566	1126.446	874.949
321.168	24.720	1125.220	874.672
322.183	24.599	1123.962	873.023
323.197	24.727	1123.961	873.570
324.212	24.717	1123.934	873.425
325.227	24.671	1123.630	872.886
326.241	24.452	1122.421	870.799
327.256	24.446	1121.811	870.224
328.270	24.734	1120.426	870.474
329.285	24.587	1119.387	868.874
330.300	24.755	1118.395	868.845
331.314	24.535	1118.324	867.641
332.329	24.536	1117.636	867.037
333.343	24.683	1116.442	866.744
334.358	24.950	1116.260	867.821
335.373	25.024	1115.703	867.673
336.387	24.825	1115.723	866.647
337.402	25.070	1113.993	866.410
338.416	25.173	1112.854	865.946
339.431	25.366	1113.297	867.143
340.446	25.485	1112.016	866.645
341.460	25.561	1112.560	867.356
342.475	25.486	1112.518	866.889
343.489	25.699	1110.797	866.496
344.504	25.726	1110.495	866.310
345.519	25.836	1109.087	865.664
346.533	25.951	1108.072	865.349
347.548	25.840	1107.980	864.667
348.562	25.821	1106.800	863.580
349.577	25.408	1105.647	860.626
350.592	24.972	1105.272	858.170
351.606	25.015	1103.973	857.291
352.621	25.063	1103.054	856.731
353.635	24.773	1102.868	855.124
354.650	24.974	1101.702	855.104
355.665	25.042	1100.315	854.273
356.679	24.799	1101.886	854.259
357.694	25.235	1100.502	855.192
358.708	25.347	1099.288	854.702
359.723	25.024	1099.163	852.993
360.738	25.184	1098.581	853.226
361.752	25.088	1098.126	852.342
362.767	25.149	1097.593	852.144
363.781	25.191	1096.157	851.153
364.796	25.424	1096.122	852.153
365.810	25.678	1096.108	853.272
366.825	25.980	1095.075	853.822
367.840	25.881	1095.652	853.730
368.854	26.096	1094.846	854.040
369.869	25.989	1094.087	852.869
370.883	25.771	1092.889	850.831
371.898	25.597	1091.410	848.780
372.913	25.468	1091.501	848.167
373.927	25.497	1090.507	847.459
374.942	25.901	1090.550	849.319
375.956	25.845	1090.418	848.880
376.971	26.014	1088.003	847.720
377.986	25.867	1088.541	847.372
379.000	25.884	1088.108	847.037
380.015	26.075	1088.425	848.106
381.029	26.215	1087.602	848.052
382.044	26.030	1086.673	846.381
383.059	25.914	1085.845	845.120
384.073	26.067	1084.971	845.082
385.088	25.961	1084.680	844.281
386.102	25.913	1084.637	843.950
387.117	25.855	1082.124	841.649
388.132	25.577	1080.342	838.891
389.146	25.532	1079.881	838.251
390.161	25.745	1079.097	838.559
391.175	25.760	1077.962	837.671
392.190	25.604	1078.691	837.441
393.205	25.986	1077.900	838.526
394.219	26.103	1077.615	838.775
395.234	25.612	1076.450	835.513
396.248	25.682	1074.786	834.473
397.263	25.382	1073.285	831.847
398.278	25.654	1073.046	832.845
399.292	25.463	1072.816	831.710
400.307	25.541	1072.180	831.503
401.321	25.276	1072.605	830.533
402.336	25.261	1071.105	829.227
403.350	25.207	1070.584	828.504
404.365	25.370	1069.676	828.478
405.380	25.758	1068.855	829.559
406.394	25.479	1068.609	828.009
407.409	25.722	1067.704	828.351
408.423	26.108	1067.270	829.717
409.438	26.064	1066.393	828.758
410.453	26.085	1066.031	828.502
411.467	26.016	1065.204	827.469
412.482	26.237	1063.866	827.368
413.496	25.913	1065.008	826.697
414.511	26.327	1064.284	827.958
415.526	26.231	1063.777	827.051
416.540	26.632	1063.055	828.252
417.555	26.483	1063.056	827.500
418.569	26.300	1062.001	825.766
419.584	26.220	1060.665	824.290
420.599	26.271	1059.829	823.800
421.613	154.443	1404.243	1793.634
422.628	141.935	1454.389	1793.688
