DTS Sentinel unit serial number:	SN413079Multiplexer serial number:	ORYXHardware model number:	OX4-SRSoftware version number:	ORYX F/W v4.00 Oryx Data Collector v3.7.2.0data status	okinstallation	princeton_trtdifferential loss correction	single-endedforward channel	channel 2reverse channel	N/Adate	2019/09/13time	16:51:34forward acquisition time	60.00reverse acquisition time	0.00gamma	496.2192k internal	0.2315k external	0.2315temperature offset calibration	1.0216default loss term (dB/km)	0.3790temperature slope calibration	1.0000multiplexer offset coefficient	1.0000multiplexer slope coefficient	1.0000fibre end	0.00T internal ref (°C)	34.89T ext. ref 1 (°C)	4.93T ext. ref 2 (°C)	30.19length (m)	temperature (°C)	Stokes	anti-Stokes-747.200	242.556	0.113	-0.192
-746.185	37.572	-0.579	0.520
-745.171	-110.092	-0.203	-0.043
-744.156	-61.041	-0.159	-0.068
-743.142	-134.755	0.162	-0.020
-742.127	195.734	-0.114	0.175
-741.112	-200.000	-0.001	-0.100
-740.098	41.506	-0.250	0.229
-739.083	-200.000	-0.005	-0.128
-738.069	-96.269	0.215	0.058
-737.054	-24.913	-0.196	0.118
-736.039	-41.041	-0.246	0.129
-735.025	691.219	-0.107	0.283
-734.010	-200.000	-0.019	-0.200
-732.996	-108.451	0.071	0.015
-731.981	-200.000	-0.012	-0.318
-730.966	82.447	-0.083	-0.091
-729.952	-170.454	-0.378	-0.013
-728.937	558.456	0.131	-0.319
-727.923	301.460	-0.063	-0.118
-726.908	-85.753	-0.163	-0.051
-725.894	800.000	-0.064	-0.229
-724.879	208.803	0.036	-0.057
-723.864	-200.000	0.047	-0.378
-722.850	768.194	0.072	-0.198
-721.835	-58.730	-0.243	-0.106
-720.821	-136.359	-0.030	-0.004
-719.806	-35.450	-0.237	-0.130
-718.791	-136.325	-0.372	-0.044
-717.777	1.062	-0.142	-0.103
-716.762	49.927	-0.182	-0.174
-715.748	-116.260	0.124	0.023
-714.733	1.529	-0.084	0.061
-713.718	-181.529	-0.113	-0.002
-712.704	15.008	0.111	-0.088
-711.689	-200.000	-0.010	-0.538
-710.675	719.751	0.085	-0.228
-709.660	-85.983	0.195	0.061
-708.645	-47.077	0.312	0.154
-707.631	-200.000	-0.034	-0.155
-706.616	-123.925	-0.180	0.029
-705.602	-11.051	0.307	-0.205
-704.587	-19.624	-0.223	0.140
-703.572	-200.000	0.005	-0.028
-702.558	12.569	0.072	0.056
-701.543	-68.367	0.169	-0.066
-700.529	-104.599	0.193	-0.045
-699.514	-200.000	-0.024	-0.143
-698.499	193.193	0.205	0.313
-697.485	-103.643	-0.224	-0.053
-696.470	576.965	-0.117	-0.288
-695.456	240.184	-0.102	-0.172
-694.441	-22.515	-0.312	-0.191
-693.426	19.029	-0.172	0.140
-692.412	798.425	-0.109	0.303
-691.397	800.000	0.077	0.250
-690.383	-36.565	-0.278	-0.151
-689.368	-200.000	0.018	-0.183
-688.354	-110.787	0.324	-0.067
-687.339	-33.650	-0.175	-0.098
-686.324	-145.802	-0.175	-0.016
-685.310	800.000	0.016	0.048
-684.295	800.000	0.026	0.106
-683.281	-17.175	0.117	0.074
-682.266	154.297	-0.174	-0.242
-681.251	-61.605	-0.203	0.086
-680.237	-59.760	-0.317	0.137
-679.222	-29.865	0.132	-0.076
-678.208	-90.841	-0.234	0.068
-677.193	114.939	0.255	-0.315
-676.178	-31.654	0.227	-0.129
-675.164	116.296	0.193	-0.239
-674.149	-15.656	-0.239	-0.154
-673.135	-161.999	0.099	-0.005
-672.120	90.533	0.047	0.053
-671.105	800.000	0.027	-0.087
-670.091	105.366	-0.239	0.286
-669.076	800.000	-0.096	-0.271
-668.062	58.962	0.051	0.051
-667.047	-83.868	-0.108	-0.035
-666.032	-200.000	-0.017	0.205
-665.018	-60.545	-0.319	0.137
-664.003	-200.000	0.010	-0.140
-662.989	800.000	0.082	-0.307
-661.974	-20.178	0.111	0.069
-660.959	800.000	-0.133	-0.419
-659.945	282.692	-0.024	0.044
-658.930	800.000	-0.035	0.123
-657.916	-20.897	0.311	0.192
-656.901	-200.000	0.003	-0.290
-655.886	26.198	0.104	-0.088
-654.872	-9.366	-0.147	0.099
-653.857	561.694	-0.037	0.089
-652.843	800.000	0.005	0.015
-651.828	20.663	0.131	-0.107
-650.814	-38.808	0.157	0.084
-649.799	-70.931	0.227	-0.086
-648.784	166.324	-0.161	0.230
-647.770	-107.336	-0.270	-0.060
-646.755	15.069	-0.153	0.121
-645.741	-200.000	-0.026	0.426
-644.726	800.000	0.057	0.177
-643.711	800.000	0.105	-0.342
-642.697	88.784	-0.308	0.346
-641.682	-115.625	0.138	0.026
-640.668	-55.904	-0.053	0.024
-639.653	391.423	0.065	0.136
-638.638	107.215	0.182	-0.218
-637.624	328.597	-0.071	-0.138
-636.609	-42.560	0.094	-0.048
-635.595	56.627	-0.098	0.096
-634.580	800.000	-0.093	-0.337
-633.565	-121.981	-0.455	-0.076
-632.551	27.711	0.247	0.210
-631.536	-89.368	0.144	-0.043
-630.522	-95.768	-0.088	0.024
-629.507	800.000	0.070	-0.218
-628.492	222.181	-0.102	-0.166
-627.478	-166.396	0.150	0.006
-626.463	-63.818	-0.123	0.051
-625.449	-200.000	-0.081	-0.382
-624.434	149.993	0.143	-0.195
-623.419	633.220	0.103	0.262
-622.405	-52.709	-0.197	-0.092
-621.390	800.000	-0.043	0.169
-620.376	9.102	-0.087	0.066
-619.361	186.747	-0.104	-0.156
-618.346	-59.265	0.164	0.071
-617.332	-143.905	-0.406	0.039
-616.317	-52.788	-0.024	-0.011
-615.303	165.786	0.142	-0.202
-614.288	301.740	0.157	-0.293
-613.273	-69.902	0.267	-0.103
-612.259	-46.713	0.111	0.055
-611.244	-200.000	0.006	0.176
-610.230	77.074	0.225	-0.241
-609.215	276.176	-0.020	0.035
-608.201	-23.557	0.142	-0.086
-607.186	-124.683	0.059	0.009
-606.171	27.860	0.236	0.200
-605.157	-200.000	0.022	-0.188
-604.142	508.742	-0.068	0.159
-603.128	-200.000	-0.035	-0.205
-602.113	-169.019	0.308	-0.012
-601.098	589.612	0.106	-0.264
-600.084	221.650	0.148	-0.239
-599.069	38.898	-0.155	-0.140
-598.055	466.828	-0.067	-0.151
-597.040	-200.000	-0.036	-0.218
-596.025	-132.623	0.110	0.014
-595.011	-200.000	-0.006	0.392
-593.996	257.432	-0.065	0.112
-592.982	-171.502	-0.407	0.014
-591.967	-200.000	-0.040	0.245
-590.952	-200.000	0.008	-0.258
-589.938	800.000	-0.076	-0.282
-588.923	-155.043	-0.092	-0.006
-587.909	163.020	-0.075	-0.106
-586.894	-200.000	0.102	-0.479
-585.879	334.856	-0.036	-0.070
-584.865	-88.940	0.187	-0.056
-583.850	-200.000	0.028	0.195
-582.836	2.686	-0.010	0.007
-581.821	11.173	0.115	-0.089
-580.806	-166.812	-0.132	0.005
-579.792	-200.000	-0.030	-0.183
-578.777	171.030	-0.279	-0.403
-577.763	-46.876	0.211	-0.104
-576.748	334.273	0.089	-0.174
-575.733	71.635	-0.135	-0.141
-574.719	416.275	-0.114	-0.245
-573.704	-36.105	0.332	0.180
-572.690	800.000	-0.069	0.216
-571.675	-100.284	-0.269	0.067
-570.661	-33.723	0.337	-0.187
-569.646	-200.000	0.011	0.264
-568.631	-200.000	-0.034	0.165
-567.617	-200.000	-0.099	-0.471
-566.602	299.516	-0.087	-0.161
-565.588	-64.845	-0.135	0.055
-564.573	92.626	0.070	0.079
-563.558	-143.782	0.475	0.045
-562.544	800.000	-0.051	0.219
-561.529	72.890	-0.107	0.112
-560.515	-14.900	-0.183	0.118
-559.500	-78.688	0.303	-0.104
-558.485	-173.348	0.203	0.006
-557.471	92.579	0.053	0.060
-556.456	-200.000	0.024	-0.244
-555.442	-39.640	0.041	0.021
-554.427	60.839	-0.232	0.232
-553.412	103.478	-0.166	0.196
-552.398	111.853	0.051	0.062
-551.383	-200.000	-0.002	0.322
-550.369	-42.507	-0.377	-0.193
-549.354	8.642	0.322	0.244
-548.339	-94.972	-0.320	-0.087
-547.325	41.380	-0.186	-0.169
-546.310	80.025	0.200	-0.216
-545.296	800.000	0.087	-0.252
-544.281	-138.047	-0.261	-0.029
-543.266	-200.000	-0.023	-0.337
-542.252	102.992	0.080	-0.094
-541.237	-136.017	0.165	-0.019
-540.223	422.748	-0.205	-0.442
-539.208	348.075	0.174	-0.344
-538.193	-78.643	0.134	0.046
-537.179	-200.000	0.021	-0.096
-536.164	1.866	-0.191	-0.139
-535.150	800.000	0.008	0.035
-534.135	68.655	0.024	-0.025
-533.121	800.000	-0.140	0.497
-532.106	-104.074	0.203	0.047
-531.091	90.058	-0.142	-0.159
-530.077	430.113	-0.114	-0.249
-529.062	800.000	-0.089	0.314
-528.048	-77.670	-0.291	0.101
-527.033	170.249	0.200	0.288
-526.018	-146.237	0.303	-0.027
-525.004	-200.000	-0.021	-0.172
-523.989	800.000	-0.082	-0.314
-522.975	84.940	0.102	-0.113
-521.960	-97.222	-0.132	0.035
-520.945	-145.017	-0.436	0.040
-519.931	275.771	-0.045	-0.081
-518.916	104.553	-0.099	-0.117
-517.902	243.464	0.125	0.211
-516.887	93.087	-0.301	-0.342
-515.872	54.811	-0.186	-0.180
-514.858	466.898	0.125	-0.281
-513.843	-59.473	0.290	0.125
-512.829	-200.000	0.033	-0.183
-511.814	800.000	0.041	0.179
-510.799	255.826	0.135	-0.233
-509.785	-61.851	-0.121	0.051
-508.770	124.229	-0.127	-0.160
-507.756	-21.756	0.150	0.092
-506.741	-46.607	-0.181	-0.089
-505.726	800.000	-0.074	-0.259
-504.712	-47.637	0.025	-0.012
-503.697	-13.657	-0.103	0.067
-502.683	-79.955	-0.161	0.054
-501.668	44.493	-0.274	-0.252
-500.653	133.363	-0.163	0.211
-499.639	174.222	0.129	0.188
-498.624	159.498	0.129	-0.180
-497.610	-129.126	-0.307	0.043
-496.595	29.930	0.181	0.155
-495.581	-200.000	0.002	0.240
-494.566	-106.649	-0.203	-0.045
-493.551	-200.000	-0.019	-0.263
-492.537	550.213	-0.101	-0.242
-491.522	259.626	0.021	0.037
-490.508	295.794	0.059	-0.109
-489.493	498.787	0.101	0.233
-488.478	800.000	-0.068	-0.214
-487.464	369.225	0.138	-0.281
-486.449	22.199	0.183	-0.150
-485.435	410.958	0.097	-0.207
-484.420	-89.508	-0.264	-0.078
-483.405	328.042	-0.235	0.453
-482.391	-162.193	-0.233	0.012
-481.376	3.922	-0.096	-0.070
-480.362	64.251	0.180	-0.181
-479.347	800.000	0.026	-0.097
-478.332	549.063	-0.126	-0.303
-477.318	-166.694	-0.178	0.007
-476.303	800.000	-0.043	-0.146
-475.289	-200.000	-0.041	0.240
-474.274	0.358	0.272	0.195
-473.259	-169.313	-0.156	0.006
-472.245	-58.969	-0.293	-0.127
-471.230	532.641	-0.042	-0.098
-470.216	-47.173	0.133	-0.065
-469.201	-107.254	-0.320	0.071
-468.186	-88.838	0.303	0.090
-467.172	7.277	-0.120	-0.089
-466.157	-156.860	0.084	-0.005
-465.143	-166.692	0.226	-0.009
-464.128	-101.880	0.193	-0.047
-463.113	424.784	0.058	-0.124
-462.099	800.000	-0.014	0.058
-461.084	516.889	0.180	0.422
-460.070	72.815	-0.162	0.169
-459.055	-98.821	0.216	0.055
-458.040	145.663	-0.052	0.070
-457.026	800.000	-0.044	-0.179
-456.011	112.826	0.195	0.236
-454.997	-63.732	0.174	0.072
-453.982	-131.424	-0.178	0.024
-452.968	132.317	-0.154	0.199
-451.953	-200.000	0.015	0.191
-450.938	38.064	0.037	0.033
-449.924	-200.000	-0.001	0.276
-448.909	78.401	-0.157	0.168
-447.895	-200.000	-0.014	-0.155
-446.880	87.381	-0.184	-0.204
-445.865	338.645	0.104	0.202
-444.851	-127.755	0.386	-0.056
-443.836	-200.000	0.018	-0.160
-442.822	272.914	-0.077	0.136
-441.807	-200.000	-0.019	0.565
-440.792	-53.395	-0.191	0.087
-439.778	-137.075	-0.226	-0.026
-438.763	169.218	0.143	0.205
-437.749	-200.000	0.019	-0.221
-436.734	-200.000	0.003	0.172
-435.719	800.000	-0.023	0.083
-434.705	240.968	0.049	-0.081
-433.690	-200.000	0.003	0.128
-432.676	0.951	0.063	-0.046
-431.661	-0.096	-0.288	0.205
-430.646	5.912	-0.229	-0.170
-429.632	800.000	-0.064	0.191
-428.617	565.169	-0.039	0.095
-427.603	145.028	0.200	0.268
-426.588	800.000	0.038	-0.115
-425.573	132.428	0.191	-0.246
-424.559	-186.608	0.228	0.003
-423.544	33.064	-0.039	0.034
-422.530	-126.473	0.199	-0.030
-421.515	50.260	0.169	0.160
-420.500	77.386	0.339	0.360
-419.486	-66.051	0.206	0.082
-418.471	188.465	0.113	-0.169
-417.457	-82.810	-0.252	-0.082
-416.442	353.844	0.134	0.267
-415.428	77.215	-0.146	-0.156
-414.413	178.913	-0.268	-0.392
-413.398	-48.704	-0.213	-0.102
-412.384	157.048	0.256	0.354
-411.369	-160.045	-0.378	0.021
-410.355	439.048	0.124	0.272
-409.340	665.315	-0.066	0.170
-408.325	-182.868	0.230	0.004
-407.311	0.584	-0.079	0.057
-406.296	-16.818	0.373	0.236
-405.282	3.750	-0.340	0.248
-404.267	51.195	0.136	-0.129
-403.252	-33.501	-0.271	-0.150
-402.238	-62.940	-0.235	-0.097
-401.223	590.814	-0.081	0.201
-400.209	41.244	0.186	-0.168
-399.194	-200.000	-0.040	0.242
-398.179	-80.472	0.258	0.086
-397.165	38.452	0.128	-0.114
-396.150	-200.000	0.014	-0.067
-395.136	-200.000	0.010	0.131
-394.121	-200.000	-0.010	0.096
-393.106	255.400	-0.059	0.102
-392.092	578.097	-0.098	-0.239
-391.077	208.268	0.142	0.221
-390.063	60.910	0.272	-0.270
-389.048	239.398	0.182	-0.303
-388.033	-5.960	0.239	-0.163
-387.019	-37.339	0.320	-0.171
-386.004	-103.851	0.264	-0.062
-384.990	-31.941	-0.280	-0.157
-383.975	80.934	0.053	-0.058
-382.960	-110.187	0.163	-0.034
-381.946	-200.000	-0.067	-0.386
-380.931	7.595	-0.260	-0.195
-379.917	-200.000	0.029	-0.444
-378.902	-127.116	0.073	0.011
-377.888	-89.621	-0.117	-0.034
-376.873	790.210	-0.213	-0.583
-375.858	-118.011	0.576	0.103
-374.844	516.782	-0.037	0.086
-373.829	779.238	-0.162	0.443
-372.815	492.794	0.136	0.311
-371.800	33.201	0.176	0.153
-370.785	-12.632	-0.135	-0.088
-369.771	130.463	-0.177	-0.227
-368.756	266.963	0.171	-0.299
-367.742	-7.786	0.152	0.102
-366.727	-123.664	-0.249	-0.039
-365.712	-200.000	0.003	0.356
-364.698	-14.958	-0.079	0.050
-363.683	-153.475	-0.467	0.032
-362.669	58.421	0.139	-0.136
-361.654	-37.113	-0.276	0.147
-360.639	-200.000	0.032	0.151
-359.625	-200.000	-0.024	0.183
-358.610	-97.751	0.220	0.057
-357.596	-92.192	0.198	-0.056
-356.581	800.000	0.078	0.261
-355.566	205.329	-0.159	0.246
-354.552	37.050	0.244	0.216
-353.537	-37.903	-0.053	0.028
-352.523	-165.560	-0.205	-0.009
-351.508	77.402	0.236	0.250
-350.493	46.709	-0.417	-0.387
-349.479	58.897	0.147	-0.144
-348.464	-39.148	0.218	-0.114
-347.450	-200.000	0.017	-0.196
-346.435	122.775	0.042	-0.053
-345.420	132.267	0.136	-0.174
-344.406	26.401	0.174	-0.145
-343.391	-92.596	-0.108	-0.030
-342.377	138.142	0.111	0.145
-341.362	281.122	0.158	0.281
-340.348	22.170	-0.349	0.284
-339.333	527.581	-0.022	0.053
-338.318	47.566	-0.234	0.218
-337.304	-27.362	-0.135	-0.078
-336.289	-200.000	-0.016	-0.089
-335.275	49.981	0.198	0.187
-334.260	-200.000	0.016	0.244
-333.245	800.000	-0.003	0.013
-332.231	18.740	0.080	0.064
-331.216	-24.585	0.072	0.043
-330.202	-120.553	0.092	-0.016
-329.187	800.000	-0.097	-0.277
-328.172	-70.396	0.161	-0.061
-327.158	71.887	-0.130	-0.135
-326.143	449.089	0.081	-0.177
-325.129	-200.000	0.024	0.245
-324.114	109.333	0.108	0.129
-323.099	-83.840	-0.352	0.112
-322.085	54.048	-0.038	0.036
-321.070	517.217	-0.035	-0.082
-320.056	46.122	-0.084	-0.077
-319.041	-200.000	0.008	0.489
-318.026	-37.026	-0.147	0.079
-317.012	-102.202	0.365	0.087
-315.997	-140.914	-0.226	0.023
-314.983	-200.000	0.014	-0.095
-313.968	202.684	-0.112	0.172
-312.953	-5.254	0.227	-0.155
-311.939	76.000	0.084	-0.089
-310.924	-107.616	-0.151	-0.033
-309.910	800.000	0.009	0.037
-308.895	800.000	-0.017	-0.051
-307.880	-200.000	-0.004	-0.047
-306.866	-118.532	-0.132	0.023
-305.851	800.000	-0.059	-0.221
-304.837	-86.377	-0.183	-0.056
-303.822	800.000	0.093	0.328
-302.807	-200.000	-0.017	0.079
-301.793	-200.000	0.110	0.570
-300.778	-200.000	0.039	0.448
-299.764	2.222	0.159	0.114
-298.749	83.762	-0.116	-0.125
-297.735	800.000	0.024	-0.072
-296.720	97.517	-0.131	0.150
-295.705	800.000	0.095	0.335
-294.691	75.217	0.084	-0.088
-293.676	182.140	-0.066	-0.096
-292.662	800.000	0.058	0.207
-291.647	14.249	0.199	-0.154
-290.632	-200.000	-0.030	0.155
-289.618	-38.234	-0.338	0.178
-288.603	-105.334	0.149	0.034
-287.589	294.108	0.069	0.125
-286.574	-149.979	0.147	0.011
-285.559	-200.000	0.046	-0.265
-284.545	-200.000	0.042	-0.196
-283.530	800.000	0.039	0.161
-282.516	-120.391	0.241	0.041
-281.501	151.736	-0.134	0.182
-280.486	-154.622	-0.179	0.012
-279.472	-116.486	0.105	-0.019
-278.457	0.050	-0.232	0.165
-277.443	17.068	0.214	0.168
-276.428	-137.472	0.247	-0.028
-275.413	-58.215	0.150	-0.065
-274.399	455.862	0.098	0.216
-273.384	-200.000	0.016	-0.150
-272.370	87.129	-0.216	0.238
-271.355	-200.000	0.047	0.452
-270.340	-191.042	0.069	0.001
-269.326	-25.621	-0.210	0.123
-268.311	-200.000	-0.004	0.146
-267.297	-44.655	0.097	-0.048
-266.282	-200.000	-0.005	0.078
-265.267	76.350	-0.032	0.033
-264.253	218.916	-0.075	0.120
-263.238	108.591	0.229	-0.272
-262.224	-200.000	-0.018	-0.163
-261.209	-141.618	-0.163	0.016
-260.195	16.198	-0.281	0.220
-259.180	800.000	0.077	0.303
-258.165	152.366	0.104	0.141
-257.151	-200.000	0.062	-0.280
-256.136	-6.483	-0.058	-0.039
-255.122	469.036	-0.038	-0.084
-254.107	22.192	-0.144	-0.117
-253.092	13.366	0.372	-0.287
-252.078	-108.458	-0.153	0.033
-251.063	800.000	0.038	-0.140
-250.049	171.769	0.139	0.198
-249.034	-200.000	0.018	0.137
-248.019	619.557	0.141	0.353
-247.005	-79.123	0.160	0.054
-245.990	148.639	-0.175	-0.236
-244.976	185.524	-0.030	0.044
-243.961	-34.191	-0.084	0.046
-242.946	-98.600	0.115	0.029
-241.932	800.000	0.038	0.165
-240.917	70.678	0.098	0.100
-239.903	-173.214	0.011	-0.000
-238.888	-200.000	0.076	0.333
-237.873	285.879	-0.137	0.246
-236.859	-200.000	0.063	-0.282
-235.844	-200.000	0.037	-0.268
-234.830	27.331	-0.189	-0.158
-233.815	-200.000	-0.005	-0.050
-232.800	-67.169	-0.163	0.064
-231.786	255.015	0.119	-0.203
-230.771	-60.853	-0.150	0.063
-229.757	150.329	-0.245	-0.330
-228.742	-66.347	-0.142	0.056
-227.727	-77.017	0.113	-0.039
-226.713	254.824	0.086	0.146
-225.698	800.000	0.108	0.385
-224.684	-10.074	0.143	0.094
-223.669	-119.339	-0.172	0.030
-222.655	-38.477	0.162	-0.085
-221.640	-200.000	0.017	-0.211
-220.625	-96.503	-0.221	0.058
-219.611	512.790	-0.204	0.472
-218.596	800.000	-0.039	0.137
-217.582	-111.633	0.139	-0.028
-216.567	800.000	0.093	0.392
-215.552	-14.472	0.081	0.051
-214.538	-0.090	0.253	0.179
-213.523	-161.519	-0.360	0.018
-212.509	800.000	0.160	-0.521
-211.494	800.000	-0.029	0.089
-210.479	12.708	-0.163	-0.125
-209.465	98.532	-0.189	0.217
-208.450	-9.291	-0.097	0.064
-207.436	81.019	0.176	-0.188
-206.421	495.371	0.062	-0.142
-205.406	-200.000	0.075	-0.437
-204.392	173.126	0.066	-0.094
-203.377	322.982	-0.061	-0.115
-202.363	800.000	0.091	-0.319
-201.348	-159.438	-0.278	0.015
-200.333	-144.039	0.359	-0.033
-199.319	-178.859	-0.322	0.007
-198.304	334.170	-0.124	-0.237
-197.290	800.000	-0.055	0.152
-196.275	59.087	-0.150	-0.147
-195.260	-137.441	0.308	0.035
-194.246	-200.000	-0.071	-0.364
-193.231	87.597	0.098	-0.108
-192.217	148.986	-0.126	0.169
-191.202	-58.817	-0.293	0.126
-190.187	-200.000	0.052	-0.267
-189.173	-173.141	0.210	-0.006
-188.158	719.492	-0.052	0.138
-187.144	226.603	0.051	-0.082
-186.129	-182.415	-0.323	0.006
-185.114	-99.855	-0.291	0.072
-184.100	51.831	0.096	0.090
-183.085	-73.568	0.312	0.113
-182.071	-116.028	-0.244	0.045
-181.056	800.000	-0.116	0.359
-180.042	19.627	-0.306	-0.244
-179.027	290.322	-0.077	0.139
-178.012	-200.000	0.021	-0.173
-176.998	-38.650	0.254	0.133
-175.983	201.170	0.175	0.266
-174.969	-200.000	0.072	-0.376
-173.954	18.691	-0.421	-0.334
-172.939	122.402	-0.133	0.165
-171.925	-100.870	-0.539	0.131
-170.910	-90.581	0.145	0.042
-169.896	-91.366	0.020	0.006
-168.881	-111.994	0.262	0.052
-167.866	-33.550	0.233	0.128
-166.852	-200.000	-0.003	-0.306
-165.837	64.285	0.087	0.087
-164.823	800.000	0.098	-0.289
-163.808	305.862	0.107	0.197
-162.793	-163.882	0.196	-0.009
-161.779	415.753	-0.135	0.286
-160.764	800.000	-0.055	-0.153
-159.750	-9.493	0.349	-0.231
-158.735	34.513	-0.148	-0.128
-157.720	49.098	0.067	-0.062
-156.706	-68.228	0.105	-0.041
-155.691	-128.034	0.296	-0.042
-154.677	-105.196	0.226	0.051
-153.662	180.774	0.051	0.074
-152.647	-35.967	0.152	0.081
-151.633	-132.956	-0.163	-0.020
-150.618	-16.833	-0.134	0.084
-149.604	-112.025	0.190	0.038
-148.589	-77.733	-0.136	0.046
-147.574	36.695	0.271	-0.237
-146.560	134.204	0.077	-0.099
-145.545	37.211	0.305	0.267
-144.531	110.093	-0.194	0.230
-143.516	-75.511	-0.278	-0.098
-142.502	-17.380	0.291	-0.181
-141.487	-48.582	0.262	-0.125
-140.472	-200.000	0.063	-0.283
-139.458	128.678	-0.057	0.072
-138.443	-71.074	-0.109	-0.041
-137.429	23.556	-0.045	0.037
-136.414	800.000	-0.027	0.081
-135.399	800.000	0.016	-0.052
-134.385	122.735	0.144	-0.178
-133.370	286.667	0.096	-0.172
-132.356	101.970	0.197	-0.227
-131.341	361.878	-0.056	-0.111
-130.326	-143.807	0.236	0.022
-129.312	50.984	0.294	0.275
-128.297	-9.437	0.189	0.125
-127.283	-99.870	-0.296	0.073
-126.268	-142.325	0.123	0.012
-125.253	-107.778	0.413	0.089
-124.239	-40.980	-0.095	-0.049
-123.224	3.928	0.162	-0.117
-122.210	-200.000	-0.076	-0.437
-121.195	800.000	-0.016	0.058
-120.180	256.094	0.217	-0.369
-119.166	-91.038	-0.320	0.091
-118.151	-200.000	-0.007	-0.148
-117.137	92.022	0.090	-0.100
-116.122	4.490	0.261	-0.189
-115.107	469.013	-0.069	-0.153
-114.093	100.696	-0.157	0.180
-113.078	-12.858	0.187	-0.120
-112.064	34.137	-0.281	0.242
-111.049	-200.000	-0.027	-0.243
-110.034	205.110	0.071	-0.109
-109.020	-167.660	0.261	-0.010
-108.005	162.186	-0.143	-0.198
-106.991	101.187	0.309	0.356
-105.976	-94.178	-0.134	-0.036
-104.962	-168.940	0.257	-0.010
-103.947	402.367	-0.216	-0.449
-102.932	-200.000	0.049	-0.522
-101.918	11.247	-0.081	0.061
-100.903	63.135	0.064	-0.064
-99.889	800.000	-0.016	-0.048
-98.874	62.826	0.095	-0.094
-97.859	-180.210	0.370	0.008
-96.845	800.000	0.101	0.284
-95.830	326.637	-0.117	0.222
-94.816	-200.000	-0.039	0.187
-93.801	199.731	0.150	0.227
-92.786	800.000	-0.118	0.328
-91.772	-120.761	-0.330	0.055
-90.757	-200.000	-0.002	0.042
-89.743	320.798	-0.086	-0.162
-88.728	-106.900	-0.258	-0.056
-87.713	-75.194	0.118	-0.042
-86.699	8.506	-0.235	0.174
-85.684	-1.027	-0.093	0.065
-84.670	-70.737	-0.118	0.044
-83.655	130.771	0.176	0.223
-82.640	-153.863	-0.039	0.003
-81.626	-50.162	-0.194	0.090
-80.611	479.039	0.097	0.217
-79.597	-27.284	0.161	-0.092
-78.582	800.000	0.040	-0.124
-77.567	-19.827	-0.177	0.108
-76.553	254.976	0.121	0.204
-75.538	-92.797	-0.174	0.048
-74.524	35.915	0.161	0.139
-73.509	800.000	0.081	0.225
-72.494	-26.973	0.179	0.103
-71.480	-200.000	-0.008	0.197
-70.465	449.515	0.114	0.247
-69.451	-52.387	0.321	0.147
-68.436	-152.836	0.159	-0.011
-67.422	800.000	0.112	0.410
-66.407	107.921	0.230	-0.271
-65.392	800.000	-0.041	0.169
-64.378	-140.710	0.266	0.027
-63.363	-143.801	0.202	0.019
-62.349	-152.399	0.217	-0.015
-61.334	108.663	-0.732	-0.862
-60.319	197.909	0.285	0.430
-59.305	102.250	-0.555	-0.639
-58.290	609.613	0.446	1.099
-57.276	177.694	0.991	1.424
-56.261	-200.000	96.959	576.456
-55.246	656.185	1385.452	3510.202
-54.232	187.252	2608.009	3835.691
-53.217	117.827	2305.687	2800.277
-52.203	44.705	1919.326	1740.727
-51.188	38.189	1706.502	1497.897
-50.173	35.399	1660.695	1436.775
-49.159	52.449	1709.567	1608.950
-48.144	56.189	1726.663	1653.340
-47.130	38.005	1682.441	1475.153
-46.115	34.924	1668.277	1439.534
-45.100	34.763	1663.151	1433.844
-44.086	34.737	1660.527	1431.332
-43.071	34.802	1657.600	1429.238
-42.057	34.808	1654.807	1426.818
-41.042	34.725	1653.919	1425.371
-40.027	34.837	1651.467	1424.042
-39.013	34.763	1649.463	1421.702
-37.998	34.715	1648.105	1420.120
-36.984	34.863	1646.130	1419.460
-35.969	34.846	1645.305	1418.570
-34.954	34.908	1643.689	1417.575
-33.940	34.896	1641.528	1415.566
-32.925	34.881	1639.732	1413.850
-31.911	34.883	1638.257	1412.541
-30.896	34.828	1636.457	1410.521
-29.881	34.804	1634.867	1408.919
-28.867	34.868	1633.388	1408.059
-27.852	34.918	1631.737	1406.955
-26.838	34.878	1629.839	1404.963
-25.823	34.938	1628.646	1404.319
-24.809	34.918	1627.043	1402.738
-23.794	34.903	1625.908	1401.589
-22.779	35.011	1623.923	1400.617
-21.765	34.836	1622.858	1398.365
-20.750	34.872	1620.897	1396.883
-19.736	35.000	1619.337	1396.414
-18.721	34.970	1617.884	1394.884
-17.706	34.867	1616.633	1393.006
-16.692	34.922	1614.727	1391.709
-15.677	34.857	1613.433	1390.066
-14.663	34.963	1611.807	1389.375
-13.648	34.988	1610.340	1388.236
-12.633	35.024	1608.727	1387.055
-11.619	34.882	1607.590	1384.990
-10.604	34.990	1606.069	1384.407
-9.590	34.902	1604.914	1382.720
-8.575	34.932	1603.380	1381.561
-7.560	34.962	1601.831	1380.388
-6.546	34.882	1601.123	1379.147
-5.531	34.865	1600.070	1378.057
-4.517	34.912	1599.102	1377.511
-3.502	34.950	1597.267	1376.146
-2.487	34.932	1596.295	1375.129
-1.473	34.790	1584.720	1364.089
-0.458	31.764	1565.035	1325.722
0.556	30.131	1563.878	1287.293
1.571	27.120	1586.630	1284.656
2.586	25.827	1599.673	1285.880
3.600	22.578	1545.900	1220.091
4.615	14.026	1436.246	1078.201
5.629	6.429	1370.705	981.716
6.644	4.905	1362.151	966.057
7.659	4.899	1360.921	965.061
8.673	4.876	1360.150	964.288
9.688	5.061	1358.332	964.061
10.702	5.046	1356.043	962.259
11.717	8.673	1362.982	989.550
12.731	17.202	1378.376	1053.757
13.746	22.399	1386.386	1092.118
14.761	22.559	1385.554	1092.359
15.775	21.705	1383.733	1085.535
16.790	20.731	1380.391	1076.799
17.804	19.941	1378.240	1070.143
18.819	19.531	1377.163	1066.679
19.834	19.448	1375.709	1064.944
20.848	19.298	1374.819	1063.240
21.863	19.050	1373.527	1060.616
22.877	18.937	1372.266	1058.851
23.892	18.961	1371.729	1058.494
24.907	18.931	1370.381	1057.174
25.921	18.889	1369.869	1056.426
26.936	18.868	1368.881	1055.441
27.950	18.976	1367.986	1055.324
28.965	19.100	1366.887	1055.141
29.980	19.328	1365.404	1055.300
30.994	19.213	1364.801	1054.033
32.009	19.324	1363.694	1053.763
33.023	19.318	1362.521	1052.730
34.038	19.191	1361.275	1050.900
35.053	19.076	1359.742	1048.925
36.067	19.089	1358.682	1048.090
37.082	19.148	1357.668	1047.573
38.096	19.188	1357.414	1047.530
39.111	19.350	1355.833	1047.202
40.126	19.218	1354.983	1045.648
41.140	18.850	1354.129	1042.666
42.155	18.666	1353.579	1041.031
43.169	18.693	1353.597	1041.122
44.184	18.761	1353.229	1041.157
45.199	18.685	1352.930	1040.373
46.213	18.930	1351.533	1040.691
47.228	18.983	1351.508	1040.898
48.242	19.108	1350.274	1040.611
49.257	19.071	1349.111	1039.398
50.271	19.109	1347.324	1038.163
51.286	18.979	1346.244	1036.457
52.301	19.070	1344.631	1035.666
53.315	18.900	1343.614	1033.770
54.330	18.780	1342.850	1032.371
55.344	18.753	1341.396	1030.999
56.359	18.873	1340.227	1030.730
57.374	18.754	1339.516	1029.378
58.388	18.561	1338.954	1027.698
59.403	18.586	1338.639	1027.515
60.417	18.649	1337.651	1027.042
61.432	18.641	1336.619	1026.113
62.447	18.470	1335.506	1024.146
63.461	18.479	1334.130	1023.050
64.476	18.451	1333.065	1021.980
65.490	18.438	1332.595	1021.448
66.505	18.589	1330.125	1020.368
67.520	18.497	1329.520	1019.266
68.534	18.596	1328.384	1018.890
69.549	18.548	1327.320	1017.700
70.563	18.447	1326.594	1016.453
71.578	18.366	1325.333	1014.918
72.593	18.294	1324.392	1013.679
73.607	18.213	1324.054	1012.852
74.622	18.285	1322.955	1012.349
75.636	18.454	1321.801	1012.376
76.651	18.405	1321.373	1011.666
77.666	18.331	1321.470	1011.217
78.680	18.464	1320.598	1011.246
79.695	18.463	1320.074	1010.747
80.709	18.598	1319.722	1011.186
81.724	18.698	1319.104	1011.210
82.739	18.730	1318.009	1010.470
83.753	18.940	1317.021	1010.858
84.768	19.041	1316.456	1010.928
85.782	19.254	1315.346	1011.237
86.797	19.188	1313.931	1009.671
87.812	19.117	1312.669	1008.195
88.826	19.066	1311.650	1007.030
89.841	19.032	1310.859	1006.132
90.855	19.108	1309.913	1005.759
91.870	19.226	1308.708	1005.436
92.884	19.158	1308.137	1004.509
93.899	19.213	1307.650	1004.369
94.914	19.264	1306.789	1003.916
95.928	19.232	1306.334	1003.289
96.943	19.163	1305.013	1001.787
97.957	19.051	1304.291	1000.493
98.972	19.129	1303.127	999.965
99.987	19.241	1301.645	999.388
101.001	19.142	1301.155	998.349
102.016	19.144	1300.147	997.497
103.030	19.202	1299.400	997.171
104.045	19.158	1298.493	996.135
105.060	18.981	1297.247	994.068
106.074	18.785	1295.527	991.531
107.089	18.546	1294.072	988.950
108.103	18.431	1292.726	987.175
109.118	18.565	1291.217	986.706
110.133	18.590	1290.154	985.949
111.147	18.504	1289.249	984.674
112.162	18.592	1287.897	984.062
113.176	18.741	1286.751	983.954
114.191	18.661	1285.997	982.830
115.206	18.869	1284.649	982.901
116.220	18.732	1283.342	981.032
117.235	18.660	1282.426	979.836
118.249	18.674	1281.276	978.952
119.264	18.593	1280.166	977.555
120.279	18.641	1279.036	976.878
121.293	18.525	1277.925	975.284
122.308	18.398	1277.194	973.915
123.322	18.297	1276.228	972.518
124.337	18.352	1275.179	971.948
125.352	18.369	1273.534	970.703
126.366	18.410	1272.531	970.087
127.381	18.447	1271.736	969.604
128.395	18.455	1270.715	968.782
129.410	18.520	1269.728	968.313
130.424	18.548	1269.103	967.908
131.439	18.658	1268.315	967.843
132.454	18.659	1267.776	967.352
133.468	18.766	1266.687	967.034
134.483	18.818	1265.900	966.644
135.497	18.761	1265.131	965.650
136.512	18.738	1263.583	964.252
137.527	18.824	1262.142	963.551
138.541	18.745	1260.691	961.915
139.556	18.895	1259.233	961.557
140.570	18.895	1258.952	961.259
141.585	19.070	1257.224	960.827
142.600	19.127	1256.181	960.268
143.614	19.195	1255.987	960.412
144.629	19.182	1254.975	959.480
145.643	19.152	1253.873	958.387
146.658	19.040	1252.559	956.676
147.673	18.858	1250.841	954.267
148.687	18.864	1249.435	953.140
149.702	18.601	1248.545	950.924
150.716	18.703	1246.930	950.173
151.731	18.695	1245.539	948.985
152.746	18.737	1244.771	948.547
153.760	18.867	1243.466	948.187
154.775	18.915	1242.435	947.581
155.789	18.967	1241.709	947.228
156.804	18.979	1240.867	946.572
157.819	19.068	1239.533	945.956
158.833	19.187	1238.708	945.900
159.848	19.281	1237.888	945.703
160.862	19.261	1236.576	944.507
161.877	18.943	1235.622	941.954
162.892	18.684	1234.427	939.541
163.906	18.845	1233.256	939.446
164.921	18.700	1232.683	938.136
165.935	18.898	1231.764	938.435
166.950	18.978	1231.451	938.547
167.964	18.976	1230.452	937.695
168.979	18.818	1230.218	936.570
169.994	18.831	1229.066	935.684
171.008	18.978	1228.453	935.932
172.023	19.092	1227.528	935.765
173.037	19.138	1227.035	935.558
174.052	19.125	1226.133	934.714
175.067	18.953	1224.492	932.451
176.081	18.746	1223.888	930.784
177.096	18.787	1222.652	929.984
178.110	18.883	1221.377	929.449
179.125	18.982	1220.283	929.071
180.140	18.882	1219.567	927.903
181.154	19.082	1218.238	927.892
182.169	19.221	1216.901	927.541
183.183	19.203	1216.223	926.840
184.198	19.257	1214.996	926.117
185.213	19.218	1214.368	925.345
186.227	19.267	1212.794	924.325
187.242	19.392	1211.863	924.206
188.256	19.460	1211.290	924.052
189.271	19.444	1210.127	922.996
190.286	19.336	1208.995	921.474
191.300	18.964	1207.814	918.504
192.315	18.724	1206.823	916.388
193.329	18.890	1206.474	916.931
194.344	18.831	1206.194	916.323
195.359	18.951	1205.712	916.515
196.373	19.152	1204.960	916.929
197.388	19.304	1204.581	917.372
198.402	19.407	1204.562	917.824
199.417	19.535	1203.907	917.921
200.432	19.746	1202.941	918.229
201.446	19.745	1202.599	917.881
202.461	19.760	1201.746	917.228
203.475	19.787	1200.691	916.484
204.490	19.547	1199.311	914.080
205.504	19.457	1197.960	912.492
206.519	19.504	1196.364	911.441
207.534	19.410	1195.453	910.171
208.548	19.309	1194.901	909.139
209.563	19.272	1194.257	908.376
210.577	19.379	1193.053	907.940
211.592	19.385	1192.762	907.673
212.607	19.653	1191.859	908.311
213.621	19.667	1190.717	907.436
214.636	19.614	1189.302	905.996
215.650	19.552	1189.069	905.414
216.665	19.594	1188.193	904.886
217.680	19.821	1187.453	905.431
218.694	19.894	1186.430	904.954
219.709	19.793	1185.763	903.837
220.723	19.841	1184.467	903.024
221.738	19.749	1183.990	902.096
222.753	19.690	1183.520	901.351
223.767	19.612	1183.026	900.490
224.782	19.950	1182.243	901.572
225.796	19.984	1181.357	900.995
226.811	19.827	1181.128	899.925
227.826	19.799	1179.880	898.746
228.840	19.675	1179.365	897.633
229.855	19.760	1178.586	897.403
230.869	19.690	1177.762	896.333
231.884	19.735	1176.468	895.500
232.899	19.598	1176.052	894.395
233.913	19.548	1175.126	893.353
234.928	19.552	1174.357	892.709
235.942	19.605	1173.473	892.231
236.957	19.554	1172.811	891.387
237.972	19.556	1171.853	890.591
238.986	19.512	1171.690	890.161
240.001	19.584	1171.014	889.939
241.015	19.601	1170.180	889.315
242.030	19.669	1168.961	888.661
243.045	19.815	1168.549	889.017
244.059	19.814	1167.836	888.395
245.074	19.843	1166.935	887.778
246.088	19.883	1166.274	887.402
247.103	19.902	1165.747	887.018
248.117	20.044	1164.905	887.026
249.132	20.174	1164.508	887.311
250.147	20.339	1164.073	887.742
251.161	20.529	1162.990	887.812
252.176	20.517	1162.695	887.444
253.190	20.559	1162.039	887.083
254.205	20.582	1161.543	886.744
255.220	20.725	1160.787	886.814
256.234	20.584	1160.379	885.703
257.249	20.665	1159.500	885.371
258.263	20.587	1158.822	884.374
259.278	20.593	1157.956	883.669
260.293	20.575	1157.793	883.374
261.307	20.650	1157.384	883.362
262.322	20.618	1156.877	882.738
263.336	20.791	1155.968	882.843
264.351	20.755	1155.610	882.307
265.366	20.835	1154.521	881.801
266.380	20.804	1153.811	881.024
267.395	20.696	1152.904	879.711
268.409	20.621	1152.205	878.718
269.424	20.526	1151.730	877.799
270.439	20.494	1151.331	877.254
271.453	20.457	1150.536	876.385
272.468	20.365	1149.531	875.081
273.482	20.419	1148.331	874.360
274.497	20.369	1147.963	873.752
275.512	20.404	1147.359	873.390
276.526	20.619	1145.755	873.171
277.541	20.512	1145.633	872.465
278.555	20.580	1145.024	872.266
279.570	20.744	1144.484	872.596
280.585	20.827	1143.847	872.450
281.599	20.774	1142.743	871.265
282.614	20.735	1141.662	870.169
283.628	20.657	1140.269	868.643
284.643	20.657	1139.704	868.136
285.657	20.574	1139.110	867.191
286.672	20.656	1137.911	866.609
287.687	20.663	1136.556	865.539
288.701	20.622	1136.201	864.985
289.716	20.633	1135.453	864.394
290.730	20.635	1134.961	863.952
291.745	20.703	1134.304	863.712
292.760	20.778	1133.558	863.443
293.774	20.893	1133.097	863.585
294.789	20.853	1133.250	863.427
295.803	20.940	1131.967	862.805
296.818	20.806	1131.032	861.352
297.833	20.772	1130.041	860.352
298.847	20.678	1129.374	859.307
299.862	20.702	1128.788	858.904
300.876	20.808	1128.265	858.949
301.891	20.886	1127.559	858.719
302.906	20.998	1126.972	858.750
303.920	21.091	1126.701	858.922
304.935	21.160	1126.284	858.869
305.949	21.347	1125.143	858.843
306.964	21.283	1124.439	857.916
307.979	21.065	1123.577	856.112
308.993	21.015	1123.130	855.450
310.008	21.144	1122.054	855.186
311.022	21.166	1121.707	854.953
312.037	21.181	1121.061	854.461
313.052	21.023	1119.642	852.532
314.066	20.984	1118.378	851.303
315.081	20.785	1117.773	849.798
316.095	20.816	1116.807	849.136
317.110	20.821	1116.137	848.579
318.125	20.782	1115.198	847.598
319.139	20.779	1114.773	847.184
320.154	20.764	1114.670	846.959
321.168	20.733	1113.727	846.018
322.183	20.873	1112.953	846.033
323.197	21.037	1112.417	846.347
324.212	20.980	1111.783	845.516
325.227	20.881	1111.393	844.663
326.241	20.971	1110.685	844.489
327.256	20.929	1109.629	843.408
328.270	20.999	1108.440	842.768
329.285	20.856	1107.911	841.599
330.300	20.990	1106.659	841.220
331.314	20.991	1105.884	840.562
332.329	20.840	1105.203	839.241
333.343	20.980	1104.093	838.999
334.358	21.196	1103.432	839.460
335.373	21.197	1103.108	839.145
336.387	21.203	1102.413	838.571
337.402	21.241	1101.626	838.079
338.416	21.299	1100.912	837.741
339.431	21.295	1100.772	837.541
340.446	21.465	1099.988	837.685
341.460	21.686	1098.894	837.832
342.475	21.833	1097.869	837.678
343.489	21.758	1097.272	836.790
344.504	21.803	1096.484	836.334
345.519	21.758	1095.986	835.666
346.533	21.859	1095.118	835.410
347.548	21.764	1094.422	834.353
348.562	21.833	1093.351	833.790
349.577	21.646	1092.741	832.365
350.592	21.558	1091.505	830.928
351.606	21.420	1090.626	829.532
352.621	21.486	1089.815	829.157
353.635	21.417	1089.124	828.229
354.650	21.373	1089.048	827.890
355.665	21.306	1088.425	827.025
356.679	21.400	1087.800	826.923
357.694	21.413	1087.449	826.644
358.708	21.612	1086.317	826.649
359.723	21.687	1085.756	826.505
360.738	21.539	1085.332	825.409
361.752	21.635	1084.207	824.932
362.767	21.635	1084.154	824.819
363.781	21.550	1083.736	824.030
364.796	21.825	1082.941	824.645
365.810	21.949	1082.669	824.945
366.825	21.862	1082.236	824.133
367.840	22.048	1081.846	824.640
368.854	22.213	1080.724	824.486
369.869	22.142	1079.963	823.499
370.883	22.135	1079.216	822.824
371.898	21.890	1078.522	821.077
372.913	21.929	1077.858	820.680
373.927	22.067	1077.529	821.002
374.942	22.157	1076.877	820.850
375.956	22.179	1076.102	820.290
376.971	22.010	1075.834	819.227
377.986	22.074	1075.501	819.200
379.000	22.254	1074.784	819.418
380.015	22.305	1074.443	819.326
381.029	22.333	1073.919	818.982
382.044	22.289	1073.238	818.186
383.059	22.274	1072.517	817.495
384.073	22.292	1071.298	816.576
385.088	22.414	1070.051	816.120
386.102	22.223	1069.379	814.649
387.117	22.234	1068.090	813.646
388.132	21.964	1067.418	811.814
389.146	22.078	1065.862	811.082
390.161	21.977	1065.656	810.388
391.175	22.060	1064.879	810.110
392.190	22.097	1064.827	810.169
393.205	22.264	1064.032	810.260
394.219	22.204	1063.072	809.185
395.234	22.150	1061.580	807.728
396.248	22.158	1060.801	807.098
397.263	22.085	1059.555	805.744
398.278	22.067	1059.140	805.277
399.292	21.949	1058.076	803.856
400.307	21.764	1057.877	802.787
401.321	21.941	1056.916	802.795
402.336	21.972	1056.421	802.490
403.350	21.930	1055.827	801.775
404.365	21.995	1055.031	801.398
405.380	22.015	1054.245	800.820
406.394	22.178	1053.642	801.034
407.409	22.219	1053.181	800.803
408.423	22.360	1052.320	800.715
409.438	22.495	1052.093	801.088
410.453	22.556	1051.162	800.583
411.467	22.544	1050.645	800.066
412.482	22.597	1050.344	800.007
413.496	22.598	1049.417	799.235
414.511	22.668	1048.971	799.142
415.526	22.655	1048.563	798.701
416.540	22.816	1048.231	799.105
417.555	22.701	1047.555	797.998
418.569	22.811	1046.609	797.706
419.584	22.679	1046.364	796.852
420.599	22.623	1046.081	796.313
421.613	154.366	1400.685	1787.929
422.628	141.478	1452.375	1788.055
