DTS Sentinel unit serial number:	SN413079Multiplexer serial number:	ORYXHardware model number:	OX4-SRSoftware version number:	ORYX F/W v4.00 Oryx Data Collector v3.7.2.0data status	okinstallation	princeton_trtdifferential loss correction	single-endedforward channel	channel 2reverse channel	N/Adate	2019/09/12time	19:06:49forward acquisition time	15.00reverse acquisition time	0.00gamma	496.2192k internal	0.2324k external	0.2324temperature offset calibration	1.0143default loss term (dB/km)	0.3790temperature slope calibration	1.0000multiplexer offset coefficient	1.0000multiplexer slope coefficient	1.0000fibre end	0.00T internal ref (°C)	32.62T ext. ref 1 (°C)	3.06T ext. ref 2 (°C)	27.17length (m)	temperature (°C)	Stokes	anti-Stokes-747.200	161.933	0.113	0.160
-746.185	-177.921	0.647	0.016
-745.171	800.000	-0.185	-0.598
-744.156	651.952	0.249	-0.645
-743.142	-31.468	-0.238	-0.135
-742.127	-94.368	-0.104	-0.029
-741.112	-200.000	-0.027	-0.125
-740.098	578.744	0.217	-0.537
-739.083	-72.007	-0.370	-0.139
-738.069	-122.506	0.418	-0.069
-737.054	38.652	-0.589	0.530
-736.039	-76.380	-0.706	-0.251
-735.025	-200.000	0.024	-0.482
-734.010	186.808	0.375	-0.564
-732.996	-200.000	-0.049	-0.355
-731.981	255.508	-0.198	0.342
-730.966	122.207	0.318	0.401
-729.952	415.120	-0.280	-0.601
-728.937	114.777	0.581	-0.715
-727.923	29.054	0.364	-0.311
-726.908	364.868	-0.204	-0.415
-725.894	-102.541	-0.538	-0.130
-724.879	-200.000	-0.082	0.779
-723.864	-57.591	0.018	0.008
-722.850	-49.139	0.238	0.115
-721.835	-7.093	0.697	-0.477
-720.821	66.770	0.665	0.683
-719.806	-97.727	-0.534	-0.139
-718.791	52.876	0.690	0.666
-717.777	140.656	0.186	0.247
-716.762	-62.106	0.972	0.409
-715.748	-69.043	0.388	0.151
-714.733	-117.407	0.146	-0.027
-713.718	800.000	-0.107	-0.325
-712.704	33.456	-0.693	-0.607
-711.689	-200.000	0.108	0.505
-710.675	51.224	-0.132	0.126
-709.660	800.000	-0.167	-0.542
-708.645	-147.487	-0.796	-0.068
-707.631	65.249	0.203	-0.207
-706.616	321.408	-0.101	0.194
-705.602	-106.825	0.620	0.139
-704.587	-131.757	0.763	-0.101
-703.572	194.171	-0.203	0.309
-702.558	53.062	-0.237	0.229
-701.543	108.375	-0.276	-0.332
-700.529	114.121	0.090	0.110
-699.514	207.808	-0.526	0.827
-698.499	-39.242	0.132	-0.070
-697.485	-88.512	-0.439	-0.132
-696.470	-200.000	0.134	-0.781
-695.456	500.317	-0.343	-0.797
-694.441	-16.310	-0.330	0.211
-693.426	42.416	0.095	-0.087
-692.412	21.741	0.304	0.249
-691.397	-200.000	0.028	0.403
-690.383	800.000	-0.186	0.793
-689.368	458.412	-0.222	0.497
-688.354	52.785	-0.236	-0.228
-687.339	104.248	0.385	0.456
-686.324	-131.583	0.887	0.118
-685.310	1.730	-0.274	0.199
-684.295	-174.935	-0.654	0.018
-683.281	-8.193	0.331	-0.224
-682.266	-174.117	-0.802	0.024
-681.251	-200.000	-0.017	0.347
-680.237	-26.021	-0.363	0.215
-679.222	-9.737	-0.518	-0.347
-678.208	-135.375	-0.580	0.070
-677.193	-96.828	-0.895	-0.237
-676.178	68.249	0.197	-0.204
-675.164	46.627	0.249	0.232
-674.149	-173.537	-0.265	-0.008
-673.135	-10.438	-0.841	-0.561
-672.120	328.189	-0.184	0.356
-671.105	-69.100	-0.294	0.114
-670.091	338.405	0.242	0.473
-669.076	-200.000	-0.113	-1.080
-668.062	-114.343	0.715	0.139
-667.047	34.983	-0.324	0.286
-666.032	-200.000	0.021	-0.336
-665.018	800.000	-0.189	-0.706
-664.003	-8.259	-0.548	-0.371
-662.989	85.072	-0.142	-0.157
-661.974	800.000	-0.059	-0.219
-660.959	53.455	-0.525	0.506
-659.945	388.792	0.417	0.869
-658.930	-97.141	-0.488	-0.128
-657.916	-200.000	0.075	-0.729
-656.901	-63.859	-0.374	0.154
-655.886	-200.000	-0.083	0.419
-654.872	-200.000	-0.061	-0.520
-653.857	-64.730	-0.229	-0.093
-652.843	-145.489	-1.478	0.134
-651.828	377.568	0.023	-0.047
-650.814	17.675	0.244	0.195
-649.799	97.645	-0.190	-0.220
-648.784	-81.244	0.527	0.175
-647.770	-159.388	1.395	-0.078
-646.755	414.566	-0.199	0.427
-645.741	-200.000	-0.005	-0.858
-644.726	-25.890	0.461	0.273
-643.711	738.018	0.312	-0.841
-642.697	800.000	-0.117	-0.346
-641.682	732.722	-0.187	-0.502
-640.668	498.332	0.155	-0.358
-639.653	230.851	-0.343	-0.564
-638.638	-64.689	0.353	-0.144
-637.624	-200.000	0.017	0.114
-636.609	17.093	0.117	0.094
-635.595	-200.000	-0.082	-0.369
-634.580	800.000	0.316	-0.967
-633.565	-119.324	-0.515	-0.090
-632.551	800.000	-0.289	0.917
-631.536	-112.392	0.115	0.023
-630.522	293.645	-0.302	-0.555
-629.507	-80.271	0.416	0.140
-628.492	278.735	0.454	-0.814
-627.478	29.568	0.526	0.450
-626.463	1.019	0.256	-0.184
-625.449	800.000	0.159	0.571
-624.434	92.389	0.507	-0.574
-623.419	643.257	-0.258	0.660
-622.405	-31.188	0.229	-0.130
-621.390	18.896	0.850	0.684
-620.376	-171.654	-0.152	-0.005
-619.361	-52.465	-0.437	0.203
-618.346	-75.333	0.889	-0.318
-617.332	-15.172	-0.293	-0.188
-616.317	187.383	0.310	0.465
-615.303	800.000	0.226	0.652
-614.288	712.255	0.164	0.437
-613.273	-200.000	0.519	-0.002
-612.259	-53.044	-0.905	-0.418
-611.244	-13.900	-0.374	-0.243
-610.230	-200.000	-0.038	0.355
-609.215	46.329	0.525	-0.489
-608.201	-39.130	-0.912	0.481
-607.186	-200.000	0.054	0.273
-606.171	-68.360	0.743	0.290
-605.157	-76.457	-0.597	0.211
-604.142	234.731	0.145	0.241
-603.128	243.445	-0.110	-0.185
-602.113	-84.921	-0.104	-0.033
-601.098	-115.437	0.565	0.107
-600.084	73.584	-0.212	-0.223
-599.069	-72.954	0.580	0.214
-598.055	-121.793	0.594	0.099
-597.040	-200.000	-0.084	-0.420
-596.025	-200.000	0.178	-0.836
-595.011	-200.000	-0.095	0.604
-593.996	170.774	-0.407	0.585
-592.982	-13.188	0.582	-0.379
-591.967	-72.304	-0.346	0.129
-590.952	146.611	0.281	-0.379
-589.938	69.339	0.587	0.606
-588.923	167.859	0.131	0.186
-587.909	38.990	-0.255	-0.228
-586.894	800.000	0.165	0.503
-585.879	-69.593	-0.429	-0.165
-584.865	172.284	0.147	-0.212
-583.850	-200.000	-0.041	-0.431
-582.836	176.685	-0.443	0.646
-581.821	-155.556	-0.448	-0.029
-580.806	288.364	-0.405	0.735
-579.792	800.000	-0.099	-0.333
-578.777	-23.862	0.627	-0.376
-577.763	85.070	0.475	0.523
-576.748	27.070	-0.735	-0.619
-575.733	66.406	0.393	-0.400
-574.719	-22.320	-0.222	-0.135
-573.704	-200.000	0.108	0.731
-572.690	5.341	-0.599	0.443
-571.675	-78.705	0.734	0.251
-570.661	429.354	0.298	-0.646
-569.646	-63.119	0.318	0.132
-568.631	-121.005	-0.500	0.084
-567.617	-51.067	0.728	0.342
-566.602	170.982	0.055	-0.079
-565.588	354.841	-0.348	0.693
-564.573	24.608	0.234	-0.194
-563.558	-91.700	-0.702	-0.200
-562.544	52.412	-0.260	0.248
-561.529	595.853	0.291	-0.723
-560.515	800.000	-0.296	0.876
-559.500	1.151	-0.436	-0.314
-558.485	-200.000	-0.015	0.075
-557.471	-54.320	-0.475	-0.216
-556.456	-200.000	0.123	0.685
-555.442	-200.000	0.010	-0.309
-554.427	-84.349	-0.460	0.146
-553.412	32.476	-0.487	0.422
-552.398	-200.000	-0.095	-1.022
-551.383	800.000	0.138	0.555
-550.369	228.198	-0.242	-0.395
-549.354	800.000	0.096	-0.384
-548.339	89.589	-0.062	-0.070
-547.325	800.000	-0.051	-0.159
-546.310	-157.476	0.391	-0.024
-545.296	-116.044	0.098	-0.018
-544.281	-146.249	-0.824	0.072
-543.266	15.558	-0.536	0.422
-542.252	-83.061	-0.355	-0.114
-541.237	-153.709	-0.297	-0.020
-540.223	-200.000	-0.118	-0.862
-539.208	403.980	0.272	0.573
-538.193	-101.456	0.323	-0.079
-537.179	-9.402	0.215	0.143
-536.164	-200.000	-0.056	0.953
-535.150	800.000	0.056	-0.192
-534.135	258.436	0.258	-0.444
-533.121	-27.177	0.255	0.149
-532.106	-200.000	-0.017	-0.851
-531.091	58.428	-0.218	0.214
-530.077	-71.393	0.158	-0.059
-529.062	-50.995	0.234	-0.110
-528.048	-101.964	-0.341	-0.082
-527.033	111.440	0.458	0.553
-526.018	436.054	-0.144	0.313
-525.004	-200.000	0.038	0.675
-523.989	-77.501	-1.007	-0.350
-522.975	-147.789	0.826	-0.069
-521.960	-200.000	0.009	0.421
-520.945	156.653	-0.222	-0.307
-519.931	-41.772	0.359	0.185
-518.916	-168.128	-0.559	0.022
-517.902	2.546	-0.407	-0.295
-516.887	402.566	0.320	-0.674
-515.872	-76.340	0.342	-0.120
-514.858	298.031	0.395	0.726
-513.843	-115.381	-0.627	-0.118
-512.829	-95.616	0.731	-0.196
-511.814	58.870	0.187	-0.184
-510.799	9.292	0.323	-0.244
-509.785	800.000	0.078	-0.235
-508.770	-80.285	-0.266	-0.089
-507.756	-147.375	0.288	-0.024
-506.741	-29.640	-0.454	-0.259
-505.726	-105.839	-0.471	-0.106
-504.712	-139.530	-0.297	-0.032
-503.697	-122.681	-0.511	0.083
-502.683	7.222	-0.927	-0.692
-501.668	135.325	0.439	0.571
-500.653	-1.194	0.300	0.212
-499.639	-200.000	-0.232	1.041
-498.624	-10.067	-0.643	0.427
-497.610	104.275	-0.169	-0.199
-496.595	155.988	-0.379	0.523
-495.581	-30.816	-0.619	0.350
-494.566	265.898	-0.328	0.573
-493.551	-200.000	0.034	0.186
-492.537	-15.673	-0.172	-0.110
-491.522	92.971	0.486	-0.548
-490.508	-36.469	0.386	-0.207
-489.493	-141.850	-1.202	-0.120
-488.478	718.940	-0.217	-0.576
-487.464	42.215	-1.116	1.013
-486.449	78.946	0.243	-0.260
-485.435	-11.256	0.376	-0.248
-484.420	472.287	-0.151	-0.341
-483.405	-47.999	0.074	0.036
-482.391	66.798	0.259	0.263
-481.376	465.415	0.255	0.569
-480.362	-50.869	-0.882	-0.414
-479.347	27.142	-0.707	0.593
-478.332	800.000	0.198	0.688
-477.318	158.600	0.080	0.112
-476.303	800.000	0.220	-0.949
-475.289	-200.000	-0.172	-0.884
-474.274	-142.478	-0.549	-0.054
-473.259	-200.000	-0.177	0.807
-472.245	547.951	-0.186	-0.445
-471.230	800.000	0.319	0.936
-470.216	-200.000	0.089	-0.673
-469.201	-58.310	-0.203	-0.088
-468.186	-83.213	-0.458	0.147
-467.172	216.868	0.055	-0.087
-466.157	13.205	0.972	0.752
-465.143	71.911	0.392	0.407
-464.128	-63.567	0.257	0.105
-463.113	492.749	0.224	0.514
-462.099	-15.234	0.552	0.353
-461.084	-59.553	-0.405	-0.173
-460.070	95.312	0.350	-0.399
-459.055	-200.000	-0.418	-0.002
-458.040	-22.974	0.512	0.308
-457.026	-38.670	0.964	-0.508
-456.011	2.228	0.402	-0.290
-454.997	-138.790	0.468	0.051
-453.982	-66.497	-0.304	-0.121
-452.968	99.355	0.188	0.217
-451.953	-200.000	0.150	-0.679
-450.938	-200.000	0.000	-1.197
-449.924	-121.862	0.732	-0.120
-448.909	-26.949	-0.212	0.123
-447.895	-70.460	0.123	0.047
-446.880	323.167	0.288	0.549
-445.865	63.974	-0.329	-0.330
-444.851	-75.194	-0.682	-0.243
-443.836	-43.003	-0.611	-0.309
-442.822	-200.000	0.028	-0.146
-441.807	-104.003	0.415	-0.097
-440.792	150.978	-0.319	-0.433
-439.778	-200.000	0.083	0.738
-438.763	798.498	-0.408	-1.121
-437.749	50.137	0.138	-0.130
-436.734	66.634	-0.243	-0.246
-435.719	-200.000	0.074	0.369
-434.705	-200.000	0.139	0.618
-433.690	-127.750	0.915	0.132
-432.676	89.905	0.638	0.711
-431.661	-151.895	-0.584	-0.043
-430.646	28.938	-0.614	-0.519
-429.632	-200.000	-0.039	-0.586
-428.617	-98.151	-1.050	-0.269
-427.603	-127.275	0.706	0.103
-426.588	-200.000	0.532	-0.002
-425.573	-200.000	0.087	1.206
-424.559	170.754	0.433	0.618
-423.544	-97.415	0.145	0.038
-422.530	-111.332	0.737	-0.150
-421.515	-56.476	-0.644	-0.285
-420.500	-153.285	-0.226	-0.016
-419.486	539.644	0.092	0.219
-418.471	-103.797	-0.057	0.013
-417.457	-200.000	-0.029	-0.424
-416.442	800.000	0.291	0.807
-415.428	-37.671	-0.804	-0.427
-414.413	209.373	0.251	-0.392
-413.398	-83.317	0.255	-0.081
-412.384	-125.151	-0.690	0.105
-411.369	800.000	0.060	-0.194
-410.355	-51.016	0.649	0.304
-409.340	800.000	-0.131	0.362
-408.325	-151.142	-0.954	0.071
-407.311	61.087	-0.418	0.414
-406.296	211.635	0.231	0.363
-405.282	-130.996	0.373	0.050
-404.267	331.688	-0.201	0.386
-403.252	-74.547	0.501	0.180
-402.238	-38.768	-0.607	-0.319
-401.223	-179.388	-0.612	-0.013
-400.209	-56.720	0.321	-0.142
-399.194	-200.000	0.028	0.456
-398.179	189.929	-0.273	0.408
-397.165	-162.595	0.480	0.024
-396.150	57.225	-0.359	0.348
-395.136	2.716	0.347	-0.251
-394.121	-200.000	-0.014	0.098
-393.106	-149.690	-0.858	0.067
-392.092	327.194	-0.043	0.083
-391.077	122.016	-0.407	0.506
-390.063	-80.911	0.094	0.031
-389.048	132.130	0.177	0.227
-388.033	148.694	0.127	0.171
-387.019	-89.495	0.207	-0.061
-386.004	-200.000	-0.064	-0.574
-384.990	-200.000	-0.046	0.564
-383.975	-40.383	0.389	0.201
-382.960	82.454	0.269	0.291
-381.946	800.000	-0.127	-0.454
-380.931	-200.000	-0.006	0.892
-379.917	-39.978	-0.680	-0.353
-378.902	83.899	0.255	-0.277
-377.888	610.875	-0.359	0.892
-376.873	96.440	-0.189	-0.215
-375.858	33.246	0.325	0.280
-374.844	-200.000	-0.088	-0.416
-373.829	1.809	0.715	0.513
-372.815	144.921	-0.646	0.859
-371.800	800.000	-0.072	0.243
-370.785	-200.000	0.015	-0.278
-369.771	131.422	0.464	-0.593
-368.756	-9.424	-0.720	0.478
-367.742	-200.000	0.184	-1.050
-366.727	-71.858	0.575	0.213
-365.712	247.305	-0.426	0.715
-364.698	800.000	-0.252	-0.875
-363.683	-39.501	0.669	0.349
-362.669	277.601	-0.358	-0.634
-361.654	56.937	-0.565	-0.547
-360.639	-200.000	0.084	0.428
-359.625	669.203	0.402	-1.035
-358.610	-163.391	0.653	-0.031
-357.596	196.065	0.112	0.169
-356.581	66.296	0.486	-0.491
-355.566	13.726	-0.273	0.211
-354.552	-44.598	-0.423	-0.210
-353.537	-69.965	0.485	-0.184
-352.523	800.000	0.275	-0.829
-351.508	-52.624	-0.433	0.199
-350.493	800.000	-0.273	-0.858
-349.479	29.204	0.451	-0.380
-348.464	-44.508	-0.662	-0.329
-347.450	69.627	-0.256	0.263
-346.435	616.182	0.314	0.782
-345.420	-116.193	-0.252	0.046
-344.406	-28.928	0.590	0.337
-343.391	-9.443	1.001	-0.664
-342.377	74.758	0.497	-0.520
-341.362	-85.124	0.830	-0.258
-340.348	-172.703	-0.397	0.012
-339.333	-200.000	0.073	-0.907
-338.318	800.000	0.179	-0.669
-337.304	-3.944	-0.272	0.188
-336.289	241.477	0.213	-0.354
-335.275	-107.264	-0.224	-0.049
-334.260	-24.856	-0.127	-0.075
-333.245	61.267	0.137	-0.135
-332.231	71.238	-0.670	-0.690
-331.216	800.000	0.051	-0.158
-330.202	159.565	-0.257	0.356
-329.187	-92.129	0.482	-0.135
-328.172	173.064	-0.257	0.368
-327.158	-106.248	-0.291	-0.065
-326.143	480.742	0.208	0.469
-325.129	800.000	0.106	-0.381
-324.114	-70.414	0.518	0.195
-323.099	-130.150	-0.703	0.095
-322.085	-200.000	0.117	-0.598
-321.070	-76.456	-1.060	0.370
-320.056	349.301	-0.375	0.734
-319.041	-131.004	-0.245	0.032
-318.026	-114.987	0.311	0.059
-317.012	205.741	-0.206	-0.318
-315.997	59.321	0.018	0.017
-314.983	-33.857	0.085	-0.046
-313.968	-10.461	0.446	0.293
-312.953	37.830	-0.425	0.374
-311.939	-200.000	-0.067	-0.336
-310.924	-93.516	-0.486	0.133
-309.910	28.176	0.414	-0.347
-308.895	-128.728	0.706	0.099
-307.880	800.000	0.027	0.098
-306.866	-200.000	0.053	-0.817
-305.851	-95.527	-0.828	0.220
-304.837	344.396	0.140	-0.272
-303.822	-30.384	-1.102	0.621
-302.807	-30.826	0.307	-0.172
-301.793	568.815	0.068	-0.164
-300.778	22.245	0.359	-0.291
-299.764	-141.244	-0.265	0.027
-298.749	45.282	-0.602	-0.551
-297.735	126.836	0.351	0.441
-296.720	-27.016	-0.406	-0.235
-295.705	-2.782	-0.522	-0.362
-294.691	-54.471	0.460	-0.207
-293.676	383.472	-0.330	0.674
-292.662	-42.659	-0.769	0.388
-291.647	800.000	0.114	-0.444
-290.632	800.000	-0.074	-0.252
-289.618	-100.024	-0.348	-0.086
-288.603	-136.891	-0.730	-0.083
-287.589	419.253	-0.230	0.487
-286.574	-200.000	-0.082	0.702
-285.559	-121.345	0.316	-0.052
-284.545	-77.668	-0.661	-0.227
-283.530	118.377	0.201	-0.246
-282.516	-76.946	-0.141	0.049
-281.501	-132.243	-0.607	-0.078
-280.486	68.725	-0.308	0.314
-279.472	212.370	0.473	0.740
-278.457	-136.518	0.298	-0.034
-277.443	-173.035	0.118	-0.004
-276.428	-200.000	0.068	-0.726
-275.413	-53.333	0.421	-0.191
-274.399	-200.000	0.046	-0.617
-273.384	81.888	-0.256	0.275
-272.370	-200.000	-0.133	0.939
-271.355	-68.020	0.686	0.265
-270.340	800.000	0.230	0.924
-269.326	-120.874	-1.069	-0.178
-268.311	143.421	-0.338	-0.446
-267.297	-200.000	0.066	-0.468
-266.282	100.828	0.390	0.449
-265.267	14.885	0.162	-0.126
-264.253	18.800	0.651	0.517
-263.238	84.729	0.168	-0.183
-262.224	-200.000	-0.029	0.197
-261.209	757.694	0.114	0.305
-260.195	-4.131	0.606	-0.416
-259.180	513.933	0.268	-0.619
-258.165	-79.262	-0.456	-0.153
-257.151	-90.777	0.158	-0.045
-256.136	469.166	0.105	0.233
-255.122	-140.125	-0.768	-0.080
-254.107	159.712	-0.150	0.207
-253.092	71.064	0.214	0.220
-252.078	127.936	0.517	0.651
-251.063	232.405	-0.497	0.807
-250.049	76.058	0.339	0.355
-249.034	-89.719	-0.252	-0.073
-248.019	-80.921	-0.927	0.304
-247.005	527.141	-0.335	0.781
-245.990	161.619	0.611	-0.847
-244.976	-32.314	-1.238	-0.684
-243.961	401.586	-0.156	-0.325
-242.946	-200.000	-0.022	0.613
-241.932	696.457	-0.251	0.653
-240.917	99.516	0.819	-0.938
-239.903	-120.768	0.322	-0.054
-238.888	218.749	-0.409	0.647
-237.873	228.309	0.280	0.451
-236.859	79.786	0.128	-0.136
-235.844	-200.000	0.080	0.475
-234.830	-169.364	0.632	0.023
-233.815	79.700	0.692	0.735
-232.800	345.938	0.261	-0.508
-231.786	-34.392	-0.565	0.307
-230.771	107.729	-0.620	0.730
-229.757	-106.033	0.393	0.087
-228.742	-5.094	-0.493	0.336
-227.727	72.774	-0.537	0.554
-226.713	229.609	0.158	-0.255
-225.698	476.068	0.169	0.377
-224.684	181.999	-0.367	-0.535
-223.669	800.000	0.133	0.489
-222.655	208.826	-0.233	0.360
-221.640	201.405	0.233	0.355
-220.625	-26.830	0.582	-0.336
-219.611	397.682	-0.038	-0.079
-218.596	91.416	-0.342	-0.380
-217.582	28.865	0.218	-0.183
-216.567	185.165	0.057	-0.084
-215.552	-200.000	0.047	-0.295
-214.538	518.928	-0.128	0.297
-213.523	177.729	0.308	-0.443
-212.509	-71.245	-0.298	-0.111
-211.494	410.854	0.088	0.185
-210.479	133.505	-0.298	0.382
-209.465	800.000	0.277	-0.875
-208.450	-144.036	-0.150	0.014
-207.436	-58.821	1.025	0.438
-206.421	-24.175	0.521	0.307
-205.406	-200.000	-0.017	-0.793
-204.392	56.429	-0.148	0.142
-203.377	-175.144	0.582	-0.016
-202.363	112.248	-0.440	0.526
-201.348	-61.437	-0.634	-0.264
-200.333	-200.000	0.065	0.738
-199.319	-41.242	-0.949	-0.484
-198.304	-105.873	-0.572	0.127
-197.290	-101.823	0.980	0.234
-196.275	-117.159	-0.061	0.011
-195.260	-200.000	0.128	-0.812
-194.246	228.193	0.127	0.204
-193.231	-59.225	0.610	0.260
-192.217	161.993	-0.282	0.390
-191.202	256.049	-0.083	0.140
-190.187	139.326	0.223	0.290
-189.173	13.394	-0.338	0.259
-188.158	375.766	0.228	-0.459
-187.144	131.973	0.110	-0.140
-186.129	597.642	0.572	-1.401
-185.114	-200.000	0.055	-0.300
-184.100	42.788	-0.139	-0.125
-183.085	-108.516	-0.532	-0.113
-182.071	800.000	0.105	-0.347
-181.056	282.131	0.049	-0.088
-180.042	-200.000	0.415	-0.001
-179.027	766.486	-0.197	-0.530
-178.012	-147.047	-0.625	-0.053
-176.998	-200.000	0.028	0.726
-175.983	55.841	0.124	0.119
-174.969	218.646	0.472	-0.745
-173.954	-57.537	0.641	-0.278
-172.939	-53.458	-0.390	-0.176
-171.925	800.000	-0.105	-0.321
-170.910	-27.844	0.788	-0.451
-169.896	-59.338	0.393	0.167
-168.881	-200.000	-0.001	0.085
-167.866	-135.947	0.484	0.056
-166.852	-64.702	1.112	0.445
-165.837	259.731	-0.135	-0.230
-164.823	10.638	-0.333	-0.251
-163.808	119.710	-0.188	-0.230
-162.793	670.437	-0.224	-0.573
-161.779	132.316	-0.336	0.427
-160.764	-75.707	-0.055	-0.019
-159.750	-200.000	-0.029	-0.484
-158.735	306.340	0.358	0.657
-157.720	30.587	0.418	0.353
-156.706	-87.639	-0.100	-0.030
-155.691	-19.437	0.312	-0.191
-154.677	-79.469	0.554	-0.185
-153.662	-56.092	-0.301	-0.132
-152.647	-90.036	0.425	0.122
-151.633	78.705	-0.511	-0.539
-150.618	-166.208	0.733	-0.031
-149.604	-90.118	0.105	0.030
-148.589	-4.104	0.379	0.259
-147.574	-109.713	-0.579	0.120
-146.560	800.000	-0.123	0.343
-145.545	800.000	-0.203	-0.594
-144.531	61.966	-0.221	0.217
-143.516	800.000	0.310	1.043
-142.502	292.037	-0.202	0.362
-141.487	-200.000	-0.075	-0.585
-140.472	305.526	0.228	0.418
-139.458	297.665	0.248	-0.449
-138.443	-200.000	0.113	-0.637
-137.429	-200.000	-0.021	0.109
-136.414	-200.000	0.069	0.949
-135.399	209.090	0.262	-0.404
-134.385	-200.000	0.008	-0.217
-133.370	-84.396	0.552	0.172
-132.356	-16.586	-0.528	0.330
-131.341	-200.000	-0.035	0.155
-130.326	-142.176	-0.230	-0.022
-129.312	-164.872	1.067	0.047
-128.297	-56.915	-0.444	-0.193
-127.283	192.760	-0.346	0.515
-126.268	346.698	-0.271	0.525
-125.253	-83.307	0.598	-0.189
-124.239	800.000	0.257	-1.015
-123.224	-200.000	0.031	-0.386
-122.210	-70.099	-0.693	-0.260
-121.195	800.000	0.058	0.240
-120.180	800.000	-0.036	-0.101
-119.166	-200.000	-0.073	0.373
-118.151	37.031	0.455	0.397
-117.137	223.682	-0.252	0.401
-116.122	25.442	0.277	0.227
-115.107	135.978	-0.237	0.304
-114.093	-200.000	-0.137	0.826
-113.078	-61.574	0.654	-0.270
-112.064	-163.222	0.338	0.016
-111.049	41.889	-0.544	-0.486
-110.034	289.222	0.371	0.663
-109.020	114.612	-0.353	-0.423
-108.005	377.834	0.054	-0.108
-106.991	31.776	0.607	0.514
-105.976	-38.820	-0.271	-0.141
-104.962	-33.981	0.072	-0.039
-103.947	-23.372	0.273	0.161
-102.932	-60.311	0.460	-0.193
-101.918	-125.554	0.514	0.077
-100.903	-200.000	0.051	0.402
-99.889	43.483	-0.445	0.400
-98.874	78.983	-0.165	-0.174
-97.859	-28.081	-0.569	-0.324
-96.845	-200.000	0.106	-0.469
-95.830	-144.577	0.648	0.059
-94.816	189.166	0.316	0.466
-93.801	24.770	-0.364	-0.297
-92.786	-133.010	-0.917	-0.115
-91.772	-8.978	-0.213	-0.140
-90.757	-54.856	-0.304	-0.135
-89.743	380.668	0.130	-0.262
-88.728	-162.673	-0.272	0.013
-87.713	-30.358	-0.960	0.536
-86.699	-109.138	-0.702	0.147
-85.684	800.000	0.055	0.233
-84.670	773.149	-0.148	-0.398
-83.655	547.916	-0.327	-0.769
-82.640	-101.785	0.667	-0.159
-81.626	-110.379	0.966	-0.197
-80.611	19.191	-0.516	0.407
-79.597	-200.000	0.008	-0.420
-78.582	-36.849	-0.403	0.212
-77.567	623.344	-0.074	-0.182
-76.553	-200.000	0.026	0.395
-75.538	-58.393	0.110	0.047
-74.524	800.000	0.168	-0.569
-73.509	-63.028	-1.103	-0.448
-72.494	329.927	-0.130	-0.245
-71.480	-84.283	-0.441	0.137
-70.465	-59.893	0.201	-0.085
-69.451	-200.000	-0.052	-0.680
-68.436	-200.000	0.010	-0.819
-67.422	-19.776	0.441	-0.268
-66.407	-63.091	-0.499	-0.203
-65.392	-200.000	-0.220	1.058
-64.378	364.877	0.136	0.269
-63.363	103.001	-0.625	-0.719
-62.349	27.293	-0.237	0.196
-61.334	800.000	-0.254	-0.728
-60.319	181.960	0.311	0.451
-59.305	-58.531	-1.174	-0.501
-58.290	55.797	0.796	0.758
-57.276	584.264	0.544	1.313
-56.261	-200.000	96.871	593.096
-55.246	671.527	1359.036	3460.320
-54.232	203.527	2524.903	3838.303
-53.217	112.752	2244.859	2671.284
-52.203	41.947	1880.629	1676.215
-51.188	36.061	1672.209	1446.372
-50.173	33.143	1630.061	1388.472
-49.159	51.564	1678.659	1567.446
-48.144	52.387	1692.381	1586.317
-47.130	35.360	1655.041	1426.088
-46.115	32.847	1638.954	1393.637
-45.100	32.659	1634.029	1388.013
-44.086	32.601	1632.299	1386.060
-43.071	32.568	1629.134	1383.074
-42.057	32.492	1627.127	1380.762
-41.042	32.743	1625.305	1380.997
-40.027	32.296	1625.905	1378.178
-39.013	32.257	1622.717	1375.132
-37.998	32.483	1620.858	1375.158
-36.984	32.310	1619.342	1372.554
-35.969	32.584	1617.591	1373.013
-34.954	32.644	1615.604	1371.706
-33.940	32.737	1613.886	1370.867
-32.925	32.402	1613.166	1367.766
-31.911	32.588	1611.701	1367.826
-30.896	32.572	1609.807	1366.048
-29.881	32.727	1607.641	1365.273
-28.867	32.612	1605.858	1362.876
-27.852	32.725	1604.500	1362.483
-26.838	32.753	1602.324	1360.788
-25.823	32.677	1600.868	1358.945
-24.809	32.739	1600.419	1358.959
-23.794	32.751	1597.929	1356.879
-22.779	32.592	1597.597	1355.399
-21.765	32.649	1594.516	1353.139
-20.750	32.724	1594.153	1353.314
-19.736	32.412	1593.575	1350.528
-18.721	32.868	1590.915	1351.494
-17.706	32.838	1589.556	1350.071
-16.692	32.718	1588.905	1348.604
-15.677	32.586	1587.570	1346.471
-14.663	32.635	1585.899	1345.353
-13.648	32.797	1582.986	1343.982
-12.633	32.567	1582.564	1341.935
-11.619	32.709	1580.134	1340.829
-10.604	32.710	1580.076	1340.733
-9.590	32.350	1579.555	1337.675
-8.575	32.714	1577.273	1338.277
-7.560	32.768	1575.208	1336.857
-6.546	32.660	1575.612	1336.381
-5.531	32.651	1574.024	1334.916
-4.517	32.663	1572.194	1333.394
-3.502	32.590	1571.366	1332.127
-2.487	32.713	1569.136	1331.051
-1.473	32.307	1558.744	1319.330
-0.458	29.658	1537.898	1283.266
0.556	27.129	1539.413	1250.987
1.571	24.672	1562.004	1252.042
2.586	24.008	1574.026	1256.878
3.600	21.123	1522.107	1195.583
4.615	12.558	1413.382	1055.362
5.629	4.665	1349.290	958.908
6.644	3.205	1341.282	944.184
7.659	2.848	1340.369	941.268
8.673	3.172	1338.401	941.783
9.688	3.016	1337.191	939.897
10.702	2.995	1333.422	937.037
11.717	6.482	1340.591	963.340
12.731	15.844	1359.126	1034.358
13.746	23.245	1369.814	1088.060
14.761	24.993	1371.696	1100.206
15.775	24.766	1371.066	1098.213
16.790	24.980	1369.559	1098.216
17.804	24.536	1369.738	1095.541
18.819	24.796	1369.346	1096.726
19.834	24.938	1367.913	1096.349
20.848	24.844	1367.747	1095.547
21.863	24.724	1366.806	1093.957
22.877	24.848	1365.497	1093.571
23.892	25.034	1364.316	1093.668
24.907	24.782	1364.331	1092.041
25.921	25.101	1362.985	1092.813
26.936	24.866	1362.496	1090.891
27.950	24.781	1361.027	1089.101
28.965	24.877	1360.709	1089.336
29.980	24.683	1360.385	1087.803
30.994	25.032	1358.669	1088.449
32.009	25.212	1357.033	1088.138
33.023	24.849	1357.004	1085.818
34.038	24.987	1355.574	1085.410
35.053	24.961	1355.943	1085.455
36.067	25.003	1353.131	1083.360
37.082	24.914	1351.892	1081.737
38.096	24.966	1351.468	1081.614
39.111	24.757	1351.865	1080.574
40.126	24.778	1351.161	1080.043
41.140	24.809	1349.628	1078.907
42.155	24.789	1349.022	1078.210
43.169	24.920	1348.531	1078.509
44.184	24.551	1348.424	1076.105
45.199	24.605	1347.939	1075.950
46.213	24.558	1347.655	1075.341
47.228	24.970	1347.600	1077.681
48.242	24.890	1346.409	1076.155
49.257	24.962	1344.246	1074.760
50.271	24.788	1342.923	1072.569
51.286	24.941	1342.013	1072.661
52.301	24.917	1341.061	1071.663
53.315	24.928	1340.062	1070.834
54.330	24.925	1338.864	1069.767
55.344	24.902	1337.508	1068.451
56.359	24.865	1336.988	1067.721
57.374	24.854	1336.869	1067.463
58.388	24.816	1335.254	1065.855
59.403	24.929	1334.046	1065.469
60.417	24.846	1334.025	1064.865
61.432	24.976	1333.500	1065.121
62.447	24.671	1333.840	1063.485
63.461	24.902	1331.120	1062.594
64.476	24.715	1330.567	1060.947
65.490	24.787	1328.835	1059.898
66.505	24.664	1327.546	1058.052
67.520	24.714	1326.092	1057.095
68.534	24.848	1324.506	1056.525
69.549	24.466	1325.335	1054.836
70.563	24.587	1324.554	1054.839
71.578	24.715	1323.025	1054.284
72.593	24.448	1322.084	1051.866
73.607	24.586	1321.577	1052.180
74.622	24.381	1320.365	1049.919
75.636	24.516	1320.142	1050.443
76.651	24.698	1318.561	1050.161
77.666	24.549	1318.514	1049.151
78.680	24.249	1318.670	1047.424
79.695	24.535	1317.460	1048.045
80.709	24.557	1317.682	1048.258
81.724	24.821	1316.589	1048.843
82.739	25.076	1315.434	1049.327
83.753	24.881	1315.464	1048.117
84.768	25.503	1312.848	1049.572
85.782	25.109	1313.565	1047.751
86.797	25.194	1311.515	1046.517
87.812	25.242	1309.398	1045.017
88.826	24.953	1309.143	1043.037
89.841	24.976	1308.384	1042.472
90.855	24.969	1308.336	1042.303
91.870	25.097	1307.526	1042.308
92.884	25.211	1306.189	1041.814
93.899	25.166	1305.876	1041.209
94.914	25.249	1304.040	1040.135
95.928	25.095	1304.594	1039.591
96.943	25.348	1303.483	1040.082
97.957	25.053	1302.020	1037.115
98.972	24.875	1302.662	1036.500
99.987	25.382	1300.716	1037.795
101.001	25.366	1299.312	1036.491
102.016	24.998	1299.054	1034.067
103.030	25.099	1297.757	1033.523
104.045	24.986	1296.952	1032.141
105.060	25.198	1295.142	1031.831
106.074	25.043	1294.728	1030.518
107.089	24.669	1293.518	1027.317
108.103	24.524	1293.145	1026.093
109.118	24.810	1291.695	1026.495
110.133	24.552	1291.069	1024.427
111.147	24.715	1288.512	1023.243
112.162	24.674	1288.452	1022.870
113.176	24.806	1289.015	1023.980
114.191	24.821	1285.933	1021.527
115.206	24.801	1285.371	1020.876
116.220	25.006	1284.720	1021.437
117.235	24.903	1283.451	1019.753
118.249	24.481	1281.824	1015.968
119.264	24.650	1281.322	1016.439
120.279	24.714	1280.432	1016.005
121.293	24.635	1280.298	1015.360
122.308	24.527	1279.666	1014.156
123.322	24.320	1278.216	1011.743
124.337	24.680	1277.272	1012.949
125.352	24.406	1276.571	1010.753
126.366	24.603	1275.085	1010.599
127.381	24.378	1276.119	1010.058
128.395	24.417	1273.669	1008.250
129.410	24.393	1273.072	1007.549
130.424	24.430	1272.756	1007.420
131.439	24.348	1271.503	1005.874
132.454	24.409	1270.937	1005.682
133.468	24.534	1269.497	1005.158
134.483	24.883	1269.913	1007.361
135.497	24.988	1268.710	1006.910
136.512	24.810	1268.103	1005.340
137.527	24.853	1265.396	1003.345
138.541	24.536	1264.835	1001.036
139.556	24.607	1264.225	1000.859
140.570	24.931	1264.151	1002.529
141.585	25.017	1261.989	1001.207
142.600	25.066	1262.674	1001.934
143.614	25.218	1261.350	1001.644
144.629	25.334	1259.510	1000.741
145.643	24.956	1259.339	998.409
146.658	25.209	1257.722	998.449
147.673	25.150	1256.953	997.421
148.687	25.027	1256.201	996.052
149.702	24.688	1255.287	993.358
150.716	24.405	1252.344	989.369
151.731	24.476	1251.424	988.949
152.746	24.545	1250.954	988.874
153.760	24.785	1250.626	989.854
154.775	24.902	1249.587	989.593
155.789	25.151	1249.241	990.606
156.804	25.097	1246.923	988.383
157.819	24.547	1246.780	985.148
158.833	24.979	1244.763	985.848
159.848	24.974	1245.791	986.546
160.862	25.114	1245.140	986.715
161.877	24.862	1242.882	983.451
162.892	24.713	1242.327	982.105
163.906	24.560	1241.626	980.626
164.921	24.649	1241.023	980.551
165.935	24.636	1240.371	979.879
166.950	24.926	1239.298	980.529
167.964	24.689	1239.060	978.959
168.979	24.781	1238.088	978.608
169.994	24.791	1237.425	978.051
171.008	24.872	1235.922	977.222
172.023	25.003	1235.679	977.658
173.037	25.005	1235.736	977.626
174.052	24.925	1234.839	976.393
175.067	24.857	1233.458	974.843
176.081	24.851	1231.666	973.309
177.096	24.745	1230.901	972.043
178.110	24.814	1230.409	971.941
179.125	24.577	1229.720	970.026
180.140	24.715	1228.764	969.933
181.154	24.882	1228.464	970.518
182.169	24.847	1226.187	968.442
183.183	24.760	1226.143	967.854
184.198	24.952	1225.348	968.179
185.213	24.985	1224.099	967.283
186.227	25.146	1222.693	966.956
187.242	24.971	1222.557	965.816
188.256	25.231	1220.903	965.826
189.271	24.914	1221.007	964.117
190.286	25.080	1219.773	963.949
191.300	24.770	1219.213	961.755
192.315	24.640	1218.692	960.557
193.329	24.736	1219.209	961.399
194.344	25.040	1216.625	960.905
195.359	24.950	1215.276	959.275
196.373	24.494	1215.141	956.640
197.388	24.596	1214.306	956.443
198.402	24.837	1214.983	958.182
199.417	24.832	1215.536	958.507
200.432	25.259	1214.085	959.561
201.446	25.148	1212.967	957.998
202.461	25.039	1212.358	956.851
203.475	25.089	1211.920	956.690
204.490	24.963	1209.478	954.003
205.504	24.720	1208.863	952.142
206.519	24.709	1208.278	951.538
207.534	24.508	1206.999	949.380
208.548	24.382	1205.861	947.730
209.563	24.448	1204.743	947.119
210.577	24.498	1203.845	946.593
211.592	24.636	1204.010	947.373
212.607	24.855	1203.916	948.374
213.621	24.940	1203.052	948.060
214.636	24.651	1202.508	946.018
215.650	24.739	1201.084	945.280
216.665	25.065	1199.023	945.293
217.680	24.955	1200.801	946.031
218.694	24.825	1200.765	945.230
219.709	24.710	1198.213	942.534
220.723	24.965	1196.815	942.690
221.738	24.816	1197.036	942.000
222.753	24.744	1195.786	940.554
223.767	24.635	1194.354	938.769
224.782	25.151	1194.380	941.419
225.796	24.857	1195.217	940.448
226.811	24.935	1193.941	939.773
227.826	24.965	1192.436	938.660
228.840	25.145	1191.225	938.566
229.855	24.866	1190.751	936.649
230.869	24.850	1190.905	936.607
231.884	24.840	1189.640	935.475
232.899	24.580	1188.595	933.210
233.913	24.538	1188.140	932.554
234.928	24.597	1188.430	933.006
235.942	24.771	1185.866	931.815
236.957	24.811	1185.470	931.629
237.972	24.391	1184.450	928.560
238.986	24.148	1184.764	927.459
240.001	24.684	1183.972	929.545
241.015	24.494	1183.256	927.913
242.030	24.805	1181.463	928.039
243.045	24.792	1182.056	928.359
244.059	24.737	1180.859	927.052
245.074	25.027	1180.118	927.888
246.088	25.052	1178.884	926.963
247.103	25.071	1178.371	926.576
248.117	24.999	1179.052	926.660
249.132	25.222	1177.120	926.211
250.147	25.370	1177.265	927.006
251.161	25.820	1175.611	927.943
252.176	25.664	1175.078	926.635
253.190	25.550	1175.541	926.331
254.205	25.802	1175.576	927.575
255.220	25.730	1175.631	927.164
256.234	25.692	1173.875	925.504
257.249	25.656	1173.915	925.265
258.263	25.391	1172.240	922.505
259.278	25.328	1172.553	922.345
260.293	25.781	1170.454	922.935
261.307	25.946	1171.036	924.158
262.322	25.846	1170.071	922.801
263.336	25.731	1169.437	921.632
264.351	25.524	1168.944	920.099
265.366	25.764	1167.300	919.950
266.380	25.649	1167.344	919.319
267.395	25.894	1166.649	919.939
268.409	25.628	1164.949	917.165
269.424	25.736	1164.871	917.569
270.439	25.597	1165.051	916.922
271.453	25.618	1164.296	916.356
272.468	25.332	1163.684	914.334
273.482	25.133	1161.771	911.738
274.497	25.231	1162.609	912.814
275.512	25.241	1161.266	911.728
276.526	25.138	1161.524	911.328
277.541	25.043	1160.845	910.232
278.555	25.386	1159.129	910.545
279.570	25.622	1159.408	911.881
280.585	25.680	1158.424	911.322
281.599	25.380	1157.526	909.015
282.614	25.576	1155.926	908.668
283.628	25.466	1154.586	906.979
284.643	25.316	1153.769	905.502
285.657	25.158	1153.711	904.580
286.672	25.376	1152.914	904.971
287.687	25.496	1152.118	904.871
288.701	25.388	1151.562	903.809
289.716	25.365	1150.906	903.100
290.730	25.483	1149.120	902.214
291.745	25.650	1148.782	902.706
292.760	25.704	1147.699	902.047
293.774	25.774	1147.760	902.362
294.789	25.733	1147.379	901.779
295.803	25.880	1146.808	901.983
296.818	25.583	1146.135	899.892
297.833	25.533	1145.108	898.757
298.847	25.663	1144.709	899.011
299.862	25.477	1143.511	897.061
300.876	25.302	1142.874	895.609
301.891	25.641	1142.862	897.212
302.906	25.737	1141.654	896.663
303.920	25.908	1141.379	897.221
304.935	25.844	1140.857	896.413
305.949	25.910	1140.707	896.541
306.964	25.765	1139.976	895.168
307.979	25.980	1138.403	894.922
308.993	25.770	1137.340	892.965
310.008	25.876	1137.201	893.301
311.022	25.926	1136.296	892.762
312.037	25.943	1134.705	891.515
313.052	25.606	1134.784	889.833
314.066	25.582	1133.244	888.425
315.081	25.126	1134.011	886.696
316.095	25.190	1132.278	885.576
317.110	25.389	1131.393	885.787
318.125	25.226	1131.534	885.018
319.139	25.179	1130.241	883.695
320.154	25.506	1129.396	884.566
321.168	25.299	1128.780	882.986
322.183	25.463	1128.221	883.278
323.197	25.305	1128.009	882.257
324.212	25.402	1128.377	882.943
325.227	25.574	1127.132	882.737
326.241	25.636	1125.482	881.669
327.256	25.538	1125.292	880.960
328.270	25.602	1124.203	880.346
329.285	25.509	1123.805	879.500
330.300	25.402	1122.806	878.119
331.314	25.290	1122.239	877.046
332.329	25.351	1121.017	876.314
333.343	25.702	1119.813	877.006
334.358	25.716	1120.377	877.437
335.373	25.478	1121.169	876.819
336.387	25.682	1118.811	875.890
337.402	25.896	1118.848	876.885
338.416	25.673	1118.219	875.229
339.431	26.168	1116.581	876.274
340.446	25.867	1117.352	875.336
341.460	26.311	1115.518	875.978
342.475	26.242	1115.147	875.272
343.489	26.140	1113.416	873.346
344.504	26.458	1112.408	874.014
345.519	26.348	1112.040	873.116
346.533	26.225	1111.496	872.019
347.548	26.329	1111.543	872.481
348.562	26.316	1109.918	871.065
349.577	26.013	1109.478	869.180
350.592	25.700	1108.112	866.527
351.606	25.695	1107.913	866.270
352.621	25.495	1107.417	864.845
353.635	25.760	1106.271	865.147
354.650	25.573	1105.287	863.404
355.665	25.372	1104.699	861.902
356.679	25.498	1104.709	862.439
357.694	25.947	1104.806	864.591
358.708	26.100	1102.693	863.595
359.723	26.077	1102.230	863.045
360.738	25.852	1101.645	861.435
361.752	25.768	1101.096	860.530
362.767	25.692	1101.163	860.143
363.781	25.674	1100.537	859.491
364.796	26.185	1099.780	861.260
365.810	26.159	1100.752	861.819
366.825	26.529	1099.460	862.496
367.840	26.472	1098.377	861.297
368.854	26.651	1097.568	861.441
369.869	26.442	1097.359	860.204
370.883	26.421	1096.542	859.392
371.898	26.140	1094.949	856.733
372.913	26.355	1095.203	857.875
373.927	26.137	1094.222	855.997
374.942	26.269	1095.114	857.247
375.956	26.338	1093.801	856.470
376.971	26.185	1093.207	855.202
377.986	26.282	1092.609	855.120
379.000	26.425	1091.735	855.038
380.015	26.573	1091.044	855.117
381.029	26.647	1089.552	854.220
382.044	26.727	1089.511	854.493
383.059	26.430	1090.094	853.473
384.073	26.380	1088.078	851.580
385.088	26.394	1088.049	851.550
386.102	26.261	1086.978	850.013
387.117	26.391	1085.598	849.466
388.132	26.214	1084.728	847.881
389.146	26.308	1083.528	847.311
390.161	26.312	1082.554	846.491
391.175	25.918	1083.679	845.446
392.190	26.154	1083.158	846.071
393.205	26.338	1082.777	846.563
394.219	26.398	1081.298	845.609
395.234	26.332	1079.858	844.100
396.248	26.319	1078.347	842.784
397.263	25.947	1077.570	840.373
398.278	26.069	1077.688	840.956
399.292	26.266	1076.611	840.959
400.307	26.141	1075.921	839.763
401.321	26.132	1074.948	838.888
402.336	25.527	1075.239	836.228
403.350	25.888	1073.205	836.246
404.365	25.974	1073.161	836.537
405.380	26.043	1072.942	836.614
406.394	26.137	1072.002	836.243
407.409	26.563	1071.172	837.490
408.423	26.570	1071.118	837.409
409.438	26.379	1070.088	835.646
410.453	26.539	1070.098	836.321
411.467	26.635	1069.406	836.147
412.482	26.516	1068.153	834.544
413.496	26.566	1067.739	834.377
414.511	26.613	1067.622	834.429
415.526	26.592	1066.984	833.760
416.540	26.933	1066.541	834.909
417.555	26.553	1066.368	832.953
418.569	26.635	1065.396	832.498
419.584	26.755	1064.242	832.073
420.599	26.320	1064.161	829.939
421.613	152.964	1404.111	1791.754
422.628	140.690	1453.605	1791.779
