DTS Sentinel unit serial number:	SN413079Multiplexer serial number:	ORYXHardware model number:	OX4-SRSoftware version number:	ORYX F/W v4.00 Oryx Data Collector v3.7.2.0data status	okinstallation	princeton_trtdifferential loss correction	single-endedforward channel	channel 2reverse channel	N/Adate	2019/09/13time	03:47:34forward acquisition time	60.00reverse acquisition time	0.00gamma	496.2192k internal	0.2335k external	0.2335temperature offset calibration	1.0193default loss term (dB/km)	0.3790temperature slope calibration	1.0000multiplexer offset coefficient	1.0000multiplexer slope coefficient	1.0000fibre end	0.00T internal ref (°C)	27.12T ext. ref 1 (°C)	4.07T ext. ref 2 (°C)	21.43length (m)	temperature (°C)	Stokes	anti-Stokes-747.200	-77.641	0.338	-0.118
-746.185	-145.852	0.111	-0.010
-745.171	-200.000	-0.054	-0.253
-744.156	100.587	-0.104	0.121
-743.142	-57.990	0.145	-0.063
-742.127	800.000	-0.029	0.101
-741.112	304.319	-0.183	0.342
-740.098	-58.237	0.160	0.070
-739.083	-169.775	-0.260	0.009
-738.069	-200.000	-0.026	-0.149
-737.054	-95.263	0.408	-0.110
-736.039	-84.373	-0.424	0.135
-735.025	3.737	0.408	0.299
-734.010	48.358	-0.078	-0.073
-732.996	-152.380	-0.308	0.022
-731.981	-75.893	-0.110	-0.039
-730.966	-200.000	0.026	-0.161
-729.952	373.784	-0.135	0.276
-728.937	12.106	-0.122	-0.095
-727.923	13.751	0.055	0.043
-726.908	-102.153	-0.026	-0.006
-725.894	-9.838	-0.052	0.035
-724.879	19.919	0.346	-0.280
-723.864	36.469	-0.169	0.150
-722.850	-45.983	0.076	0.038
-721.835	137.366	0.187	-0.246
-720.821	-144.074	0.437	0.041
-719.806	-137.004	0.206	-0.024
-718.791	-200.000	0.004	-0.367
-717.777	-136.396	-0.232	0.027
-716.762	-144.775	0.353	-0.033
-715.748	40.094	0.207	0.187
-714.733	350.177	0.085	0.168
-713.718	39.243	-0.075	-0.067
-712.704	-37.551	-0.331	-0.177
-711.689	-200.000	0.005	0.119
-710.675	-46.190	0.153	-0.076
-709.660	800.000	0.101	-0.292
-708.645	176.821	0.041	0.061
-707.631	-110.551	-0.278	-0.058
-706.616	-27.954	0.141	-0.082
-705.602	-127.918	0.111	0.016
-704.587	212.936	-0.247	-0.392
-703.572	-66.317	-0.330	-0.132
-702.558	-122.218	0.229	0.038
-701.543	-200.000	-0.033	-0.220
-700.529	-200.000	0.010	0.070
-699.514	-54.187	-0.478	0.218
-698.499	800.000	-0.030	0.083
-697.485	378.704	-0.097	-0.199
-696.470	-58.918	-0.145	-0.063
-695.456	-200.000	-0.016	-0.086
-694.441	-200.000	-0.003	-0.030
-693.426	-89.435	-0.327	-0.096
-692.412	-90.148	0.171	0.050
-691.397	131.153	-0.092	0.118
-690.383	800.000	0.051	-0.151
-689.368	-91.094	-0.101	0.029
-688.354	-200.000	0.070	0.428
-687.339	99.914	-0.229	-0.266
-686.324	-35.269	0.075	0.041
-685.310	-108.294	-0.156	0.034
-684.295	-54.384	-0.183	-0.083
-683.281	800.000	0.063	-0.203
-682.266	-153.230	0.191	0.013
-681.251	-200.000	-0.045	0.226
-680.237	-200.000	-0.043	-0.257
-679.222	550.013	-0.091	-0.218
-678.208	7.126	0.032	-0.024
-677.193	43.230	0.148	-0.136
-676.178	-200.000	-0.035	-0.216
-675.164	-93.844	-0.215	0.059
-674.149	-82.248	0.247	-0.081
-673.135	-13.091	0.145	-0.094
-672.120	-131.728	-0.224	-0.029
-671.105	194.017	-0.102	0.156
-670.091	-87.168	0.256	0.078
-669.076	-152.705	0.239	-0.017
-668.062	138.498	0.079	-0.104
-667.047	2.558	0.266	0.193
-666.032	583.079	0.126	-0.309
-665.018	-98.074	-0.087	-0.023
-664.003	-149.595	-0.140	-0.011
-662.989	800.000	0.029	0.101
-661.974	568.904	0.047	-0.115
-660.959	200.856	-0.140	-0.215
-659.945	-189.845	0.230	-0.003
-658.930	240.732	0.034	-0.056
-657.916	100.786	0.152	0.177
-656.901	238.820	-0.192	0.320
-655.886	800.000	-0.068	0.283
-654.872	-200.000	-0.014	0.095
-653.857	-52.625	0.338	-0.156
-652.843	701.765	0.066	-0.175
-651.828	-52.889	-0.442	-0.204
-650.814	-200.000	0.042	-0.225
-649.799	-200.000	-0.031	-0.326
-648.784	640.664	0.052	-0.132
-647.770	-68.184	-0.159	0.062
-646.755	-54.589	-0.055	0.025
-645.741	-64.003	0.141	-0.057
-644.726	-200.000	-0.082	-0.378
-643.711	115.535	-0.327	-0.401
-642.697	800.000	-0.054	-0.189
-641.682	115.743	0.163	-0.200
-640.668	-46.445	-0.379	-0.186
-639.653	203.345	-0.194	-0.300
-638.638	-200.000	0.031	0.215
-637.624	98.821	0.118	-0.137
-636.609	-81.962	0.462	-0.151
-635.595	-163.202	0.252	-0.012
-634.580	174.805	0.126	0.183
-633.565	-25.968	-0.286	-0.169
-632.551	271.825	-0.154	-0.272
-631.536	-39.190	0.115	0.061
-630.522	-33.000	0.281	-0.156
-629.507	800.000	0.048	0.174
-628.492	90.387	-0.209	0.233
-627.478	370.722	0.089	0.180
-626.463	190.337	0.177	0.266
-625.449	-26.771	0.087	-0.051
-624.434	212.395	0.048	-0.075
-623.419	124.475	0.122	0.153
-622.405	800.000	0.110	-0.359
-621.390	-69.922	0.102	0.039
-620.376	-63.558	0.146	-0.060
-619.361	75.599	0.023	-0.025
-618.346	800.000	0.091	-0.302
-617.332	800.000	-0.067	-0.284
-616.317	-34.381	-0.212	0.116
-615.303	-109.760	0.330	0.069
-614.288	-160.000	0.038	-0.002
-613.273	-200.000	-0.004	0.310
-612.259	-52.924	-0.123	0.057
-611.244	110.687	0.102	-0.123
-610.230	-200.000	0.002	0.069
-609.215	62.308	0.080	-0.080
-608.201	-167.341	-0.313	-0.013
-607.186	-70.673	-0.108	-0.041
-606.171	-44.773	-0.165	0.082
-605.157	244.443	-0.183	0.308
-604.142	187.974	0.233	-0.348
-603.128	-48.678	-0.288	0.138
-602.113	-41.466	0.391	-0.201
-601.098	180.013	-0.233	0.341
-600.084	624.107	-0.069	0.175
-599.069	-200.000	0.019	0.083
-598.055	-145.665	0.462	0.041
-597.040	-200.000	-0.016	0.384
-596.025	19.969	-0.253	-0.204
-595.011	516.528	-0.128	-0.299
-593.996	157.880	-0.268	-0.371
-592.982	-200.000	-0.011	0.236
-591.967	-34.896	-0.391	-0.213
-590.952	-200.000	-0.016	0.177
-589.938	624.941	0.039	-0.099
-588.923	800.000	-0.164	0.590
-587.909	-14.388	0.320	-0.206
-586.894	-28.111	0.171	0.099
-585.879	800.000	-0.055	-0.211
-584.865	-118.940	-0.241	0.042
-583.850	-200.000	0.023	-0.247
-582.836	-182.627	-0.231	0.004
-581.821	473.404	0.046	0.103
-580.806	-200.000	-0.065	-0.353
-579.792	-87.648	-0.132	0.040
-578.777	-30.789	0.236	-0.133
-577.763	395.662	-0.160	0.334
-576.748	-200.000	-0.093	-0.425
-575.733	-200.000	0.051	-0.234
-574.719	-200.000	0.006	-0.071
-573.704	-80.537	0.341	0.113
-572.690	800.000	-0.010	-0.031
-571.675	-91.116	-0.222	0.064
-570.661	339.245	0.132	0.257
-569.646	79.607	0.186	0.199
-568.631	800.000	0.024	0.098
-567.617	-22.141	-0.332	0.201
-566.602	-32.683	-0.095	-0.053
-565.588	293.834	-0.108	-0.197
-564.573	376.112	0.082	0.166
-563.558	-200.000	-0.015	-0.156
-562.544	-77.971	-0.096	-0.033
-561.529	-60.744	0.502	-0.212
-560.515	-28.164	0.225	-0.130
-559.500	800.000	0.067	-0.196
-558.485	172.635	-0.084	-0.120
-557.471	-148.915	-0.337	-0.027
-556.456	24.188	0.301	-0.248
-555.442	51.009	0.062	0.059
-554.427	-26.406	-0.214	-0.125
-553.412	127.746	0.048	-0.061
-552.398	-19.135	0.187	0.116
-551.383	568.312	-0.074	-0.180
-550.369	-90.959	-0.240	0.069
-549.354	-98.022	0.229	-0.059
-548.339	4.129	-0.290	-0.212
-547.325	545.671	0.026	0.062
-546.310	124.978	0.114	-0.144
-545.296	501.646	-0.069	0.160
-544.281	695.984	-0.082	0.214
-543.266	-200.000	0.023	0.214
-542.252	-200.000	-0.016	0.248
-541.237	60.672	0.132	0.131
-540.223	800.000	0.129	-0.554
-539.208	197.387	-0.146	-0.223
-538.193	800.000	-0.079	-0.227
-537.179	163.002	-0.082	0.115
-536.164	361.995	0.061	0.123
-535.150	-200.000	0.023	0.147
-534.135	-120.656	0.173	-0.029
-533.121	-200.000	0.008	0.152
-532.106	-65.042	-0.135	0.054
-531.091	-148.044	-0.328	-0.027
-530.077	165.247	-0.171	0.241
-529.062	-200.000	-0.045	0.202
-528.048	133.253	-0.134	0.172
-527.033	9.423	-0.177	-0.133
-526.018	-30.573	0.302	0.171
-525.004	-200.000	0.047	-0.223
-523.989	57.934	0.240	-0.234
-522.975	797.063	0.058	-0.159
-521.960	-148.091	0.199	-0.016
-520.945	-200.000	-0.041	-0.238
-519.931	506.430	0.079	0.183
-518.916	14.446	0.244	0.190
-517.902	226.453	0.207	0.335
-516.887	620.961	0.111	-0.278
-515.872	-25.713	0.210	-0.123
-514.858	270.506	0.140	-0.244
-513.843	-64.062	0.160	0.065
-512.829	-20.101	-0.083	-0.051
-511.814	800.000	0.034	0.144
-510.799	14.636	0.304	0.236
-509.785	242.244	0.128	-0.213
-508.770	605.244	-0.091	0.225
-507.756	800.000	-0.059	0.178
-506.741	-156.508	-0.440	0.027
-505.726	747.909	-0.066	0.176
-504.712	-17.223	0.175	-0.110
-503.697	124.813	0.152	0.191
-502.683	-103.995	-0.306	0.071
-501.668	800.000	-0.051	-0.163
-500.653	-200.000	-0.006	-0.203
-499.639	86.923	-0.074	-0.081
-498.624	-200.000	-0.029	-0.234
-497.610	115.240	-0.130	-0.158
-496.595	-41.929	-0.207	-0.106
-495.581	-148.061	0.378	0.031
-494.566	800.000	-0.059	-0.239
-493.551	206.847	-0.275	-0.426
-492.537	-10.279	-0.222	0.147
-491.522	506.681	-0.010	0.022
-490.508	-95.757	0.472	0.125
-489.493	361.582	0.057	-0.114
-488.478	-68.936	-0.145	0.056
-487.464	461.069	-0.109	-0.241
-486.449	15.877	0.083	-0.065
-485.435	525.069	-0.013	0.030
-484.420	633.055	-0.029	-0.072
-483.405	333.210	-0.019	-0.036
-482.391	-31.713	0.276	0.154
-481.376	-200.000	0.005	0.272
-480.362	139.572	0.125	-0.164
-479.347	-173.189	-0.202	0.006
-478.332	47.387	0.151	0.140
-477.318	231.513	-0.126	0.206
-476.303	26.362	0.121	0.101
-475.289	-200.000	0.019	0.159
-474.274	-17.108	-0.245	0.154
-473.259	-79.907	0.183	-0.061
-472.245	-111.386	0.560	0.114
-471.230	-9.922	-0.235	-0.156
-470.216	-200.000	-0.002	0.053
-469.201	-183.548	-0.222	-0.004
-468.186	800.000	0.171	0.567
-467.172	-90.009	0.133	-0.039
-466.157	46.302	-0.153	0.141
-465.143	413.236	-0.072	-0.152
-464.128	-69.441	0.267	-0.102
-463.113	-87.780	-0.343	0.103
-462.099	800.000	-0.067	0.185
-461.084	115.202	0.029	-0.035
-460.070	233.794	0.099	-0.162
-459.055	-200.000	0.005	-0.258
-458.040	-62.094	0.224	0.093
-457.026	112.055	-0.090	0.108
-456.011	93.013	0.189	-0.212
-454.997	800.000	0.085	-0.287
-453.982	-93.231	0.266	0.074
-452.968	452.496	-0.143	-0.313
-451.953	-200.000	0.033	0.376
-450.938	78.384	0.305	0.324
-449.924	800.000	0.056	0.180
-448.909	-100.821	0.255	0.062
-447.895	-111.627	-0.371	0.075
-446.880	-52.515	0.346	-0.159
-445.865	-63.706	-0.276	-0.113
-444.851	331.365	-0.094	-0.180
-443.836	22.622	-0.307	-0.249
-442.822	278.011	-0.135	0.238
-441.807	-56.471	-0.030	-0.013
-440.792	-84.298	-0.313	0.098
-439.778	179.251	-0.065	-0.095
-438.763	-200.000	0.008	-0.115
-437.749	-135.681	-0.440	-0.052
-436.734	-86.119	-0.294	0.090
-435.719	-111.820	0.208	0.042
-434.705	-45.666	0.116	0.057
-433.690	88.266	-0.084	0.093
-432.676	260.039	0.072	-0.124
-431.661	217.893	0.197	0.312
-430.646	-59.658	0.341	-0.145
-429.632	-74.203	-0.130	-0.047
-428.617	48.128	0.281	0.261
-427.603	-3.287	0.208	-0.144
-426.588	-33.595	-0.241	-0.132
-425.573	79.078	0.059	-0.063
-424.559	390.385	0.076	0.156
-423.544	-200.000	-0.025	0.136
-422.530	-37.643	0.208	-0.110
-421.515	-80.216	-0.163	0.054
-420.500	-200.000	-0.011	0.048
-419.486	27.812	0.169	-0.141
-418.471	800.000	-0.047	-0.145
-417.457	27.671	-0.037	-0.031
-416.442	10.532	-0.143	0.108
-415.428	-200.000	-0.036	0.412
-414.413	-123.221	-0.296	-0.047
-413.398	-200.000	0.009	-0.168
-412.384	-54.771	0.160	0.072
-411.369	-60.382	-0.025	-0.011
-410.355	-200.000	-0.072	-0.381
-409.340	800.000	0.062	0.227
-408.325	-139.605	-0.193	0.020
-407.311	-37.331	-0.151	-0.080
-406.296	52.622	-0.233	0.221
-405.282	580.346	0.042	0.102
-404.267	800.000	0.058	-0.204
-403.252	41.435	-0.194	0.174
-402.238	752.398	0.087	0.232
-401.223	-164.244	0.055	-0.003
-400.209	538.691	0.054	-0.126
-399.194	-143.995	-0.080	-0.007
-398.179	222.598	-0.154	-0.245
-397.165	-59.569	-0.225	0.096
-396.150	-104.267	0.145	-0.033
-395.136	800.000	0.025	-0.070
-394.121	272.227	-0.089	-0.156
-393.106	-74.433	0.354	-0.126
-392.092	161.603	0.188	0.261
-391.077	336.225	-0.107	0.206
-390.063	-200.000	-0.039	0.329
-389.048	-93.075	-0.330	0.091
-388.033	-155.991	0.121	0.008
-387.019	27.279	-0.141	-0.117
-386.004	-200.000	-0.023	-0.199
-384.990	-115.168	-0.115	-0.021
-383.975	800.000	0.040	0.128
-382.960	-88.030	-0.337	0.100
-381.946	-91.893	0.171	-0.048
-380.931	37.130	-0.064	0.056
-379.917	17.784	0.047	-0.037
-378.902	58.137	0.069	0.067
-377.888	800.000	0.038	-0.114
-376.873	-132.216	-0.267	0.034
-375.858	800.000	-0.072	-0.262
-374.844	419.806	-0.157	0.333
-373.829	-136.239	-0.427	0.049
-372.815	3.915	0.132	0.096
-371.800	-114.997	0.136	-0.026
-370.785	-111.464	-0.066	-0.013
-369.771	227.061	-0.101	0.162
-368.756	-200.000	-0.047	-0.000
-367.742	315.392	-0.081	0.152
-366.727	-107.620	0.198	-0.043
-365.712	-165.431	0.279	-0.012
-364.698	327.326	0.058	0.110
-363.683	-114.489	-0.192	-0.037
-362.669	156.537	0.174	0.238
-361.654	800.000	0.043	-0.118
-360.639	-147.412	-0.138	-0.012
-359.625	575.810	-0.054	0.131
-358.610	56.195	0.110	-0.106
-357.596	-110.621	0.201	0.041
-356.581	-175.195	0.466	0.013
-355.566	-200.000	0.021	0.258
-354.552	19.325	-0.216	0.172
-353.537	-200.000	0.046	0.355
-352.523	800.000	-0.104	-0.405
-351.508	92.691	0.256	-0.286
-350.493	73.158	-0.149	-0.154
-349.479	-26.657	-0.137	-0.079
-348.464	135.811	-0.039	-0.051
-347.450	305.016	0.094	0.173
-346.435	-200.000	0.008	0.081
-345.420	187.230	0.220	0.325
-344.406	-200.000	-0.081	-0.368
-343.391	-200.000	0.031	-0.171
-342.377	-80.764	-0.436	-0.143
-341.362	217.948	-0.065	0.103
-340.348	329.353	-0.016	-0.030
-339.333	800.000	-0.077	-0.284
-338.318	40.865	-0.076	-0.068
-337.304	-135.048	0.134	0.016
-336.289	180.394	0.084	-0.122
-335.275	-77.189	-0.206	0.071
-334.260	107.786	-0.304	0.358
-333.245	-127.832	0.117	0.017
-332.231	-200.000	0.061	0.356
-331.216	-200.000	0.022	-0.229
-330.202	3.623	0.172	0.124
-329.187	-113.611	0.198	0.038
-328.172	371.544	0.057	0.114
-327.158	-81.384	0.267	-0.087
-326.143	800.000	-0.057	-0.186
-325.129	-52.194	0.258	-0.118
-324.114	-200.000	0.035	0.188
-323.099	-98.599	0.026	-0.006
-322.085	113.461	-0.269	0.323
-321.070	477.597	-0.078	-0.174
-320.056	-45.872	0.133	0.065
-319.041	176.943	-0.120	-0.172
-318.026	108.439	-0.054	-0.064
-317.012	346.093	-0.091	0.177
-315.997	-200.000	0.019	0.383
-314.983	-84.900	0.117	0.036
-313.968	-200.000	0.050	-0.225
-312.953	-200.000	0.063	0.291
-311.939	43.098	-0.139	0.125
-310.924	5.984	0.265	0.194
-309.910	-27.113	-0.444	0.256
-308.895	662.010	-0.045	-0.116
-307.880	31.482	0.051	0.043
-306.866	-200.000	-0.010	0.085
-305.851	44.174	-0.090	-0.082
-304.837	800.000	0.064	-0.266
-303.822	479.617	-0.064	-0.144
-302.807	50.775	-0.230	-0.216
-301.793	-200.000	0.076	0.407
-300.778	57.864	-0.065	0.063
-299.764	-54.203	-0.065	0.029
-298.749	142.261	0.119	-0.156
-297.735	-17.876	-0.362	-0.224
-296.720	-200.000	-0.054	0.264
-295.705	-143.096	0.316	-0.030
-294.691	-86.899	-0.207	-0.063
-293.676	-200.000	-0.019	0.248
-292.662	-109.870	-0.220	-0.046
-291.647	383.101	-0.167	-0.339
-290.632	-154.296	-0.315	0.021
-289.618	800.000	-0.103	0.374
-288.603	-43.801	-0.148	-0.073
-287.589	800.000	-0.064	0.212
-286.574	263.681	-0.154	0.263
-285.559	35.144	0.182	-0.157
-284.545	-14.851	-0.033	-0.021
-283.530	57.465	-0.079	-0.076
-282.516	-73.276	-0.187	0.067
-281.501	14.246	0.108	0.083
-280.486	28.690	0.067	-0.056
-279.472	-149.577	0.095	-0.007
-278.457	-12.271	-0.357	-0.231
-277.443	-151.971	-0.023	-0.002
-276.428	-101.814	0.193	-0.046
-275.413	-200.000	0.050	-0.361
-274.399	48.219	-0.165	0.152
-273.384	396.028	-0.019	-0.039
-272.370	-70.208	-0.039	0.015
-271.355	-48.170	-0.232	-0.110
-270.340	-56.977	0.331	-0.144
-269.326	-14.021	-0.241	0.153
-268.311	-200.000	-0.045	0.478
-267.297	576.071	0.076	0.183
-266.282	-158.763	-0.201	-0.011
-265.267	800.000	-0.080	0.256
-264.253	-122.073	-0.343	0.056
-263.238	-148.642	0.066	-0.005
-262.224	-75.551	-0.145	0.051
-261.209	97.396	0.305	-0.346
-260.195	-160.577	0.215	0.011
-259.180	12.990	0.144	-0.110
-258.165	-67.987	-0.066	0.026
-257.151	-200.000	-0.062	0.315
-256.136	26.197	0.278	-0.229
-255.122	174.485	-0.068	0.097
-254.107	-2.954	0.035	0.024
-253.092	53.256	0.304	-0.287
-252.078	-43.637	-0.226	-0.112
-251.063	-200.000	0.009	0.081
-250.049	-104.201	0.205	0.047
-249.034	30.625	0.066	0.056
-248.019	-10.661	-0.398	-0.260
-247.005	-200.000	0.077	0.484
-245.990	708.744	0.032	0.084
-244.976	-200.000	0.018	0.449
-243.961	202.076	-0.121	0.184
-242.946	112.650	-0.054	0.065
-241.932	331.811	0.099	0.189
-240.917	105.469	-0.161	-0.187
-239.903	289.284	-0.133	-0.238
-238.888	498.356	0.095	-0.216
-237.873	800.000	-0.025	0.095
-236.859	-147.841	0.440	-0.036
-235.844	-200.000	0.028	-0.139
-234.830	367.994	0.104	-0.207
-233.815	-20.386	-0.329	0.199
-232.800	-81.736	0.148	-0.048
-231.786	800.000	0.081	-0.252
-230.771	91.390	0.204	-0.226
-229.757	48.728	0.214	0.198
-228.742	43.456	0.261	-0.235
-227.727	3.399	0.223	0.160
-226.713	138.430	-0.068	-0.088
-225.698	-96.547	-0.061	-0.016
-224.684	641.911	-0.160	0.401
-223.669	-92.274	0.210	-0.058
-222.655	-88.482	0.291	0.086
-221.640	-200.000	0.020	0.108
-220.625	-114.927	-0.101	0.019
-219.611	110.944	0.139	0.165
-218.596	13.627	0.160	-0.123
-217.582	-21.505	0.218	-0.131
-216.567	-76.675	-0.130	0.045
-215.552	-57.872	0.132	0.057
-214.538	-5.498	0.148	-0.100
-213.523	-200.000	0.013	0.090
-212.509	71.635	0.265	-0.271
-211.494	-64.921	0.107	0.042
-210.479	70.334	-0.174	-0.177
-209.465	800.000	0.084	-0.350
-208.450	-9.087	0.065	-0.043
-207.436	-68.859	0.189	-0.072
-206.421	-164.753	0.181	-0.008
-205.406	340.624	0.094	0.181
-204.392	775.136	-0.151	0.404
-203.377	-200.000	0.011	0.144
-202.363	78.338	0.095	0.099
-201.348	240.878	0.027	0.045
-200.333	-118.551	0.379	0.066
-199.319	57.621	0.036	0.035
-198.304	-41.555	-0.177	-0.090
-197.290	800.000	-0.055	0.223
-196.275	-76.642	0.200	-0.069
-195.260	386.434	-0.078	-0.158
-194.246	-200.000	-0.014	0.065
-193.231	103.217	0.201	0.232
-192.217	-89.204	-0.261	0.076
-191.202	38.230	0.252	0.220
-190.187	-102.874	-0.189	0.044
-189.173	800.000	0.060	-0.170
-188.158	-200.000	-0.008	0.068
-187.144	59.840	0.053	0.051
-186.129	-31.702	-0.156	0.086
-185.114	12.920	-0.353	-0.269
-184.100	-200.000	0.036	-0.221
-183.085	-176.815	0.218	-0.005
-182.071	47.734	-0.038	0.035
-181.056	-60.804	0.347	0.144
-180.042	-97.115	0.203	0.052
-179.027	-108.921	-0.198	-0.042
-178.012	-200.000	0.020	-0.197
-176.998	-64.070	-0.310	0.124
-175.983	-20.039	0.125	-0.076
-174.969	-53.683	-0.062	-0.028
-173.954	187.311	0.139	-0.204
-172.939	42.997	-0.086	-0.078
-171.925	368.900	0.153	-0.305
-170.910	162.129	-0.067	-0.092
-169.896	98.090	-0.054	0.061
-168.881	57.047	0.043	-0.041
-167.866	-200.000	0.034	-0.239
-166.852	97.555	-0.150	-0.170
-165.837	35.183	0.136	0.117
-164.823	-200.000	-0.038	-0.190
-163.808	434.339	-0.111	0.237
-162.793	31.314	-0.224	0.189
-161.779	371.297	0.074	-0.148
-160.764	-186.097	-0.200	0.003
-159.750	8.889	-0.183	0.136
-158.735	95.791	-0.081	-0.091
-157.720	107.805	-0.240	-0.281
-156.706	-54.178	0.021	0.009
-155.691	-44.883	-0.119	0.058
-154.677	-163.317	0.121	0.006
-153.662	-74.936	0.314	0.111
-152.647	393.886	0.102	0.209
-151.633	-142.791	-0.161	0.015
-150.618	-47.195	0.075	-0.036
-149.604	-200.000	-0.017	0.291
-148.589	800.000	0.051	0.197
-147.574	154.384	0.044	-0.059
-146.560	-200.000	0.050	-0.242
-145.545	45.215	-0.160	-0.144
-144.531	277.198	-0.179	-0.313
-143.516	266.735	-0.144	-0.247
-142.502	-183.225	0.478	-0.008
-141.487	-200.000	0.018	-0.304
-140.472	800.000	-0.028	-0.092
-139.458	93.258	0.096	0.107
-138.443	133.083	-0.124	0.158
-137.429	-200.000	-0.033	0.181
-136.414	-200.000	-0.013	-0.229
-135.399	298.450	-0.036	0.065
-134.385	-200.000	0.076	-0.370
-133.370	-200.000	0.003	-0.121
-132.356	-87.711	-0.353	0.104
-131.341	-30.211	-0.175	-0.098
-130.326	800.000	0.031	-0.115
-129.312	37.211	-0.284	0.247
-128.297	-200.000	0.008	-0.059
-127.283	-0.830	0.168	0.116
-126.268	186.229	0.085	0.124
-125.253	-25.602	-0.048	-0.028
-124.239	38.619	0.131	0.115
-123.224	110.541	-0.082	0.097
-122.210	-55.163	-0.461	0.204
-121.195	202.669	0.064	-0.097
-120.180	-200.000	0.005	-0.135
-119.166	800.000	-0.088	-0.242
-118.151	-200.000	0.031	0.398
-117.137	-47.823	0.408	0.194
-116.122	800.000	0.134	-0.371
-115.107	379.166	-0.128	-0.258
-114.093	-16.078	0.315	-0.196
-113.078	-104.329	-0.204	0.046
-112.064	800.000	0.032	-0.110
-111.049	176.884	0.130	0.185
-110.034	-89.504	-0.171	-0.049
-109.020	108.178	0.173	-0.202
-108.005	-86.000	0.276	0.084
-106.991	-72.587	0.148	-0.054
-105.976	172.992	0.094	0.133
-104.962	27.499	-0.194	-0.160
-103.947	-131.164	0.233	-0.030
-102.932	-85.147	-0.106	-0.032
-101.918	-200.000	-0.005	0.119
-100.903	-59.351	-0.309	-0.130
-99.889	53.325	-0.155	-0.145
-98.874	-93.028	-0.320	-0.087
-97.859	120.439	0.244	0.297
-96.845	-200.000	-0.017	-0.120
-95.830	352.077	0.113	-0.220
-94.816	-200.000	-0.035	-0.149
-93.801	7.188	-0.235	0.172
-92.786	628.742	0.104	0.258
-91.772	-16.290	0.173	0.108
-90.757	-200.000	0.004	0.033
-89.743	-30.217	0.153	-0.085
-88.728	-49.726	-0.104	-0.048
-87.713	-43.841	-0.203	0.100
-86.699	-9.749	0.105	-0.069
-85.684	800.000	0.026	-0.102
-84.670	33.399	-0.274	0.233
-83.655	459.403	0.149	0.326
-82.640	90.024	-0.230	0.251
-81.626	422.375	-0.038	0.080
-80.611	182.502	-0.249	0.359
-79.597	-200.000	0.059	0.321
-78.582	20.844	-0.116	0.092
-77.567	-200.000	-0.022	-0.304
-76.553	-200.000	-0.077	-0.338
-75.538	56.097	-0.074	0.070
-74.524	-17.415	-0.093	0.057
-73.509	101.803	0.284	-0.325
-72.494	-136.081	0.318	-0.036
-71.480	-111.512	-0.202	0.040
-70.465	88.503	0.036	0.039
-69.451	-24.781	0.076	0.044
-68.436	-51.066	0.085	0.039
-67.422	800.000	0.048	0.189
-66.407	-21.264	-0.241	-0.144
-65.392	800.000	-0.059	-0.179
-64.378	44.480	0.186	0.167
-63.363	32.642	-0.198	0.168
-62.349	800.000	0.013	-0.049
-61.334	38.904	-1.051	-0.918
-60.319	-6.310	0.576	0.385
-59.305	800.000	-0.404	-1.308
-58.290	360.965	0.579	1.134
-57.276	800.000	0.314	1.182
-56.261	-200.000	116.150	661.709
-55.246	533.245	1531.500	3547.326
-54.232	175.969	2707.975	3844.296
-53.217	102.368	2289.929	2617.751
-52.203	36.423	1895.606	1635.271
-51.188	30.258	1685.865	1407.675
-50.173	27.828	1644.210	1354.829
-49.159	50.120	1700.462	1569.822
-48.144	48.504	1714.064	1570.161
-47.130	29.909	1671.877	1393.142
-46.115	27.156	1657.675	1360.677
-45.100	26.961	1652.514	1354.927
-44.086	27.030	1650.035	1353.357
-43.071	27.001	1647.234	1350.791
-42.057	26.937	1644.839	1348.297
-41.042	27.022	1642.774	1347.184
-40.027	27.032	1640.922	1345.687
-39.013	27.006	1638.925	1343.799
-37.998	26.976	1637.478	1342.340
-36.984	27.009	1636.253	1341.528
-35.969	27.151	1634.499	1341.080
-34.954	27.080	1632.899	1339.191
-33.940	27.064	1631.204	1337.633
-32.925	27.113	1629.404	1336.463
-31.911	27.088	1627.675	1334.806
-30.896	27.135	1625.905	1333.645
-29.881	27.120	1623.950	1331.885
-28.867	27.112	1622.437	1330.528
-27.852	27.105	1621.106	1329.332
-26.838	27.167	1618.962	1327.976
-25.823	27.067	1618.336	1326.681
-24.809	27.177	1616.688	1326.081
-23.794	27.078	1615.870	1324.635
-22.779	27.131	1614.147	1323.552
-21.765	27.146	1612.168	1321.989
-20.750	27.092	1611.289	1320.821
-19.736	27.165	1609.849	1320.119
-18.721	27.122	1608.606	1318.733
-17.706	27.162	1606.724	1317.431
-16.692	27.132	1605.434	1316.101
-15.677	27.180	1603.684	1314.963
-14.663	27.184	1602.847	1314.254
-13.648	27.144	1601.364	1312.694
-12.633	27.157	1599.789	1311.446
-11.619	27.110	1598.276	1309.815
-10.604	27.174	1596.394	1308.685
-9.590	27.228	1595.440	1308.238
-8.575	27.289	1593.735	1307.229
-7.560	27.304	1592.403	1306.193
-6.546	27.233	1591.466	1304.862
-5.531	27.103	1590.907	1303.416
-4.517	27.132	1589.354	1302.298
-3.502	27.111	1588.652	1301.523
-2.487	27.259	1586.746	1300.967
-1.473	26.776	1574.841	1287.729
-0.458	23.895	1555.248	1251.417
0.556	22.133	1556.122	1218.092
1.571	19.660	1579.052	1218.512
2.586	19.072	1591.250	1223.643
3.600	17.292	1537.757	1170.159
4.615	10.947	1431.822	1048.666
5.629	5.120	1372.964	969.358
6.644	4.060	1365.180	957.229
7.659	3.967	1364.748	956.261
8.673	4.080	1363.474	955.986
9.688	4.153	1361.751	955.139
10.702	4.092	1358.389	952.321
11.717	6.832	1363.710	972.865
12.731	14.446	1377.583	1029.877
13.746	21.198	1388.372	1079.757
14.761	22.980	1390.702	1092.500
15.775	22.416	1389.075	1087.637
16.790	21.525	1386.425	1079.969
17.804	20.862	1384.317	1074.148
18.819	20.525	1383.486	1071.330
19.834	20.402	1382.688	1069.859
20.848	20.467	1381.813	1069.487
21.863	20.304	1380.447	1067.338
22.877	20.193	1379.287	1065.664
23.892	20.282	1378.323	1065.369
24.907	20.041	1377.696	1063.311
25.921	20.109	1376.390	1062.628
26.936	20.061	1375.292	1061.390
27.950	20.160	1374.528	1061.315
28.965	20.239	1373.705	1061.068
29.980	20.385	1372.830	1061.189
30.994	20.448	1371.870	1060.739
32.009	20.521	1370.962	1060.388
33.023	20.531	1369.583	1059.289
34.038	20.472	1368.144	1057.725
35.053	20.332	1367.098	1055.969
36.067	20.310	1365.744	1054.693
37.082	20.259	1365.570	1054.157
38.096	20.454	1364.191	1054.184
39.111	20.432	1363.880	1053.714
40.126	20.204	1362.602	1051.255
41.140	19.970	1361.032	1048.533
42.155	19.751	1360.775	1046.916
43.169	19.627	1360.809	1046.100
44.184	19.795	1360.059	1046.448
45.199	19.887	1359.828	1046.732
46.213	20.037	1360.045	1047.711
47.228	20.336	1358.752	1048.430
48.242	20.285	1357.421	1047.005
49.257	20.143	1356.674	1045.478
50.271	20.203	1355.104	1044.538
51.286	20.247	1353.672	1043.605
52.301	20.167	1352.432	1042.076
53.315	20.139	1351.214	1040.876
54.330	19.896	1350.192	1038.542
55.344	19.909	1348.692	1037.375
56.359	19.953	1347.621	1036.720
57.374	19.824	1347.431	1035.709
58.388	19.686	1346.411	1034.012
59.403	19.637	1345.981	1033.296
60.417	19.653	1344.824	1032.409
61.432	19.578	1343.684	1030.997
62.447	19.460	1343.189	1029.821
63.461	19.413	1342.045	1028.572
64.476	19.440	1341.032	1027.864
65.490	19.429	1339.453	1026.500
66.505	19.418	1338.058	1025.274
67.520	19.482	1336.520	1024.386
68.534	19.559	1335.295	1023.812
69.549	19.418	1334.593	1022.347
70.563	19.308	1333.718	1020.938
71.578	19.278	1332.117	1019.439
72.593	19.127	1331.586	1018.052
73.607	19.128	1330.611	1017.224
74.622	19.224	1330.141	1017.340
75.636	19.318	1329.194	1017.083
76.651	19.324	1328.848	1016.759
77.666	19.442	1327.997	1016.717
78.680	19.439	1328.353	1016.882
79.695	19.564	1326.657	1016.226
80.709	19.670	1326.167	1016.389
81.724	19.829	1326.008	1017.109
82.739	19.912	1325.170	1016.865
83.753	20.056	1324.894	1017.410
84.768	20.265	1323.904	1017.784
85.782	20.447	1322.830	1017.936
86.797	20.429	1321.672	1016.851
87.812	20.290	1320.456	1015.012
88.826	20.274	1319.331	1013.962
89.841	20.297	1318.232	1013.164
90.855	20.355	1317.520	1012.864
91.870	20.482	1316.946	1013.076
92.884	20.482	1316.124	1012.348
93.899	20.489	1315.414	1011.756
94.914	20.563	1314.439	1011.345
95.928	20.530	1313.672	1010.474
96.943	20.426	1313.298	1009.497
97.957	20.424	1311.690	1008.156
98.972	20.407	1310.734	1007.234
99.987	20.434	1309.636	1006.456
101.001	20.412	1308.819	1005.615
102.016	20.368	1308.107	1004.722
103.030	20.320	1306.922	1003.445
104.045	20.383	1305.812	1002.872
105.060	20.138	1304.637	1000.467
106.074	19.877	1302.658	997.357
107.089	19.538	1300.966	994.021
108.103	19.492	1299.740	992.730
109.118	19.471	1298.563	991.620
110.133	19.460	1297.585	990.724
111.147	19.571	1296.020	990.076
112.162	19.562	1294.860	989.052
113.176	19.681	1294.303	989.220
114.191	19.636	1293.602	988.341
115.206	19.770	1291.408	987.342
116.220	19.716	1291.042	986.669
117.235	19.663	1289.657	985.220
118.249	19.543	1288.697	983.716
119.264	19.436	1287.347	981.990
120.279	19.325	1286.719	980.793
121.293	19.418	1285.182	980.058
122.308	19.193	1284.146	977.908
123.322	19.179	1282.783	976.701
124.337	19.231	1281.749	976.125
125.352	19.221	1280.485	975.020
126.366	19.177	1279.679	974.067
127.381	19.177	1278.598	973.160
128.395	19.203	1277.244	972.192
129.410	19.267	1276.481	971.886
130.424	19.324	1276.141	971.861
131.439	19.525	1275.316	972.277
132.454	19.534	1274.841	971.882
133.468	19.631	1274.122	971.791
134.483	19.582	1273.212	970.738
135.497	19.579	1272.543	970.128
136.512	19.714	1270.904	969.546
137.527	19.648	1270.313	968.639
138.541	19.749	1268.733	967.914
139.556	19.754	1267.841	967.175
140.570	19.886	1267.297	967.417
141.585	20.080	1265.445	967.000
142.600	20.187	1264.655	966.907
143.614	20.339	1263.798	967.012
144.629	20.353	1262.831	966.262
145.643	20.233	1262.253	965.071
146.658	20.091	1260.606	962.935
147.673	19.883	1259.155	960.589
148.687	19.832	1257.506	958.960
149.702	19.734	1256.381	957.477
150.716	19.673	1254.464	955.591
151.731	19.567	1253.722	954.359
152.746	19.676	1252.607	954.026
153.760	19.765	1251.752	953.783
154.775	19.837	1250.892	953.438
155.789	19.900	1250.079	953.080
156.804	20.052	1248.690	952.777
157.819	20.100	1247.842	952.305
158.833	20.340	1247.002	952.901
159.848	20.485	1246.179	952.982
160.862	20.237	1245.900	951.323
161.877	19.924	1244.201	948.227
162.892	19.739	1242.391	945.753
163.906	19.667	1241.582	944.658
164.921	19.670	1241.237	944.330
165.935	19.646	1240.329	943.424
166.950	19.862	1239.806	944.124
167.964	19.873	1238.858	943.378
168.979	19.791	1238.217	942.356
169.994	19.751	1237.823	941.758
171.008	19.852	1236.565	941.266
172.023	19.892	1236.298	941.199
173.037	20.208	1235.555	942.268
174.052	20.088	1234.702	940.879
175.067	19.886	1233.013	938.415
176.081	19.673	1231.900	936.328
177.096	19.587	1231.228	935.270
178.110	19.698	1230.385	935.150
179.125	19.689	1229.113	934.050
180.140	19.909	1228.038	934.339
181.154	20.007	1227.253	934.188
182.169	20.079	1226.270	933.743
183.183	20.159	1225.407	933.433
184.198	20.280	1223.814	932.789
185.213	20.277	1222.935	932.022
186.227	20.352	1222.544	932.044
187.242	20.338	1221.213	930.871
188.256	20.325	1220.921	930.495
189.271	20.481	1219.706	930.322
190.286	20.243	1218.822	928.293
191.300	19.732	1217.080	924.155
192.315	19.651	1216.330	923.068
193.329	19.758	1215.884	923.219
194.344	19.814	1215.392	923.067
195.359	19.925	1214.463	922.871
196.373	19.911	1214.468	922.717
197.388	20.156	1214.389	923.882
198.402	20.394	1213.796	924.618
199.417	20.456	1213.857	924.909
200.432	20.682	1213.212	925.541
201.446	20.789	1212.694	925.629
202.461	20.813	1211.796	924.988
203.475	20.798	1210.592	923.912
204.490	20.626	1208.858	921.593
205.504	20.278	1207.859	918.910
206.519	20.338	1206.014	917.740
207.534	20.243	1204.962	916.354
208.548	20.103	1204.573	915.239
209.563	20.260	1203.616	915.259
210.577	20.263	1202.337	914.224
211.592	20.236	1202.432	914.073
212.607	20.534	1201.278	914.680
213.621	20.708	1200.079	914.602
214.636	20.500	1199.506	912.996
215.650	20.366	1198.540	911.473
216.665	20.526	1198.148	911.937
217.680	20.758	1197.356	912.467
218.694	20.982	1196.699	913.058
219.709	20.756	1195.807	911.116
220.723	20.752	1195.209	910.557
221.738	20.628	1194.322	909.154
222.753	20.757	1193.170	908.868
223.767	20.528	1192.982	907.452
224.782	20.811	1192.406	908.409
225.796	20.945	1191.746	908.525
226.811	20.973	1190.612	907.724
227.826	20.684	1189.823	905.538
228.840	20.593	1189.215	904.523
229.855	20.598	1188.445	903.880
230.869	20.538	1187.601	902.848
231.884	20.430	1186.669	901.499
232.899	20.434	1185.743	900.737
233.913	20.293	1185.274	899.572
234.928	20.246	1184.243	898.466
235.942	20.251	1183.300	897.699
236.957	20.155	1182.673	896.646
237.972	20.248	1181.955	896.503
238.986	20.284	1181.230	896.059
240.001	20.279	1180.489	895.391
241.015	20.401	1179.407	895.119
242.030	20.408	1179.203	894.922
243.045	20.522	1178.230	894.693
244.059	20.579	1177.783	894.566
245.074	20.566	1176.905	893.752
246.088	20.682	1176.320	893.826
247.103	20.834	1175.761	894.102
248.117	20.975	1174.881	894.076
249.132	21.210	1174.532	894.938
250.147	21.523	1174.097	896.130
251.161	21.577	1173.752	896.065
252.176	21.638	1173.031	895.745
253.190	21.598	1172.387	894.969
254.205	21.741	1172.011	895.335
255.220	21.949	1171.226	895.719
256.234	21.717	1170.579	893.957
257.249	21.707	1170.170	893.517
258.263	21.616	1169.246	892.268
259.278	21.760	1168.413	892.287
260.293	21.618	1168.430	891.496
261.307	21.886	1167.721	892.241
262.322	21.715	1167.016	890.757
263.336	21.887	1166.073	890.829
264.351	21.911	1165.520	890.449
265.366	21.827	1165.239	889.730
266.380	21.823	1164.011	888.697
267.395	21.821	1163.514	888.228
268.409	21.600	1162.611	886.339
269.424	21.540	1161.927	885.437
270.439	21.504	1161.112	884.556
271.453	21.549	1160.513	884.249
272.468	21.311	1159.355	882.088
273.482	21.244	1158.602	881.095
274.497	21.272	1158.539	881.113
275.512	21.337	1157.439	880.524
276.526	21.355	1156.242	879.629
277.541	21.238	1156.064	878.826
278.555	21.402	1155.315	879.002
279.570	21.662	1154.856	879.880
280.585	21.841	1154.283	880.265
281.599	21.909	1152.907	879.481
282.614	21.662	1151.586	877.159
283.628	21.462	1150.997	875.629
284.643	21.456	1150.068	874.816
285.657	21.429	1149.383	874.084
286.672	21.468	1148.393	873.445
287.687	21.461	1147.700	872.806
288.701	21.626	1146.421	872.582
289.716	21.522	1146.191	871.809
290.730	21.544	1145.300	871.163
291.745	21.556	1144.862	870.812
292.760	21.613	1144.209	870.524
293.774	21.633	1143.924	870.328
294.789	21.857	1143.506	871.044
295.803	21.865	1142.514	870.254
296.818	21.603	1141.653	868.220
297.833	21.587	1141.065	867.619
298.847	21.566	1139.985	866.618
299.862	21.499	1139.344	865.719
300.876	21.604	1138.462	865.495
301.891	21.773	1138.201	866.055
302.906	21.816	1137.982	866.023
303.920	22.084	1136.875	866.423
304.935	22.216	1136.559	866.761
305.949	22.220	1136.249	866.465
306.964	22.165	1135.355	865.435
307.979	22.080	1134.333	864.165
308.993	21.957	1133.513	862.854
310.008	22.060	1132.833	862.769
311.022	22.259	1131.825	862.900
312.037	22.117	1131.005	861.505
313.052	21.928	1129.985	859.726
314.066	21.645	1129.294	857.735
315.081	21.471	1128.137	855.931
316.095	21.559	1126.593	855.116
317.110	21.509	1126.221	854.513
318.125	21.464	1125.793	853.893
319.139	21.467	1124.945	853.189
320.154	21.359	1124.749	852.438
321.168	21.478	1123.770	852.200
322.183	21.581	1123.169	852.170
323.197	21.664	1122.781	852.202
324.212	21.694	1122.017	851.693
325.227	21.733	1121.780	851.626
326.241	21.685	1121.525	851.127
327.256	21.569	1120.446	849.670
328.270	21.582	1118.804	848.413
329.285	21.577	1118.024	847.721
330.300	21.595	1117.341	847.212
331.314	21.638	1116.102	846.408
332.329	21.608	1115.415	845.668
333.343	21.623	1114.881	845.258
334.358	21.869	1114.133	845.806
335.373	21.937	1113.814	845.817
336.387	22.060	1112.485	845.321
337.402	22.062	1112.081	844.953
338.416	22.076	1111.359	844.394
339.431	22.138	1111.178	844.483
340.446	22.461	1110.332	845.314
341.460	22.434	1110.273	845.065
342.475	22.614	1109.369	845.167
343.489	22.577	1108.259	844.066
344.504	22.687	1107.525	843.961
345.519	22.693	1106.523	843.152
346.533	22.810	1105.969	843.213
347.548	22.909	1105.372	843.154
348.562	22.832	1104.267	841.870
349.577	22.531	1103.102	839.473
350.592	22.249	1102.238	837.399
351.606	22.145	1101.002	835.894
352.621	21.976	1100.224	834.424
353.635	21.986	1099.863	834.123
354.650	21.900	1099.278	833.200
355.665	22.031	1098.530	833.179
356.679	22.171	1098.102	833.443
357.694	22.276	1097.269	833.234
358.708	22.328	1096.980	833.189
359.723	22.344	1096.413	832.759
360.738	22.351	1096.072	832.459
361.752	22.336	1094.930	831.448
362.767	22.423	1094.505	831.463
363.781	22.501	1093.930	831.322
364.796	22.648	1093.609	831.698
365.810	22.730	1093.323	831.794
366.825	22.843	1092.809	831.862
367.840	23.075	1092.616	832.732
368.854	23.238	1091.393	832.494
369.869	23.135	1090.778	831.465
370.883	22.985	1089.484	829.703
371.898	22.889	1088.716	828.596
372.913	22.658	1088.693	827.421
373.927	22.832	1088.177	827.772
374.942	22.989	1087.618	828.008
375.956	22.798	1087.285	826.785
376.971	22.824	1086.372	826.137
377.986	22.905	1086.269	826.368
379.000	23.088	1085.470	826.543
380.015	23.232	1084.780	826.616
381.029	23.273	1084.504	826.525
382.044	23.284	1083.608	825.819
383.059	23.147	1082.791	824.484
384.073	23.120	1082.191	823.829
385.088	23.125	1081.015	822.883
386.102	23.126	1080.058	822.087
387.117	22.920	1079.032	820.278
388.132	22.724	1077.906	818.442
389.146	22.599	1077.480	817.465
390.161	22.698	1076.516	817.119
391.175	22.668	1075.790	816.358
392.190	22.905	1075.214	816.944
393.205	22.953	1074.801	816.780
394.219	22.988	1073.505	815.885
395.234	22.823	1072.712	814.448
396.248	22.857	1071.361	813.506
397.263	22.769	1070.637	812.481
398.278	22.632	1070.130	811.391
399.292	22.635	1069.103	810.555
400.307	22.502	1068.710	809.575
401.321	22.579	1067.548	808.977
402.336	22.499	1066.723	807.913
403.350	22.462	1066.310	807.360
404.365	22.532	1065.906	807.304
405.380	22.812	1064.984	807.815
406.394	22.866	1064.354	807.514
407.409	23.029	1063.922	807.858
408.423	23.251	1063.256	808.296
409.438	23.230	1062.894	807.853
410.453	23.386	1062.510	808.201
411.467	23.307	1061.694	807.146
412.482	23.370	1061.112	806.921
413.496	23.576	1060.160	807.061
414.511	23.669	1059.862	807.185
415.526	23.628	1059.986	807.023
416.540	23.785	1059.271	807.123
417.555	23.624	1058.607	805.814
418.569	23.542	1057.701	804.681
419.584	23.508	1057.210	804.083
420.599	23.489	1056.616	803.474
421.613	157.598	1404.729	1798.013
422.628	144.792	1455.396	1798.100
