DTS Sentinel unit serial number:	SN413079Multiplexer serial number:	ORYXHardware model number:	OX4-SRSoftware version number:	ORYX F/W v4.00 Oryx Data Collector v3.7.2.0data status	okinstallation	princeton_trtdifferential loss correction	single-endedforward channel	channel 2reverse channel	N/Adate	2019/09/11time	20:29:11forward acquisition time	60.00reverse acquisition time	0.00gamma	496.2192k internal	0.2319k external	0.2319temperature offset calibration	1.0056default loss term (dB/km)	0.3790temperature slope calibration	1.0000multiplexer offset coefficient	1.0000multiplexer slope coefficient	1.0000fibre end	0.00T internal ref (°C)	37.69T ext. ref 1 (°C)	1.49T ext. ref 2 (°C)	30.91length (m)	temperature (°C)	Stokes	anti-Stokes-747.200	-200.000	-0.084	-0.413
-746.185	-200.000	0.007	0.166
-745.171	384.645	-0.057	0.120
-744.156	1.148	-0.127	0.092
-743.142	800.000	0.088	0.283
-742.127	-155.805	0.146	-0.009
-741.112	-200.000	-0.002	-0.187
-740.098	31.748	-0.116	0.101
-739.083	290.518	0.170	0.312
-738.069	30.974	-0.075	0.065
-737.054	800.000	0.039	0.154
-736.039	190.331	0.149	-0.226
-735.025	-3.530	0.104	0.073
-734.010	287.023	-0.121	-0.222
-732.996	-46.014	-0.346	0.172
-731.981	800.000	-0.097	-0.283
-730.966	-8.039	-0.223	0.152
-729.952	800.000	0.033	-0.119
-728.937	-174.989	0.232	-0.007
-727.923	174.795	0.093	0.137
-726.908	59.699	-0.326	-0.325
-725.894	109.581	-0.112	0.136
-724.879	-133.310	0.362	0.046
-723.864	-46.745	-0.066	0.033
-722.850	-164.323	-0.327	-0.015
-721.835	800.000	0.116	0.362
-720.821	-66.372	-0.258	0.104
-719.806	-31.516	-0.271	0.154
-718.791	628.000	-0.099	0.252
-717.777	199.304	0.105	0.163
-716.762	-41.562	0.260	-0.135
-715.748	272.595	-0.077	0.137
-714.733	107.870	-0.101	0.121
-713.718	235.017	-0.098	0.164
-712.704	-82.998	-0.247	-0.080
-711.689	-73.975	-0.095	0.035
-710.675	16.195	-0.094	-0.075
-709.660	-200.000	-0.026	0.193
-708.645	-200.000	-0.001	0.044
-707.631	3.610	0.133	-0.098
-706.616	393.464	-0.081	-0.170
-705.602	-72.543	0.119	-0.045
-704.587	722.321	-0.048	-0.129
-703.572	82.090	0.120	0.131
-702.558	-78.262	0.182	-0.063
-701.543	175.376	0.022	-0.032
-700.529	18.539	-0.285	-0.230
-699.514	-159.079	-0.321	0.018
-698.499	44.141	-0.133	-0.124
-697.485	335.432	-0.109	0.214
-696.470	205.505	-0.007	-0.011
-695.456	-154.594	-0.148	-0.010
-694.441	-18.905	-0.233	0.146
-693.426	32.308	0.099	-0.086
-692.412	-26.001	-0.064	-0.038
-691.397	-124.958	-0.087	-0.014
-690.383	-171.169	0.200	0.007
-689.368	800.000	-0.018	-0.067
-688.354	529.233	0.055	-0.130
-687.339	-104.170	0.250	0.059
-686.324	-107.058	0.212	-0.047
-685.310	-125.640	0.172	-0.026
-684.295	412.295	0.108	-0.232
-683.281	-29.920	-0.188	-0.108
-682.266	-123.397	0.063	-0.010
-681.251	548.982	0.136	0.328
-680.237	108.709	-0.305	-0.367
-679.222	-57.303	0.059	-0.026
-678.208	305.958	0.130	-0.244
-677.193	-19.878	-0.224	-0.139
-676.178	-200.000	0.019	0.147
-675.164	194.734	-0.316	-0.484
-674.149	-171.990	0.449	-0.015
-673.135	331.327	-0.073	0.142
-672.120	-71.934	0.190	-0.072
-671.105	800.000	-0.136	-0.418
-670.091	-200.000	0.004	-0.134
-669.076	38.643	-0.043	0.039
-668.062	212.137	0.137	0.217
-667.047	800.000	-0.081	0.306
-666.032	241.710	-0.174	0.293
-665.018	160.594	-0.068	0.095
-664.003	-81.174	-0.060	-0.020
-662.989	-34.199	0.081	0.045
-661.974	-200.000	0.020	0.118
-660.959	94.932	-0.192	-0.221
-659.945	800.000	-0.134	-0.384
-658.930	-157.298	0.031	0.002
-657.916	-39.986	0.179	-0.094
-656.901	75.444	-0.103	-0.110
-655.886	235.207	0.126	0.210
-654.872	44.159	0.145	-0.134
-653.857	800.000	-0.017	0.064
-652.843	-81.232	-0.191	0.064
-651.828	212.453	0.096	-0.152
-650.814	-152.549	0.254	-0.018
-649.799	-103.593	0.244	0.058
-648.784	-91.726	-0.250	-0.072
-647.770	-200.000	0.036	-0.187
-646.755	-49.412	-0.564	-0.271
-645.741	800.000	0.031	-0.088
-644.726	176.970	-0.147	-0.215
-643.711	93.093	-0.074	-0.085
-642.697	-200.000	-0.011	0.069
-641.682	-16.293	0.116	0.074
-640.668	177.095	-0.223	-0.327
-639.653	-200.000	0.014	-0.087
-638.638	-95.864	0.157	0.042
-637.624	-13.732	0.219	-0.143
-636.609	-79.047	-0.185	0.063
-635.595	-35.201	-0.283	-0.155
-634.580	-200.000	0.041	0.409
-633.565	93.563	-0.059	-0.067
-632.551	-165.566	-0.184	-0.008
-631.536	-117.144	-0.081	0.015
-630.522	402.853	0.065	-0.138
-629.507	-13.980	0.026	-0.017
-628.492	800.000	-0.092	-0.367
-627.478	46.523	-0.058	0.054
-626.463	-152.094	0.202	0.015
-625.449	-200.000	0.002	-0.008
-624.434	-200.000	-0.016	0.206
-623.419	-200.000	0.021	-0.099
-622.405	21.528	0.168	0.137
-621.390	350.253	-0.151	-0.300
-620.376	-162.668	-0.146	0.007
-619.361	-17.006	-0.155	0.099
-618.346	-5.986	-0.121	0.083
-617.332	80.514	-0.177	-0.192
-616.317	37.474	0.055	-0.049
-615.303	55.973	-0.188	0.183
-614.288	-30.075	-0.332	-0.190
-613.273	-106.361	-0.287	-0.065
-612.259	-200.000	0.005	0.277
-611.244	291.592	-0.126	-0.230
-610.230	115.083	0.066	-0.081
-609.215	-61.805	-0.289	0.122
-608.201	-1.935	-0.040	0.028
-607.186	98.960	-0.201	-0.234
-606.171	-153.819	0.421	0.029
-605.157	-200.000	0.040	-0.271
-604.142	250.081	0.146	0.248
-603.128	141.345	0.098	-0.130
-602.113	-140.203	-0.140	-0.015
-601.098	-74.617	0.215	0.078
-600.084	524.782	-0.231	0.546
-599.069	-27.611	-0.193	-0.113
-598.055	90.209	-0.232	-0.261
-597.040	-200.000	-0.000	0.250
-596.025	99.768	0.193	-0.224
-595.011	-200.000	-0.020	0.277
-593.996	-19.234	-0.327	0.204
-592.982	8.624	0.192	0.145
-591.967	119.150	0.104	0.130
-590.952	800.000	-0.039	0.123
-589.938	17.971	-0.132	0.106
-588.923	669.252	0.094	-0.245
-587.909	207.516	0.213	-0.335
-586.894	99.669	-0.334	0.389
-585.879	-200.000	0.040	0.333
-584.865	800.000	-0.047	0.157
-583.850	-84.604	-0.211	0.067
-582.836	-200.000	0.013	-0.263
-581.821	352.323	-0.103	-0.205
-580.806	75.903	-0.091	-0.097
-579.792	-122.976	-0.377	0.061
-578.777	-167.270	-0.059	-0.002
-577.763	35.155	-0.229	-0.202
-576.748	-130.554	0.382	0.052
-575.733	-200.000	0.023	0.140
-574.719	524.079	-0.056	0.133
-573.704	-95.604	-0.352	0.095
-572.690	-10.805	-0.131	0.087
-571.675	60.907	0.405	0.403
-570.661	-171.904	-0.158	0.005
-569.646	800.000	0.061	0.251
-568.631	30.382	-0.162	0.139
-567.617	-200.000	-0.029	-0.222
-566.602	698.078	0.108	0.286
-565.588	-81.034	-0.113	-0.038
-564.573	102.749	0.254	-0.298
-563.558	-100.005	0.145	-0.036
-562.544	133.888	0.197	-0.256
-561.529	158.633	0.101	0.141
-560.515	229.473	-0.144	0.236
-559.500	132.104	0.052	-0.067
-558.485	-31.138	-0.236	0.134
-557.471	800.000	-0.084	-0.269
-556.456	-153.328	0.157	-0.011
-555.442	-27.550	-0.448	-0.261
-554.427	126.285	-0.200	-0.254
-553.412	-200.000	0.006	-0.089
-552.398	-136.983	0.138	-0.016
-551.383	800.000	-0.080	-0.242
-550.369	131.642	-0.051	0.066
-549.354	13.097	-0.134	0.104
-548.339	165.476	-0.145	0.206
-547.325	-36.892	-0.023	-0.012
-546.310	-200.000	0.003	-0.264
-545.296	739.615	-0.010	-0.026
-544.281	310.137	-0.159	-0.298
-543.266	-30.613	0.282	-0.160
-542.252	-119.173	-0.116	-0.020
-541.237	-24.523	0.338	-0.202
-540.223	-103.987	-0.060	-0.014
-539.208	-75.137	-0.185	-0.066
-538.193	-105.695	-0.314	-0.071
-537.179	-93.194	-0.225	-0.063
-536.164	55.015	-0.254	0.246
-535.150	161.126	0.068	-0.095
-534.135	-134.903	-0.231	0.028
-533.121	385.659	0.023	-0.048
-532.106	140.435	-0.014	0.018
-531.091	-14.376	0.080	0.052
-530.077	-90.034	0.165	-0.048
-529.062	-49.131	0.126	-0.061
-528.048	800.000	0.097	-0.276
-527.033	62.444	0.112	0.112
-526.018	326.719	0.053	0.102
-525.004	150.923	0.128	-0.175
-523.989	-78.766	0.101	0.035
-522.975	422.100	0.167	0.360
-521.960	-96.587	0.062	-0.016
-520.945	-97.278	0.168	0.044
-519.931	-105.874	-0.328	0.074
-518.916	-1.460	-0.137	-0.097
-517.902	-200.000	0.034	-0.399
-516.887	-51.461	-0.294	-0.138
-515.872	61.406	-0.032	0.032
-514.858	-83.034	0.126	0.041
-513.843	-88.996	-0.438	-0.130
-512.829	800.000	0.109	-0.351
-511.814	235.971	0.020	0.034
-510.799	507.092	0.103	0.240
-509.785	-200.000	-0.049	-0.254
-508.770	800.000	0.072	0.295
-507.756	16.177	0.265	-0.209
-506.741	-140.756	-0.104	0.011
-505.726	-49.803	0.260	0.124
-504.712	244.981	0.051	-0.086
-503.697	-85.745	0.077	-0.024
-502.683	398.222	-0.145	0.305
-501.668	-105.707	-0.234	-0.053
-500.653	274.033	0.168	0.298
-499.639	294.342	-0.100	-0.183
-498.624	277.538	-0.106	-0.189
-497.610	-200.000	-0.017	0.225
-496.595	-51.833	-0.213	0.099
-495.581	108.264	-0.089	-0.107
-494.566	-46.307	0.207	0.102
-493.551	80.769	0.070	-0.075
-492.537	-14.248	0.161	0.104
-491.522	-0.346	0.163	0.116
-490.508	309.373	0.094	-0.176
-489.493	79.642	0.200	-0.216
-488.478	-200.000	-0.018	-0.257
-487.464	234.518	0.186	-0.307
-486.449	-200.000	-0.045	-0.320
-485.435	584.865	0.033	-0.080
-484.420	303.637	-0.050	-0.092
-483.405	4.633	0.372	-0.274
-482.391	-200.000	-0.031	-0.153
-481.376	800.000	0.074	0.232
-480.362	-155.125	0.218	-0.014
-479.347	800.000	-0.074	-0.208
-478.332	140.310	0.153	0.202
-477.318	-95.746	0.171	0.046
-476.303	73.130	-0.065	-0.068
-475.289	41.147	-0.038	-0.034
-474.274	116.943	-0.148	-0.182
-473.259	-179.246	0.321	-0.007
-472.245	89.889	-0.256	-0.286
-471.230	176.001	-0.106	-0.154
-470.216	-59.133	-0.317	-0.137
-469.201	-200.000	0.048	0.287
-468.186	39.475	0.166	-0.149
-467.172	800.000	-0.113	0.473
-466.157	-85.275	0.393	0.123
-465.143	-200.000	-0.011	-0.067
-464.128	327.006	-0.063	0.121
-463.113	-200.000	0.043	0.196
-462.099	-87.340	0.262	0.079
-461.084	22.291	0.135	0.111
-460.070	219.798	-0.167	0.267
-459.055	382.440	0.064	-0.131
-458.040	225.176	-0.109	-0.176
-457.026	-42.676	0.100	0.051
-456.011	-109.732	-0.265	-0.056
-454.997	-109.921	-0.239	0.050
-453.982	-110.479	0.135	0.028
-452.968	649.748	-0.067	0.171
-451.953	-173.595	-0.125	-0.004
-450.938	-200.000	0.024	-0.153
-449.924	636.396	0.093	0.235
-448.909	800.000	-0.053	0.147
-447.895	800.000	-0.054	-0.225
-446.880	-137.000	0.333	0.038
-445.865	372.058	0.040	0.082
-444.851	-39.875	-0.184	-0.096
-443.836	-109.559	-0.098	0.021
-442.822	-165.863	-0.321	0.014
-441.807	75.278	-0.078	0.083
-440.792	-200.000	-0.017	0.107
-439.778	-121.002	0.338	-0.057
-438.763	-69.158	-0.264	0.102
-437.749	536.226	-0.125	0.297
-436.734	-92.046	0.116	0.033
-435.719	374.969	0.190	-0.387
-434.705	-200.000	-0.049	-0.350
-433.690	-178.965	0.208	0.005
-432.676	-30.682	0.114	0.065
-431.661	324.558	-0.124	0.237
-430.646	94.317	-0.071	0.080
-429.632	180.204	0.120	-0.176
-428.617	-200.000	-0.011	-0.057
-427.603	442.936	-0.110	0.242
-426.588	87.212	0.050	-0.056
-425.573	-122.645	0.322	0.052
-424.559	232.764	-0.148	0.243
-423.544	4.803	-0.190	-0.139
-422.530	-122.215	0.306	-0.050
-421.515	295.558	0.118	-0.216
-420.500	-51.327	0.207	-0.097
-419.486	124.493	-0.075	0.094
-418.471	-172.356	-0.201	-0.006
-417.457	259.693	-0.053	-0.091
-416.442	800.000	0.045	0.156
-415.428	-200.000	-0.006	0.153
-414.413	-94.975	0.052	0.014
-413.398	-83.425	0.216	-0.069
-412.384	-104.490	0.253	-0.058
-411.369	-200.000	-0.022	-0.188
-410.355	110.340	0.179	-0.214
-409.340	-26.639	0.336	-0.196
-408.325	-55.781	0.008	0.004
-407.311	66.915	-0.254	0.258
-406.296	-200.000	0.002	-0.172
-405.282	181.046	-0.139	-0.204
-404.267	-200.000	0.031	0.218
-403.252	-20.987	0.195	-0.119
-402.238	-166.945	0.192	0.008
-401.223	-200.000	0.024	0.245
-400.209	424.946	-0.144	0.309
-399.194	100.938	-0.142	0.165
-398.179	44.643	-0.147	0.135
-397.165	610.679	-0.103	0.256
-396.150	184.174	-0.141	0.209
-395.136	-44.576	-0.281	0.140
-394.121	800.000	0.058	-0.172
-393.106	-200.000	0.041	-0.280
-392.092	800.000	-0.037	0.119
-391.077	-200.000	0.016	-0.081
-390.063	251.285	-0.077	-0.131
-389.048	-116.573	-0.188	0.034
-388.033	-162.141	-0.136	0.007
-387.019	-59.745	-0.035	0.015
-386.004	-35.824	0.295	-0.159
-384.990	666.526	0.108	0.279
-383.975	-106.859	0.411	-0.091
-382.960	-142.091	0.179	-0.018
-381.946	800.000	0.060	-0.216
-380.931	-172.520	0.313	0.010
-379.917	-159.769	0.078	0.004
-378.902	-51.869	-0.430	0.200
-377.888	-73.603	-0.141	0.051
-376.873	90.580	-0.057	0.064
-375.858	-68.995	0.394	0.151
-374.844	62.815	0.112	-0.111
-373.829	-86.294	-0.373	-0.115
-372.815	107.370	-0.115	0.136
-371.800	-163.229	-0.298	-0.014
-370.785	-70.890	0.273	-0.103
-369.771	-200.000	0.041	0.270
-368.756	-200.000	-0.002	0.214
-367.742	-200.000	-0.022	-0.216
-366.727	24.422	-0.095	-0.078
-365.712	-200.000	0.005	0.144
-364.698	-70.407	-0.195	0.074
-363.683	615.872	-0.132	-0.330
-362.669	-43.176	-0.239	0.121
-361.654	515.150	-0.127	-0.297
-360.639	-62.263	0.284	-0.118
-359.625	444.829	0.048	0.105
-358.610	526.826	0.142	-0.334
-357.596	620.449	-0.021	-0.053
-356.581	2.470	0.191	0.138
-355.566	-112.131	-0.210	-0.042
-354.552	-57.508	0.206	-0.090
-353.537	478.130	-0.084	-0.189
-352.523	-200.000	0.055	-0.501
-351.508	-66.884	0.248	-0.098
-350.493	-11.142	-0.105	0.069
-349.479	425.678	0.157	0.336
-348.464	-12.095	0.046	-0.030
-347.450	362.412	0.209	0.418
-346.435	-200.000	0.004	0.290
-345.420	265.282	-0.091	-0.157
-344.406	24.062	-0.192	0.158
-343.391	-164.058	-0.620	-0.029
-342.377	-73.605	-0.207	-0.075
-341.362	-62.154	0.205	0.085
-340.348	23.825	0.271	0.222
-339.333	46.445	-0.124	0.114
-338.318	225.580	-0.064	-0.103
-337.304	-98.735	-0.318	-0.081
-336.289	-77.273	-0.111	-0.038
-335.275	386.591	0.079	0.162
-334.260	-200.000	0.020	-0.168
-333.245	-166.375	0.355	-0.015
-332.231	750.576	0.124	-0.334
-331.216	-38.726	0.361	-0.189
-330.202	-182.972	-0.103	-0.002
-329.187	179.455	0.106	-0.154
-328.172	800.000	-0.028	-0.097
-327.158	15.763	-0.236	-0.185
-326.143	-200.000	-0.044	0.293
-325.129	142.403	0.079	-0.105
-324.114	58.067	-0.296	-0.289
-323.099	-27.040	0.213	0.124
-322.085	700.930	0.106	0.278
-321.070	-200.000	-0.033	-0.158
-320.056	299.297	0.157	0.288
-319.041	63.617	-0.367	0.367
-318.026	-157.084	-0.028	0.002
-317.012	82.855	-0.088	-0.096
-315.997	-199.745	0.275	-0.001
-314.983	149.522	0.030	-0.040
-313.968	-119.636	-0.335	-0.058
-312.953	120.096	-0.168	-0.207
-311.939	800.000	-0.062	-0.248
-310.924	-97.722	0.019	0.005
-309.910	118.459	-0.131	-0.161
-308.895	60.941	0.288	0.284
-307.880	760.788	-0.052	-0.140
-306.866	9.018	-0.145	-0.109
-305.851	-92.860	0.337	0.094
-304.837	-26.382	-0.010	-0.006
-303.822	800.000	0.057	-0.214
-302.807	-107.027	-0.092	-0.020
-301.793	-21.775	0.227	-0.137
-300.778	215.764	-0.051	-0.081
-299.764	-200.000	-0.006	-0.377
-298.749	800.000	0.081	0.249
-297.735	-38.243	-0.258	0.136
-296.720	59.349	0.153	-0.150
-295.705	-200.000	0.048	0.263
-294.691	-76.088	0.345	0.121
-293.676	-200.000	0.005	0.117
-292.662	-169.306	-0.090	-0.003
-291.647	-101.183	0.155	-0.038
-290.632	563.562	0.045	-0.107
-289.618	800.000	-0.045	-0.162
-288.603	73.553	-0.099	0.103
-287.589	623.773	-0.066	-0.165
-286.574	101.261	-0.085	0.099
-285.559	385.450	0.052	0.106
-284.545	-200.000	-0.180	-0.000
-283.530	8.404	0.054	-0.040
-282.516	-166.487	0.317	0.013
-281.501	-7.551	-0.223	-0.150
-280.486	64.818	0.022	0.022
-279.472	606.747	-0.149	0.368
-278.457	-173.235	-0.151	0.005
-277.443	-10.423	-0.129	-0.085
-276.428	-200.000	-0.032	0.549
-275.413	-109.781	0.486	0.101
-274.399	37.017	-0.244	0.215
-273.384	800.000	-0.017	-0.052
-272.370	-200.000	-0.013	0.090
-271.355	-38.979	-0.206	0.108
-270.340	-200.000	0.016	-0.372
-269.326	-200.000	0.017	0.103
-268.311	230.370	-0.095	0.155
-267.297	-200.000	-0.054	-0.266
-266.282	123.836	0.203	0.253
-265.267	206.627	-0.196	0.302
-264.253	171.471	-0.248	0.354
-263.238	359.562	0.194	0.384
-262.224	-76.074	0.080	0.028
-261.209	800.000	-0.021	-0.082
-260.195	-200.000	-0.013	-0.246
-259.180	-200.000	-0.033	0.375
-258.165	708.696	-0.033	0.087
-257.151	-104.027	0.116	-0.027
-256.136	-2.876	0.156	0.108
-255.122	-58.225	0.187	0.081
-254.107	-200.000	0.024	0.316
-253.092	51.459	-0.091	0.086
-252.078	21.019	0.035	-0.028
-251.063	29.570	0.229	0.193
-250.049	-115.998	0.033	-0.006
-249.034	800.000	-0.098	0.322
-248.019	23.903	0.162	-0.133
-247.005	32.823	0.233	-0.200
-245.990	64.376	0.081	-0.081
-244.976	153.536	-0.210	0.285
-243.961	25.827	0.148	-0.123
-242.946	204.661	0.230	0.353
-241.932	-198.218	-0.132	-0.001
-240.917	118.696	0.173	0.212
-239.903	-200.000	-0.010	0.453
-238.888	-70.503	0.225	-0.084
-237.873	-123.611	0.148	-0.023
-236.859	-200.000	0.008	0.423
-235.844	800.000	-0.034	0.137
-234.830	-159.803	-0.115	-0.006
-233.815	43.969	0.048	0.044
-232.800	45.415	-0.219	0.200
-231.786	31.507	0.237	0.202
-230.771	800.000	-0.097	0.349
-229.757	-138.426	-0.278	0.030
-228.742	-82.319	-0.307	0.099
-227.727	-118.537	0.172	0.030
-226.713	-200.000	-0.015	0.088
-225.698	-48.705	-0.176	0.084
-224.684	-32.633	0.191	-0.105
-223.669	-128.844	0.178	-0.025
-222.655	194.833	-0.049	0.073
-221.640	-20.316	0.205	-0.125
-220.625	-39.996	-0.292	-0.151
-219.611	-200.000	0.007	-0.464
-218.596	-101.302	0.334	-0.081
-217.582	-200.000	0.073	-0.395
-216.567	800.000	0.121	-0.351
-215.552	-200.000	0.032	-0.362
-214.538	6.669	0.046	0.034
-213.523	42.955	0.120	-0.109
-212.509	55.216	0.105	-0.101
-211.494	-8.780	0.123	-0.082
-210.479	107.134	0.059	0.069
-209.465	-184.542	-0.029	-0.000
-208.450	-200.000	0.018	-0.140
-207.436	-45.055	-0.222	-0.109
-206.421	211.933	-0.040	0.063
-205.406	-15.155	-0.187	-0.118
-204.392	-72.999	-0.101	-0.037
-203.377	800.000	-0.085	0.288
-202.363	-200.000	0.018	-0.184
-201.348	-169.935	-0.125	0.004
-200.333	800.000	-0.093	-0.344
-199.319	15.617	-0.222	-0.172
-198.304	-84.425	0.139	-0.043
-197.290	-200.000	-0.000	0.235
-196.275	53.337	0.183	-0.174
-195.260	31.821	0.183	-0.156
-194.246	28.723	0.207	-0.174
-193.231	-83.619	0.205	-0.065
-192.217	112.490	0.080	-0.095
-191.202	-200.000	-0.003	-0.026
-190.187	273.788	0.056	0.099
-189.173	800.000	0.023	-0.065
-188.158	800.000	0.093	0.275
-187.144	744.119	0.083	0.222
-186.129	183.992	0.156	0.229
-185.114	127.241	0.215	0.270
-184.100	-102.102	-0.145	-0.034
-183.085	-70.341	0.228	0.086
-182.071	-200.000	-0.029	-0.308
-181.056	105.681	-0.072	-0.084
-180.042	408.008	-0.083	-0.173
-179.027	704.146	0.131	0.342
-178.012	-183.765	0.091	-0.002
-176.998	-143.421	0.326	0.031
-175.983	-157.330	-0.178	0.011
-174.969	-70.937	-0.152	-0.057
-173.954	-55.506	-0.385	-0.171
-172.939	472.237	0.093	-0.206
-171.925	-53.749	0.089	-0.040
-170.910	224.372	-0.188	0.300
-169.896	272.335	0.115	-0.200
-168.881	-200.000	-0.007	0.058
-167.866	-148.677	0.136	0.011
-166.852	-61.344	0.237	0.099
-165.837	-32.574	0.221	-0.122
-164.823	800.000	-0.056	-0.170
-163.808	23.433	0.091	0.074
-162.793	800.000	0.052	0.152
-161.779	-200.000	0.008	-0.059
-160.764	138.551	0.107	0.139
-159.750	228.164	-0.045	-0.072
-158.735	-200.000	-0.004	-0.168
-157.720	-200.000	0.059	0.279
-156.706	-74.328	-0.131	0.047
-155.691	80.144	-0.083	-0.088
-154.677	-17.526	0.075	-0.047
-153.662	-100.363	0.211	-0.052
-152.647	800.000	-0.145	0.509
-151.633	-75.666	0.116	0.041
-150.618	-32.766	-0.043	-0.024
-149.604	562.923	-0.130	0.311
-148.589	-71.518	-0.208	-0.077
-147.574	-200.000	-0.006	-0.045
-146.560	102.521	0.069	-0.080
-145.545	64.787	0.191	0.190
-144.531	334.876	-0.014	-0.026
-143.516	234.706	0.076	0.125
-142.502	-108.074	0.352	-0.075
-141.487	273.861	0.142	0.247
-140.472	386.135	0.187	0.381
-139.458	-55.310	-0.130	0.058
-138.443	-175.027	-0.172	0.005
-137.429	-200.000	0.005	-0.141
-136.414	130.627	0.307	-0.389
-135.399	-1.832	0.189	-0.131
-134.385	-8.707	-0.021	-0.014
-133.370	83.757	0.126	-0.136
-132.356	800.000	0.050	0.178
-131.341	-200.000	-0.060	-0.309
-130.326	-200.000	-0.049	0.254
-129.312	800.000	-0.042	-0.120
-128.297	-70.573	-0.061	0.023
-127.283	174.057	0.229	-0.327
-126.268	800.000	0.075	-0.325
-125.253	-92.266	0.102	0.028
-124.239	-167.710	0.272	0.011
-123.224	800.000	0.083	0.273
-122.210	800.000	0.049	-0.152
-121.195	147.828	-0.173	-0.231
-120.180	7.134	-0.229	0.169
-119.166	662.450	-0.047	-0.120
-118.151	-200.000	-0.051	-0.261
-117.137	81.690	-0.171	0.183
-116.122	-68.593	-0.192	-0.074
-115.107	-112.472	0.055	-0.011
-114.093	-39.452	0.200	-0.103
-113.078	53.188	-0.190	0.180
-112.064	-115.420	-0.294	0.055
-111.049	-200.000	0.004	0.053
-110.034	-12.825	0.057	-0.037
-109.020	-200.000	0.042	0.271
-108.005	197.511	-0.103	0.155
-106.991	-48.880	-0.225	0.106
-105.976	-127.904	0.472	0.067
-104.962	399.560	-0.097	0.200
-103.947	-85.072	-0.205	-0.063
-102.932	-200.000	-0.008	-0.054
-101.918	800.000	-0.064	-0.205
-100.903	4.411	-0.212	-0.154
-99.889	-74.462	0.188	-0.067
-98.874	800.000	-0.018	-0.076
-97.859	23.016	0.124	0.100
-96.845	754.979	0.054	-0.143
-95.830	800.000	0.056	-0.184
-94.816	199.175	0.118	-0.179
-93.801	33.387	-0.075	-0.064
-92.786	-47.654	-0.128	-0.061
-91.772	800.000	0.094	0.259
-90.757	-7.680	-0.141	-0.094
-89.743	-24.844	-0.172	0.101
-88.728	-200.000	-0.026	-0.144
-87.713	-63.230	0.211	0.086
-86.699	-19.035	0.196	0.120
-85.684	-111.700	0.395	0.079
-84.670	313.546	-0.122	-0.227
-83.655	-137.487	0.293	0.033
-82.640	69.592	0.052	0.053
-81.626	-146.786	-0.256	0.022
-80.611	-200.000	0.023	-0.245
-79.597	-200.000	-0.027	-0.175
-78.582	-200.000	0.037	0.319
-77.567	-200.000	0.032	0.139
-76.553	259.892	-0.015	0.025
-75.538	-87.015	0.063	0.019
-74.524	173.595	0.144	0.205
-73.509	-200.000	0.090	-0.478
-72.494	102.435	0.016	0.018
-71.480	-200.000	-0.071	0.359
-70.465	492.423	-0.028	-0.063
-69.451	-88.015	0.305	-0.090
-68.436	-38.864	-0.283	0.147
-67.422	59.830	0.280	0.273
-66.407	-46.794	-0.089	0.043
-65.392	800.000	0.027	0.079
-64.378	21.149	0.202	-0.161
-63.363	-37.694	-0.063	-0.033
-62.349	67.141	-0.163	-0.163
-61.334	45.133	-1.239	-1.125
-60.319	-142.513	0.493	0.048
-59.305	-200.000	-0.166	-0.827
-58.290	423.066	0.404	0.854
-57.276	291.385	0.741	1.327
-56.261	-200.000	87.247	488.206
-55.246	483.157	1363.704	3053.153
-54.232	151.665	2584.907	3468.235
-53.217	108.531	2305.421	2710.613
-52.203	46.761	1925.243	1761.020
-51.188	40.975	1716.405	1525.720
-50.173	38.088	1672.467	1464.977
-49.159	52.818	1717.668	1616.907
-48.144	56.695	1735.473	1663.095
-47.130	40.711	1693.725	1503.318
-46.115	37.758	1679.232	1468.182
-45.100	37.623	1674.040	1462.571
-44.086	37.696	1670.776	1460.208
-43.071	37.502	1668.679	1456.867
-42.057	37.528	1666.465	1455.067
-41.042	37.542	1664.387	1453.298
-40.027	37.511	1662.298	1451.191
-39.013	37.563	1660.461	1449.915
-37.998	37.622	1658.564	1448.639
-36.984	37.617	1657.246	1447.390
-35.969	37.617	1655.682	1445.968
-34.954	37.784	1653.804	1445.511
-33.940	37.753	1652.336	1443.945
-32.925	37.708	1650.512	1441.955
-31.911	37.687	1649.139	1440.546
-30.896	37.646	1647.059	1438.365
-29.881	37.629	1645.520	1436.840
-28.867	37.672	1643.973	1435.751
-27.852	37.746	1642.576	1435.015
-26.838	37.741	1640.665	1433.259
-25.823	37.656	1639.941	1431.940
-24.809	37.677	1638.765	1431.009
-23.794	37.692	1637.051	1429.569
-22.779	37.667	1635.123	1427.648
-21.765	37.700	1633.622	1426.519
-20.750	37.670	1632.182	1424.982
-19.736	37.704	1631.146	1424.273
-18.721	37.671	1629.766	1422.772
-17.706	37.661	1628.398	1421.449
-16.692	37.688	1626.664	1420.071
-15.677	37.720	1625.293	1419.057
-14.663	37.724	1623.767	1417.695
-13.648	37.757	1622.326	1416.618
-12.633	37.795	1620.685	1415.403
-11.619	37.669	1619.354	1413.274
-10.604	37.728	1617.915	1412.388
-9.590	37.773	1616.473	1411.404
-8.575	37.714	1615.240	1409.844
-7.560	37.817	1613.787	1409.262
-6.546	37.708	1612.707	1407.475
-5.531	37.645	1611.885	1406.249
-4.517	37.666	1610.580	1405.207
-3.502	37.681	1609.701	1404.486
-2.487	37.770	1608.006	1403.594
-1.473	37.303	1596.009	1389.731
-0.458	34.169	1575.374	1349.527
0.556	29.826	1574.738	1312.778
1.571	27.128	1598.082	1312.667
2.586	26.376	1612.278	1318.728
3.600	23.282	1558.918	1253.109
4.615	12.898	1445.240	1093.139
5.629	3.439	1374.758	979.847
6.644	1.715	1365.665	962.390
7.659	1.522	1364.592	960.331
8.673	1.367	1363.269	958.335
9.688	1.337	1361.019	956.485
10.702	1.253	1357.998	953.746
11.717	4.944	1365.388	982.141
12.731	15.324	1385.864	1062.884
13.746	23.695	1399.794	1126.829
14.761	25.395	1402.236	1139.486
15.775	25.658	1401.652	1140.581
16.790	25.822	1401.167	1141.125
17.804	25.843	1400.470	1140.586
18.819	25.980	1400.529	1141.399
19.834	25.992	1399.760	1140.753
20.848	26.098	1398.748	1140.496
21.863	26.202	1397.943	1140.392
22.877	26.101	1397.037	1138.920
23.892	26.083	1396.392	1138.176
24.907	26.071	1395.649	1137.394
25.921	26.071	1394.311	1136.202
26.936	26.005	1394.126	1135.533
27.950	26.046	1392.552	1134.412
28.965	26.008	1391.600	1133.295
29.980	26.090	1389.877	1132.307
30.994	26.104	1388.592	1131.247
32.009	25.951	1387.575	1129.360
33.023	26.104	1386.504	1129.350
34.038	26.031	1385.333	1127.840
35.053	26.025	1384.398	1126.941
36.067	25.973	1383.786	1126.015
37.082	26.041	1382.703	1125.462
38.096	26.075	1381.380	1124.496
39.111	26.083	1380.853	1124.015
40.126	26.120	1380.374	1123.759
41.140	26.072	1379.653	1122.772
42.155	26.095	1379.427	1122.634
43.169	26.077	1378.966	1122.044
44.184	25.992	1379.184	1121.594
45.199	26.000	1378.808	1121.240
46.213	26.214	1377.371	1121.301
47.228	26.172	1376.721	1120.411
48.242	26.018	1375.720	1118.545
49.257	26.007	1374.228	1117.166
50.271	26.014	1373.068	1116.165
51.286	26.082	1371.310	1115.055
52.301	26.083	1370.049	1113.940
53.315	25.972	1369.927	1113.055
54.330	25.923	1369.021	1111.922
55.344	26.017	1367.637	1111.279
56.359	26.049	1366.178	1110.191
57.374	26.023	1365.277	1109.198
58.388	26.030	1365.228	1109.107
59.403	26.048	1364.858	1108.818
60.417	26.008	1364.181	1107.925
61.432	26.042	1363.320	1107.335
62.447	26.099	1362.572	1106.976
63.461	26.149	1361.279	1106.139
64.476	26.000	1360.599	1104.574
65.490	26.042	1358.975	1103.415
66.505	26.032	1357.800	1102.301
67.520	26.040	1356.634	1101.307
68.534	26.051	1355.515	1100.365
69.549	26.142	1354.082	1099.660
70.563	26.050	1353.500	1098.528
71.578	26.101	1352.640	1098.048
72.593	26.063	1351.718	1096.967
73.607	26.098	1350.998	1096.499
74.622	26.040	1350.329	1095.507
75.636	26.114	1349.546	1095.228
76.651	26.147	1348.863	1094.775
77.666	26.012	1348.459	1093.532
78.680	26.111	1347.963	1093.634
79.695	25.990	1347.225	1092.206
80.709	26.108	1346.159	1091.956
81.724	26.048	1345.163	1090.690
82.739	26.055	1344.728	1090.282
83.753	26.092	1343.609	1089.502
84.768	25.901	1342.905	1087.683
85.782	26.065	1341.323	1087.294
86.797	26.085	1340.362	1086.537
87.812	26.077	1339.201	1085.455
88.826	26.017	1338.322	1084.284
89.841	26.054	1337.075	1083.399
90.855	26.152	1335.650	1082.736
91.870	26.177	1334.852	1082.146
92.884	26.120	1334.250	1081.217
93.899	26.092	1333.333	1080.216
94.914	26.058	1332.799	1079.480
95.928	26.166	1331.756	1079.187
96.943	26.195	1330.959	1078.618
97.957	26.096	1330.546	1077.596
98.972	26.103	1329.708	1076.862
99.987	26.222	1328.709	1076.672
101.001	26.168	1327.096	1074.946
102.016	26.120	1326.283	1073.908
103.030	26.046	1325.828	1073.004
104.045	26.169	1325.126	1073.074
105.060	26.168	1324.116	1072.152
106.074	26.148	1322.909	1070.960
107.089	26.114	1321.740	1069.721
108.103	26.132	1321.136	1069.245
109.118	26.101	1319.839	1067.914
110.133	26.102	1318.795	1066.984
111.147	26.273	1317.493	1066.842
112.162	26.109	1316.841	1065.252
113.176	26.180	1315.965	1064.866
114.191	26.075	1315.265	1063.592
115.206	26.198	1313.663	1062.923
116.220	26.187	1312.762	1062.033
117.235	26.162	1311.736	1060.964
118.249	26.128	1310.770	1059.893
119.264	26.203	1309.860	1059.499
120.279	26.203	1309.258	1058.917
121.293	26.247	1308.276	1058.289
122.308	26.256	1307.458	1057.585
123.322	26.148	1307.060	1056.539
124.337	26.256	1306.214	1056.392
125.352	26.239	1305.089	1055.288
126.366	26.238	1303.981	1054.297
127.381	26.308	1303.330	1054.086
128.395	26.335	1301.969	1053.047
129.410	26.341	1301.455	1052.572
130.424	26.212	1300.946	1051.316
131.439	26.256	1299.986	1050.703
132.454	26.326	1298.790	1050.053
133.468	26.205	1298.854	1049.311
134.483	26.156	1298.124	1048.341
135.497	26.264	1297.311	1048.216
136.512	26.206	1296.210	1046.902
137.527	26.261	1295.230	1046.336
138.541	26.166	1293.941	1044.653
139.556	26.341	1292.534	1044.432
140.570	26.300	1291.583	1043.336
141.585	26.226	1290.847	1042.224
142.600	26.224	1289.750	1041.236
143.614	26.174	1289.134	1040.358
144.629	26.260	1287.863	1039.734
145.643	26.245	1286.846	1038.732
146.658	26.138	1285.804	1037.183
147.673	26.202	1284.802	1036.650
148.687	26.147	1283.927	1035.540
149.702	26.167	1282.897	1034.730
150.716	26.119	1281.680	1033.382
151.731	26.107	1280.651	1032.394
152.746	26.241	1279.601	1032.222
153.760	26.294	1278.562	1031.596
154.775	26.266	1277.885	1030.801
155.789	26.208	1276.907	1029.586
156.804	26.199	1275.644	1028.430
157.819	26.302	1275.001	1028.402
158.833	26.287	1274.118	1027.515
159.848	26.357	1273.442	1027.276
160.862	26.282	1273.015	1026.416
161.877	26.266	1272.086	1025.486
162.892	26.271	1270.944	1024.500
163.906	26.375	1270.123	1024.339
164.921	26.368	1269.594	1023.782
165.935	26.391	1268.812	1023.189
166.950	26.431	1267.865	1022.565
167.964	26.341	1267.926	1022.013
168.979	26.367	1267.280	1021.549
169.994	26.359	1266.448	1020.741
171.008	26.386	1265.666	1020.177
172.023	26.313	1265.275	1019.357
173.037	26.336	1264.584	1018.842
174.052	26.271	1263.604	1017.593
175.067	26.344	1262.883	1017.336
176.081	26.320	1262.075	1016.456
177.096	26.353	1261.493	1016.083
178.110	26.295	1260.560	1014.919
179.125	26.352	1259.442	1014.247
180.140	26.444	1258.068	1013.568
181.154	26.442	1256.888	1012.518
182.169	26.392	1256.208	1011.599
183.183	26.196	1255.835	1010.115
184.198	26.369	1254.010	1009.519
185.213	26.322	1253.868	1009.053
186.227	26.387	1252.612	1008.318
187.242	26.480	1251.180	1007.593
188.256	26.419	1250.786	1006.848
189.271	26.463	1250.002	1006.370
190.286	26.512	1248.757	1005.553
191.300	26.371	1248.723	1004.652
192.315	26.387	1248.117	1004.165
193.329	26.460	1247.652	1004.110
194.344	26.388	1247.325	1003.355
195.359	26.474	1246.586	1003.148
196.373	26.468	1245.999	1002.558
197.388	26.376	1245.597	1001.633
198.402	26.382	1245.391	1001.415
199.417	26.301	1244.980	1000.545
200.432	26.372	1244.368	1000.358
201.446	26.463	1243.210	999.843
202.461	26.449	1242.678	999.249
203.475	26.414	1241.739	998.212
204.490	26.568	1240.697	998.133
205.504	26.485	1240.022	997.043
206.519	26.535	1238.780	996.232
207.534	26.502	1237.777	995.159
208.548	26.421	1237.151	994.119
209.563	26.514	1236.131	993.723
210.577	26.397	1235.545	992.523
211.592	26.518	1234.510	992.268
212.607	26.479	1233.879	991.459
213.621	26.550	1232.899	990.973
214.636	26.599	1232.297	990.670
215.650	26.487	1231.722	989.509
216.665	26.545	1230.192	988.509
217.680	26.511	1229.877	987.981
218.694	26.606	1229.091	987.778
219.709	26.514	1228.469	986.690
220.723	26.678	1227.461	986.688
221.738	26.502	1226.744	985.067
222.753	26.497	1226.364	984.647
223.767	26.608	1225.610	984.558
224.782	26.630	1225.058	984.147
225.796	26.662	1224.581	983.847
226.811	26.617	1224.042	983.085
227.826	26.492	1223.899	982.206
228.840	26.593	1222.506	981.547
229.855	26.659	1221.892	981.323
230.869	26.676	1221.445	980.971
231.884	26.689	1220.286	980.026
232.899	26.620	1219.159	978.660
233.913	26.605	1219.529	978.789
234.928	26.837	1218.378	979.033
235.942	26.703	1218.039	977.950
236.957	26.697	1217.311	977.242
237.972	26.544	1216.970	976.059
238.986	26.620	1216.073	975.664
240.001	26.656	1215.755	975.517
241.015	26.829	1214.588	975.425
242.030	26.891	1213.702	974.957
243.045	26.775	1213.437	974.038
244.059	26.764	1212.665	973.272
245.074	26.899	1211.367	972.866
246.088	26.853	1210.618	971.934
247.103	26.938	1209.869	971.702
248.117	26.737	1209.729	970.428
249.132	26.781	1208.858	969.878
250.147	26.964	1207.990	970.075
251.161	26.882	1207.184	968.901
252.176	26.832	1206.603	968.083
253.190	26.893	1206.000	967.837
254.205	26.892	1205.250	967.149
255.220	26.807	1205.161	966.534
256.234	26.803	1204.330	965.764
257.249	26.793	1203.596	965.037
258.263	26.901	1203.046	965.081
259.278	26.888	1202.497	964.490
260.293	26.921	1201.703	963.942
261.307	26.970	1201.206	963.717
262.322	26.854	1200.726	962.632
263.336	27.018	1199.924	962.772
264.351	26.977	1199.382	962.036
265.366	26.812	1198.738	960.563
266.380	27.030	1197.763	960.846
267.395	26.955	1197.249	959.953
268.409	26.918	1196.761	959.281
269.424	26.945	1196.225	958.908
270.439	26.995	1195.628	958.611
271.453	26.972	1195.022	957.920
272.468	27.048	1194.035	957.442
273.482	26.884	1193.403	955.990
274.497	27.001	1193.041	956.230
275.512	27.125	1192.303	956.208
276.526	27.001	1191.980	955.209
277.541	26.980	1191.129	954.335
278.555	27.033	1190.214	953.795
279.570	27.033	1189.370	953.033
280.585	26.930	1189.009	952.120
281.599	27.020	1188.336	951.970
282.614	26.942	1187.619	950.899
283.628	27.101	1186.150	950.473
284.643	27.048	1185.619	949.688
285.657	27.135	1184.501	949.163
286.672	27.060	1183.912	948.214
287.687	27.074	1183.246	947.667
288.701	27.139	1182.609	947.413
289.716	27.209	1181.764	947.017
290.730	27.259	1181.019	946.599
291.745	27.251	1180.372	945.953
292.760	27.232	1179.947	945.429
293.774	27.169	1179.697	944.820
294.789	27.094	1179.212	943.957
295.803	27.330	1177.964	944.102
296.818	27.211	1177.599	943.106
297.833	27.253	1177.194	942.915
298.847	27.244	1176.314	942.082
299.862	27.407	1175.122	941.888
300.876	27.286	1174.850	940.960
301.891	27.368	1173.874	940.519
302.906	27.402	1173.324	940.172
303.920	27.490	1172.592	939.954
304.935	27.314	1172.261	938.700
305.949	27.342	1171.674	938.290
306.964	27.270	1171.262	937.507
307.979	27.252	1170.777	936.939
308.993	27.391	1169.767	936.764
310.008	27.413	1168.880	936.084
311.022	27.403	1167.989	935.240
312.037	27.484	1167.420	935.117
313.052	27.358	1166.614	933.738
314.066	27.376	1165.881	933.162
315.081	27.478	1165.316	933.152
316.095	27.435	1164.722	932.373
317.110	27.440	1163.843	931.613
318.125	27.477	1163.499	931.444
319.139	27.539	1162.798	931.116
320.154	27.469	1161.932	929.981
321.168	27.496	1161.522	929.711
322.183	27.556	1160.861	929.405
323.197	27.379	1160.730	928.318
324.212	27.464	1159.793	927.918
325.227	27.463	1159.605	927.681
326.241	27.559	1158.566	927.256
327.256	27.529	1158.029	926.588
328.270	27.536	1157.199	925.878
329.285	27.589	1156.292	925.343
330.300	27.517	1155.680	924.404
331.314	27.525	1154.822	923.676
332.329	27.623	1153.970	923.410
333.343	27.651	1153.303	922.937
334.358	27.566	1152.443	921.737
335.373	27.587	1151.945	921.365
336.387	27.689	1151.207	921.208
337.402	27.667	1150.576	920.507
338.416	27.645	1149.792	919.690
339.431	27.814	1148.816	919.680
340.446	27.737	1148.516	918.971
341.460	27.735	1147.803	918.310
342.475	27.746	1147.457	918.007
343.489	27.747	1146.164	916.895
344.504	27.697	1145.226	915.809
345.519	27.725	1144.684	915.437
346.533	27.838	1143.703	915.138
347.548	27.844	1142.890	914.436
348.562	27.873	1142.033	913.816
349.577	27.777	1141.758	913.035
350.592	27.612	1141.197	911.680
351.606	27.666	1140.245	911.109
352.621	27.822	1139.648	911.330
353.635	27.889	1138.825	910.924
354.650	27.776	1138.630	910.123
355.665	27.960	1137.782	910.283
356.679	27.901	1137.082	909.349
357.694	27.942	1136.941	909.360
358.708	27.910	1135.996	908.364
359.723	27.922	1134.970	907.523
360.738	27.946	1134.457	907.150
361.752	27.923	1134.669	907.125
362.767	27.919	1133.594	906.169
363.781	27.991	1133.202	906.131
364.796	27.985	1132.925	905.802
365.810	27.853	1132.143	904.440
366.825	28.021	1130.865	904.169
367.840	28.035	1130.919	904.201
368.854	28.058	1130.254	903.703
369.869	28.058	1129.653	903.143
370.883	28.210	1128.382	902.799
371.898	28.107	1127.967	901.877
372.913	28.039	1127.471	901.065
373.927	28.143	1127.178	901.263
374.942	28.141	1126.446	900.592
375.956	28.128	1126.006	900.094
376.971	28.163	1125.503	899.785
377.986	28.050	1124.918	898.683
379.000	28.100	1124.527	898.537
380.015	28.078	1124.403	898.250
381.029	28.127	1123.142	897.404
382.044	28.147	1122.314	896.762
383.059	28.169	1121.718	896.310
384.073	28.262	1120.961	896.082
385.088	28.160	1120.400	895.059
386.102	28.222	1119.109	894.249
387.117	28.204	1118.661	893.726
388.132	28.229	1117.316	892.692
389.146	28.307	1116.941	892.693
390.161	28.258	1116.394	891.940
391.175	28.332	1115.921	891.841
392.190	28.210	1114.862	890.325
393.205	28.297	1113.969	889.956
394.219	28.338	1113.634	889.809
395.234	28.287	1112.895	888.891
396.248	28.357	1112.195	888.593
397.263	28.431	1111.097	887.995
398.278	28.279	1110.719	886.878
399.292	28.435	1109.780	886.804
400.307	28.542	1109.170	886.758
401.321	28.492	1108.863	886.191
402.336	28.389	1108.174	885.066
403.350	28.353	1107.186	884.025
404.365	28.422	1107.031	884.153
405.380	28.502	1105.964	883.610
406.394	28.498	1105.293	882.975
407.409	28.460	1104.833	882.348
408.423	28.523	1104.084	881.972
409.438	28.560	1103.218	881.384
410.453	28.608	1102.319	880.815
411.467	28.554	1101.963	880.194
412.482	28.613	1101.278	879.854
413.496	28.760	1100.248	879.657
414.511	28.619	1099.874	878.603
415.526	28.550	1099.761	878.103
416.540	28.553	1099.158	877.559
417.555	28.551	1099.119	877.441
418.569	28.602	1098.239	876.905
419.584	28.600	1097.718	876.402
420.599	28.677	1097.606	876.604
421.613	97.237	1311.844	1420.253
422.628	90.897	1343.043	1420.370
