DTS Sentinel unit serial number:	SN413079Multiplexer serial number:	ORYXHardware model number:	OX4-SRSoftware version number:	ORYX F/W v4.00 Oryx Data Collector v3.7.2.0data status	okinstallation	princeton_trtdifferential loss correction	single-endedforward channel	channel 2reverse channel	N/Adate	2019/09/12time	19:59:49forward acquisition time	15.00reverse acquisition time	0.00gamma	496.2192k internal	0.2328k external	0.2328temperature offset calibration	1.0162default loss term (dB/km)	0.3790temperature slope calibration	1.0000multiplexer offset coefficient	1.0000multiplexer slope coefficient	1.0000fibre end	0.00T internal ref (°C)	31.81T ext. ref 1 (°C)	3.55T ext. ref 2 (°C)	26.37length (m)	temperature (°C)	Stokes	anti-Stokes-747.200	110.209	-0.402	-0.486
-746.185	-66.466	-0.316	0.126
-745.171	-40.400	-0.539	-0.282
-744.156	97.482	-0.382	-0.443
-743.142	-106.773	0.751	-0.168
-742.127	-200.000	-0.096	0.434
-741.112	87.712	-0.437	0.488
-740.098	287.128	-0.126	-0.229
-739.083	-126.049	-0.670	0.101
-738.069	-200.000	-0.027	-0.379
-737.054	-200.000	-0.026	0.543
-736.039	-200.000	0.043	0.194
-735.025	-69.980	0.392	0.150
-734.010	-200.000	0.074	0.705
-732.996	-113.870	-0.380	0.074
-731.981	-200.000	-0.061	-0.517
-730.966	172.132	0.333	0.482
-729.952	-200.000	0.068	0.325
-728.937	13.917	-0.443	-0.347
-727.923	-118.481	-0.919	0.164
-726.908	-5.119	0.347	-0.241
-725.894	207.984	-0.165	0.260
-724.879	-64.900	-0.590	0.240
-723.864	-165.361	0.691	0.031
-722.850	800.000	-0.178	0.496
-721.835	-24.634	0.449	-0.269
-720.821	800.000	-0.154	-0.452
-719.806	352.471	0.099	-0.197
-718.791	27.725	-0.440	0.373
-717.777	800.000	0.037	0.153
-716.762	3.900	-0.561	-0.413
-715.748	-200.000	0.131	-0.906
-714.733	41.847	0.107	-0.098
-713.718	39.123	-0.234	-0.211
-712.704	-83.655	1.177	0.378
-711.689	66.327	0.526	-0.538
-710.675	-16.546	0.165	-0.105
-709.660	0.212	-0.239	-0.171
-708.645	800.000	-0.109	-0.431
-707.631	34.250	-0.285	0.250
-706.616	-102.553	-0.566	0.136
-705.602	40.350	-0.362	0.327
-704.587	177.443	-0.447	-0.655
-703.572	732.825	0.124	0.335
-702.558	-158.323	0.141	0.008
-701.543	-200.000	0.124	0.697
-700.529	629.553	0.118	0.299
-699.514	800.000	0.047	0.143
-698.499	-114.424	-0.458	-0.089
-697.485	-172.783	-0.190	-0.006
-696.470	-170.185	-0.461	0.016
-695.456	176.757	0.087	0.128
-694.441	-200.000	-0.001	0.076
-693.426	-200.000	-0.049	-0.331
-692.412	-113.082	-0.520	0.103
-691.397	37.568	-0.893	0.797
-690.383	-131.045	0.602	0.081
-689.368	102.722	-0.436	-0.513
-688.354	-200.000	0.055	-0.646
-687.339	-99.902	0.112	-0.028
-686.324	136.910	-0.158	0.208
-685.310	-154.278	-0.324	0.022
-684.295	1.509	0.606	-0.438
-683.281	-82.968	0.476	0.154
-682.266	503.835	-0.292	0.680
-681.251	103.248	-0.394	0.465
-680.237	-173.286	-0.659	0.020
-679.222	100.125	0.311	0.363
-678.208	800.000	0.117	-0.504
-677.193	800.000	0.204	0.781
-676.178	58.564	0.366	0.361
-675.164	75.112	0.372	-0.394
-674.149	-70.080	0.124	-0.047
-673.135	608.121	0.334	-0.838
-672.120	278.758	0.257	-0.461
-671.105	-200.000	0.063	-0.665
-670.091	66.969	-0.217	0.222
-669.076	-200.000	-0.011	-0.048
-668.062	46.177	-0.267	0.248
-667.047	-85.656	-0.258	-0.080
-666.032	-200.000	-0.075	0.428
-665.018	539.607	0.217	-0.519
-664.003	314.854	0.154	-0.292
-662.989	-200.000	-0.027	-0.546
-661.974	-137.331	0.294	-0.034
-660.959	-200.000	-0.078	-0.496
-659.945	71.796	0.268	-0.280
-658.930	25.558	0.096	-0.080
-657.916	800.000	-0.203	-0.643
-656.901	-30.431	0.396	0.225
-655.886	800.000	0.143	-0.625
-654.872	-36.759	-0.184	0.099
-653.857	800.000	0.223	-0.696
-652.843	-200.000	-0.138	-1.109
-651.828	-92.677	-0.918	0.258
-650.814	327.593	0.399	-0.769
-649.799	800.000	-0.181	-0.744
-648.784	199.542	0.253	-0.390
-647.770	-129.947	-0.083	-0.011
-646.755	-126.474	0.084	0.013
-645.741	800.000	-0.142	-0.429
-644.726	63.012	0.475	0.477
-643.711	-98.198	-0.449	-0.116
-642.697	-200.000	0.136	-0.608
-641.682	54.383	-0.357	-0.345
-640.668	800.000	-0.138	-0.423
-639.653	-200.000	-0.199	-0.949
-638.638	217.601	0.145	0.232
-637.624	505.762	-0.020	-0.047
-636.609	-95.042	0.671	0.182
-635.595	-72.240	-0.718	0.267
-634.580	-179.495	-0.676	0.015
-633.565	-166.283	-0.412	-0.017
-632.551	-114.521	1.011	-0.195
-631.536	-117.800	1.238	0.223
-630.522	-122.636	-0.542	-0.088
-629.507	521.751	0.252	-0.594
-628.492	800.000	-0.127	0.434
-627.478	56.851	0.213	0.208
-626.463	-200.000	0.005	-0.297
-625.449	-200.000	0.058	-0.827
-624.434	63.193	0.308	-0.309
-623.419	218.656	-0.411	-0.659
-622.405	-161.433	0.304	0.016
-621.390	36.090	0.254	0.224
-620.376	15.630	-0.217	0.171
-619.361	-200.000	0.119	-0.639
-618.346	-200.000	0.138	-0.804
-617.332	517.894	-0.295	0.692
-616.317	800.000	0.102	0.435
-615.303	-81.074	0.573	0.190
-614.288	800.000	-0.160	0.489
-613.273	107.490	-0.265	0.317
-612.259	-55.100	0.266	0.120
-611.244	-26.906	0.203	-0.119
-610.230	-200.000	-0.124	0.754
-609.215	-200.000	-0.022	-0.772
-608.201	-200.000	-0.056	0.601
-607.186	-128.469	0.548	-0.078
-606.171	800.000	0.220	-0.613
-605.157	-55.850	-0.553	-0.247
-604.142	80.005	-0.513	0.553
-603.128	-57.535	0.500	0.220
-602.113	-36.662	0.329	0.177
-601.098	266.311	0.281	0.492
-600.084	297.882	-0.203	0.373
-599.069	-200.000	-0.009	-0.693
-598.055	-9.680	-0.408	-0.273
-597.040	800.000	-0.130	-0.371
-596.025	-200.000	0.113	-0.599
-595.011	-145.901	0.969	0.086
-593.996	-200.000	0.042	0.599
-592.982	800.000	-0.142	0.479
-591.967	437.773	0.015	-0.034
-590.952	94.139	0.753	0.856
-589.938	-200.000	-0.020	-0.372
-588.923	436.602	-0.256	-0.559
-587.909	-116.048	-0.714	0.133
-586.894	36.389	0.224	0.198
-585.879	614.068	0.356	0.893
-584.865	291.769	0.103	0.189
-583.850	-200.000	-0.004	-0.211
-582.836	-110.772	-0.243	-0.050
-581.821	145.232	-0.176	-0.236
-580.806	-52.645	-0.678	-0.313
-579.792	-30.449	0.352	-0.200
-578.777	-45.479	-0.159	-0.079
-577.763	-161.639	1.035	-0.053
-576.748	-114.891	-0.712	-0.136
-575.733	-18.138	-0.608	-0.381
-574.719	-103.732	-0.552	-0.129
-573.704	-200.000	-0.011	-0.219
-572.690	-97.197	-0.813	-0.212
-571.675	-11.382	0.338	-0.223
-570.661	57.754	-0.551	-0.540
-569.646	-11.702	-0.455	-0.299
-568.631	278.934	-0.164	-0.292
-567.617	-2.146	-0.386	0.271
-566.602	-52.283	0.175	0.081
-565.588	492.262	-0.450	1.032
-564.573	-65.153	-0.430	0.174
-563.558	-110.933	-0.208	0.043
-562.544	-71.685	0.453	0.169
-561.529	-23.362	0.251	0.151
-560.515	134.507	0.286	-0.371
-559.500	562.477	-0.415	-1.005
-558.485	474.606	0.233	-0.525
-557.471	800.000	-0.174	-0.609
-556.456	-131.863	0.369	-0.048
-555.442	9.132	-0.559	0.422
-554.427	-48.093	0.546	-0.264
-553.412	34.780	-0.561	0.491
-552.398	800.000	0.045	0.128
-551.383	-84.467	0.545	-0.172
-550.369	-200.000	0.067	0.530
-549.354	614.132	-0.354	0.886
-548.339	328.629	0.230	0.441
-547.325	-101.380	-0.481	-0.117
-546.310	-200.000	0.079	-0.580
-545.296	800.000	0.133	0.366
-544.281	-151.864	0.861	-0.063
-543.266	-15.249	0.435	-0.278
-542.252	-32.968	0.138	-0.077
-541.237	-3.258	0.374	-0.261
-540.223	-97.193	-1.096	-0.286
-539.208	-90.813	0.194	0.056
-538.193	321.368	0.141	-0.268
-537.179	-200.000	0.022	-0.356
-536.164	-46.086	0.546	-0.269
-535.150	-200.000	0.114	-0.718
-534.135	-90.323	0.204	0.059
-533.121	-60.951	0.641	0.271
-532.106	-61.429	-0.692	-0.291
-531.091	276.975	-0.048	0.085
-530.077	-200.000	0.002	0.546
-529.062	-100.345	0.918	0.228
-528.048	-200.000	-0.014	-0.193
-527.033	-200.000	-0.094	0.740
-526.018	32.387	0.293	0.253
-525.004	-110.762	0.389	-0.080
-523.989	-92.922	0.286	0.080
-522.975	-0.414	-0.162	-0.115
-521.960	31.929	0.520	-0.447
-520.945	241.616	0.530	0.884
-519.931	-200.000	-0.125	0.854
-518.916	-17.219	-0.316	0.199
-517.902	800.000	0.110	0.438
-516.887	484.634	-0.156	-0.355
-515.872	-200.000	0.011	1.227
-514.858	11.994	-0.451	0.347
-513.843	-18.215	-0.173	-0.108
-512.829	-34.207	0.938	0.514
-511.814	67.815	-0.278	-0.283
-510.799	80.521	0.058	-0.062
-509.785	-200.000	-0.087	0.434
-508.770	-172.680	0.129	0.004
-507.756	-1.020	-0.241	0.170
-506.741	794.709	-0.164	-0.450
-505.726	800.000	-0.344	-1.069
-504.712	-200.000	-0.043	-0.672
-503.697	-85.137	-0.552	0.172
-502.683	800.000	-0.091	0.345
-501.668	144.236	-0.479	0.638
-500.653	-200.000	0.028	-0.570
-499.639	473.585	-0.112	-0.252
-498.624	800.000	-0.048	-0.196
-497.610	369.923	0.256	-0.517
-496.595	3.810	-0.374	-0.273
-495.581	-59.913	-0.079	0.034
-494.566	800.000	-0.180	0.716
-493.551	-66.685	0.220	0.087
-492.537	462.940	-0.116	-0.259
-491.522	20.016	0.256	0.206
-490.508	46.102	-0.760	0.702
-489.493	140.356	-0.123	0.162
-488.478	-83.582	-0.620	0.198
-487.464	-76.637	-0.211	-0.074
-486.449	74.686	0.202	-0.212
-485.435	-58.942	0.301	-0.130
-484.420	5.505	-0.842	-0.620
-483.405	-27.787	-0.268	0.155
-482.391	636.907	-0.188	0.475
-481.376	177.982	0.364	-0.530
-480.362	-180.401	0.378	0.008
-479.347	-44.314	-0.508	-0.254
-478.332	15.295	-0.554	-0.434
-477.318	-200.000	-0.130	0.630
-476.303	121.471	-0.184	0.228
-475.289	314.390	-0.137	-0.258
-474.274	-200.000	0.000	-0.496
-473.259	203.263	0.724	-1.117
-472.245	-200.000	0.026	0.308
-471.230	-82.665	-0.565	0.182
-470.216	555.599	-0.132	-0.316
-469.201	800.000	0.125	0.431
-468.186	767.387	0.103	0.279
-467.172	-5.258	0.237	-0.163
-466.157	109.586	0.211	-0.252
-465.143	-54.842	-0.367	0.165
-464.128	-2.747	0.257	0.179
-463.113	-200.000	0.024	0.663
-462.099	329.874	-0.244	0.468
-461.084	428.365	-0.165	0.354
-460.070	165.076	0.552	-0.776
-459.055	-59.154	0.115	-0.049
-458.040	-128.335	-0.859	0.122
-457.026	-200.000	0.017	0.479
-456.011	-111.995	-0.852	-0.171
-454.997	-24.931	0.423	-0.250
-453.982	-200.000	-0.021	-0.700
-452.968	-200.000	0.211	0.990
-451.953	-67.513	0.084	-0.033
-450.938	-200.000	0.017	-0.601
-449.924	0.605	-0.613	-0.437
-448.909	-19.809	-0.526	0.324
-447.895	-115.949	0.628	0.117
-446.880	-133.745	-0.395	-0.049
-445.865	-72.163	0.383	0.142
-444.851	-194.459	0.871	0.007
-443.836	96.222	-0.222	-0.252
-442.822	800.000	0.115	-0.448
-441.807	371.030	0.103	-0.207
-440.792	-95.709	0.599	0.159
-439.778	-63.139	-0.593	0.243
-438.763	-135.855	-0.593	-0.070
-437.749	190.251	-0.245	0.367
-436.734	16.118	-0.589	-0.462
-435.719	-35.215	0.592	0.321
-434.705	-126.954	-1.235	0.181
-433.690	-200.000	-0.257	-1.246
-432.676	800.000	0.264	0.889
-431.661	-200.000	-0.107	0.529
-430.646	-41.107	0.464	0.238
-429.632	602.767	0.255	0.631
-428.617	73.022	0.568	0.591
-427.603	-5.160	-0.673	0.461
-426.588	-200.000	0.051	-0.529
-425.573	-177.311	0.486	0.012
-424.559	-24.794	-0.424	0.250
-423.544	-74.687	0.376	0.134
-422.530	-200.000	0.052	0.496
-421.515	800.000	0.213	-0.811
-420.500	35.890	0.442	-0.387
-419.486	-200.000	0.023	-0.702
-418.471	17.152	-0.386	-0.305
-417.457	-200.000	0.449	-0.002
-416.442	-26.175	1.121	-0.655
-415.428	74.237	0.752	-0.786
-414.413	53.091	-0.616	0.586
-413.398	-174.958	-0.442	-0.012
-412.384	-44.947	0.373	0.185
-411.369	-86.214	0.659	-0.202
-410.355	145.482	-0.357	0.475
-409.340	800.000	-0.108	0.324
-408.325	-35.786	-0.771	0.416
-407.311	-5.992	-0.176	0.120
-406.296	-200.000	0.011	0.123
-405.282	20.347	0.210	-0.169
-404.267	-200.000	0.164	0.837
-403.252	20.843	-0.175	0.141
-402.238	660.582	0.323	0.827
-401.223	800.000	0.097	0.286
-400.209	162.391	-0.269	0.375
-399.194	0.343	0.592	0.420
-398.179	346.400	0.096	-0.187
-397.165	-42.078	0.228	0.116
-396.150	-84.646	0.554	-0.173
-395.136	-74.802	-0.163	-0.058
-394.121	183.850	-0.651	0.957
-393.106	38.592	-0.196	-0.174
-392.092	18.935	-0.634	0.505
-391.077	-119.958	-0.627	0.107
-390.063	800.000	0.025	0.091
-389.048	83.690	0.505	0.547
-388.033	-7.658	0.339	-0.228
-387.019	647.254	0.224	0.568
-386.004	192.667	0.159	0.239
-384.990	271.359	-0.305	0.534
-383.975	800.000	0.179	-0.491
-382.960	-65.766	0.536	-0.213
-381.946	643.434	0.119	-0.301
-380.931	23.622	-0.627	-0.513
-379.917	800.000	0.393	1.143
-378.902	33.880	0.569	-0.492
-377.888	-28.390	-0.464	0.266
-376.873	-128.401	-0.570	0.081
-375.858	-37.455	-0.179	-0.095
-374.844	800.000	0.105	0.358
-373.829	171.597	0.121	0.173
-372.815	-140.864	0.255	-0.026
-371.800	800.000	-0.040	-0.139
-370.785	51.269	0.219	0.207
-369.771	35.001	0.235	0.204
-368.756	6.966	-0.377	-0.279
-367.742	-128.736	-0.959	-0.134
-366.727	103.895	-0.618	0.721
-365.712	-169.808	0.276	-0.010
-364.698	280.965	0.334	0.594
-363.683	-8.659	-0.609	0.406
-362.669	-132.818	-0.279	0.035
-361.654	-86.596	0.473	0.144
-360.639	-200.000	-0.144	0.844
-359.625	13.650	-0.448	-0.345
-358.610	-116.186	-0.277	0.051
-357.596	-190.101	-0.480	-0.005
-356.581	37.666	-0.791	0.697
-355.566	-145.587	0.504	-0.045
-354.552	-33.747	0.466	-0.255
-353.537	-74.106	-0.314	-0.113
-352.523	-119.983	0.312	-0.053
-351.508	-49.473	-0.664	-0.314
-350.493	205.703	0.626	-0.965
-349.479	116.164	0.527	-0.640
-348.464	800.000	0.064	-0.255
-347.450	-17.698	0.267	0.167
-346.435	118.143	-0.077	-0.094
-345.420	10.364	-0.600	-0.453
-344.406	-157.742	-0.442	-0.026
-343.391	45.960	-0.328	-0.301
-342.377	-200.000	-0.000	0.275
-341.362	16.919	-0.186	0.146
-340.348	-46.218	-0.323	-0.157
-339.333	-165.782	0.782	0.033
-338.318	463.171	0.278	0.615
-337.304	-121.528	-0.070	-0.012
-336.289	-76.257	-0.192	0.067
-335.275	21.709	-0.429	0.347
-334.260	-69.647	0.558	0.212
-333.245	41.181	0.651	-0.583
-332.231	-111.468	-0.326	-0.066
-331.216	800.000	0.064	0.261
-330.202	800.000	-0.037	0.141
-329.187	-6.654	-0.575	-0.388
-328.172	-200.000	-0.049	0.217
-327.158	-200.000	-0.073	-0.497
-326.143	-125.431	-0.495	0.075
-325.129	29.966	-0.326	0.276
-324.114	276.854	-0.151	-0.266
-323.099	-78.401	0.791	0.269
-322.085	414.630	-0.142	0.299
-321.070	86.450	0.377	0.412
-320.056	-200.000	0.009	0.607
-319.041	-118.830	0.348	0.061
-318.026	-57.469	0.624	0.271
-317.012	51.513	-0.589	0.555
-315.997	-147.218	0.699	0.059
-314.983	120.961	-0.185	0.228
-313.968	178.132	-0.327	-0.473
-312.953	800.000	0.258	0.750
-311.939	97.914	-0.291	-0.331
-310.924	281.735	-0.295	-0.524
-309.910	-25.418	0.502	-0.294
-308.895	7.907	0.642	0.477
-307.880	578.962	-0.153	-0.372
-306.866	-115.140	0.326	-0.061
-305.851	-1.958	-0.304	0.212
-304.837	-93.615	-1.121	-0.307
-303.822	-200.000	-0.040	0.793
-302.807	-142.584	0.190	-0.018
-301.793	14.497	-0.602	0.466
-300.778	-106.131	0.904	0.201
-299.764	-37.237	0.792	0.419
-298.749	800.000	-0.290	0.862
-297.735	-40.462	0.723	-0.372
-296.720	-200.000	0.070	0.312
-295.705	-132.260	-0.751	-0.096
-294.691	800.000	0.182	-0.577
-293.676	-0.753	0.267	-0.188
-292.662	13.739	0.764	0.587
-291.647	-200.000	-0.064	-0.290
-290.632	50.655	0.319	0.299
-289.618	-8.596	0.461	0.307
-288.603	304.311	-0.103	-0.189
-287.589	13.212	-0.478	-0.366
-286.574	-103.636	-0.807	0.187
-285.559	115.286	-0.261	-0.316
-284.545	51.043	0.559	-0.524
-283.530	254.849	-0.187	0.317
-282.516	-112.962	-0.455	0.089
-281.501	59.949	-0.551	-0.539
-280.486	13.130	-0.794	-0.608
-279.472	800.000	0.209	0.899
-278.457	4.979	0.560	-0.408
-277.443	-5.259	0.493	0.335
-276.428	-200.000	-0.116	-0.625
-275.413	-56.451	-0.440	-0.193
-274.399	800.000	-0.263	-0.773
-273.384	-200.000	0.009	0.161
-272.370	-71.696	-0.315	-0.116
-271.355	-19.900	0.495	-0.302
-270.340	2.990	0.151	0.109
-269.326	-0.065	-1.074	-0.756
-268.311	189.647	-0.124	0.184
-267.297	299.815	0.216	-0.394
-266.282	-200.000	0.115	0.959
-265.267	-59.109	0.356	-0.152
-264.253	-109.638	-0.249	-0.052
-263.238	745.078	-0.160	-0.426
-262.224	-118.295	0.245	0.043
-261.209	475.414	-0.133	-0.298
-260.195	322.981	-0.112	0.212
-259.180	-61.887	-0.322	-0.133
-258.165	-60.654	-0.320	-0.134
-257.151	-16.632	-0.467	0.292
-256.136	-200.000	0.048	0.402
-255.122	20.136	-0.365	-0.291
-254.107	-4.622	0.476	-0.325
-253.092	210.304	-0.135	-0.209
-252.078	-25.232	-0.654	0.383
-251.063	-200.000	-0.069	-0.707
-250.049	-172.547	0.740	-0.023
-249.034	241.458	-0.261	0.430
-248.019	800.000	0.109	0.369
-247.005	645.600	0.239	0.604
-245.990	-162.042	0.578	-0.029
-244.976	-48.733	0.754	0.358
-243.961	-200.000	-0.002	1.074
-242.946	-48.567	-0.688	-0.327
-241.932	99.937	0.477	-0.547
-240.917	-12.436	0.221	-0.143
-239.903	-121.242	-0.412	-0.068
-238.888	52.108	-0.163	0.154
-237.873	-200.000	0.001	0.211
-236.859	-58.229	-0.358	0.154
-235.844	-77.432	0.223	0.077
-234.830	-58.885	0.793	-0.339
-233.815	-76.202	0.143	0.050
-232.800	10.934	0.711	-0.537
-231.786	800.000	-0.183	0.573
-230.771	-200.000	0.187	-1.060
-229.757	-122.761	0.405	-0.065
-228.742	240.461	-0.354	-0.584
-227.727	374.853	-0.308	0.620
-226.713	22.706	0.544	-0.440
-225.698	-21.984	-0.829	-0.498
-224.684	35.992	0.183	-0.159
-223.669	62.333	-0.621	0.612
-222.655	-154.156	-0.352	0.024
-221.640	28.441	0.083	-0.069
-220.625	144.210	0.513	-0.676
-219.611	86.044	-0.599	-0.651
-218.596	-159.002	0.830	0.046
-217.582	163.133	-0.297	0.412
-216.567	50.097	0.575	0.536
-215.552	364.260	0.340	-0.675
-214.538	-12.206	0.603	-0.390
-213.523	-54.595	-0.104	0.046
-212.509	58.650	0.282	0.274
-211.494	442.618	0.263	0.568
-210.479	235.988	0.294	0.480
-209.465	208.615	-0.164	0.253
-208.450	9.807	-0.541	0.405
-207.436	-200.000	0.180	-1.034
-206.421	233.450	-0.391	-0.635
-205.406	-200.000	0.059	0.602
-204.392	142.130	0.631	0.826
-203.377	791.827	0.206	-0.560
-202.363	-144.797	-0.786	-0.071
-201.348	800.000	-0.361	-1.184
-200.333	137.943	0.314	-0.407
-199.319	507.379	0.388	0.888
-198.304	106.660	0.593	0.694
-197.290	-200.000	-0.006	0.439
-196.275	-200.000	0.054	0.603
-195.260	-200.000	-0.030	-0.367
-194.246	800.000	-0.232	-0.676
-193.231	-96.904	0.452	0.117
-192.217	98.586	0.321	0.365
-191.202	53.831	0.303	-0.287
-190.187	449.856	-0.116	-0.252
-189.173	483.340	0.330	-0.739
-188.158	-200.000	-0.075	-0.347
-187.144	5.444	0.281	0.205
-186.129	-161.211	0.465	0.024
-185.114	-200.000	0.043	0.477
-184.100	399.005	-0.300	-0.618
-183.085	-96.810	0.693	-0.180
-182.071	511.676	-0.150	0.344
-181.056	324.946	0.588	-1.108
-180.042	800.000	-0.048	-0.142
-179.027	96.398	0.084	-0.095
-178.012	-38.459	0.270	0.141
-176.998	-82.533	-0.293	0.094
-175.983	800.000	0.092	-0.270
-174.969	187.729	0.666	0.980
-173.954	384.432	0.267	-0.543
-172.939	207.306	-0.528	-0.812
-171.925	304.855	0.062	0.113
-170.910	324.161	-0.243	0.458
-169.896	-41.582	-0.753	0.381
-168.881	-109.531	0.596	-0.124
-167.866	-156.986	-0.139	0.008
-166.852	241.523	-0.213	-0.350
-165.837	270.522	-0.446	0.772
-164.823	236.961	0.286	-0.467
-163.808	-0.933	-0.813	0.567
-162.793	-79.592	0.257	-0.085
-161.779	800.000	-0.068	-0.193
-160.764	24.700	-0.639	-0.521
-159.750	-14.114	0.219	0.139
-158.735	-200.000	0.046	-0.578
-157.720	39.038	-0.260	0.229
-156.706	370.157	-0.091	-0.182
-155.691	75.579	0.163	-0.169
-154.677	800.000	0.209	-0.657
-153.662	800.000	-0.116	-0.461
-152.647	596.493	-0.110	0.268
-151.633	-109.381	0.293	-0.061
-150.618	-7.834	0.171	0.114
-149.604	800.000	0.106	0.304
-148.589	-42.592	0.723	-0.362
-147.574	-45.539	-0.197	-0.096
-146.560	195.973	-0.415	-0.622
-145.545	324.064	-0.090	-0.169
-144.531	-166.134	-0.954	0.040
-143.516	-200.000	-0.007	-0.227
-142.502	431.071	0.383	0.817
-141.487	604.975	0.071	0.174
-140.472	-59.255	-0.909	0.385
-139.458	-76.542	0.516	0.178
-138.443	-113.850	0.447	0.086
-137.429	-8.719	-0.441	0.291
-136.414	-200.000	0.087	0.724
-135.399	-200.000	-0.107	-0.000
-134.385	-151.408	-0.619	0.045
-133.370	-200.000	-0.008	-0.257
-132.356	223.940	-0.232	0.369
-131.341	-134.046	-0.542	-0.066
-130.326	651.881	0.362	-0.914
-129.312	-7.051	0.545	0.364
-128.297	-200.000	0.091	-1.025
-127.283	439.104	-0.252	-0.541
-126.268	172.565	-0.701	0.993
-125.253	484.901	-0.246	-0.551
-124.239	-200.000	0.141	-0.686
-123.224	800.000	-0.016	-0.060
-122.210	-200.000	-0.009	-1.163
-121.195	-144.056	-0.297	-0.027
-120.180	300.938	0.363	0.659
-119.166	-96.209	0.199	0.052
-118.151	800.000	0.363	-1.023
-117.137	136.080	-0.679	-0.870
-116.122	-144.925	0.118	0.011
-115.107	-200.000	-0.088	-0.577
-114.093	101.945	-0.178	-0.205
-113.078	-174.416	0.647	0.018
-112.064	-173.893	0.573	-0.017
-111.049	-189.249	-0.789	0.009
-110.034	-155.639	0.817	0.052
-109.020	-93.375	-0.951	0.259
-108.005	-75.210	-0.058	0.020
-106.991	738.156	-0.166	-0.438
-105.976	-200.000	0.071	-0.620
-104.962	-200.000	0.037	0.604
-103.947	371.793	0.285	-0.570
-102.932	-67.158	0.127	0.049
-101.918	193.913	-0.320	0.476
-100.903	-29.946	-0.145	0.081
-99.889	800.000	-0.345	-1.304
-98.874	-130.336	-0.428	-0.057
-97.859	208.308	-0.171	0.263
-96.845	695.608	-0.166	-0.427
-95.830	-41.286	0.256	0.130
-94.816	173.537	-0.198	-0.280
-93.801	9.632	-0.256	0.190
-92.786	104.678	0.365	0.422
-91.772	-159.604	-0.681	0.037
-90.757	133.894	0.409	0.520
-89.743	-131.045	-0.142	0.019
-88.728	65.225	-0.268	0.266
-87.713	-0.344	0.226	-0.158
-86.699	32.729	0.421	-0.358
-85.684	-101.445	0.305	-0.073
-84.670	67.923	0.450	-0.452
-83.655	-150.488	1.183	-0.089
-82.640	800.000	-0.105	0.381
-81.626	-32.705	-1.107	0.605
-80.611	-96.244	0.426	0.111
-79.597	-121.133	-0.282	-0.046
-78.582	-62.886	-0.388	-0.157
-77.567	-8.930	-0.306	-0.201
-76.553	514.629	-0.259	0.593
-75.538	-139.285	0.707	-0.075
-74.524	800.000	-0.088	-0.367
-73.509	800.000	-0.124	-0.402
-72.494	800.000	-0.250	-1.014
-71.480	563.214	-0.189	-0.449
-70.465	392.156	-0.290	-0.592
-69.451	800.000	0.132	-0.366
-68.436	-200.000	0.070	0.860
-67.422	-12.363	0.374	-0.240
-66.407	0.893	-0.309	0.217
-65.392	-200.000	-0.058	0.278
-64.378	-200.000	-0.084	0.641
-63.363	-97.058	0.658	0.169
-62.349	-152.521	-0.254	-0.018
-61.334	230.317	-0.637	-1.022
-60.319	-70.700	0.723	-0.268
-59.305	768.158	-0.303	-0.808
-58.290	-200.000	0.155	1.365
-57.276	106.221	1.094	1.271
-56.261	-200.000	96.809	600.448
-55.246	632.699	1369.926	3405.031
-54.232	200.502	2546.749	3839.817
-53.217	111.840	2250.922	2666.155
-52.203	41.150	1881.881	1668.020
-51.188	35.244	1673.501	1439.082
-50.173	32.342	1630.514	1380.797
-49.159	51.851	1680.415	1568.735
-48.144	52.404	1696.200	1587.525
-47.130	34.640	1656.982	1420.159
-46.115	31.775	1642.468	1386.502
-45.100	31.838	1636.808	1382.134
-44.086	31.708	1634.567	1379.234
-43.071	31.650	1633.649	1377.980
-42.057	31.757	1630.024	1375.653
-41.042	31.606	1628.814	1373.468
-40.027	31.588	1627.545	1372.213
-39.013	31.589	1624.419	1369.526
-37.998	31.471	1623.780	1368.072
-36.984	31.791	1621.310	1368.274
-35.969	31.806	1619.698	1366.968
-34.954	31.813	1618.495	1365.952
-33.940	31.886	1616.385	1364.646
-32.925	31.704	1614.854	1361.973
-31.911	31.744	1613.781	1361.305
-30.896	31.865	1611.592	1360.282
-29.881	31.791	1609.650	1358.057
-28.867	31.738	1608.869	1356.953
-27.852	31.946	1606.298	1356.238
-26.838	31.911	1606.000	1355.682
-25.823	31.655	1604.480	1352.493
-24.809	31.959	1602.028	1352.563
-23.794	31.892	1601.140	1351.277
-22.779	31.878	1599.155	1349.449
-21.765	31.859	1598.588	1348.782
-20.750	31.865	1597.297	1347.684
-19.736	31.999	1594.728	1346.423
-18.721	31.997	1592.957	1344.859
-17.706	31.788	1593.433	1343.708
-16.692	31.648	1590.660	1340.317
-15.677	31.981	1589.036	1341.275
-14.663	31.773	1588.698	1339.451
-13.648	31.767	1586.816	1337.770
-12.633	31.577	1586.848	1336.384
-11.619	31.759	1583.801	1335.064
-10.604	31.657	1583.201	1333.774
-9.590	31.886	1580.789	1333.320
-8.575	32.042	1578.550	1332.489
-7.560	31.971	1578.256	1331.678
-6.546	31.992	1577.187	1330.873
-5.531	31.865	1576.000	1328.925
-4.517	31.861	1575.345	1328.288
-3.502	31.987	1573.854	1327.866
-2.487	31.797	1572.907	1325.671
-1.473	31.436	1560.962	1313.021
-0.458	28.772	1541.602	1278.178
0.556	26.474	1542.162	1244.373
1.571	24.376	1564.572	1247.684
2.586	23.466	1578.195	1252.015
3.600	21.126	1524.849	1193.606
4.615	12.682	1416.888	1055.107
5.629	5.030	1353.458	960.789
6.644	3.315	1346.068	944.943
7.659	3.882	1344.115	946.959
8.673	3.588	1343.228	944.453
9.688	3.417	1341.604	942.182
10.702	3.395	1338.041	939.462
11.717	6.919	1343.602	964.821
12.731	15.806	1361.762	1032.535
13.746	23.030	1372.682	1085.241
14.761	24.708	1375.715	1097.858
15.775	24.820	1373.389	1096.592
16.790	24.257	1372.219	1092.109
17.804	23.886	1371.543	1089.202
18.819	24.079	1369.704	1088.830
19.834	23.960	1369.602	1087.921
20.848	24.127	1368.928	1088.312
21.863	24.009	1368.271	1086.972
22.877	24.153	1365.728	1085.736
23.892	23.985	1365.428	1084.378
24.907	23.845	1365.664	1083.611
25.921	23.827	1364.449	1082.443
26.936	23.793	1363.885	1081.696
27.950	23.954	1363.634	1082.378
28.965	23.849	1362.259	1080.552
29.980	24.183	1360.023	1080.712
30.994	24.116	1359.826	1080.050
32.009	24.105	1358.257	1078.640
33.023	23.805	1358.564	1076.974
34.038	24.191	1356.258	1077.384
35.053	24.110	1354.976	1075.784
36.067	23.906	1353.921	1073.620
37.082	23.868	1352.887	1072.476
38.096	23.681	1353.811	1071.981
39.111	23.839	1353.275	1072.415
40.126	24.046	1351.000	1071.764
41.140	23.629	1350.255	1068.571
42.155	23.514	1349.658	1067.312
43.169	23.402	1349.571	1066.473
44.184	23.300	1350.676	1066.636
45.199	23.554	1349.483	1067.129
46.213	23.734	1348.900	1067.659
47.228	23.922	1347.933	1067.925
48.242	23.853	1347.999	1067.470
49.257	23.976	1345.674	1066.271
50.271	23.909	1343.889	1064.361
51.286	23.823	1343.819	1063.696
52.301	23.675	1342.504	1061.676
53.315	23.750	1340.588	1060.513
54.330	23.876	1340.001	1060.706
55.344	23.560	1338.439	1057.494
56.359	23.449	1338.064	1056.443
57.374	23.557	1336.628	1055.859
58.388	23.400	1336.181	1054.481
59.403	23.324	1335.290	1053.233
60.417	23.456	1334.794	1053.532
61.432	23.534	1333.714	1053.047
62.447	23.252	1333.162	1050.846
63.461	23.276	1331.911	1049.912
64.476	23.248	1330.824	1048.791
65.490	23.291	1329.915	1048.240
66.505	23.238	1328.713	1046.884
67.520	23.336	1326.908	1045.948
68.534	23.510	1326.070	1046.221
69.549	23.114	1325.422	1043.285
70.563	22.859	1325.442	1041.703
71.578	23.354	1322.182	1041.963
72.593	23.096	1321.740	1040.004
73.607	22.636	1322.453	1037.766
74.622	23.158	1320.696	1039.360
75.636	23.015	1321.431	1039.009
76.651	23.081	1319.470	1037.761
77.666	23.159	1319.369	1038.046
78.680	23.213	1317.245	1036.600
79.695	23.185	1317.715	1036.716
80.709	23.497	1317.294	1038.121
81.724	23.434	1317.979	1038.194
82.739	23.632	1316.132	1037.807
83.753	23.754	1315.776	1038.147
84.768	24.044	1315.087	1039.205
85.782	24.181	1313.553	1038.704
86.797	23.925	1313.413	1037.009
87.812	24.087	1311.327	1036.211
88.826	24.167	1310.156	1035.661
89.841	24.130	1309.854	1035.115
90.855	23.869	1309.427	1033.170
91.870	24.439	1307.022	1034.483
92.884	24.291	1307.050	1033.554
93.899	24.387	1305.508	1032.800
94.914	23.895	1306.656	1030.770
95.928	24.284	1304.432	1031.173
96.943	24.041	1304.793	1029.962
97.957	24.221	1303.764	1030.095
98.972	24.081	1301.037	1027.044
99.987	24.005	1301.641	1026.989
101.001	24.135	1299.027	1025.587
102.016	23.911	1299.094	1024.257
103.030	23.855	1299.068	1023.826
104.045	24.093	1297.094	1023.544
105.060	23.815	1296.223	1021.175
106.074	23.770	1294.972	1019.838
107.089	23.332	1293.404	1016.000
108.103	23.358	1291.361	1014.456
109.118	23.219	1291.417	1013.616
110.133	23.275	1289.393	1012.255
111.147	23.158	1288.368	1010.694
112.162	23.167	1287.863	1010.257
113.176	23.524	1285.286	1010.184
114.191	23.359	1286.092	1009.785
115.206	23.607	1284.602	1009.936
116.220	23.717	1284.143	1010.113
117.235	23.316	1283.054	1006.888
118.249	22.999	1282.636	1004.670
119.264	23.004	1279.968	1002.518
120.279	23.461	1278.672	1004.002
121.293	23.246	1279.664	1003.476
122.308	23.062	1278.467	1001.405
123.322	23.056	1276.456	999.711
124.337	22.907	1275.417	997.964
125.352	22.949	1274.951	997.750
126.366	23.080	1274.508	998.055
127.381	23.130	1271.802	996.127
128.395	23.116	1270.939	995.284
129.410	22.716	1270.957	992.960
130.424	22.794	1270.039	992.592
131.439	23.107	1269.600	993.924
132.454	23.182	1269.078	993.847
133.468	23.284	1268.826	994.134
134.483	23.162	1268.676	993.245
135.497	23.401	1266.774	993.004
136.512	23.554	1265.319	992.631
137.527	23.440	1264.911	991.590
138.541	23.759	1263.536	992.205
139.556	23.565	1262.778	990.436
140.570	23.643	1262.048	990.212
141.585	23.725	1260.432	989.316
142.600	23.914	1260.088	990.008
143.614	23.864	1260.358	989.855
144.629	24.077	1257.899	989.018
145.643	23.926	1257.449	987.742
146.658	23.813	1256.170	986.023
147.673	23.734	1255.936	985.314
148.687	23.865	1254.251	984.628
149.702	23.377	1252.506	980.474
150.716	23.027	1250.843	977.151
151.731	23.120	1249.924	976.860
152.746	23.496	1247.539	976.983
153.760	23.531	1247.667	977.184
154.775	23.580	1247.501	977.239
155.789	23.682	1246.621	977.024
156.804	23.782	1245.466	976.586
157.819	23.708	1244.225	975.116
158.833	24.070	1243.487	976.437
159.848	23.769	1243.505	974.714
160.862	23.784	1242.862	974.206
161.877	23.498	1241.439	971.438
162.892	22.964	1240.567	967.747
163.906	23.209	1238.523	967.407
164.921	22.895	1238.740	965.774
165.935	23.401	1237.861	967.769
166.950	23.671	1236.906	968.406
167.964	23.757	1235.859	967.970
168.979	23.415	1236.118	966.227
169.994	23.654	1233.858	965.670
171.008	23.533	1233.043	964.293
172.023	23.884	1232.257	965.500
173.037	23.951	1232.393	965.882
174.052	23.822	1231.723	964.570
175.067	23.684	1230.347	962.660
176.081	23.441	1229.279	960.426
177.096	23.308	1228.783	959.229
178.110	23.378	1227.307	958.372
179.125	23.140	1227.545	957.185
180.140	23.654	1226.062	958.720
181.154	23.637	1225.686	958.253
182.169	23.546	1224.508	956.755
183.183	23.623	1223.105	955.987
184.198	23.994	1222.387	957.337
185.213	24.044	1220.290	955.880
186.227	23.944	1220.568	955.477
187.242	23.951	1218.534	953.835
188.256	24.013	1218.210	953.832
189.271	24.052	1217.914	953.726
190.286	23.821	1216.402	951.221
191.300	23.479	1216.399	949.303
192.315	23.642	1213.507	947.831
193.329	23.540	1214.610	948.067
194.344	23.588	1213.131	947.081
195.359	23.477	1212.372	945.816
196.373	23.213	1211.795	943.874
197.388	22.978	1212.045	942.731
198.402	23.631	1212.263	946.301
199.417	24.118	1212.241	948.793
200.432	23.953	1211.802	947.490
201.446	24.152	1211.168	947.967
202.461	23.998	1211.315	947.177
203.475	24.041	1208.833	945.384
204.490	24.006	1206.980	943.662
205.504	23.735	1205.165	940.726
206.519	23.615	1204.779	939.704
207.534	23.601	1203.408	938.481
208.548	23.336	1203.086	936.747
209.563	23.484	1201.799	936.443
210.577	23.508	1201.000	935.863
211.592	23.463	1200.759	935.356
212.607	24.237	1199.568	938.422
213.621	24.027	1199.381	937.089
214.636	23.827	1197.805	934.721
215.650	23.568	1198.293	933.655
216.665	23.771	1197.639	934.134
217.680	24.314	1196.385	935.923
218.694	23.904	1196.029	933.406
219.709	23.883	1195.333	932.674
220.723	23.953	1193.996	931.912
221.738	24.043	1193.598	931.991
222.753	23.922	1192.279	930.244
223.767	23.780	1191.538	928.844
224.782	24.120	1192.128	930.997
225.796	24.196	1190.674	930.180
226.811	24.069	1190.902	929.613
227.826	24.199	1189.210	928.886
228.840	23.842	1188.786	926.610
229.855	23.769	1188.072	925.594
230.869	23.795	1186.910	924.742
231.884	23.815	1185.501	923.666
232.899	23.403	1184.162	920.403
233.913	23.406	1184.055	920.255
234.928	23.416	1183.892	920.094
235.942	23.198	1183.665	918.708
236.957	23.122	1183.088	917.785
237.972	23.104	1182.074	916.822
238.986	23.211	1181.656	916.970
240.001	23.302	1180.641	916.572
241.015	23.350	1179.215	915.633
242.030	23.390	1178.288	915.038
243.045	23.697	1177.724	916.105
244.059	23.630	1178.025	915.911
245.074	23.848	1176.989	916.146
246.088	23.849	1176.456	915.660
247.103	24.285	1175.459	917.043
248.117	24.239	1174.456	915.941
249.132	24.409	1174.757	916.972
250.147	24.852	1173.234	917.975
251.161	24.780	1174.264	918.331
252.176	24.433	1174.498	916.650
253.190	24.887	1173.112	917.815
254.205	24.788	1172.826	917.003
255.220	25.168	1170.922	917.375
256.234	25.263	1170.692	917.603
257.249	24.949	1170.830	916.020
258.263	25.034	1169.493	915.329
259.278	24.556	1168.857	912.307
260.293	24.785	1169.200	913.664
261.307	24.826	1168.183	912.999
262.322	24.604	1167.893	911.561
263.336	25.079	1165.341	911.906
264.351	24.863	1166.338	911.506
265.366	24.690	1165.553	909.930
266.380	25.034	1164.847	911.045
267.395	24.839	1163.138	908.639
268.409	24.768	1163.093	908.163
269.424	24.864	1162.032	907.743
270.439	24.398	1163.015	906.064
271.453	24.551	1162.002	905.970
272.468	24.496	1160.345	904.321
273.482	24.441	1158.687	902.671
274.497	24.276	1158.905	901.922
275.512	24.361	1158.085	901.638
276.526	24.461	1156.425	900.771
277.541	24.545	1155.922	900.721
278.555	24.432	1156.254	900.328
279.570	24.658	1155.669	900.934
280.585	24.896	1154.830	901.401
281.599	24.849	1154.182	900.576
282.614	24.587	1152.872	898.157
283.628	24.888	1150.559	897.786
284.643	24.579	1151.366	896.783
285.657	24.225	1150.144	893.981
286.672	24.517	1148.346	893.966
287.687	24.704	1147.651	894.281
288.701	24.733	1147.149	893.957
289.716	24.467	1148.345	893.478
290.730	24.721	1145.611	892.540
291.745	24.474	1144.977	890.732
292.760	24.428	1146.494	891.602
293.774	24.398	1145.630	890.705
294.789	24.928	1144.151	892.116
295.803	24.775	1143.700	890.924
296.818	24.430	1142.628	888.295
297.833	24.253	1142.837	887.495
298.847	24.684	1139.968	887.330
299.862	24.578	1140.244	886.938
300.876	24.474	1139.499	885.764
301.891	24.637	1138.566	885.768
302.906	24.828	1138.619	886.677
303.920	25.040	1138.759	887.760
304.935	24.917	1138.355	886.758
305.949	24.907	1138.071	886.409
306.964	25.549	1135.628	887.599
307.979	25.101	1135.452	885.172
308.993	24.989	1135.638	884.684
310.008	24.825	1135.016	883.308
311.022	25.059	1133.034	882.842
312.037	25.054	1132.282	882.154
313.052	24.968	1130.932	880.604
314.066	24.626	1130.100	878.195
315.081	24.393	1129.907	876.822
316.095	24.134	1129.011	874.777
317.110	24.401	1127.582	874.904
318.125	24.234	1126.588	873.235
319.139	24.469	1126.527	874.262
320.154	24.266	1126.369	873.070
321.168	24.364	1125.241	872.597
322.183	24.303	1124.887	871.944
323.197	24.353	1124.403	871.738
324.212	24.799	1122.904	872.675
325.227	24.780	1121.545	871.452
326.241	24.739	1121.863	871.422
327.256	24.409	1122.133	869.943
328.270	24.307	1121.116	868.580
329.285	24.281	1120.884	868.197
330.300	24.538	1119.310	868.150
331.314	24.465	1118.580	867.155
332.329	24.436	1117.376	866.003
333.343	24.559	1116.404	865.771
334.358	24.666	1115.973	865.876
335.373	25.218	1114.668	867.457
336.387	24.966	1115.686	866.954
337.402	24.684	1115.562	865.415
338.416	24.960	1114.271	865.671
339.431	25.096	1112.734	865.060
340.446	25.144	1113.503	865.809
341.460	25.602	1112.519	867.179
342.475	25.825	1111.713	867.547
343.489	25.578	1110.187	865.093
344.504	25.756	1109.492	865.329
345.519	25.645	1109.415	864.656
346.533	25.544	1108.227	863.172
347.548	25.712	1108.373	864.014
348.562	25.290	1107.909	861.553
349.577	25.159	1105.712	859.141
350.592	24.862	1104.477	856.681
351.606	25.130	1103.511	857.140
352.621	24.829	1103.360	855.506
353.635	24.694	1102.182	853.872
354.650	24.893	1100.647	853.557
355.665	24.597	1101.501	852.730
356.679	24.715	1101.174	852.964
357.694	24.790	1101.224	853.287
358.708	25.197	1100.168	854.332
359.723	25.052	1099.704	853.205
360.738	25.240	1098.391	853.005
361.752	25.100	1098.647	852.460
362.767	25.238	1097.350	852.034
363.781	25.019	1097.460	851.007
364.796	25.380	1097.033	852.316
365.810	25.446	1096.746	852.326
366.825	25.850	1096.045	853.623
367.840	26.032	1094.785	853.427
368.854	26.217	1094.698	854.160
369.869	25.888	1094.165	852.114
370.883	25.488	1093.460	849.598
371.898	25.532	1092.909	849.299
372.913	25.502	1091.430	847.935
373.927	25.250	1091.760	846.929
374.942	25.926	1090.866	849.346
375.956	25.861	1090.108	848.375
376.971	25.567	1089.619	846.533
377.986	25.674	1088.956	846.448
379.000	25.929	1088.384	847.127
380.015	26.067	1088.288	847.627
381.029	25.899	1087.899	846.459
382.044	25.780	1087.224	845.302
383.059	26.140	1085.814	845.817
384.073	25.864	1085.286	844.035
385.088	25.827	1084.646	843.294
386.102	26.087	1084.144	844.045
387.117	25.556	1082.223	839.993
388.132	25.642	1080.463	838.956
389.146	25.247	1081.017	837.467
390.161	25.181	1079.940	836.250
391.175	25.376	1079.377	836.648
392.190	25.676	1079.296	837.908
393.205	25.651	1078.680	837.240
394.219	25.816	1077.349	836.900
395.234	25.575	1076.966	835.407
396.248	25.427	1075.532	833.535
397.263	25.514	1074.698	833.218
398.278	25.383	1074.038	832.025
399.292	25.428	1072.876	831.263
400.307	25.186	1073.152	830.280
401.321	25.223	1071.383	829.011
402.336	25.286	1069.815	828.013
403.350	24.953	1070.750	827.127
404.365	25.242	1069.494	827.415
405.380	25.417	1068.835	827.642
406.394	25.418	1068.500	827.314
407.409	25.705	1067.613	827.872
408.423	25.863	1067.800	828.671
409.438	25.998	1066.506	828.212
410.453	26.168	1066.478	828.900
411.467	25.768	1066.492	827.000
412.482	26.115	1064.875	827.263
413.496	26.202	1064.112	826.994
414.511	26.231	1063.483	826.568
415.526	26.099	1063.999	826.292
416.540	26.384	1064.052	827.564
417.555	26.330	1062.957	826.391
418.569	26.204	1061.736	824.795
419.584	25.777	1061.618	822.679
420.599	26.012	1060.687	822.959
421.613	154.427	1404.467	1793.125
422.628	141.937	1454.564	1793.197
