DTS Sentinel unit serial number:	SN413079Multiplexer serial number:	ORYXHardware model number:	OX4-SRSoftware version number:	ORYX F/W v4.00 Oryx Data Collector v3.7.2.0data status	okinstallation	princeton_trtdifferential loss correction	single-endedforward channel	channel 2reverse channel	N/Adate	2019/09/12time	08:45:11forward acquisition time	60.00reverse acquisition time	0.00gamma	496.2192k internal	0.2317k external	0.2317temperature offset calibration	1.0066default loss term (dB/km)	0.3790temperature slope calibration	1.0000multiplexer offset coefficient	1.0000multiplexer slope coefficient	1.0000fibre end	0.00T internal ref (°C)	33.91T ext. ref 1 (°C)	1.74T ext. ref 2 (°C)	30.42length (m)	temperature (°C)	Stokes	anti-Stokes-747.200	57.074	-0.122	-0.121
-746.185	800.000	0.172	0.500
-745.171	25.447	-0.157	0.132
-744.156	-200.000	0.005	0.351
-743.142	-44.331	-0.249	-0.126
-742.127	23.349	-0.174	-0.145
-741.112	158.563	-0.087	-0.122
-740.098	291.606	-0.001	0.002
-739.083	-200.000	0.030	0.180
-738.069	497.080	-0.082	0.190
-737.054	66.506	-0.302	0.311
-736.039	-200.000	-0.068	-0.305
-735.025	800.000	0.130	0.397
-734.010	96.704	-0.096	0.111
-732.996	15.322	-0.383	0.304
-731.981	-132.682	-0.170	0.022
-730.966	0.116	0.061	-0.044
-729.952	-200.000	0.005	0.144
-728.937	-79.289	0.026	0.009
-727.923	800.000	-0.039	-0.116
-726.908	60.167	0.120	0.120
-725.894	-200.000	0.008	-0.060
-724.879	-61.671	0.282	-0.119
-723.864	-108.590	-0.275	0.060
-722.850	-51.938	0.121	0.057
-721.835	-24.177	0.163	-0.099
-720.821	-182.596	-0.118	-0.002
-719.806	62.467	-0.112	0.113
-718.791	-159.827	-0.350	0.019
-717.777	-44.728	-0.136	0.069
-716.762	-200.000	0.010	-0.343
-715.748	-32.748	-0.110	-0.062
-714.733	199.554	0.101	-0.157
-713.718	800.000	-0.175	-0.519
-712.704	57.433	-0.149	-0.147
-711.689	-81.792	-0.145	-0.048
-710.675	-38.799	-0.079	-0.042
-709.660	-147.682	0.136	0.012
-708.645	196.623	-0.086	-0.133
-707.631	52.893	0.117	0.113
-706.616	-113.503	0.148	-0.029
-705.602	462.240	0.083	-0.187
-704.587	800.000	0.083	0.240
-703.572	-69.309	-0.037	-0.014
-702.558	-54.493	0.221	0.101
-701.543	-32.595	-0.365	-0.206
-700.529	-134.518	-0.213	0.026
-699.514	68.684	-0.151	0.157
-698.499	7.276	-0.391	-0.295
-697.485	-106.551	-0.110	0.025
-696.470	-126.724	-0.576	0.086
-695.456	-92.242	-0.253	-0.072
-694.441	364.076	0.082	-0.167
-693.426	290.499	-0.187	-0.343
-692.412	45.963	0.084	0.078
-691.397	-23.770	-0.193	0.117
-690.383	-189.771	0.022	-0.000
-689.368	79.260	-0.121	0.132
-688.354	-42.442	-0.128	-0.066
-687.339	52.259	-0.300	0.289
-686.324	-130.849	-0.270	-0.037
-685.310	-93.795	-0.238	0.066
-684.295	-11.558	0.397	0.263
-683.281	-88.718	-0.587	0.176
-682.266	-200.000	-0.069	0.311
-681.251	-200.000	0.044	0.314
-680.237	78.108	-0.127	-0.137
-679.222	622.338	-0.059	0.149
-678.208	-141.952	-0.304	0.031
-677.193	212.354	-0.092	-0.146
-676.178	23.246	0.046	-0.038
-675.164	14.928	-0.161	-0.127
-674.149	-200.000	0.010	-0.195
-673.135	800.000	-0.062	-0.223
-672.120	-200.000	0.010	-0.095
-671.105	800.000	0.059	-0.206
-670.091	-176.055	-0.241	0.006
-669.076	59.859	-0.466	-0.464
-668.062	-100.214	0.203	0.051
-667.047	6.908	0.171	-0.129
-666.032	-158.654	0.162	0.009
-665.018	-200.000	-0.039	0.315
-664.003	81.718	0.106	-0.115
-662.989	92.182	0.129	-0.147
-661.974	-91.641	-0.210	0.060
-660.959	800.000	-0.023	-0.102
-659.945	436.753	-0.118	0.260
-658.930	800.000	0.065	0.268
-657.916	-60.548	-0.276	0.118
-656.901	800.000	-0.027	-0.084
-655.886	52.472	0.065	-0.063
-654.872	4.681	-0.061	-0.045
-653.857	-77.918	-0.046	0.016
-652.843	-167.833	-0.623	-0.025
-651.828	-200.000	0.027	0.281
-650.814	44.480	0.123	-0.114
-649.799	-200.000	-0.030	-0.213
-648.784	-48.226	-0.202	0.098
-647.770	12.682	-0.153	0.119
-646.755	-130.607	-0.196	0.027
-645.741	-46.041	0.064	-0.032
-644.726	230.289	-0.140	0.231
-643.711	36.559	0.100	-0.089
-642.697	-27.296	-0.089	-0.053
-641.682	-163.313	-0.058	-0.003
-640.668	-97.044	-0.165	-0.044
-639.653	-75.905	-0.388	-0.139
-638.638	174.417	0.146	-0.213
-637.624	-68.983	0.464	0.180
-636.609	-152.971	-0.071	0.005
-635.595	332.714	-0.059	0.115
-634.580	-200.000	0.037	-0.236
-633.565	27.934	0.338	0.287
-632.551	-71.641	-0.082	0.031
-631.536	601.278	0.071	0.177
-630.522	-88.420	0.220	0.066
-629.507	-200.000	0.091	-0.437
-628.492	-42.067	-0.173	0.089
-627.478	-100.637	0.063	-0.016
-626.463	800.000	-0.019	-0.070
-625.449	-200.000	-0.006	-0.073
-624.434	-77.479	0.160	0.056
-623.419	-43.072	0.024	-0.012
-622.405	800.000	0.052	-0.203
-621.390	-200.000	0.021	-0.212
-620.376	82.853	0.030	-0.032
-619.361	10.866	-0.267	0.206
-618.346	-52.667	0.271	-0.126
-617.332	344.801	-0.182	-0.360
-616.317	-139.268	-0.313	0.034
-615.303	102.860	0.136	-0.161
-614.288	-83.314	-0.132	-0.043
-613.273	87.203	-0.059	-0.066
-612.259	-109.722	0.116	-0.024
-611.244	628.188	-0.081	0.206
-610.230	-200.000	0.008	-0.117
-609.215	-200.000	0.042	0.244
-608.201	100.628	0.215	0.251
-607.186	-169.449	0.070	0.003
-606.171	558.709	0.130	-0.317
-605.157	-82.396	0.082	0.027
-604.142	440.474	0.081	-0.179
-603.128	800.000	-0.104	-0.310
-602.113	-64.940	-0.299	0.122
-601.098	482.982	-0.114	-0.260
-600.084	-65.507	0.313	0.127
-599.069	-200.000	0.000	0.126
-598.055	-148.490	0.299	-0.025
-597.040	-90.197	-0.377	0.111
-596.025	-200.000	0.000	0.008
-595.011	800.000	0.075	-0.257
-593.996	-200.000	-0.021	-0.248
-592.982	-75.249	0.103	-0.037
-591.967	-7.163	0.249	0.170
-590.952	-143.754	-0.155	0.015
-589.938	83.453	0.061	0.067
-588.923	-200.000	0.013	-0.113
-587.909	94.617	-0.104	0.119
-586.894	59.848	0.084	0.083
-585.879	171.928	0.136	0.197
-584.865	-76.764	0.307	0.108
-583.850	-30.118	-0.348	-0.199
-582.836	-48.128	-0.372	0.181
-581.821	681.350	-0.024	0.064
-580.806	-94.300	0.229	0.063
-579.792	-81.668	-0.320	0.106
-578.777	800.000	0.023	-0.063
-577.763	-154.352	-0.162	0.011
-576.748	800.000	0.059	-0.240
-575.733	107.451	-0.253	-0.302
-574.719	200.182	-0.098	-0.151
-573.704	118.630	-0.127	-0.158
-572.690	800.000	0.044	0.139
-571.675	66.172	0.284	-0.290
-570.661	-106.044	-0.346	-0.078
-569.646	-200.000	-0.024	0.126
-568.631	-101.771	0.190	-0.046
-567.617	212.042	0.135	-0.213
-566.602	84.352	-0.142	0.156
-565.588	-200.000	0.034	-0.355
-564.573	-167.485	0.106	-0.004
-563.558	-200.000	0.015	-0.318
-562.544	800.000	0.073	0.223
-561.529	-200.000	-0.062	0.364
-560.515	-131.715	-0.271	-0.036
-559.500	-200.000	0.004	-0.065
-558.485	-200.000	-0.013	0.255
-557.471	-11.919	0.306	0.202
-556.456	-122.670	0.259	0.042
-555.442	8.463	0.168	0.127
-554.427	800.000	-0.092	0.312
-553.412	26.568	-0.277	0.233
-552.398	-200.000	0.094	-0.468
-551.383	-62.913	-0.253	-0.105
-550.369	155.850	0.229	-0.317
-549.354	-150.642	0.087	0.007
-548.339	92.899	0.154	-0.174
-547.325	-200.000	0.049	-0.434
-546.310	285.514	0.165	-0.299
-545.296	126.614	0.090	-0.115
-544.281	-16.955	0.195	0.124
-543.266	508.485	0.107	-0.250
-542.252	375.587	-0.068	0.139
-541.237	570.592	-0.174	0.425
-540.223	139.961	-0.184	0.244
-539.208	800.000	-0.048	0.139
-538.193	-200.000	-0.015	0.123
-537.179	-121.931	-0.274	-0.045
-536.164	268.852	0.050	-0.088
-535.150	748.881	-0.076	-0.205
-534.135	-200.000	0.033	-0.209
-533.121	568.174	-0.157	-0.383
-532.106	-98.764	-0.145	0.037
-531.091	-117.291	0.113	-0.021
-530.077	72.343	-0.017	0.017
-529.062	-98.326	-0.186	-0.048
-528.048	251.640	-0.076	-0.129
-527.033	-11.841	0.177	-0.116
-526.018	-146.499	-0.133	-0.012
-525.004	-200.000	-0.001	0.134
-523.989	-40.434	0.147	0.077
-522.975	-21.973	0.231	0.141
-521.960	-110.210	-0.390	-0.082
-520.945	-51.135	0.188	-0.089
-519.931	-48.332	0.139	-0.067
-518.916	94.568	-0.102	-0.117
-517.902	246.744	-0.089	-0.151
-516.887	-200.000	0.032	0.245
-515.872	-137.828	-0.400	0.045
-514.858	1.945	-0.179	0.130
-513.843	-188.505	-0.317	-0.004
-512.829	449.910	0.081	-0.179
-511.814	800.000	0.034	-0.122
-510.799	34.420	-0.030	0.026
-509.785	-87.820	-0.127	0.038
-508.770	800.000	-0.057	0.164
-507.756	111.346	0.092	0.112
-506.741	800.000	0.076	0.221
-505.726	79.688	0.102	-0.110
-504.712	163.805	-0.151	-0.214
-503.697	52.042	-0.071	-0.068
-502.683	800.000	0.110	-0.310
-501.668	-14.365	0.128	0.083
-500.653	174.448	0.033	0.048
-499.639	315.716	-0.095	0.179
-498.624	-200.000	-0.001	0.133
-497.610	95.283	0.159	0.182
-496.595	800.000	0.035	0.144
-495.581	800.000	0.061	-0.239
-494.566	-200.000	-0.044	-0.253
-493.551	76.603	-0.140	-0.149
-492.537	-45.045	0.142	0.071
-491.522	111.304	-0.050	-0.060
-490.508	-126.160	-0.187	0.028
-489.493	-106.839	0.186	0.041
-488.478	-146.992	0.172	0.015
-487.464	-34.719	-0.425	-0.233
-486.449	800.000	-0.067	0.201
-485.435	-157.748	0.308	-0.018
-484.420	-200.000	-0.013	0.177
-483.405	800.000	-0.069	-0.283
-482.391	637.896	0.100	-0.253
-481.376	362.979	0.138	-0.278
-480.362	-157.101	-0.195	-0.012
-479.347	-86.291	-0.233	0.072
-478.332	199.007	0.009	-0.014
-477.318	-58.819	0.231	0.100
-476.303	-20.562	0.362	-0.223
-475.289	37.173	0.134	-0.119
-474.274	-200.000	-0.040	-0.296
-473.259	99.352	0.219	-0.253
-472.245	-43.652	-0.074	-0.038
-471.230	800.000	0.086	-0.309
-470.216	-49.178	0.143	-0.069
-469.201	-66.460	0.127	-0.051
-468.186	164.704	-0.236	-0.334
-467.172	411.753	-0.204	0.434
-466.157	-93.127	0.218	0.061
-465.143	800.000	-0.059	0.168
-464.128	362.717	-0.259	0.522
-463.113	-123.871	-0.508	0.080
-462.099	800.000	-0.129	0.434
-461.084	-70.498	0.411	-0.156
-460.070	56.861	0.199	0.195
-459.055	1.184	0.197	0.142
-458.040	-179.617	-0.171	-0.004
-457.026	243.091	0.039	-0.065
-456.011	174.069	0.022	0.032
-454.997	-200.000	0.029	0.268
-453.982	800.000	-0.069	-0.213
-452.968	-26.280	0.083	0.049
-451.953	438.160	0.020	-0.044
-450.938	-88.315	-0.096	0.029
-449.924	-200.000	-0.011	-0.203
-448.909	705.282	-0.049	-0.130
-447.895	-186.275	0.286	0.004
-446.880	-200.000	0.039	-0.277
-445.865	-50.118	0.268	0.127
-444.851	-36.272	0.093	0.050
-443.836	-100.957	0.101	-0.025
-442.822	-7.486	0.361	0.244
-441.807	196.555	-0.024	0.036
-440.792	-200.000	-0.020	0.207
-439.778	325.689	-0.069	-0.132
-438.763	50.441	0.271	0.256
-437.749	180.925	0.144	-0.212
-436.734	-108.965	-0.237	-0.051
-435.719	-74.754	-0.198	-0.071
-434.705	-3.518	-0.145	-0.101
-433.690	-145.661	0.262	-0.023
-432.676	-200.000	0.038	-0.198
-431.661	-200.000	0.015	-0.236
-430.646	421.583	0.037	-0.079
-429.632	82.561	-0.022	0.024
-428.617	105.220	0.110	0.130
-427.603	533.856	-0.067	-0.160
-426.588	126.055	0.121	-0.153
-425.573	-47.195	0.424	0.207
-424.559	303.566	-0.209	-0.387
-423.544	45.425	-0.156	0.144
-422.530	-148.786	0.239	-0.019
-421.515	-151.065	0.363	-0.027
-420.500	-79.088	-0.389	0.132
-419.486	45.127	0.224	-0.207
-418.471	-141.685	0.198	0.020
-417.457	-24.158	-0.173	0.103
-416.442	-200.000	0.033	0.176
-415.428	-36.569	-0.271	0.146
-414.413	-58.163	0.369	-0.161
-413.398	350.358	-0.123	-0.244
-412.384	800.000	0.028	-0.078
-411.369	-32.526	-0.272	0.152
-410.355	-9.208	0.562	0.375
-409.340	293.941	0.063	-0.114
-408.325	-97.544	0.023	-0.006
-407.311	-171.456	-0.200	0.007
-406.296	546.134	0.117	-0.278
-405.282	-59.142	-0.099	0.043
-404.267	226.134	0.251	0.407
-403.252	171.004	-0.272	-0.389
-402.238	144.433	-0.131	-0.175
-401.223	-200.000	-0.019	0.310
-400.209	8.718	0.305	0.230
-399.194	-118.244	-0.240	-0.043
-398.179	-154.986	-0.317	0.021
-397.165	24.837	0.294	0.243
-396.150	-94.548	0.067	-0.018
-395.136	-159.296	-0.096	-0.005
-394.121	678.304	-0.127	-0.329
-393.106	346.555	0.029	-0.057
-392.092	-200.000	-0.003	0.159
-391.077	-187.071	0.195	-0.003
-390.063	17.393	-0.187	-0.148
-389.048	333.474	-0.200	0.386
-388.033	2.429	0.006	0.004
-387.019	317.887	-0.184	0.348
-386.004	-109.465	-0.350	-0.074
-384.990	138.333	-0.180	-0.236
-383.975	-110.424	-0.229	0.047
-382.960	-111.139	-0.129	0.026
-381.946	-182.201	0.029	-0.001
-380.931	-94.774	0.213	0.058
-379.917	-58.440	-0.094	0.041
-378.902	476.127	-0.098	-0.220
-377.888	194.613	0.467	-0.707
-376.873	-64.631	-0.260	0.105
-375.858	-145.905	0.170	0.015
-374.844	-57.112	-0.239	0.105
-373.829	-140.481	0.040	-0.004
-372.815	-114.177	0.353	-0.068
-371.800	123.741	-0.104	0.130
-370.785	-82.519	0.130	0.042
-369.771	46.952	0.195	-0.181
-368.756	-99.453	-0.212	0.053
-367.742	55.951	-0.200	-0.194
-366.727	-148.693	-0.245	-0.020
-365.712	-48.479	0.129	-0.062
-364.698	-113.182	-0.217	0.043
-363.683	322.892	-0.180	0.342
-362.669	-200.000	0.028	-0.293
-361.654	37.575	0.189	0.167
-360.639	33.373	0.161	-0.140
-359.625	-62.767	-0.189	0.078
-358.610	248.032	-0.181	0.305
-357.596	34.567	0.102	-0.088
-356.581	-200.000	-0.031	-0.198
-355.566	41.297	-0.059	0.053
-354.552	-113.438	0.135	-0.026
-353.537	26.901	-0.225	-0.188
-352.523	84.116	0.156	0.170
-351.508	-200.000	0.001	0.047
-350.493	5.410	-0.277	-0.204
-349.479	-91.980	-0.191	0.054
-348.464	31.153	0.132	0.113
-347.450	342.095	-0.099	-0.193
-346.435	82.143	-0.074	-0.079
-345.420	-200.000	0.031	0.204
-344.406	-200.000	0.028	-0.165
-343.391	-80.154	-0.094	-0.031
-342.377	-76.822	0.472	-0.164
-341.362	761.696	0.052	-0.141
-340.348	734.424	-0.101	-0.269
-339.333	-35.491	0.195	0.106
-338.318	-29.350	0.285	-0.163
-337.304	193.312	0.093	0.140
-336.289	-82.671	0.140	0.045
-335.275	463.631	0.117	-0.259
-334.260	0.870	0.530	0.378
-333.245	-86.881	0.169	-0.051
-332.231	22.638	0.104	-0.085
-331.216	-200.000	0.004	-0.185
-330.202	121.122	0.182	0.226
-329.187	-153.675	0.316	0.022
-328.172	800.000	-0.059	-0.210
-327.158	-200.000	0.027	-0.154
-326.143	107.066	0.117	-0.139
-325.129	800.000	-0.022	-0.065
-324.114	-200.000	0.070	0.423
-323.099	-200.000	0.016	0.190
-322.085	38.491	0.090	0.080
-321.070	-27.639	0.271	-0.157
-320.056	-30.231	-0.309	-0.175
-319.041	63.162	0.240	0.240
-318.026	304.910	-0.069	0.128
-317.012	-148.128	0.235	-0.019
-315.997	-105.221	0.344	0.078
-314.983	-42.572	0.309	0.156
-313.968	-200.000	-0.019	0.266
-312.953	33.495	0.261	0.225
-311.939	-11.728	0.073	0.048
-310.924	9.596	-0.227	0.171
-309.910	129.922	0.228	0.291
-308.895	800.000	-0.164	0.497
-307.880	278.779	-0.106	-0.188
-306.866	-49.033	0.150	-0.071
-305.851	185.207	0.146	0.216
-304.837	-200.000	0.041	0.190
-303.822	246.596	0.024	0.041
-302.807	-118.639	-0.252	-0.044
-301.793	-170.296	-0.212	-0.007
-300.778	800.000	-0.089	0.288
-299.764	46.762	-0.130	0.120
-298.749	800.000	-0.018	-0.071
-297.735	28.062	-0.034	0.029
-296.720	-39.373	0.063	0.033
-295.705	0.710	0.164	0.117
-294.691	-101.436	-0.260	0.063
-293.676	233.039	-0.100	-0.163
-292.662	800.000	-0.090	-0.252
-291.647	188.995	-0.056	-0.083
-290.632	-194.219	0.115	0.001
-289.618	797.290	-0.219	-0.599
-288.603	-102.017	-0.136	0.033
-287.589	-24.270	0.098	-0.058
-286.574	-171.751	-0.194	-0.006
-285.559	15.891	-0.286	-0.224
-284.545	297.587	0.136	0.249
-283.530	15.196	-0.266	0.207
-282.516	-18.627	0.066	0.041
-281.501	-130.369	-0.033	-0.004
-280.486	-91.396	-0.199	-0.056
-279.472	-165.145	-0.188	0.008
-278.457	-200.000	0.232	-0.001
-277.443	73.048	0.076	-0.079
-276.428	-105.465	-0.212	0.048
-275.413	-94.348	0.080	-0.022
-274.399	-135.449	0.065	0.008
-273.384	92.094	0.108	-0.121
-272.370	-200.000	-0.043	-0.290
-271.355	348.704	0.110	-0.215
-270.340	466.965	0.102	0.227
-269.326	-200.000	0.031	-0.180
-268.311	-58.822	0.094	-0.040
-267.297	-200.000	-0.014	0.324
-266.282	76.225	0.098	0.103
-265.267	138.252	0.042	0.054
-264.253	-98.671	-0.339	-0.086
-263.238	42.884	0.085	0.077
-262.224	-69.789	-0.366	-0.139
-261.209	-200.000	0.067	-0.319
-260.195	-200.000	-0.052	0.226
-259.180	-107.893	-0.045	0.010
-258.165	-82.102	-0.346	0.112
-257.151	800.000	-0.049	0.204
-256.136	7.543	0.194	0.144
-255.122	-86.151	-0.336	0.103
-254.107	-157.125	-0.182	0.011
-253.092	-200.000	-0.038	0.199
-252.078	-200.000	-0.006	-0.175
-251.063	-138.273	0.313	0.034
-250.049	425.570	-0.036	-0.076
-249.034	467.065	0.142	-0.316
-248.019	-103.833	0.102	-0.024
-247.005	-39.141	-0.290	-0.152
-245.990	-55.062	-0.198	0.089
-244.976	705.679	0.147	0.385
-243.961	30.439	-0.098	0.083
-242.946	-76.594	0.328	-0.114
-241.932	526.003	-0.087	0.203
-240.917	-15.728	-0.342	-0.217
-239.903	354.284	0.062	0.122
-238.888	58.157	0.135	-0.132
-237.873	-35.080	0.193	0.104
-236.859	-49.223	-0.135	-0.064
-235.844	800.000	0.038	-0.126
-234.830	227.574	-0.059	0.095
-233.815	800.000	-0.081	-0.322
-232.800	-62.419	-0.155	0.064
-231.786	-200.000	-0.039	0.198
-230.771	-92.498	-0.301	0.084
-229.757	-57.418	0.300	-0.131
-228.742	-200.000	0.004	0.069
-227.727	-200.000	0.025	0.278
-226.713	-73.304	-0.185	0.067
-225.698	-7.540	0.079	-0.053
-224.684	141.588	-0.200	0.263
-223.669	800.000	-0.169	0.498
-222.655	-200.000	0.025	-0.509
-221.640	-83.076	0.344	-0.110
-220.625	123.389	0.169	0.210
-219.611	299.483	-0.320	0.585
-218.596	-200.000	0.008	-0.046
-217.582	-98.185	-0.421	-0.107
-216.567	35.241	0.102	-0.089
-215.552	-63.616	-0.205	0.084
-214.538	-198.559	0.368	0.002
-213.523	-68.341	-0.147	-0.056
-212.509	174.659	-0.284	0.408
-211.494	391.732	0.049	-0.101
-210.479	19.172	-0.134	0.107
-209.465	800.000	0.094	0.286
-208.450	103.876	-0.146	0.171
-207.436	-12.953	-0.265	-0.171
-206.421	475.759	0.155	0.348
-205.406	-200.000	-0.027	0.121
-204.392	176.758	0.319	0.460
-203.377	20.107	-0.273	-0.218
-202.363	-135.173	0.354	-0.042
-201.348	219.075	0.137	0.217
-200.333	-71.374	-0.119	0.044
-199.319	800.000	-0.008	-0.024
-198.304	-158.055	0.150	-0.009
-197.290	419.844	-0.058	-0.122
-196.275	-38.762	0.022	0.012
-195.260	-62.789	0.107	-0.044
-194.246	86.184	-0.205	-0.223
-193.231	312.472	0.119	-0.222
-192.217	-200.000	0.023	0.132
-191.202	-79.416	0.079	0.027
-190.187	363.442	-0.102	0.203
-189.173	800.000	-0.010	0.038
-188.158	-99.525	0.136	0.034
-187.144	654.280	-0.144	-0.366
-186.129	414.240	0.024	0.052
-185.114	370.493	0.036	-0.073
-184.100	-122.756	-0.166	-0.027
-183.085	-71.167	-0.143	0.053
-182.071	42.634	0.133	-0.120
-181.056	342.345	-0.051	-0.099
-180.042	392.890	-0.135	0.279
-179.027	180.322	-0.034	0.050
-178.012	-122.002	0.188	0.031
-176.998	-29.851	0.200	0.113
-175.983	-141.560	0.148	0.015
-174.969	-91.222	0.184	-0.052
-173.954	-69.450	0.177	-0.067
-172.939	246.058	-0.134	0.223
-171.925	262.639	-0.023	0.039
-170.910	104.440	0.264	-0.308
-169.896	800.000	0.080	0.314
-168.881	91.363	-0.166	0.185
-167.866	46.845	-0.148	0.137
-166.852	-153.525	-0.044	0.003
-165.837	35.809	-0.230	0.200
-164.823	63.219	0.104	0.103
-163.808	269.351	0.102	0.177
-162.793	-156.373	-0.150	-0.009
-161.779	-48.327	0.292	0.139
-160.764	-140.066	-0.135	-0.014
-159.750	235.635	0.264	-0.432
-158.735	-182.022	-0.132	-0.002
-157.720	-153.088	0.128	0.009
-156.706	-200.000	0.024	0.111
-155.691	-96.028	-0.250	-0.066
-154.677	89.393	0.165	0.182
-153.662	50.102	-0.184	0.172
-152.647	-45.176	-0.210	0.103
-151.633	26.782	-0.294	-0.243
-150.618	-166.042	0.012	0.000
-149.604	-36.210	0.384	-0.205
-148.589	-22.428	-0.136	0.081
-147.574	-200.000	-0.016	-0.137
-146.560	163.165	-0.047	-0.065
-145.545	-63.137	-0.237	-0.097
-144.531	-153.377	-0.105	-0.007
-143.516	-23.472	0.090	-0.054
-142.502	-200.000	-0.059	0.000
-141.487	12.877	0.455	-0.347
-140.472	-200.000	-0.008	0.103
-139.458	-9.393	-0.117	0.078
-138.443	-36.688	-0.214	-0.114
-137.429	-51.410	-0.131	-0.061
-136.414	800.000	-0.040	0.124
-135.399	-75.711	-0.044	0.016
-134.385	-200.000	-0.029	0.143
-133.370	19.860	0.173	-0.138
-132.356	17.778	-0.268	0.211
-131.341	4.820	0.162	-0.117
-130.326	800.000	0.046	-0.193
-129.312	-166.451	-0.369	0.015
-128.297	-123.510	-0.471	-0.074
-127.283	-6.167	0.119	-0.080
-126.268	84.933	0.210	-0.227
-125.253	-111.567	-0.131	0.026
-124.239	212.419	0.435	-0.678
-123.224	132.100	-0.066	-0.084
-122.210	169.830	0.307	0.433
-121.195	617.212	-0.058	-0.145
-120.180	800.000	-0.075	0.220
-119.166	-17.437	-0.312	0.194
-118.151	-29.659	0.385	0.217
-117.137	800.000	0.030	-0.086
-116.122	-75.924	0.329	0.115
-115.107	-79.759	-0.017	0.006
-114.093	-85.847	0.181	-0.055
-113.078	71.236	-0.114	0.117
-112.064	5.190	0.405	-0.295
-111.049	-200.000	-0.032	-0.221
-110.034	-133.635	0.331	-0.041
-109.020	103.629	-0.311	-0.360
-108.005	96.571	-0.050	0.057
-106.991	54.113	0.222	0.211
-105.976	-200.000	-0.051	0.228
-104.962	800.000	-0.031	-0.087
-103.947	800.000	0.024	-0.082
-102.932	42.559	0.199	0.179
-101.918	-12.414	0.235	-0.152
-100.903	267.735	-0.186	-0.322
-99.889	99.637	-0.198	-0.226
-98.874	118.566	-0.326	-0.397
-97.859	-110.475	-0.207	0.042
-96.845	493.042	0.054	-0.121
-95.830	-200.000	-0.020	0.223
-94.816	800.000	0.038	-0.162
-93.801	631.347	0.066	-0.166
-92.786	-58.141	0.072	0.031
-91.772	-158.690	0.160	0.009
-90.757	386.565	0.128	0.260
-89.743	-19.816	0.081	-0.049
-88.728	-10.417	0.028	0.019
-87.713	-4.883	0.125	0.085
-86.699	-200.000	-0.004	-0.175
-85.684	293.165	-0.099	0.179
-84.670	-58.572	-0.150	0.064
-83.655	-51.019	0.156	-0.072
-82.640	800.000	0.034	0.117
-81.626	-170.767	0.243	-0.008
-80.611	651.130	0.116	-0.293
-79.597	-42.441	-0.251	0.126
-78.582	-75.235	-0.225	-0.079
-77.567	-7.827	0.145	0.097
-76.553	800.000	0.083	0.281
-75.538	-200.000	0.048	-0.311
-74.524	-103.847	0.310	-0.071
-73.509	-200.000	-0.003	0.133
-72.494	488.509	0.097	0.219
-71.480	-170.639	-0.294	-0.010
-70.465	496.675	-0.126	-0.285
-69.451	68.642	0.251	-0.254
-68.436	298.633	-0.179	-0.326
-67.422	-200.000	-0.005	0.098
-66.407	21.929	-0.140	-0.112
-65.392	666.561	0.095	0.241
-64.378	342.163	-0.083	-0.160
-63.363	-27.141	0.195	-0.112
-62.349	-98.189	-0.152	0.038
-61.334	3.267	-1.064	-0.763
-60.319	95.295	0.376	0.423
-59.305	800.000	-0.402	-1.215
-58.290	800.000	0.397	1.359
-57.276	800.000	0.578	1.760
-56.261	-200.000	98.733	584.938
-55.246	538.771	1407.244	3298.202
-54.232	148.943	2623.398	3496.377
-53.217	106.788	2304.222	2695.332
-52.203	43.347	1915.395	1724.382
-51.188	37.110	1704.105	1486.501
-50.173	34.366	1659.472	1427.000
-49.159	52.069	1708.956	1604.406
-48.144	55.095	1726.162	1643.453
-47.130	36.826	1681.950	1464.796
-46.115	34.037	1666.264	1430.144
-45.100	33.815	1662.153	1424.890
-44.086	33.748	1659.299	1421.881
-43.071	33.820	1656.386	1419.868
-42.057	33.752	1654.410	1417.608
-41.042	33.820	1651.929	1415.937
-40.027	33.794	1650.127	1414.142
-39.013	33.828	1648.207	1412.694
-37.998	33.773	1646.402	1410.680
-36.984	33.682	1645.912	1409.527
-35.969	33.823	1643.875	1408.772
-34.954	33.912	1641.559	1407.398
-33.940	33.976	1640.195	1406.646
-32.925	33.892	1638.598	1404.594
-31.911	33.857	1636.599	1402.569
-30.896	33.888	1634.748	1401.158
-29.881	33.937	1632.813	1399.801
-28.867	33.881	1631.453	1398.170
-27.852	33.867	1629.753	1396.556
-26.838	33.853	1628.945	1395.704
-25.823	33.949	1627.032	1394.710
-24.809	33.970	1625.276	1393.304
-23.794	33.934	1623.946	1391.848
-22.779	33.936	1622.603	1390.657
-21.765	33.894	1621.369	1389.236
-20.750	33.921	1619.264	1387.573
-19.736	33.970	1617.810	1386.627
-18.721	34.010	1616.356	1385.620
-17.706	33.953	1614.869	1383.877
-16.692	33.899	1613.259	1382.047
-15.677	33.936	1611.656	1380.890
-14.663	33.954	1610.631	1380.085
-13.648	33.909	1609.295	1378.562
-12.633	33.915	1608.074	1377.505
-11.619	33.925	1605.852	1375.618
-10.604	33.961	1604.591	1374.745
-9.590	34.020	1603.364	1374.067
-8.575	34.009	1601.900	1372.675
-7.560	33.993	1600.704	1371.480
-6.546	33.922	1599.823	1370.163
-5.531	33.915	1598.723	1369.110
-4.517	33.850	1597.740	1367.752
-3.502	33.894	1596.557	1367.000
-2.487	34.007	1595.258	1366.645
-1.473	33.902	1583.175	1355.493
-0.458	31.438	1564.633	1322.164
0.556	28.052	1565.076	1291.939
1.571	25.774	1589.893	1295.938
2.586	25.306	1603.134	1303.217
3.600	21.932	1548.732	1235.174
4.615	11.837	1434.508	1077.820
5.629	3.300	1367.652	973.706
6.644	1.921	1358.941	958.758
7.659	1.759	1357.789	956.841
8.673	1.620	1356.844	955.217
9.688	1.640	1354.803	953.820
10.702	1.379	1352.175	950.252
11.717	5.131	1359.659	979.000
12.731	15.803	1379.323	1060.675
13.746	24.238	1393.621	1125.060
14.761	26.204	1396.367	1139.599
15.775	26.577	1395.796	1141.381
16.790	26.538	1395.736	1140.985
17.804	26.645	1395.211	1141.129
18.819	26.840	1395.112	1142.180
19.834	26.962	1394.013	1141.942
20.848	26.940	1393.602	1141.370
21.863	26.996	1392.421	1140.653
22.877	27.002	1391.604	1139.916
23.892	26.967	1391.105	1139.190
24.907	26.948	1390.272	1138.284
25.921	27.006	1388.915	1137.440
26.936	26.931	1388.036	1136.149
27.950	26.934	1387.277	1135.444
28.965	27.015	1385.759	1134.612
29.980	27.048	1384.118	1133.373
30.994	26.959	1383.620	1132.305
32.009	26.990	1382.065	1131.125
33.023	26.931	1381.044	1129.825
34.038	27.021	1380.231	1129.623
35.053	26.970	1378.938	1128.142
36.067	26.998	1377.925	1127.388
37.082	27.006	1377.036	1126.615
38.096	26.891	1376.612	1125.450
39.111	26.929	1375.790	1124.915
40.126	26.878	1375.632	1124.372
41.140	26.868	1374.611	1123.379
42.155	26.934	1374.420	1123.531
43.169	26.827	1374.570	1122.886
44.184	26.927	1373.974	1122.921
45.199	26.883	1373.405	1122.083
46.213	26.927	1373.125	1122.031
47.228	26.968	1371.579	1120.917
48.242	26.866	1370.772	1119.530
49.257	26.997	1369.227	1118.977
50.271	26.943	1367.911	1117.474
51.286	26.891	1366.671	1116.040
52.301	26.863	1365.731	1115.001
53.315	26.916	1364.737	1114.416
54.330	26.939	1363.835	1113.722
55.344	26.823	1363.241	1112.425
56.359	26.944	1361.663	1111.781
57.374	26.935	1360.760	1110.895
58.388	27.027	1360.264	1110.951
59.403	26.907	1360.006	1109.910
60.417	26.956	1359.107	1109.375
61.432	27.013	1358.341	1109.001
62.447	26.937	1357.823	1108.019
63.461	26.952	1356.392	1106.843
64.476	27.005	1355.530	1106.361
65.490	26.967	1354.864	1105.489
66.505	26.918	1353.384	1103.887
67.520	26.937	1351.823	1102.634
68.534	27.006	1350.570	1101.932
69.549	26.976	1350.223	1101.371
70.563	26.997	1349.298	1100.645
71.578	26.933	1347.936	1099.049
72.593	27.002	1347.148	1098.727
73.607	27.018	1346.107	1097.878
74.622	26.915	1346.019	1097.086
75.636	26.928	1345.176	1096.377
76.651	26.950	1344.926	1096.209
77.666	26.981	1344.018	1095.558
78.680	26.934	1343.753	1094.966
79.695	26.923	1342.894	1094.101
80.709	26.984	1341.774	1093.461
81.724	26.887	1341.509	1092.560
82.739	26.956	1340.175	1091.792
83.753	26.883	1339.242	1090.500
84.768	26.893	1338.266	1089.665
85.782	27.048	1337.111	1089.559
86.797	26.984	1335.953	1088.137
87.812	26.971	1334.625	1086.884
88.826	27.011	1333.456	1086.070
89.841	27.052	1332.649	1085.565
90.855	26.910	1332.160	1084.221
91.870	27.027	1331.068	1083.933
92.884	26.949	1330.534	1082.938
93.899	27.002	1329.427	1082.259
94.914	26.973	1328.836	1081.509
95.928	27.073	1327.895	1081.240
96.943	27.001	1327.262	1080.204
97.957	26.880	1326.907	1079.097
98.972	26.914	1325.535	1078.088
99.987	27.032	1324.717	1078.028
101.001	27.035	1323.693	1077.119
102.016	27.059	1323.052	1076.641
103.030	27.081	1321.787	1075.649
104.045	27.045	1321.294	1074.940
105.060	27.041	1320.306	1074.018
106.074	27.040	1319.031	1072.878
107.089	26.940	1318.683	1071.909
108.103	27.050	1317.533	1071.532
109.118	27.112	1315.883	1070.457
110.133	27.076	1315.310	1069.686
111.147	27.152	1313.651	1068.690
112.162	27.121	1312.694	1067.631
113.176	27.125	1311.423	1066.530
114.191	27.165	1310.761	1066.132
115.206	27.243	1309.680	1065.615
116.220	27.075	1309.021	1063.999
117.235	27.119	1307.855	1063.217
118.249	27.061	1306.954	1062.047
119.264	27.119	1306.287	1061.752
120.279	27.130	1305.720	1061.260
121.293	27.165	1304.497	1060.376
122.308	27.123	1304.177	1059.777
123.322	27.108	1303.526	1059.072
124.337	27.082	1302.505	1057.994
125.352	27.164	1301.827	1057.825
126.366	27.227	1300.447	1056.982
127.381	27.271	1299.970	1056.754
128.395	27.182	1299.245	1055.555
129.410	27.175	1298.137	1054.518
130.424	27.164	1297.485	1053.834
131.439	27.194	1296.912	1053.446
132.454	27.076	1296.230	1052.119
133.468	27.177	1295.083	1051.675
134.483	27.120	1295.043	1051.221
135.497	27.116	1294.301	1050.507
136.512	27.168	1293.081	1049.720
137.527	27.192	1291.796	1048.724
138.541	27.164	1290.502	1047.419
139.556	27.211	1288.821	1046.232
140.570	27.223	1287.782	1045.364
141.585	27.192	1286.962	1044.426
142.600	27.088	1285.950	1042.919
143.614	27.097	1285.504	1042.517
144.629	26.960	1284.881	1041.134
145.643	27.012	1283.705	1040.383
146.658	26.938	1282.795	1039.132
147.673	27.025	1281.408	1038.414
148.687	27.091	1280.147	1037.678
149.702	27.137	1278.759	1036.721
150.716	27.157	1278.477	1036.516
151.731	27.224	1276.963	1035.578
152.746	27.074	1276.557	1034.303
153.760	27.202	1275.059	1033.729
154.775	27.146	1274.378	1032.763
155.789	27.084	1273.275	1031.426
156.804	27.098	1272.356	1030.670
157.819	27.064	1271.716	1029.869
158.833	27.112	1271.083	1029.539
159.848	27.195	1270.140	1029.150
160.862	27.217	1269.524	1028.684
161.877	27.195	1268.778	1027.870
162.892	27.206	1268.229	1027.395
163.906	27.154	1267.635	1026.530
164.921	27.109	1266.169	1024.997
165.935	27.162	1265.913	1024.999
166.950	27.248	1265.122	1024.749
167.964	27.121	1264.564	1023.490
168.979	27.252	1263.995	1023.679
169.994	27.206	1263.645	1023.047
171.008	27.223	1262.970	1022.502
172.023	27.299	1261.660	1021.781
173.037	27.310	1261.203	1021.382
174.052	27.295	1260.379	1020.541
175.067	27.276	1259.918	1019.968
176.081	27.239	1259.418	1019.266
177.096	27.347	1257.973	1018.615
178.110	27.289	1257.451	1017.776
179.125	27.226	1256.498	1016.563
180.140	27.429	1255.106	1016.476
181.154	27.324	1253.946	1014.864
182.169	27.261	1253.121	1013.756
183.183	27.309	1251.917	1012.959
184.198	27.290	1251.074	1012.080
185.213	27.449	1249.786	1011.834
186.227	27.270	1249.291	1010.348
187.242	27.386	1248.305	1010.103
188.256	27.390	1247.515	1009.398
189.271	27.347	1246.768	1008.465
190.286	27.370	1245.933	1007.832
191.300	27.282	1245.271	1006.716
192.315	27.326	1245.117	1006.746
193.329	27.301	1244.744	1006.221
194.344	27.293	1244.824	1006.153
195.359	27.340	1243.822	1005.512
196.373	27.373	1242.921	1004.874
197.388	27.345	1242.501	1004.294
198.402	27.361	1242.210	1004.056
199.417	27.429	1241.515	1003.780
200.432	27.324	1241.267	1002.912
201.446	27.362	1240.799	1002.655
202.461	27.412	1239.641	1001.908
203.475	27.388	1239.172	1001.306
204.490	27.315	1238.178	1000.012
205.504	27.357	1237.102	999.289
206.519	27.528	1236.058	999.295
207.534	27.430	1235.156	997.937
208.548	27.399	1234.612	997.243
209.563	27.360	1233.811	996.293
210.577	27.416	1232.811	995.705
211.592	27.390	1232.103	994.903
212.607	27.521	1231.068	994.692
213.621	27.513	1230.279	993.920
214.636	27.450	1229.851	993.147
215.650	27.495	1228.973	992.593
216.665	27.525	1227.827	991.746
217.680	27.469	1226.786	990.509
218.694	27.451	1226.676	990.236
219.709	27.532	1225.804	989.888
220.723	27.505	1225.007	989.009
221.738	27.429	1224.489	988.089
222.753	27.360	1223.626	986.933
223.767	27.516	1222.953	987.148
224.782	27.574	1222.833	987.275
225.796	27.607	1222.014	986.705
226.811	27.421	1221.403	985.121
227.826	27.614	1220.572	985.406
228.840	27.561	1220.706	985.139
229.855	27.492	1219.673	983.844
230.869	27.524	1219.400	983.710
231.884	27.560	1218.088	982.759
232.899	27.486	1217.964	982.176
233.913	27.569	1216.752	981.555
234.928	27.709	1216.259	981.824
235.942	27.742	1215.562	981.356
236.957	27.688	1215.009	980.532
237.972	27.627	1214.296	979.540
238.986	27.516	1213.758	978.425
240.001	27.583	1213.236	978.276
241.015	27.723	1212.489	978.335
242.030	27.627	1211.473	976.918
243.045	27.828	1210.427	977.062
244.059	27.627	1210.030	975.583
245.074	27.634	1209.242	974.895
246.088	27.780	1208.166	974.724
247.103	27.769	1207.361	973.926
248.117	27.802	1206.439	973.274
249.132	27.801	1206.161	972.957
250.147	27.770	1205.375	972.072
251.161	27.976	1204.295	972.215
252.176	27.843	1203.937	971.131
253.190	27.831	1203.592	970.703
254.205	27.699	1202.620	969.131
255.220	27.882	1202.052	969.558
256.234	27.796	1201.648	968.691
257.249	27.795	1200.994	968.076
258.263	27.872	1200.011	967.606
259.278	27.879	1199.836	967.415
260.293	27.884	1199.341	966.958
261.307	27.837	1198.705	966.109
262.322	27.927	1197.740	965.718
263.336	27.973	1196.912	965.211
264.351	27.838	1196.688	964.231
265.366	27.916	1196.157	964.129
266.380	27.854	1195.637	963.300
267.395	27.833	1195.022	962.605
268.409	27.795	1194.301	961.739
269.424	27.878	1193.687	961.597
270.439	27.961	1193.316	961.653
271.453	27.961	1192.301	960.750
272.468	27.941	1191.504	959.916
273.482	27.855	1191.054	959.015
274.497	27.939	1191.085	959.399
275.512	28.021	1190.367	959.163
276.526	27.955	1189.408	957.961
277.541	27.948	1189.029	957.537
278.555	28.070	1187.773	957.076
279.570	28.003	1187.534	956.449
280.585	28.047	1186.076	955.423
281.599	28.052	1185.385	954.807
282.614	27.880	1185.020	953.530
283.628	28.116	1184.018	953.872
284.643	28.067	1183.247	952.908
285.657	27.958	1182.730	951.840
286.672	27.983	1181.802	951.141
287.687	28.011	1181.155	950.679
288.701	28.165	1179.914	950.397
289.716	28.165	1179.457	949.946
290.730	28.025	1178.881	948.668
291.745	28.149	1178.062	948.572
292.760	28.147	1177.445	947.981
293.774	28.181	1176.985	947.701
294.789	28.146	1176.786	947.277
295.803	28.141	1175.907	946.456
296.818	28.286	1175.102	946.478
297.833	28.216	1174.727	945.727
298.847	28.236	1173.879	945.067
299.862	28.314	1172.669	944.411
300.876	28.280	1172.475	943.996
301.891	28.283	1171.552	943.182
302.906	28.298	1171.146	942.852
303.920	28.270	1170.788	942.336
304.935	28.386	1169.977	942.195
305.949	28.300	1169.460	941.255
306.964	28.257	1168.529	940.200
307.979	28.334	1168.133	940.192
308.993	28.227	1167.745	939.249
310.008	28.485	1166.528	939.508
311.022	28.312	1165.827	937.974
312.037	28.444	1165.056	937.946
313.052	28.351	1164.393	936.854
314.066	28.412	1163.152	936.084
315.081	28.386	1162.586	935.415
316.095	28.343	1162.704	935.206
317.110	28.272	1161.982	934.180
318.125	28.353	1161.277	933.943
319.139	28.431	1160.259	933.442
320.154	28.421	1159.756	932.904
321.168	28.442	1159.010	932.329
322.183	28.401	1158.830	931.888
323.197	28.413	1158.028	931.223
324.212	28.499	1157.322	931.011
325.227	28.454	1157.143	930.554
326.241	28.341	1156.790	929.618
327.256	28.560	1155.731	929.795
328.270	28.470	1155.220	928.846
329.285	28.344	1154.241	927.338
330.300	28.421	1153.347	926.926
331.314	28.565	1152.413	926.821
332.329	28.495	1151.576	925.711
333.343	28.599	1150.751	925.492
334.358	28.666	1150.230	925.330
335.373	28.669	1149.566	924.729
336.387	28.666	1148.557	923.819
337.402	28.615	1148.563	923.488
338.416	28.651	1147.703	922.892
339.431	28.627	1147.214	922.296
340.446	28.652	1146.503	921.769
341.460	28.575	1146.228	921.080
342.475	28.649	1145.292	920.619
343.489	28.688	1144.241	919.889
344.504	28.646	1143.321	918.856
345.519	28.724	1142.588	918.576
346.533	28.856	1141.848	918.560
347.548	28.850	1140.822	917.624
348.562	28.776	1140.517	916.929
349.577	28.755	1139.553	915.965
350.592	28.767	1138.552	915.142
351.606	28.687	1138.520	914.635
352.621	28.730	1138.028	914.374
353.635	28.867	1136.607	913.833
354.650	28.727	1136.329	912.831
355.665	28.740	1135.405	912.073
356.679	28.822	1134.852	911.956
357.694	28.899	1134.552	912.014
358.708	28.710	1134.083	910.623
359.723	28.769	1133.095	910.039
360.738	28.750	1132.783	909.611
361.752	28.845	1132.260	909.584
362.767	28.900	1131.508	909.169
363.781	28.934	1131.032	908.877
364.796	28.952	1130.528	908.480
365.810	29.003	1129.603	907.908
366.825	29.028	1129.061	907.514
367.840	28.978	1128.986	907.130
368.854	29.088	1127.718	906.569
369.869	28.969	1127.573	905.786
370.883	28.913	1126.913	904.903
371.898	29.111	1125.511	904.670
372.913	29.051	1125.323	904.142
373.927	28.999	1125.019	903.566
374.942	29.055	1124.379	903.244
375.956	29.091	1123.691	902.790
376.971	29.086	1123.096	902.207
377.986	29.064	1122.832	901.806
379.000	29.077	1122.373	901.420
380.015	29.121	1121.760	901.064
381.029	29.100	1120.989	900.262
382.044	29.140	1120.177	899.727
383.059	29.200	1119.676	899.536
384.073	29.247	1119.142	899.258
385.088	29.197	1118.120	898.116
386.102	29.247	1117.006	897.384
387.117	29.107	1116.676	896.359
388.132	29.018	1116.125	895.403
389.146	29.156	1115.126	895.194
390.161	29.196	1114.489	894.795
391.175	29.218	1113.973	894.408
392.190	29.195	1113.054	893.479
393.205	29.182	1112.626	892.994
394.219	29.252	1111.481	892.335
395.234	29.307	1111.033	892.165
396.248	29.312	1110.082	891.347
397.263	29.451	1108.962	891.039
398.278	29.449	1108.500	890.577
399.292	29.420	1108.171	890.093
400.307	29.367	1107.744	889.420
401.321	29.375	1107.071	888.839
402.336	29.317	1106.385	887.928
403.350	29.475	1105.694	888.058
404.365	29.395	1105.420	887.373
405.380	29.478	1104.231	886.740
406.394	29.440	1103.693	886.047
407.409	29.473	1102.938	885.520
408.423	29.539	1102.165	885.139
409.438	29.514	1101.625	884.504
410.453	29.538	1101.000	884.041
411.467	29.475	1100.499	883.259
412.482	29.516	1099.581	882.639
413.496	29.663	1098.666	882.527
414.511	29.633	1097.884	881.678
415.526	29.596	1097.860	881.406
416.540	29.561	1097.089	880.541
417.555	29.571	1096.669	880.176
418.569	29.598	1096.063	879.739
419.584	29.625	1095.964	879.708
420.599	29.672	1095.330	879.346
421.613	100.940	1320.422	1448.331
422.628	94.200	1353.168	1448.432
