DTS Sentinel unit serial number:	SN413079Multiplexer serial number:	ORYXHardware model number:	OX4-SRSoftware version number:	ORYX F/W v4.00 Oryx Data Collector v3.7.2.0data status	okinstallation	princeton_trtdifferential loss correction	single-endedforward channel	channel 2reverse channel	N/Adate	2019/09/17time	17:55:35forward acquisition time	60.00reverse acquisition time	0.00gamma	496.2192k internal	0.2289k external	0.2289temperature offset calibration	0.9984default loss term (dB/km)	0.3790temperature slope calibration	1.0000multiplexer offset coefficient	1.0000multiplexer slope coefficient	1.0000fibre end	0.00T internal ref (°C)	43.50T ext. ref 1 (°C)	0.33T ext. ref 2 (°C)	38.38length (m)	temperature (°C)	Stokes	anti-Stokes-747.200	14.311	-0.150	0.120
-746.185	-200.000	0.057	0.523
-745.171	451.910	-0.154	0.350
-744.156	-200.000	-0.036	0.365
-743.142	102.083	0.074	0.089
-742.127	87.155	0.082	-0.092
-741.112	-106.237	0.145	0.033
-740.098	-38.908	0.167	-0.090
-739.083	-24.728	0.162	0.099
-738.069	-164.070	-0.223	-0.011
-737.054	50.787	-0.114	-0.111
-736.039	-42.416	0.263	0.138
-735.025	-200.000	0.032	0.465
-734.010	-85.592	-0.212	0.067
-732.996	-38.199	-0.087	-0.047
-731.981	91.066	-0.247	-0.284
-730.966	49.135	-0.153	0.147
-729.952	66.714	-0.371	-0.386
-728.937	683.773	-0.157	-0.418
-727.923	245.894	0.252	-0.435
-726.908	84.328	-0.078	0.088
-725.894	53.134	0.138	0.136
-724.879	230.489	0.134	-0.224
-723.864	-100.341	-0.412	0.105
-722.850	86.446	-0.068	-0.077
-721.835	800.000	0.038	-0.143
-720.821	-89.229	0.090	-0.027
-719.806	-122.888	0.026	0.004
-718.791	401.941	-0.144	-0.310
-717.777	-116.516	0.231	0.044
-716.762	-12.765	0.129	-0.086
-715.748	-118.178	-0.133	0.024
-714.733	-20.527	-0.183	0.115
-713.718	-70.345	0.422	-0.164
-712.704	-200.000	-0.008	-0.089
-711.689	-200.000	-0.093	-0.556
-710.675	800.000	0.052	-0.159
-709.660	800.000	0.079	-0.242
-708.645	118.150	-0.062	0.078
-707.631	-91.555	-0.119	0.035
-706.616	-116.907	0.137	-0.026
-705.602	800.000	-0.106	0.387
-704.587	-153.448	-0.356	-0.025
-703.572	97.376	-0.207	-0.243
-702.558	89.410	-0.158	-0.180
-701.543	2.762	0.168	-0.125
-700.529	51.165	0.109	-0.106
-699.514	-61.270	0.174	0.075
-698.499	800.000	-0.062	0.184
-697.485	800.000	-0.129	0.479
-696.470	-200.000	0.047	0.453
-695.456	-25.663	-0.081	-0.049
-694.441	-59.439	-0.266	-0.117
-693.426	-200.000	-0.024	-0.197
-692.412	159.085	0.097	-0.138
-691.397	-155.326	-0.037	0.002
-690.383	-200.000	0.027	0.135
-689.368	159.538	0.057	0.082
-688.354	335.415	0.079	0.156
-687.339	150.875	-0.056	0.078
-686.324	523.762	0.179	0.431
-685.310	35.927	0.154	0.138
-684.295	-117.825	0.235	0.043
-683.281	-200.000	0.008	0.168
-682.266	-200.000	0.000	-0.178
-681.251	116.666	-0.068	-0.085
-680.237	-200.000	-0.010	-0.428
-679.222	13.665	-0.263	0.209
-678.208	605.349	-0.087	0.222
-677.193	-36.898	0.187	-0.102
-676.178	-107.721	0.149	0.033
-675.164	-59.055	0.138	0.061
-674.149	-21.082	-0.349	-0.219
-673.135	800.000	-0.098	-0.415
-672.120	-97.867	0.165	0.044
-671.105	-116.194	-0.350	0.066
-670.091	289.530	0.093	0.171
-669.076	246.359	-0.131	-0.226
-668.062	7.616	0.017	-0.013
-667.047	-40.209	0.196	-0.104
-666.032	26.774	-0.124	0.106
-665.018	-0.197	-0.072	-0.052
-664.003	436.115	-0.053	0.117
-662.989	100.541	0.014	-0.017
-661.974	-115.395	-0.227	0.044
-660.959	-92.473	-0.142	0.041
-659.945	262.024	-0.192	-0.341
-658.930	-113.210	0.179	0.036
-657.916	-60.857	-0.200	0.087
-656.901	-105.533	0.126	0.029
-655.886	-137.264	0.169	-0.020
-654.872	335.228	0.104	-0.206
-653.857	-109.220	-0.376	-0.081
-652.843	-91.326	-0.200	-0.059
-651.828	-121.387	0.049	0.008
-650.814	224.120	0.059	-0.097
-649.799	385.243	-0.083	-0.174
-648.784	73.950	-0.041	0.044
-647.770	12.268	0.240	-0.189
-646.755	800.000	-0.071	-0.281
-645.741	204.915	0.031	-0.049
-644.726	800.000	0.043	-0.139
-643.711	-82.428	0.201	-0.067
-642.697	-200.000	0.035	-0.295
-641.682	800.000	-0.171	-0.529
-640.668	-1.163	-0.096	0.070
-639.653	-200.000	0.047	-0.248
-638.638	176.339	-0.104	0.154
-637.624	-200.000	0.006	0.185
-636.609	-29.416	0.228	0.133
-635.595	177.647	0.061	0.091
-634.580	800.000	-0.065	-0.185
-633.565	800.000	-0.042	0.171
-632.551	-78.459	-0.166	0.058
-631.536	-114.035	-0.390	0.077
-630.522	-86.993	0.365	0.114
-629.507	20.768	0.100	-0.083
-628.492	97.515	-0.020	0.023
-627.478	146.708	0.230	0.316
-626.463	-75.634	-0.076	0.027
-625.449	-86.764	0.182	-0.057
-624.434	-138.886	0.180	-0.020
-623.419	171.846	-0.222	0.326
-622.405	0.514	0.224	-0.163
-621.390	-94.092	0.273	-0.076
-620.376	271.281	0.052	0.093
-619.361	-94.292	-0.224	0.063
-618.346	-113.915	0.141	0.028
-617.332	-134.124	-0.602	0.076
-616.317	-200.000	0.005	0.224
-615.303	800.000	0.065	-0.239
-614.288	-200.000	0.012	-0.060
-613.273	47.558	-0.153	0.145
-612.259	-37.058	0.224	0.122
-611.244	412.644	-0.036	-0.077
-610.230	-200.000	-0.029	-0.156
-609.215	83.146	0.314	-0.349
-608.201	318.749	0.053	0.102
-607.186	638.091	-0.085	0.220
-606.171	119.066	0.214	0.270
-605.157	28.055	-0.335	-0.288
-604.142	-92.861	-0.136	-0.039
-603.128	348.243	0.059	0.119
-602.113	-61.247	-0.170	0.073
-601.098	-62.392	-0.500	0.212
-600.084	-200.000	-0.035	0.343
-599.069	-200.000	-0.021	0.137
-598.055	-62.742	0.228	-0.096
-597.040	16.705	0.219	0.176
-596.025	-106.999	0.183	0.041
-595.011	-107.054	-0.529	-0.119
-593.996	-200.000	-0.015	-0.520
-592.982	-71.434	0.076	0.029
-591.967	-15.724	-0.118	0.077
-590.952	-60.185	0.235	-0.102
-589.938	-30.227	0.107	0.062
-588.923	-83.806	0.288	0.094
-587.909	-200.000	-0.021	-0.144
-586.894	-200.000	0.018	0.175
-585.879	800.000	-0.028	-0.120
-584.865	-129.955	0.258	0.036
-583.850	-200.000	-0.052	-0.317
-582.836	-102.090	0.162	0.040
-581.821	-200.000	-0.020	0.371
-580.806	132.383	0.075	-0.099
-579.792	134.376	-0.212	-0.280
-578.777	800.000	0.102	0.396
-577.763	-200.000	-0.036	0.380
-576.748	800.000	0.038	-0.166
-575.733	284.554	0.128	0.234
-574.719	9.727	-0.131	-0.101
-573.704	312.860	-0.066	-0.126
-572.690	358.257	0.143	0.291
-571.675	195.004	-0.315	0.488
-570.661	298.078	0.075	-0.141
-569.646	-138.928	-0.052	0.006
-568.631	-119.368	-0.335	-0.059
-567.617	-79.679	0.263	-0.090
-566.602	-159.851	0.522	0.029
-565.588	800.000	0.054	0.179
-564.573	158.766	0.063	0.089
-563.558	53.254	0.119	0.116
-562.544	195.596	0.091	0.140
-561.529	369.576	-0.126	0.259
-560.515	800.000	0.057	-0.236
-559.500	105.230	0.119	-0.143
-558.485	-82.425	0.050	-0.016
-557.471	39.237	-0.242	-0.221
-556.456	-200.000	-0.015	0.189
-555.442	437.994	0.084	0.186
-554.427	106.009	-0.109	-0.131
-553.412	-118.000	0.152	0.028
-552.398	204.798	0.169	-0.266
-551.383	162.055	-0.284	0.404
-550.369	-200.000	-0.005	0.174
-549.354	-17.291	0.118	0.075
-548.339	-20.132	0.334	-0.209
-547.325	-21.788	0.035	-0.022
-546.310	274.684	-0.040	0.072
-545.296	542.518	0.087	0.212
-544.281	-76.485	-0.205	0.073
-543.266	199.181	0.072	-0.113
-542.252	448.334	-0.017	-0.039
-541.237	6.885	-0.174	0.132
-540.223	-200.000	0.014	-0.143
-539.208	-13.474	-0.144	0.095
-538.193	13.436	-0.322	0.254
-537.179	-200.000	-0.029	0.246
-536.164	-200.000	-0.025	-0.134
-535.150	800.000	0.080	-0.229
-534.135	-164.318	-0.390	0.018
-533.121	-40.417	0.123	-0.065
-532.106	397.398	0.096	-0.203
-531.091	-71.035	-0.266	0.102
-530.077	-77.685	0.503	0.177
-529.062	4.883	0.073	-0.054
-528.048	-50.989	0.317	0.151
-527.033	-200.000	-0.022	-0.173
-526.018	800.000	0.065	-0.225
-525.004	-200.000	-0.025	-0.215
-523.989	297.474	0.074	-0.137
-522.975	-200.000	-0.343	0.001
-521.960	-107.753	-0.348	0.077
-520.945	118.400	0.101	0.126
-519.931	-151.428	0.172	-0.013
-518.916	-138.766	-0.196	-0.022
-517.902	17.888	0.254	0.206
-516.887	453.964	-0.178	0.400
-515.872	23.736	-0.095	0.079
-514.858	800.000	-0.049	-0.191
-513.843	-24.504	0.246	-0.149
-512.829	-200.000	-0.075	-0.416
-511.814	-146.492	-0.168	-0.015
-510.799	14.772	0.103	0.082
-509.785	11.759	-0.219	0.171
-508.770	-15.871	-0.173	-0.112
-507.756	-86.362	-0.343	-0.107
-506.741	-1.786	-0.089	0.064
-505.726	416.200	0.069	0.149
-504.712	449.354	-0.157	-0.351
-503.697	41.882	0.153	-0.141
-502.683	204.177	0.036	0.057
-501.668	152.553	-0.092	-0.128
-500.653	-150.914	0.018	-0.001
-499.639	-65.548	0.139	-0.057
-498.624	228.286	-0.163	-0.270
-497.610	31.381	-0.226	0.197
-496.595	213.773	0.101	0.162
-495.581	-170.490	0.157	-0.006
-494.566	3.042	-0.224	-0.165
-493.551	-200.000	-0.026	0.155
-492.537	251.347	0.026	-0.045
-491.522	50.072	-0.305	0.292
-490.508	-200.000	-0.034	-0.174
-489.493	-136.915	-0.202	0.024
-488.478	37.641	-0.177	0.159
-487.464	-35.731	-0.094	-0.052
-486.449	-200.000	0.015	0.234
-485.435	-75.403	-0.273	-0.099
-484.420	74.416	-0.100	0.107
-483.405	800.000	-0.084	0.268
-482.391	-41.186	0.315	-0.165
-481.376	-145.143	-0.432	0.040
-480.362	-22.290	0.236	-0.145
-479.347	-13.750	-0.163	0.107
-478.332	-131.247	0.125	-0.017
-477.318	-175.097	-0.240	0.007
-476.303	-123.924	-0.282	0.045
-475.289	-119.162	0.261	-0.046
-474.274	-107.698	-0.278	-0.062
-473.259	-100.929	-0.284	-0.071
-472.245	-69.865	-0.257	-0.100
-471.230	208.370	0.092	0.145
-470.216	684.334	-0.086	0.228
-469.201	-107.465	-0.062	0.014
-468.186	-200.000	0.008	-0.170
-467.172	298.234	0.082	-0.153
-466.157	-124.218	-0.376	0.060
-465.143	10.419	-0.140	-0.108
-464.128	20.438	-0.054	0.045
-463.113	24.093	0.109	-0.092
-462.099	487.210	0.092	0.213
-461.084	-114.209	0.125	-0.025
-460.070	-200.000	0.028	-0.160
-459.055	80.460	-0.180	-0.197
-458.040	21.228	0.436	-0.359
-457.026	800.000	-0.075	-0.225
-456.011	-154.475	-0.189	-0.013
-454.997	-88.495	-0.140	-0.042
-453.982	-113.277	-0.260	0.052
-452.968	-124.691	0.147	-0.023
-451.953	800.000	-0.096	0.276
-450.938	-39.816	-0.368	0.195
-449.924	220.609	-0.168	0.272
-448.909	-159.092	0.320	0.018
-447.895	-200.000	0.019	0.097
-446.880	-75.795	0.123	-0.044
-445.865	-200.000	-0.049	0.274
-444.851	-177.796	-0.391	-0.010
-443.836	-1.078	0.112	0.080
-442.822	-200.000	-0.051	-0.346
-441.807	-51.252	-0.080	0.038
-440.792	504.508	0.135	-0.317
-439.778	-76.591	0.174	0.062
-438.763	-68.432	0.221	0.087
-437.749	111.275	-0.216	0.263
-436.734	-18.385	-0.115	-0.073
-435.719	-160.047	0.243	0.013
-434.705	-200.000	-0.011	0.113
-433.690	-200.000	0.001	0.195
-432.676	-85.215	0.131	-0.042
-431.661	172.533	0.139	-0.202
-430.646	526.310	0.101	0.240
-429.632	282.152	0.057	-0.104
-428.617	178.455	0.166	0.245
-427.603	150.718	0.144	-0.199
-426.588	-130.062	0.365	-0.050
-425.573	-130.518	-0.131	0.018
-424.559	-94.539	-0.389	0.107
-423.544	-99.027	0.280	-0.072
-422.530	-24.203	0.164	0.099
-421.515	-117.289	-0.153	-0.028
-420.500	297.692	0.094	-0.175
-419.486	-132.960	0.170	-0.022
-418.471	800.000	-0.046	-0.175
-417.457	-55.293	0.064	-0.029
-416.442	800.000	0.106	0.320
-415.428	64.222	0.209	-0.213
-414.413	-162.921	0.209	-0.010
-413.398	-200.000	-0.012	0.435
-412.384	34.816	0.035	0.031
-411.369	-200.000	0.000	0.168
-410.355	800.000	-0.050	-0.216
-409.340	585.954	-0.103	-0.257
-408.325	78.694	0.111	-0.121
-407.311	-200.000	0.034	0.158
-406.296	79.655	-0.101	0.110
-405.282	-145.826	-0.179	0.016
-404.267	-89.425	0.257	-0.076
-403.252	80.104	0.313	0.340
-402.238	800.000	-0.014	-0.040
-401.223	14.540	0.242	0.191
-400.209	111.694	0.084	0.102
-399.194	-42.855	0.247	-0.127
-398.179	-96.699	0.352	-0.094
-397.165	-200.000	0.047	-0.294
-396.150	41.051	-0.121	-0.110
-395.136	-33.665	-0.147	-0.082
-394.121	57.171	-0.135	0.133
-393.106	27.923	-0.197	-0.168
-392.092	-200.000	-0.030	0.179
-391.077	800.000	0.168	-0.487
-390.063	42.268	0.216	-0.198
-389.048	800.000	-0.042	-0.184
-388.033	91.946	-0.102	0.116
-387.019	-200.000	-0.028	0.135
-386.004	95.692	-0.137	0.158
-384.990	113.935	0.140	-0.172
-383.975	-154.023	-0.316	0.022
-382.960	-99.237	-0.064	0.016
-381.946	-85.960	-0.485	-0.152
-380.931	87.238	-0.002	0.003
-379.917	-95.578	0.173	-0.047
-378.902	432.567	0.168	0.367
-377.888	98.454	-0.163	0.189
-376.873	270.733	-0.056	-0.099
-375.858	251.568	0.082	0.141
-374.844	-164.223	-0.509	-0.024
-373.829	-99.964	0.095	-0.024
-372.815	-200.000	-0.016	0.124
-371.800	-97.655	-0.183	0.048
-370.785	-200.000	-0.018	-0.524
-369.771	800.000	-0.093	0.308
-368.756	518.376	-0.112	-0.265
-367.742	28.222	0.217	0.185
-366.727	-200.000	-0.013	0.223
-365.712	-200.000	-0.010	0.107
-364.698	-200.000	-0.020	-0.149
-363.683	114.344	0.136	0.167
-362.669	-65.504	-0.482	0.196
-361.654	43.806	0.083	0.077
-360.639	216.027	0.190	-0.304
-359.625	-200.000	0.024	-0.145
-358.610	298.447	-0.069	0.128
-357.596	-124.314	0.232	0.037
-356.581	-200.000	0.023	-0.214
-355.566	372.261	-0.047	-0.097
-354.552	-200.000	0.044	-0.201
-353.537	-70.614	-0.185	-0.071
-352.523	-200.000	0.004	-0.100
-351.508	-163.702	-0.079	-0.004
-350.493	-200.000	-0.059	-0.261
-349.479	205.940	0.150	-0.236
-348.464	47.516	0.120	-0.113
-347.450	-4.220	-0.353	0.247
-346.435	4.358	0.073	0.054
-345.420	379.579	-0.088	-0.182
-344.406	-52.893	0.145	-0.068
-343.391	-9.955	0.206	0.138
-342.377	-200.000	0.007	0.062
-341.362	-73.407	0.357	-0.132
-340.348	-200.000	-0.006	-0.171
-339.333	27.775	0.095	0.081
-338.318	530.222	0.077	-0.183
-337.304	-156.090	-0.385	-0.025
-336.289	-134.724	0.242	-0.030
-335.275	-200.000	-0.019	-0.493
-334.260	800.000	0.024	-0.102
-333.245	-162.018	0.113	0.006
-332.231	135.219	0.058	0.076
-331.216	-36.315	-0.101	-0.055
-330.202	114.163	0.275	0.337
-329.187	-158.437	-0.354	-0.021
-328.172	61.475	-0.098	-0.098
-327.158	48.269	-0.117	0.110
-326.143	306.672	-0.053	-0.099
-325.129	-200.000	0.002	0.129
-324.114	163.034	0.029	-0.041
-323.099	45.040	0.093	-0.086
-322.085	-145.143	-0.051	-0.005
-321.070	-23.381	0.022	-0.013
-320.056	800.000	0.033	-0.106
-319.041	239.715	0.086	-0.145
-318.026	800.000	-0.071	0.274
-317.012	-126.021	-0.325	-0.049
-315.997	-198.425	-0.192	0.001
-314.983	-130.329	-0.378	0.052
-313.968	80.280	-0.145	-0.158
-312.953	-106.309	0.180	0.041
-311.939	-92.883	-0.355	0.100
-310.924	199.091	-0.058	-0.089
-309.910	370.080	-0.094	-0.192
-308.895	-200.000	0.044	-0.241
-307.880	19.604	-0.104	-0.084
-306.866	-25.383	-0.111	-0.066
-305.851	11.983	0.093	-0.072
-304.837	82.363	0.108	0.118
-303.822	-200.000	-0.009	-0.072
-302.807	10.493	-0.318	0.244
-301.793	-13.955	0.215	0.140
-300.778	409.511	0.145	0.310
-299.764	227.453	-0.131	0.214
-298.749	-164.861	0.195	-0.009
-297.735	204.028	0.105	0.163
-296.720	-101.896	0.126	0.031
-295.705	-200.000	0.070	0.372
-294.691	-200.000	0.007	-0.151
-293.676	-75.011	0.150	0.054
-292.662	27.181	-0.084	-0.071
-291.647	365.729	-0.102	0.207
-290.632	-200.000	-0.085	0.443
-289.618	-59.072	-0.474	-0.206
-288.603	-174.527	0.420	0.012
-287.589	800.000	0.063	0.233
-286.574	-200.000	0.048	-0.269
-285.559	800.000	-0.071	0.269
-284.545	52.371	-0.017	0.016
-283.530	-200.000	-0.005	0.054
-282.516	-116.304	-0.160	-0.030
-281.501	800.000	-0.119	-0.331
-280.486	800.000	-0.109	-0.306
-279.472	19.050	-0.164	-0.132
-278.457	-123.865	0.150	-0.024
-277.443	-90.123	0.147	-0.043
-276.428	-8.524	-0.515	0.348
-275.413	-200.000	-0.035	0.164
-274.399	223.198	-0.148	-0.241
-273.384	-105.181	0.177	-0.041
-272.370	-200.000	-0.006	-0.080
-271.355	-99.711	0.107	0.027
-270.340	-200.000	-0.015	-0.195
-269.326	145.966	0.084	-0.114
-268.311	-30.525	0.177	0.101
-267.297	120.711	-0.218	-0.273
-266.282	139.065	0.205	-0.271
-265.267	227.678	0.189	-0.309
-264.253	-200.000	0.010	0.092
-263.238	-22.614	-0.202	0.123
-262.224	-200.000	0.009	0.186
-261.209	-72.598	-0.294	-0.109
-260.195	-200.000	0.022	-0.144
-259.180	-58.069	0.312	0.137
-258.165	195.570	-0.121	0.185
-257.151	-46.349	-0.264	0.130
-256.136	-167.503	-0.094	-0.004
-255.122	-0.782	-0.223	-0.159
-254.107	-200.000	-0.018	-0.284
-253.092	800.000	-0.120	0.357
-252.078	52.447	0.210	0.202
-251.063	-158.626	0.240	-0.014
-250.049	-85.444	-0.082	0.026
-249.034	-35.283	-0.289	0.158
-248.019	-200.000	0.006	0.145
-247.005	-17.496	0.233	-0.148
-245.990	30.208	0.205	-0.176
-244.976	800.000	0.094	0.341
-243.961	463.666	-0.024	-0.054
-242.946	101.076	0.068	-0.080
-241.932	800.000	-0.070	0.282
-240.917	800.000	0.047	0.159
-239.903	-146.343	0.082	-0.007
-238.888	-200.000	0.033	-0.183
-237.873	518.387	0.187	0.440
-236.859	800.000	0.081	-0.249
-235.844	800.000	0.081	-0.238
-234.830	-87.422	-0.098	0.030
-233.815	800.000	-0.092	0.288
-232.800	44.761	0.188	0.174
-231.786	76.979	-0.147	0.157
-230.771	-1.478	-0.063	0.044
-229.757	735.843	0.041	0.111
-228.742	89.353	0.112	0.125
-227.727	226.468	-0.193	-0.315
-226.713	-121.841	0.154	-0.025
-225.698	115.045	-0.416	-0.510
-224.684	-200.000	0.002	-0.116
-223.669	-134.467	0.264	0.032
-222.655	109.588	-0.304	0.366
-221.640	-148.468	0.250	0.021
-220.625	-33.661	-0.094	-0.052
-219.611	-70.760	0.344	-0.131
-218.596	-108.844	-0.169	0.036
-217.582	-95.124	0.028	0.008
-216.567	-200.000	-0.003	-0.014
-215.552	300.794	-0.105	-0.194
-214.538	582.390	0.086	-0.211
-213.523	-69.290	-0.211	0.081
-212.509	-60.831	0.228	-0.097
-211.494	200.751	-0.169	-0.260
-210.479	456.134	0.040	-0.088
-209.465	116.792	-0.260	0.320
-208.450	-162.564	0.439	0.022
-207.436	309.644	-0.094	-0.176
-206.421	-62.705	0.153	-0.064
-205.406	-117.727	0.372	-0.067
-204.392	800.000	0.117	-0.370
-203.377	-142.163	0.254	-0.025
-202.363	-27.575	0.178	0.104
-201.348	-56.364	0.121	0.054
-200.333	189.461	0.090	-0.135
-199.319	491.445	-0.028	0.063
-198.304	70.735	-0.227	0.235
-197.290	-137.008	-0.283	-0.033
-196.275	-102.344	-0.085	-0.020
-195.260	800.000	0.073	0.290
-194.246	122.619	-0.104	0.130
-193.231	800.000	-0.005	0.018
-192.217	-164.800	0.153	0.007
-191.202	-169.458	0.306	0.011
-190.187	136.555	0.116	0.152
-189.173	174.395	0.112	0.162
-188.158	467.753	0.062	-0.140
-187.144	-122.773	0.101	-0.016
-186.129	18.052	-0.223	-0.178
-185.114	-73.556	0.121	-0.044
-184.100	-63.293	0.216	0.089
-183.085	800.000	-0.064	-0.222
-182.071	-104.730	0.358	-0.083
-181.056	-70.645	-0.213	-0.081
-180.042	651.414	-0.024	-0.061
-179.027	-104.782	0.098	-0.023
-178.012	-20.777	0.104	0.064
-176.998	-94.799	-0.199	-0.054
-175.983	207.839	-0.070	0.110
-174.969	-192.748	0.317	0.003
-173.954	-86.681	-0.129	-0.040
-172.939	-52.226	0.360	0.167
-171.925	13.532	0.066	0.051
-170.910	0.194	0.117	0.084
-169.896	124.744	0.117	-0.148
-168.881	-10.345	0.254	-0.169
-167.866	249.653	-0.079	-0.134
-166.852	202.262	-0.177	-0.274
-165.837	800.000	0.064	-0.185
-164.823	366.412	-0.151	0.306
-163.808	-200.000	0.021	0.159
-162.793	-152.284	0.347	-0.025
-161.779	-74.431	0.377	0.136
-160.764	-11.327	-0.159	0.105
-159.750	366.913	0.025	0.051
-158.735	-82.164	0.211	-0.069
-157.720	-74.835	-0.204	-0.073
-156.706	-119.781	0.224	-0.039
-155.691	275.646	0.061	-0.109
-154.677	-71.465	0.055	0.021
-153.662	462.781	0.079	0.177
-152.647	-121.607	-0.275	-0.046
-151.633	173.742	-0.098	0.142
-150.618	167.708	-0.136	0.194
-149.604	-76.276	-0.291	-0.103
-148.589	-11.208	0.139	0.092
-147.574	800.000	-0.121	-0.443
-146.560	800.000	0.024	-0.094
-145.545	-7.291	-0.114	-0.077
-144.531	386.384	0.054	-0.112
-143.516	35.970	0.126	0.111
-142.502	-10.281	-0.245	-0.163
-141.487	-77.384	-0.233	-0.081
-140.472	-29.851	0.207	0.118
-139.458	800.000	-0.080	-0.240
-138.443	800.000	0.078	-0.329
-137.429	74.948	-0.153	-0.161
-136.414	-6.552	0.096	-0.065
-135.399	106.817	-0.276	-0.328
-134.385	-65.645	0.196	0.079
-133.370	-200.000	0.054	0.521
-132.356	176.628	-0.039	-0.057
-131.341	139.435	-0.049	0.065
-130.326	-131.796	-0.187	0.025
-129.312	44.808	0.193	0.177
-128.297	-98.175	0.101	-0.026
-127.283	-93.636	-0.152	-0.042
-126.268	109.982	0.109	0.131
-125.253	-25.195	0.254	0.150
-124.239	-34.731	0.347	-0.190
-123.224	-56.269	0.124	0.055
-122.210	-1.763	0.237	0.167
-121.195	29.388	-0.214	0.182
-120.180	-96.809	-0.108	0.028
-119.166	-176.459	-0.301	-0.008
-118.151	15.244	-0.220	-0.172
-117.137	-49.957	-0.271	-0.128
-116.122	-122.300	0.361	-0.059
-115.107	-115.527	-0.243	0.046
-114.093	80.804	0.105	0.114
-113.078	171.823	-0.234	0.336
-112.064	-4.440	-0.046	-0.032
-111.049	800.000	0.067	0.284
-110.034	34.756	0.416	-0.364
-109.020	800.000	0.029	-0.084
-108.005	-46.623	0.120	-0.059
-106.991	800.000	0.066	0.199
-105.976	-74.997	0.146	0.052
-104.962	103.294	0.122	-0.143
-103.947	50.080	0.271	0.256
-102.932	-200.000	-0.037	0.298
-101.918	-200.000	-0.016	-0.159
-100.903	351.821	0.184	-0.365
-99.889	-128.064	0.368	0.053
-98.874	-95.801	-0.219	-0.059
-97.859	62.123	0.149	0.148
-96.845	33.892	-0.108	0.094
-95.830	-177.097	0.200	0.005
-94.816	-52.282	0.275	-0.127
-93.801	47.062	0.102	-0.095
-92.786	-20.448	-0.134	0.083
-91.772	-74.253	0.041	-0.015
-90.757	-89.792	0.093	-0.027
-89.743	-125.238	-0.149	0.023
-88.728	325.408	-0.044	-0.085
-87.713	-94.435	0.140	-0.038
-86.699	-200.000	-0.001	0.049
-85.684	136.553	-0.238	0.310
-84.670	195.842	0.061	0.092
-83.655	-26.266	0.251	-0.147
-82.640	307.228	-0.098	-0.182
-81.626	-200.000	-0.023	0.403
-80.611	230.213	-0.050	-0.082
-79.597	-139.213	-0.227	0.024
-78.582	-200.000	0.029	-0.141
-77.567	-91.454	0.175	0.050
-76.553	156.983	-0.099	-0.137
-75.538	-98.409	-0.120	0.031
-74.524	-113.011	0.220	-0.043
-73.509	-42.380	0.172	-0.087
-72.494	157.145	0.118	0.162
-71.480	-49.261	0.213	0.102
-70.465	800.000	0.106	0.310
-69.451	171.041	-0.055	0.079
-68.436	-200.000	0.039	-0.275
-67.422	-24.096	-0.063	-0.037
-66.407	-200.000	0.028	-0.328
-65.392	-66.068	0.195	0.078
-64.378	47.303	-0.139	-0.129
-63.363	-79.738	0.122	0.041
-62.349	-17.101	0.098	0.062
-61.334	29.509	-0.724	-0.614
-60.319	800.000	0.087	0.242
-59.305	800.000	0.161	-0.536
-58.290	122.158	0.510	0.636
-57.276	800.000	0.378	1.514
-56.261	-200.000	72.237	550.415
-55.246	564.662	1305.277	3155.930
-54.232	136.004	2579.959	3353.782
-53.217	112.885	2381.322	2878.584
-52.203	53.367	1992.618	1905.497
-51.188	47.017	1778.374	1650.059
-50.173	44.108	1730.583	1583.000
-49.159	58.060	1762.176	1721.605
-48.144	64.856	1780.798	1792.932
-47.130	46.896	1745.363	1618.224
-46.115	43.538	1731.598	1579.221
-45.100	43.363	1727.261	1573.840
-44.086	43.258	1724.226	1570.197
-43.071	43.370	1721.863	1568.851
-42.057	43.368	1718.841	1566.022
-41.042	43.330	1716.921	1563.912
-40.027	43.323	1715.278	1562.302
-39.013	43.365	1712.847	1560.351
-37.998	43.379	1711.280	1558.967
-36.984	43.453	1709.636	1557.979
-35.969	43.550	1708.262	1557.413
-34.954	43.514	1706.856	1555.795
-33.940	43.567	1704.692	1554.168
-32.925	43.549	1702.969	1552.397
-31.911	43.560	1701.124	1550.735
-30.896	43.486	1699.281	1548.430
-29.881	43.423	1697.939	1546.661
-28.867	43.484	1696.059	1545.351
-27.852	43.429	1694.917	1543.835
-26.838	43.496	1692.996	1542.529
-25.823	43.525	1691.179	1541.034
-24.809	43.553	1690.112	1540.213
-23.794	43.529	1688.381	1538.392
-22.779	43.549	1686.723	1536.975
-21.765	43.510	1685.819	1535.797
-20.750	43.455	1683.657	1533.347
-19.736	43.505	1682.189	1532.324
-18.721	43.475	1680.555	1530.552
-17.706	43.488	1679.075	1529.238
-16.692	43.486	1677.430	1527.667
-15.677	43.494	1675.890	1526.264
-14.663	43.568	1674.768	1525.738
-13.648	43.471	1673.412	1523.711
-12.633	43.639	1671.155	1522.860
-11.619	43.536	1669.845	1520.831
-10.604	43.544	1667.945	1519.101
-9.590	43.590	1666.913	1518.446
-8.575	43.569	1665.293	1516.754
-7.560	43.538	1664.410	1515.655
-6.546	43.503	1663.191	1514.222
-5.531	43.491	1662.185	1513.159
-4.517	43.509	1660.737	1511.914
-3.502	43.463	1659.783	1510.640
-2.487	43.550	1658.131	1509.732
-1.473	43.575	1646.789	1499.529
-0.458	40.755	1626.273	1460.089
0.556	33.989	1620.202	1409.235
1.571	29.272	1640.265	1391.056
2.586	27.251	1651.664	1385.224
3.600	23.911	1598.177	1315.586
4.615	13.418	1478.429	1144.701
5.629	3.053	1402.093	1017.210
6.644	0.508	1391.657	992.820
7.659	0.329	1389.993	990.368
8.673	0.295	1388.874	989.263
9.688	0.188	1387.371	987.403
10.702	0.008	1384.543	984.124
11.717	3.942	1391.705	1014.971
12.731	13.133	1406.118	1086.070
13.746	18.156	1412.510	1124.009
14.761	17.442	1410.002	1117.226
15.775	16.520	1406.455	1108.278
16.790	15.472	1404.087	1099.456
17.804	14.649	1401.663	1092.075
18.819	14.202	1400.636	1088.258
19.834	13.816	1399.141	1084.474
20.848	13.591	1397.755	1081.839
21.863	13.383	1396.537	1079.442
22.877	13.190	1395.303	1077.134
23.892	13.172	1394.249	1076.110
24.907	13.198	1393.373	1075.509
25.921	13.235	1392.732	1075.155
26.936	13.262	1391.844	1074.549
27.950	13.175	1391.171	1073.373
28.965	13.286	1390.005	1073.096
29.980	13.344	1389.032	1072.626
30.994	13.433	1387.911	1072.242
32.009	13.479	1386.611	1071.441
33.023	13.498	1385.360	1070.503
34.038	13.339	1384.657	1068.836
35.053	13.370	1383.522	1068.067
36.067	13.397	1382.327	1067.224
37.082	13.356	1381.362	1066.122
38.096	13.448	1380.403	1065.879
39.111	13.425	1379.610	1065.022
40.126	13.300	1378.896	1063.574
41.140	13.191	1378.217	1062.257
42.155	13.266	1377.083	1061.773
43.169	13.185	1377.653	1061.594
44.184	13.199	1376.740	1060.889
45.199	13.288	1376.114	1060.882
46.213	13.300	1375.459	1060.362
47.228	13.344	1374.976	1060.178
48.242	13.321	1373.791	1059.024
49.257	13.355	1371.869	1057.666
50.271	13.366	1370.738	1056.771
51.286	13.282	1369.573	1055.242
52.301	13.243	1368.302	1053.922
53.315	13.181	1367.343	1052.693
54.330	13.276	1366.214	1052.333
55.344	13.263	1364.754	1051.032
56.359	13.283	1363.730	1050.278
57.374	13.283	1362.338	1049.113
58.388	13.102	1362.262	1047.815
59.403	13.141	1361.624	1047.482
60.417	13.203	1360.611	1047.001
61.432	13.164	1359.669	1045.935
62.447	13.163	1358.743	1045.121
63.461	13.098	1357.402	1043.589
64.476	13.039	1356.320	1042.292
65.490	13.178	1355.066	1042.115
66.505	13.168	1353.178	1040.505
67.520	13.136	1352.138	1039.415
68.534	13.166	1351.319	1038.880
69.549	13.287	1349.889	1038.447
70.563	13.205	1348.458	1036.740
71.578	13.140	1347.464	1035.478
72.593	13.129	1346.513	1034.585
73.607	12.983	1345.989	1033.178
74.622	13.107	1345.156	1033.222
75.636	12.977	1344.337	1031.689
76.651	13.035	1343.363	1031.212
77.666	12.952	1342.730	1030.121
78.680	13.029	1342.287	1030.171
79.695	13.046	1341.552	1029.623
80.709	13.167	1340.627	1029.571
81.724	13.058	1339.900	1028.243
82.739	13.265	1338.710	1028.525
83.753	13.283	1337.764	1027.821
84.768	13.246	1336.496	1026.528
85.782	13.295	1335.418	1025.912
86.797	13.304	1333.840	1024.666
87.812	13.235	1332.404	1023.043
88.826	13.245	1331.433	1022.270
89.841	13.390	1329.784	1021.812
90.855	13.291	1329.215	1020.669
91.870	13.190	1328.893	1019.712
92.884	13.346	1327.774	1019.721
93.899	13.369	1326.907	1019.106
94.914	13.316	1326.011	1018.001
95.928	13.397	1325.136	1017.740
96.943	13.394	1323.866	1016.654
97.957	13.338	1323.377	1015.849
98.972	13.347	1322.603	1015.221
99.987	13.413	1321.066	1014.355
101.001	13.378	1320.250	1013.423
102.016	13.324	1318.780	1011.871
103.030	13.368	1317.682	1011.214
104.045	13.408	1317.216	1011.007
105.060	13.240	1316.390	1009.258
106.074	13.276	1314.993	1008.320
107.089	13.250	1313.404	1006.852
108.103	13.210	1312.297	1005.673
109.118	13.277	1310.659	1004.734
110.133	13.173	1309.502	1003.128
111.147	13.139	1308.252	1001.873
112.162	13.151	1307.066	1000.948
113.176	13.213	1305.998	1000.418
114.191	13.213	1305.046	999.603
115.206	13.249	1303.952	998.892
116.220	13.232	1302.845	997.852
117.235	13.214	1301.419	996.562
118.249	13.318	1300.209	996.175
119.264	13.232	1299.604	995.105
120.279	13.188	1298.367	993.809
121.293	13.136	1297.811	992.983
122.308	13.225	1296.213	992.202
123.322	13.200	1295.306	991.275
124.337	13.071	1294.769	989.999
125.352	13.272	1293.235	989.942
126.366	13.184	1291.922	988.323
127.381	13.198	1290.726	987.406
128.395	13.201	1289.682	986.540
129.410	13.203	1289.126	986.035
130.424	13.377	1287.851	986.014
131.439	13.372	1287.132	985.345
132.454	13.309	1286.486	984.388
133.468	13.372	1285.370	983.820
134.483	13.334	1284.779	983.053
135.497	13.268	1283.650	981.713
136.512	13.359	1282.045	980.937
137.527	13.261	1281.073	979.529
138.541	13.283	1279.690	978.514
139.556	13.299	1278.020	977.244
140.570	13.391	1277.384	977.213
141.585	13.466	1275.918	976.450
142.600	13.479	1274.602	975.432
143.614	13.482	1273.796	974.745
144.629	13.524	1272.851	974.182
145.643	13.460	1271.636	972.793
146.658	13.474	1270.530	971.940
147.673	13.441	1268.524	970.129
148.687	13.383	1267.576	968.980
149.702	13.411	1266.421	968.175
150.716	13.436	1264.804	966.996
151.731	13.301	1263.997	965.505
152.746	13.422	1262.502	964.986
153.760	13.351	1261.384	963.634
154.775	13.450	1259.646	962.796
155.789	13.436	1258.956	962.103
156.804	13.411	1258.123	961.231
157.819	13.594	1256.517	960.986
158.833	13.475	1256.009	959.822
159.848	13.595	1254.948	959.620
160.862	13.529	1254.119	958.516
161.877	13.440	1253.086	957.131
162.892	13.408	1251.811	955.886
163.906	13.287	1251.363	954.760
164.921	13.485	1249.726	954.569
165.935	13.485	1249.203	954.082
166.950	13.503	1248.404	953.496
167.964	13.477	1247.958	952.920
168.979	13.465	1246.961	952.003
169.994	13.504	1246.582	951.854
171.008	13.533	1245.091	950.801
172.023	13.577	1244.432	950.466
173.037	13.561	1243.841	949.837
174.052	13.601	1242.971	949.318
175.067	13.536	1241.743	947.923
176.081	13.484	1241.017	946.989
177.096	13.544	1239.896	946.390
178.110	13.626	1238.617	945.801
179.125	13.658	1237.534	945.070
180.140	13.581	1236.296	943.604
181.154	13.694	1234.676	942.926
182.169	13.759	1233.456	942.284
183.183	13.750	1232.448	941.375
184.198	13.707	1231.309	940.182
185.213	13.677	1230.496	939.306
186.227	13.818	1229.049	938.917
187.242	13.853	1227.616	937.933
188.256	13.903	1227.062	937.712
189.271	13.822	1226.142	936.470
190.286	13.748	1225.089	935.164
191.300	13.626	1224.030	933.588
192.315	13.704	1223.763	933.742
193.329	13.631	1222.872	932.567
194.344	13.668	1221.932	931.975
195.359	13.674	1221.973	931.958
196.373	13.834	1221.269	932.237
197.388	13.900	1220.328	931.806
198.402	13.843	1220.273	931.364
199.417	13.989	1219.715	931.674
200.432	14.050	1218.827	931.251
201.446	14.037	1217.914	930.400
202.461	14.182	1216.836	930.307
203.475	14.069	1215.837	928.828
204.490	13.956	1214.693	927.243
205.504	13.986	1213.407	926.347
206.519	14.014	1212.034	925.368
207.534	13.938	1211.383	924.367
208.548	14.028	1210.165	923.855
209.563	14.006	1209.190	922.907
210.577	14.067	1208.429	922.585
211.592	14.086	1207.943	922.240
212.607	14.098	1206.563	921.168
213.621	14.040	1205.689	920.101
214.636	14.134	1204.765	919.830
215.650	14.115	1203.719	918.847
216.665	14.219	1202.978	918.776
217.680	14.148	1202.162	917.681
218.694	14.204	1201.191	917.165
219.709	14.310	1200.165	916.885
220.723	14.244	1199.335	915.806
221.738	14.216	1199.145	915.426
222.753	14.253	1197.993	914.671
223.767	14.340	1197.433	914.638
224.782	14.318	1196.645	913.834
225.796	14.340	1195.911	913.312
226.811	14.411	1195.099	913.001
227.826	14.370	1194.226	912.028
228.840	14.394	1193.801	911.758
229.855	14.296	1193.077	910.587
230.869	14.316	1192.455	910.140
231.884	14.386	1191.118	909.421
232.899	14.318	1190.686	908.641
233.913	14.368	1189.801	908.159
234.928	14.367	1188.772	907.284
235.942	14.335	1188.192	906.587
236.957	14.251	1187.369	905.422
237.972	14.295	1186.903	905.227
238.986	14.336	1185.966	904.654
240.001	14.367	1185.155	904.126
241.015	14.374	1184.570	903.637
242.030	14.405	1183.612	902.995
243.045	14.445	1182.749	902.474
244.059	14.478	1181.843	901.881
245.074	14.503	1181.043	901.324
246.088	14.539	1180.406	900.954
247.103	14.599	1179.671	900.636
248.117	14.490	1179.233	899.632
249.132	14.610	1178.093	899.332
250.147	14.608	1177.660	898.910
251.161	14.771	1176.421	898.761
252.176	14.742	1175.648	897.938
253.190	14.736	1175.298	897.559
254.205	14.850	1174.551	897.518
255.220	14.823	1174.267	897.079
256.234	14.883	1173.220	896.523
257.249	14.854	1172.777	895.949
258.263	14.895	1171.892	895.409
259.278	14.828	1171.744	894.861
260.293	14.888	1170.915	894.471
261.307	14.900	1170.715	894.301
262.322	14.939	1169.564	893.553
263.336	14.949	1168.857	892.987
264.351	14.915	1168.386	892.364
265.366	15.091	1167.451	892.513
266.380	14.947	1166.997	891.318
267.395	14.955	1165.943	890.479
268.409	14.979	1165.522	890.203
269.424	14.892	1164.638	888.985
270.439	15.022	1163.885	889.024
271.453	15.044	1163.409	888.701
272.468	14.992	1161.942	887.226
273.482	14.978	1161.436	886.685
274.497	14.879	1161.436	886.081
275.512	14.999	1160.481	885.911
276.526	15.012	1159.641	885.259
277.541	15.083	1158.808	884.922
278.555	15.107	1157.719	884.137
279.570	15.172	1157.279	884.065
280.585	15.152	1156.439	883.243
281.599	15.164	1155.987	882.880
282.614	15.193	1154.544	881.855
283.628	15.203	1153.457	880.996
284.643	15.223	1152.491	880.285
285.657	15.156	1151.557	879.145
286.672	15.152	1150.809	878.472
287.687	15.126	1150.124	877.737
288.701	15.162	1149.311	877.225
289.716	15.251	1148.549	877.031
290.730	15.332	1147.086	876.262
291.745	15.304	1146.770	875.797
292.760	15.377	1146.119	875.601
293.774	15.429	1145.761	875.525
294.789	15.354	1145.150	874.588
295.803	15.350	1144.460	873.963
296.818	15.336	1143.956	873.429
297.833	15.452	1142.544	872.878
298.847	15.476	1141.959	872.475
299.862	15.417	1141.199	871.510
300.876	15.441	1140.827	871.277
301.891	15.461	1140.123	870.765
302.906	15.479	1139.601	870.380
303.920	15.527	1138.883	870.008
304.935	15.592	1137.856	869.478
305.949	15.615	1137.094	868.942
306.964	15.673	1136.514	868.719
307.979	15.689	1135.521	867.968
308.993	15.668	1135.033	867.408
310.008	15.683	1134.168	866.750
311.022	15.682	1133.755	866.352
312.037	15.650	1132.625	865.245
313.052	15.610	1131.798	864.333
314.066	15.722	1130.794	864.065
315.081	15.604	1129.905	862.700
316.095	15.589	1129.517	862.253
317.110	15.603	1128.373	861.373
318.125	15.583	1127.650	860.643
319.139	15.537	1127.664	860.343
320.154	15.531	1126.534	859.375
321.168	15.758	1125.591	859.741
322.183	15.665	1125.345	858.997
323.197	15.714	1124.670	858.659
324.212	15.729	1123.792	857.990
325.227	15.676	1123.769	857.624
326.241	15.774	1123.028	857.482
327.256	15.748	1121.790	856.328
328.270	15.701	1121.190	855.555
329.285	15.791	1119.571	854.700
330.300	15.747	1118.816	853.830
331.314	15.782	1118.059	853.352
332.329	15.787	1117.140	852.598
333.343	15.677	1116.326	851.347
334.358	15.877	1115.533	851.676
335.373	15.923	1114.599	851.124
336.387	15.847	1113.702	849.980
337.402	15.858	1113.106	849.501
338.416	15.941	1112.677	849.517
339.431	15.890	1112.176	848.802
340.446	15.892	1111.376	848.128
341.460	16.008	1110.730	848.146
342.475	16.134	1109.574	847.822
343.489	16.030	1108.891	846.700
344.504	16.275	1107.515	846.805
345.519	16.128	1106.948	845.558
346.533	16.040	1106.500	844.703
347.548	16.224	1105.423	844.726
348.562	16.257	1104.708	844.271
349.577	16.160	1104.136	843.271
350.592	16.117	1103.141	842.222
351.606	16.175	1102.089	841.635
352.621	16.137	1101.676	841.058
353.635	16.135	1100.877	840.363
354.650	16.069	1100.594	839.743
355.665	16.145	1099.637	839.316
356.679	16.217	1098.849	839.001
357.694	16.161	1098.731	838.557
358.708	16.304	1097.604	838.333
359.723	16.305	1096.997	837.800
360.738	16.247	1096.379	836.967
361.752	16.303	1096.079	836.938
362.767	16.201	1095.525	835.935
363.781	16.174	1095.242	835.511
364.796	16.413	1094.124	835.770
365.810	16.324	1093.490	834.770
366.825	16.367	1092.740	834.335
367.840	16.493	1092.170	834.449
368.854	16.470	1091.795	833.978
369.869	16.481	1090.711	833.129
370.883	16.557	1090.005	832.891
371.898	16.470	1089.499	832.001
372.913	16.454	1088.840	831.343
373.927	16.528	1088.158	831.117
374.942	16.627	1087.566	831.073
375.956	16.504	1087.624	830.443
376.971	16.596	1086.601	830.039
377.986	16.565	1086.133	829.457
379.000	16.718	1085.183	829.408
380.015	16.725	1084.587	828.911
381.029	16.719	1083.971	828.340
382.044	16.740	1083.283	827.841
383.059	16.709	1082.731	827.197
384.073	16.767	1081.806	826.697
385.088	16.865	1080.466	826.082
386.102	16.749	1080.028	825.105
387.117	16.752	1078.910	824.195
388.132	16.780	1078.411	823.875
389.146	16.725	1077.233	822.636
390.161	16.788	1076.417	822.248
391.175	16.758	1075.866	821.607
392.190	16.879	1074.956	821.422
393.205	16.791	1074.527	820.601
394.219	16.890	1073.691	820.365
395.234	16.762	1072.967	819.123
396.248	16.822	1071.745	818.404
397.263	16.853	1070.709	817.692
398.278	16.846	1069.677	816.798
399.292	16.866	1069.537	816.716
400.307	16.852	1068.805	816.018
401.321	16.837	1068.258	815.456
402.336	16.704	1067.918	814.482
403.350	16.772	1067.120	814.128
404.365	16.962	1066.120	814.205
405.380	16.853	1065.391	813.052
406.394	17.027	1064.369	813.035
407.409	16.950	1063.870	812.214
408.423	17.031	1063.356	812.139
409.438	17.043	1062.350	811.357
410.453	17.104	1061.743	811.110
411.467	17.061	1061.344	810.528
412.482	17.152	1060.325	810.115
413.496	17.231	1059.743	809.975
414.511	17.140	1058.998	808.902
415.526	17.284	1058.781	809.346
416.540	17.280	1058.621	809.136
417.555	17.318	1057.680	808.526
418.569	17.338	1056.859	807.922
419.584	17.243	1056.291	806.963
420.599	17.332	1056.318	807.333
421.613	76.772	1278.180	1305.677
422.628	70.763	1310.497	1305.810
