DTS Sentinel unit serial number:	SN413079Multiplexer serial number:	ORYXHardware model number:	OX4-SRSoftware version number:	ORYX F/W v4.00 Oryx Data Collector v3.7.2.0data status	okinstallation	princeton_trtdifferential loss correction	single-endedforward channel	channel 2reverse channel	N/Adate	2019/09/13time	00:47:35forward acquisition time	60.00reverse acquisition time	0.00gamma	496.2192k internal	0.2332k external	0.2332temperature offset calibration	1.0160default loss term (dB/km)	0.3790temperature slope calibration	1.0000multiplexer offset coefficient	1.0000multiplexer slope coefficient	1.0000fibre end	0.00T internal ref (°C)	28.19T ext. ref 1 (°C)	3.66T ext. ref 2 (°C)	22.69length (m)	temperature (°C)	Stokes	anti-Stokes-747.200	263.918	-0.212	-0.371
-746.185	-200.000	-0.034	0.220
-745.171	800.000	-0.090	-0.260
-744.156	-110.423	0.184	-0.038
-743.142	-50.537	0.167	0.079
-742.127	273.099	-0.145	0.258
-741.112	265.846	0.122	0.215
-740.098	277.549	-0.126	0.225
-739.083	-26.523	-0.276	-0.162
-738.069	-40.455	-0.203	0.106
-737.054	-200.000	-0.011	-0.104
-736.039	72.271	0.226	0.237
-735.025	78.931	0.114	-0.123
-734.010	149.831	0.228	0.311
-732.996	-168.399	-0.467	0.018
-731.981	93.026	-0.054	0.061
-730.966	-72.027	-0.210	-0.079
-729.952	-139.411	-0.338	0.036
-728.937	-147.719	0.215	0.018
-727.923	57.086	0.176	0.172
-726.908	714.431	0.035	0.092
-725.894	143.572	-0.093	-0.125
-724.879	800.000	-0.070	0.244
-723.864	800.000	0.035	-0.120
-722.850	-44.376	0.072	-0.036
-721.835	-130.530	0.238	0.032
-720.821	90.154	0.300	-0.337
-719.806	800.000	0.103	-0.307
-718.791	19.851	0.140	-0.114
-717.777	336.251	0.127	-0.248
-716.762	446.336	0.067	-0.149
-715.748	-135.931	0.496	-0.059
-714.733	-126.525	0.188	-0.028
-713.718	219.645	0.081	-0.130
-712.704	271.543	-0.179	0.317
-711.689	-46.033	-0.136	0.067
-710.675	152.232	-0.101	0.138
-709.660	-200.000	-0.003	0.101
-708.645	-146.545	0.171	0.015
-707.631	-17.513	0.112	0.071
-706.616	37.832	-0.159	-0.142
-705.602	465.182	-0.073	0.164
-704.587	-51.594	0.298	0.139
-703.572	-50.213	-0.131	0.062
-702.558	-200.000	0.016	-0.182
-701.543	-29.846	0.357	-0.204
-700.529	427.548	-0.041	-0.089
-699.514	81.329	-0.241	0.261
-698.499	59.253	0.309	0.305
-697.485	-200.000	0.008	0.097
-696.470	-180.412	-0.273	0.006
-695.456	-107.902	0.160	0.035
-694.441	123.268	-0.142	0.178
-693.426	-193.194	-0.200	0.002
-692.412	800.000	-0.034	0.129
-691.397	-64.174	-0.216	-0.089
-690.383	220.389	-0.084	-0.135
-689.368	-141.387	-0.114	0.012
-688.354	-134.237	-0.199	0.025
-687.339	-178.159	-0.212	0.005
-686.324	-39.300	0.089	-0.047
-685.310	-99.017	-0.146	-0.037
-684.295	800.000	-0.170	-0.599
-683.281	478.886	0.066	-0.151
-682.266	-20.501	0.302	-0.186
-681.251	-18.125	0.092	-0.058
-680.237	800.000	-0.090	0.266
-679.222	-34.440	-0.122	-0.067
-678.208	-39.004	-0.094	0.050
-677.193	-67.308	0.322	0.127
-676.178	-84.258	-0.151	-0.048
-675.164	-55.559	-0.444	0.199
-674.149	-200.000	0.004	0.091
-673.135	296.605	-0.071	0.130
-672.120	-200.000	-0.003	-0.145
-671.105	-91.725	-0.153	-0.044
-670.091	-200.000	0.439	-0.001
-669.076	-89.424	-0.231	-0.068
-668.062	12.741	-0.258	0.200
-667.047	432.932	0.051	0.110
-666.032	525.072	0.098	0.231
-665.018	-93.505	0.325	-0.090
-664.003	1.262	-0.118	0.085
-662.989	-122.510	-0.340	-0.055
-661.974	-35.970	0.172	-0.094
-660.959	12.451	-0.183	0.141
-659.945	-200.000	-0.001	-0.090
-658.930	-57.379	-0.178	-0.078
-657.916	-125.179	0.236	0.036
-656.901	548.055	0.091	-0.217
-655.886	800.000	0.039	-0.118
-654.872	-116.140	0.202	0.038
-653.857	275.873	0.054	-0.097
-652.843	399.758	-0.082	-0.172
-651.828	-91.353	0.102	-0.029
-650.814	-200.000	-0.003	0.024
-649.799	171.753	-0.211	-0.304
-648.784	1.879	-0.327	0.237
-647.770	62.453	-0.046	0.046
-646.755	-117.388	0.216	0.039
-645.741	-8.752	-0.100	0.067
-644.726	-200.000	-0.006	0.142
-643.711	-84.156	0.269	0.086
-642.697	-55.108	-0.249	-0.112
-641.682	577.489	-0.025	-0.061
-640.668	119.074	-0.197	0.244
-639.653	-97.080	-0.094	0.025
-638.638	800.000	-0.056	-0.156
-637.624	800.000	-0.026	-0.092
-636.609	800.000	0.092	0.303
-635.595	31.669	0.203	-0.175
-634.580	746.260	-0.076	0.206
-633.565	120.060	-0.169	-0.210
-632.551	-90.149	-0.102	-0.030
-631.536	-200.000	0.050	0.289
-630.522	-44.190	0.142	0.071
-629.507	-67.315	-0.115	0.045
-628.492	79.510	0.171	0.183
-627.478	149.355	-0.035	-0.048
-626.463	-38.618	-0.093	0.049
-625.449	-100.213	0.167	0.042
-624.434	-65.662	0.190	-0.076
-623.419	-28.618	-0.246	0.142
-622.405	-85.479	-0.178	0.056
-621.390	800.000	0.100	-0.295
-620.376	-200.000	0.018	-0.229
-619.361	-102.608	-0.530	-0.127
-618.346	-174.236	0.179	-0.005
-617.332	-38.136	0.015	0.008
-616.317	-158.973	0.303	-0.017
-615.303	-200.000	-0.069	-0.462
-614.288	800.000	0.034	-0.108
-613.273	87.172	-0.076	-0.084
-612.259	104.423	0.175	0.207
-611.244	-6.768	-0.124	0.084
-610.230	-200.000	-0.023	0.230
-609.215	-143.560	-0.149	0.014
-608.201	-200.000	0.003	-0.272
-607.186	-56.449	0.133	-0.059
-606.171	78.259	-0.059	0.063
-605.157	-65.910	-0.310	0.124
-604.142	-54.020	-0.104	-0.047
-603.128	-200.000	-0.012	-0.189
-602.113	-195.236	-0.120	-0.001
-601.098	196.300	-0.088	0.134
-600.084	-200.000	-0.028	0.210
-599.069	-65.059	-0.200	-0.081
-598.055	39.956	-0.119	-0.107
-597.040	-128.418	-0.173	0.025
-596.025	171.775	-0.159	0.229
-595.011	172.961	0.067	-0.096
-593.996	-44.118	-0.230	0.115
-592.982	-149.029	-0.237	-0.019
-591.967	23.216	0.296	0.243
-590.952	194.364	-0.063	0.096
-589.938	-28.594	-0.032	0.019
-588.923	-146.148	0.191	0.017
-587.909	-30.542	-0.198	-0.112
-586.894	287.405	0.203	-0.366
-585.879	-70.318	0.194	-0.074
-584.865	800.000	-0.083	-0.305
-583.850	-200.000	-0.060	0.299
-582.836	534.809	-0.064	0.151
-581.821	663.587	-0.037	-0.094
-580.806	-149.629	0.127	0.010
-579.792	-73.140	-0.079	-0.029
-578.777	-200.000	-0.024	0.426
-577.763	130.698	0.151	-0.194
-576.748	433.312	0.081	-0.177
-575.733	85.907	0.144	0.159
-574.719	-40.245	-0.107	0.055
-573.704	591.746	0.055	-0.135
-572.690	37.462	-0.092	-0.081
-571.675	-200.000	0.016	0.154
-570.661	-98.101	0.609	0.157
-569.646	-185.983	0.070	0.001
-568.631	-200.000	-0.026	-0.285
-567.617	-200.000	0.027	-0.124
-566.602	19.048	-0.565	0.453
-565.588	-88.425	0.222	0.066
-564.573	48.048	0.092	-0.086
-563.558	-11.300	-0.283	0.186
-562.544	-11.354	-0.200	0.132
-561.529	-200.000	0.001	0.169
-560.515	284.706	0.072	0.130
-559.500	-71.458	-0.052	-0.019
-558.485	150.460	0.024	-0.033
-557.471	28.765	-0.231	-0.196
-556.456	-200.000	0.004	0.113
-555.442	-134.604	0.365	0.044
-554.427	800.000	-0.030	0.083
-553.412	-172.092	-0.211	0.007
-552.398	-21.841	0.198	0.120
-551.383	519.479	0.143	0.335
-550.369	-200.000	-0.055	0.447
-549.354	631.878	-0.113	0.285
-548.339	14.091	0.115	-0.089
-547.325	-200.000	-0.395	0.000
-546.310	-98.031	0.177	-0.046
-545.296	35.067	0.209	-0.183
-544.281	102.975	-0.109	0.127
-543.266	4.652	-0.072	0.053
-542.252	207.873	0.104	0.162
-541.237	-47.591	-0.252	-0.122
-540.223	-24.513	0.021	0.013
-539.208	226.700	-0.086	-0.140
-538.193	-17.543	-0.379	-0.238
-537.179	-151.842	0.306	-0.022
-536.164	-200.000	-0.049	0.284
-535.150	-200.000	0.007	-0.041
-534.135	800.000	0.032	-0.104
-533.121	-47.002	0.186	-0.091
-532.106	-44.108	0.374	-0.187
-531.091	-146.743	-0.215	0.019
-530.077	800.000	-0.141	-0.575
-529.062	-200.000	-0.060	-0.529
-528.048	228.657	-0.114	-0.185
-527.033	-98.944	0.052	0.013
-526.018	96.099	0.088	0.100
-525.004	-200.000	0.034	0.187
-523.989	214.937	-0.068	-0.108
-522.975	361.625	-0.102	-0.204
-521.960	-81.519	-0.376	0.123
-520.945	339.846	-0.202	0.393
-519.931	-195.497	0.333	0.002
-518.916	147.409	-0.043	0.058
-517.902	-200.000	0.004	0.039
-516.887	2.568	0.079	-0.057
-515.872	383.530	-0.178	-0.365
-514.858	549.663	-0.103	-0.245
-513.843	308.662	-0.029	0.054
-512.829	-7.341	0.064	0.043
-511.814	800.000	-0.098	-0.338
-510.799	800.000	0.061	0.214
-509.785	-123.813	-0.217	-0.034
-508.770	301.210	0.043	0.080
-507.756	-200.000	0.019	-0.266
-506.741	-65.060	-0.070	0.028
-505.726	-134.145	0.064	0.008
-504.712	12.715	-0.035	-0.027
-503.697	188.056	-0.196	-0.291
-502.683	56.084	0.046	-0.045
-501.668	-41.234	-0.250	0.129
-500.653	-81.132	-0.074	0.024
-499.639	800.000	-0.074	-0.280
-498.624	-58.347	-0.300	-0.130
-497.610	118.954	-0.098	0.120
-496.595	-20.035	0.481	-0.295
-495.581	-200.000	0.024	0.138
-494.566	5.606	-0.014	0.010
-493.551	-200.000	0.029	0.153
-492.537	4.565	0.186	0.136
-491.522	783.617	-0.005	-0.013
-490.508	21.541	0.110	-0.089
-489.493	-28.072	0.260	0.150
-488.478	-200.000	-0.037	0.222
-487.464	800.000	0.049	0.212
-486.449	-8.050	0.292	0.196
-485.435	-25.365	-0.249	-0.147
-484.420	138.567	0.060	0.078
-483.405	-97.559	-0.191	0.049
-482.391	-58.569	0.260	0.112
-481.376	-68.936	0.443	0.170
-480.362	800.000	-0.230	-0.653
-479.347	-200.000	0.006	-0.182
-478.332	102.800	-0.043	-0.051
-477.318	-136.289	-0.154	0.018
-476.303	-76.609	-0.430	-0.150
-475.289	-6.998	0.069	-0.046
-474.274	-200.000	0.022	-0.156
-473.259	-114.500	0.111	0.021
-472.245	280.410	0.218	-0.388
-471.230	-9.994	0.188	-0.124
-470.216	110.837	0.256	-0.306
-469.201	90.064	0.037	-0.041
-468.186	-32.862	-0.154	0.085
-467.172	88.230	0.130	-0.144
-466.157	197.284	-0.101	-0.154
-465.143	-200.000	0.024	0.130
-464.128	-80.838	-0.286	0.094
-463.113	-200.000	0.024	0.202
-462.099	-117.489	0.421	-0.076
-461.084	32.022	0.092	0.079
-460.070	-121.045	-0.155	-0.026
-459.055	-115.982	0.116	-0.022
-458.040	-46.415	0.072	-0.035
-457.026	206.495	0.046	-0.072
-456.011	-183.497	-0.259	-0.004
-454.997	-145.185	0.132	-0.012
-453.982	49.923	0.054	0.050
-452.968	513.251	-0.069	0.161
-451.953	-98.861	-0.134	0.034
-450.938	-139.128	0.379	-0.041
-449.924	-142.478	0.071	0.007
-448.909	614.277	-0.169	0.420
-447.895	195.487	0.066	0.099
-446.880	-114.989	-0.077	-0.015
-445.865	-96.202	0.312	-0.082
-444.851	-200.000	0.005	0.057
-443.836	-128.604	-0.225	-0.032
-442.822	-97.083	0.129	0.034
-441.807	-137.001	-0.151	0.017
-440.792	-40.606	-0.175	-0.090
-439.778	72.565	0.064	-0.066
-438.763	-132.841	-0.068	0.009
-437.749	-39.020	0.170	-0.089
-436.734	800.000	-0.034	0.120
-435.719	156.842	0.090	0.123
-434.705	800.000	-0.034	-0.120
-433.690	15.619	-0.113	-0.088
-432.676	800.000	0.061	-0.201
-431.661	53.555	-0.180	-0.172
-430.646	800.000	-0.075	-0.222
-429.632	586.306	0.112	0.274
-428.617	800.000	0.045	0.167
-427.603	145.854	0.234	0.312
-426.588	-95.730	-0.173	0.046
-425.573	225.846	-0.128	0.206
-424.559	-87.978	-0.098	0.029
-423.544	-200.000	-0.031	0.160
-422.530	139.795	0.108	0.142
-421.515	90.504	-0.180	0.201
-420.500	-77.113	0.263	-0.091
-419.486	-174.515	-0.350	-0.010
-418.471	-43.418	-0.075	-0.037
-417.457	-30.609	-0.069	-0.039
-416.442	78.197	-0.285	0.303
-415.428	649.003	-0.074	0.189
-414.413	-200.000	0.014	0.180
-413.398	-46.164	0.293	-0.143
-412.384	237.106	-0.125	-0.205
-411.369	44.228	0.176	0.160
-410.355	-12.169	-0.278	0.181
-409.340	-200.000	-0.008	0.317
-408.325	-179.753	0.149	0.003
-407.311	33.776	0.148	-0.128
-406.296	800.000	-0.011	0.044
-405.282	256.469	-0.098	-0.168
-404.267	750.382	0.155	0.416
-403.252	-122.446	0.198	0.032
-402.238	-34.671	-0.105	0.057
-401.223	-68.125	0.159	0.062
-400.209	800.000	0.151	-0.468
-399.194	-181.271	-0.211	0.004
-398.179	148.626	-0.316	-0.424
-397.165	-167.990	-0.141	0.005
-396.150	-45.109	0.135	0.067
-395.136	8.760	0.342	-0.256
-394.121	-200.000	0.045	-0.240
-393.106	-77.567	0.110	0.038
-392.092	252.813	-0.067	-0.113
-391.077	-28.712	0.191	0.109
-390.063	-128.311	0.479	-0.068
-389.048	341.691	-0.245	-0.476
-388.033	-46.034	-0.116	0.057
-387.019	-52.781	0.346	0.158
-386.004	-109.617	-0.073	-0.015
-384.990	-200.000	0.086	-0.474
-383.975	126.382	-0.094	0.118
-382.960	164.738	-0.086	0.120
-381.946	-8.359	0.236	-0.157
-380.931	800.000	-0.104	0.298
-379.917	-200.000	0.058	0.292
-378.902	-123.298	0.102	-0.016
-377.888	6.494	-0.274	0.202
-376.873	70.542	-0.270	-0.277
-375.858	97.387	0.172	0.196
-374.844	233.703	0.153	0.249
-373.829	800.000	0.089	-0.328
-372.815	-200.000	0.104	-0.482
-371.800	461.131	-0.097	0.214
-370.785	800.000	-0.088	0.287
-369.771	285.873	0.048	-0.086
-368.756	-28.704	-0.264	-0.150
-367.742	-89.205	-0.179	0.052
-366.727	-146.740	-0.220	-0.019
-365.712	-168.106	0.106	-0.004
-364.698	605.767	0.187	-0.461
-363.683	-33.137	-0.318	-0.175
-362.669	-40.585	0.265	0.136
-361.654	-200.000	-0.004	0.060
-360.639	28.098	0.381	0.318
-359.625	251.479	-0.162	0.272
-358.610	-77.077	-0.172	-0.059
-357.596	800.000	0.021	-0.059
-356.581	776.351	-0.030	-0.082
-355.566	-76.413	0.179	-0.062
-354.552	800.000	0.020	0.069
-353.537	-78.145	-0.176	-0.060
-352.523	800.000	-0.035	0.102
-351.508	-56.035	0.298	0.131
-350.493	-13.193	0.071	-0.046
-349.479	-170.672	0.258	0.009
-348.464	174.837	0.115	-0.165
-347.450	-200.000	-0.047	0.208
-346.435	-97.721	-0.110	0.028
-345.420	-7.788	0.137	-0.091
-344.406	-72.668	-0.229	0.083
-343.391	80.167	-0.162	0.173
-342.377	499.521	-0.037	0.085
-341.362	-143.253	-0.093	0.009
-340.348	-51.888	0.166	-0.077
-339.333	363.211	-0.080	-0.158
-338.318	-134.844	-0.171	-0.020
-337.304	12.539	0.206	0.157
-336.289	-200.000	0.011	-0.386
-335.275	-171.954	-0.104	0.003
-334.260	-35.032	0.132	0.071
-333.245	-88.409	-0.024	-0.007
-332.231	-12.381	0.091	-0.059
-331.216	94.599	-0.092	0.103
-330.202	-200.000	-0.029	-0.157
-329.187	-69.182	-0.154	0.058
-328.172	529.965	0.224	-0.524
-327.158	532.728	0.095	-0.223
-326.143	-164.487	0.099	0.004
-325.129	-42.557	0.240	-0.121
-324.114	-200.000	0.053	-0.270
-323.099	102.403	0.173	0.200
-322.085	-41.741	-0.438	-0.222
-321.070	356.950	-0.069	-0.136
-320.056	23.939	-0.220	-0.180
-319.041	-131.624	-0.157	-0.020
-318.026	162.698	-0.110	0.152
-317.012	-43.572	-0.020	0.010
-315.997	69.330	0.088	0.090
-314.983	-100.683	-0.119	0.029
-313.968	-117.250	0.200	0.036
-312.953	158.430	0.146	0.201
-311.939	-16.302	-0.160	-0.101
-310.924	-47.299	0.160	0.077
-309.910	-77.948	0.224	-0.076
-308.895	91.993	-0.167	-0.186
-307.880	-200.000	-0.014	-0.308
-306.866	-46.592	0.121	0.059
-305.851	215.174	-0.128	0.201
-304.837	-115.411	0.217	-0.040
-303.822	-36.918	0.249	0.132
-302.807	218.638	0.232	0.367
-301.793	-20.652	-0.281	-0.171
-300.778	70.292	0.143	0.146
-299.764	-121.277	-0.067	-0.011
-298.749	679.896	-0.056	0.143
-297.735	-151.743	0.404	-0.029
-296.720	279.998	-0.131	0.232
-295.705	154.396	0.239	0.324
-294.691	-37.043	-0.131	-0.069
-293.676	-118.607	-0.404	0.071
-292.662	-60.407	0.128	0.054
-291.647	275.566	-0.013	0.024
-290.632	44.513	0.197	0.179
-289.618	150.320	-0.308	-0.413
-288.603	92.693	0.110	0.123
-287.589	-122.040	0.247	0.040
-286.574	-101.491	0.100	-0.024
-285.559	-200.000	-0.002	0.023
-284.545	63.532	-0.239	-0.237
-283.530	754.883	-0.098	0.263
-282.516	165.186	0.113	0.158
-281.501	800.000	-0.026	0.087
-280.486	-34.703	0.216	0.117
-279.472	-200.000	-0.004	0.092
-278.457	286.601	-0.081	0.145
-277.443	-121.786	0.284	0.046
-276.428	-60.832	0.286	-0.119
-275.413	11.082	0.287	0.217
-274.399	-87.404	0.206	0.062
-273.384	-158.516	-0.249	0.014
-272.370	290.739	-0.148	0.266
-271.355	-200.000	-0.016	-0.102
-270.340	-98.404	-0.242	0.061
-269.326	-29.929	-0.185	-0.104
-268.311	60.818	-0.246	-0.241
-267.297	-200.000	0.033	0.214
-266.282	-200.000	-0.030	-0.185
-265.267	241.105	-0.098	0.161
-264.253	548.229	0.064	-0.151
-263.238	-172.572	0.533	0.017
-262.224	800.000	0.054	0.213
-261.209	-156.860	0.352	-0.021
-260.195	-200.000	-0.023	-0.144
-259.180	55.581	-0.089	-0.085
-258.165	-61.629	0.191	-0.079
-257.151	9.371	-0.064	-0.048
-256.136	2.695	-0.140	0.100
-255.122	275.662	-0.110	0.192
-254.107	-200.000	-0.103	-0.473
-253.092	473.002	-0.080	0.178
-252.078	37.545	0.111	-0.097
-251.063	-117.298	0.520	0.093
-250.049	-200.000	0.056	0.426
-249.034	-135.706	-0.193	0.023
-248.019	-200.000	-0.005	-0.157
-247.005	-200.000	-0.012	-0.298
-245.990	-102.718	0.388	0.091
-244.976	800.000	0.060	0.213
-243.961	800.000	-0.019	0.061
-242.946	762.804	0.015	0.041
-241.932	3.144	0.165	0.118
-240.917	-9.084	-0.100	0.066
-239.903	225.874	-0.094	0.151
-238.888	800.000	0.132	0.442
-237.873	347.537	-0.025	-0.049
-236.859	-140.716	-0.289	0.030
-235.844	-200.000	0.013	0.139
-234.830	-81.550	0.370	0.120
-233.815	446.629	-0.160	0.346
-232.800	108.156	0.136	0.160
-231.786	680.076	-0.152	-0.390
-230.771	-200.000	-0.058	-0.326
-229.757	633.345	-0.114	0.284
-228.742	-80.479	-0.260	0.085
-227.727	284.585	-0.166	-0.295
-226.713	-200.000	0.018	-0.249
-225.698	21.038	0.108	-0.087
-224.684	-21.559	-0.208	-0.125
-223.669	-136.568	-0.138	-0.016
-222.655	800.000	0.056	0.197
-221.640	-68.534	-0.018	-0.007
-220.625	8.707	0.200	0.148
-219.611	539.625	0.084	-0.197
-218.596	-34.748	0.209	-0.112
-217.582	229.488	0.087	0.140
-216.567	-80.653	-0.222	-0.073
-215.552	-200.000	0.006	0.105
-214.538	15.319	-0.106	-0.082
-213.523	-200.000	0.006	0.146
-212.509	6.425	-0.208	-0.152
-211.494	-200.000	-0.207	-0.001
-210.479	-48.837	-0.269	0.127
-209.465	800.000	0.083	-0.225
-208.450	-89.074	-0.125	-0.036
-207.436	-3.432	0.203	0.139
-206.421	339.609	-0.073	-0.140
-205.406	301.828	0.195	-0.356
-204.392	387.631	0.099	-0.202
-203.377	-200.000	-0.013	0.092
-202.363	-200.000	0.020	0.269
-201.348	27.441	0.206	0.170
-200.333	45.826	-0.140	-0.128
-199.319	800.000	0.054	0.171
-198.304	-82.575	-0.145	-0.046
-197.290	-200.000	-0.008	-0.091
-196.275	-57.387	-0.124	0.054
-195.260	-66.333	-0.116	-0.045
-194.246	800.000	0.030	-0.113
-193.231	-200.000	0.038	0.207
-192.217	-11.469	-0.153	-0.099
-191.202	132.927	0.126	0.160
-190.187	221.150	-0.040	-0.063
-189.173	310.969	0.119	0.220
-188.158	800.000	-0.043	-0.144
-187.144	98.357	-0.091	-0.103
-186.129	800.000	0.104	0.422
-185.114	-200.000	0.028	0.136
-184.100	-53.329	-0.265	0.120
-183.085	800.000	-0.122	-0.357
-182.071	-3.937	0.187	0.128
-181.056	307.530	-0.088	0.161
-180.042	424.288	-0.061	-0.129
-179.027	135.210	0.073	0.093
-178.012	-176.705	-0.295	0.007
-176.998	29.678	-0.118	-0.099
-175.983	99.604	0.138	-0.157
-174.969	-200.000	0.006	-0.106
-173.954	-200.000	0.003	0.167
-172.939	91.884	0.144	-0.159
-171.925	233.421	0.146	-0.236
-170.910	-200.000	0.048	-0.284
-169.896	113.030	0.071	0.084
-168.881	-149.975	-0.281	-0.022
-167.866	-30.632	-0.013	0.007
-166.852	-138.108	0.073	-0.008
-165.837	-200.000	-0.021	0.318
-164.823	800.000	0.091	-0.367
-163.808	-73.490	-0.143	0.051
-162.793	199.951	-0.059	-0.090
-161.779	34.183	0.132	-0.113
-160.764	-37.904	0.151	0.079
-159.750	800.000	-0.083	-0.307
-158.735	-200.000	0.079	-0.561
-157.720	544.721	0.048	0.113
-156.706	-200.000	0.043	0.192
-155.691	356.996	0.116	-0.228
-154.677	18.862	0.272	0.214
-153.662	75.874	-0.077	0.080
-152.647	-200.000	-0.002	-0.036
-151.633	-27.575	0.197	0.113
-150.618	-162.556	-0.372	-0.018
-149.604	118.943	-0.020	0.024
-148.589	-197.362	-0.445	-0.003
-147.574	800.000	-0.037	0.113
-146.560	657.283	-0.132	-0.333
-145.545	-159.785	0.091	-0.005
-144.531	110.004	0.107	0.127
-143.516	104.265	0.109	0.126
-142.502	68.820	-0.158	0.159
-141.487	379.281	0.005	-0.010
-140.472	-200.000	0.008	-0.352
-139.458	89.247	-0.151	0.165
-138.443	-200.000	0.027	0.367
-137.429	-154.537	0.079	-0.005
-136.414	800.000	0.114	0.317
-135.399	421.377	-0.076	0.160
-134.385	-112.003	0.332	-0.066
-133.370	-130.151	-0.135	0.018
-132.356	-19.871	0.175	-0.106
-131.341	91.106	-0.441	-0.486
-130.326	-98.785	0.505	0.126
-129.312	9.629	0.197	0.147
-128.297	357.819	-0.143	0.280
-127.283	-200.000	-0.014	0.548
-126.268	412.039	0.099	0.206
-125.253	-82.478	-0.164	-0.052
-124.239	46.960	0.147	0.134
-123.224	-71.709	-0.227	0.083
-122.210	72.594	-0.341	-0.350
-121.195	-104.940	0.181	-0.041
-120.180	128.651	0.077	-0.096
-119.166	86.402	-0.053	-0.058
-118.151	99.757	0.167	0.189
-117.137	-200.000	0.057	0.303
-116.122	-88.084	0.096	0.028
-115.107	-200.000	-0.036	-0.400
-114.093	274.019	-0.028	0.049
-113.078	-54.914	0.078	0.035
-112.064	-68.577	0.099	-0.038
-111.049	227.643	0.019	-0.030
-110.034	-200.000	0.023	-0.173
-109.020	140.111	0.209	0.271
-108.005	-80.739	0.138	-0.045
-106.991	-200.000	0.000	0.134
-105.976	800.000	0.073	0.229
-104.962	78.256	0.172	-0.180
-103.947	-200.000	-0.008	-0.121
-102.932	81.010	-0.197	0.209
-101.918	44.236	0.232	0.209
-100.903	-49.760	0.235	-0.110
-99.889	-200.000	-0.007	0.391
-98.874	-78.576	-0.026	0.009
-97.859	800.000	-0.172	0.492
-96.845	-74.035	-0.141	-0.050
-95.830	55.373	-0.231	0.219
-94.816	51.823	0.103	0.096
-93.801	633.348	0.042	0.104
-92.786	-134.832	0.045	0.005
-91.772	-2.018	0.119	-0.082
-90.757	-200.000	0.076	-0.337
-89.743	-78.918	0.169	-0.056
-88.728	-39.528	0.216	0.111
-87.713	53.712	0.135	0.127
-86.699	102.994	0.099	-0.113
-85.684	-84.993	-0.064	-0.020
-84.670	-82.500	0.103	0.033
-83.655	38.780	-0.166	0.145
-82.640	49.163	0.117	0.108
-81.626	316.693	-0.065	-0.120
-80.611	421.266	-0.021	-0.045
-79.597	-200.000	0.035	0.256
-78.582	-33.278	-0.415	-0.225
-77.567	15.717	0.107	0.082
-76.553	51.490	-0.193	-0.180
-75.538	-7.022	-0.224	0.149
-74.524	39.382	0.082	0.072
-73.509	-155.711	0.193	-0.012
-72.494	262.309	0.146	0.249
-71.480	800.000	-0.055	-0.195
-70.465	800.000	-0.030	0.088
-69.451	-80.706	0.080	-0.026
-68.436	-6.553	0.155	0.103
-67.422	-17.984	0.027	0.017
-66.407	-16.771	-0.130	0.080
-65.392	-75.348	-0.159	-0.056
-64.378	165.103	0.027	-0.037
-63.363	-16.489	0.376	0.233
-62.349	37.731	0.190	-0.166
-61.334	90.696	-0.948	-1.040
-60.319	-5.277	0.902	0.607
-59.305	211.491	-0.624	-0.962
-58.290	800.000	0.421	1.318
-57.276	426.067	0.645	1.360
-56.261	-200.000	113.429	644.090
-55.246	533.477	1517.484	3519.207
-54.232	177.528	2694.835	3844.355
-53.217	104.461	2283.132	2631.957
-52.203	37.507	1890.173	1641.465
-51.188	31.486	1678.636	1412.398
-50.173	28.899	1635.650	1357.109
-49.159	50.271	1692.338	1565.100
-48.144	49.375	1705.143	1570.169
-47.130	30.998	1663.734	1395.987
-46.115	28.339	1648.627	1363.497
-45.100	28.094	1644.119	1357.890
-44.086	27.980	1641.739	1355.027
-43.071	28.023	1638.533	1352.647
-42.057	27.963	1636.542	1350.507
-41.042	27.999	1634.498	1349.034
-40.027	28.015	1632.802	1347.696
-39.013	28.076	1630.778	1346.422
-37.998	28.026	1629.152	1344.655
-36.984	28.088	1627.365	1343.582
-35.969	28.183	1625.933	1343.049
-34.954	28.237	1623.892	1341.701
-33.940	28.124	1622.640	1339.788
-32.925	28.160	1621.133	1338.756
-31.911	28.099	1619.503	1336.909
-30.896	28.203	1617.355	1335.843
-29.881	28.224	1616.100	1334.903
-28.867	28.188	1614.251	1333.061
-27.852	28.092	1613.016	1331.291
-26.838	28.125	1611.667	1330.365
-25.823	28.196	1610.077	1329.513
-24.809	28.164	1609.015	1328.355
-23.794	28.219	1607.393	1327.359
-22.779	28.211	1605.700	1325.849
-21.765	28.187	1604.205	1324.390
-20.750	28.269	1602.901	1323.858
-19.736	28.216	1601.950	1322.634
-18.721	28.224	1600.279	1321.261
-17.706	28.244	1598.607	1319.969
-16.692	28.222	1597.192	1318.591
-15.677	28.243	1595.736	1317.489
-14.663	28.258	1594.446	1316.481
-13.648	28.322	1592.987	1315.680
-12.633	28.197	1591.641	1313.619
-11.619	28.185	1589.968	1312.102
-10.604	28.142	1588.680	1310.676
-9.590	28.225	1586.987	1309.824
-8.575	28.234	1586.371	1309.328
-7.560	28.319	1585.006	1308.756
-6.546	28.245	1583.976	1307.323
-5.531	28.259	1583.217	1306.747
-4.517	28.163	1582.016	1305.016
-3.502	28.193	1580.904	1304.264
-2.487	28.244	1578.778	1302.818
-1.473	27.979	1567.184	1291.332
-0.458	24.986	1548.515	1254.962
0.556	22.818	1548.838	1222.333
1.571	20.342	1572.746	1223.660
2.586	19.794	1584.937	1229.149
3.600	17.872	1531.654	1174.505
4.615	11.004	1425.666	1049.000
5.629	4.714	1365.858	965.957
6.644	3.740	1358.035	954.322
7.659	3.503	1357.290	952.251
8.673	3.679	1356.187	952.479
9.688	3.719	1354.082	951.163
10.702	3.576	1350.970	948.018
11.717	6.497	1356.778	970.006
12.731	14.252	1370.827	1028.028
13.746	21.242	1382.195	1079.833
14.761	23.109	1384.159	1092.816
15.775	22.680	1382.607	1088.847
16.790	21.706	1380.435	1081.035
17.804	21.059	1378.669	1075.570
18.819	20.885	1377.355	1073.373
19.834	20.902	1376.375	1072.619
20.848	20.803	1375.702	1071.392
21.863	20.701	1374.652	1069.856
22.877	20.589	1373.424	1068.118
23.892	20.527	1372.483	1066.909
24.907	20.443	1371.541	1065.569
25.921	20.419	1370.799	1064.749
26.936	20.419	1369.504	1063.648
27.950	20.531	1368.934	1063.795
28.965	20.674	1368.320	1064.099
29.980	20.778	1366.843	1063.494
30.994	21.039	1365.527	1063.967
32.009	20.938	1365.294	1063.078
33.023	20.877	1364.351	1061.879
34.038	20.771	1362.575	1059.753
35.053	20.765	1361.046	1058.437
36.067	20.529	1360.936	1056.820
37.082	20.701	1359.125	1056.363
38.096	20.726	1358.269	1055.757
39.111	20.784	1357.995	1055.806
40.126	20.574	1357.199	1053.818
41.140	20.336	1355.842	1051.228
42.155	20.141	1355.156	1049.428
43.169	20.101	1355.173	1049.101
44.184	20.125	1354.711	1048.800
45.199	20.312	1354.608	1049.754
46.213	20.476	1354.349	1050.453
47.228	20.680	1353.722	1051.107
48.242	20.598	1352.441	1049.525
49.257	20.598	1350.785	1048.146
50.271	20.526	1349.828	1046.878
51.286	20.486	1348.571	1045.572
52.301	20.519	1347.041	1044.490
53.315	20.368	1346.044	1042.719
54.330	20.323	1344.955	1041.512
55.344	20.240	1343.767	1039.999
56.359	20.296	1342.297	1039.105
57.374	20.121	1341.982	1037.726
58.388	20.005	1341.069	1036.234
59.403	19.965	1340.497	1035.457
60.417	19.903	1339.864	1034.505
61.432	19.912	1338.861	1033.693
62.447	19.793	1337.738	1032.028
63.461	19.814	1336.465	1031.079
64.476	19.807	1335.270	1030.024
65.490	19.746	1334.488	1028.966
66.505	19.790	1332.676	1027.741
67.520	19.853	1331.654	1027.237
68.534	19.771	1330.879	1026.057
69.549	19.767	1329.775	1025.096
70.563	19.578	1328.598	1022.980
71.578	19.472	1327.718	1021.580
72.593	19.401	1326.547	1020.173
73.607	19.436	1326.138	1019.975
74.622	19.555	1325.271	1019.919
75.636	19.594	1324.705	1019.619
76.651	19.698	1323.649	1019.334
77.666	19.725	1323.738	1019.469
78.680	19.755	1323.224	1019.163
79.695	19.870	1322.585	1019.256
80.709	19.977	1321.773	1019.168
81.724	20.114	1321.292	1019.515
82.739	20.171	1320.855	1019.425
83.753	20.595	1319.912	1021.095
84.768	20.622	1319.283	1020.678
85.782	20.829	1317.723	1020.592
86.797	20.817	1317.055	1019.913
87.812	20.661	1316.030	1018.117
88.826	20.678	1314.623	1017.042
89.841	20.649	1314.147	1016.413
90.855	20.792	1312.654	1016.004
91.870	20.870	1312.145	1015.973
92.884	20.900	1311.305	1015.406
93.899	20.951	1310.592	1015.059
94.914	21.040	1310.023	1015.049
95.928	20.873	1309.363	1013.474
96.943	20.879	1308.234	1012.548
97.957	20.752	1307.414	1011.088
98.972	20.811	1305.958	1010.212
99.987	20.777	1305.858	1009.850
101.001	20.787	1304.993	1009.147
102.016	20.885	1303.484	1008.457
103.030	20.748	1302.983	1007.192
104.045	20.793	1301.694	1006.367
105.060	20.515	1300.643	1003.860
106.074	20.325	1298.550	1001.058
107.089	19.958	1297.014	997.670
108.103	19.851	1295.540	995.830
109.118	19.767	1294.311	994.315
110.133	19.791	1293.231	993.538
111.147	19.884	1292.172	993.171
112.162	19.864	1291.168	992.194
113.176	19.974	1289.841	991.719
114.191	20.025	1289.369	991.558
115.206	20.051	1287.806	990.420
116.220	20.009	1286.468	989.060
117.235	20.055	1285.266	988.309
118.249	19.890	1284.531	986.721
119.264	19.765	1283.260	984.941
120.279	19.825	1282.243	984.414
121.293	19.704	1281.212	982.853
122.308	19.491	1280.098	980.698
123.322	19.524	1279.005	979.963
124.337	19.390	1278.164	978.471
125.352	19.398	1276.799	977.382
126.366	19.378	1275.869	976.471
127.381	19.392	1274.869	975.698
128.395	19.412	1273.644	974.788
129.410	19.506	1273.007	974.746
130.424	19.530	1272.549	974.445
131.439	19.697	1271.470	974.472
132.454	19.832	1270.984	974.777
133.468	19.949	1270.413	974.912
134.483	19.908	1269.576	973.951
135.497	19.914	1268.677	973.207
136.512	19.979	1267.400	972.511
137.527	20.002	1266.310	971.714
138.541	20.029	1264.583	970.457
139.556	20.231	1263.574	970.725
140.570	20.243	1262.982	970.253
141.585	20.426	1261.906	970.363
142.600	20.474	1261.398	970.155
143.614	20.675	1260.320	970.358
144.629	20.618	1259.887	969.625
145.643	20.701	1258.213	968.711
146.658	20.559	1256.565	966.569
147.673	20.321	1255.364	964.234
148.687	20.163	1254.373	962.510
149.702	20.085	1252.466	960.530
150.716	19.910	1250.704	958.127
151.731	19.946	1249.869	957.603
152.746	20.033	1249.058	957.374
153.760	20.156	1248.109	957.244
154.775	20.248	1247.166	956.941
155.789	20.289	1246.297	956.420
156.804	20.359	1245.158	955.841
157.819	20.422	1244.469	955.576
158.833	20.478	1244.227	955.617
159.848	20.671	1243.188	955.791
160.862	20.805	1241.763	955.349
161.877	20.216	1240.933	951.396
162.892	19.989	1238.873	948.489
163.906	19.869	1237.915	947.017
164.921	19.851	1237.561	946.564
165.935	20.065	1236.842	947.098
166.950	20.206	1235.924	947.079
167.964	20.203	1235.509	946.660
168.979	20.100	1234.598	945.317
169.994	20.044	1233.825	944.339
171.008	20.088	1233.073	943.921
172.023	20.331	1231.951	944.301
173.037	20.489	1231.717	944.895
174.052	20.413	1230.919	943.783
175.067	20.028	1229.834	940.778
176.081	19.949	1228.095	938.939
177.096	19.807	1227.876	937.917
178.110	19.920	1226.492	937.389
179.125	19.926	1225.535	936.610
180.140	20.223	1224.430	937.287
181.154	20.308	1224.051	937.369
182.169	20.525	1222.607	937.350
183.183	20.611	1221.358	936.778
184.198	20.448	1220.861	935.433
185.213	20.514	1219.692	934.813
186.227	20.681	1218.435	934.661
187.242	20.720	1217.428	934.016
188.256	20.755	1217.078	933.854
189.271	20.807	1215.988	933.214
190.286	20.617	1214.852	931.240
191.300	20.215	1213.190	927.733
192.315	19.963	1212.613	925.862
193.329	19.977	1212.345	925.652
194.344	20.051	1211.661	925.442
195.359	20.105	1210.882	925.055
196.373	20.168	1210.489	925.010
197.388	20.350	1210.231	925.699
198.402	20.714	1210.136	927.485
199.417	20.843	1209.656	927.723
200.432	21.009	1208.555	927.677
201.446	21.061	1208.104	927.529
202.461	21.170	1207.844	927.824
203.475	21.060	1207.129	926.611
204.490	20.898	1205.121	924.130
205.504	20.488	1203.566	920.684
206.519	20.532	1202.168	919.764
207.534	20.423	1201.003	918.217
208.548	20.354	1200.226	917.177
209.563	20.453	1199.701	917.215
210.577	20.401	1198.784	916.157
211.592	20.559	1198.292	916.537
212.607	20.906	1197.036	917.322
213.621	20.825	1196.804	916.632
214.636	20.749	1195.530	915.178
215.650	20.800	1194.857	914.853
216.665	20.864	1194.305	914.685
217.680	21.115	1193.280	915.132
218.694	21.173	1193.039	915.172
219.709	21.013	1192.495	913.832
220.723	20.965	1191.563	912.788
221.738	21.009	1190.416	912.058
222.753	20.822	1189.853	910.568
223.767	20.846	1189.113	910.049
224.782	21.186	1188.402	911.199
225.796	21.324	1188.217	911.693
226.811	21.081	1187.489	909.788
227.826	20.933	1186.547	908.216
228.840	20.848	1185.572	906.945
229.855	20.804	1185.015	906.210
230.869	20.787	1183.973	905.248
231.884	20.726	1183.058	904.150
232.899	20.540	1182.117	902.383
233.913	20.481	1181.136	901.250
234.928	20.482	1180.588	900.759
235.942	20.380	1179.511	899.330
236.957	20.306	1179.013	898.483
237.972	20.345	1178.352	898.102
238.986	20.367	1177.909	897.800
240.001	20.419	1176.745	897.103
241.015	20.395	1176.343	896.592
242.030	20.494	1175.514	896.394
243.045	20.811	1174.645	897.283
244.059	20.772	1174.054	896.553
245.074	20.770	1173.677	896.173
246.088	20.949	1173.177	896.636
247.103	21.161	1171.984	896.734
248.117	21.119	1171.692	896.215
249.132	21.380	1171.545	897.360
250.147	21.630	1171.204	898.306
251.161	21.838	1170.518	898.766
252.176	21.870	1169.794	898.292
253.190	21.898	1169.206	897.904
254.205	22.157	1168.838	898.870
255.220	22.101	1168.022	897.873
256.234	21.984	1167.758	896.995
257.249	21.963	1166.841	896.104
258.263	21.917	1166.163	895.269
259.278	21.897	1165.422	894.519
260.293	21.825	1165.159	893.873
261.307	22.103	1164.809	894.940
262.322	22.078	1163.862	894.006
263.336	22.104	1163.299	893.624
264.351	22.204	1162.614	893.531
265.366	22.155	1161.864	892.626
266.380	22.148	1161.316	892.090
267.395	22.072	1160.084	890.680
268.409	21.769	1159.617	888.706
269.424	21.817	1158.614	888.102
270.439	21.755	1158.480	887.604
271.453	21.758	1157.357	886.682
272.468	21.440	1156.499	884.339
273.482	21.473	1155.139	883.389
274.497	21.334	1155.047	882.535
275.512	21.527	1153.826	882.498
276.526	21.483	1153.291	881.792
277.541	21.655	1152.681	882.110
278.555	21.658	1152.372	881.811
279.570	21.875	1151.810	882.396
280.585	22.103	1151.288	883.063
281.599	21.981	1150.117	881.473
282.614	21.781	1148.871	879.438
283.628	21.660	1147.362	877.598
284.643	21.707	1146.569	877.149
285.657	21.538	1145.803	875.640
286.672	21.585	1145.350	875.451
287.687	21.679	1144.257	875.009
288.701	21.685	1143.557	874.426
289.716	21.700	1142.530	873.640
290.730	21.667	1141.757	872.806
291.745	21.755	1141.298	872.817
292.760	21.831	1140.616	872.598
293.774	21.968	1140.129	872.827
294.789	22.109	1139.795	873.195
295.803	22.019	1139.179	872.199
296.818	21.744	1138.476	870.218
297.833	21.708	1137.387	869.130
298.847	21.808	1136.547	868.906
299.862	21.687	1136.071	867.867
300.876	21.788	1135.084	867.539
301.891	21.857	1134.855	867.624
302.906	22.105	1134.516	868.515
303.920	22.225	1134.232	868.815
304.935	22.375	1133.415	868.854
305.949	22.564	1132.671	869.138
306.964	22.525	1131.931	868.299
307.979	22.200	1131.274	866.118
308.993	22.072	1130.210	864.600
310.008	22.275	1129.765	865.178
311.022	22.369	1128.874	864.882
312.037	22.298	1128.125	863.883
313.052	22.171	1126.608	862.023
314.066	21.797	1125.950	859.609
315.081	21.607	1124.588	857.565
316.095	21.494	1123.706	856.263
317.110	21.643	1122.950	856.339
318.125	21.550	1122.590	855.533
319.139	21.624	1121.699	855.139
320.154	21.633	1121.072	854.632
321.168	21.639	1120.663	854.272
322.183	21.784	1120.070	854.452
323.197	21.692	1119.586	853.559
324.212	21.881	1118.902	853.882
325.227	21.911	1118.217	853.431
326.241	21.993	1117.969	853.562
327.256	21.790	1117.218	851.928
328.270	21.655	1116.318	850.510
329.285	21.619	1115.134	849.361
330.300	21.649	1114.301	848.794
331.314	21.733	1113.142	848.243
332.329	21.712	1112.419	847.515
333.343	21.804	1111.989	847.558
334.358	21.957	1111.265	847.671
335.373	22.070	1110.752	847.749
336.387	22.232	1109.641	847.609
337.402	22.276	1109.241	847.441
338.416	22.252	1109.235	847.245
339.431	22.368	1108.351	847.054
340.446	22.518	1108.037	847.461
341.460	22.742	1107.190	847.810
342.475	22.895	1106.365	847.839
343.489	22.749	1105.757	846.600
344.504	22.913	1105.170	846.860
345.519	23.005	1104.162	846.451
346.533	23.016	1103.390	845.842
347.548	23.009	1102.854	845.320
348.562	22.918	1101.913	844.091
349.577	22.730	1100.548	842.071
350.592	22.331	1099.355	839.180
351.606	22.135	1098.533	837.549
352.621	22.063	1097.557	836.386
353.635	22.104	1096.667	835.828
354.650	21.985	1096.452	835.026
355.665	22.264	1095.867	835.830
356.679	22.355	1094.943	835.486
357.694	22.287	1095.115	835.220
358.708	22.452	1094.559	835.504
359.723	22.491	1093.863	835.081
360.738	22.374	1093.547	834.215
361.752	22.491	1092.666	834.021
362.767	22.473	1092.008	833.360
363.781	22.486	1091.626	833.057
364.796	22.744	1091.195	833.872
365.810	22.941	1090.522	834.217
366.825	23.097	1090.412	834.794
367.840	23.220	1090.166	835.110
368.854	23.334	1089.493	835.061
369.869	23.307	1088.090	833.783
370.883	23.096	1087.494	832.261
371.898	22.941	1086.254	830.511
372.913	22.952	1085.910	830.223
373.927	22.968	1085.396	829.835
374.942	23.249	1085.143	830.887
375.956	23.135	1084.218	829.568
376.971	22.938	1083.937	828.360
377.986	23.096	1083.742	828.874
379.000	23.277	1083.224	829.252
380.015	23.419	1082.324	829.157
381.029	23.476	1081.974	829.080
382.044	23.445	1081.253	828.309
383.059	23.432	1080.427	827.545
384.073	23.311	1079.532	826.221
385.088	23.399	1078.663	825.891
386.102	23.372	1077.702	824.956
387.117	23.062	1076.276	822.351
388.132	22.872	1075.199	820.574
389.146	22.727	1074.944	819.634
390.161	22.727	1074.056	818.883
391.175	22.824	1073.326	818.705
392.190	22.971	1072.960	819.034
393.205	23.202	1072.289	819.520
394.219	23.256	1071.602	819.169
395.234	22.911	1070.633	816.762
396.248	22.803	1069.378	815.236
397.263	22.853	1068.398	814.645
398.278	22.840	1067.259	813.647
399.292	22.558	1066.875	811.979
400.307	22.669	1065.967	811.727
401.321	22.571	1065.611	810.934
402.336	22.485	1064.912	809.935
403.350	22.542	1064.134	809.533
404.365	22.642	1063.690	809.585
405.380	22.813	1063.006	809.775
406.394	22.923	1062.493	809.820
407.409	23.049	1061.779	809.782
408.423	23.293	1061.252	810.425
409.438	23.288	1061.286	810.357
410.453	23.453	1060.223	810.226
411.467	23.600	1059.646	810.383
412.482	23.593	1059.181	809.923
413.496	23.748	1058.187	809.800
414.511	23.738	1057.489	809.146
415.526	23.861	1057.614	809.731
416.540	23.982	1057.326	809.990
417.555	23.990	1056.460	809.293
418.569	23.687	1055.608	807.193
419.584	23.711	1055.176	806.898
420.599	23.717	1054.569	806.389
421.613	156.305	1403.335	1797.684
422.628	143.536	1454.119	1797.778
