DTS Sentinel unit serial number:	SN413079Multiplexer serial number:	ORYXHardware model number:	OX4-SRSoftware version number:	ORYX F/W v4.00 Oryx Data Collector v3.7.2.0data status	okinstallation	princeton_trtdifferential loss correction	single-endedforward channel	channel 2reverse channel	N/Adate	2019/09/15time	10:47:35forward acquisition time	60.00reverse acquisition time	0.00gamma	496.2192k internal	0.2315k external	0.2315temperature offset calibration	1.0016default loss term (dB/km)	0.3790temperature slope calibration	1.0000multiplexer offset coefficient	1.0000multiplexer slope coefficient	1.0000fibre end	0.00T internal ref (°C)	34.25T ext. ref 1 (°C)	5.03T ext. ref 2 (°C)	29.61length (m)	temperature (°C)	Stokes	anti-Stokes-747.200	-33.543	0.017	-0.010
-746.185	40.661	-0.101	-0.092
-745.171	129.464	-0.075	-0.097
-744.156	-181.460	-0.214	0.004
-743.142	81.333	-0.166	-0.181
-742.127	-93.156	0.061	-0.017
-741.112	-94.361	-0.194	-0.054
-740.098	-61.484	0.182	-0.078
-739.083	-176.647	0.412	-0.011
-738.069	-200.000	0.017	0.176
-737.054	66.430	-0.121	-0.125
-736.039	-200.000	-0.024	-0.312
-735.025	-102.494	0.463	0.112
-734.010	-128.013	-0.226	-0.033
-732.996	-200.000	-0.001	0.089
-731.981	-99.794	-0.147	0.037
-730.966	213.155	-0.055	-0.088
-729.952	-138.520	-0.091	0.010
-728.937	-145.727	-0.317	-0.029
-727.923	-200.000	0.030	0.136
-726.908	-44.005	-0.412	-0.210
-725.894	565.825	-0.085	-0.209
-724.879	-200.000	0.034	-0.192
-723.864	121.664	0.149	0.188
-722.850	-3.988	0.109	-0.077
-721.835	-200.000	0.067	-0.476
-720.821	537.022	-0.065	-0.156
-719.806	-117.220	-0.094	-0.017
-718.791	-54.381	-0.367	0.169
-717.777	103.550	0.061	-0.072
-716.762	-1.666	0.159	0.113
-715.748	688.056	0.106	0.282
-714.733	-200.000	-0.014	0.067
-713.718	-141.682	-0.264	-0.027
-712.704	-28.299	0.121	-0.070
-711.689	-99.233	-0.281	0.072
-710.675	153.759	-0.143	0.198
-709.660	-200.000	0.024	-0.292
-708.645	800.000	-0.054	-0.201
-707.631	74.876	-0.043	0.046
-706.616	14.194	-0.115	0.091
-705.602	-200.000	0.010	-0.332
-704.587	-59.359	-0.200	-0.087
-703.572	240.471	-0.120	0.203
-702.558	-200.000	0.006	0.376
-701.543	23.739	-0.193	-0.161
-700.529	-198.331	-0.075	0.000
-699.514	39.311	0.022	0.020
-698.499	132.053	0.102	-0.132
-697.485	-90.765	-0.289	-0.084
-696.470	382.647	-0.170	-0.354
-695.456	193.559	0.080	-0.122
-694.441	154.935	0.144	-0.200
-693.426	800.000	-0.019	-0.065
-692.412	-80.980	0.124	-0.041
-691.397	-71.445	0.176	-0.067
-690.383	-200.000	-0.004	-0.361
-689.368	-82.765	-0.111	-0.036
-688.354	-18.474	-0.222	0.140
-687.339	-9.326	-0.126	-0.085
-686.324	800.000	-0.028	0.098
-685.310	162.570	0.094	0.134
-684.295	94.416	0.149	-0.171
-683.281	800.000	0.070	-0.215
-682.266	106.986	-0.116	-0.139
-681.251	-41.308	0.255	0.133
-680.237	-120.997	-0.208	-0.035
-679.222	-27.231	-0.188	-0.111
-678.208	395.103	0.078	-0.163
-677.193	-200.000	-0.007	0.217
-676.178	-135.254	0.255	-0.031
-675.164	800.000	-0.075	-0.227
-674.149	-87.679	0.084	0.026
-673.135	114.972	-0.220	0.271
-672.120	-8.878	-0.109	-0.074
-671.105	87.303	0.086	0.096
-670.091	736.493	-0.107	-0.289
-669.076	-29.771	-0.384	-0.221
-668.062	-21.097	-0.158	-0.097
-667.047	-57.901	0.293	-0.129
-666.032	323.719	-0.010	0.020
-665.018	-28.955	-0.249	-0.145
-664.003	-28.823	-0.227	-0.132
-662.989	-200.000	0.002	0.118
-661.974	-79.501	-0.312	0.106
-660.959	58.004	0.201	-0.198
-659.945	-133.737	-0.197	0.025
-658.930	55.620	0.189	0.185
-657.916	275.060	0.214	0.382
-656.901	-117.147	-0.104	0.019
-655.886	-94.296	0.307	-0.085
-654.872	-110.210	0.036	-0.007
-653.857	299.672	0.306	0.569
-652.843	432.966	-0.178	0.391
-651.828	-200.000	0.009	0.128
-650.814	7.757	0.196	0.148
-649.799	-164.244	-0.584	-0.027
-648.784	182.086	-0.131	-0.194
-647.770	-21.574	0.326	0.201
-646.755	-66.642	0.080	0.032
-645.741	-103.574	0.400	-0.095
-644.726	0.019	0.155	-0.112
-643.711	-112.069	0.161	0.033
-642.697	-122.264	-0.175	-0.029
-641.682	-55.940	0.186	-0.084
-640.668	-174.546	-0.306	0.009
-639.653	-95.869	-0.122	-0.033
-638.638	-4.408	0.164	0.115
-637.624	201.271	-0.039	-0.060
-636.609	78.967	-0.002	-0.002
-635.595	-132.116	-0.402	-0.053
-634.580	-57.897	0.126	0.055
-633.565	449.272	0.145	-0.323
-632.551	40.923	-0.118	0.107
-631.536	800.000	0.038	-0.134
-630.522	-90.463	0.182	0.053
-629.507	-63.417	-0.206	-0.086
-628.492	-1.304	0.118	-0.084
-627.478	-68.653	0.172	-0.067
-626.463	67.228	-0.171	-0.176
-625.449	800.000	-0.098	-0.330
-624.434	124.865	-0.073	0.093
-623.419	-181.746	0.299	-0.006
-622.405	-187.699	-0.252	0.003
-621.390	202.847	0.103	-0.160
-620.376	-87.222	-0.003	0.001
-619.361	-37.549	-0.122	0.066
-618.346	112.803	0.130	-0.159
-617.332	-94.510	0.110	0.030
-616.317	176.809	0.144	-0.211
-615.303	-39.999	0.184	-0.097
-614.288	293.489	0.129	-0.238
-613.273	-32.438	-0.208	0.117
-612.259	153.705	0.184	-0.254
-611.244	98.499	0.242	-0.281
-610.230	-111.673	0.078	-0.016
-609.215	-200.000	-0.013	-0.186
-608.201	-64.598	-0.285	0.116
-607.186	151.653	-0.155	-0.213
-606.171	-200.000	-0.011	0.104
-605.157	-200.000	0.059	-0.300
-604.142	75.776	-0.114	-0.121
-603.128	-33.197	0.092	0.051
-602.113	110.212	0.067	0.080
-601.098	800.000	0.096	-0.422
-600.084	-200.000	-0.088	0.403
-599.069	-200.000	0.015	0.170
-598.055	-126.264	-0.396	0.060
-597.040	-52.964	-0.065	0.030
-596.025	-176.365	-0.434	0.011
-595.011	-130.153	-0.242	0.033
-593.996	216.112	0.104	0.167
-592.982	-94.154	0.113	0.031
-591.967	-102.852	0.112	-0.027
-590.952	41.805	0.269	-0.246
-589.938	-200.000	0.016	-0.241
-588.923	800.000	-0.019	-0.058
-587.909	-97.724	-0.456	-0.119
-586.894	-57.779	0.300	0.132
-585.879	-200.000	-0.019	0.208
-584.865	-200.000	0.026	0.241
-583.850	59.439	0.270	-0.268
-582.836	-114.499	-0.632	-0.122
-581.821	-147.309	0.200	-0.017
-580.806	115.129	0.255	-0.313
-579.792	-33.005	0.102	0.057
-578.777	-97.692	0.231	-0.060
-577.763	-181.454	-0.246	0.005
-576.748	-112.657	0.110	-0.022
-575.733	-200.000	0.011	0.291
-574.719	356.256	0.158	0.317
-573.704	-23.921	-0.233	0.141
-572.690	115.570	-0.200	0.246
-571.675	13.678	-0.124	-0.097
-570.661	-149.655	-0.127	0.010
-569.646	800.000	0.091	-0.325
-568.631	-83.899	0.061	0.020
-567.617	-118.012	-0.099	0.018
-566.602	-83.747	-0.197	0.063
-565.588	-200.000	-0.053	0.256
-564.573	-200.000	-0.044	0.198
-563.558	-2.733	0.218	0.153
-562.544	335.429	0.099	0.192
-561.529	800.000	0.070	0.217
-560.515	-183.495	0.170	0.003
-559.500	-200.000	-0.024	0.272
-558.485	369.653	-0.028	-0.057
-557.471	-9.960	0.246	0.164
-556.456	112.747	-0.097	-0.118
-555.442	209.515	-0.204	-0.322
-554.427	-24.596	-0.356	-0.213
-553.412	-1.777	0.056	0.040
-552.398	111.852	0.146	-0.177
-551.383	89.644	0.201	0.225
-550.369	226.746	-0.054	-0.088
-549.354	-114.890	0.058	0.011
-548.339	-160.188	0.141	0.008
-547.325	87.304	-0.143	0.159
-546.310	-200.000	-0.005	-0.079
-545.296	-200.000	0.028	0.182
-544.281	-94.949	0.484	-0.132
-543.266	-23.220	0.071	0.043
-542.252	144.359	-0.212	0.284
-541.237	-170.415	0.394	-0.014
-540.223	-47.790	-0.195	-0.095
-539.208	104.934	0.208	0.247
-538.193	154.032	0.085	0.117
-537.179	92.705	-0.052	-0.059
-536.164	-85.617	-0.280	-0.087
-535.150	176.916	-0.157	0.230
-534.135	-123.403	-0.335	-0.054
-533.121	-200.000	-0.015	0.247
-532.106	3.133	-0.232	-0.169
-531.091	-7.147	-0.159	-0.108
-530.077	-200.000	-0.012	-0.155
-529.062	-66.086	0.232	0.093
-528.048	316.663	-0.045	-0.086
-527.033	309.525	0.216	-0.407
-526.018	-52.613	-0.265	-0.123
-525.004	-114.749	0.412	0.079
-523.989	800.000	0.023	-0.087
-522.975	-187.332	0.280	0.004
-521.960	-200.000	-0.040	-0.271
-520.945	6.695	-0.137	0.102
-519.931	413.949	-0.179	0.383
-518.916	-200.000	-0.069	0.443
-517.902	-54.606	-0.234	0.106
-516.887	787.508	-0.051	0.141
-515.872	-89.978	-0.159	-0.047
-514.858	-30.013	0.136	-0.078
-513.843	-109.124	0.188	-0.040
-512.829	15.699	0.025	-0.019
-511.814	36.082	-0.180	-0.159
-510.799	-102.987	0.122	0.029
-509.785	218.694	0.106	0.171
-508.770	-200.000	0.039	0.367
-507.756	-117.907	-0.182	0.033
-506.741	-71.671	0.313	-0.117
-505.726	-200.000	-0.014	0.226
-504.712	-200.000	0.052	-0.283
-503.697	95.185	-0.139	-0.159
-502.683	492.616	-0.128	0.294
-501.668	183.954	0.129	0.192
-500.653	89.885	-0.155	0.173
-499.639	-148.368	-0.281	0.023
-498.624	-21.786	0.210	0.128
-497.610	-161.702	0.003	0.000
-496.595	-75.666	0.276	0.098
-495.581	800.000	0.047	0.174
-494.566	384.679	0.050	0.103
-493.551	326.033	-0.028	-0.054
-492.537	-28.133	-0.125	0.072
-491.522	-200.000	-0.014	0.127
-490.508	64.613	0.141	-0.142
-489.493	800.000	-0.072	-0.233
-488.478	39.638	-0.147	0.133
-487.464	-16.265	-0.136	-0.087
-486.449	296.556	-0.034	-0.062
-485.435	152.547	0.207	0.283
-484.420	24.587	0.247	-0.205
-483.405	610.397	0.015	-0.038
-482.391	-40.192	0.199	-0.104
-481.376	-200.000	-0.001	-0.165
-480.362	-52.618	-0.236	0.109
-479.347	215.048	0.160	0.254
-478.332	582.796	-0.077	-0.190
-477.318	271.189	-0.113	0.200
-476.303	-31.771	-0.063	0.035
-475.289	369.441	-0.131	-0.265
-474.274	50.881	0.260	0.247
-473.259	160.321	0.043	-0.060
-472.245	-153.786	0.150	-0.010
-471.230	2.066	0.419	-0.304
-470.216	21.435	0.225	0.183
-469.201	656.363	-0.077	-0.198
-468.186	45.803	0.214	0.199
-467.172	800.000	-0.057	-0.243
-466.157	-200.000	-0.015	0.088
-465.143	-71.452	-0.142	0.053
-464.128	-42.021	0.042	-0.021
-463.113	295.416	0.151	0.278
-462.099	3.067	-0.101	-0.074
-461.084	800.000	-0.038	-0.159
-460.070	-18.840	-0.222	-0.138
-459.055	-200.000	-0.011	0.061
-458.040	-200.000	-0.003	0.131
-457.026	-145.492	-0.336	0.030
-456.011	-200.000	0.047	-0.321
-454.997	-200.000	-0.014	-0.209
-453.982	160.900	-0.235	0.329
-452.968	215.497	-0.106	0.169
-451.953	114.020	0.223	-0.271
-450.938	318.134	0.031	-0.059
-449.924	95.877	0.105	0.121
-448.909	-72.580	0.237	-0.087
-447.895	158.934	0.157	-0.219
-446.880	-27.727	-0.274	0.159
-445.865	158.967	-0.089	0.123
-444.851	368.206	0.154	0.312
-443.836	537.464	-0.054	0.129
-442.822	-107.906	-0.552	0.120
-441.807	-200.000	0.002	0.083
-440.792	-200.000	-0.013	0.174
-439.778	388.780	0.109	0.226
-438.763	183.959	0.216	0.319
-437.749	-59.325	-0.049	-0.021
-436.734	-135.310	-0.140	-0.017
-435.719	-30.997	-0.233	-0.131
-434.705	-7.944	0.127	-0.086
-433.690	800.000	-0.045	0.169
-432.676	-200.000	-0.021	-0.269
-431.661	-16.956	-0.143	-0.091
-430.646	12.870	0.098	-0.075
-429.632	-59.374	-0.219	-0.094
-428.617	-101.164	0.188	0.046
-427.603	-87.074	-0.151	0.046
-426.588	26.191	0.163	0.136
-425.573	40.979	0.123	0.111
-424.559	-69.342	0.331	-0.127
-423.544	-200.000	0.020	0.212
-422.530	-122.731	-0.221	-0.036
-421.515	-85.661	-0.220	-0.068
-420.500	40.482	-0.413	0.372
-419.486	636.979	-0.047	-0.119
-418.471	-59.362	0.263	-0.113
-417.457	-51.856	-0.085	0.039
-416.442	220.151	0.167	0.268
-415.428	-65.862	0.093	0.037
-414.413	150.517	-0.102	0.138
-413.398	74.182	0.083	-0.087
-412.384	11.028	0.133	0.102
-411.369	800.000	0.075	0.289
-410.355	-76.261	-0.263	0.093
-409.340	19.948	0.118	0.095
-408.325	93.858	-0.167	0.189
-407.311	-200.000	0.010	-0.074
-406.296	-200.000	-0.000	-0.229
-405.282	-200.000	-0.069	-0.410
-404.267	123.056	0.072	0.091
-403.252	100.701	-0.155	0.180
-402.238	800.000	-0.085	-0.250
-401.223	194.587	-0.078	-0.119
-400.209	-75.540	0.205	-0.073
-399.194	-157.694	0.195	-0.012
-398.179	91.850	0.162	0.182
-397.165	283.205	0.126	-0.227
-396.150	45.270	0.121	0.112
-395.136	-49.863	0.344	0.163
-394.121	424.297	0.093	0.200
-393.106	760.665	0.143	-0.389
-392.092	79.213	-0.096	0.103
-391.077	231.298	-0.010	0.016
-390.063	-189.570	0.360	-0.004
-389.048	-200.000	-0.033	0.404
-388.033	800.000	-0.019	0.079
-387.019	15.452	-0.086	0.067
-386.004	-45.388	0.065	-0.032
-384.990	-134.077	0.040	-0.005
-383.975	56.205	0.139	-0.135
-382.960	33.269	0.161	-0.140
-381.946	800.000	-0.090	-0.345
-380.931	638.215	-0.129	-0.327
-379.917	-10.741	-0.194	0.128
-378.902	800.000	0.072	-0.287
-377.888	554.484	-0.061	-0.147
-376.873	-194.860	0.318	0.002
-375.858	-115.137	0.256	0.048
-374.844	141.810	-0.085	-0.113
-373.829	-155.933	-0.236	0.015
-372.815	-111.350	-0.344	-0.070
-371.800	-107.423	-0.479	-0.105
-370.785	41.537	-0.101	-0.091
-369.771	-124.784	-0.109	0.017
-368.756	800.000	0.056	0.180
-367.742	-100.081	-0.326	0.081
-366.727	-53.680	0.215	0.098
-365.712	800.000	-0.069	0.196
-364.698	-3.158	-0.168	-0.117
-363.683	73.001	0.062	-0.065
-362.669	29.216	-0.059	0.050
-361.654	-99.214	0.295	0.074
-360.639	454.557	0.096	-0.213
-359.625	-89.919	-0.076	0.022
-358.610	-124.561	-0.221	-0.034
-357.596	-200.000	0.075	-0.390
-356.581	800.000	-0.124	-0.432
-355.566	540.679	0.071	0.169
-354.552	14.113	0.071	0.055
-353.537	47.353	-0.124	-0.116
-352.523	-200.000	-0.021	0.110
-351.508	-149.480	-0.261	-0.021
-350.493	-80.121	-0.569	-0.190
-349.479	655.658	-0.044	-0.113
-348.464	-92.723	-0.245	-0.068
-347.450	-70.060	-0.278	0.106
-346.435	-178.507	-0.182	-0.004
-345.420	260.530	0.148	-0.256
-344.406	-200.000	-0.079	-0.421
-343.391	-81.565	-0.161	-0.053
-342.377	-32.104	0.062	-0.035
-341.362	-200.000	0.021	0.095
-340.348	-62.159	-0.197	-0.082
-339.333	9.781	-0.104	-0.079
-338.318	-52.727	-0.267	0.123
-337.304	800.000	-0.058	-0.233
-336.289	6.237	-0.274	0.203
-335.275	-98.736	-0.178	-0.045
-334.260	172.293	-0.065	0.093
-333.245	16.355	0.161	0.127
-332.231	72.162	0.058	-0.060
-331.216	800.000	-0.021	-0.070
-330.202	115.052	-0.123	0.149
-329.187	-39.809	0.260	-0.135
-328.172	-200.000	-0.042	0.217
-327.158	-200.000	-0.008	-0.137
-326.143	125.394	0.195	0.245
-325.129	345.152	0.017	-0.033
-324.114	60.546	0.266	-0.262
-323.099	587.393	0.071	-0.174
-322.085	-72.484	0.169	-0.062
-321.070	-24.026	-0.156	0.093
-320.056	-200.000	-0.005	-0.191
-319.041	-200.000	0.032	0.298
-318.026	-163.119	-0.307	-0.015
-317.012	-134.974	0.083	-0.010
-315.997	-72.285	-0.367	-0.135
-314.983	-54.837	0.119	0.054
-313.968	459.313	0.073	-0.161
-312.953	-128.117	0.302	-0.043
-311.939	-200.000	0.041	0.181
-310.924	-44.612	0.294	0.147
-309.910	-96.580	0.047	0.012
-308.895	-90.791	0.119	-0.034
-307.880	422.664	-0.114	0.243
-306.866	26.438	-0.114	0.095
-305.851	9.723	-0.064	-0.049
-304.837	-196.450	0.351	-0.002
-303.822	-54.564	-0.406	0.183
-302.807	188.694	0.096	-0.143
-301.793	-6.320	0.266	0.181
-300.778	210.312	-0.102	-0.159
-299.764	6.516	-0.156	0.115
-298.749	187.252	0.136	-0.202
-297.735	-134.528	-0.102	-0.012
-296.720	-101.197	0.096	-0.023
-295.705	-200.000	0.073	-0.342
-294.691	-200.000	-0.011	-0.059
-293.676	21.376	0.247	0.200
-292.662	-167.445	0.294	-0.012
-291.647	98.674	-0.111	-0.127
-290.632	-116.819	-0.080	0.015
-289.618	-200.000	0.023	-0.192
-288.603	-200.000	-0.042	-0.289
-287.589	-94.842	0.190	-0.051
-286.574	-36.630	-0.317	0.170
-285.559	46.459	0.139	0.128
-284.545	168.001	-0.234	0.331
-283.530	-137.428	-0.369	-0.042
-282.516	-140.332	0.389	-0.040
-281.501	-70.603	-0.252	0.095
-280.486	-200.000	0.011	-0.235
-279.472	800.000	0.053	-0.206
-278.457	800.000	0.103	0.320
-277.443	-159.851	-0.169	-0.009
-276.428	-68.743	0.174	0.067
-275.413	800.000	0.040	0.130
-274.399	-200.000	-0.024	0.430
-273.384	800.000	-0.029	-0.122
-272.370	-200.000	-0.004	0.144
-271.355	-200.000	-0.035	0.260
-270.340	-200.000	-0.007	-0.042
-269.326	243.830	0.152	0.254
-268.311	563.080	-0.095	0.230
-267.297	-200.000	-0.057	-0.386
-266.282	227.775	-0.111	0.180
-265.267	-200.000	0.013	-0.160
-264.253	-9.579	-0.247	0.164
-263.238	-28.420	0.154	0.088
-262.224	55.499	0.036	0.034
-261.209	344.893	-0.035	0.069
-260.195	800.000	-0.018	0.061
-259.180	-82.371	0.167	-0.054
-258.165	-95.403	0.351	0.094
-257.151	-61.858	-0.209	-0.087
-256.136	-100.181	0.256	0.063
-255.122	-13.653	0.307	0.198
-254.107	57.395	0.282	0.274
-253.092	451.716	0.118	-0.258
-252.078	14.978	0.400	0.311
-251.063	128.363	0.102	-0.129
-250.049	88.796	0.065	-0.072
-249.034	20.814	0.190	0.153
-248.019	186.078	0.046	-0.068
-247.005	-29.533	-0.195	-0.111
-245.990	119.847	-0.227	0.280
-244.976	800.000	0.073	0.240
-243.961	-39.183	-0.305	0.159
-242.946	167.672	-0.152	0.214
-241.932	-121.737	-0.155	0.026
-240.917	800.000	-0.112	-0.326
-239.903	105.984	0.106	-0.125
-238.888	-131.499	0.085	-0.011
-237.873	-147.754	0.214	0.018
-236.859	51.365	-0.241	-0.227
-235.844	465.402	0.148	-0.329
-234.830	81.320	0.103	-0.111
-233.815	52.149	-0.175	-0.166
-232.800	43.396	-0.185	-0.167
-231.786	283.133	-0.088	0.156
-230.771	573.809	-0.074	0.178
-229.757	343.063	0.190	-0.370
-228.742	-25.347	-0.227	-0.133
-227.727	214.051	0.140	0.219
-226.713	62.951	0.239	0.238
-225.698	634.416	-0.057	0.143
-224.684	-109.144	0.336	0.071
-223.669	-48.353	0.154	-0.074
-222.655	-73.075	-0.249	0.091
-221.640	-21.605	-0.136	0.082
-220.625	106.883	0.169	-0.199
-219.611	-86.746	0.362	0.110
-218.596	-64.961	-0.267	0.107
-217.582	-200.000	-0.019	0.127
-216.567	-200.000	-0.015	-0.179
-215.552	-141.272	-0.414	-0.042
-214.538	123.100	0.305	-0.379
-213.523	23.827	-0.175	-0.143
-212.509	-11.842	0.256	0.166
-211.494	-72.585	-0.230	0.084
-210.479	-200.000	0.005	0.140
-209.465	77.436	-0.109	-0.115
-208.450	-40.175	-0.185	0.096
-207.436	178.699	-0.265	-0.384
-206.421	160.544	0.245	0.339
-205.406	-124.677	0.129	-0.020
-204.392	-200.000	-0.014	-0.201
-203.377	-200.000	0.012	0.136
-202.363	-78.238	0.155	0.053
-201.348	-25.397	0.131	-0.077
-200.333	-200.000	0.034	0.223
-199.319	-59.596	-0.337	0.143
-198.304	-27.200	0.113	0.065
-197.290	-106.051	-0.117	0.026
-196.275	72.706	-0.220	-0.228
-195.260	-82.725	0.095	0.031
-194.246	-133.120	-0.162	0.020
-193.231	-115.413	-0.196	0.037
-192.217	-113.776	0.259	0.050
-191.202	-80.586	0.315	-0.104
-190.187	409.466	0.106	-0.223
-189.173	568.795	0.020	-0.049
-188.158	-200.000	0.019	0.307
-187.144	-19.799	0.057	-0.035
-186.129	-64.225	0.031	-0.012
-185.114	94.769	-0.172	0.194
-184.100	-198.068	0.441	-0.003
-183.085	-82.035	-0.149	-0.048
-182.071	800.000	-0.023	-0.089
-181.056	-71.784	0.206	-0.076
-180.042	-200.000	0.031	0.000
-179.027	40.223	0.136	0.122
-178.012	-200.000	0.010	-0.360
-176.998	-160.420	-0.276	0.015
-175.983	686.025	0.062	0.161
-174.969	459.090	-0.056	-0.123
-173.954	-50.399	0.047	0.022
-172.939	299.995	0.099	-0.181
-171.925	444.061	-0.082	-0.179
-170.910	318.179	-0.130	0.244
-169.896	671.207	-0.098	-0.251
-168.881	800.000	0.079	0.266
-167.866	-73.419	-0.165	0.060
-166.852	110.827	-0.093	-0.110
-165.837	-200.000	0.028	-0.385
-164.823	358.692	0.174	-0.345
-163.808	-200.000	0.030	-0.180
-162.793	192.898	-0.021	-0.032
-161.779	-69.362	-0.196	0.074
-160.764	354.172	0.059	0.116
-159.750	-200.000	0.000	-0.019
-158.735	30.100	0.381	0.322
-157.720	-29.231	0.185	0.105
-156.706	800.000	0.118	0.383
-155.691	95.249	-0.175	-0.197
-154.677	212.371	-0.036	0.056
-153.662	-200.000	0.009	0.119
-152.647	-119.537	0.123	-0.021
-151.633	159.505	-0.158	-0.218
-150.618	-38.808	-0.169	-0.088
-149.604	295.674	-0.122	0.222
-148.589	244.496	0.037	-0.061
-147.574	212.217	-0.240	0.374
-146.560	-200.000	-0.002	-0.130
-145.545	-200.000	-0.009	-0.250
-144.531	446.019	-0.175	-0.381
-143.516	-200.000	-0.085	-0.568
-142.502	-9.495	0.285	-0.188
-141.487	17.257	-0.284	0.223
-140.472	136.646	0.084	0.109
-139.458	-175.970	-0.205	-0.005
-138.443	318.608	0.038	-0.071
-137.429	-127.874	-0.186	-0.026
-136.414	-29.999	0.148	0.083
-135.399	-200.000	0.014	0.272
-134.385	221.101	0.038	0.060
-133.370	-73.657	0.262	-0.094
-132.356	-38.350	-0.512	0.268
-131.341	718.613	0.028	0.073
-130.326	-110.720	0.344	-0.070
-129.312	-74.195	-0.327	0.117
-128.297	31.763	0.250	0.213
-127.283	-128.818	0.453	-0.063
-126.268	800.000	-0.065	-0.244
-125.253	-200.000	0.014	-0.276
-124.239	-94.379	0.140	-0.038
-123.224	187.689	-0.201	0.296
-122.210	-115.797	-0.043	-0.008
-121.195	85.489	0.135	0.146
-120.180	-18.114	0.333	0.206
-119.166	118.788	-0.171	-0.209
-118.151	-95.231	-0.111	-0.030
-117.137	-75.073	-0.256	-0.091
-116.122	-200.000	0.011	-0.175
-115.107	350.845	-0.086	-0.168
-114.093	54.407	0.208	0.198
-113.078	59.497	-0.180	0.175
-112.064	-1.600	0.339	0.236
-111.049	60.845	-0.075	0.073
-110.034	41.345	0.186	0.166
-109.020	-132.739	-0.350	0.044
-108.005	461.150	0.091	-0.201
-106.991	1.135	-0.345	-0.245
-105.976	-59.039	0.169	0.072
-104.962	-67.190	-0.093	0.036
-103.947	-48.860	0.394	0.187
-102.932	87.042	0.084	0.092
-101.918	410.009	0.032	-0.066
-100.903	-200.000	0.030	-0.192
-99.889	624.470	-0.063	-0.158
-98.874	-25.896	-0.358	0.208
-97.859	-200.000	0.015	0.089
-96.845	22.859	-0.252	-0.204
-95.830	-200.000	-0.008	0.254
-94.816	-200.000	0.022	0.450
-93.801	-114.345	0.170	0.032
-92.786	-200.000	0.013	0.147
-91.772	-103.275	0.148	0.034
-90.757	-128.149	0.332	0.047
-89.743	3.891	-0.226	0.163
-88.728	-124.939	-0.026	-0.004
-87.713	-148.476	-0.449	-0.036
-86.699	32.478	0.111	-0.095
-85.684	-62.684	0.095	-0.039
-84.670	5.704	-0.152	0.111
-83.655	-69.596	-0.374	0.141
-82.640	0.675	0.127	0.090
-81.626	-71.124	-0.230	-0.085
-80.611	254.218	-0.109	-0.184
-79.597	-200.000	-0.012	0.171
-78.582	800.000	0.067	0.192
-77.567	19.987	0.129	0.102
-76.553	-14.691	-0.285	-0.181
-75.538	-23.723	-0.070	-0.041
-74.524	108.182	0.189	0.222
-73.509	51.887	-0.101	0.095
-72.494	-102.625	-0.648	0.153
-71.480	-200.000	0.031	0.304
-70.465	-25.733	0.281	-0.163
-69.451	146.207	-0.158	-0.209
-68.436	-200.000	0.024	-0.116
-67.422	-129.968	0.208	0.028
-66.407	800.000	-0.037	0.139
-65.392	-41.724	0.159	0.081
-64.378	-170.657	-0.319	-0.011
-63.363	216.893	-0.106	0.167
-62.349	-200.000	-0.049	0.251
-61.334	167.883	-0.710	-0.996
-60.319	776.066	0.242	0.652
-59.305	-200.000	0.168	-0.900
-58.290	210.591	0.417	0.646
-57.276	800.000	0.466	1.366
-56.261	-200.000	97.289	573.863
-55.246	632.841	1401.867	3503.148
-54.232	186.331	2616.180	3839.280
-53.217	115.012	2309.651	2779.299
-52.203	43.884	1920.675	1734.870
-51.188	37.573	1707.579	1494.067
-50.173	34.670	1663.523	1433.704
-49.159	51.899	1711.672	1606.731
-48.144	55.212	1728.582	1647.721
-47.130	37.174	1685.250	1471.273
-46.115	34.358	1669.895	1436.612
-45.100	34.097	1665.560	1430.863
-44.086	34.073	1662.762	1428.228
-43.071	34.071	1660.318	1426.058
-42.057	34.108	1657.367	1423.738
-41.042	34.176	1655.352	1422.462
-40.027	34.242	1653.514	1421.318
-39.013	34.123	1651.486	1418.631
-37.998	34.077	1649.921	1416.890
-36.984	34.117	1648.716	1416.093
-35.969	34.252	1646.726	1415.335
-34.954	34.244	1645.343	1414.031
-33.940	34.315	1643.100	1412.574
-32.925	34.223	1641.636	1410.574
-31.911	34.182	1640.209	1408.987
-30.896	34.173	1638.092	1407.049
-29.881	34.196	1636.824	1406.077
-28.867	34.228	1635.128	1404.794
-27.852	34.233	1633.672	1403.526
-26.838	34.224	1632.131	1402.080
-25.823	34.297	1630.619	1401.264
-24.809	34.314	1629.198	1400.113
-23.794	34.258	1627.778	1398.421
-22.779	34.208	1626.767	1397.135
-21.765	34.260	1624.640	1395.633
-20.750	34.258	1623.110	1394.247
-19.736	34.352	1621.404	1393.417
-18.721	34.364	1620.031	1392.268
-17.706	34.283	1618.464	1390.272
-16.692	34.229	1617.014	1388.577
-15.677	34.282	1615.471	1387.586
-14.663	34.306	1614.378	1386.769
-13.648	34.304	1612.812	1385.348
-12.633	34.297	1611.327	1383.973
-11.619	34.331	1609.512	1382.605
-10.604	34.231	1608.422	1380.887
-9.590	34.390	1607.132	1380.878
-8.575	34.410	1605.440	1379.514
-7.560	34.266	1604.550	1377.654
-6.546	34.265	1603.254	1376.480
-5.531	34.266	1602.223	1375.542
-4.517	34.314	1600.766	1374.586
-3.502	34.204	1600.439	1373.458
-2.487	34.310	1598.645	1372.629
-1.473	34.003	1587.181	1360.530
-0.458	31.349	1567.299	1324.650
0.556	26.567	1566.820	1290.164
1.571	23.875	1591.617	1290.955
2.586	23.395	1604.583	1297.840
3.600	20.860	1552.238	1237.406
4.615	13.069	1442.961	1098.548
5.629	6.209	1379.113	1006.091
6.644	5.184	1370.717	993.354
7.659	5.002	1369.721	991.390
8.673	4.938	1368.616	990.097
9.688	4.976	1366.825	988.951
10.702	4.760	1364.389	985.732
11.717	8.011	1370.713	1010.874
12.731	15.602	1383.925	1068.991
13.746	19.396	1389.689	1097.538
14.761	18.620	1386.669	1090.125
15.775	17.536	1383.945	1081.011
16.790	16.496	1381.483	1072.401
17.804	15.610	1379.274	1064.977
18.819	15.268	1377.435	1061.298
19.834	14.898	1376.374	1058.045
20.848	14.602	1375.977	1055.775
21.863	14.455	1373.856	1053.125
22.877	14.330	1372.785	1051.422
23.892	14.268	1371.934	1050.288
24.907	14.318	1370.840	1049.672
25.921	14.347	1369.810	1048.973
26.936	14.289	1369.109	1047.977
27.950	14.337	1368.367	1047.616
28.965	14.436	1366.825	1046.964
29.980	14.527	1366.077	1046.873
30.994	14.678	1364.521	1046.533
32.009	14.646	1363.371	1045.359
33.023	14.585	1362.386	1044.130
34.038	14.448	1360.911	1042.052
35.053	14.509	1359.634	1041.364
36.067	14.477	1358.388	1040.117
37.082	14.498	1357.579	1039.535
38.096	14.489	1356.704	1038.719
39.111	14.541	1355.909	1038.339
40.126	14.434	1355.010	1036.896
41.140	14.284	1354.136	1035.203
42.155	14.218	1353.779	1034.428
43.169	14.246	1353.242	1034.097
44.184	14.248	1352.971	1033.814
45.199	14.266	1352.270	1033.298
46.213	14.304	1352.047	1033.269
47.228	14.364	1351.129	1032.850
48.242	14.396	1349.846	1031.974
49.257	14.488	1347.910	1030.971
50.271	14.350	1346.774	1029.161
51.286	14.431	1345.566	1028.646
52.301	14.341	1343.956	1026.767
53.315	14.304	1343.121	1025.810
54.330	14.374	1341.884	1025.208
55.344	14.211	1341.018	1023.457
56.359	14.397	1339.472	1023.327
57.374	14.307	1339.132	1022.425
58.388	14.145	1338.611	1020.938
59.403	14.174	1337.888	1020.479
60.417	14.224	1337.072	1020.072
61.432	14.043	1336.287	1018.274
62.447	14.124	1335.005	1017.701
63.461	14.082	1333.789	1016.427
64.476	14.018	1332.757	1015.157
65.490	14.117	1331.347	1014.598
66.505	14.083	1330.111	1013.364
67.520	14.140	1328.983	1012.760
68.534	14.172	1328.085	1012.181
69.549	14.163	1326.966	1011.182
70.563	14.154	1326.006	1010.308
71.578	14.077	1324.836	1008.859
72.593	14.042	1323.619	1007.631
73.607	13.984	1323.110	1006.805
74.622	13.953	1322.636	1006.165
75.636	13.997	1321.835	1005.732
76.651	13.980	1320.948	1004.868
77.666	14.081	1320.219	1004.836
78.680	14.035	1320.303	1004.530
79.695	14.114	1319.213	1004.090
80.709	14.266	1318.127	1004.091
81.724	14.169	1317.471	1002.920
82.739	14.210	1316.792	1002.560
83.753	14.271	1316.207	1002.390
84.768	14.346	1315.205	1001.994
85.782	14.321	1314.296	1001.062
86.797	14.382	1312.636	1000.076
87.812	14.399	1311.271	999.048
88.826	14.390	1310.585	998.380
89.841	14.455	1309.218	997.642
90.855	14.372	1308.464	996.482
91.870	14.377	1307.880	995.977
92.884	14.511	1306.610	995.725
93.899	14.395	1306.124	994.573
94.914	14.517	1305.202	994.508
95.928	14.661	1304.153	994.483
96.943	14.513	1303.125	992.730
97.957	14.439	1302.385	991.639
98.972	14.429	1301.352	990.703
99.987	14.389	1300.522	989.746
101.001	14.464	1299.224	989.118
102.016	14.415	1298.348	988.068
103.030	14.403	1297.854	987.536
104.045	14.443	1296.543	986.686
105.060	14.353	1295.234	985.070
106.074	14.387	1293.512	983.878
107.089	14.231	1292.574	982.153
108.103	14.089	1291.687	980.556
109.118	14.250	1289.816	979.998
110.133	14.136	1288.733	978.417
111.147	14.202	1286.931	977.349
112.162	14.153	1286.033	976.295
113.176	14.194	1284.717	975.447
114.191	14.343	1283.865	975.591
115.206	14.300	1282.749	974.402
116.220	14.201	1281.415	972.726
117.235	14.172	1280.455	971.739
118.249	14.278	1279.256	971.360
119.264	14.104	1278.672	969.819
120.279	14.171	1277.500	969.233
121.293	14.282	1275.863	968.554
122.308	14.158	1274.792	966.934
123.322	14.166	1273.790	966.136
124.337	14.174	1272.624	965.214
125.352	14.126	1271.919	964.311
126.366	14.044	1271.097	963.128
127.381	14.266	1269.194	962.885
128.395	14.139	1268.883	961.831
129.410	14.225	1267.397	961.115
130.424	14.199	1267.057	960.620
131.439	14.315	1265.480	960.011
132.454	14.319	1264.902	959.509
133.468	14.304	1264.709	959.193
134.483	14.378	1263.693	958.760
135.497	14.292	1262.463	957.251
136.512	14.355	1261.267	956.620
137.527	14.346	1260.004	955.524
138.541	14.329	1258.446	954.163
139.556	14.343	1256.936	953.014
140.570	14.424	1256.086	952.748
141.585	14.547	1254.734	952.342
142.600	14.468	1253.917	951.184
143.614	14.447	1253.571	950.720
144.629	14.502	1252.213	949.921
145.643	14.545	1250.909	949.088
146.658	14.527	1249.339	947.712
147.673	14.300	1248.425	945.647
148.687	14.282	1247.377	944.667
149.702	14.312	1245.355	943.220
150.716	14.313	1244.258	942.313
151.731	14.279	1243.526	941.483
152.746	14.356	1241.555	940.345
153.760	14.421	1240.697	939.979
154.775	14.526	1239.533	939.604
155.789	14.551	1238.615	938.966
156.804	14.438	1237.775	937.611
157.819	14.569	1236.491	937.289
158.833	14.570	1236.157	936.962
159.848	14.608	1235.642	936.700
160.862	14.651	1234.063	935.660
161.877	14.481	1232.969	933.795
162.892	14.412	1231.548	932.250
163.906	14.419	1230.858	931.685
164.921	14.550	1229.725	931.480
165.935	14.559	1229.383	931.186
166.950	14.565	1228.682	930.607
167.964	14.569	1227.666	929.775
168.979	14.485	1226.992	928.714
169.994	14.464	1226.746	928.332
171.008	14.610	1225.654	928.235
172.023	14.676	1225.009	928.033
173.037	14.645	1224.235	927.191
174.052	14.692	1222.976	926.414
175.067	14.693	1221.974	925.582
176.081	14.533	1220.912	923.808
177.096	14.448	1220.583	923.007
178.110	14.551	1219.112	922.379
179.125	14.572	1217.841	921.456
180.140	14.654	1216.956	921.153
181.154	14.576	1215.506	919.545
182.169	14.715	1214.040	919.122
183.183	14.715	1213.583	918.692
184.198	14.875	1211.859	918.186
185.213	14.821	1210.815	917.020
186.227	14.840	1209.829	916.291
187.242	14.877	1208.758	915.607
188.256	14.961	1207.676	915.164
189.271	14.955	1206.554	914.200
190.286	14.837	1205.746	912.864
191.300	14.595	1204.571	910.571
192.315	14.615	1203.839	910.048
193.329	14.657	1203.162	909.682
194.344	14.510	1202.983	908.668
195.359	14.715	1202.192	909.107
196.373	14.710	1201.640	908.579
197.388	14.866	1201.208	909.023
198.402	14.999	1200.705	909.281
199.417	14.970	1200.287	908.726
200.432	15.112	1199.177	908.578
201.446	15.043	1198.326	907.478
202.461	15.153	1197.367	907.266
203.475	15.271	1195.951	906.755
204.490	15.220	1194.888	905.594
205.504	14.968	1193.855	903.368
206.519	15.024	1192.629	902.663
207.534	15.033	1191.768	901.981
208.548	14.943	1190.798	900.681
209.563	15.051	1189.848	900.461
210.577	14.970	1189.140	899.410
211.592	15.056	1188.264	899.134
212.607	15.153	1187.271	898.822
213.621	15.178	1186.747	898.481
214.636	15.172	1185.481	897.409
215.650	15.163	1184.087	896.225
216.665	15.183	1183.607	895.888
217.680	15.283	1182.706	895.665
218.694	15.204	1182.214	894.792
219.709	15.314	1181.113	894.465
220.723	15.182	1180.075	892.893
221.738	15.266	1179.425	892.771
222.753	15.271	1178.773	892.227
223.767	15.310	1178.169	891.900
224.782	15.376	1177.226	891.454
225.796	15.382	1176.904	891.163
226.811	15.424	1175.979	890.610
227.826	15.447	1175.122	890.002
228.840	15.285	1174.336	888.472
229.855	15.305	1173.955	888.210
230.869	15.216	1173.296	887.159
231.884	15.277	1172.031	886.447
232.899	15.335	1171.066	885.948
233.913	15.241	1170.734	885.122
234.928	15.327	1169.696	884.713
235.942	15.197	1169.270	883.625
236.957	15.222	1168.118	882.811
237.972	15.271	1167.701	882.675
238.986	15.217	1167.023	881.800
240.001	15.226	1165.946	880.952
241.015	15.299	1165.421	880.863
242.030	15.308	1165.032	880.540
243.045	15.392	1164.189	880.262
244.059	15.298	1163.181	878.930
245.074	15.411	1162.507	878.937
246.088	15.512	1161.364	878.521
247.103	15.480	1160.725	877.796
248.117	15.570	1160.222	877.808
249.132	15.714	1159.297	877.781
250.147	15.636	1158.931	877.016
251.161	15.851	1158.028	877.380
252.176	15.850	1157.313	876.754
253.190	15.879	1156.504	876.212
254.205	15.989	1156.219	876.492
255.220	15.825	1155.732	875.194
256.234	15.879	1154.868	874.744
257.249	15.985	1154.094	874.628
258.263	15.947	1153.879	874.192
259.278	15.951	1152.952	873.431
260.293	16.043	1152.102	873.189
261.307	15.993	1151.949	872.734
262.322	16.046	1150.960	872.181
263.336	16.094	1150.180	871.766
264.351	16.065	1149.757	871.216
265.366	16.145	1148.991	870.969
266.380	16.139	1148.461	870.460
267.395	16.217	1147.219	869.843
268.409	15.885	1147.192	868.039
269.424	16.059	1146.317	868.195
270.439	16.128	1145.485	867.842
271.453	16.017	1145.017	866.840
272.468	15.956	1144.062	865.725
273.482	15.982	1143.122	865.070
274.497	16.072	1142.502	864.989
275.512	16.039	1141.823	864.230
276.526	16.042	1141.166	863.668
277.541	16.129	1140.060	863.201
278.555	16.121	1139.773	862.867
279.570	16.118	1139.112	862.276
280.585	16.297	1138.547	862.684
281.599	16.140	1137.561	861.061
282.614	16.173	1136.109	860.055
283.628	16.289	1134.864	859.628
284.643	16.161	1134.455	858.589
285.657	16.150	1133.643	857.840
286.672	16.262	1132.263	857.290
287.687	16.285	1131.801	856.981
288.701	16.284	1131.182	856.435
289.716	16.304	1129.744	855.368
290.730	16.355	1129.032	855.013
291.745	16.363	1128.614	854.662
292.760	16.325	1128.342	854.188
293.774	16.383	1127.735	853.947
294.789	16.411	1127.014	853.466
295.803	16.477	1126.401	853.259
296.818	16.442	1125.894	852.622
297.833	16.369	1124.895	851.422
298.847	16.351	1124.410	850.890
299.862	16.417	1123.299	850.303
300.876	16.476	1122.482	849.906
301.891	16.568	1121.760	849.750
302.906	16.506	1121.566	849.217
303.920	16.600	1120.620	848.895
304.935	16.605	1120.141	848.484
305.949	16.647	1119.540	848.165
306.964	16.716	1118.547	847.682
307.979	16.591	1118.187	846.707
308.993	16.601	1117.430	846.111
310.008	16.691	1116.318	845.643
311.022	16.674	1115.610	844.948
312.037	16.701	1115.177	844.679
313.052	16.727	1113.941	843.794
314.066	16.519	1113.228	842.144
315.081	16.623	1112.119	841.751
316.095	16.551	1111.692	840.994
317.110	16.569	1110.997	840.481
318.125	16.646	1109.982	840.023
319.139	16.612	1109.644	839.523
320.154	16.658	1108.743	838.999
321.168	16.698	1108.333	838.812
322.183	16.587	1107.584	837.618
323.197	16.663	1106.843	837.362
324.212	16.607	1106.517	836.764
325.227	16.712	1105.781	836.653
326.241	16.722	1105.378	836.323
327.256	16.591	1104.780	835.151
328.270	16.697	1103.603	834.708
329.285	16.628	1102.576	833.520
330.300	16.709	1101.709	833.185
331.314	16.682	1100.654	832.185
332.329	16.675	1099.745	831.386
333.343	16.783	1098.827	831.147
334.358	16.875	1098.344	831.161
335.373	16.838	1097.344	830.152
336.387	16.848	1096.858	829.761
337.402	16.927	1095.649	829.156
338.416	16.988	1095.353	829.157
339.431	16.992	1094.512	828.467
340.446	16.984	1093.727	827.763
341.460	17.057	1093.238	827.673
342.475	17.149	1092.645	827.599
343.489	17.177	1091.373	826.700
344.504	17.140	1090.622	825.878
345.519	17.158	1089.952	825.382
346.533	17.300	1088.663	825.026
347.548	17.136	1088.510	824.038
348.562	17.245	1087.780	823.945
349.577	17.149	1086.426	822.381
350.592	17.200	1085.765	822.052
351.606	17.093	1084.777	820.714
352.621	17.114	1084.131	820.256
353.635	17.054	1083.906	819.722
354.650	17.178	1082.799	819.409
355.665	17.068	1082.318	818.443
356.679	17.075	1082.007	818.172
357.694	17.236	1080.975	818.092
358.708	17.348	1080.565	818.247
359.723	17.345	1079.777	817.564
360.738	17.240	1079.153	816.515
361.752	17.136	1078.883	815.740
362.767	17.447	1077.712	816.274
363.781	17.362	1077.453	815.599
364.796	17.323	1077.354	815.263
365.810	17.380	1076.810	815.053
366.825	17.517	1075.424	814.586
367.840	17.584	1075.113	814.601
368.854	17.537	1074.916	814.156
369.869	17.551	1074.257	813.651
370.883	17.565	1073.407	813.004
371.898	17.597	1072.019	812.029
372.913	17.431	1072.125	811.250
373.927	17.506	1071.320	810.925
374.942	17.679	1070.923	811.374
375.956	17.727	1069.970	810.809
376.971	17.611	1069.842	810.088
377.986	17.741	1069.116	810.086
379.000	17.662	1068.870	809.453
380.015	17.774	1068.431	809.578
381.029	17.894	1067.147	809.104
382.044	17.737	1066.879	808.083
383.059	17.773	1066.233	807.695
384.073	17.871	1065.021	807.166
385.088	17.743	1064.071	805.773
386.102	17.863	1063.557	805.881
387.117	17.818	1062.370	804.698
388.132	17.690	1061.446	803.323
389.146	17.840	1060.039	802.893
390.161	17.837	1059.768	802.601
391.175	17.831	1059.216	802.086
392.190	17.804	1058.387	801.257
393.205	17.901	1058.069	801.402
394.219	17.891	1057.165	800.598
395.234	17.849	1056.638	799.934
396.248	17.735	1055.352	798.354
397.263	17.835	1054.269	797.931
398.278	17.769	1053.741	797.152
399.292	17.661	1053.157	796.139
400.307	17.734	1051.998	795.531
401.321	17.799	1051.551	795.427
402.336	17.874	1051.022	795.306
403.350	17.758	1050.237	794.101
404.365	17.752	1049.603	793.521
405.380	17.925	1048.658	793.540
406.394	17.951	1047.812	792.952
407.409	17.931	1047.394	792.474
408.423	17.999	1046.619	792.134
409.438	18.158	1045.948	792.291
410.453	18.170	1045.428	791.883
411.467	18.157	1044.671	791.178
412.482	18.103	1044.287	790.569
413.496	18.232	1043.560	790.544
414.511	18.249	1043.051	790.166
415.526	18.323	1042.608	790.104
416.540	18.318	1042.337	789.803
417.555	18.322	1041.514	789.131
418.569	18.293	1040.980	788.520
419.584	18.168	1040.666	787.641
420.599	18.277	1040.303	787.796
421.613	148.084	1400.189	1791.759
422.628	135.391	1452.611	1791.884
