DTS Sentinel unit serial number:	SN413079Multiplexer serial number:	ORYXHardware model number:	OX4-SRSoftware version number:	ORYX F/W v4.00 Oryx Data Collector v3.7.2.0data status	okinstallation	princeton_trtdifferential loss correction	single-endedforward channel	channel 2reverse channel	N/Adate	2019/09/19time	00:59:35forward acquisition time	60.00reverse acquisition time	0.00gamma	496.2192k internal	0.2353k external	0.2353temperature offset calibration	1.0017default loss term (dB/km)	0.3790temperature slope calibration	1.0000multiplexer offset coefficient	1.0000multiplexer slope coefficient	1.0000fibre end	0.00T internal ref (°C)	21.94T ext. ref 1 (°C)	0.71T ext. ref 2 (°C)	15.43length (m)	temperature (°C)	Stokes	anti-Stokes-747.200	800.000	-0.068	0.286
-746.185	-23.307	0.132	0.079
-745.171	-197.661	-0.142	0.001
-744.156	80.968	0.132	0.142
-743.142	-98.347	0.406	-0.104
-742.127	800.000	-0.136	0.442
-741.112	-129.724	0.183	-0.025
-740.098	316.532	-0.117	0.221
-739.083	-92.273	0.203	0.057
-738.069	64.755	0.029	-0.030
-737.054	211.285	-0.176	-0.277
-736.039	183.181	-0.130	0.192
-735.025	-200.000	0.055	-0.270
-734.010	-119.017	-0.242	-0.042
-732.996	125.207	-0.104	0.131
-731.981	71.374	-0.107	0.111
-730.966	86.527	-0.054	-0.059
-729.952	173.497	0.173	-0.248
-728.937	-150.717	-0.059	-0.004
-727.923	800.000	-0.073	0.298
-726.908	-200.000	0.022	0.099
-725.894	-66.588	-0.114	-0.045
-724.879	-200.000	-0.023	-0.309
-723.864	-45.588	0.111	-0.055
-722.850	-7.699	-0.020	-0.014
-721.835	-16.551	0.148	0.093
-720.821	-76.908	-0.174	0.060
-719.806	-105.866	0.273	0.061
-718.791	656.249	0.142	0.362
-717.777	91.181	-0.109	0.122
-716.762	-200.000	-0.018	0.202
-715.748	257.725	-0.199	-0.341
-714.733	800.000	0.061	-0.237
-713.718	522.782	-0.161	-0.377
-712.704	162.801	0.134	0.187
-711.689	483.823	-0.148	0.335
-710.675	47.902	0.232	-0.216
-709.660	-43.039	-0.207	-0.104
-708.645	-126.050	-0.364	0.054
-707.631	344.064	0.143	0.279
-706.616	-85.910	0.041	0.013
-705.602	-200.000	-0.004	-0.178
-704.587	64.623	-0.258	-0.259
-703.572	800.000	-0.059	0.220
-702.558	-107.052	-0.088	-0.019
-701.543	103.413	0.031	0.036
-700.529	-134.476	0.321	0.039
-699.514	256.490	0.059	0.101
-698.499	40.942	-0.103	-0.092
-697.485	-90.881	-0.265	-0.076
-696.470	144.655	0.069	-0.092
-695.456	800.000	0.084	0.261
-694.441	-80.113	0.200	-0.067
-693.426	167.993	-0.113	0.161
-692.412	547.012	-0.060	-0.143
-691.397	-200.000	-0.015	-0.401
-690.383	-109.127	-0.168	0.036
-689.368	800.000	0.111	-0.444
-688.354	369.225	0.018	0.036
-687.339	12.960	0.126	-0.097
-686.324	800.000	0.034	0.099
-685.310	137.692	-0.208	0.271
-684.295	-64.693	0.102	0.041
-683.281	-41.178	-0.066	-0.034
-682.266	266.693	-0.092	0.160
-681.251	-54.118	-0.072	-0.032
-680.237	-96.089	-0.334	0.088
-679.222	800.000	0.091	-0.267
-678.208	-2.104	-0.079	0.055
-677.193	162.046	-0.181	-0.253
-676.178	-20.461	-0.316	0.193
-675.164	800.000	-0.031	-0.128
-674.149	40.047	0.085	0.076
-673.135	-74.458	-0.236	0.085
-672.120	-200.000	-0.042	-0.226
-671.105	165.365	-0.112	-0.157
-670.091	14.207	-0.246	-0.191
-669.076	800.000	0.039	-0.169
-668.062	510.278	0.092	0.214
-667.047	59.720	0.188	0.185
-666.032	304.740	0.168	0.311
-665.018	-73.235	-0.274	-0.100
-664.003	-200.000	-0.046	-0.255
-662.989	41.042	-0.236	0.212
-661.974	209.726	0.040	0.063
-660.959	-200.000	0.023	0.305
-659.945	-134.462	-0.245	0.030
-658.930	-200.000	-0.022	-0.121
-657.916	-4.293	-0.134	0.092
-656.901	401.633	-0.135	0.282
-655.886	-200.000	0.018	0.217
-654.872	-26.593	0.244	-0.142
-653.857	21.898	-0.294	-0.238
-652.843	-115.149	0.127	-0.024
-651.828	11.436	-0.136	-0.104
-650.814	-97.804	-0.080	0.021
-649.799	55.340	0.230	-0.221
-648.784	-41.960	0.149	-0.076
-647.770	-57.580	0.295	-0.128
-646.755	-32.105	0.357	0.198
-645.741	84.727	0.178	-0.194
-644.726	-23.137	-0.225	-0.134
-643.711	32.453	0.281	0.241
-642.697	800.000	-0.137	-0.432
-641.682	122.445	-0.074	0.092
-640.668	-142.216	-0.233	0.023
-639.653	-97.305	0.029	0.007
-638.638	23.874	0.118	0.096
-637.624	291.579	-0.184	-0.333
-636.609	-148.428	-0.183	0.015
-635.595	346.332	-0.068	-0.132
-634.580	625.186	0.058	0.146
-633.565	-183.514	-0.261	-0.004
-632.551	218.287	-0.026	0.041
-631.536	267.362	0.067	0.117
-630.522	306.281	-0.099	-0.183
-629.507	25.055	0.307	-0.253
-628.492	424.660	-0.026	-0.055
-627.478	800.000	0.049	-0.160
-626.463	157.182	-0.106	-0.145
-625.449	144.582	-0.078	0.103
-624.434	118.378	0.079	0.096
-623.419	-120.287	-0.234	-0.040
-622.405	800.000	-0.033	0.131
-621.390	-49.050	-0.095	-0.045
-620.376	800.000	0.073	-0.281
-619.361	-200.000	-0.033	-0.336
-618.346	211.385	0.020	0.030
-617.332	582.845	-0.040	0.097
-616.317	-72.104	-0.537	-0.198
-615.303	126.604	0.061	0.076
-614.288	-98.702	-0.108	-0.027
-613.273	227.261	-0.071	-0.114
-612.259	-96.841	0.191	-0.050
-611.244	446.000	0.069	0.150
-610.230	-162.393	0.106	0.005
-609.215	-139.257	-0.443	-0.047
-608.201	-89.575	0.262	0.076
-607.186	107.263	0.205	0.241
-606.171	634.294	-0.128	-0.322
-605.157	232.362	-0.288	-0.469
-604.142	61.267	0.143	0.141
-603.128	-99.208	-0.182	0.046
-602.113	258.902	-0.066	0.113
-601.098	-200.000	-0.028	-0.150
-600.084	-90.957	-0.100	0.029
-599.069	69.857	-0.018	-0.019
-598.055	-200.000	0.054	0.268
-597.040	-103.865	0.146	0.034
-596.025	41.481	0.043	-0.039
-595.011	-191.760	0.306	-0.003
-593.996	-200.000	0.042	-0.276
-592.982	-60.160	-0.259	0.109
-591.967	57.873	0.123	-0.119
-590.952	800.000	0.077	-0.244
-589.938	770.182	-0.075	-0.203
-588.923	-200.000	-0.022	-0.365
-587.909	-109.850	0.382	-0.079
-586.894	198.266	-0.206	-0.313
-585.879	800.000	0.131	0.408
-584.865	23.527	-0.113	0.092
-583.850	346.103	0.104	-0.203
-582.836	88.233	0.270	-0.297
-581.821	10.052	-0.232	-0.175
-580.806	-200.000	0.015	0.197
-579.792	-13.742	-0.094	-0.060
-578.777	72.969	-0.218	0.226
-577.763	-24.517	0.070	0.041
-576.748	-200.000	0.010	0.418
-575.733	-49.136	-0.030	0.014
-574.719	-145.055	0.021	0.002
-573.704	-73.077	-0.475	-0.173
-572.690	800.000	-0.092	-0.318
-571.675	375.331	0.107	-0.216
-570.661	48.899	0.201	-0.187
-569.646	-92.948	0.221	-0.061
-568.631	8.045	0.050	0.037
-567.617	269.505	0.212	0.369
-566.602	-119.371	-0.227	-0.039
-565.588	-174.140	0.135	0.004
-564.573	87.754	0.036	0.039
-563.558	-110.376	-0.104	0.021
-562.544	-164.431	0.196	0.009
-561.529	-65.841	0.125	-0.049
-560.515	800.000	-0.016	0.045
-559.500	-200.000	-0.028	-0.247
-558.485	197.906	0.026	-0.039
-557.471	304.455	-0.101	0.185
-556.456	-94.702	-0.368	0.099
-555.442	-109.407	-0.194	-0.041
-554.427	800.000	-0.113	-0.328
-553.412	-200.000	-0.072	-0.455
-552.398	-200.000	-0.040	-0.238
-551.383	-40.497	0.183	0.094
-550.369	-200.000	-0.040	0.460
-549.354	664.613	-0.025	-0.063
-548.339	110.441	-0.049	0.058
-547.325	-200.000	-0.018	0.220
-546.310	-102.386	-0.228	0.054
-545.296	-12.627	-0.294	-0.190
-544.281	-27.533	0.261	-0.150
-543.266	-160.211	-0.187	-0.010
-542.252	-69.650	-0.370	0.140
-541.237	131.992	-0.104	0.132
-540.223	-7.293	-0.157	-0.105
-539.208	463.065	0.099	-0.219
-538.193	226.912	0.227	-0.365
-537.179	800.000	-0.030	0.087
-536.164	-200.000	0.004	0.032
-535.150	-200.000	-0.008	0.139
-534.135	199.766	0.259	0.393
-533.121	-200.000	-0.015	0.287
-532.106	-59.380	0.318	0.135
-531.091	-96.461	-0.214	0.056
-530.077	-162.276	-0.040	-0.002
-529.062	800.000	-0.088	0.244
-528.048	253.724	-0.045	-0.076
-527.033	311.430	-0.097	0.180
-526.018	-200.000	0.049	-0.271
-525.004	57.597	0.188	-0.182
-523.989	420.675	-0.072	-0.152
-522.975	177.486	-0.099	-0.143
-521.960	800.000	0.007	-0.022
-520.945	-42.589	-0.225	0.113
-519.931	-45.100	-0.181	0.089
-518.916	800.000	0.089	-0.276
-517.902	-200.000	-0.066	0.559
-516.887	800.000	-0.046	0.177
-515.872	93.220	-0.198	-0.221
-514.858	800.000	0.089	-0.248
-513.843	-200.000	-0.015	0.093
-512.829	25.856	-0.353	-0.291
-511.814	29.132	0.363	-0.304
-510.799	-169.896	0.148	0.005
-509.785	-200.000	-0.002	-0.064
-508.770	-200.000	0.025	0.167
-507.756	-18.852	-0.303	-0.186
-506.741	223.629	0.160	0.255
-505.726	246.249	0.021	-0.035
-504.712	-38.098	-0.156	-0.082
-503.697	800.000	0.091	0.370
-502.683	-22.164	0.327	0.196
-501.668	800.000	0.021	-0.075
-500.653	-90.735	-0.165	0.047
-499.639	-200.000	0.079	0.342
-498.624	-53.062	-0.279	-0.127
-497.610	-200.000	0.010	0.101
-496.595	-129.604	0.096	0.013
-495.581	93.787	-0.103	-0.115
-494.566	205.225	-0.103	0.158
-493.551	173.241	0.257	-0.366
-492.537	-200.000	0.008	0.056
-491.522	-186.176	-0.266	0.004
-490.508	425.515	-0.099	0.211
-489.493	141.785	-0.065	0.085
-488.478	196.271	0.045	-0.067
-487.464	800.000	0.028	-0.101
-486.449	-200.000	0.008	-0.331
-485.435	-115.360	-0.207	-0.039
-484.420	-200.000	0.040	0.257
-483.405	57.584	-0.152	-0.146
-482.391	-200.000	0.064	0.366
-481.376	-22.189	0.301	0.180
-480.362	800.000	0.039	0.130
-479.347	-129.999	-0.218	-0.029
-478.332	188.640	0.103	0.152
-477.318	-9.909	0.186	0.122
-476.303	354.699	-0.106	0.208
-475.289	-169.196	0.130	-0.005
-474.274	-28.108	0.246	0.140
-473.259	-172.534	0.275	0.009
-472.245	-147.036	-0.204	0.017
-471.230	-49.424	0.229	-0.108
-470.216	96.295	-0.209	0.236
-469.201	-148.467	-0.159	0.013
-468.186	82.816	0.091	-0.097
-467.172	252.813	0.045	-0.076
-466.157	-141.153	0.303	-0.030
-465.143	-80.635	-0.280	0.092
-464.128	283.801	0.152	0.269
-463.113	7.808	-0.129	0.095
-462.099	377.392	0.189	0.381
-461.084	110.307	0.007	0.008
-460.070	228.521	-0.115	-0.185
-459.055	800.000	0.072	-0.280
-458.040	386.869	-0.111	-0.226
-457.026	-123.795	0.215	0.033
-456.011	-200.000	0.042	0.200
-454.997	-147.661	0.263	-0.022
-453.982	-200.000	0.001	-0.113
-452.968	-49.077	0.216	-0.102
-451.953	-200.000	0.067	0.302
-450.938	-53.329	-0.063	0.028
-449.924	52.582	-0.275	-0.259
-448.909	-49.191	-0.327	0.154
-447.895	-30.960	-0.140	-0.078
-446.880	-81.167	0.213	0.070
-445.865	-32.140	-0.149	0.082
-444.851	-200.000	-0.005	-0.043
-443.836	800.000	-0.060	-0.213
-442.822	-162.911	-0.338	-0.016
-441.807	380.600	-0.040	-0.081
-440.792	306.431	-0.164	0.301
-439.778	-13.365	0.268	-0.172
-438.763	35.212	0.142	-0.123
-437.749	-200.000	-0.005	0.091
-436.734	-108.398	0.242	-0.051
-435.719	-133.134	0.083	-0.010
-434.705	24.103	0.177	0.144
-433.690	89.363	-0.096	-0.105
-432.676	-200.000	0.061	0.339
-431.661	-200.000	0.002	0.076
-430.646	-200.000	0.021	-0.407
-429.632	-84.301	0.176	0.055
-428.617	-83.042	0.178	0.057
-427.603	-6.817	-0.234	0.157
-426.588	156.027	0.178	0.242
-425.573	766.302	-0.059	0.157
-424.559	-118.710	-0.230	-0.040
-423.544	-77.441	-0.050	-0.017
-422.530	-76.264	-0.362	0.126
-421.515	-200.000	-0.010	0.318
-420.500	-91.556	-0.386	-0.108
-419.486	539.588	0.141	-0.330
-418.471	-200.000	-0.079	-0.485
-417.457	-58.120	0.065	0.028
-416.442	-156.019	0.195	0.012
-415.428	121.105	0.196	-0.241
-414.413	106.013	0.176	-0.206
-413.398	-93.959	-0.084	-0.023
-412.384	-134.473	0.326	-0.039
-411.369	109.321	-0.256	0.302
-410.355	-39.374	0.140	-0.072
-409.340	-71.898	0.380	0.139
-408.325	-147.321	0.167	-0.014
-407.311	-200.000	0.020	0.132
-406.296	-200.000	0.045	0.217
-405.282	137.450	0.046	-0.060
-404.267	-96.603	-0.392	-0.102
-403.252	-200.000	0.060	0.309
-402.238	-143.006	-0.408	-0.039
-401.223	-200.000	0.029	-0.453
-400.209	23.456	0.187	0.151
-399.194	-82.518	0.169	-0.054
-398.179	800.000	-0.117	-0.324
-397.165	800.000	-0.104	0.330
-396.150	480.292	-0.055	0.124
-395.136	79.094	0.156	-0.164
-394.121	474.007	-0.136	0.302
-393.106	224.612	0.174	0.277
-392.092	124.004	0.226	0.279
-391.077	-20.985	0.095	0.057
-390.063	6.670	0.249	0.182
-389.048	-16.103	-0.180	-0.112
-388.033	-200.000	0.025	0.134
-387.019	188.751	0.065	-0.096
-386.004	-200.000	-0.035	0.212
-384.990	191.797	0.248	-0.368
-383.975	-79.631	0.121	-0.040
-382.960	-200.000	0.045	0.243
-381.946	800.000	0.063	0.215
-380.931	-14.725	-0.221	-0.140
-379.917	74.598	-0.282	0.292
-378.902	-155.475	-0.202	0.013
-377.888	322.706	-0.046	0.087
-376.873	19.965	-0.176	-0.140
-375.858	363.468	0.227	-0.449
-374.844	-200.000	-0.013	-0.092
-373.829	46.544	-0.144	0.131
-372.815	-85.133	-0.223	0.069
-371.800	56.712	0.043	-0.041
-370.785	-169.660	-0.334	0.012
-369.771	23.375	-0.208	0.168
-368.756	-132.213	-0.286	-0.036
-367.742	-97.673	0.088	-0.022
-366.727	239.341	-0.019	-0.031
-365.712	452.430	-0.109	-0.236
-364.698	395.686	-0.127	-0.261
-363.683	-79.823	0.284	-0.094
-362.669	125.988	-0.161	-0.200
-361.654	121.539	-0.150	-0.184
-360.639	-200.000	0.007	-0.104
-359.625	493.911	0.049	0.110
-358.610	-200.000	0.007	0.506
-357.596	108.554	-0.118	-0.139
-356.581	244.804	-0.033	0.054
-355.566	-151.117	-0.262	-0.019
-354.552	800.000	0.127	-0.347
-353.537	-137.707	-0.085	-0.009
-352.523	-200.000	0.020	-0.232
-351.508	-82.146	-0.162	-0.052
-350.493	-62.621	0.114	0.047
-349.479	-88.772	0.013	-0.004
-348.464	68.767	-0.214	-0.215
-347.450	-200.000	-0.034	-0.207
-346.435	-47.806	-0.352	0.168
-345.420	-27.886	0.083	0.047
-344.406	-87.947	0.284	-0.084
-343.391	93.343	-0.103	-0.114
-342.377	-200.000	-0.023	0.278
-341.362	-200.000	0.003	0.020
-340.348	29.269	0.212	0.177
-339.333	227.980	-0.064	-0.102
-338.318	376.721	0.089	0.178
-337.304	133.201	-0.119	0.150
-336.289	0.932	0.204	0.143
-335.275	34.251	-0.113	0.096
-334.260	13.647	-0.114	0.087
-333.245	-200.000	0.002	0.148
-332.231	518.918	0.094	0.216
-331.216	118.402	0.007	0.009
-330.202	-119.356	-0.196	-0.033
-329.187	119.444	0.130	0.158
-328.172	208.662	0.117	-0.180
-327.158	45.641	-0.122	-0.111
-326.143	-186.654	-0.250	0.003
-325.129	-200.000	0.025	0.194
-324.114	252.258	0.152	0.255
-323.099	73.985	0.145	0.149
-322.085	173.936	-0.335	-0.475
-321.070	119.193	0.097	-0.118
-320.056	204.513	-0.126	-0.192
-319.041	-145.485	-0.188	0.017
-318.026	-200.000	0.012	-0.382
-317.012	50.548	0.269	-0.250
-315.997	306.700	0.064	-0.117
-314.983	711.689	0.058	-0.151
-313.968	229.086	-0.080	-0.127
-312.953	191.113	-0.113	-0.167
-311.939	-200.000	0.006	0.169
-310.924	86.069	0.079	0.085
-309.910	280.847	-0.109	-0.192
-308.895	-151.673	0.396	-0.029
-307.880	-200.000	-0.036	0.169
-306.866	-13.355	0.381	0.242
-305.851	800.000	-0.086	0.249
-304.837	276.766	0.319	0.556
-303.822	-86.733	0.309	-0.093
-302.807	181.664	-0.098	0.141
-301.793	-200.000	-0.033	0.147
-300.778	-200.000	0.022	-0.196
-299.764	398.695	-0.141	-0.288
-298.749	-200.000	-0.020	0.263
-297.735	259.468	0.114	0.193
-296.720	-200.000	-0.025	-0.273
-295.705	103.987	0.100	-0.115
-294.691	-200.000	-0.006	-0.143
-293.676	-200.000	-0.020	-0.103
-292.662	311.709	-0.119	0.219
-291.647	800.000	-0.039	0.126
-290.632	-84.532	0.102	0.032
-289.618	-200.000	0.022	-0.288
-288.603	-92.012	-0.022	0.006
-287.589	-200.000	0.007	0.128
-286.574	-200.000	-0.048	-0.324
-285.559	-200.000	-0.015	-0.087
-284.545	-34.223	0.149	0.080
-283.530	-156.625	0.378	-0.023
-282.516	79.481	0.139	0.146
-281.501	173.293	0.169	-0.239
-280.486	-200.000	0.022	-0.304
-279.472	-41.237	0.334	0.169
-278.457	-200.000	-0.060	0.594
-277.443	-193.397	0.273	-0.002
-276.428	-45.105	-0.139	0.068
-275.413	133.205	-0.149	0.188
-274.399	-200.000	0.016	-0.148
-273.384	-84.206	0.046	-0.014
-272.370	483.784	-0.065	0.144
-271.355	-116.831	0.133	0.024
-270.340	-13.156	0.232	-0.147
-269.326	-46.481	-0.233	0.112
-268.311	800.000	-0.060	0.185
-267.297	232.430	0.060	-0.097
-266.282	-83.033	0.220	-0.069
-265.267	156.810	0.163	-0.220
-264.253	-74.641	-0.122	0.043
-263.238	473.718	-0.157	-0.347
-262.224	-26.796	0.130	0.074
-261.209	-167.358	0.157	-0.006
-260.195	-113.845	0.251	0.048
-259.180	-85.889	-0.097	0.029
-258.165	-106.783	0.315	-0.068
-257.151	286.791	0.061	-0.108
-256.136	-136.266	-0.153	-0.018
-255.122	280.713	-0.127	0.222
-254.107	-200.000	0.037	0.243
-253.092	-159.813	0.224	0.012
-252.078	-200.000	-0.048	0.211
-251.063	-200.000	0.030	0.314
-250.049	40.137	-0.050	0.044
-249.034	78.189	-0.095	0.099
-248.019	-190.342	-0.237	-0.003
-247.005	127.526	-0.144	-0.179
-245.990	-112.503	-0.517	0.101
-244.976	-200.000	0.021	0.269
-243.961	389.644	-0.051	0.104
-242.946	94.124	-0.151	-0.167
-241.932	-200.000	-0.012	0.066
-240.917	211.444	-0.129	0.199
-239.903	-126.424	0.348	0.051
-238.888	704.147	0.099	-0.254
-237.873	221.142	0.022	-0.034
-236.859	180.058	0.333	0.477
-235.844	83.085	-0.100	-0.106
-234.830	800.000	-0.126	0.346
-233.815	-27.814	-0.482	-0.273
-232.800	245.273	0.194	0.319
-231.786	421.538	-0.088	0.184
-230.771	-200.000	0.046	-0.235
-229.757	-200.000	-0.027	-0.197
-228.742	-177.317	0.235	0.006
-227.727	198.961	-0.019	-0.028
-226.713	-200.000	-0.015	0.107
-225.698	110.129	0.123	-0.144
-224.684	135.678	0.056	-0.072
-223.669	-60.798	-0.171	-0.071
-222.655	800.000	-0.038	-0.152
-221.640	148.889	-0.123	-0.163
-220.625	-200.000	0.012	0.188
-219.611	94.336	0.229	-0.254
-218.596	-121.270	-0.310	0.051
-217.582	-200.000	-0.023	0.165
-216.567	110.754	0.220	-0.258
-215.552	-164.073	0.154	-0.007
-214.538	27.422	-0.071	0.059
-213.523	800.000	-0.119	0.413
-212.509	-59.624	-0.082	-0.035
-211.494	-120.862	0.181	-0.030
-210.479	-94.405	0.054	0.014
-209.465	-79.577	0.241	-0.079
-208.450	135.418	0.131	0.167
-207.436	233.466	-0.204	0.327
-206.421	-117.421	-0.158	0.028
-205.406	201.164	-0.199	-0.299
-204.392	800.000	-0.102	-0.423
-203.377	-80.413	-0.151	0.049
-202.363	-200.000	-0.010	-0.231
-201.348	-146.609	0.156	0.013
-200.333	297.248	0.099	0.177
-199.319	-38.187	-0.232	-0.120
-198.304	131.578	-0.159	-0.200
-197.290	-114.284	0.170	-0.032
-196.275	-36.645	-0.413	0.217
-195.260	269.164	-0.045	-0.077
-194.246	800.000	-0.061	0.261
-193.231	408.406	-0.030	0.062
-192.217	-115.618	0.349	-0.064
-191.202	-114.220	-0.232	0.044
-190.187	800.000	-0.044	-0.166
-189.173	126.034	0.073	0.090
-188.158	61.249	0.078	0.076
-187.144	5.592	0.092	-0.066
-186.129	705.339	0.076	0.196
-185.114	423.012	-0.132	0.277
-184.100	255.256	-0.106	0.178
-183.085	-11.507	-0.245	0.157
-182.071	-200.000	-0.061	0.290
-181.056	-90.700	-0.137	0.039
-180.042	103.233	-0.030	-0.035
-179.027	158.869	-0.221	-0.300
-178.012	284.762	-0.028	-0.048
-176.998	-30.565	0.163	-0.090
-175.983	-58.134	0.288	-0.122
-174.969	-200.000	0.026	-0.135
-173.954	-70.453	0.215	0.079
-172.939	106.053	0.208	0.240
-171.925	-153.294	-0.319	0.022
-170.910	800.000	-0.048	-0.198
-169.896	133.640	0.056	-0.070
-168.881	82.499	0.238	-0.251
-167.866	-200.000	-0.062	-0.405
-166.852	57.168	-0.180	0.171
-165.837	-43.232	0.251	-0.124
-164.823	-200.000	0.066	-0.329
-163.808	-200.000	0.368	0.000
-162.793	160.974	0.234	0.318
-161.779	-200.000	0.082	0.378
-160.764	168.853	0.103	0.143
-159.750	10.678	-0.087	-0.065
-158.735	800.000	0.067	0.195
-157.720	-200.000	-0.028	-0.156
-156.706	45.298	-0.118	0.106
-155.691	-200.000	0.025	-0.309
-154.677	100.943	0.174	0.197
-153.662	160.240	-0.198	0.269
-152.647	-84.964	0.219	0.067
-151.633	-8.803	0.353	-0.231
-150.618	-62.935	0.127	0.051
-149.604	-65.586	-0.154	-0.060
-148.589	-21.992	-0.169	-0.100
-147.574	-200.000	-0.077	-0.385
-146.560	43.493	0.252	-0.225
-145.545	-133.100	0.152	0.019
-144.531	-36.846	-0.301	-0.157
-143.516	133.204	-0.177	-0.223
-142.502	-54.443	-0.103	-0.045
-141.487	800.000	0.100	-0.378
-140.472	-129.073	-0.126	-0.017
-139.458	-65.951	0.120	0.047
-138.443	-177.495	0.194	-0.005
-137.429	-140.937	-0.166	-0.017
-136.414	351.032	-0.064	-0.123
-135.399	286.178	-0.078	-0.136
-134.385	332.688	0.092	-0.173
-133.370	-200.000	-0.002	-0.156
-132.356	800.000	0.148	-0.440
-131.341	-136.954	-0.086	-0.010
-130.326	-25.831	0.115	0.066
-129.312	-152.781	-0.237	0.016
-128.297	-92.851	0.106	-0.029
-127.283	800.000	-0.046	0.125
-126.268	-119.893	-0.479	0.080
-125.253	-165.104	0.112	-0.005
-124.239	312.183	0.140	0.255
-123.224	-200.000	0.055	0.400
-122.210	219.755	-0.184	-0.287
-121.195	-200.000	-0.018	0.230
-120.180	-22.054	-0.272	-0.160
-119.166	148.569	-0.076	-0.099
-118.151	-200.000	0.019	-0.208
-117.137	-200.000	-0.035	-0.226
-116.122	800.000	-0.060	0.254
-115.107	-137.351	0.139	-0.015
-114.093	349.500	0.109	-0.210
-113.078	-200.000	-0.031	0.274
-112.064	-178.048	0.166	0.004
-111.049	-200.000	0.012	-0.174
-110.034	-140.599	-0.119	-0.012
-109.020	-200.000	-0.043	-0.409
-108.005	119.092	0.073	0.088
-106.991	44.862	0.198	0.177
-105.976	-14.986	-0.182	-0.113
-104.962	306.280	0.130	0.235
-103.947	-200.000	0.028	-0.406
-102.932	43.846	-0.145	-0.129
-101.918	-66.869	0.042	0.016
-100.903	68.384	-0.214	0.213
-99.889	-133.985	0.072	0.009
-98.874	-136.267	0.478	-0.054
-97.859	553.559	0.101	-0.236
-96.845	-27.855	-0.190	-0.107
-95.830	-197.535	-0.144	0.001
-94.816	-127.515	0.460	-0.065
-93.801	144.900	-0.048	0.063
-92.786	-200.000	0.012	0.175
-91.772	-42.469	0.363	0.180
-90.757	800.000	-0.059	0.172
-89.743	-200.000	-0.039	0.191
-88.728	300.632	-0.176	-0.316
-87.713	12.381	0.334	-0.250
-86.699	-95.433	-0.138	0.036
-85.684	19.605	0.206	0.161
-84.670	565.492	0.116	0.273
-83.655	-173.493	-0.234	-0.007
-82.640	360.322	0.079	-0.154
-81.626	-200.000	-0.007	-0.129
-80.611	-49.646	-0.252	-0.116
-79.597	-22.929	0.330	-0.194
-78.582	-33.020	0.123	-0.066
-77.567	110.267	0.249	0.291
-76.553	-173.508	-0.341	0.010
-75.538	-140.776	0.176	-0.018
-74.524	800.000	0.077	0.256
-73.509	623.687	0.091	-0.223
-72.494	116.439	0.104	-0.124
-71.480	47.334	-0.001	0.001
-70.465	-115.110	-0.058	-0.011
-69.451	-200.000	-0.007	-0.175
-68.436	206.174	0.235	0.356
-67.422	274.988	-0.028	-0.048
-66.407	8.111	-0.243	-0.177
-65.392	-92.281	0.301	0.082
-64.378	496.890	0.198	-0.442
-63.363	211.259	0.263	0.402
-62.349	-110.073	-0.131	-0.027
-61.334	141.482	-0.898	-1.154
-60.319	182.399	0.613	0.877
-59.305	800.000	-0.496	-1.382
-58.290	199.721	0.677	1.008
-57.276	601.497	0.675	1.627
-56.261	-200.000	134.461	688.045
-55.246	358.518	1664.181	3226.215
-54.232	134.290	2811.807	3537.565
-53.217	86.312	2305.506	2465.310
-52.203	30.807	1900.371	1579.243
-51.188	24.861	1694.553	1363.019
-50.173	22.882	1656.516	1317.624
-49.159	44.699	1730.010	1543.816
-48.144	41.982	1739.022	1531.047
-47.130	24.493	1689.181	1355.686
-46.115	22.042	1673.615	1324.676
-45.100	21.842	1668.636	1319.182
-44.086	21.848	1666.267	1317.296
-43.071	21.765	1664.031	1314.854
-42.057	21.800	1661.859	1313.350
-41.042	21.844	1659.267	1311.580
-40.027	21.818	1657.808	1310.181
-39.013	21.800	1656.111	1308.650
-37.998	21.807	1654.615	1307.468
-36.984	21.784	1653.436	1306.320
-35.969	21.838	1651.753	1305.336
-34.954	21.949	1649.534	1304.353
-33.940	21.897	1648.182	1302.851
-32.925	21.867	1646.356	1301.133
-31.911	21.912	1644.999	1300.341
-30.896	21.880	1643.156	1298.594
-29.881	21.932	1641.641	1297.729
-28.867	21.914	1640.364	1296.541
-27.852	21.933	1638.942	1295.501
-26.838	21.930	1637.403	1294.213
-25.823	21.979	1635.737	1293.208
-24.809	21.986	1635.136	1292.732
-23.794	21.959	1633.232	1290.978
-22.779	21.944	1632.067	1289.894
-21.765	21.972	1630.015	1288.426
-20.750	21.985	1628.320	1287.130
-19.736	21.905	1627.859	1286.126
-18.721	22.033	1625.744	1285.343
-17.706	21.994	1624.188	1283.776
-16.692	22.027	1622.745	1282.826
-15.677	21.967	1621.408	1281.281
-14.663	22.001	1620.415	1280.692
-13.648	21.899	1619.465	1279.147
-12.633	22.010	1617.462	1278.325
-11.619	21.983	1616.065	1276.970
-10.604	22.039	1614.211	1275.864
-9.590	21.958	1613.453	1274.627
-8.575	22.016	1611.854	1273.732
-7.560	21.947	1611.201	1272.667
-6.546	22.013	1609.681	1271.890
-5.531	22.039	1608.579	1271.160
-4.517	21.981	1607.082	1269.507
-3.502	21.990	1606.021	1268.681
-2.487	22.086	1604.072	1267.782
-1.473	21.539	1592.151	1254.396
-0.458	18.454	1572.175	1216.736
0.556	13.709	1574.498	1184.531
1.571	11.411	1599.556	1186.583
2.586	11.257	1611.457	1194.182
3.600	10.432	1557.435	1148.198
4.615	6.088	1451.892	1041.553
5.629	1.600	1395.893	972.643
6.644	0.836	1388.716	962.698
7.659	0.687	1388.113	961.246
8.673	0.697	1386.983	960.446
9.688	0.630	1385.148	958.662
10.702	0.464	1381.356	954.901
11.717	2.914	1384.111	972.244
12.731	9.017	1393.206	1017.338
13.746	14.948	1402.468	1061.766
14.761	17.209	1405.065	1077.998
15.775	16.636	1403.402	1072.993
16.790	15.699	1400.648	1064.860
17.804	14.944	1398.673	1058.490
18.819	14.555	1397.254	1054.862
19.834	14.336	1395.698	1052.212
20.848	14.105	1394.731	1049.933
21.863	13.791	1393.590	1046.999
22.877	13.682	1391.921	1044.965
23.892	13.610	1391.132	1043.831
24.907	13.588	1390.578	1043.181
25.921	13.633	1389.301	1042.415
26.936	13.717	1388.358	1042.140
27.950	13.724	1387.391	1041.370
28.965	13.763	1386.363	1040.747
29.980	13.820	1385.329	1040.239
30.994	13.905	1384.197	1039.829
32.009	13.885	1383.566	1039.140
33.023	13.924	1382.286	1038.327
34.038	13.865	1381.132	1037.004
35.053	13.874	1379.700	1035.891
36.067	13.772	1378.901	1034.561
37.082	13.856	1378.004	1034.320
38.096	13.851	1376.894	1033.366
39.111	13.796	1376.033	1032.284
40.126	13.746	1376.004	1031.863
41.140	13.667	1374.588	1030.220
42.155	13.645	1373.823	1029.416
43.169	13.523	1374.822	1029.316
44.184	13.622	1373.615	1028.935
45.199	13.648	1373.343	1028.804
46.213	13.641	1372.617	1028.122
47.228	13.769	1371.628	1028.087
48.242	13.706	1370.269	1026.583
49.257	13.714	1369.168	1025.718
50.271	13.613	1367.801	1023.983
51.286	13.715	1366.301	1023.395
52.301	13.754	1365.013	1022.578
53.315	13.723	1363.918	1021.483
54.330	13.678	1363.005	1020.427
55.344	13.580	1362.136	1019.086
56.359	13.670	1360.663	1018.447
57.374	13.628	1360.163	1017.725
58.388	13.570	1359.408	1016.712
59.403	13.647	1358.389	1016.335
60.417	13.586	1357.663	1015.323
61.432	13.617	1356.219	1014.346
62.447	13.582	1355.619	1013.590
63.461	13.539	1355.128	1012.874
64.476	13.579	1353.899	1012.109
65.490	13.496	1353.119	1010.933
66.505	13.535	1351.179	1009.627
67.520	13.611	1349.667	1008.872
68.534	13.579	1349.056	1008.133
69.549	13.638	1347.786	1007.451
70.563	13.668	1346.621	1006.673
71.578	13.537	1345.309	1004.811
72.593	13.391	1344.815	1003.470
73.607	13.504	1343.461	1003.050
74.622	13.466	1343.101	1002.463
75.636	13.453	1342.085	1001.541
76.651	13.489	1341.527	1001.250
77.666	13.496	1341.064	1000.859
78.680	13.489	1340.770	1000.509
79.695	13.536	1339.195	999.528
80.709	13.534	1338.831	999.156
81.724	13.455	1338.126	998.067
82.739	13.602	1337.149	998.134
83.753	13.690	1335.974	997.702
84.768	13.731	1334.598	996.831
85.782	13.695	1333.812	995.939
86.797	13.704	1332.739	995.100
87.812	13.673	1331.270	993.730
88.826	13.746	1330.011	993.142
89.841	13.686	1329.111	992.025
90.855	13.764	1328.135	991.674
91.870	13.810	1327.400	991.309
92.884	13.722	1326.496	990.024
93.899	13.816	1325.514	989.764
94.914	13.773	1325.261	989.232
95.928	13.869	1323.949	988.733
96.943	13.873	1323.259	988.155
97.957	13.726	1322.239	986.434
98.972	13.815	1320.667	985.704
99.987	13.795	1320.231	985.171
101.001	13.788	1319.259	984.314
102.016	13.761	1318.086	983.196
103.030	13.854	1316.843	982.728
104.045	13.832	1315.825	981.751
105.060	13.744	1315.094	980.600
106.074	13.649	1314.287	979.349
107.089	13.656	1312.769	978.174
108.103	13.616	1311.638	977.012
109.118	13.650	1309.900	975.828
110.133	13.665	1308.607	974.870
111.147	13.722	1307.027	973.939
112.162	13.725	1306.174	973.234
113.176	13.742	1304.584	972.066
114.191	13.781	1303.832	971.645
115.206	13.812	1302.674	970.877
116.220	13.703	1301.792	969.498
117.235	13.854	1300.389	969.248
118.249	13.749	1299.388	967.803
119.264	13.723	1298.568	966.956
120.279	13.557	1297.919	965.420
121.293	13.662	1296.638	964.993
122.308	13.708	1295.329	964.203
123.322	13.730	1294.053	963.295
124.337	13.676	1293.255	962.300
125.352	13.753	1291.763	961.552
126.366	13.762	1289.856	960.099
127.381	13.663	1289.183	958.939
128.395	13.648	1288.140	957.992
129.410	13.677	1287.260	957.421
130.424	13.743	1286.439	957.108
131.439	13.760	1285.663	956.545
132.454	13.688	1284.930	955.501
133.468	13.793	1283.789	955.172
134.483	13.749	1283.083	954.309
135.497	13.742	1281.872	953.284
136.512	13.751	1280.378	952.140
137.527	13.680	1279.189	950.765
138.541	13.819	1277.977	950.574
139.556	13.834	1276.371	949.379
140.570	13.835	1275.481	948.641
141.585	13.861	1274.129	947.699
142.600	13.996	1272.961	947.517
143.614	14.013	1271.800	946.666
144.629	13.999	1270.778	945.743
145.643	13.989	1269.665	944.773
146.658	13.916	1268.200	943.187
147.673	13.946	1267.472	942.733
148.687	13.893	1266.554	941.664
149.702	13.833	1265.022	940.098
150.716	13.759	1264.013	938.851
151.731	13.920	1262.383	938.463
152.746	13.924	1261.385	937.664
153.760	13.932	1259.817	936.460
154.775	13.875	1259.413	935.754
155.789	14.012	1258.082	935.456
156.804	13.957	1257.001	934.258
157.819	14.093	1255.351	933.712
158.833	14.026	1255.080	933.052
159.848	14.074	1253.557	932.109
160.862	14.106	1252.843	931.676
161.877	14.045	1251.863	930.518
162.892	13.982	1250.879	929.354
163.906	14.040	1249.640	928.677
164.921	14.059	1248.985	928.214
165.935	14.039	1248.170	927.412
166.950	14.116	1246.920	926.830
167.964	14.122	1246.281	926.308
168.979	14.124	1245.841	925.912
169.994	14.064	1245.155	924.987
171.008	14.157	1244.007	924.569
172.023	14.171	1243.264	924.008
173.037	14.139	1242.896	923.476
174.052	14.250	1241.448	922.938
175.067	14.097	1240.334	921.181
176.081	14.108	1239.671	920.666
177.096	14.175	1238.415	920.024
178.110	14.192	1237.522	919.370
179.125	14.179	1236.160	918.208
180.140	14.229	1235.049	917.577
181.154	14.140	1233.753	916.044
182.169	14.347	1232.322	916.035
183.183	14.273	1231.465	914.912
184.198	14.264	1230.045	913.729
185.213	14.365	1228.966	913.397
186.227	14.222	1228.391	912.106
187.242	14.362	1226.743	911.566
188.256	14.442	1225.943	911.330
189.271	14.519	1224.944	910.926
190.286	14.399	1224.032	909.516
191.300	14.278	1223.557	908.421
192.315	14.268	1222.632	907.597
193.329	14.169	1222.552	906.919
194.344	14.263	1221.516	906.584
195.359	14.266	1221.185	906.272
196.373	14.374	1219.997	905.898
197.388	14.401	1219.780	905.802
198.402	14.434	1219.267	905.521
199.417	14.531	1218.257	905.220
200.432	14.574	1217.296	904.658
201.446	14.581	1216.812	904.257
202.461	14.692	1215.917	904.112
203.475	14.558	1214.976	902.608
204.490	14.615	1213.860	902.006
205.504	14.644	1212.013	900.709
206.519	14.580	1211.158	899.652
207.534	14.478	1210.412	898.469
208.548	14.599	1209.413	898.295
209.563	14.645	1208.228	897.586
210.577	14.644	1207.564	897.005
211.592	14.721	1206.401	896.479
212.607	14.731	1205.513	895.791
213.621	14.719	1204.591	894.964
214.636	14.719	1203.965	894.416
215.650	14.769	1202.928	893.838
216.665	14.804	1202.040	893.285
217.680	14.865	1201.125	892.849
218.694	14.740	1200.675	891.772
219.709	14.776	1199.849	891.267
220.723	14.857	1199.123	891.082
221.738	14.807	1198.407	890.206
222.753	14.758	1197.487	889.185
223.767	14.835	1197.017	889.164
224.782	14.912	1196.362	889.012
225.796	14.860	1195.708	888.170
226.811	14.961	1194.516	887.739
227.826	14.955	1193.789	887.089
228.840	14.949	1193.309	886.620
229.855	14.927	1192.368	885.729
230.869	14.886	1191.962	885.134
231.884	15.023	1190.540	884.720
232.899	15.027	1189.605	883.971
233.913	15.027	1189.340	883.694
234.928	14.899	1188.729	882.486
235.942	14.906	1187.779	881.743
236.957	14.938	1186.842	881.137
237.972	14.940	1186.130	880.540
238.986	14.966	1185.832	880.375
240.001	15.007	1185.013	879.906
241.015	15.093	1183.712	879.313
242.030	15.064	1183.093	878.625
243.045	15.019	1182.492	877.864
244.059	15.101	1181.695	877.627
245.074	15.116	1180.637	876.840
246.088	15.132	1179.745	876.186
247.103	15.200	1178.982	875.893
248.117	15.210	1178.283	875.351
249.132	15.198	1177.643	874.737
250.147	15.359	1176.731	874.822
251.161	15.438	1175.983	874.600
252.176	15.264	1175.725	873.420
253.190	15.360	1174.967	873.281
254.205	15.308	1174.392	872.505
255.220	15.440	1173.579	872.513
256.234	15.408	1173.232	872.011
257.249	15.447	1172.152	871.333
258.263	15.422	1171.632	870.737
259.278	15.573	1171.172	871.102
260.293	15.591	1170.475	870.602
261.307	15.503	1169.915	869.650
262.322	15.558	1169.167	869.301
263.336	15.515	1168.450	868.471
264.351	15.554	1168.065	868.310
265.366	15.521	1167.305	867.496
266.380	15.692	1166.369	867.606
267.395	15.602	1165.714	866.579
268.409	15.597	1164.914	865.885
269.424	15.604	1164.127	865.256
270.439	15.683	1163.672	865.249
271.453	15.588	1163.149	864.295
272.468	15.613	1162.239	863.671
273.482	15.565	1161.477	862.779
274.497	15.664	1160.703	862.640
275.512	15.625	1160.156	861.955
276.526	15.770	1159.288	861.978
277.541	15.632	1158.659	860.724
278.555	15.661	1157.928	860.253
279.570	15.752	1157.006	859.958
280.585	15.747	1156.508	859.486
281.599	15.851	1155.412	859.127
282.614	15.796	1153.952	857.686
283.628	15.780	1153.238	856.996
284.643	15.827	1152.468	856.588
285.657	15.904	1151.668	856.308
286.672	15.752	1150.840	854.849
287.687	15.921	1149.437	854.586
288.701	15.857	1149.232	854.036
289.716	15.920	1148.253	853.552
290.730	16.007	1147.459	853.327
291.745	15.803	1147.040	851.905
292.760	16.027	1145.970	852.169
293.774	16.023	1145.629	851.816
294.789	16.051	1145.113	851.501
295.803	16.004	1144.375	850.638
296.818	16.030	1143.437	850.001
297.833	16.038	1142.771	849.470
298.847	16.032	1142.057	848.834
299.862	16.125	1141.069	848.491
300.876	16.103	1140.485	847.869
301.891	16.135	1140.087	847.661
302.906	16.101	1139.298	846.829
303.920	16.369	1138.217	847.294
304.935	16.282	1137.440	846.203
305.949	16.240	1137.127	845.689
306.964	16.168	1136.550	844.821
307.979	16.290	1135.637	844.678
308.993	16.305	1135.103	844.283
310.008	16.338	1134.170	843.680
311.022	16.345	1133.750	843.327
312.037	16.309	1132.248	841.955
313.052	16.394	1131.368	841.650
314.066	16.315	1130.660	840.654
315.081	16.336	1129.655	839.937
316.095	16.258	1129.482	839.348
317.110	16.322	1128.377	838.772
318.125	16.298	1127.893	838.217
319.139	16.306	1127.019	837.532
320.154	16.323	1126.360	837.052
321.168	16.315	1126.034	836.698
322.183	16.417	1124.993	836.356
323.197	16.251	1124.382	835.002
324.212	16.446	1123.721	835.406
325.227	16.417	1123.522	835.037
326.241	16.384	1123.098	834.489
327.256	16.445	1121.814	833.760
328.270	16.451	1120.924	833.057
329.285	16.355	1119.750	831.636
330.300	16.414	1119.295	831.514
331.314	16.405	1118.483	830.791
332.329	16.466	1117.195	830.062
333.343	16.505	1116.153	829.408
334.358	16.526	1115.655	829.064
335.373	16.640	1114.722	828.855
336.387	16.585	1114.013	827.986
337.402	16.590	1113.097	827.258
338.416	16.670	1112.404	827.063
339.431	16.642	1112.056	826.593
340.446	16.687	1111.218	826.116
341.460	16.731	1110.790	825.940
342.475	16.764	1109.493	825.063
343.489	16.634	1108.958	823.957
344.504	16.770	1108.057	823.880
345.519	16.812	1106.839	823.102
346.533	16.775	1106.304	822.452
347.548	16.784	1105.765	822.023
348.562	16.906	1104.480	821.584
349.577	16.895	1104.089	821.170
350.592	16.860	1103.108	820.196
351.606	16.748	1102.697	819.278
352.621	16.775	1101.826	818.687
353.635	16.775	1101.660	818.492
354.650	16.847	1100.727	818.076
355.665	16.844	1099.856	817.340
356.679	16.789	1099.298	816.590
357.694	16.889	1098.392	816.326
358.708	16.843	1098.349	815.998
359.723	16.943	1097.397	815.700
360.738	16.941	1096.662	815.072
361.752	17.015	1095.933	814.813
362.767	16.938	1095.603	814.126
363.781	16.949	1095.143	813.768
364.796	17.070	1094.345	813.681
365.810	17.091	1093.849	813.341
366.825	17.154	1092.854	812.831
367.840	17.203	1092.451	812.694
368.854	17.166	1091.800	811.959
369.869	17.191	1091.155	811.530
370.883	17.221	1090.410	811.046
371.898	17.086	1089.551	809.689
372.913	17.169	1089.159	809.724
373.927	17.095	1089.013	809.190
374.942	17.296	1087.918	809.264
375.956	17.203	1087.598	808.509
376.971	17.304	1086.983	808.461
377.986	17.360	1086.184	808.063
379.000	17.343	1085.993	807.768
380.015	17.562	1085.073	808.053
381.029	17.342	1084.485	806.499
382.044	17.300	1083.962	805.839
383.059	17.547	1082.806	806.080
384.073	17.422	1082.325	805.058
385.088	17.417	1080.850	803.868
386.102	17.493	1080.161	803.639
387.117	17.445	1079.399	802.777
388.132	17.497	1078.304	802.137
389.146	17.468	1077.397	801.253
390.161	17.457	1077.041	800.866
391.175	17.428	1076.197	800.032
392.190	17.497	1075.810	799.996
393.205	17.654	1074.729	799.857
394.219	17.524	1073.965	798.610
395.234	17.591	1073.369	798.408
396.248	17.564	1072.245	797.376
397.263	17.657	1071.215	796.974
398.278	17.539	1070.230	795.622
399.292	17.468	1070.058	795.092
400.307	17.469	1069.181	794.372
401.321	17.621	1068.488	794.497
402.336	17.543	1068.043	793.734
403.350	17.567	1066.995	792.995
404.365	17.585	1066.744	792.824
405.380	17.622	1065.932	792.321
406.394	17.783	1064.625	792.025
407.409	17.760	1064.148	791.497
408.423	17.721	1063.791	790.978
409.438	17.869	1062.685	790.772
410.453	17.865	1062.420	790.485
411.467	17.863	1061.442	789.678
412.482	17.840	1060.874	789.081
413.496	17.825	1060.442	788.622
414.511	17.910	1059.453	788.208
415.526	17.959	1059.118	788.113
416.540	18.078	1058.693	788.277
417.555	18.105	1058.141	787.922
418.569	17.959	1057.740	786.882
419.584	17.993	1057.126	786.509
420.599	18.017	1056.580	786.144
421.613	109.820	1331.511	1490.490
422.628	101.310	1371.498	1490.570
