DTS Sentinel unit serial number:	SN413079Multiplexer serial number:	ORYXHardware model number:	OX4-SRSoftware version number:	ORYX F/W v4.00 Oryx Data Collector v3.7.2.0data status	okinstallation	princeton_trtdifferential loss correction	single-endedforward channel	channel 2reverse channel	N/Adate	2019/09/10time	19:57:11forward acquisition time	60.00reverse acquisition time	0.00gamma	496.2192k internal	0.2328k external	0.2328temperature offset calibration	0.9945default loss term (dB/km)	0.3790temperature slope calibration	1.0000multiplexer offset coefficient	1.0000multiplexer slope coefficient	1.0000fibre end	0.00T internal ref (°C)	32.75T ext. ref 1 (°C)	-0.32T ext. ref 2 (°C)	25.70length (m)	temperature (°C)	Stokes	anti-Stokes-747.200	-14.554	0.303	0.197
-746.185	-83.947	-0.408	-0.131
-745.171	-95.701	-0.209	-0.056
-744.156	-200.000	0.060	0.266
-743.142	-179.780	0.165	0.004
-742.127	-27.750	-0.167	0.098
-741.112	-177.896	-0.056	0.001
-740.098	66.667	0.035	-0.036
-739.083	-67.543	-0.121	0.048
-738.069	54.321	-0.079	-0.077
-737.054	75.883	-0.112	0.120
-736.039	360.124	0.101	-0.204
-735.025	-84.598	0.309	-0.098
-734.010	35.313	-0.112	-0.099
-732.996	111.493	-0.213	-0.258
-731.981	-35.794	0.075	-0.041
-730.966	-120.484	-0.152	0.026
-729.952	-92.019	-0.274	-0.078
-728.937	-200.000	0.018	0.437
-727.923	-6.235	0.181	0.124
-726.908	-200.000	-0.048	0.346
-725.894	-7.341	-0.229	-0.156
-724.879	189.085	-0.208	-0.314
-723.864	161.753	0.039	-0.056
-722.850	1.224	-0.103	-0.074
-721.835	-41.323	-0.316	-0.164
-720.821	-49.615	-0.443	0.212
-719.806	323.439	-0.078	-0.150
-718.791	51.809	0.230	-0.221
-717.777	-184.537	0.292	0.005
-716.762	50.036	-0.150	0.142
-715.748	-200.000	0.010	-0.079
-714.733	659.023	-0.042	0.110
-713.718	-88.331	-0.146	0.044
-712.704	196.143	-0.120	-0.184
-711.689	800.000	0.106	-0.337
-710.675	123.135	0.096	0.121
-709.660	-55.355	0.085	-0.038
-708.645	800.000	0.081	-0.286
-707.631	180.687	0.104	0.154
-706.616	31.222	-0.446	-0.386
-705.602	-200.000	-0.000	-0.180
-704.587	-103.211	0.563	0.134
-703.572	11.514	0.191	-0.148
-702.558	172.970	0.074	-0.108
-701.543	800.000	0.064	0.275
-700.529	148.498	-0.090	0.123
-699.514	64.613	0.145	-0.147
-698.499	-42.290	0.136	0.070
-697.485	-41.710	-0.261	-0.135
-696.470	-106.072	-0.385	-0.087
-695.456	-200.000	-0.007	0.507
-694.441	79.146	0.103	0.111
-693.426	800.000	0.063	-0.247
-692.412	-124.518	-0.258	-0.040
-691.397	552.666	-0.040	0.096
-690.383	-38.888	-0.233	0.123
-689.368	-117.654	0.047	0.008
-688.354	-43.406	-0.374	-0.190
-687.339	-112.978	0.197	0.039
-686.324	30.137	0.279	-0.239
-685.310	-114.529	-0.302	-0.058
-684.295	-134.440	-0.301	-0.037
-683.281	59.898	-0.165	-0.164
-682.266	-173.542	-0.059	0.002
-681.251	168.075	-0.087	0.125
-680.237	-127.645	-0.417	-0.061
-679.222	792.223	0.072	0.198
-678.208	141.987	0.292	-0.389
-677.193	-170.480	0.186	0.007
-676.178	81.441	-0.172	0.187
-675.164	41.293	0.040	0.037
-674.149	-151.322	0.382	0.029
-673.135	800.000	-0.076	-0.221
-672.120	165.248	0.106	0.151
-671.105	464.293	-0.084	-0.188
-670.091	-126.287	-0.302	0.045
-669.076	800.000	0.018	-0.061
-668.062	118.766	-0.237	0.294
-667.047	-18.752	-0.291	-0.182
-666.032	-200.000	0.286	-0.001
-665.018	-61.063	-0.083	-0.035
-664.003	-150.166	-0.070	-0.005
-662.989	-200.000	-0.012	-0.258
-661.974	184.846	0.241	0.358
-660.959	800.000	0.002	-0.010
-659.945	232.820	-0.052	-0.087
-658.930	-200.000	0.012	0.203
-657.916	-200.000	0.006	-0.349
-656.901	5.775	-0.231	-0.172
-655.886	151.038	-0.295	0.403
-654.872	101.542	0.226	-0.264
-653.857	31.393	-0.173	0.149
-652.843	658.779	0.106	-0.274
-651.828	82.802	0.128	0.140
-650.814	-165.038	-0.193	0.009
-649.799	-108.261	0.095	0.021
-648.784	800.000	-0.090	-0.272
-647.770	95.026	-0.232	0.265
-646.755	105.217	0.223	0.264
-645.741	116.640	-0.090	-0.111
-644.726	-163.006	-0.348	-0.017
-643.711	-71.892	-0.167	-0.062
-642.697	129.000	0.101	-0.129
-641.682	29.794	-0.137	-0.117
-640.668	-16.441	-0.218	0.139
-639.653	-1.301	-0.166	0.117
-638.638	-150.463	0.246	-0.019
-637.624	-114.012	-0.444	-0.086
-636.609	-116.793	0.196	0.036
-635.595	143.527	-0.210	-0.280
-634.580	-200.000	0.002	0.230
-633.565	-99.347	0.250	0.063
-632.551	269.760	-0.019	0.033
-631.536	-200.000	-0.019	0.294
-630.522	-94.650	0.185	0.050
-629.507	-125.028	-0.290	0.045
-628.492	-116.447	0.188	0.035
-627.478	756.722	-0.058	0.157
-626.463	-6.778	0.262	0.179
-625.449	800.000	0.035	0.127
-624.434	28.841	-0.196	-0.167
-623.419	-92.864	-0.350	-0.098
-622.405	151.450	0.149	0.203
-621.390	-112.226	-0.091	0.018
-620.376	-29.710	0.192	0.110
-619.361	-200.000	0.011	0.234
-618.346	-144.232	-0.244	-0.023
-617.332	-79.374	-0.333	0.113
-616.317	-11.758	-0.193	-0.127
-615.303	142.800	0.123	-0.164
-614.288	-200.000	-0.018	-0.089
-613.273	189.287	-0.121	-0.181
-612.259	99.711	0.173	0.200
-611.244	73.042	-0.129	0.135
-610.230	18.225	0.293	0.234
-609.215	753.471	-0.069	-0.187
-608.201	-96.400	0.416	0.110
-607.186	726.667	-0.037	0.099
-606.171	800.000	0.009	-0.031
-605.157	-76.326	0.124	0.044
-604.142	-111.904	0.364	-0.074
-603.128	-200.000	0.044	-0.386
-602.113	100.873	-0.271	0.316
-601.098	-40.577	0.174	-0.090
-600.084	464.428	0.059	-0.131
-599.069	309.195	-0.137	-0.256
-598.055	-145.905	-0.158	-0.014
-597.040	-141.839	0.084	-0.008
-596.025	-200.000	-0.024	0.222
-595.011	-200.000	0.005	0.145
-593.996	-200.000	0.043	-0.348
-592.982	-200.000	0.041	0.187
-591.967	-74.409	0.293	0.106
-590.952	-51.075	0.133	0.062
-589.938	230.002	-0.112	-0.183
-588.923	800.000	-0.126	-0.419
-587.909	34.049	-0.183	0.159
-586.894	197.205	0.067	-0.102
-585.879	-200.000	-0.062	-0.423
-584.865	-32.851	-0.152	0.084
-583.850	-200.000	-0.010	-0.351
-582.836	-179.989	0.133	0.003
-581.821	-1.491	0.230	-0.163
-580.806	800.000	-0.079	0.232
-579.792	398.979	0.115	0.242
-578.777	-85.641	0.097	0.030
-577.763	-150.188	0.151	-0.012
-576.748	-95.831	-0.127	-0.034
-575.733	-47.791	-0.438	-0.212
-574.719	41.661	-0.106	-0.097
-573.704	-55.492	-0.201	0.090
-572.690	137.437	0.161	-0.211
-571.675	-200.000	0.005	0.160
-570.661	-200.000	0.061	0.344
-569.646	-200.000	0.037	0.175
-568.631	-7.155	-0.303	0.206
-567.617	-12.570	0.097	0.063
-566.602	-200.000	0.014	-0.138
-565.588	18.954	0.174	0.139
-564.573	-14.602	0.097	-0.062
-563.558	103.362	0.077	0.090
-562.544	-24.067	0.204	0.122
-561.529	-200.000	-0.001	0.145
-560.515	-151.992	0.146	-0.011
-559.500	-24.922	0.036	0.022
-558.485	146.619	-0.086	-0.115
-557.471	800.000	-0.069	0.227
-556.456	-39.822	0.225	-0.118
-555.442	800.000	-0.050	-0.205
-554.427	107.750	0.105	0.126
-553.412	262.369	-0.199	0.345
-552.398	63.298	-0.117	-0.117
-551.383	57.212	-0.250	0.244
-550.369	-200.000	-0.032	0.279
-549.354	694.237	-0.052	0.137
-548.339	-200.000	0.048	0.653
-547.325	124.662	0.068	-0.086
-546.310	800.000	0.101	-0.291
-545.296	-200.000	0.273	-0.001
-544.281	5.284	0.246	-0.181
-543.266	-30.639	-0.026	0.015
-542.252	162.301	-0.094	-0.132
-541.237	800.000	0.029	0.087
-540.223	-200.000	-0.028	0.153
-539.208	2.760	-0.134	-0.097
-538.193	22.321	-0.096	-0.079
-537.179	-155.217	-0.596	-0.039
-536.164	97.628	-0.062	-0.071
-535.150	-92.435	0.140	-0.039
-534.135	-102.531	0.079	-0.019
-533.121	63.677	0.163	-0.164
-532.106	504.513	-0.047	0.109
-531.091	-165.812	-0.283	0.012
-530.077	-200.000	-0.005	0.142
-529.062	159.332	0.175	-0.243
-528.048	-22.038	-0.070	0.043
-527.033	-53.165	-0.178	-0.082
-526.018	20.375	0.067	-0.054
-525.004	-26.348	-0.183	-0.107
-523.989	307.395	0.082	0.153
-522.975	-2.802	-0.152	0.106
-521.960	642.080	-0.118	-0.301
-520.945	0.094	0.342	-0.244
-519.931	-200.000	0.045	-0.408
-518.916	-46.917	-0.174	0.085
-517.902	-200.000	0.021	0.165
-516.887	-28.729	0.196	-0.112
-515.872	64.967	-0.297	-0.299
-514.858	425.065	0.078	-0.168
-513.843	-50.156	0.262	-0.124
-512.829	-80.635	0.290	0.096
-511.814	94.143	0.163	-0.185
-510.799	800.000	0.052	0.187
-509.785	-43.116	-0.074	-0.038
-508.770	-200.000	-0.011	-0.141
-507.756	-200.000	0.028	-0.260
-506.741	-55.048	-0.210	0.094
-505.726	-200.000	0.015	-0.184
-504.712	-200.000	-0.042	-0.311
-503.697	60.379	0.299	-0.295
-502.683	375.212	0.099	0.202
-501.668	-66.980	-0.199	0.078
-500.653	-77.788	-0.193	0.067
-499.639	69.744	-0.161	-0.165
-498.624	354.702	-0.167	-0.331
-497.610	400.860	-0.042	0.088
-496.595	-85.103	0.206	-0.064
-495.581	800.000	-0.027	0.074
-494.566	-143.910	-0.252	-0.024
-493.551	72.204	0.094	0.098
-492.537	-200.000	0.004	-0.150
-491.522	-120.034	-0.104	-0.018
-490.508	-163.079	-0.265	-0.013
-489.493	6.517	-0.167	-0.124
-488.478	800.000	0.079	-0.322
-487.464	-200.000	-0.024	-0.200
-486.449	289.721	0.072	0.130
-485.435	-116.694	-0.075	-0.014
-484.420	800.000	-0.030	0.104
-483.405	800.000	-0.030	0.125
-482.391	-79.270	0.013	0.004
-481.376	-134.716	0.115	-0.014
-480.362	86.947	-0.064	0.071
-479.347	-82.922	-0.189	-0.061
-478.332	311.742	0.043	0.081
-477.318	-63.228	0.281	0.116
-476.303	-42.459	-0.133	0.068
-475.289	-78.574	0.221	-0.075
-474.274	-200.000	0.008	-0.043
-473.259	800.000	0.029	-0.094
-472.245	-97.421	0.121	-0.031
-471.230	-110.404	0.185	-0.038
-470.216	284.353	0.031	0.055
-469.201	43.736	0.233	-0.212
-468.186	-89.693	-0.031	-0.009
-467.172	800.000	-0.084	0.263
-466.157	800.000	-0.051	-0.171
-465.143	-29.771	-0.278	0.158
-464.128	14.526	0.108	-0.084
-463.113	-41.672	0.072	-0.037
-462.099	-54.770	0.098	0.044
-461.084	204.382	-0.144	0.223
-460.070	99.837	0.119	-0.137
-459.055	-200.000	0.002	-0.220
-458.040	-41.387	-0.197	-0.101
-457.026	-200.000	0.019	-0.143
-456.011	34.113	-0.054	0.047
-454.997	-137.431	-0.292	0.033
-453.982	-32.685	-0.277	-0.153
-452.968	-75.184	-0.218	0.077
-451.953	-84.701	-0.125	0.039
-450.938	800.000	-0.027	-0.080
-449.924	49.522	-0.319	0.299
-448.909	-200.000	0.082	0.488
-447.895	-39.614	0.150	0.078
-446.880	-200.000	0.016	-0.078
-445.865	-59.213	0.186	0.080
-444.851	-70.796	0.294	-0.111
-443.836	-200.000	-0.010	0.164
-442.822	143.925	-0.158	0.209
-441.807	-200.000	-0.010	0.102
-440.792	-15.486	0.054	-0.035
-439.778	-184.059	-0.054	0.001
-438.763	-200.000	-0.157	-0.000
-437.749	800.000	0.073	0.207
-436.734	14.133	0.247	0.192
-435.719	164.276	-0.199	-0.279
-434.705	-53.036	-0.046	-0.021
-433.690	191.139	0.105	0.157
-432.676	273.145	-0.056	-0.099
-431.661	42.264	0.171	-0.155
-430.646	-113.492	-0.299	-0.058
-429.632	360.863	0.050	-0.099
-428.617	159.174	-0.166	-0.229
-427.603	494.676	-0.082	0.187
-426.588	-57.551	-0.108	0.047
-425.573	51.239	-0.225	-0.212
-424.559	43.513	0.038	0.035
-423.544	800.000	-0.095	-0.391
-422.530	53.468	0.218	0.208
-421.515	800.000	-0.135	-0.442
-420.500	148.727	-0.079	0.107
-419.486	-29.785	-0.124	-0.070
-418.471	166.211	0.089	0.126
-417.457	800.000	0.073	-0.286
-416.442	395.743	0.087	-0.180
-415.428	-130.247	0.301	0.041
-414.413	-200.000	-0.029	-0.137
-413.398	800.000	-0.104	0.366
-412.384	-200.000	0.085	0.390
-411.369	141.448	0.020	0.027
-410.355	541.625	0.066	0.155
-409.340	-200.000	-0.013	0.095
-408.325	-44.991	0.363	0.180
-407.311	14.752	-0.035	-0.027
-406.296	763.549	-0.083	-0.223
-405.282	7.924	0.221	0.165
-404.267	256.717	-0.032	0.054
-403.252	-200.000	-0.069	-0.311
-402.238	-122.238	0.309	-0.050
-401.223	800.000	0.021	-0.073
-400.209	426.871	-0.162	-0.347
-399.194	238.646	-0.218	0.360
-398.179	74.830	-0.138	0.144
-397.165	-2.570	0.050	-0.035
-396.150	-10.966	-0.156	-0.102
-395.136	800.000	0.053	-0.162
-394.121	-200.000	0.008	0.134
-393.106	-70.595	0.243	-0.091
-392.092	124.957	0.273	0.342
-391.077	-200.000	0.007	0.074
-390.063	681.545	-0.027	-0.071
-389.048	-131.798	-0.147	0.019
-388.033	-144.475	0.053	-0.005
-387.019	-200.000	-0.005	-0.172
-386.004	415.606	-0.058	0.124
-384.990	304.436	-0.159	-0.293
-383.975	-132.185	-0.160	0.021
-382.960	-41.735	-0.088	-0.045
-381.946	106.666	0.086	-0.101
-380.931	-107.367	0.244	-0.053
-379.917	-133.577	-0.085	0.011
-378.902	800.000	-0.089	0.274
-377.888	-44.451	-0.115	0.057
-376.873	-98.291	0.059	-0.015
-375.858	50.051	-0.097	-0.091
-374.844	-200.000	-0.025	-0.157
-373.829	-200.000	0.032	-0.220
-372.815	19.684	-0.098	-0.079
-371.800	44.757	-0.194	-0.177
-370.785	27.555	-0.074	0.062
-369.771	-5.019	-0.366	0.250
-368.756	-120.662	0.305	0.051
-367.742	366.888	-0.101	0.203
-366.727	-200.000	0.030	0.163
-365.712	-67.982	0.068	-0.026
-364.698	-161.057	-0.057	0.003
-363.683	47.584	-0.121	0.112
-362.669	-200.000	0.023	0.469
-361.654	7.448	0.178	0.132
-360.639	66.005	-0.087	0.087
-359.625	483.572	0.053	-0.119
-358.610	-29.330	-0.294	-0.167
-357.596	-128.258	-0.200	0.028
-356.581	-16.327	0.204	-0.129
-355.566	-200.000	0.012	0.135
-354.552	-141.562	-0.074	0.007
-353.537	800.000	0.080	-0.263
-352.523	800.000	-0.080	-0.320
-351.508	125.412	-0.071	-0.089
-350.493	50.355	0.169	-0.159
-349.479	-127.897	0.083	0.012
-348.464	-169.017	0.164	-0.006
-347.450	528.132	0.095	-0.222
-346.435	351.839	-0.098	-0.192
-345.420	27.705	-0.030	-0.025
-344.406	273.024	-0.131	-0.230
-343.391	39.056	0.121	-0.107
-342.377	-72.918	-0.278	-0.101
-341.362	-200.000	0.040	0.192
-340.348	464.905	-0.206	0.456
-339.333	-186.229	0.063	0.001
-338.318	-200.000	-0.032	-0.400
-337.304	170.689	0.203	-0.288
-336.289	-46.037	0.100	-0.049
-335.275	-200.000	0.029	-0.169
-334.260	-187.579	-0.046	0.001
-333.245	-92.561	0.110	-0.031
-332.231	-2.852	0.180	0.124
-331.216	-200.000	-0.013	-0.098
-330.202	459.506	0.047	-0.103
-329.187	-42.134	0.222	0.112
-328.172	-148.548	-0.231	0.019
-327.158	-38.216	0.410	0.216
-326.143	78.656	-0.126	-0.134
-325.129	800.000	-0.054	0.177
-324.114	-200.000	0.055	0.241
-323.099	-200.000	-0.022	-0.263
-322.085	-200.000	-0.013	0.075
-321.070	116.909	0.156	-0.190
-320.056	6.886	-0.093	0.069
-319.041	-25.214	-0.300	-0.176
-318.026	110.973	0.058	0.070
-317.012	-72.805	-0.174	-0.064
-315.997	-129.073	-0.093	-0.013
-314.983	-31.730	0.143	0.080
-313.968	76.753	-0.064	0.067
-312.953	399.791	0.014	-0.030
-311.939	-15.458	-0.168	-0.107
-310.924	-115.656	0.039	0.007
-309.910	-40.386	0.174	-0.089
-308.895	-30.608	-0.287	0.161
-307.880	254.067	0.091	0.154
-306.866	-106.010	0.156	-0.035
-305.851	-88.228	-0.187	0.055
-304.837	-126.592	-0.274	-0.040
-303.822	800.000	0.086	-0.282
-302.807	43.289	-0.178	0.161
-301.793	-53.767	0.194	0.088
-300.778	-50.673	0.113	-0.053
-299.764	61.890	-0.055	0.054
-298.749	722.730	-0.157	-0.413
-297.735	-85.263	-0.401	-0.124
-296.720	131.694	-0.276	0.352
-295.705	468.073	-0.100	0.222
-294.691	265.138	-0.134	-0.231
-293.676	35.781	0.134	0.116
-292.662	-17.697	0.110	-0.068
-291.647	800.000	0.015	0.055
-290.632	166.332	-0.135	-0.189
-289.618	-179.228	-0.236	0.005
-288.603	214.054	0.138	0.217
-287.589	-26.102	-0.191	-0.111
-286.574	800.000	0.085	-0.325
-285.559	90.561	0.277	0.307
-284.545	280.660	0.085	0.150
-283.530	7.388	-0.297	-0.220
-282.516	-200.000	-0.018	-0.110
-281.501	-28.994	-0.481	-0.273
-280.486	-114.135	0.184	0.035
-279.472	-105.751	-0.118	0.026
-278.457	800.000	-0.098	0.273
-277.443	54.132	-0.246	-0.234
-276.428	62.398	-0.332	-0.328
-275.413	217.662	0.071	0.112
-274.399	-200.000	-0.020	0.212
-273.384	0.305	0.218	0.154
-272.370	0.587	0.194	0.137
-271.355	154.318	0.098	0.133
-270.340	-17.806	0.240	0.149
-269.326	-92.747	-0.210	0.058
-268.311	-151.195	0.160	-0.012
-267.297	-108.019	-0.137	-0.029
-266.282	-35.369	0.395	-0.212
-265.267	-120.998	0.388	0.065
-264.253	-200.000	0.007	-0.035
-263.238	-141.860	0.439	-0.043
-262.224	-40.633	-0.203	-0.104
-261.209	800.000	0.047	0.195
-260.195	-75.595	-0.214	0.075
-259.180	-71.027	0.405	0.151
-258.165	10.157	0.157	-0.118
-257.151	-200.000	0.005	0.116
-256.136	800.000	0.141	0.545
-255.122	24.077	-0.253	-0.206
-254.107	-33.205	0.253	-0.139
-253.092	19.640	0.059	-0.047
-252.078	-120.247	-0.248	-0.042
-251.063	800.000	-0.030	0.097
-250.049	33.390	-0.126	-0.108
-249.034	-200.000	0.021	-0.283
-248.019	-105.955	0.066	0.015
-247.005	-175.845	0.224	-0.006
-245.990	800.000	-0.031	-0.098
-244.976	-116.909	0.432	0.078
-243.961	-181.527	0.161	-0.003
-242.946	387.123	0.022	0.044
-241.932	-97.340	-0.254	0.065
-240.917	-200.000	0.019	-0.103
-239.903	2.507	0.309	-0.221
-238.888	-93.124	0.125	0.034
-237.873	241.620	0.177	0.292
-236.859	-200.000	0.007	-0.114
-235.844	-189.910	0.145	-0.002
-234.830	-110.137	0.131	0.027
-233.815	300.262	0.082	-0.149
-232.800	-94.337	0.230	-0.062
-231.786	-21.891	-0.060	-0.036
-230.771	20.335	-0.184	-0.147
-229.757	-69.587	0.313	0.118
-228.742	-177.391	0.092	0.002
-227.727	618.645	-0.110	-0.273
-226.713	-90.441	-0.203	-0.058
-225.698	-81.552	-0.212	0.069
-224.684	-200.000	0.052	-0.310
-223.669	6.902	-0.122	-0.090
-222.655	-200.000	-0.044	0.474
-221.640	-8.069	0.199	0.132
-220.625	374.896	0.157	0.316
-219.611	-200.000	0.002	-0.350
-218.596	-48.490	-0.136	0.065
-217.582	-200.000	-0.010	-0.185
-216.567	385.332	0.050	-0.101
-215.552	-46.719	0.089	0.043
-214.538	-47.011	0.270	0.130
-213.523	-108.459	0.318	-0.068
-212.509	778.058	-0.159	-0.428
-211.494	-34.377	-0.370	0.200
-210.479	-200.000	0.022	-0.167
-209.465	268.207	-0.044	0.076
-208.450	46.595	0.388	0.355
-207.436	-22.188	0.046	-0.027
-206.421	-200.000	-0.018	0.317
-205.406	800.000	-0.060	0.213
-204.392	-200.000	-0.058	0.294
-203.377	-200.000	0.034	0.245
-202.363	-29.506	-0.279	0.157
-201.348	-200.000	0.023	0.146
-200.333	-23.368	0.336	-0.199
-199.319	-200.000	-0.002	0.191
-198.304	-19.429	-0.305	-0.186
-197.290	-200.000	-0.009	-0.210
-196.275	-20.234	-0.057	0.034
-195.260	-84.941	0.069	-0.021
-194.246	-91.135	0.213	-0.060
-193.231	72.082	0.133	-0.136
-192.217	638.976	0.132	-0.330
-191.202	-120.344	0.085	0.014
-190.187	107.228	0.121	-0.141
-189.173	463.353	0.075	0.166
-188.158	1.929	-0.239	0.170
-187.144	499.613	0.236	0.537
-186.129	-200.000	0.019	-0.137
-185.114	800.000	-0.117	-0.344
-184.100	-34.333	-0.191	-0.103
-183.085	-83.634	0.422	0.133
-182.071	253.133	0.162	0.272
-181.056	-200.000	0.002	0.022
-180.042	13.366	-0.104	-0.079
-179.027	-200.000	0.035	0.201
-178.012	315.779	-0.104	-0.192
-176.998	229.650	0.140	0.225
-175.983	-200.000	-0.027	0.189
-174.969	305.742	-0.143	0.262
-173.954	-122.471	0.431	-0.069
-172.939	-109.490	-0.050	0.010
-171.925	24.437	0.179	0.146
-170.910	323.233	0.070	-0.132
-169.896	-200.000	0.011	0.062
-168.881	-200.000	0.033	-0.202
-167.866	64.323	-0.190	-0.188
-166.852	29.598	-0.183	-0.153
-165.837	122.351	-0.163	0.200
-164.823	-200.000	0.031	0.319
-163.808	-59.710	-0.345	-0.145
-162.793	-200.000	0.006	-0.207
-161.779	800.000	0.049	-0.183
-160.764	78.831	0.256	0.270
-159.750	162.166	0.334	0.461
-158.735	-130.593	-0.192	0.026
-157.720	32.619	0.167	0.142
-156.706	193.212	0.156	0.233
-155.691	11.032	0.212	0.160
-154.677	-200.000	-0.175	0.000
-153.662	11.364	0.020	0.015
-152.647	480.601	0.073	0.163
-151.633	-8.995	-0.292	0.192
-150.618	-149.847	0.392	-0.030
-149.604	443.720	-0.096	-0.207
-148.589	800.000	0.072	0.206
-147.574	251.120	-0.055	0.093
-146.560	-45.199	0.322	-0.158
-145.545	-62.948	-0.071	-0.029
-144.531	-23.691	0.190	0.112
-143.516	-147.017	-0.345	0.029
-142.502	123.225	-0.047	-0.058
-141.487	-46.324	0.100	0.048
-140.472	-99.434	-0.294	0.073
-139.458	-96.990	0.217	-0.056
-138.443	417.015	0.040	-0.085
-137.429	9.406	-0.232	0.173
-136.414	5.926	-0.165	-0.120
-135.399	-15.583	0.391	-0.245
-134.385	-152.562	-0.042	0.003
-133.370	313.254	-0.074	0.137
-132.356	-92.356	0.125	-0.035
-131.341	60.900	0.221	0.216
-130.326	800.000	-0.041	-0.116
-129.312	303.499	0.060	-0.110
-128.297	-183.522	-0.211	0.004
-127.283	280.295	-0.164	0.288
-126.268	-51.250	-0.263	-0.121
-125.253	223.505	0.122	0.194
-124.239	-200.000	-0.054	0.372
-123.224	-13.303	0.168	-0.107
-122.210	-177.285	-0.340	-0.008
-121.195	315.808	-0.081	-0.151
-120.180	-200.000	0.077	0.356
-119.166	-26.425	0.233	0.134
-118.151	800.000	-0.031	-0.121
-117.137	490.132	-0.131	-0.293
-116.122	-200.000	-0.058	-0.328
-115.107	49.944	0.218	0.202
-114.093	140.589	0.093	-0.121
-113.078	-200.000	0.038	-0.232
-112.064	-112.618	-0.345	0.068
-111.049	-200.000	0.023	0.162
-110.034	416.645	0.074	0.155
-109.020	-200.000	-0.001	0.147
-108.005	-8.337	-0.234	-0.155
-106.991	800.000	-0.063	0.246
-105.976	16.576	-0.103	-0.080
-104.962	3.255	-0.060	-0.043
-103.947	85.800	0.237	0.256
-102.932	-121.031	0.121	-0.020
-101.918	-200.000	-0.004	0.312
-100.903	-200.000	-0.013	0.225
-99.889	-200.000	0.053	-0.262
-98.874	-200.000	-0.044	-0.218
-97.859	-50.975	0.409	-0.189
-96.845	-49.354	-0.162	-0.076
-95.830	67.612	0.167	0.167
-94.816	156.847	0.102	-0.138
-93.801	279.250	-0.089	-0.156
-92.786	178.919	-0.203	-0.292
-91.772	-95.158	-0.188	0.050
-90.757	-200.000	0.021	0.262
-89.743	-5.926	0.030	-0.020
-88.728	113.843	-0.094	0.112
-87.713	-200.000	0.014	-0.159
-86.699	-200.000	-0.008	0.055
-85.684	68.669	-0.041	-0.041
-84.670	-49.918	0.279	0.130
-83.655	101.422	0.209	0.239
-82.640	644.727	-0.011	-0.028
-81.626	336.910	0.095	0.181
-80.611	110.948	-0.182	0.215
-79.597	592.565	0.136	0.331
-78.582	-88.910	-0.142	-0.041
-77.567	254.123	-0.066	-0.111
-76.553	-168.925	0.145	0.005
-75.538	11.386	0.301	0.226
-74.524	-31.680	0.191	-0.105
-73.509	-200.000	0.015	0.302
-72.494	496.101	-0.067	0.152
-71.480	-200.000	0.019	0.371
-70.465	-200.000	-0.007	0.110
-69.451	-15.234	-0.227	0.143
-68.436	61.822	0.270	-0.264
-67.422	320.676	0.062	0.115
-66.407	-200.000	-0.006	-0.044
-65.392	-200.000	-0.004	-0.058
-64.378	701.864	-0.069	-0.179
-63.363	-158.125	0.175	-0.010
-62.349	0.524	-0.373	0.261
-61.334	-51.951	-1.215	-0.554
-60.319	-49.559	0.790	0.369
-59.305	684.219	-0.371	-0.949
-58.290	230.377	0.591	0.949
-57.276	419.045	0.711	1.492
-56.261	-200.000	100.135	608.603
-55.246	605.520	1421.217	3472.414
-54.232	187.149	2626.633	3840.884
-53.217	111.453	2288.274	2706.304
-52.203	42.189	1904.897	1696.861
-51.188	36.061	1694.271	1462.838
-50.173	33.339	1650.101	1404.481
-49.159	50.497	1699.462	1576.072
-48.144	52.324	1714.961	1604.135
-47.130	35.530	1673.456	1440.654
-46.115	32.854	1659.180	1408.371
-45.100	32.692	1653.869	1402.598
-44.086	32.612	1651.632	1400.050
-43.071	32.666	1648.770	1397.972
-42.057	32.630	1646.547	1395.761
-41.042	32.637	1644.534	1394.055
-40.027	32.521	1643.150	1391.965
-39.013	32.661	1640.297	1390.527
-37.998	32.619	1638.841	1388.932
-36.984	32.684	1637.752	1388.431
-35.969	32.803	1636.356	1388.071
-34.954	32.811	1634.470	1386.473
-33.940	32.669	1633.117	1384.223
-32.925	32.810	1630.587	1383.057
-31.911	32.719	1629.162	1381.129
-30.896	32.712	1627.602	1379.700
-29.881	32.656	1625.973	1377.855
-28.867	32.722	1623.954	1376.570
-27.852	32.669	1622.405	1374.821
-26.838	32.742	1621.255	1374.321
-25.823	32.775	1620.051	1373.487
-24.809	32.781	1618.293	1371.983
-23.794	32.743	1616.788	1370.380
-22.779	32.777	1615.562	1369.531
-21.765	32.735	1614.258	1368.072
-20.750	32.664	1612.392	1365.915
-19.736	32.788	1610.676	1365.310
-18.721	32.876	1609.026	1364.491
-17.706	32.766	1607.703	1362.519
-16.692	32.752	1606.647	1361.469
-15.677	32.786	1604.832	1360.124
-14.663	32.787	1603.796	1359.197
-13.648	32.744	1602.059	1357.366
-12.633	32.842	1600.429	1356.630
-11.619	32.796	1599.340	1355.328
-10.604	32.775	1597.776	1353.794
-9.590	32.899	1595.938	1353.076
-8.575	32.786	1595.295	1351.664
-7.560	32.765	1594.062	1350.419
-6.546	32.814	1592.826	1349.664
-5.531	32.828	1591.771	1348.821
-4.517	32.747	1590.791	1347.357
-3.502	32.882	1589.612	1347.267
-2.487	32.829	1588.273	1345.701
-1.473	32.435	1575.662	1332.178
-0.458	29.310	1555.403	1293.116
0.556	23.204	1555.220	1258.799
1.571	20.709	1578.696	1259.653
2.586	20.328	1592.403	1267.698
3.600	18.451	1540.979	1213.369
4.615	9.959	1430.503	1070.233
5.629	1.485	1364.135	966.770
6.644	-0.215	1355.619	949.894
7.659	-0.322	1353.762	947.837
8.673	-0.377	1352.791	946.724
9.688	-0.366	1350.834	945.339
10.702	-0.620	1347.927	941.624
11.717	2.855	1354.960	968.400
12.731	12.225	1372.430	1040.442
13.746	18.618	1383.353	1089.352
14.761	19.333	1383.363	1093.801
15.775	19.513	1382.531	1094.190
16.790	19.558	1381.722	1093.733
17.804	19.670	1381.380	1094.080
18.819	19.730	1381.337	1094.324
19.834	19.856	1380.465	1094.336
20.848	19.828	1379.917	1093.629
21.863	19.904	1379.202	1093.447
22.877	19.847	1377.895	1091.951
23.892	19.816	1377.178	1091.092
24.907	19.838	1376.554	1090.636
25.921	19.852	1375.553	1089.840
26.936	19.897	1374.172	1088.933
27.950	19.866	1373.397	1088.026
28.965	19.859	1371.797	1086.616
29.980	19.832	1370.855	1085.607
30.994	19.719	1370.307	1084.364
32.009	19.794	1368.459	1083.276
33.023	19.878	1367.381	1082.855
34.038	19.984	1365.742	1082.124
35.053	19.831	1365.206	1080.649
36.067	19.827	1364.266	1079.783
37.082	19.799	1363.126	1078.608
38.096	19.969	1362.213	1078.852
39.111	19.884	1361.204	1077.429
40.126	19.876	1360.819	1076.974
41.140	19.798	1360.275	1075.966
42.155	19.882	1359.922	1076.112
43.169	19.854	1360.011	1075.917
44.184	19.972	1358.969	1075.732
45.199	19.821	1358.744	1074.514
46.213	19.895	1357.690	1074.050
47.228	19.888	1357.128	1073.468
48.242	19.907	1356.048	1072.634
49.257	19.903	1354.513	1071.302
50.271	19.807	1353.767	1070.018
51.286	19.827	1352.168	1068.784
52.301	19.879	1351.044	1068.126
53.315	19.763	1350.300	1066.724
54.330	19.880	1349.433	1066.667
55.344	19.851	1348.136	1065.368
56.359	19.790	1347.183	1064.150
57.374	19.802	1346.208	1063.359
58.388	19.844	1345.493	1062.954
59.403	19.834	1345.350	1062.684
60.417	19.825	1344.384	1061.775
61.432	19.881	1343.418	1061.260
62.447	19.826	1343.068	1060.553
63.461	19.831	1341.698	1059.406
64.476	19.837	1340.733	1058.591
65.490	19.884	1339.254	1057.615
66.505	19.948	1337.453	1056.494
67.520	19.839	1336.837	1055.247
68.534	19.836	1335.411	1054.011
69.549	19.939	1334.509	1053.828
70.563	19.859	1333.684	1052.600
71.578	19.898	1332.631	1051.913
72.593	19.962	1331.574	1051.376
73.607	19.936	1331.007	1050.674
74.622	19.984	1330.028	1050.100
75.636	20.030	1328.900	1049.392
76.651	19.829	1328.869	1048.061
77.666	19.812	1328.368	1047.470
78.680	19.906	1327.513	1047.274
79.695	19.820	1327.108	1046.338
80.709	19.963	1325.382	1045.748
81.724	19.825	1325.073	1044.577
82.739	19.853	1323.940	1043.760
83.753	19.881	1322.889	1043.012
84.768	19.847	1321.705	1041.780
85.782	19.948	1320.409	1041.277
86.797	19.965	1319.208	1040.339
87.812	19.886	1318.256	1039.021
88.826	19.937	1317.134	1038.347
89.841	19.987	1315.942	1037.619
90.855	19.908	1315.248	1036.508
91.870	19.955	1314.464	1036.079
92.884	19.962	1313.419	1035.206
93.899	19.958	1312.757	1034.565
94.914	19.980	1311.892	1033.922
95.928	19.913	1311.167	1032.864
96.943	20.046	1310.105	1032.725
97.957	19.908	1309.620	1031.433
98.972	20.054	1308.929	1031.663
99.987	19.946	1307.663	1029.936
101.001	19.955	1306.683	1029.124
102.016	19.974	1305.576	1028.271
103.030	19.984	1304.878	1027.693
104.045	19.932	1303.995	1026.598
105.060	19.970	1302.757	1025.756
106.074	19.931	1301.635	1024.555
107.089	19.983	1300.519	1023.890
108.103	19.969	1299.270	1022.736
109.118	20.066	1298.009	1022.223
110.133	19.950	1297.364	1020.939
111.147	20.099	1295.628	1020.363
112.162	20.142	1294.575	1019.694
113.176	20.030	1293.779	1018.319
114.191	20.050	1292.627	1017.442
115.206	20.021	1291.733	1016.476
116.220	20.089	1290.062	1015.467
117.235	20.002	1289.414	1014.359
118.249	19.912	1288.394	1012.941
119.264	20.008	1287.606	1012.792
120.279	20.039	1286.544	1012.049
121.293	20.126	1285.667	1011.780
122.308	20.005	1284.852	1010.344
123.322	20.028	1283.967	1009.692
124.337	19.996	1282.676	1008.397
125.352	20.154	1281.482	1008.288
126.366	20.067	1280.958	1007.281
127.381	20.088	1279.957	1006.527
128.395	20.033	1278.922	1005.309
129.410	20.136	1278.079	1005.150
130.424	19.957	1277.381	1003.475
131.439	20.097	1276.209	1003.276
132.454	20.047	1275.024	1001.968
133.468	19.920	1275.059	1001.173
134.483	20.141	1273.909	1001.460
135.497	20.191	1272.893	1000.860
136.512	20.056	1272.061	999.336
137.527	20.113	1270.832	998.615
138.541	20.032	1269.247	996.812
139.556	20.028	1268.049	995.762
140.570	20.067	1266.981	995.058
141.585	20.106	1265.485	994.017
142.600	20.016	1264.725	992.818
143.614	20.064	1263.413	991.974
144.629	20.111	1262.292	991.278
145.643	19.938	1261.381	989.484
146.658	20.020	1260.651	989.292
147.673	20.095	1259.361	988.623
148.687	19.977	1258.660	987.313
149.702	20.024	1257.147	986.305
150.716	19.993	1256.171	985.276
151.731	19.956	1255.329	984.319
152.746	19.999	1253.837	983.304
153.760	20.122	1252.619	982.961
154.775	20.032	1251.912	981.810
155.789	20.134	1250.350	981.072
156.804	20.090	1249.988	980.451
157.819	19.991	1248.884	978.942
158.833	20.220	1247.792	979.293
159.848	20.196	1246.930	978.395
160.862	20.092	1246.601	977.462
161.877	20.135	1245.464	976.723
162.892	20.161	1244.516	976.041
163.906	20.192	1243.829	975.593
164.921	20.159	1243.162	974.796
165.935	20.138	1242.120	973.776
166.950	20.149	1241.794	973.495
167.964	20.078	1241.138	972.495
168.979	20.216	1240.666	972.815
169.994	20.300	1239.528	972.306
171.008	20.177	1239.041	971.148
172.023	20.267	1238.133	970.857
173.037	20.279	1237.258	970.150
174.052	20.242	1236.703	969.422
175.067	20.149	1235.918	968.203
176.081	20.382	1234.626	968.405
177.096	20.128	1234.636	966.907
178.110	20.079	1233.546	965.695
179.125	20.256	1232.365	965.672
180.140	20.293	1231.175	964.861
181.154	20.206	1229.819	963.231
182.169	20.181	1229.027	962.387
183.183	20.248	1228.282	962.086
184.198	20.262	1226.976	961.056
185.213	20.262	1226.233	960.392
186.227	20.251	1225.383	959.577
187.242	20.321	1224.227	958.976
188.256	20.223	1224.073	958.226
189.271	20.266	1222.883	957.448
190.286	20.256	1221.881	956.526
191.300	20.296	1221.500	956.364
192.315	20.312	1220.747	955.775
193.329	20.268	1220.534	955.282
194.344	20.285	1220.012	954.885
195.359	20.295	1219.836	954.719
196.373	20.162	1219.335	953.511
197.388	20.201	1218.818	953.236
198.402	20.181	1218.083	952.467
199.417	20.292	1217.775	952.749
200.432	20.358	1217.148	952.535
201.446	20.234	1216.164	951.002
202.461	20.294	1215.450	950.689
203.475	20.308	1214.370	949.839
204.490	20.254	1213.703	948.936
205.504	20.207	1212.865	947.941
206.519	20.399	1211.842	948.102
207.534	20.413	1210.473	947.029
208.548	20.353	1209.937	946.199
209.563	20.406	1209.054	945.712
210.577	20.262	1208.433	944.355
211.592	20.248	1207.864	943.755
212.607	20.376	1207.075	943.750
213.621	20.381	1206.224	943.026
214.636	20.449	1205.175	942.492
215.650	20.369	1204.536	941.478
216.665	20.298	1203.618	940.291
217.680	20.449	1202.420	940.087
218.694	20.487	1201.377	939.393
219.709	20.416	1201.586	939.091
220.723	20.492	1200.277	938.395
221.738	20.340	1199.786	937.111
222.753	20.304	1199.100	936.294
223.767	20.332	1198.930	936.231
224.782	20.434	1197.912	935.903
225.796	20.506	1197.213	935.661
226.811	20.536	1196.570	935.236
227.826	20.476	1196.300	934.621
228.840	20.486	1195.235	933.761
229.855	20.490	1194.563	933.171
230.869	20.496	1193.945	932.641
231.884	20.509	1193.183	932.034
232.899	20.471	1192.826	931.468
233.913	20.502	1191.938	930.859
234.928	20.586	1191.442	930.839
235.942	20.621	1190.634	930.311
236.957	20.686	1190.161	930.208
237.972	20.595	1189.629	929.220
238.986	20.531	1188.882	928.217
240.001	20.729	1188.084	928.563
241.015	20.655	1187.444	927.592
242.030	20.689	1186.405	926.876
243.045	20.609	1185.945	926.009
244.059	20.638	1185.386	925.643
245.074	20.708	1184.556	925.289
246.088	20.532	1183.962	923.804
247.103	20.627	1183.003	923.481
248.117	20.640	1181.931	922.633
249.132	20.646	1181.244	922.045
250.147	20.826	1180.666	922.464
251.161	20.754	1179.726	921.268
252.176	20.592	1179.274	919.978
253.190	20.753	1178.535	920.172
254.205	20.661	1177.947	919.142
255.220	20.664	1177.206	918.499
256.234	20.707	1176.967	918.457
257.249	20.717	1176.480	918.050
258.263	20.670	1175.618	917.047
259.278	20.860	1174.513	917.105
260.293	20.817	1174.297	916.632
261.307	20.848	1173.965	916.455
262.322	20.784	1173.408	915.598
263.336	20.773	1172.741	914.943
264.351	20.780	1171.789	914.154
265.366	20.774	1171.214	913.595
266.380	20.772	1170.863	913.227
267.395	20.827	1169.850	912.647
268.409	20.832	1169.118	912.021
269.424	20.765	1169.107	911.582
270.439	20.822	1168.213	911.103
271.453	20.846	1167.919	910.914
272.468	20.777	1166.742	909.558
273.482	20.843	1166.128	909.341
274.497	20.759	1166.159	908.847
275.512	20.906	1164.949	908.593
276.526	20.831	1164.414	907.700
277.541	20.854	1163.704	907.190
278.555	20.807	1163.457	906.668
279.570	20.925	1162.330	906.324
280.585	20.870	1161.497	905.309
281.599	20.857	1160.722	904.557
282.614	20.839	1159.849	903.704
283.628	20.905	1158.581	902.980
284.643	20.953	1158.038	902.724
285.657	20.988	1157.295	902.249
286.672	20.998	1156.171	901.342
287.687	21.000	1155.320	900.610
288.701	21.037	1154.934	900.422
289.716	21.051	1154.142	899.795
290.730	20.917	1153.642	898.636
291.745	21.036	1152.637	898.383
292.760	21.039	1152.621	898.308
293.774	21.070	1151.901	897.826
294.789	21.083	1151.468	897.475
295.803	21.066	1150.662	896.683
296.818	21.090	1150.017	896.222
297.833	21.194	1148.956	895.849
298.847	21.077	1148.877	895.108
299.862	21.138	1147.745	894.460
300.876	21.186	1146.938	894.002
301.891	21.076	1146.960	893.371
302.906	21.061	1145.958	892.438
303.920	21.227	1145.340	892.726
304.935	21.232	1144.537	892.047
305.949	21.249	1143.839	891.508
306.964	21.212	1143.423	890.916
307.979	21.265	1142.693	890.539
308.993	21.165	1142.265	889.617
310.008	21.162	1141.432	888.877
311.022	21.268	1140.464	888.585
312.037	21.378	1139.601	888.393
313.052	21.181	1138.701	886.611
314.066	21.094	1138.349	885.818
315.081	21.169	1137.765	885.663
316.095	21.190	1137.102	885.176
317.110	21.212	1136.283	884.570
318.125	21.218	1135.812	884.160
319.139	21.221	1135.099	883.537
320.154	21.327	1134.444	883.486
321.168	21.197	1133.903	882.328
322.183	21.263	1133.425	882.214
323.197	21.264	1132.846	881.690
324.212	21.282	1132.086	881.112
325.227	21.339	1131.642	880.975
326.241	21.341	1130.974	880.387
327.256	21.408	1130.143	879.998
328.270	21.393	1129.327	879.210
329.285	21.326	1128.510	878.162
330.300	21.361	1128.000	877.862
331.314	21.405	1126.839	877.101
332.329	21.371	1126.195	876.352
333.343	21.430	1125.169	875.774
334.358	21.519	1124.558	875.663
335.373	21.489	1123.739	874.798
336.387	21.491	1123.373	874.448
337.402	21.453	1122.431	873.444
338.416	21.455	1122.071	873.097
339.431	21.563	1121.208	872.886
340.446	21.594	1120.956	872.769
341.460	21.596	1119.892	871.874
342.475	21.473	1119.408	870.806
343.489	21.659	1118.137	870.668
344.504	21.563	1117.422	869.558
345.519	21.644	1116.243	868.962
346.533	21.676	1115.773	868.677
347.548	21.579	1115.311	867.761
348.562	21.618	1114.429	867.192
349.577	21.601	1113.820	866.557
350.592	21.650	1113.096	866.160
351.606	21.594	1112.200	865.108
352.621	21.571	1111.592	864.444
353.635	21.558	1111.348	864.117
354.650	21.508	1110.605	863.214
355.665	21.686	1109.841	863.424
356.679	21.577	1109.480	862.528
357.694	21.696	1108.767	862.483
358.708	21.790	1107.582	861.947
359.723	21.661	1107.283	861.004
360.738	21.601	1106.540	860.054
361.752	21.694	1106.149	860.133
362.767	21.763	1105.682	860.030
363.781	21.686	1105.395	859.354
364.796	21.803	1104.809	859.397
365.810	21.859	1103.479	858.559
366.825	21.711	1103.544	857.808
367.840	21.917	1102.719	858.100
368.854	21.782	1102.105	856.888
369.869	21.961	1101.154	856.946
370.883	21.849	1101.073	856.258
371.898	21.809	1100.157	855.279
372.913	21.784	1099.576	854.627
373.927	21.957	1099.076	855.005
374.942	21.888	1098.737	854.330
375.956	21.913	1097.865	853.699
376.971	21.868	1097.279	852.949
377.986	21.881	1097.065	852.768
379.000	21.975	1096.210	852.486
380.015	21.947	1095.520	851.736
381.029	21.997	1094.763	851.316
382.044	21.902	1094.322	850.438
383.059	22.043	1093.562	850.456
384.073	21.999	1092.964	849.703
385.088	22.002	1092.402	849.205
386.102	21.961	1091.493	848.225
387.117	22.046	1090.384	847.697
388.132	22.036	1089.393	846.803
389.146	22.022	1089.079	846.417
390.161	21.961	1088.803	845.832
391.175	22.038	1087.886	845.419
392.190	22.032	1087.061	844.671
393.205	22.078	1086.532	844.408
394.219	22.067	1085.681	843.621
395.234	22.040	1084.937	842.839
396.248	22.116	1083.863	842.295
397.263	22.156	1083.102	841.820
398.278	22.189	1082.326	841.298
399.292	22.290	1081.917	841.391
400.307	22.192	1081.273	840.347
401.321	22.181	1080.504	839.619
402.336	22.224	1079.801	839.207
403.350	22.183	1079.272	838.527
404.365	22.272	1078.454	838.239
405.380	22.291	1077.604	837.597
406.394	22.190	1077.501	836.962
407.409	22.339	1076.464	836.789
408.423	22.294	1075.523	835.767
409.438	22.393	1074.653	835.492
410.453	22.254	1074.448	834.595
411.467	22.316	1073.515	834.092
412.482	22.240	1072.911	833.190
413.496	22.323	1072.472	833.167
414.511	22.226	1071.879	832.175
415.526	22.314	1071.665	832.349
416.540	22.237	1071.107	831.481
417.555	22.323	1070.332	831.212
418.569	22.399	1069.629	830.950
419.584	22.494	1068.971	830.815
420.599	22.443	1068.812	830.377
421.613	148.601	1397.674	1794.006
422.628	136.905	1445.562	1794.081
