DTS Sentinel unit serial number:	SN413079Multiplexer serial number:	ORYXHardware model number:	OX4-SRSoftware version number:	ORYX F/W v4.00 Oryx Data Collector v3.7.2.0data status	okinstallation	princeton_trtdifferential loss correction	single-endedforward channel	channel 2reverse channel	N/Adate	2019/09/13time	23:51:35forward acquisition time	60.00reverse acquisition time	0.00gamma	496.2192k internal	0.2338k external	0.2338temperature offset calibration	1.0130default loss term (dB/km)	0.3790temperature slope calibration	1.0000multiplexer offset coefficient	1.0000multiplexer slope coefficient	1.0000fibre end	0.00T internal ref (°C)	26.56T ext. ref 1 (°C)	3.16T ext. ref 2 (°C)	21.04length (m)	temperature (°C)	Stokes	anti-Stokes-747.200	-87.558	0.172	-0.052
-746.185	5.215	-0.313	0.232
-745.171	25.624	-0.215	-0.180
-744.156	135.186	-0.107	-0.139
-743.142	249.680	-0.160	-0.273
-742.127	-111.745	0.525	0.107
-741.112	-200.000	-0.047	-0.332
-740.098	-200.000	-0.012	-0.096
-739.083	240.567	0.049	0.082
-738.069	800.000	0.078	0.326
-737.054	91.414	-0.109	-0.123
-736.039	-98.102	0.127	0.033
-735.025	-200.000	-0.065	0.329
-734.010	-5.400	-0.342	0.235
-732.996	477.951	-0.045	0.103
-731.981	-20.399	0.256	-0.158
-730.966	-79.114	-0.193	-0.066
-729.952	-80.965	-0.232	0.077
-728.937	170.369	-0.175	-0.251
-727.923	-200.000	0.039	-0.471
-726.908	616.024	-0.064	-0.162
-725.894	-97.935	-0.175	0.045
-724.879	15.687	-0.244	-0.192
-723.864	70.684	-0.324	0.336
-722.850	391.172	-0.201	0.417
-721.835	51.302	-0.247	-0.235
-720.821	-200.000	0.041	0.191
-719.806	-200.000	0.037	-0.340
-718.791	-200.000	0.006	-0.231
-717.777	-98.409	-0.110	-0.028
-716.762	-85.357	0.353	-0.110
-715.748	-38.544	-0.158	0.084
-714.733	-81.115	0.380	-0.126
-713.718	6.810	0.293	-0.219
-712.704	-200.000	0.011	-0.095
-711.689	-86.896	0.555	-0.170
-710.675	-10.353	0.076	0.051
-709.660	-65.109	-0.212	-0.086
-708.645	686.155	0.061	-0.159
-707.631	114.702	0.107	-0.131
-706.616	-136.174	-0.228	-0.027
-705.602	5.293	0.272	0.201
-704.587	4.040	-0.275	0.201
-703.572	-108.367	0.354	0.076
-702.558	452.833	-0.221	-0.490
-701.543	92.312	0.151	-0.171
-700.529	48.530	-0.149	-0.140
-699.514	-200.000	0.002	0.067
-698.499	-160.292	0.173	-0.009
-697.485	69.906	-0.073	0.075
-696.470	82.621	0.144	-0.157
-695.456	-97.142	0.432	-0.113
-694.441	161.607	-0.169	0.237
-693.426	101.676	0.034	-0.040
-692.412	226.017	0.119	-0.193
-691.397	800.000	0.038	0.143
-690.383	-200.000	-0.016	-0.130
-689.368	-179.269	0.186	-0.004
-688.354	800.000	0.076	-0.280
-687.339	-78.338	-0.147	0.051
-686.324	-200.000	-0.021	0.140
-685.310	-161.876	0.362	-0.018
-684.295	204.405	-0.258	-0.401
-683.281	144.576	-0.262	-0.350
-682.266	-200.000	0.015	0.094
-681.251	176.131	-0.206	-0.299
-680.237	179.049	0.147	0.216
-679.222	-132.379	-0.115	0.015
-678.208	-176.877	-0.122	0.003
-677.193	12.071	0.135	-0.104
-676.178	800.000	-0.096	0.281
-675.164	-200.000	-0.020	0.147
-674.149	483.227	0.133	-0.303
-673.135	25.333	0.234	-0.195
-672.120	48.817	0.130	0.122
-671.105	-105.848	0.069	0.016
-670.091	327.184	-0.253	-0.486
-669.076	-81.009	-0.229	-0.076
-668.062	11.750	0.198	0.152
-667.047	201.460	-0.083	0.128
-666.032	43.111	0.306	-0.279
-665.018	31.400	-0.154	0.132
-664.003	641.313	0.066	0.169
-662.989	-96.458	0.231	-0.061
-661.974	-18.379	0.236	-0.147
-660.959	-48.023	-0.376	-0.182
-659.945	-200.000	0.037	0.285
-658.930	-200.000	-0.047	-0.270
-657.916	800.000	-0.145	-0.404
-656.901	-42.874	-0.180	0.091
-655.886	87.783	-0.173	-0.192
-654.872	-200.000	-0.066	-0.315
-653.857	-26.004	0.007	-0.004
-652.843	2.102	-0.274	-0.198
-651.828	436.175	0.050	0.108
-650.814	-93.349	0.056	-0.016
-649.799	91.277	0.074	0.084
-648.784	317.343	-0.125	0.237
-647.770	-200.000	0.005	0.029
-646.755	220.952	-0.016	0.025
-645.741	-102.282	-0.295	0.071
-644.726	478.750	-0.042	-0.095
-643.711	-200.000	-0.021	-0.146
-642.697	26.423	0.072	-0.060
-641.682	-3.990	-0.264	0.183
-640.668	-17.340	-0.347	-0.219
-639.653	-41.890	0.161	-0.083
-638.638	-134.132	0.326	0.040
-637.624	800.000	0.042	-0.178
-636.609	800.000	0.047	0.132
-635.595	165.487	0.170	-0.240
-634.580	-97.644	-0.583	-0.151
-633.565	-52.407	-0.098	-0.045
-632.551	38.832	0.156	-0.139
-631.536	123.797	-0.021	0.027
-630.522	-76.551	0.162	-0.057
-629.507	-10.862	0.296	0.195
-628.492	-126.562	0.262	-0.039
-627.478	308.143	-0.047	-0.088
-626.463	15.739	-0.067	-0.053
-625.449	-200.000	0.004	-0.316
-624.434	1.622	0.151	0.109
-623.419	164.330	-0.107	-0.150
-622.405	293.966	0.132	0.241
-621.390	-107.995	0.204	0.044
-620.376	-29.687	0.197	0.112
-619.361	-2.763	-0.049	0.034
-618.346	-200.000	0.029	-0.132
-617.332	-125.471	-0.261	-0.040
-616.317	243.672	-0.102	0.171
-615.303	-164.208	-0.132	0.006
-614.288	-200.000	0.012	0.239
-613.273	-200.000	-0.010	-0.325
-612.259	-53.551	0.138	-0.063
-611.244	-200.000	-0.016	0.121
-610.230	-94.989	-0.100	0.027
-609.215	-200.000	-0.014	0.096
-608.201	800.000	-0.050	0.213
-607.186	-99.940	-0.108	0.027
-606.171	40.102	-0.106	0.095
-605.157	529.215	0.108	-0.255
-604.142	-152.483	-0.220	0.016
-603.128	-76.606	-0.131	-0.046
-602.113	800.000	-0.051	0.216
-601.098	84.036	0.158	-0.172
-600.084	-110.309	0.334	0.069
-599.069	800.000	0.014	0.051
-598.055	69.490	0.160	-0.165
-597.040	-187.539	0.079	-0.001
-596.025	376.940	0.076	-0.155
-595.011	-107.792	0.211	-0.046
-593.996	217.769	0.174	0.277
-592.982	-200.000	0.048	-0.241
-591.967	-200.000	0.021	-0.119
-590.952	181.571	0.109	0.160
-589.938	-200.000	-0.021	-0.345
-588.923	20.023	-0.126	0.102
-587.909	800.000	0.110	-0.358
-586.894	-93.976	0.096	-0.026
-585.879	3.124	0.596	-0.432
-584.865	263.307	-0.191	-0.331
-583.850	800.000	-0.054	-0.189
-582.836	800.000	-0.047	-0.136
-581.821	99.712	-0.231	-0.267
-580.806	-165.581	-0.167	0.007
-579.792	-200.000	-0.004	0.195
-578.777	252.291	-0.034	0.058
-577.763	282.425	-0.031	-0.056
-576.748	-68.350	-0.274	0.106
-575.733	-77.485	0.238	-0.082
-574.719	800.000	0.114	-0.361
-573.704	-200.000	-0.016	-0.403
-572.690	800.000	-0.024	-0.074
-571.675	-106.456	0.274	-0.061
-570.661	-49.303	0.107	0.051
-569.646	705.193	0.038	0.099
-568.631	-43.423	-0.195	-0.098
-567.617	800.000	-0.025	-0.071
-566.602	168.180	-0.184	0.262
-565.588	-42.919	0.160	0.081
-564.573	-200.000	-0.003	0.043
-563.558	-200.000	-0.425	0.002
-562.544	-14.057	0.387	-0.249
-561.529	-148.067	-0.390	0.032
-560.515	67.412	0.206	0.209
-559.500	-155.042	0.345	0.023
-558.485	51.328	0.034	0.032
-557.471	-56.416	-0.316	0.140
-556.456	-104.611	0.255	-0.059
-555.442	117.191	0.146	0.179
-554.427	-24.686	-0.104	0.061
-553.412	-54.991	-0.242	-0.109
-552.398	-200.000	-0.001	-0.110
-551.383	627.816	0.126	-0.318
-550.369	6.320	-0.139	0.103
-549.354	800.000	0.085	0.236
-548.339	267.234	0.142	-0.248
-547.325	-125.253	0.124	-0.019
-546.310	-200.000	-0.007	-0.211
-545.296	-193.387	0.204	-0.002
-544.281	55.253	-0.035	0.034
-543.266	-16.917	0.324	0.204
-542.252	375.091	0.153	0.310
-541.237	-55.387	-0.144	0.065
-540.223	50.858	0.270	0.255
-539.208	293.733	0.242	-0.441
-538.193	449.633	0.145	-0.319
-537.179	-57.376	0.097	0.043
-536.164	-143.719	0.275	-0.026
-535.150	800.000	-0.071	-0.210
-534.135	422.469	-0.053	0.112
-533.121	800.000	0.050	-0.144
-532.106	800.000	0.054	0.206
-531.091	33.465	0.119	-0.102
-530.077	800.000	-0.099	0.281
-529.062	-77.477	0.225	-0.078
-528.048	-200.000	-0.015	0.102
-527.033	34.419	-0.078	0.067
-526.018	424.285	-0.063	0.135
-525.004	8.631	0.315	0.236
-523.989	-139.450	-0.162	-0.017
-522.975	800.000	-0.067	-0.239
-521.960	-200.000	-0.004	0.139
-520.945	-122.192	0.129	0.021
-519.931	193.319	-0.259	0.390
-518.916	30.466	0.315	-0.267
-517.902	-200.000	0.001	-0.212
-516.887	122.121	-0.112	-0.139
-515.872	-191.194	-0.219	-0.002
-514.858	1.646	-0.082	-0.059
-513.843	-76.483	0.065	0.023
-512.829	442.888	-0.068	0.149
-511.814	227.349	-0.117	0.189
-510.799	422.824	0.199	-0.425
-509.785	41.619	-0.159	-0.143
-508.770	-200.000	0.011	0.284
-507.756	-0.394	-0.279	0.197
-506.741	87.654	-0.131	-0.144
-505.726	84.141	0.211	-0.229
-504.712	800.000	0.048	-0.205
-503.697	-200.000	0.058	-0.370
-502.683	-48.922	-0.163	-0.078
-501.668	115.027	-0.103	-0.125
-500.653	304.152	-0.169	-0.312
-499.639	156.610	-0.192	-0.263
-498.624	143.874	-0.165	-0.218
-497.610	-122.693	0.172	-0.028
-496.595	800.000	-0.069	-0.194
-495.581	72.201	-0.277	-0.287
-494.566	-97.144	-0.163	-0.042
-493.551	800.000	-0.098	-0.279
-492.537	-14.576	0.354	0.226
-491.522	800.000	-0.092	0.387
-490.508	-89.706	-0.378	0.110
-489.493	-95.587	-0.288	-0.077
-488.478	64.071	0.112	-0.112
-487.464	800.000	-0.033	0.115
-486.449	-96.700	0.156	-0.041
-485.435	313.405	-0.216	0.404
-484.420	27.629	0.097	0.081
-483.405	-200.000	0.032	-0.138
-482.391	-50.755	-0.380	-0.178
-481.376	32.024	0.203	0.174
-480.362	194.307	-0.012	0.019
-479.347	-200.000	-0.014	-0.391
-478.332	797.054	-0.028	-0.076
-477.318	-193.721	-0.301	-0.003
-476.303	-48.510	0.322	0.154
-475.289	332.449	0.057	0.110
-474.274	612.146	0.228	-0.567
-473.259	-148.031	0.070	-0.006
-472.245	53.974	-0.136	0.130
-471.230	-74.069	-0.168	0.061
-470.216	-103.371	0.336	0.079
-469.201	-100.800	0.379	-0.093
-468.186	177.309	-0.171	0.247
-467.172	25.544	0.203	0.167
-466.157	-79.038	0.148	-0.050
-465.143	438.710	0.051	0.110
-464.128	800.000	-0.089	0.272
-463.113	128.193	0.291	0.368
-462.099	-200.000	0.047	0.317
-461.084	117.284	-0.155	0.189
-460.070	-109.063	0.212	0.045
-459.055	800.000	0.052	0.145
-458.040	800.000	0.083	0.257
-457.026	443.209	-0.164	-0.357
-456.011	599.320	-0.085	0.210
-454.997	340.917	0.048	0.092
-453.982	-200.000	-0.014	0.110
-452.968	-32.906	-0.345	-0.190
-451.953	-200.000	0.062	-0.389
-450.938	800.000	0.096	0.316
-449.924	566.135	-0.107	0.258
-448.909	-63.152	0.195	-0.080
-447.895	99.478	-0.185	-0.212
-446.880	92.933	0.031	0.035
-445.865	-168.423	-0.124	-0.005
-444.851	220.480	0.014	0.023
-443.836	800.000	-0.093	0.270
-442.822	296.947	0.057	-0.103
-441.807	34.794	0.265	-0.229
-440.792	-141.782	0.140	-0.014
-439.778	-200.000	0.006	-0.263
-438.763	183.973	0.163	0.239
-437.749	-43.988	-0.184	-0.092
-436.734	-169.156	0.362	0.013
-435.719	705.252	-0.075	0.197
-434.705	-200.000	0.013	0.092
-433.690	800.000	-0.035	0.129
-432.676	-115.540	0.225	-0.042
-431.661	-200.000	0.070	-0.361
-430.646	-200.000	0.006	-0.075
-429.632	261.205	-0.217	-0.372
-428.617	-200.000	-0.009	-0.147
-427.603	29.224	-0.300	0.253
-426.588	-111.282	-0.198	0.040
-425.573	-200.000	0.011	0.135
-424.559	208.328	0.014	0.022
-423.544	-136.976	-0.098	-0.011
-422.530	433.842	0.025	-0.053
-421.515	-151.918	-0.406	0.029
-420.500	104.935	0.103	0.121
-419.486	48.871	-0.108	-0.100
-418.471	60.368	0.134	0.132
-417.457	-5.692	0.204	-0.139
-416.442	-98.224	0.241	0.061
-415.428	-111.273	0.173	-0.035
-414.413	-117.748	-0.257	0.046
-413.398	-200.000	0.009	-0.221
-412.384	-124.123	0.318	-0.049
-411.369	-200.000	0.011	-0.291
-410.355	-137.792	0.262	-0.029
-409.340	72.441	-0.133	0.138
-408.325	28.928	0.117	-0.098
-407.311	323.384	0.091	0.173
-406.296	-200.000	-0.031	-0.318
-405.282	800.000	-0.057	0.185
-404.267	-200.000	0.009	-0.281
-403.252	-108.944	0.050	-0.011
-402.238	-92.660	-0.390	-0.108
-401.223	-115.487	-0.230	-0.043
-400.209	-200.000	0.009	0.161
-399.194	269.429	-0.092	-0.159
-398.179	-200.000	0.011	-0.218
-397.165	50.495	0.028	0.027
-396.150	-200.000	0.042	0.275
-395.136	82.549	-0.147	-0.158
-394.121	293.512	0.039	-0.070
-393.106	-102.667	-0.276	-0.065
-392.092	800.000	0.071	-0.297
-391.077	-91.522	0.192	-0.054
-390.063	-140.727	0.122	-0.012
-389.048	49.552	0.149	-0.139
-388.033	404.064	-0.217	-0.451
-387.019	-1.206	-0.111	-0.078
-386.004	-100.662	-0.288	0.070
-384.990	61.166	-0.369	0.363
-383.975	5.069	-0.053	-0.038
-382.960	800.000	0.038	0.150
-381.946	-200.000	0.032	0.184
-380.931	800.000	0.033	-0.130
-379.917	-200.000	0.006	-0.189
-378.902	-145.214	-0.114	-0.010
-377.888	286.821	0.151	0.270
-376.873	7.374	-0.051	0.038
-375.858	45.667	0.246	-0.225
-374.844	13.051	-0.173	-0.133
-373.829	78.121	0.012	0.013
-372.815	-30.641	0.330	0.185
-371.800	54.562	-0.340	0.324
-370.785	102.097	0.106	0.123
-369.771	-200.000	0.003	0.077
-368.756	-200.000	-0.000	0.018
-367.742	258.502	-0.169	0.288
-366.727	-7.787	-0.282	0.188
-365.712	-46.787	-0.285	0.138
-364.698	-78.603	-0.317	0.107
-363.683	-36.211	0.206	0.110
-362.669	-194.533	-0.149	-0.001
-361.654	-200.000	0.021	0.120
-360.639	800.000	0.060	0.193
-359.625	673.629	-0.065	-0.168
-358.610	27.090	0.079	-0.065
-357.596	242.147	-0.058	0.097
-356.581	-77.406	-0.241	0.083
-355.566	123.826	0.145	-0.179
-354.552	-200.000	-0.054	-0.331
-353.537	221.572	0.183	-0.291
-352.523	16.008	0.165	-0.128
-351.508	67.452	-0.075	-0.076
-350.493	-88.803	-0.105	0.031
-349.479	44.555	0.054	-0.049
-348.464	-70.144	-0.302	0.114
-347.450	-200.000	0.018	-0.376
-346.435	260.412	-0.118	-0.201
-345.420	-153.798	0.235	-0.016
-344.406	30.985	-0.087	-0.074
-343.391	-103.962	-0.213	0.049
-342.377	202.791	0.030	0.045
-341.362	-22.545	-0.130	0.078
-340.348	-195.354	0.483	-0.004
-339.333	-25.474	0.182	0.106
-338.318	-139.570	0.038	-0.004
-337.304	-122.346	-0.345	-0.056
-336.289	-200.000	0.241	0.000
-335.275	-174.683	-0.264	0.007
-334.260	-158.043	0.056	0.003
-333.245	-71.622	-0.172	-0.064
-332.231	-200.000	0.052	0.264
-331.216	120.920	-0.205	0.252
-330.202	-200.000	-0.015	0.138
-329.187	397.160	-0.039	-0.081
-328.172	-107.798	-0.536	0.115
-327.158	-116.014	0.347	-0.064
-326.143	-13.009	-0.032	-0.020
-325.129	-200.000	-0.001	-0.038
-324.114	18.560	0.030	0.023
-323.099	-200.000	-0.040	0.212
-322.085	-103.259	-0.101	-0.024
-321.070	787.571	-0.032	0.087
-320.056	-200.000	-0.028	-0.197
-319.041	800.000	0.069	0.227
-318.026	-57.399	0.125	-0.054
-317.012	-83.851	0.305	0.096
-315.997	-30.141	0.206	0.116
-314.983	-200.000	-0.002	-0.078
-313.968	-98.992	-0.225	-0.056
-312.953	-21.541	0.183	-0.110
-311.939	268.802	0.052	-0.090
-310.924	-61.916	0.446	0.184
-309.910	149.557	-0.109	0.146
-308.895	-35.193	0.141	-0.076
-307.880	115.475	0.129	-0.155
-306.866	133.813	0.147	-0.188
-305.851	61.074	-0.185	0.181
-304.837	-99.623	-0.144	-0.036
-303.822	800.000	0.067	0.249
-302.807	-171.614	-0.359	0.012
-301.793	800.000	0.136	0.428
-300.778	-76.947	-0.210	-0.072
-299.764	-200.000	0.057	0.279
-298.749	131.055	0.054	0.069
-297.735	-200.000	-0.005	-0.044
-296.720	-46.124	-0.225	-0.109
-295.705	2.282	0.213	0.152
-294.691	680.048	-0.127	-0.325
-293.676	-121.409	0.137	-0.023
-292.662	-200.000	0.000	0.145
-291.647	-32.728	0.234	0.128
-290.632	-34.930	-0.148	0.080
-289.618	-124.318	0.482	-0.074
-288.603	-75.106	0.247	0.087
-287.589	-200.000	0.010	0.255
-286.574	-200.000	0.021	0.091
-285.559	-131.244	0.067	-0.009
-284.545	-64.564	0.156	-0.062
-283.530	800.000	0.050	0.152
-282.516	783.082	-0.071	0.192
-281.501	-54.715	-0.270	0.120
-280.486	-200.000	0.034	0.171
-279.472	44.395	0.227	0.205
-278.457	18.096	0.212	0.167
-277.443	-71.972	0.118	0.043
-276.428	329.951	0.076	0.144
-275.413	800.000	-0.080	-0.224
-274.399	452.976	-0.104	-0.226
-273.384	29.533	0.284	-0.238
-272.370	-110.807	0.144	0.029
-271.355	-200.000	0.019	0.175
-270.340	-55.034	0.198	-0.088
-269.326	121.121	-0.055	-0.067
-268.311	124.314	-0.271	0.336
-267.297	-200.000	0.017	-0.223
-266.282	-200.000	0.000	0.088
-265.267	-200.000	-0.012	0.085
-264.253	31.020	-0.152	0.129
-263.238	-118.816	-0.194	-0.034
-262.224	800.000	0.014	0.042
-261.209	-200.000	-0.013	-0.069
-260.195	-45.162	-0.218	0.106
-259.180	800.000	0.057	0.161
-258.165	-62.163	0.096	0.039
-257.151	-16.372	-0.024	-0.015
-256.136	241.121	0.136	-0.223
-255.122	-106.604	-0.057	-0.012
-254.107	-89.749	0.259	0.075
-253.092	-200.000	0.012	0.102
-252.078	-200.000	0.022	-0.307
-251.063	800.000	-0.025	-0.081
-250.049	-132.378	-0.185	-0.023
-249.034	800.000	0.058	0.222
-248.019	75.541	-0.111	-0.116
-247.005	-200.000	0.031	-0.390
-245.990	-200.000	0.016	-0.158
-244.976	-19.023	-0.214	0.131
-243.961	321.574	-0.120	0.225
-242.946	-200.000	0.010	-0.043
-241.932	800.000	0.045	-0.123
-240.917	-200.000	0.023	-0.113
-239.903	-22.761	-0.043	0.026
-238.888	231.709	-0.112	-0.180
-237.873	-86.770	-0.252	-0.076
-236.859	3.525	-0.163	0.117
-235.844	-200.000	-0.094	0.482
-234.830	-41.108	-0.159	-0.081
-233.815	218.454	-0.074	0.116
-232.800	-39.179	0.144	0.074
-231.786	-200.000	-0.013	-0.306
-230.771	-59.105	0.120	0.051
-229.757	321.815	0.164	0.307
-228.742	110.961	0.120	0.142
-227.727	-74.303	0.245	0.087
-226.713	111.071	0.170	0.202
-225.698	-176.158	0.200	0.005
-224.684	-200.000	0.006	0.133
-223.669	-112.713	0.222	-0.043
-222.655	-175.840	-0.328	0.009
-221.640	208.672	-0.104	0.160
-220.625	800.000	-0.109	0.333
-219.611	800.000	0.088	0.266
-218.596	-87.565	0.159	0.047
-217.582	115.042	-0.024	-0.029
-216.567	-103.872	-0.203	0.047
-215.552	194.550	-0.156	0.232
-214.538	-170.552	-0.222	0.008
-213.523	-12.222	0.090	0.058
-212.509	-96.654	-0.236	0.061
-211.494	-200.000	0.049	0.298
-210.479	83.750	0.322	0.345
-209.465	22.782	0.223	-0.180
-208.450	464.801	-0.113	0.249
-207.436	45.574	-0.072	0.065
-206.421	86.524	0.233	-0.253
-205.406	49.692	-0.241	-0.223
-204.392	-38.122	0.169	-0.088
-203.377	204.780	0.061	-0.093
-202.363	179.430	0.072	-0.104
-201.348	-18.241	-0.048	-0.030
-200.333	-200.000	0.010	0.298
-199.319	-154.981	-0.071	-0.005
-198.304	800.000	-0.061	-0.195
-197.290	800.000	0.085	-0.253
-196.275	-107.328	-0.143	0.031
-195.260	-18.443	-0.074	-0.046
-194.246	-80.653	0.065	-0.021
-193.231	277.713	-0.043	-0.075
-192.217	346.335	-0.077	0.149
-191.202	-200.000	0.041	-0.341
-190.187	151.181	-0.070	0.093
-189.173	-58.660	-0.178	0.076
-188.158	105.473	0.161	0.187
-187.144	800.000	-0.047	-0.196
-186.129	-41.471	-0.371	0.187
-185.114	-110.649	0.069	0.014
-184.100	715.235	0.038	-0.099
-183.085	800.000	0.102	0.290
-182.071	131.176	-0.300	0.378
-181.056	-200.000	0.027	0.167
-180.042	-17.047	-0.284	0.176
-179.027	800.000	0.050	0.213
-178.012	-164.563	-0.436	0.019
-176.998	-1.578	-0.211	0.146
-175.983	-97.981	0.352	-0.089
-174.969	-3.173	0.131	0.090
-173.954	-200.000	-0.046	-0.361
-172.939	-57.932	0.245	-0.105
-171.925	106.230	0.112	-0.130
-170.910	-200.000	-0.004	0.079
-169.896	-131.218	0.324	0.042
-168.881	-111.348	-0.104	0.021
-167.866	61.027	-0.180	0.176
-166.852	-200.000	-0.033	-0.400
-165.837	83.467	0.214	-0.228
-164.823	-144.033	-0.187	-0.017
-163.808	-2.052	-0.223	-0.154
-162.793	800.000	0.005	0.015
-161.779	-136.513	-0.255	-0.029
-160.764	-200.000	-0.005	0.114
-159.750	578.297	-0.070	0.168
-158.735	-54.818	-0.276	0.122
-157.720	258.515	0.238	-0.402
-156.706	190.300	0.107	-0.158
-155.691	40.302	-0.135	-0.119
-154.677	319.561	-0.103	-0.192
-153.662	-25.470	-0.059	0.034
-152.647	800.000	0.061	0.177
-151.633	11.701	0.247	0.186
-150.618	-151.878	-0.343	0.025
-149.604	-124.488	-0.299	0.046
-148.589	12.740	-0.221	0.167
-147.574	18.859	0.116	-0.091
-146.560	-127.899	-0.099	0.014
-145.545	-200.000	0.051	-0.234
-144.531	-171.951	-0.052	-0.002
-143.516	-171.886	0.232	0.007
-142.502	-67.210	-0.055	0.021
-141.487	-200.000	0.009	0.212
-140.472	108.282	0.070	0.081
-139.458	-67.045	0.211	0.082
-138.443	2.564	0.169	0.120
-137.429	800.000	0.070	-0.263
-136.414	158.573	0.060	0.082
-135.399	159.794	0.044	0.060
-134.385	-58.823	0.062	-0.026
-133.370	284.046	0.029	0.051
-132.356	236.654	0.161	0.262
-131.341	-63.192	0.394	-0.159
-130.326	-115.387	-0.065	0.012
-129.312	8.868	-0.183	-0.135
-128.297	-162.662	-0.243	0.012
-127.283	-15.709	0.196	-0.123
-126.268	-54.442	-0.364	0.162
-125.253	123.153	0.127	0.155
-124.239	206.615	-0.082	-0.125
-123.224	87.511	0.103	-0.112
-122.210	41.798	0.052	-0.046
-121.195	-7.395	0.092	0.061
-120.180	-14.931	0.169	0.106
-119.166	356.515	0.118	-0.230
-118.151	72.488	0.102	0.104
-117.137	-200.000	-0.025	-0.106
-116.122	369.107	0.198	-0.391
-115.107	36.580	0.212	-0.183
-114.093	-91.375	0.147	0.041
-113.078	-151.319	-0.108	0.008
-112.064	-167.097	0.204	0.008
-111.049	-78.926	-0.236	-0.079
-110.034	800.000	-0.070	0.254
-109.020	-84.459	-0.080	-0.025
-108.005	-133.534	-0.093	0.011
-106.991	175.800	-0.195	0.277
-105.976	23.635	0.184	-0.149
-104.962	237.299	-0.217	-0.352
-103.947	-200.000	0.044	-0.498
-102.932	79.306	-0.266	-0.279
-101.918	65.831	0.211	-0.209
-100.903	-48.000	0.132	-0.062
-99.889	-64.477	0.231	-0.092
-98.874	-194.783	0.157	0.001
-97.859	-200.000	0.027	-0.215
-96.845	800.000	0.092	0.289
-95.830	-76.532	0.230	-0.079
-94.816	-192.437	0.438	0.004
-93.801	-63.439	0.115	-0.046
-92.786	263.850	0.065	0.111
-91.772	148.915	-0.138	-0.183
-90.757	-132.209	0.254	0.032
-89.743	11.545	0.155	0.116
-88.728	205.151	-0.106	0.161
-87.713	464.269	0.134	0.294
-86.699	-200.000	0.022	0.180
-85.684	-64.273	0.149	-0.059
-84.670	40.876	0.124	-0.110
-83.655	173.190	-0.088	0.124
-82.640	-129.262	-0.109	0.015
-81.626	77.496	0.170	-0.177
-80.611	248.883	0.220	-0.364
-79.597	-200.000	0.019	-0.199
-78.582	-200.000	0.007	0.039
-77.567	319.895	0.137	0.253
-76.553	-200.000	0.016	-0.078
-75.538	14.930	0.450	0.344
-74.524	-28.951	-0.220	0.124
-73.509	229.390	-0.053	0.085
-72.494	31.974	0.266	-0.224
-71.480	-95.063	0.206	-0.054
-70.465	-102.928	-0.114	-0.027
-69.451	-2.896	0.253	0.173
-68.436	-60.552	0.218	-0.090
-67.422	292.832	0.030	0.053
-66.407	507.781	0.036	0.082
-65.392	5.986	0.171	-0.124
-64.378	266.299	-0.194	0.332
-63.363	-1.129	0.247	0.171
-62.349	-98.431	-0.429	0.107
-61.334	58.506	-1.058	-1.015
-60.319	71.980	0.587	0.596
-59.305	311.193	-0.538	-0.984
-58.290	85.156	0.946	1.014
-57.276	248.319	0.814	1.346
-56.261	-200.000	115.592	643.995
-55.246	504.944	1534.260	3470.838
-54.232	175.826	2710.778	3842.242
-53.217	99.000	2287.111	2580.313
-52.203	35.548	1896.381	1626.538
-51.188	29.770	1690.734	1406.311
-50.173	27.229	1650.259	1353.697
-49.159	46.789	1707.812	1549.726
-48.144	45.584	1720.800	1552.323
-47.130	29.122	1678.266	1390.825
-46.115	26.566	1664.415	1360.117
-45.100	26.477	1659.000	1354.971
-44.086	26.495	1656.728	1353.195
-43.071	26.379	1654.304	1350.293
-42.057	26.416	1651.562	1348.282
-41.042	26.398	1649.631	1346.518
-40.027	26.499	1647.221	1345.247
-39.013	26.400	1645.619	1343.151
-37.998	26.407	1644.232	1342.015
-36.984	26.424	1642.974	1341.062
-35.969	26.454	1641.819	1340.286
-34.954	26.594	1640.014	1339.798
-33.940	26.466	1638.537	1337.589
-32.925	26.567	1636.273	1336.437
-31.911	26.555	1634.955	1335.216
-30.896	26.521	1633.239	1333.510
-29.881	26.519	1631.316	1331.873
-28.867	26.646	1629.442	1331.226
-27.852	26.453	1629.007	1329.398
-26.838	26.649	1626.719	1328.919
-25.823	26.621	1625.383	1327.567
-24.809	26.656	1624.570	1327.110
-23.794	26.572	1623.126	1325.264
-22.779	26.608	1621.554	1324.185
-21.765	26.655	1619.594	1322.876
-20.750	26.489	1617.858	1320.200
-19.736	26.612	1616.832	1320.206
-18.721	26.588	1615.828	1319.155
-17.706	26.559	1614.063	1317.449
-16.692	26.555	1612.418	1316.031
-15.677	26.624	1610.612	1315.006
-14.663	26.675	1609.152	1314.130
-13.648	26.708	1607.828	1313.238
-12.633	26.640	1606.367	1311.497
-11.619	26.561	1604.996	1309.755
-10.604	26.577	1603.417	1308.528
-9.590	26.680	1602.117	1308.163
-8.575	26.626	1600.992	1306.803
-7.560	26.543	1600.031	1305.366
-6.546	26.562	1599.030	1304.633
-5.531	26.590	1597.742	1303.732
-4.517	26.522	1596.357	1302.064
-3.502	26.651	1595.215	1302.005
-2.487	26.694	1593.794	1301.104
-1.473	26.264	1581.655	1288.080
-0.458	23.376	1562.352	1251.935
0.556	20.749	1564.013	1220.642
1.571	18.492	1588.270	1223.377
2.586	18.133	1600.554	1230.149
3.600	15.938	1545.733	1172.641
4.615	9.365	1438.063	1048.158
5.629	4.123	1378.978	972.180
6.644	3.133	1372.359	961.238
7.659	3.136	1370.609	959.952
8.673	3.187	1369.916	959.695
9.688	3.174	1367.967	958.166
10.702	3.133	1364.880	955.666
11.717	5.698	1369.687	974.918
12.731	12.932	1382.991	1029.602
13.746	19.119	1392.906	1075.675
14.761	20.453	1394.385	1085.060
15.775	19.849	1391.914	1079.276
16.790	18.823	1389.319	1070.776
17.804	18.130	1386.645	1064.309
18.819	17.585	1386.283	1060.546
19.834	17.594	1384.563	1059.188
20.848	17.472	1383.708	1057.685
21.863	17.232	1382.649	1055.288
22.877	17.094	1381.211	1053.246
23.892	17.000	1380.626	1052.118
24.907	17.003	1379.896	1051.492
25.921	17.035	1378.639	1050.635
26.936	17.016	1377.886	1049.856
27.950	17.083	1377.042	1049.533
28.965	17.180	1376.266	1049.446
29.980	17.167	1375.037	1048.338
30.994	17.348	1373.704	1048.346
32.009	17.372	1372.492	1047.474
33.023	17.285	1371.835	1046.344
34.038	17.339	1370.127	1045.279
35.053	17.143	1369.196	1043.274
36.067	17.191	1367.785	1042.399
37.082	17.157	1366.900	1041.423
38.096	17.328	1365.749	1041.505
39.111	17.296	1365.298	1040.871
40.126	17.188	1364.601	1039.585
41.140	16.953	1363.009	1036.847
42.155	16.816	1362.797	1035.756
43.169	16.851	1362.155	1035.392
44.184	16.767	1362.295	1034.889
45.199	16.822	1361.709	1034.689
46.213	17.013	1361.206	1035.382
47.228	17.114	1360.199	1035.141
48.242	17.121	1359.169	1034.308
49.257	17.084	1357.525	1032.743
50.271	17.067	1356.175	1031.520
51.286	17.130	1354.884	1030.825
52.301	17.134	1353.554	1029.747
53.315	16.963	1352.296	1027.664
54.330	17.014	1350.925	1026.844
55.344	16.794	1350.418	1025.033
56.359	16.903	1348.975	1024.506
57.374	16.932	1348.302	1024.083
58.388	16.889	1347.537	1023.149
59.403	16.778	1347.013	1021.992
60.417	16.774	1346.442	1021.444
61.432	16.756	1345.453	1020.495
62.447	16.678	1344.309	1019.068
63.461	16.560	1343.444	1017.610
64.476	16.640	1342.109	1016.991
65.490	16.525	1340.841	1015.250
66.505	16.663	1339.315	1014.832
67.520	16.757	1338.144	1014.417
68.534	16.710	1336.856	1013.067
69.549	16.672	1336.306	1012.337
70.563	16.629	1335.252	1011.193
71.578	16.615	1333.618	1009.783
72.593	16.516	1333.274	1008.840
73.607	16.445	1332.292	1007.588
74.622	16.500	1331.678	1007.359
75.636	16.496	1331.044	1006.767
76.651	16.585	1330.457	1006.762
77.666	16.600	1329.617	1006.130
78.680	16.533	1329.549	1005.588
79.695	16.650	1328.745	1005.584
80.709	16.651	1328.267	1005.143
81.724	16.888	1326.925	1005.443
82.739	16.914	1326.497	1005.183
83.753	16.955	1325.580	1004.643
84.768	17.104	1324.258	1004.432
85.782	17.279	1323.521	1004.820
86.797	17.324	1321.899	1003.766
87.812	17.085	1320.927	1001.531
88.826	17.078	1320.016	1000.707
89.841	17.098	1319.051	1000.005
90.855	17.241	1317.872	999.866
91.870	17.286	1316.854	999.271
92.884	17.313	1315.921	998.633
93.899	17.299	1315.386	998.057
94.914	17.385	1314.819	998.042
95.928	17.358	1313.798	997.021
96.943	17.361	1312.704	996.121
97.957	17.210	1312.121	994.702
98.972	17.202	1310.880	993.628
99.987	17.235	1310.027	993.084
101.001	17.202	1309.140	992.133
102.016	17.186	1307.711	990.873
103.030	17.178	1307.349	990.461
104.045	17.273	1306.369	990.183
105.060	17.059	1304.923	987.754
106.074	16.816	1303.839	985.437
107.089	16.788	1301.126	983.133
108.103	16.735	1300.564	982.317
109.118	16.708	1299.533	981.292
110.133	16.700	1297.944	979.962
111.147	16.729	1296.289	978.789
112.162	16.775	1295.397	978.295
113.176	16.914	1294.048	977.995
114.191	16.859	1293.618	977.265
115.206	16.869	1291.940	975.968
116.220	16.696	1291.334	974.431
117.235	16.881	1289.974	974.378
118.249	16.838	1288.808	973.166
119.264	16.743	1287.454	971.515
120.279	16.762	1286.750	971.006
121.293	16.654	1285.858	969.629
122.308	16.684	1284.115	968.397
123.322	16.574	1283.295	967.067
124.337	16.551	1282.534	966.273
125.352	16.623	1281.204	965.599
126.366	16.499	1280.287	964.116
127.381	16.570	1279.366	963.739
128.395	16.660	1278.090	963.204
129.410	16.642	1277.514	962.584
130.424	16.660	1276.877	962.120
131.439	16.820	1275.866	962.183
132.454	16.772	1275.119	961.260
133.468	16.838	1274.220	960.876
134.483	16.900	1273.168	960.350
135.497	16.813	1272.435	959.215
136.512	16.912	1271.037	958.636
137.527	16.814	1269.915	957.150
138.541	16.865	1268.308	956.142
139.556	16.939	1267.592	955.939
140.570	17.113	1266.175	955.765
141.585	17.175	1264.466	954.739
142.600	17.213	1263.782	954.349
143.614	17.240	1263.055	953.870
144.629	17.358	1262.003	953.649
145.643	17.350	1260.918	952.704
146.658	17.120	1260.226	950.810
147.673	16.976	1258.621	948.709
148.687	16.974	1257.498	947.767
149.702	16.843	1255.900	945.744
150.716	16.992	1254.023	945.078
151.731	16.870	1253.689	944.065
152.746	16.875	1252.175	942.866
153.760	17.031	1250.808	942.624
154.775	17.194	1249.273	942.286
155.789	17.221	1248.759	941.963
156.804	17.201	1248.355	941.469
157.819	17.246	1247.010	940.618
158.833	17.171	1246.598	939.807
159.848	17.422	1245.457	940.251
160.862	17.282	1244.930	938.997
161.877	17.083	1243.212	936.520
162.892	16.902	1242.156	934.645
163.906	16.931	1240.960	933.824
164.921	17.017	1239.898	933.411
165.935	17.151	1238.765	933.214
166.950	17.181	1238.400	933.020
167.964	17.100	1237.934	932.146
168.979	17.093	1236.951	931.281
169.994	17.121	1236.494	931.009
171.008	17.112	1235.354	930.018
172.023	17.132	1234.553	929.446
173.037	17.334	1234.180	930.186
174.052	17.271	1233.126	928.964
175.067	17.189	1231.631	927.308
176.081	17.055	1230.286	925.483
177.096	16.955	1230.513	925.029
178.110	17.045	1229.351	924.560
179.125	17.131	1227.630	923.652
180.140	17.114	1226.724	922.800
181.154	17.291	1225.103	922.457
182.169	17.304	1224.272	921.820
183.183	17.456	1223.055	921.647
184.198	17.455	1221.958	920.732
185.213	17.320	1221.342	919.455
186.227	17.470	1220.212	919.334
187.242	17.491	1219.362	918.725
188.256	17.593	1218.025	918.188
189.271	17.601	1216.860	917.271
190.286	17.424	1215.808	915.446
191.300	17.112	1215.056	913.119
192.315	16.904	1214.260	911.324
193.329	16.899	1214.068	911.072
194.344	17.072	1213.235	911.293
195.359	17.217	1212.760	911.637
196.373	17.324	1212.475	911.913
197.388	17.381	1211.966	911.759
198.402	17.463	1211.729	911.938
199.417	17.593	1211.151	912.115
200.432	17.806	1210.099	912.383
201.446	17.810	1209.391	911.792
202.461	17.869	1208.905	911.659
203.475	17.953	1207.535	910.992
204.490	17.628	1206.300	908.249
205.504	17.599	1204.687	906.800
206.519	17.582	1203.666	905.860
207.534	17.564	1202.825	905.051
208.548	17.447	1202.081	903.789
209.563	17.652	1200.622	903.698
210.577	17.614	1199.860	902.846
211.592	17.699	1199.029	902.591
212.607	17.850	1197.956	902.499
213.621	17.895	1197.567	902.364
214.636	17.780	1196.557	900.920
215.650	17.786	1195.680	900.207
216.665	17.834	1194.897	899.796
217.680	18.059	1193.870	900.125
218.694	18.041	1193.004	899.301
219.709	17.919	1192.524	898.214
220.723	17.902	1191.632	897.376
221.738	17.839	1191.548	896.902
222.753	17.961	1189.878	896.203
223.767	17.904	1189.460	895.512
224.782	17.995	1189.853	896.207
225.796	18.040	1188.606	895.422
226.811	18.098	1187.816	895.052
227.826	17.883	1186.996	893.230
228.840	17.977	1186.399	893.195
229.855	17.854	1185.849	892.055
230.869	17.972	1184.733	891.757
231.884	17.746	1183.942	889.901
232.899	17.918	1182.935	889.962
233.913	17.795	1182.101	888.614
234.928	17.748	1181.555	887.880
235.942	17.768	1180.312	886.971
236.957	17.761	1179.711	886.407
237.972	17.711	1179.087	885.602
238.986	17.833	1178.640	885.817
240.001	17.806	1177.881	885.031
241.015	17.829	1177.012	884.417
242.030	17.972	1176.100	884.394
243.045	17.980	1175.431	883.854
244.059	17.986	1174.866	883.383
245.074	18.106	1173.937	883.230
246.088	18.040	1173.486	882.467
247.103	18.169	1172.433	882.265
248.117	18.320	1171.732	882.436
249.132	18.375	1171.019	882.107
250.147	18.487	1170.833	882.464
251.161	18.706	1169.564	882.554
252.176	18.528	1169.508	881.520
253.190	18.631	1168.902	881.517
254.205	18.777	1167.929	881.451
255.220	18.735	1167.547	880.868
256.234	18.705	1166.610	879.932
257.249	18.714	1166.167	879.564
258.263	18.642	1165.689	878.756
259.278	18.639	1165.043	878.180
260.293	18.743	1164.008	877.851
261.307	18.775	1163.502	877.554
262.322	18.765	1163.052	877.086
263.336	18.762	1162.332	876.454
264.351	18.873	1161.859	876.586
265.366	18.843	1161.344	875.967
266.380	18.855	1160.127	875.031
267.395	18.854	1159.032	874.121
268.409	18.718	1158.735	873.132
269.424	18.691	1157.882	872.272
270.439	18.717	1157.386	871.954
271.453	18.820	1156.228	871.526
272.468	18.656	1155.391	869.988
273.482	18.594	1154.870	869.202
274.497	18.661	1154.486	869.179
275.512	18.735	1153.765	868.933
276.526	18.575	1153.055	867.509
277.541	18.731	1152.206	867.584
278.555	18.803	1151.163	867.084
279.570	18.784	1150.907	866.720
280.585	18.992	1149.890	866.924
281.599	19.008	1148.769	866.084
282.614	18.840	1148.026	864.603
283.628	18.877	1146.423	863.503
284.643	18.803	1145.987	862.728
285.657	18.881	1145.132	862.398
286.672	18.790	1144.233	861.192
287.687	18.857	1143.241	860.703
288.701	18.806	1142.891	860.106
289.716	18.908	1142.033	859.898
290.730	18.818	1141.311	858.827
291.745	19.003	1140.406	858.996
292.760	18.900	1140.053	858.138
293.774	19.045	1139.556	858.411
294.789	18.922	1139.453	857.643
295.803	19.038	1138.440	857.383
296.818	18.993	1136.986	855.986
297.833	18.808	1136.221	854.419
298.847	18.903	1136.191	854.791
299.862	18.963	1134.806	853.969
300.876	19.017	1134.244	853.742
301.891	19.034	1133.388	853.103
302.906	19.230	1132.908	853.639
303.920	19.157	1132.280	852.732
304.935	19.333	1131.801	853.165
305.949	19.499	1131.009	853.312
306.964	19.398	1130.629	852.450
307.979	19.299	1129.795	851.256
308.993	19.342	1128.882	850.706
310.008	19.337	1128.200	850.094
311.022	19.410	1127.287	849.689
312.037	19.318	1126.888	848.863
313.052	19.213	1125.624	847.318
314.066	19.136	1124.721	846.184
315.081	19.073	1123.345	844.766
316.095	18.987	1123.068	844.062
317.110	18.999	1122.701	843.766
318.125	19.084	1121.505	843.210
319.139	19.037	1120.913	842.463
320.154	19.048	1119.988	841.746
321.168	19.067	1119.359	841.291
322.183	19.085	1119.029	841.057
323.197	19.087	1118.563	840.642
324.212	19.190	1117.974	840.625
325.227	19.291	1116.884	840.224
326.241	19.187	1116.680	839.491
327.256	19.230	1115.779	838.949
328.270	19.147	1114.767	837.708
329.285	19.101	1114.136	836.938
330.300	19.222	1112.645	836.333
331.314	19.196	1112.013	835.655
332.329	19.229	1110.577	834.661
333.343	19.179	1110.384	834.203
334.358	19.381	1109.387	834.357
335.373	19.404	1108.591	833.795
336.387	19.409	1108.229	833.473
337.402	19.334	1107.884	832.778
338.416	19.447	1107.032	832.608
339.431	19.541	1106.334	832.465
340.446	19.604	1105.764	832.265
341.460	19.766	1105.243	832.578
342.475	19.779	1104.823	832.249
343.489	19.787	1103.717	831.385
344.504	19.858	1102.672	830.865
345.519	19.887	1101.721	830.211
346.533	19.928	1101.210	829.953
347.548	19.982	1100.146	829.332
348.562	19.883	1099.668	828.425
349.577	19.743	1098.758	826.996
350.592	19.615	1098.080	825.804
351.606	19.603	1096.951	824.823
352.621	19.510	1096.421	823.905
353.635	19.505	1095.438	823.073
354.650	19.599	1094.623	822.834
355.665	19.599	1094.170	822.420
356.679	19.685	1093.746	822.441
357.694	19.752	1093.085	822.186
358.708	19.838	1092.361	821.980
359.723	19.821	1091.722	821.347
360.738	19.779	1091.156	820.646
361.752	19.791	1090.821	820.381
362.767	19.777	1090.044	819.657
363.781	19.888	1089.317	819.564
364.796	19.972	1088.877	819.558
365.810	20.101	1088.508	819.818
366.825	20.074	1087.745	819.043
367.840	20.235	1087.561	819.593
368.854	20.395	1086.894	819.772
369.869	20.358	1086.001	818.853
370.883	20.175	1085.099	817.238
371.898	20.020	1084.430	815.929
372.913	20.004	1084.204	815.614
373.927	20.143	1083.437	815.617
374.942	20.275	1082.958	815.803
375.956	20.261	1082.371	815.223
376.971	20.126	1081.662	813.984
377.986	20.268	1081.241	814.264
379.000	20.364	1080.463	814.056
380.015	20.352	1080.271	813.784
381.029	20.402	1079.800	813.589
382.044	20.423	1078.791	812.855
383.059	20.403	1077.627	811.815
384.073	20.368	1077.278	811.316
385.088	20.428	1076.213	810.719
386.102	20.453	1075.203	810.005
387.117	20.345	1074.022	808.539
388.132	20.241	1072.962	807.185
389.146	20.170	1072.507	806.445
390.161	20.190	1071.562	805.753
391.175	20.325	1070.617	805.597
392.190	20.392	1070.298	805.600
393.205	20.536	1069.895	805.890
394.219	20.449	1068.782	804.578
395.234	20.376	1067.674	803.337
396.248	20.190	1066.984	801.884
397.263	20.423	1065.304	801.626
398.278	20.262	1065.101	800.663
399.292	20.120	1064.236	799.283
400.307	20.154	1063.138	798.546
401.321	20.204	1063.125	798.697
402.336	20.076	1062.340	797.445
403.350	20.178	1061.945	797.548
404.365	20.147	1061.526	797.020
405.380	20.391	1060.360	797.197
406.394	20.451	1059.670	796.882
407.409	20.553	1058.664	796.523
408.423	20.724	1057.759	796.554
409.438	20.652	1057.344	795.842
410.453	20.668	1057.024	795.604
411.467	20.771	1056.621	795.699
412.482	20.850	1055.606	795.224
413.496	20.814	1054.944	794.492
414.511	20.885	1054.167	794.162
415.526	20.836	1054.902	794.420
416.540	20.894	1054.055	793.977
417.555	21.003	1052.996	793.606
418.569	20.919	1052.194	792.550
419.584	20.779	1051.874	791.601
420.599	20.886	1051.379	791.643
421.613	155.577	1404.634	1797.024
422.628	142.704	1456.069	1797.104
