DTS Sentinel unit serial number:	SN413079Multiplexer serial number:	ORYXHardware model number:	OX4-SRSoftware version number:	ORYX F/W v4.00 Oryx Data Collector v3.7.2.0data status	okinstallation	princeton_trtdifferential loss correction	single-endedforward channel	channel 2reverse channel	N/Adate	2019/09/12time	10:17:11forward acquisition time	60.00reverse acquisition time	0.00gamma	496.2192k internal	0.2313k external	0.2313temperature offset calibration	1.0066default loss term (dB/km)	0.3790temperature slope calibration	1.0000multiplexer offset coefficient	1.0000multiplexer slope coefficient	1.0000fibre end	0.00T internal ref (°C)	36.59T ext. ref 1 (°C)	1.85T ext. ref 2 (°C)	34.35length (m)	temperature (°C)	Stokes	anti-Stokes-747.200	81.958	0.076	-0.084
-746.185	-200.000	0.073	0.397
-745.171	365.853	-0.160	0.328
-744.156	409.214	-0.070	0.151
-743.142	-200.000	0.037	-0.199
-742.127	124.523	-0.169	0.216
-741.112	686.678	0.056	0.148
-740.098	-200.000	-0.000	0.166
-739.083	-200.000	-0.012	0.422
-738.069	373.505	-0.106	0.219
-737.054	-84.954	0.155	-0.049
-736.039	-85.929	0.177	-0.056
-735.025	-200.000	-0.048	0.279
-734.010	2.371	-0.091	0.067
-732.996	-200.000	-0.044	-0.333
-731.981	89.144	-0.163	-0.184
-730.966	800.000	0.065	0.184
-729.952	-200.000	0.000	0.007
-728.937	-20.031	-0.310	-0.194
-727.923	106.550	-0.124	0.149
-726.908	-89.583	-0.196	0.058
-725.894	-192.526	-0.232	0.002
-724.879	97.088	0.246	-0.286
-723.864	-30.294	0.147	-0.085
-722.850	-51.291	-0.267	-0.127
-721.835	123.712	0.195	0.249
-720.821	-68.239	0.274	0.108
-719.806	-126.464	-0.337	0.051
-718.791	-153.689	-0.241	-0.017
-717.777	111.252	0.113	0.138
-716.762	-200.000	-0.000	-0.052
-715.748	537.821	0.131	-0.316
-714.733	783.151	-0.107	-0.297
-713.718	47.877	-0.122	-0.115
-712.704	367.796	0.129	-0.263
-711.689	-200.000	-0.019	-0.098
-710.675	277.826	0.021	0.038
-709.660	93.252	0.199	0.227
-708.645	723.299	0.042	0.114
-707.631	-21.680	-0.057	0.035
-706.616	100.691	-0.110	-0.130
-705.602	158.012	-0.212	-0.297
-704.587	446.492	-0.204	-0.454
-703.572	-158.163	-0.319	-0.019
-702.558	-190.400	-0.192	-0.002
-701.543	-58.332	-0.366	0.161
-700.529	-126.500	0.057	0.009
-699.514	30.222	-0.180	0.156
-698.499	-168.878	0.085	0.003
-697.485	-83.346	0.232	-0.075
-696.470	-200.000	-0.014	-0.157
-695.456	-64.505	0.118	-0.049
-694.441	-75.494	0.201	-0.072
-693.426	800.000	-0.051	0.203
-692.412	800.000	0.093	-0.273
-691.397	54.024	0.067	0.065
-690.383	-21.618	0.182	0.112
-689.368	42.575	-0.440	0.405
-688.354	191.168	-0.116	0.176
-687.339	-200.000	-0.006	-0.130
-686.324	196.122	-0.166	-0.256
-685.310	-200.000	0.011	0.151
-684.295	1.819	0.075	0.055
-683.281	-181.394	-0.147	0.003
-682.266	800.000	-0.089	0.309
-681.251	269.874	0.119	0.212
-680.237	-82.255	0.067	0.022
-679.222	4.970	-0.266	0.198
-678.208	-107.548	-0.118	0.026
-677.193	396.146	-0.109	0.229
-676.178	493.823	0.046	0.106
-675.164	-1.083	0.187	-0.134
-674.149	276.157	-0.084	0.150
-673.135	142.273	0.182	0.244
-672.120	-200.000	0.023	-0.229
-671.105	259.569	-0.071	0.124
-670.091	35.490	0.105	0.094
-669.076	166.555	0.078	-0.112
-668.062	176.824	-0.079	0.116
-667.047	800.000	-0.120	0.338
-666.032	365.023	-0.122	-0.249
-665.018	4.342	-0.197	-0.146
-664.003	298.948	-0.123	0.228
-662.989	38.113	-0.102	0.091
-661.974	-200.000	0.024	-0.230
-660.959	61.259	0.288	0.290
-659.945	-20.129	-0.097	0.061
-658.930	151.681	0.162	0.224
-657.916	-96.601	0.130	-0.035
-656.901	-69.501	0.339	-0.132
-655.886	121.422	-0.158	0.199
-654.872	226.327	-0.171	0.280
-653.857	117.147	0.120	-0.149
-652.843	-200.000	0.027	0.328
-651.828	240.723	0.168	0.283
-650.814	800.000	-0.070	0.215
-649.799	-130.940	-0.195	0.026
-648.784	6.651	-0.309	-0.232
-647.770	800.000	-0.105	-0.296
-646.755	79.704	-0.173	0.188
-645.741	-200.000	-0.078	-0.466
-644.726	48.763	-0.105	-0.100
-643.711	80.578	0.214	-0.233
-642.697	2.226	-0.174	-0.127
-641.682	-17.750	-0.165	-0.104
-640.668	-106.668	-0.005	-0.001
-639.653	-200.000	0.004	0.102
-638.638	-1.106	0.177	-0.126
-637.624	-123.301	0.247	-0.040
-636.609	407.773	0.055	-0.117
-635.595	70.569	-0.280	-0.293
-634.580	202.086	-0.128	0.199
-633.565	-172.761	-0.086	-0.003
-632.551	-25.413	-0.225	-0.134
-631.536	-200.000	0.053	-0.261
-630.522	-200.000	-0.039	0.180
-629.507	-200.000	-0.007	0.033
-628.492	19.221	0.255	0.206
-627.478	27.186	-0.287	0.243
-626.463	48.316	0.369	-0.349
-625.449	309.696	-0.109	-0.206
-624.434	60.271	0.052	-0.052
-623.419	-200.000	0.017	-0.186
-622.405	-200.000	0.007	-0.147
-621.390	101.287	0.164	0.193
-620.376	-200.000	0.007	-0.050
-619.361	431.297	-0.057	0.124
-618.346	800.000	0.046	-0.197
-617.332	-200.000	-0.002	-0.217
-616.317	-200.000	0.039	0.247
-615.303	-53.576	0.123	-0.057
-614.288	269.519	-0.163	-0.288
-613.273	-97.918	-0.212	0.055
-612.259	-93.015	0.098	0.028
-611.244	-39.071	0.178	0.095
-610.230	-16.845	0.156	-0.099
-609.215	-34.225	0.227	-0.126
-608.201	13.608	0.080	-0.063
-607.186	-200.000	-0.060	-0.362
-606.171	-200.000	0.006	-0.057
-605.157	-88.702	0.223	0.067
-604.142	-148.126	0.412	0.034
-603.128	-154.259	-0.270	0.018
-602.113	199.166	0.133	-0.206
-601.098	3.090	0.072	0.052
-600.084	31.694	-0.021	-0.019
-599.069	-160.721	-0.057	0.003
-598.055	-98.719	-0.099	-0.026
-597.040	-19.956	-0.187	-0.116
-596.025	163.081	-0.148	-0.209
-595.011	-111.578	-0.217	0.044
-593.996	-200.000	-0.009	-0.053
-592.982	-121.728	0.128	-0.021
-591.967	-107.034	-0.054	0.012
-590.952	284.990	-0.175	-0.318
-589.938	43.536	0.280	0.258
-588.923	29.287	-0.278	-0.238
-587.909	366.393	-0.087	-0.177
-586.894	-43.315	-0.296	0.151
-585.879	-200.000	0.009	0.101
-584.865	-200.000	-0.056	0.298
-583.850	-135.862	0.306	-0.036
-582.836	-28.192	0.197	0.115
-581.821	-200.000	0.059	-0.286
-580.806	689.661	-0.059	0.156
-579.792	374.733	-0.089	0.184
-578.777	141.744	-0.216	0.289
-577.763	-61.177	0.402	0.171
-576.748	57.925	-0.253	0.249
-575.733	-34.336	-0.055	0.030
-574.719	-25.280	-0.454	0.271
-573.704	150.173	0.118	-0.161
-572.690	70.329	-0.097	0.101
-571.675	800.000	0.030	0.116
-570.661	800.000	0.048	0.195
-569.646	-200.000	0.020	0.108
-568.631	-25.135	0.241	0.144
-567.617	27.001	-0.135	-0.114
-566.602	-96.300	0.118	0.031
-565.588	-63.930	0.309	-0.127
-564.573	-27.938	0.260	-0.152
-563.558	-140.985	0.498	0.051
-562.544	800.000	-0.101	-0.317
-561.529	-83.012	-0.165	0.054
-560.515	-70.087	0.321	0.123
-559.500	-200.000	0.030	0.165
-558.485	24.327	0.394	-0.328
-557.471	90.327	-0.133	0.150
-556.456	21.555	0.048	0.039
-555.442	229.488	-0.100	-0.165
-554.427	800.000	-0.049	0.138
-553.412	-65.967	-0.375	0.151
-552.398	10.262	-0.248	0.190
-551.383	-127.482	0.169	-0.025
-550.369	242.368	0.072	0.122
-549.354	-200.000	-0.067	-0.453
-548.339	-52.928	0.466	0.216
-547.325	-200.000	0.044	-0.402
-546.310	163.241	-0.191	-0.270
-545.296	800.000	-0.054	0.190
-544.281	800.000	-0.041	0.124
-543.266	-138.555	0.167	-0.018
-542.252	6.710	-0.233	0.174
-541.237	-9.134	0.365	-0.246
-540.223	147.205	0.122	0.165
-539.208	-43.956	0.036	-0.018
-538.193	-39.181	-0.281	-0.148
-537.179	-36.529	0.297	-0.161
-536.164	-140.275	0.348	-0.037
-535.150	374.889	-0.045	0.092
-534.135	50.360	0.292	0.278
-533.121	800.000	-0.040	0.130
-532.106	-42.323	-0.521	0.268
-531.091	324.921	0.103	0.198
-530.077	147.519	0.189	0.256
-529.062	72.049	0.065	-0.068
-528.048	42.469	0.164	-0.150
-527.033	59.148	-0.217	0.215
-526.018	-18.720	-0.235	0.147
-525.004	-40.204	0.069	-0.036
-523.989	166.534	-0.246	-0.350
-522.975	224.246	-0.053	-0.086
-521.960	-127.465	0.114	-0.017
-520.945	-200.000	-0.001	0.231
-519.931	382.645	-0.028	-0.059
-518.916	200.039	-0.192	-0.297
-517.902	-68.197	-0.229	-0.090
-516.887	-138.571	0.132	-0.015
-515.872	800.000	0.057	0.170
-514.858	-200.000	-0.051	-0.332
-513.843	-26.222	0.329	0.194
-512.829	596.376	0.048	0.120
-511.814	45.854	0.096	0.090
-510.799	-200.000	0.068	0.318
-509.785	-200.000	-0.013	0.256
-508.770	-153.278	0.103	0.007
-507.756	606.621	0.014	-0.034
-506.741	-71.789	0.191	-0.071
-505.726	8.984	0.140	-0.106
-504.712	38.829	-0.327	-0.294
-503.697	-200.000	-0.001	0.212
-502.683	432.873	-0.082	-0.179
-501.668	19.563	0.385	0.311
-500.653	-39.461	0.113	0.060
-499.639	-105.357	-0.141	0.032
-498.624	-200.000	0.002	-0.088
-497.610	-200.000	0.002	-0.109
-496.595	18.504	0.145	0.116
-495.581	494.483	0.075	-0.174
-494.566	-46.108	-0.055	0.027
-493.551	-142.429	0.212	-0.021
-492.537	-200.000	-0.048	-0.430
-491.522	50.514	0.157	-0.150
-490.508	-171.118	-0.206	-0.007
-489.493	-200.000	0.015	0.086
-488.478	-200.000	-0.215	0.000
-487.464	-200.000	-0.038	0.438
-486.449	386.750	-0.049	-0.102
-485.435	-15.633	-0.248	-0.159
-484.420	-200.000	-0.071	-0.411
-483.405	49.912	0.338	0.320
-482.391	-37.205	-0.348	-0.187
-481.376	29.177	-0.135	-0.115
-480.362	591.931	-0.106	-0.263
-479.347	-3.945	0.132	-0.092
-478.332	-200.000	-0.037	0.200
-477.318	93.480	0.113	-0.129
-476.303	55.334	-0.108	-0.105
-475.289	-35.095	-0.087	-0.047
-474.274	-200.000	0.003	-0.087
-473.259	-200.000	-0.001	0.108
-472.245	4.457	0.201	0.148
-471.230	-21.768	-0.135	0.082
-470.216	283.659	0.163	0.294
-469.201	182.064	0.073	-0.108
-468.186	-66.021	0.300	0.120
-467.172	-139.201	-0.234	-0.025
-466.157	36.799	-0.081	0.072
-465.143	-107.950	0.304	0.066
-464.128	-102.449	-0.370	-0.089
-463.113	-200.000	-0.023	-0.409
-462.099	-23.300	0.254	-0.153
-461.084	-200.000	-0.007	0.217
-460.070	-39.102	-0.251	-0.132
-459.055	182.758	0.099	-0.146
-458.040	-200.000	0.018	0.265
-457.026	3.908	-0.279	0.205
-456.011	-200.000	-0.015	0.297
-454.997	230.964	0.062	-0.102
-453.982	-200.000	0.016	-0.076
-452.968	177.666	-0.267	-0.390
-451.953	-200.000	-0.009	0.047
-450.938	-47.025	-0.158	-0.077
-449.924	341.208	0.130	0.254
-448.909	37.638	-0.066	0.059
-447.895	-169.093	0.212	-0.008
-446.880	59.943	0.094	-0.093
-445.865	-97.233	-0.282	-0.074
-444.851	-112.214	-0.236	0.047
-443.836	800.000	0.043	-0.173
-442.822	-66.553	0.308	-0.122
-441.807	464.073	0.105	-0.236
-440.792	23.194	-0.270	-0.222
-439.778	29.774	-0.078	0.066
-438.763	-105.408	0.037	-0.009
-437.749	-133.841	-0.077	0.010
-436.734	-106.282	-0.207	-0.046
-435.719	-200.000	0.001	0.019
-434.705	-200.000	-0.016	0.076
-433.690	-11.369	0.254	-0.167
-432.676	800.000	-0.055	-0.203
-431.661	800.000	0.045	0.156
-430.646	59.063	-0.099	-0.098
-429.632	-19.576	-0.290	-0.180
-428.617	-92.475	0.233	-0.066
-427.603	155.377	0.076	-0.105
-426.588	133.652	-0.299	0.388
-425.573	-200.000	-0.011	-0.497
-424.559	106.141	-0.164	-0.194
-423.544	-61.811	-0.201	-0.084
-422.530	800.000	0.016	-0.053
-421.515	-144.904	-0.319	0.029
-420.500	-200.000	0.030	-0.186
-419.486	167.387	-0.057	-0.081
-418.471	112.767	0.094	-0.114
-417.457	-53.072	0.180	-0.083
-416.442	800.000	0.034	-0.146
-415.428	118.241	0.110	0.136
-414.413	86.139	-0.085	0.094
-413.398	188.033	-0.028	-0.041
-412.384	-200.000	-0.004	-0.096
-411.369	-93.780	0.033	-0.009
-410.355	-131.874	0.048	0.006
-409.340	123.821	-0.239	-0.300
-408.325	-200.000	0.025	-0.366
-407.311	-57.004	-0.201	0.089
-406.296	182.294	-0.081	0.119
-405.282	630.501	-0.036	-0.091
-404.267	361.357	0.128	-0.258
-403.252	-200.000	-0.024	0.218
-402.238	70.078	-0.076	0.079
-401.223	-102.230	-0.150	-0.036
-400.209	59.283	-0.145	0.143
-399.194	-44.323	0.198	-0.099
-398.179	50.037	-0.088	0.083
-397.165	-19.019	0.286	0.178
-396.150	598.581	-0.048	-0.118
-395.136	235.897	-0.146	-0.242
-394.121	-89.122	0.118	-0.035
-393.106	342.972	-0.226	0.444
-392.092	800.000	0.093	0.316
-391.077	20.209	-0.413	0.334
-390.063	194.122	-0.176	-0.267
-389.048	437.389	-0.168	0.366
-388.033	-200.000	-0.008	-0.055
-387.019	-200.000	0.005	-0.056
-386.004	375.782	0.092	0.188
-384.990	-66.745	-0.113	-0.045
-383.975	74.732	-0.158	0.166
-382.960	-110.571	0.212	-0.044
-381.946	20.134	0.106	0.085
-380.931	800.000	-0.034	0.106
-379.917	-7.388	0.039	0.027
-378.902	-100.904	-0.292	0.072
-377.888	117.527	-0.132	-0.163
-376.873	-13.009	-0.085	-0.055
-375.858	800.000	-0.049	-0.164
-374.844	248.622	0.155	-0.262
-373.829	11.224	-0.101	-0.077
-372.815	208.000	0.163	0.255
-371.800	800.000	-0.050	-0.170
-370.785	142.583	-0.158	-0.210
-369.771	295.816	0.020	-0.036
-368.756	-10.747	-0.284	0.188
-367.742	184.142	-0.119	-0.176
-366.727	-76.722	0.383	0.134
-365.712	9.318	0.136	0.103
-364.698	65.876	-0.144	-0.146
-363.683	800.000	-0.041	0.115
-362.669	185.166	-0.121	0.179
-361.654	-62.425	-0.208	-0.086
-360.639	156.709	-0.382	-0.527
-359.625	-78.293	0.014	0.005
-358.610	-127.299	0.340	-0.050
-357.596	-146.613	0.338	0.029
-356.581	-9.117	0.150	-0.100
-355.566	446.538	0.146	0.321
-354.552	-200.000	0.002	0.028
-353.537	99.197	0.089	0.102
-352.523	-200.000	0.015	-0.073
-351.508	-200.000	-0.024	0.284
-350.493	56.551	0.042	0.040
-349.479	-200.000	-0.266	0.001
-348.464	800.000	0.155	0.499
-347.450	-71.896	0.344	0.128
-346.435	73.545	0.086	-0.090
-345.420	-162.198	0.100	0.005
-344.406	38.920	-0.101	-0.090
-343.391	-124.652	0.156	-0.024
-342.377	704.343	-0.115	0.302
-341.362	180.049	-0.133	0.194
-340.348	-200.000	-0.019	-0.354
-339.333	-200.000	0.010	-0.118
-338.318	247.665	0.207	-0.350
-337.304	482.590	-0.085	-0.193
-336.289	-100.568	-0.334	0.082
-335.275	670.704	-0.086	0.224
-334.260	-181.556	0.033	-0.001
-333.245	151.257	0.115	-0.156
-332.231	56.452	0.156	0.151
-331.216	30.174	0.209	0.178
-330.202	800.000	-0.091	0.384
-329.187	-200.000	0.049	-0.236
-328.172	-109.046	0.242	-0.051
-327.158	-36.117	0.407	0.219
-326.143	222.697	-0.080	0.128
-325.129	-76.641	-0.164	0.058
-324.114	97.985	0.061	0.070
-323.099	661.110	-0.168	-0.432
-322.085	277.379	0.054	-0.095
-321.070	146.813	0.148	0.199
-320.056	60.939	-0.089	-0.088
-319.041	-9.766	0.295	0.196
-318.026	154.302	-0.097	-0.133
-317.012	-54.379	0.139	0.063
-315.997	-86.926	-0.227	0.069
-314.983	201.372	-0.231	0.355
-313.968	800.000	0.091	0.250
-312.953	800.000	-0.066	0.237
-311.939	800.000	0.031	0.125
-310.924	-200.000	0.027	0.317
-309.910	-28.182	0.205	0.118
-308.895	-114.324	0.147	0.028
-307.880	-142.074	0.177	-0.018
-306.866	-29.948	0.331	-0.188
-305.851	40.049	0.179	-0.160
-304.837	800.000	0.074	0.236
-303.822	-200.000	-0.008	-0.160
-302.807	800.000	-0.043	0.148
-301.793	-200.000	-0.048	0.324
-300.778	3.738	0.228	0.166
-299.764	-200.000	0.039	-0.369
-298.749	-200.000	-0.012	-0.155
-297.735	-118.427	-0.184	0.032
-296.720	90.392	0.276	-0.308
-295.705	-20.972	0.172	0.105
-294.691	-200.000	0.036	0.224
-293.676	415.174	-0.007	-0.014
-292.662	-200.000	-0.031	-0.424
-291.647	570.264	-0.068	0.165
-290.632	-115.770	0.117	0.022
-289.618	-189.236	-0.148	0.002
-288.603	-31.907	0.208	0.116
-287.589	800.000	0.102	0.280
-286.574	48.004	0.108	-0.101
-285.559	-119.922	0.237	-0.041
-284.545	-200.000	-0.053	-0.242
-283.530	-8.780	0.029	0.019
-282.516	128.596	-0.338	-0.429
-281.501	800.000	-0.082	-0.299
-280.486	-174.187	0.311	0.009
-279.472	-200.000	0.003	-0.206
-278.457	-200.000	0.050	-0.318
-277.443	104.053	0.126	-0.148
-276.428	332.074	-0.121	-0.232
-275.413	-91.647	-0.334	-0.095
-274.399	422.211	-0.115	0.245
-273.384	38.742	-0.276	0.246
-272.370	800.000	0.041	0.135
-271.355	-30.662	-0.064	0.036
-270.340	741.892	-0.107	-0.287
-269.326	800.000	0.103	0.349
-268.311	-25.140	-0.040	0.024
-267.297	-80.261	-0.269	-0.090
-266.282	75.459	-0.171	-0.180
-265.267	-115.657	0.189	0.035
-264.253	153.580	0.112	0.153
-263.238	-200.000	-0.047	0.336
-262.224	532.891	-0.064	-0.150
-261.209	137.363	0.065	-0.085
-260.195	-13.928	0.304	-0.195
-259.180	295.517	-0.087	0.158
-258.165	800.000	0.006	0.022
-257.151	498.623	-0.014	-0.032
-256.136	187.224	0.063	0.094
-255.122	-83.261	-0.102	0.032
-254.107	-200.000	-0.035	-0.262
-253.092	-4.983	0.092	0.063
-252.078	155.248	0.095	0.130
-251.063	275.812	0.220	0.389
-250.049	26.399	-0.119	0.099
-249.034	800.000	0.115	-0.349
-248.019	655.744	0.086	-0.220
-247.005	-31.347	0.344	0.192
-245.990	406.977	-0.044	0.093
-244.976	72.950	0.085	-0.089
-243.961	-141.753	0.113	-0.011
-242.946	-200.000	0.089	0.000
-241.932	481.014	-0.108	-0.243
-240.917	159.231	-0.111	0.153
-239.903	-61.062	0.125	-0.052
-238.888	-200.000	0.010	0.057
-237.873	29.556	-0.072	0.061
-236.859	-74.490	-0.157	0.056
-235.844	-200.000	-0.069	0.365
-234.830	-81.394	0.241	-0.079
-233.815	54.304	0.204	0.195
-232.800	-8.478	-0.173	0.116
-231.786	-89.430	-0.345	-0.101
-230.771	-40.550	0.134	0.069
-229.757	515.599	0.041	0.094
-228.742	-71.306	0.348	0.130
-227.727	73.872	0.091	-0.095
-226.713	-200.000	0.007	-0.271
-225.698	9.119	-0.155	0.116
-224.684	70.266	-0.201	0.207
-223.669	-200.000	-0.002	0.087
-222.655	-127.523	0.308	0.044
-221.640	496.151	0.121	-0.276
-220.625	800.000	-0.095	0.303
-219.611	306.499	-0.112	0.208
-218.596	-71.526	0.104	-0.038
-217.582	75.212	0.023	0.024
-216.567	245.005	-0.130	0.218
-215.552	-114.274	-0.071	-0.014
-214.538	-63.606	-0.251	-0.102
-213.523	170.490	-0.216	0.308
-212.509	-55.418	-0.299	-0.133
-211.494	11.722	-0.159	-0.121
-210.479	-42.393	0.106	0.054
-209.465	-167.938	-0.334	0.013
-208.450	238.575	-0.021	-0.035
-207.436	-80.838	0.632	0.208
-206.421	800.000	-0.046	-0.143
-205.406	31.745	-0.020	0.017
-204.392	77.880	-0.229	0.242
-203.377	-200.000	-0.007	-0.038
-202.363	238.401	0.029	0.049
-201.348	-31.103	-0.251	0.141
-200.333	790.735	0.037	-0.100
-199.319	-93.218	0.333	0.092
-198.304	28.013	0.101	-0.084
-197.290	292.552	0.078	0.141
-196.275	-68.842	0.271	0.104
-195.260	800.000	0.049	0.169
-194.246	637.404	-0.085	-0.215
-193.231	-200.000	0.021	-0.157
-192.217	265.009	-0.219	-0.379
-191.202	-148.742	0.305	0.025
-190.187	178.772	0.078	-0.113
-189.173	800.000	-0.046	0.173
-188.158	437.085	0.089	0.192
-187.144	-11.331	-0.322	0.211
-186.129	-200.000	-0.021	0.113
-185.114	800.000	-0.070	-0.262
-184.100	800.000	0.046	-0.183
-183.085	98.511	0.022	0.025
-182.071	153.129	-0.418	0.568
-181.056	800.000	-0.043	0.160
-180.042	64.867	0.273	0.273
-179.027	-38.522	-0.268	0.141
-178.012	800.000	-0.055	0.186
-176.998	19.783	-0.215	-0.172
-175.983	353.383	-0.129	0.254
-174.969	-32.078	-0.352	0.195
-173.954	-133.294	0.260	-0.033
-172.939	-200.000	0.017	-0.440
-171.925	-64.270	-0.140	0.057
-170.910	8.492	-0.268	0.200
-169.896	-200.000	-0.048	0.278
-168.881	-200.000	0.000	-0.137
-167.866	-48.298	0.134	0.064
-166.852	333.657	0.095	-0.182
-165.837	-188.350	-0.139	0.002
-164.823	-155.795	0.127	-0.008
-163.808	-120.179	-0.235	0.040
-162.793	93.200	0.047	0.053
-161.779	244.873	0.172	-0.287
-160.764	-200.000	-0.046	0.214
-159.750	-156.231	-0.087	0.005
-158.735	-23.264	0.183	-0.109
-157.720	-81.687	0.098	-0.032
-156.706	800.000	0.007	0.030
-155.691	-46.480	-0.380	0.185
-154.677	-140.226	0.281	0.029
-153.662	78.980	0.126	0.134
-152.647	499.849	0.084	-0.193
-151.633	-58.517	0.190	0.082
-150.618	-200.000	-0.013	-0.241
-149.604	212.027	0.084	-0.131
-148.589	-121.936	0.261	0.043
-147.574	-119.559	0.124	-0.021
-146.560	-200.000	0.040	0.325
-145.545	27.396	-0.167	0.139
-144.531	-68.566	-0.342	-0.131
-143.516	-98.705	0.212	-0.054
-142.502	163.450	-0.169	0.236
-141.487	-95.786	-0.307	0.081
-140.472	-13.065	-0.080	-0.052
-139.458	-116.085	0.244	0.045
-138.443	95.363	0.149	0.168
-137.429	104.468	0.137	0.160
-136.414	18.322	-0.202	0.159
-135.399	-200.000	-0.013	0.235
-134.385	800.000	-0.029	0.112
-133.370	-200.000	0.031	0.261
-132.356	-200.000	-0.007	0.176
-131.341	-200.000	-0.017	0.151
-130.326	-108.768	-0.044	0.009
-129.312	219.005	-0.033	0.053
-128.297	327.533	-0.140	-0.267
-127.283	-146.616	-0.132	-0.011
-126.268	-60.266	0.143	0.060
-125.253	4.785	-0.103	0.075
-124.239	-200.000	-0.020	-0.171
-123.224	800.000	-0.160	0.575
-122.210	369.470	-0.174	-0.349
-121.195	-25.307	0.087	-0.051
-120.180	800.000	-0.082	-0.231
-119.166	141.463	-0.267	-0.349
-118.151	198.615	0.066	0.101
-117.137	536.299	0.065	-0.152
-116.122	-179.636	0.092	-0.002
-115.107	205.932	0.088	0.135
-114.093	349.904	-0.079	0.155
-113.078	-200.000	0.051	0.361
-112.064	-86.935	0.309	-0.093
-111.049	-200.000	-0.016	0.153
-110.034	6.141	0.304	0.223
-109.020	-20.574	0.261	0.159
-108.005	-120.647	0.212	0.036
-106.991	86.854	0.144	0.158
-105.976	-106.662	-0.276	-0.061
-104.962	800.000	-0.053	-0.174
-103.947	43.350	0.245	0.221
-102.932	-178.144	-0.154	-0.004
-101.918	-128.296	0.139	-0.020
-100.903	8.277	0.250	0.186
-99.889	24.993	0.187	-0.153
-98.874	288.805	0.122	-0.219
-97.859	-98.429	-0.199	0.050
-96.845	51.258	-0.166	0.156
-95.830	800.000	-0.197	0.584
-94.816	-200.000	-0.041	0.373
-93.801	-200.000	-0.014	-0.483
-92.786	-79.045	0.159	-0.054
-91.772	26.173	-0.014	0.011
-90.757	88.304	-0.278	0.305
-89.743	90.010	0.119	0.132
-88.728	-59.090	0.293	0.125
-87.713	220.232	-0.094	-0.149
-86.699	-54.040	0.243	0.109
-85.684	70.087	0.205	0.210
-84.670	-200.000	-0.076	0.378
-83.655	800.000	0.062	0.232
-82.640	-45.542	0.115	-0.056
-81.626	-152.706	0.174	0.012
-80.611	128.398	0.153	0.192
-79.597	-200.000	-0.050	-0.352
-78.582	-200.000	-0.001	0.243
-77.567	546.067	-0.105	-0.248
-76.553	-45.272	-0.095	0.046
-75.538	267.771	0.107	-0.185
-74.524	-200.000	-0.000	-0.108
-73.509	-131.930	-0.341	-0.044
-72.494	-13.277	0.159	0.102
-71.480	-191.435	-0.198	-0.002
-70.465	63.962	0.180	0.179
-69.451	-200.000	0.010	0.052
-68.436	762.915	-0.065	0.175
-67.422	17.258	-0.302	-0.237
-66.407	250.199	-0.102	0.171
-65.392	128.976	-0.157	-0.197
-64.378	-118.873	0.430	0.075
-63.363	8.347	-0.270	0.201
-62.349	24.927	0.193	0.158
-61.334	36.576	-0.745	-0.650
-60.319	126.326	0.518	0.647
-59.305	-200.000	0.048	-0.684
-58.290	240.641	0.644	1.060
-57.276	282.224	0.893	1.582
-56.261	-200.000	88.841	496.474
-55.246	450.452	1401.248	3053.869
-54.232	146.548	2619.813	3474.836
-53.217	104.896	2338.768	2723.081
-52.203	45.534	1947.476	1775.596
-51.188	39.734	1734.780	1536.606
-50.173	37.008	1690.224	1476.358
-49.159	52.527	1733.951	1634.468
-48.144	55.821	1752.251	1677.049
-47.130	39.672	1710.864	1514.710
-46.115	36.662	1696.321	1478.806
-45.100	36.453	1691.919	1473.315
-44.086	36.487	1688.952	1470.932
-43.071	36.489	1685.587	1467.956
-42.057	36.357	1684.311	1465.790
-41.042	36.496	1681.570	1464.401
-40.027	36.373	1680.399	1462.389
-39.013	36.569	1677.685	1461.453
-37.998	36.361	1676.665	1458.929
-36.984	36.489	1674.863	1458.272
-35.969	36.621	1673.534	1458.056
-34.954	36.641	1672.157	1456.942
-33.940	36.557	1670.440	1454.759
-32.925	36.638	1667.871	1453.073
-31.911	36.601	1666.681	1451.705
-30.896	36.522	1664.868	1449.476
-29.881	36.576	1662.780	1448.002
-28.867	36.567	1661.378	1446.656
-27.852	36.632	1659.669	1445.598
-26.838	36.602	1658.628	1444.409
-25.823	36.557	1657.798	1443.295
-24.809	36.683	1655.770	1442.405
-23.794	36.546	1654.561	1440.274
-22.779	36.683	1652.705	1439.623
-21.765	36.594	1651.213	1437.603
-20.750	36.567	1649.450	1435.816
-19.736	36.601	1648.480	1435.161
-18.721	36.656	1646.647	1433.918
-17.706	36.643	1645.329	1432.619
-16.692	36.629	1643.370	1430.753
-15.677	36.602	1642.512	1429.748
-14.663	36.644	1640.990	1428.678
-13.648	36.645	1639.044	1426.931
-12.633	36.588	1637.795	1425.373
-11.619	36.648	1636.349	1424.496
-10.604	36.647	1634.509	1422.832
-9.590	36.656	1633.462	1421.931
-8.575	36.726	1631.852	1420.988
-7.560	36.638	1630.930	1419.481
-6.546	36.527	1630.010	1417.807
-5.531	36.581	1628.758	1417.060
-4.517	36.640	1626.990	1415.898
-3.502	36.560	1626.630	1414.942
-2.487	36.714	1625.037	1414.627
-1.473	36.694	1614.055	1404.865
-0.458	34.467	1594.879	1372.114
0.556	31.201	1595.248	1342.057
1.571	28.885	1620.068	1345.881
2.586	28.373	1634.278	1353.783
3.600	24.473	1578.221	1279.344
4.615	13.182	1459.627	1107.821
5.629	3.544	1388.922	992.318
6.644	2.029	1380.495	976.519
7.659	1.889	1378.960	974.454
8.673	1.803	1377.616	972.867
9.688	1.680	1376.021	970.871
10.702	1.466	1372.857	967.190
11.717	5.237	1379.687	996.001
12.731	15.980	1400.943	1080.497
13.746	24.501	1416.102	1147.092
14.761	26.323	1418.018	1160.249
15.775	26.599	1417.857	1161.786
16.790	26.654	1416.930	1161.273
17.804	26.659	1416.782	1161.088
18.819	26.929	1416.281	1162.298
19.834	27.086	1415.731	1162.751
20.848	26.970	1415.454	1161.678
21.863	27.055	1414.232	1161.119
22.877	27.092	1413.164	1160.372
23.892	27.022	1412.494	1159.272
24.907	27.070	1411.769	1158.882
25.921	27.050	1410.550	1157.650
26.936	27.064	1409.757	1156.990
27.950	27.084	1408.087	1155.645
28.965	27.068	1407.190	1154.700
29.980	26.955	1406.256	1153.116
30.994	26.911	1405.142	1151.824
32.009	27.067	1403.785	1151.597
33.023	27.008	1402.565	1150.118
34.038	27.039	1401.198	1149.094
35.053	27.071	1400.153	1148.336
36.067	27.031	1399.497	1147.444
37.082	27.048	1398.823	1146.898
38.096	27.077	1397.550	1145.934
39.111	26.995	1397.045	1144.902
40.126	26.986	1396.064	1143.943
41.140	26.979	1395.527	1143.354
42.155	26.961	1395.384	1143.026
43.169	26.948	1395.501	1142.939
44.184	27.001	1395.202	1142.922
45.199	26.985	1394.817	1142.408
46.213	27.048	1393.502	1141.627
47.228	27.022	1392.937	1140.898
48.242	27.042	1391.703	1139.914
49.257	27.037	1390.305	1138.631
50.271	27.126	1388.502	1137.612
51.286	27.012	1387.825	1136.246
52.301	27.055	1386.297	1135.164
53.315	26.961	1385.659	1133.955
54.330	26.961	1384.901	1133.231
55.344	27.020	1383.667	1132.491
56.359	26.999	1382.379	1131.203
57.374	26.975	1381.884	1130.550
58.388	27.073	1381.097	1130.419
59.403	27.008	1380.765	1129.639
60.417	26.936	1380.173	1128.609
61.432	27.106	1378.824	1128.458
62.447	26.965	1378.690	1127.373
63.461	27.085	1377.436	1126.992
64.476	27.022	1376.134	1125.438
65.490	27.015	1374.890	1124.277
66.505	26.928	1373.818	1122.767
67.520	27.040	1372.323	1122.138
68.534	27.060	1371.569	1121.542
69.549	27.084	1370.636	1120.830
70.563	27.022	1369.594	1119.495
71.578	27.122	1368.401	1119.038
72.593	26.966	1367.896	1117.568
73.607	26.961	1367.294	1116.942
74.622	27.025	1366.108	1116.267
75.636	27.014	1365.902	1115.933
76.651	26.928	1364.911	1114.500
77.666	26.932	1364.558	1114.137
78.680	26.975	1363.917	1113.778
79.695	27.109	1362.971	1113.728
80.709	27.008	1362.277	1112.445
81.724	27.015	1361.045	1111.385
82.739	27.029	1360.406	1110.848
83.753	26.987	1359.609	1109.843
84.768	27.033	1358.472	1109.096
85.782	27.072	1356.929	1107.977
86.797	26.971	1356.180	1106.650
87.812	27.014	1355.010	1105.862
88.826	27.028	1353.814	1104.871
89.841	27.101	1352.578	1104.210
90.855	27.019	1351.899	1103.057
91.870	26.986	1351.339	1102.306
92.884	27.121	1349.923	1101.871
93.899	27.077	1349.176	1100.897
94.914	27.036	1348.745	1100.200
95.928	27.041	1347.955	1099.488
96.943	27.102	1346.799	1098.814
97.957	27.076	1346.172	1098.052
98.972	27.049	1345.521	1097.258
99.987	27.121	1344.686	1096.914
101.001	27.038	1343.733	1095.538
102.016	26.975	1343.269	1094.685
103.030	27.008	1342.272	1093.973
104.045	27.075	1341.034	1093.273
105.060	26.940	1340.515	1091.941
106.074	27.149	1338.819	1091.717
107.089	27.144	1338.207	1091.094
108.103	27.163	1336.846	1090.000
109.118	27.092	1335.816	1088.640
110.133	27.060	1335.048	1087.723
111.147	27.088	1333.513	1086.546
112.162	27.227	1332.020	1086.061
113.176	27.222	1331.188	1085.260
114.191	27.204	1330.441	1084.443
115.206	27.166	1329.737	1083.549
116.220	27.099	1328.467	1082.021
117.235	27.121	1327.846	1081.547
118.249	27.131	1326.502	1080.417
119.264	27.210	1325.828	1080.240
120.279	27.141	1325.274	1079.288
121.293	27.181	1324.294	1078.632
122.308	27.279	1323.101	1078.142
123.322	27.209	1322.595	1077.219
124.337	27.199	1322.199	1076.746
125.352	27.238	1321.119	1075.999
126.366	27.273	1320.275	1075.423
127.381	27.275	1319.160	1074.433
128.395	27.212	1318.820	1073.691
129.410	27.118	1317.912	1072.300
130.424	27.114	1317.595	1071.922
131.439	27.211	1316.061	1071.152
132.454	27.168	1315.532	1070.373
133.468	27.168	1314.905	1069.767
134.483	27.177	1314.253	1069.194
135.497	27.191	1313.369	1068.466
136.512	27.134	1312.442	1067.279
137.527	27.153	1311.268	1066.345
138.541	27.249	1309.652	1065.498
139.556	27.173	1308.696	1064.178
140.570	27.248	1308.030	1063.987
141.585	27.233	1306.693	1062.715
142.600	27.221	1305.751	1061.785
143.614	27.126	1304.922	1060.461
144.629	27.051	1304.377	1059.490
145.643	27.134	1303.233	1058.951
146.658	27.064	1301.999	1057.443
147.673	27.187	1300.632	1056.957
148.687	27.097	1300.020	1055.840
149.702	27.088	1298.800	1054.706
150.716	27.089	1297.528	1053.583
151.731	27.080	1296.776	1052.828
152.746	27.113	1295.704	1052.057
153.760	27.112	1294.737	1051.172
154.775	27.148	1293.612	1050.373
155.789	27.266	1292.820	1050.323
156.804	27.219	1291.497	1048.879
157.819	27.137	1290.923	1047.849
158.833	27.213	1290.116	1047.537
159.848	27.181	1289.368	1046.656
160.862	27.117	1288.705	1045.657
161.877	27.325	1287.564	1045.835
162.892	27.208	1286.864	1044.501
163.906	27.315	1286.261	1044.532
164.921	27.301	1285.671	1043.882
165.935	27.349	1284.532	1043.139
166.950	27.302	1284.257	1042.554
167.964	27.212	1283.601	1041.416
168.979	27.290	1282.814	1041.131
169.994	27.361	1282.248	1040.986
171.008	27.307	1281.474	1039.953
172.023	27.318	1281.153	1039.667
173.037	27.273	1280.346	1038.660
174.052	27.351	1279.241	1038.116
175.067	27.267	1278.899	1037.271
176.081	27.200	1278.023	1036.083
177.096	27.288	1277.315	1035.919
178.110	27.143	1276.375	1034.242
179.125	27.357	1275.092	1034.330
180.140	27.342	1274.180	1033.412
181.154	27.232	1273.079	1031.805
182.169	27.362	1271.783	1031.398
183.183	27.334	1270.980	1030.495
184.198	27.348	1269.645	1029.401
185.213	27.295	1268.647	1028.205
186.227	27.348	1267.887	1027.796
187.242	27.369	1267.160	1027.235
188.256	27.399	1266.518	1026.790
189.271	27.405	1265.844	1026.189
190.286	27.402	1264.473	1024.970
191.300	27.371	1264.181	1024.466
192.315	27.344	1263.962	1024.045
193.329	27.294	1263.552	1023.342
194.344	27.523	1262.476	1023.667
195.359	27.412	1262.232	1022.757
196.373	27.281	1261.904	1021.664
197.388	27.248	1261.366	1020.954
198.402	27.410	1260.937	1021.421
199.417	27.361	1260.231	1020.488
200.432	27.327	1260.099	1020.096
201.446	27.369	1259.309	1019.601
202.461	27.333	1258.325	1018.516
203.475	27.459	1257.574	1018.523
204.490	27.406	1256.603	1017.347
205.504	27.442	1255.568	1016.622
206.519	27.504	1254.905	1016.343
207.534	27.588	1253.917	1015.919
208.548	27.532	1252.909	1014.702
209.563	27.426	1252.249	1013.484
210.577	27.414	1251.436	1012.672
211.592	27.454	1250.940	1012.404
212.607	27.523	1249.610	1011.622
213.621	27.426	1248.951	1010.461
214.636	27.503	1248.312	1010.278
215.650	27.493	1247.297	1009.314
216.665	27.407	1246.233	1007.889
217.680	27.455	1245.816	1007.727
218.694	27.560	1244.566	1007.210
219.709	27.479	1243.984	1006.201
220.723	27.572	1243.042	1005.862
221.738	27.452	1242.903	1004.996
222.753	27.442	1242.046	1004.164
223.767	27.380	1241.652	1003.410
224.782	27.610	1240.893	1003.974
225.796	27.613	1240.227	1003.366
226.811	27.677	1239.688	1003.195
227.826	27.591	1239.209	1002.241
228.840	27.657	1238.559	1001.991
229.855	27.682	1237.742	1001.380
230.869	27.555	1237.057	1000.042
231.884	27.675	1235.910	999.682
232.899	27.623	1235.659	999.106
233.913	27.518	1235.469	998.290
234.928	27.708	1234.656	998.581
235.942	27.705	1233.794	997.781
236.957	27.667	1233.331	997.110
237.972	27.641	1232.907	996.538
238.986	27.605	1232.050	995.558
240.001	27.692	1231.352	995.380
241.015	27.757	1230.897	995.280
242.030	27.797	1229.600	994.362
243.045	27.752	1229.006	993.548
244.059	27.681	1228.419	992.600
245.074	27.758	1227.386	992.099
246.088	27.770	1226.804	991.601
247.103	27.753	1225.719	990.547
248.117	27.786	1225.132	990.163
249.132	27.771	1224.373	989.378
250.147	27.882	1223.417	989.125
251.161	27.821	1222.933	988.311
252.176	27.722	1222.414	987.271
253.190	27.839	1221.299	986.914
254.205	27.880	1220.746	986.602
255.220	27.821	1220.315	985.849
256.234	27.908	1219.592	985.648
257.249	27.872	1218.878	984.790
258.263	27.847	1218.502	984.264
259.278	27.856	1217.756	983.623
260.293	27.833	1217.166	982.934
261.307	27.814	1216.888	982.522
262.322	27.830	1216.407	982.130
263.336	27.883	1215.613	981.688
264.351	27.995	1214.812	981.558
265.366	27.866	1214.252	980.322
266.380	27.830	1214.233	980.027
267.395	27.881	1212.751	979.021
268.409	27.940	1212.059	978.691
269.424	28.006	1211.339	978.374
270.439	27.951	1211.005	977.726
271.453	28.030	1210.645	977.769
272.468	27.928	1209.673	976.352
273.482	27.945	1208.845	975.687
274.497	28.005	1208.619	975.739
275.512	27.999	1208.089	975.192
276.526	28.009	1207.254	974.489
277.541	28.031	1206.580	973.973
278.555	28.024	1206.013	973.394
279.570	28.075	1205.192	972.915
280.585	28.009	1204.296	971.757
281.599	28.048	1203.561	971.282
282.614	28.096	1202.690	970.752
283.628	28.140	1201.565	969.990
284.643	28.072	1201.232	969.276
285.657	28.115	1199.901	968.341
286.672	28.110	1199.158	967.628
287.687	28.136	1198.198	966.910
288.701	28.191	1197.854	966.835
289.716	28.155	1196.755	965.671
290.730	28.228	1196.291	965.596
291.745	28.164	1195.967	964.913
292.760	28.166	1195.433	964.408
293.774	28.186	1194.919	964.010
294.789	28.232	1194.036	963.457
295.803	28.241	1193.612	963.077
296.818	28.145	1193.077	962.054
297.833	28.188	1192.100	961.406
298.847	28.198	1191.447	960.850
299.862	28.197	1190.752	960.199
300.876	28.245	1190.139	959.873
301.891	28.310	1189.497	959.611
302.906	28.273	1188.832	958.795
303.920	28.338	1188.191	958.533
304.935	28.350	1187.470	957.925
305.949	28.362	1186.787	957.356
306.964	28.435	1186.082	957.081
307.979	28.269	1185.662	955.792
308.993	28.315	1185.170	955.551
310.008	28.312	1184.229	954.692
311.022	28.446	1183.446	954.676
312.037	28.465	1182.298	953.766
313.052	28.231	1182.377	952.524
314.066	28.331	1181.482	952.239
315.081	28.339	1180.693	951.562
316.095	28.320	1180.015	950.832
317.110	28.460	1179.334	950.928
318.125	28.382	1178.642	949.880
319.139	28.467	1178.005	949.721
320.154	28.530	1177.204	949.319
321.168	28.429	1176.627	948.245
322.183	28.515	1176.249	948.303
323.197	28.485	1175.651	947.581
324.212	28.427	1175.129	946.776
325.227	28.471	1174.504	946.417
326.241	28.578	1173.875	946.379
327.256	28.491	1173.369	945.437
328.270	28.549	1172.438	944.901
329.285	28.405	1171.727	943.506
330.300	28.518	1170.691	943.167
331.314	28.580	1169.943	942.803
332.329	28.459	1169.052	941.380
333.343	28.653	1168.351	941.724
334.358	28.656	1167.765	941.183
335.373	28.722	1167.170	940.959
336.387	28.638	1166.209	939.672
337.402	28.565	1166.079	939.109
338.416	28.631	1165.333	938.765
339.431	28.660	1164.286	937.988
340.446	28.762	1163.772	938.009
341.460	28.659	1163.610	937.271
342.475	28.762	1162.267	936.630
343.489	28.778	1161.376	935.914
344.504	28.755	1160.324	934.867
345.519	28.795	1159.753	934.527
346.533	28.701	1159.050	933.401
347.548	28.796	1158.257	933.161
348.562	28.857	1157.306	932.618
349.577	28.794	1156.835	931.838
350.592	28.703	1156.181	930.769
351.606	28.624	1155.743	929.932
352.621	28.738	1154.827	929.692
353.635	28.821	1154.415	929.699
354.650	28.759	1153.506	928.569
355.665	28.775	1152.983	928.145
356.679	28.804	1152.431	927.769
357.694	28.870	1151.737	927.457
358.708	28.765	1151.356	926.541
359.723	28.726	1150.600	925.652
360.738	28.780	1149.809	925.207
361.752	28.929	1149.408	925.551
362.767	28.836	1148.792	924.505
363.781	28.930	1148.343	924.535
364.796	28.958	1147.439	923.866
365.810	28.912	1147.074	923.261
366.825	29.093	1146.363	923.515
367.840	29.123	1146.027	923.315
368.854	28.975	1145.742	922.261
369.869	29.031	1144.561	921.508
370.883	29.035	1143.620	920.687
371.898	29.130	1142.651	920.303
372.913	29.046	1142.115	919.370
373.927	29.075	1142.178	919.482
374.942	29.017	1141.562	918.615
375.956	29.144	1140.828	918.575
376.971	29.149	1140.573	918.318
377.986	29.044	1140.241	917.447
379.000	29.186	1139.188	917.225
380.015	29.204	1138.908	917.007
381.029	29.185	1138.195	916.256
382.044	29.134	1137.572	915.420
383.059	29.199	1136.840	915.074
384.073	29.201	1135.864	914.216
385.088	29.235	1135.123	913.705
386.102	29.132	1134.767	912.831
387.117	29.184	1133.583	912.055
388.132	29.114	1132.390	910.669
389.146	29.262	1132.053	911.045
390.161	29.301	1130.974	910.293
391.175	29.238	1130.677	909.659
392.190	29.296	1130.105	909.407
393.205	29.256	1129.361	908.528
394.219	29.257	1128.866	908.055
395.234	29.257	1128.019	907.296
396.248	29.290	1127.111	906.647
397.263	29.337	1126.281	906.131
398.278	29.232	1126.153	905.429
399.292	29.414	1125.159	905.443
400.307	29.289	1124.972	904.600
401.321	29.262	1124.113	903.698
402.336	29.378	1123.342	903.563
403.350	29.353	1122.824	902.946
404.365	29.491	1121.986	902.866
405.380	29.417	1121.147	901.749
406.394	29.547	1120.241	901.578
407.409	29.545	1119.394	900.804
408.423	29.594	1118.699	900.405
409.438	29.555	1118.303	899.819
410.453	29.479	1117.502	898.723
411.467	29.549	1116.881	898.484
412.482	29.504	1115.857	897.364
413.496	29.626	1115.568	897.644
414.511	29.640	1114.798	897.012
415.526	29.452	1114.586	895.849
416.540	29.530	1114.106	895.763
417.555	29.615	1113.321	895.464
418.569	29.643	1112.804	895.106
419.584	29.689	1112.390	894.916
420.599	29.587	1112.305	894.276
421.613	97.082	1316.405	1426.831
422.628	91.061	1346.137	1426.959
