DTS Sentinel unit serial number:	SN413079Multiplexer serial number:	ORYXHardware model number:	OX4-SRSoftware version number:	ORYX F/W v4.00 Oryx Data Collector v3.7.2.0data status	okinstallation	princeton_trtdifferential loss correction	single-endedforward channel	channel 2reverse channel	N/Adate	2019/09/15time	08:51:35forward acquisition time	60.00reverse acquisition time	0.00gamma	496.2192k internal	0.2321k external	0.2321temperature offset calibration	1.0018default loss term (dB/km)	0.3790temperature slope calibration	1.0000multiplexer offset coefficient	1.0000multiplexer slope coefficient	1.0000fibre end	0.00T internal ref (°C)	32.44T ext. ref 1 (°C)	4.97T ext. ref 2 (°C)	29.74length (m)	temperature (°C)	Stokes	anti-Stokes-747.200	328.456	0.094	0.182
-746.185	-200.000	0.010	0.189
-745.171	-145.734	-0.063	-0.006
-744.156	293.146	-0.074	0.136
-743.142	-127.928	0.394	-0.057
-742.127	-78.272	-0.312	0.108
-741.112	33.345	-0.183	-0.160
-740.098	-120.492	-0.249	0.043
-739.083	30.297	0.270	0.233
-738.069	-16.440	0.224	0.143
-737.054	-128.597	-0.234	-0.034
-736.039	-125.728	0.073	-0.011
-735.025	488.354	-0.069	-0.160
-734.010	-102.751	0.229	0.055
-732.996	672.410	-0.011	-0.030
-731.981	-23.796	-0.193	-0.117
-730.966	-200.000	0.001	0.063
-729.952	108.945	-0.177	-0.214
-728.937	86.315	-0.114	-0.126
-727.923	273.957	0.135	-0.242
-726.908	-90.374	-0.267	0.078
-725.894	101.848	-0.234	-0.276
-724.879	194.663	0.050	-0.076
-723.864	-200.000	0.038	-0.184
-722.850	-144.722	0.086	0.008
-721.835	458.014	-0.124	-0.279
-720.821	232.520	0.182	0.302
-719.806	800.000	-0.033	-0.101
-718.791	525.346	-0.114	0.270
-717.777	-85.323	-0.136	-0.043
-716.762	-129.630	0.235	0.033
-715.748	-66.503	-0.349	0.140
-714.733	-200.000	0.025	-0.117
-713.718	-200.000	-0.007	-0.100
-712.704	-85.582	-0.037	0.012
-711.689	272.273	0.181	-0.323
-710.675	81.363	-0.298	-0.325
-709.660	598.608	-0.080	-0.200
-708.645	800.000	-0.044	-0.159
-707.631	-100.659	-0.322	-0.080
-706.616	800.000	0.035	-0.136
-705.602	-200.000	-0.040	-0.336
-704.587	144.923	-0.062	0.083
-703.572	223.572	-0.043	-0.071
-702.558	-60.859	0.315	-0.135
-701.543	323.369	0.034	-0.065
-700.529	334.391	0.089	0.174
-699.514	-75.018	0.372	-0.135
-698.499	-106.544	-0.234	0.053
-697.485	-17.936	-0.379	0.239
-696.470	-76.383	0.136	-0.048
-695.456	54.603	0.063	-0.061
-694.441	800.000	-0.079	-0.239
-693.426	69.366	-0.201	0.209
-692.412	44.849	0.185	-0.172
-691.397	87.760	-0.092	-0.102
-690.383	185.130	-0.055	-0.082
-689.368	-4.809	-0.140	0.097
-688.354	250.936	0.172	-0.296
-687.339	800.000	0.113	0.348
-686.324	-200.000	-0.020	0.278
-685.310	-111.214	-0.074	-0.015
-684.295	-66.060	0.114	0.046
-683.281	77.889	0.161	-0.173
-682.266	-5.743	-0.205	0.142
-681.251	748.177	-0.028	0.077
-680.237	62.763	0.292	-0.294
-679.222	-126.539	-0.079	0.012
-678.208	34.662	-0.275	0.242
-677.193	510.502	0.070	0.164
-676.178	-87.592	0.095	0.029
-675.164	-19.986	0.141	-0.088
-674.149	14.190	-0.168	0.132
-673.135	-65.687	-0.267	0.108
-672.120	-88.677	-0.321	0.096
-671.105	-146.193	-0.132	0.012
-670.091	28.027	0.132	-0.112
-669.076	59.218	-0.234	-0.233
-668.062	487.395	-0.039	0.089
-667.047	137.108	-0.192	0.252
-666.032	-200.000	0.054	0.254
-665.018	-102.189	0.403	0.098
-664.003	-86.182	-0.258	-0.080
-662.989	-92.191	-0.226	-0.064
-661.974	-100.239	-0.161	-0.040
-660.959	60.550	-0.090	-0.090
-659.945	-200.000	-0.013	0.100
-658.930	8.260	-0.140	0.106
-657.916	258.929	-0.041	-0.071
-656.901	1.768	0.063	0.046
-655.886	800.000	-0.046	-0.139
-654.872	59.996	-0.252	-0.251
-653.857	22.291	-0.109	-0.090
-652.843	-62.192	0.125	-0.052
-651.828	87.161	0.102	0.113
-650.814	-35.928	-0.283	0.154
-649.799	408.234	-0.219	-0.466
-648.784	-200.000	-0.009	-0.082
-647.770	800.000	-0.116	0.334
-646.755	-9.164	0.219	-0.147
-645.741	-200.000	-0.045	0.250
-644.726	61.473	-0.194	-0.195
-643.711	-90.120	-0.255	-0.075
-642.697	-200.000	0.032	0.277
-641.682	104.403	0.133	0.157
-640.668	-83.618	0.224	0.072
-639.653	-200.000	-0.033	-0.253
-638.638	27.430	-0.230	-0.195
-637.624	-200.000	-0.013	-0.206
-636.609	-79.805	0.307	-0.104
-635.595	-200.000	-0.017	-0.083
-634.580	800.000	-0.035	-0.131
-633.565	379.544	0.087	0.179
-632.551	163.042	-0.082	0.116
-631.536	456.573	-0.110	0.247
-630.522	800.000	-0.055	-0.208
-629.507	-200.000	-0.027	0.281
-628.492	-74.249	-0.282	-0.103
-627.478	800.000	-0.054	0.209
-626.463	699.906	-0.086	-0.227
-625.449	-21.907	-0.195	-0.119
-624.434	8.887	-0.270	0.204
-623.419	-40.911	-0.122	0.064
-622.405	198.572	-0.151	-0.232
-621.390	-58.220	-0.357	-0.156
-620.376	1.684	0.219	0.159
-619.361	-145.088	0.131	0.012
-618.346	-167.673	0.093	-0.004
-617.332	-25.584	0.188	-0.112
-616.317	122.672	-0.039	0.049
-615.303	-200.000	-0.022	-0.198
-614.288	195.691	0.105	0.160
-613.273	-200.000	0.337	-0.001
-612.259	-53.688	-0.264	-0.121
-611.244	800.000	0.081	-0.250
-610.230	-200.000	-0.021	-0.196
-609.215	-200.000	0.069	0.371
-608.201	337.811	-0.019	0.037
-607.186	268.752	-0.144	0.254
-606.171	98.485	0.211	0.245
-605.157	599.940	-0.156	-0.390
-604.142	288.613	0.071	-0.130
-603.128	449.029	-0.134	0.296
-602.113	159.971	0.195	0.273
-601.098	-200.000	0.051	-0.295
-600.084	-154.205	0.153	-0.010
-599.069	322.260	0.148	-0.283
-598.055	130.380	0.099	-0.127
-597.040	-44.134	-0.533	0.269
-596.025	239.969	0.052	-0.087
-595.011	-10.832	0.093	0.062
-593.996	7.652	0.054	0.041
-592.982	-78.765	-0.071	0.024
-591.967	-7.679	-0.265	0.180
-590.952	-200.000	0.022	0.223
-589.938	-87.182	0.130	-0.040
-588.923	-69.684	0.147	-0.057
-587.909	800.000	-0.054	-0.173
-586.894	-104.227	0.424	-0.099
-585.879	-200.000	0.086	-0.413
-584.865	-73.620	0.079	-0.029
-583.850	179.361	-0.141	0.207
-582.836	-200.000	-0.057	0.312
-581.821	409.903	-0.154	-0.328
-580.806	-133.438	-0.385	0.049
-579.792	-29.309	0.239	0.137
-578.777	-200.000	-0.016	-0.361
-577.763	-29.080	-0.122	0.070
-576.748	800.000	-0.068	-0.230
-575.733	800.000	0.027	0.085
-574.719	-32.529	0.163	-0.091
-573.704	139.711	-0.275	0.363
-572.690	-46.740	0.257	-0.126
-571.675	-200.000	0.043	-0.350
-570.661	-34.926	0.184	-0.101
-569.646	-98.219	0.196	-0.050
-568.631	-200.000	0.005	0.289
-567.617	2.602	0.291	-0.212
-566.602	-200.000	-0.021	0.173
-565.588	-200.000	0.000	0.190
-564.573	-68.879	0.300	0.116
-563.558	800.000	0.026	-0.105
-562.544	-47.267	-0.242	-0.118
-561.529	337.468	0.188	-0.367
-560.515	-14.287	-0.352	0.228
-559.500	-16.360	-0.263	0.167
-558.485	-109.198	0.310	-0.066
-557.471	43.487	-0.241	-0.221
-556.456	-40.043	-0.165	-0.086
-555.442	464.270	-0.095	0.213
-554.427	-200.000	-0.053	-0.312
-553.412	-105.670	-0.176	0.040
-552.398	30.229	-0.162	0.138
-551.383	-200.000	-0.078	-0.408
-550.369	-200.000	-0.011	-0.096
-549.354	-56.066	0.183	-0.082
-548.339	-8.886	-0.209	0.140
-547.325	-200.000	0.030	-0.141
-546.310	-64.210	-0.260	0.106
-545.296	-60.688	-0.380	-0.161
-544.281	-200.000	-0.028	0.200
-543.266	-200.000	0.033	0.435
-542.252	-200.000	0.001	0.134
-541.237	800.000	0.084	0.239
-540.223	-69.784	0.528	0.202
-539.208	130.576	0.091	0.117
-538.193	-9.512	-0.112	-0.075
-537.179	-112.511	0.122	0.024
-536.164	800.000	-0.028	-0.109
-535.150	-125.534	-0.171	-0.026
-534.135	-200.000	0.016	-0.252
-533.121	800.000	-0.049	-0.158
-532.106	507.163	-0.139	-0.323
-531.091	408.580	0.152	0.322
-530.077	13.951	0.221	-0.172
-529.062	265.598	-0.070	-0.123
-528.048	37.768	0.052	-0.046
-527.033	-129.986	0.099	0.014
-526.018	-136.547	-0.254	-0.030
-525.004	-100.357	-0.184	0.046
-523.989	-58.423	-0.184	-0.080
-522.975	18.924	0.147	-0.118
-521.960	-163.469	0.293	-0.014
-520.945	-30.008	0.091	0.052
-519.931	581.227	0.103	0.254
-518.916	41.048	0.158	-0.143
-517.902	323.284	-0.243	-0.464
-516.887	-76.138	-0.245	-0.087
-515.872	192.277	0.115	0.173
-514.858	113.112	-0.067	0.081
-513.843	-19.210	0.246	0.153
-512.829	-200.000	-0.016	-0.091
-511.814	606.831	-0.087	-0.218
-510.799	800.000	0.058	0.170
-509.785	51.923	-0.085	-0.081
-508.770	659.595	0.154	-0.398
-507.756	-109.430	-0.486	-0.103
-506.741	-200.000	0.029	0.152
-505.726	579.985	-0.069	0.170
-504.712	182.840	-0.077	0.113
-503.697	-91.413	0.295	0.084
-502.683	278.679	0.079	0.141
-501.668	-43.609	-0.082	0.041
-500.653	800.000	0.034	0.104
-499.639	0.792	-0.286	0.205
-498.624	485.478	-0.127	0.289
-497.610	800.000	0.116	-0.447
-496.595	-200.000	-0.010	0.334
-495.581	-200.000	0.009	0.117
-494.566	33.948	-0.060	-0.053
-493.551	-28.343	-0.078	0.045
-492.537	305.762	-0.127	-0.235
-491.522	307.160	0.145	0.270
-490.508	800.000	0.052	-0.188
-489.493	34.421	0.131	-0.114
-488.478	144.068	0.298	0.398
-487.464	-36.298	-0.247	-0.133
-486.449	-200.000	0.057	0.383
-485.435	-24.487	0.150	-0.090
-484.420	764.368	-0.088	-0.239
-483.405	-127.388	-0.208	0.030
-482.391	-60.532	0.160	0.068
-481.376	-5.815	-0.189	0.129
-480.362	562.137	0.102	0.247
-479.347	-200.000	0.015	-0.382
-478.332	-114.894	-0.073	-0.014
-477.318	-200.000	-0.000	-0.145
-476.303	-200.000	0.008	-0.044
-475.289	-116.790	-0.101	-0.019
-474.274	-200.000	-0.029	0.192
-473.259	-12.639	0.113	-0.074
-472.245	96.926	-0.111	-0.127
-471.230	6.957	-0.119	0.089
-470.216	154.749	0.076	0.104
-469.201	209.872	0.125	-0.197
-468.186	-200.000	-0.001	0.094
-467.172	155.552	-0.109	0.150
-466.157	260.634	0.148	-0.256
-465.143	407.244	-0.067	0.142
-464.128	40.405	0.201	0.181
-463.113	-54.523	0.153	0.069
-462.099	687.941	0.112	0.293
-461.084	-156.658	0.244	-0.015
-460.070	-125.667	-0.083	-0.013
-459.055	104.207	-0.053	-0.062
-458.040	77.350	-0.124	-0.132
-457.026	-66.047	0.414	0.165
-456.011	-200.000	-0.058	0.547
-454.997	606.768	-0.090	-0.225
-453.982	-154.713	-0.098	-0.007
-452.968	-1.044	0.110	0.077
-451.953	535.106	-0.025	-0.060
-450.938	11.321	-0.168	0.129
-449.924	79.502	0.044	0.047
-448.909	99.648	0.124	-0.143
-447.895	-200.000	0.032	-0.250
-446.880	378.949	-0.194	-0.396
-445.865	90.060	0.118	-0.131
-444.851	346.449	-0.038	-0.075
-443.836	800.000	-0.071	-0.255
-442.822	-124.714	-0.317	-0.049
-441.807	-200.000	-0.013	0.106
-440.792	98.317	-0.132	0.152
-439.778	0.344	-0.131	-0.094
-438.763	-153.356	0.380	0.026
-437.749	-29.446	0.136	0.078
-436.734	184.088	0.107	0.158
-435.719	2.964	-0.177	-0.129
-434.705	229.501	-0.156	0.254
-433.690	181.339	-0.052	-0.076
-432.676	191.849	0.083	0.125
-431.661	800.000	-0.032	-0.134
-430.646	176.772	0.025	0.037
-429.632	-19.327	-0.148	-0.091
-428.617	658.760	0.088	-0.227
-427.603	-142.209	0.468	-0.046
-426.588	441.440	-0.114	-0.248
-425.573	800.000	-0.035	0.134
-424.559	60.146	-0.287	-0.284
-423.544	-200.000	-0.083	-0.395
-422.530	159.870	0.152	-0.211
-421.515	-97.095	-0.110	0.029
-420.500	-82.648	0.213	-0.069
-419.486	251.924	0.036	0.061
-418.471	-16.612	-0.148	-0.094
-417.457	135.547	0.192	-0.249
-416.442	-200.000	0.000	0.124
-415.428	-96.807	0.153	-0.040
-414.413	-22.496	-0.168	0.102
-413.398	428.249	-0.200	0.430
-412.384	-110.623	-0.156	0.032
-411.369	418.614	0.103	-0.220
-410.355	53.906	-0.192	-0.184
-409.340	-105.044	-0.071	-0.016
-408.325	-12.752	0.289	-0.188
-407.311	-91.176	0.061	0.017
-406.296	800.000	0.111	-0.418
-405.282	284.776	-0.098	-0.176
-404.267	230.328	0.100	-0.164
-403.252	-19.623	-0.145	-0.089
-402.238	-86.327	-0.055	-0.017
-401.223	-83.970	0.256	0.081
-400.209	800.000	0.070	0.231
-399.194	-200.000	-0.004	-0.035
-398.179	-67.575	0.088	0.034
-397.165	-30.174	-0.088	-0.050
-396.150	-84.231	0.246	0.078
-395.136	735.924	-0.063	0.169
-394.121	-97.162	-0.150	-0.039
-393.106	-28.298	-0.054	-0.031
-392.092	83.964	-0.028	0.030
-391.077	21.352	0.303	0.245
-390.063	-81.248	0.167	0.055
-389.048	800.000	0.035	0.152
-388.033	-144.429	0.038	-0.004
-387.019	-68.469	-0.210	-0.081
-386.004	-200.000	0.023	-0.366
-384.990	3.718	-0.199	-0.145
-383.975	-104.848	0.138	0.032
-382.960	-34.880	-0.147	-0.080
-381.946	800.000	0.066	0.225
-380.931	800.000	0.049	-0.160
-379.917	90.551	0.072	0.081
-378.902	-178.834	-0.432	0.010
-377.888	138.127	0.302	0.394
-376.873	-200.000	0.026	-0.158
-375.858	367.440	-0.226	0.455
-374.844	-51.046	0.111	0.052
-373.829	206.958	-0.112	0.174
-372.815	32.353	0.159	0.136
-371.800	-192.279	0.283	0.003
-370.785	100.314	0.149	-0.172
-369.771	-200.000	-0.035	-0.241
-368.756	464.989	0.160	0.357
-367.742	-200.000	-0.001	0.449
-366.727	85.877	0.181	-0.198
-365.712	-182.266	0.208	-0.004
-364.698	-68.516	0.090	0.035
-363.683	64.692	0.084	-0.085
-362.669	5.161	-0.048	0.035
-361.654	-61.910	0.144	0.060
-360.639	623.873	0.138	-0.346
-359.625	800.000	0.023	-0.087
-358.610	-102.911	-0.223	0.053
-357.596	-200.000	0.030	-0.206
-356.581	-200.000	0.006	0.127
-355.566	119.348	-0.324	0.399
-354.552	-70.124	0.196	0.074
-353.537	-25.733	0.306	0.179
-352.523	34.865	0.029	-0.026
-351.508	73.343	0.059	0.062
-350.493	362.650	0.104	0.208
-349.479	112.813	-0.308	-0.371
-348.464	-200.000	-0.004	0.024
-347.450	-200.000	-0.064	0.282
-346.435	233.134	0.088	0.144
-345.420	-3.840	-0.039	-0.027
-344.406	180.779	-0.124	0.182
-343.391	-62.959	0.315	0.129
-342.377	37.208	-0.053	0.047
-341.362	67.654	-0.176	0.179
-340.348	-140.639	0.235	-0.024
-339.333	-129.083	-0.066	-0.009
-338.318	-113.440	-0.233	-0.045
-337.304	-200.000	0.011	0.057
-336.289	136.303	-0.146	0.189
-335.275	-200.000	0.038	0.202
-334.260	55.315	0.116	0.112
-333.245	271.920	-0.090	0.157
-332.231	470.771	-0.085	-0.191
-331.216	-159.409	0.192	-0.011
-330.202	-200.000	0.002	0.105
-329.187	-63.993	0.103	-0.042
-328.172	649.763	-0.108	0.274
-327.158	27.045	0.095	-0.079
-326.143	-164.176	-0.284	-0.013
-325.129	-3.075	0.124	0.086
-324.114	-200.000	-0.022	-0.255
-323.099	75.981	0.148	0.156
-322.085	-80.364	0.025	-0.008
-321.070	-94.494	0.196	-0.053
-320.056	800.000	0.037	0.122
-319.041	-200.000	0.066	0.361
-318.026	-98.303	-0.251	-0.064
-317.012	-200.000	-0.002	0.255
-315.997	23.095	-0.234	-0.191
-314.983	294.953	-0.042	-0.076
-313.968	-200.000	0.036	-0.299
-312.953	-200.000	-0.069	-0.374
-311.939	800.000	-0.082	0.252
-310.924	629.302	-0.038	-0.097
-309.910	-0.335	0.346	0.244
-308.895	-200.000	-0.039	0.249
-307.880	-200.000	-0.032	0.324
-306.866	171.339	0.056	0.080
-305.851	800.000	0.132	-0.384
-304.837	-153.412	-0.430	-0.030
-303.822	-124.922	-0.188	0.029
-302.807	-113.068	0.219	-0.043
-301.793	-101.087	-0.181	0.044
-300.778	62.453	0.028	-0.028
-299.764	10.385	0.257	0.194
-298.749	51.631	0.060	0.057
-297.735	-200.000	0.035	0.254
-296.720	-68.967	0.096	-0.037
-295.705	-119.726	-0.244	-0.042
-294.691	188.083	0.112	0.167
-293.676	107.524	0.137	0.162
-292.662	168.011	-0.063	-0.090
-291.647	-37.897	0.089	-0.047
-290.632	-116.645	0.250	0.046
-289.618	-200.000	0.021	-0.235
-288.603	800.000	-0.087	0.301
-287.589	800.000	0.134	-0.463
-286.574	-81.947	0.196	-0.064
-285.559	-86.722	0.111	-0.034
-284.545	-140.893	0.259	0.026
-283.530	800.000	0.146	0.404
-282.516	54.139	0.084	-0.080
-281.501	-50.616	-0.260	-0.122
-280.486	-43.180	-0.125	-0.063
-279.472	-101.577	0.246	-0.059
-278.457	103.303	0.221	-0.258
-277.443	-112.022	-0.129	0.026
-276.428	-200.000	0.010	0.199
-275.413	-126.101	-0.221	0.033
-274.399	-54.049	-0.258	-0.116
-273.384	-70.141	-0.176	-0.066
-272.370	-200.000	-0.063	0.335
-271.355	-200.000	0.007	0.146
-270.340	-126.385	-0.261	0.039
-269.326	-200.000	0.079	-0.457
-268.311	-130.722	0.419	0.056
-267.297	109.056	-0.175	0.208
-266.282	59.518	-0.010	-0.010
-265.267	19.312	-0.223	-0.178
-264.253	-9.565	0.095	-0.063
-263.238	-200.000	-0.007	-0.070
-262.224	-27.067	-0.125	-0.072
-261.209	168.226	0.246	-0.347
-260.195	-72.348	0.305	-0.112
-259.180	800.000	0.080	0.294
-258.165	800.000	0.025	-0.072
-257.151	92.741	-0.110	-0.123
-256.136	106.490	-0.192	0.226
-255.122	78.258	0.290	0.307
-254.107	-200.000	-0.002	-0.139
-253.092	-30.313	0.106	-0.060
-252.078	-200.000	0.013	0.438
-251.063	-121.696	0.195	0.032
-250.049	-84.166	-0.017	0.005
-249.034	-103.791	-0.157	-0.036
-248.019	800.000	-0.045	0.169
-247.005	-70.195	-0.110	-0.042
-245.990	-153.057	0.083	0.006
-244.976	-200.000	0.010	0.171
-243.961	-200.000	-0.043	-0.309
-242.946	171.528	0.049	-0.070
-241.932	751.978	0.052	-0.140
-240.917	-12.193	-0.306	0.198
-239.903	42.678	0.166	0.150
-238.888	682.940	-0.008	0.021
-237.873	800.000	-0.055	-0.152
-236.859	-73.380	-0.094	0.034
-235.844	-160.634	-0.281	0.015
-234.830	-89.039	0.193	0.057
-233.815	64.702	-0.118	-0.117
-232.800	-200.000	-0.009	0.164
-231.786	-41.496	-0.035	0.018
-230.771	-82.306	0.331	0.107
-229.757	265.048	-0.046	0.079
-228.742	-128.710	-0.155	0.022
-227.727	151.631	0.138	-0.186
-226.713	30.000	-0.187	-0.158
-225.698	46.328	-0.149	0.137
-224.684	49.590	-0.093	0.087
-223.669	-88.478	-0.190	0.056
-222.655	800.000	0.129	-0.409
-221.640	-26.323	-0.273	0.159
-220.625	116.877	0.089	-0.108
-219.611	-193.667	-0.369	0.003
-218.596	-32.353	-0.217	-0.120
-217.582	31.742	-0.080	0.068
-216.567	-58.207	-0.080	0.035
-215.552	-200.000	0.040	-0.263
-214.538	452.102	0.044	-0.096
-213.523	52.696	-0.062	-0.058
-212.509	167.366	0.109	-0.153
-211.494	-85.324	0.112	0.035
-210.479	137.330	0.064	-0.082
-209.465	-200.000	0.044	-0.352
-208.450	-130.305	-0.383	-0.051
-207.436	-61.842	0.368	-0.152
-206.421	-200.000	-0.002	0.054
-205.406	583.598	0.062	-0.150
-204.392	199.256	0.018	-0.027
-203.377	-49.400	-0.226	0.107
-202.363	2.042	-0.055	-0.039
-201.348	-200.000	-0.020	-0.149
-200.333	-23.109	0.358	-0.213
-199.319	195.449	-0.157	-0.237
-198.304	42.637	-0.092	0.082
-197.290	-200.000	-0.007	-0.115
-196.275	800.000	-0.065	0.179
-195.260	-25.208	-0.057	0.034
-194.246	93.745	-0.152	0.170
-193.231	93.302	0.363	0.407
-192.217	-200.000	-0.043	0.203
-191.202	-61.934	0.162	0.067
-190.187	-200.000	-0.012	0.144
-189.173	-168.579	0.571	0.022
-188.158	550.095	0.117	0.277
-187.144	-200.000	-0.035	-0.358
-186.129	-196.846	0.160	-0.001
-185.114	649.445	0.055	0.139
-184.100	-200.000	0.004	-0.071
-183.085	555.284	-0.067	-0.160
-182.071	358.267	0.117	0.231
-181.056	-138.925	-0.244	-0.026
-180.042	-2.606	0.341	-0.236
-179.027	800.000	-0.074	-0.213
-178.012	-76.253	-0.087	-0.030
-176.998	-40.957	-0.217	-0.111
-175.983	433.813	0.012	-0.025
-174.969	800.000	0.060	-0.200
-173.954	-109.920	-0.243	0.050
-172.939	-155.596	-0.322	-0.020
-171.925	800.000	-0.022	0.067
-170.910	-89.539	-0.046	0.013
-169.896	-200.000	-0.043	0.189
-168.881	38.102	-0.094	-0.083
-167.866	11.118	-0.123	0.093
-166.852	-200.000	-0.058	0.291
-165.837	-200.000	0.018	0.140
-164.823	800.000	-0.030	-0.087
-163.808	-200.000	-0.001	-0.323
-162.793	-68.297	-0.192	-0.074
-161.779	335.717	-0.128	-0.246
-160.764	113.639	0.026	-0.032
-159.750	-17.789	0.250	-0.155
-158.735	800.000	0.070	0.191
-157.720	26.152	-0.142	0.117
-156.706	456.522	-0.120	0.264
-155.691	11.664	0.122	-0.093
-154.677	-92.214	0.212	0.059
-153.662	9.175	0.309	0.231
-152.647	196.928	0.096	0.145
-151.633	-81.977	-0.109	-0.035
-150.618	-44.895	0.061	-0.030
-149.604	-138.281	-0.238	0.026
-148.589	166.808	0.129	0.181
-147.574	-200.000	0.004	-0.078
-146.560	-27.434	-0.230	0.132
-145.545	130.260	-0.076	-0.096
-144.531	-11.992	-0.135	0.088
-143.516	-37.720	0.122	0.064
-142.502	-200.000	0.029	0.165
-141.487	234.435	0.012	0.019
-140.472	-132.561	0.294	0.037
-139.458	-180.673	-0.389	-0.008
-138.443	800.000	0.044	-0.150
-137.429	-25.079	0.107	0.063
-136.414	800.000	-0.115	-0.347
-135.399	-113.763	0.110	0.021
-134.385	165.258	0.157	0.218
-133.370	-200.000	0.024	0.210
-132.356	117.250	-0.215	0.261
-131.341	-114.605	0.042	-0.008
-130.326	305.531	0.211	-0.387
-129.312	33.268	-0.138	-0.118
-128.297	-28.133	-0.337	-0.192
-127.283	103.146	0.185	-0.214
-126.268	3.202	0.221	0.159
-125.253	-79.460	-0.175	0.058
-124.239	294.974	-0.092	0.166
-123.224	-200.000	-0.020	-0.280
-122.210	-158.876	-0.319	-0.018
-121.195	-200.000	0.013	0.081
-120.180	-75.689	0.063	-0.022
-119.166	-76.649	0.253	0.088
-118.151	-125.142	0.247	-0.037
-117.137	-15.760	0.087	0.055
-116.122	-96.510	-0.224	0.058
-115.107	800.000	0.086	-0.246
-114.093	-68.095	-0.192	0.074
-113.078	-9.498	-0.178	-0.117
-112.064	298.277	0.136	-0.247
-111.049	800.000	-0.046	-0.190
-110.034	-200.000	0.046	0.249
-109.020	-200.000	-0.002	0.091
-108.005	-15.377	0.321	0.202
-106.991	-78.128	0.122	0.041
-105.976	534.516	0.128	0.299
-104.962	-52.996	0.464	0.211
-103.947	800.000	-0.059	0.175
-102.932	47.039	0.226	0.207
-101.918	-129.954	0.077	0.010
-100.903	20.465	-0.357	-0.285
-99.889	-97.066	-0.087	-0.022
-98.874	-119.590	0.129	0.022
-97.859	-200.000	-0.139	-0.000
-96.845	240.970	-0.058	0.095
-95.830	58.969	-0.170	0.165
-94.816	-200.000	-0.004	-0.190
-93.801	-47.914	0.091	-0.044
-92.786	74.346	0.065	0.067
-91.772	438.184	-0.058	0.124
-90.757	-83.395	-0.168	0.053
-89.743	-103.763	-0.183	-0.042
-88.728	-152.319	0.219	0.016
-87.713	-146.356	0.110	-0.009
-86.699	-184.145	-0.272	0.004
-85.684	49.582	0.273	0.253
-84.670	800.000	0.068	0.261
-83.655	69.900	0.276	0.280
-82.640	717.927	-0.115	0.301
-81.626	800.000	0.023	0.095
-80.611	-200.000	-0.007	0.179
-79.597	-32.286	-0.239	-0.131
-78.582	604.057	0.068	-0.167
-77.567	140.877	-0.025	-0.032
-76.553	185.105	-0.051	0.075
-75.538	-3.924	0.629	0.429
-74.524	-166.131	0.337	0.014
-73.509	-200.000	-0.071	0.318
-72.494	-200.000	-0.017	0.177
-71.480	174.230	-0.127	0.181
-70.465	178.735	0.248	0.357
-69.451	54.173	-0.161	0.153
-68.436	427.639	0.085	0.181
-67.422	-71.282	0.325	-0.120
-66.407	800.000	-0.048	0.161
-65.392	-1.639	-0.188	0.131
-64.378	108.156	-0.141	-0.165
-63.363	800.000	-0.106	0.348
-62.349	-168.606	0.337	-0.013
-61.334	42.025	-0.789	-0.704
-60.319	106.938	0.305	0.356
-59.305	800.000	-0.302	-1.046
-58.290	354.990	0.443	0.866
-57.276	800.000	0.431	1.461
-56.261	-200.000	96.972	594.124
-55.246	639.848	1413.906	3539.428
-54.232	188.671	2609.549	3841.135
-53.217	114.240	2297.855	2751.323
-52.203	42.046	1913.052	1708.087
-51.188	35.788	1700.816	1470.873
-50.173	32.919	1656.921	1411.438
-49.159	51.591	1703.059	1592.418
-48.144	53.237	1719.207	1619.889
-47.130	35.416	1680.278	1450.067
-46.115	32.534	1665.460	1415.593
-45.100	32.375	1660.662	1410.268
-44.086	32.312	1658.190	1407.643
-43.071	32.274	1655.760	1405.237
-42.057	32.395	1652.811	1403.584
-41.042	32.421	1651.183	1402.343
-40.027	32.265	1649.072	1399.334
-39.013	32.328	1646.936	1397.934
-37.998	32.255	1645.849	1396.406
-36.984	32.374	1644.148	1395.797
-35.969	32.424	1643.159	1395.271
-34.954	32.532	1641.062	1394.231
-33.940	32.449	1639.716	1392.425
-32.925	32.426	1637.397	1390.224
-31.911	32.472	1635.727	1389.095
-30.896	32.482	1634.073	1387.707
-29.881	32.425	1632.586	1385.972
-28.867	32.425	1630.704	1384.315
-27.852	32.462	1628.853	1382.966
-26.838	32.427	1627.939	1381.872
-25.823	32.398	1626.514	1380.397
-24.809	32.501	1624.627	1379.497
-23.794	32.427	1623.811	1378.204
-22.779	32.485	1622.091	1377.113
-21.765	32.378	1620.985	1375.341
-20.750	32.419	1619.077	1373.965
-19.736	32.517	1617.499	1373.289
-18.721	32.455	1616.226	1371.702
-17.706	32.424	1614.805	1370.212
-16.692	32.422	1613.336	1368.901
-15.677	32.436	1611.796	1367.638
-14.663	32.479	1610.641	1366.916
-13.648	32.513	1608.676	1365.443
-12.633	32.480	1607.178	1363.879
-11.619	32.483	1605.898	1362.757
-10.604	32.487	1604.332	1361.408
-9.590	32.430	1603.576	1360.299
-8.575	32.527	1601.639	1359.299
-7.560	32.545	1600.560	1358.458
-6.546	32.469	1599.603	1357.048
-5.531	32.354	1598.780	1355.466
-4.517	32.417	1597.102	1354.440
-3.502	32.513	1595.852	1354.020
-2.487	32.547	1594.230	1352.836
-1.473	32.448	1583.125	1342.648
-0.458	30.230	1564.552	1311.185
0.556	26.100	1565.961	1282.718
1.571	24.030	1590.323	1287.603
2.586	23.463	1603.506	1294.021
3.600	20.798	1549.925	1231.842
4.615	12.813	1440.360	1091.962
5.629	6.149	1377.010	1001.503
6.644	5.127	1369.267	989.306
7.659	4.935	1368.213	987.243
8.673	4.908	1366.652	985.858
9.688	4.921	1365.142	984.762
10.702	4.843	1361.657	981.673
11.717	8.018	1368.518	1006.615
12.731	15.553	1382.416	1064.677
13.746	19.367	1387.568	1092.771
14.761	18.695	1384.772	1086.217
15.775	17.508	1382.549	1076.877
16.790	16.616	1379.402	1068.702
17.804	15.662	1377.345	1060.995
18.819	15.314	1375.771	1057.494
19.834	15.057	1374.448	1054.763
20.848	14.772	1373.261	1051.960
21.863	14.584	1372.168	1049.847
22.877	14.427	1370.873	1047.781
23.892	14.335	1370.535	1046.853
24.907	14.313	1369.146	1045.559
25.921	14.441	1368.173	1045.524
26.936	14.458	1366.918	1044.577
27.950	14.460	1366.756	1044.377
28.965	14.597	1365.380	1044.094
29.980	14.619	1364.056	1043.123
30.994	14.652	1362.872	1042.335
32.009	14.728	1361.887	1041.960
33.023	14.719	1360.548	1040.791
34.038	14.633	1359.434	1039.305
35.053	14.508	1358.292	1037.567
36.067	14.532	1357.045	1036.673
37.082	14.576	1355.960	1036.022
38.096	14.655	1354.942	1035.643
39.111	14.641	1354.372	1035.029
40.126	14.647	1352.982	1033.911
41.140	14.429	1352.402	1032.027
42.155	14.363	1351.361	1030.732
43.169	14.367	1351.268	1030.598
44.184	14.431	1350.701	1030.469
45.199	14.307	1350.897	1029.760
46.213	14.426	1350.583	1030.164
47.228	14.422	1349.158	1028.964
48.242	14.469	1348.404	1028.586
49.257	14.528	1346.544	1027.442
50.271	14.542	1345.232	1026.436
51.286	14.483	1343.876	1024.946
52.301	14.461	1342.576	1023.728
53.315	14.373	1341.840	1022.536
54.330	14.369	1340.566	1021.452
55.344	14.412	1339.205	1020.587
56.359	14.385	1338.303	1019.646
57.374	14.296	1337.659	1018.519
58.388	14.260	1336.806	1017.561
59.403	14.182	1336.662	1016.883
60.417	14.257	1335.270	1016.189
61.432	14.287	1334.187	1015.458
62.447	14.177	1333.788	1014.396
63.461	14.220	1332.119	1013.298
64.476	14.161	1331.092	1012.069
65.490	14.119	1330.016	1010.907
66.505	14.205	1328.382	1010.098
67.520	14.253	1327.211	1009.409
68.534	14.285	1326.417	1008.910
69.549	14.296	1325.169	1007.937
70.563	14.212	1324.634	1006.930
71.578	14.172	1323.032	1005.386
72.593	14.122	1322.495	1004.584
73.607	14.115	1321.754	1003.890
74.622	14.076	1320.857	1002.884
75.636	14.120	1320.130	1002.512
76.651	14.148	1319.267	1001.936
77.666	14.122	1319.045	1001.519
78.680	14.213	1317.843	1001.065
79.695	14.253	1317.223	1000.751
80.709	14.301	1316.455	1000.366
81.724	14.286	1316.138	999.943
82.739	14.320	1315.226	999.371
83.753	14.494	1314.297	999.617
84.768	14.498	1313.000	998.568
85.782	14.532	1312.023	997.939
86.797	14.552	1310.737	996.990
87.812	14.440	1309.406	995.219
88.826	14.519	1308.354	994.808
89.841	14.509	1307.319	993.869
90.855	14.446	1306.720	992.951
91.870	14.498	1305.757	992.441
92.884	14.656	1304.413	992.275
93.899	14.687	1304.022	992.073
94.914	14.786	1302.958	991.761
95.928	14.695	1302.228	990.577
96.943	14.632	1301.533	989.589
97.957	14.571	1300.496	988.353
98.972	14.589	1299.314	987.470
99.987	14.594	1297.744	986.223
101.001	14.674	1297.357	986.314
102.016	14.678	1296.225	985.390
103.030	14.557	1295.385	983.950
104.045	14.569	1294.609	983.343
105.060	14.476	1293.268	981.692
106.074	14.313	1292.277	979.893
107.089	14.287	1290.119	978.018
108.103	14.286	1289.047	977.109
109.118	14.212	1288.312	976.036
110.133	14.290	1286.351	974.920
111.147	14.402	1284.853	974.353
112.162	14.255	1284.185	972.898
113.176	14.300	1282.919	972.116
114.191	14.405	1281.994	971.940
115.206	14.362	1281.175	970.984
116.220	14.406	1279.800	970.114
117.235	14.333	1278.912	968.930
118.249	14.379	1276.988	967.652
119.264	14.317	1275.840	966.336
120.279	14.238	1274.883	965.070
121.293	14.251	1274.420	964.709
122.308	14.293	1273.432	964.120
123.322	14.171	1272.241	962.429
124.337	14.258	1271.166	962.033
125.352	14.277	1269.846	961.059
126.366	14.312	1268.544	960.185
127.381	14.145	1268.082	958.789
128.395	14.261	1266.649	958.291
129.410	14.265	1266.262	957.936
130.424	14.420	1265.293	958.007
131.439	14.350	1264.108	956.626
132.454	14.297	1263.152	955.513
133.468	14.390	1262.557	955.512
134.483	14.413	1261.931	955.083
135.497	14.458	1260.783	954.390
136.512	14.386	1259.644	953.031
137.527	14.485	1258.212	952.429
138.541	14.427	1256.354	950.608
139.556	14.524	1255.232	950.226
140.570	14.543	1254.619	949.789
141.585	14.518	1253.213	948.498
142.600	14.540	1252.401	947.924
143.614	14.736	1250.896	947.815
144.629	14.649	1250.362	946.828
145.643	14.572	1249.389	945.573
146.658	14.594	1247.631	944.284
147.673	14.445	1246.458	942.470
148.687	14.476	1245.643	941.947
149.702	14.373	1244.357	940.309
150.716	14.486	1242.594	939.530
151.731	14.440	1241.283	938.196
152.746	14.531	1240.332	937.906
153.760	14.555	1239.092	937.022
154.775	14.523	1238.476	936.293
155.789	14.683	1237.002	935.991
156.804	14.604	1236.036	934.738
157.819	14.592	1235.137	933.906
158.833	14.794	1234.234	934.269
159.848	14.750	1233.533	933.411
160.862	14.712	1232.344	932.215
161.877	14.605	1231.424	930.840
162.892	14.604	1230.226	929.849
163.906	14.679	1228.768	929.082
164.921	14.521	1228.715	928.077
165.935	14.630	1227.416	927.622
166.950	14.701	1226.460	927.211
167.964	14.731	1226.018	926.964
168.979	14.653	1225.428	925.999
169.994	14.688	1224.116	925.121
171.008	14.733	1223.478	924.805
172.023	14.789	1223.082	924.736
173.037	14.842	1222.375	924.413
174.052	14.874	1220.912	923.400
175.067	14.674	1220.070	921.578
176.081	14.641	1219.191	920.649
177.096	14.691	1217.999	919.944
178.110	14.775	1216.942	919.530
179.125	14.699	1216.025	918.338
180.140	14.765	1214.790	917.682
181.154	14.840	1213.749	917.230
182.169	14.895	1212.492	916.501
183.183	14.965	1211.378	915.959
184.198	14.988	1210.409	915.273
185.213	14.959	1209.461	914.314
186.227	14.930	1208.241	913.155
187.242	15.017	1207.165	912.733
188.256	15.048	1206.356	912.209
189.271	15.098	1205.447	911.713
190.286	14.882	1204.535	909.767
191.300	14.777	1203.221	908.126
192.315	14.676	1202.863	907.227
193.329	14.661	1202.274	906.619
194.344	14.728	1201.470	906.298
195.359	14.839	1201.061	906.513
196.373	14.821	1200.565	905.958
197.388	15.031	1200.337	906.843
198.402	15.128	1199.546	906.690
199.417	15.183	1198.852	906.382
200.432	15.164	1198.199	905.710
201.446	15.176	1197.307	905.016
202.461	15.205	1196.630	904.582
203.475	15.238	1195.879	904.113
204.490	15.235	1193.815	902.455
205.504	15.177	1192.542	901.100
206.519	15.071	1191.866	899.943
207.534	15.098	1190.706	899.129
208.548	15.172	1189.713	898.699
209.563	15.025	1189.250	897.483
210.577	15.124	1187.763	896.811
211.592	15.204	1187.177	896.716
212.607	15.282	1186.348	896.426
213.621	15.263	1185.354	895.497
214.636	15.314	1184.426	894.986
215.650	15.367	1183.344	894.373
216.665	15.434	1182.372	893.915
217.680	15.318	1182.085	893.003
218.694	15.454	1180.977	892.810
219.709	15.469	1180.324	892.315
220.723	15.513	1179.237	891.650
221.738	15.446	1178.912	890.972
222.753	15.427	1178.435	890.430
223.767	15.464	1177.495	889.838
224.782	15.451	1177.125	889.410
225.796	15.674	1175.934	889.610
226.811	15.456	1176.036	888.454
227.826	15.440	1174.898	887.432
228.840	15.547	1173.551	886.905
229.855	15.579	1172.933	886.525
230.869	15.635	1172.411	886.346
231.884	15.550	1171.535	885.159
232.899	15.416	1170.721	883.759
233.913	15.403	1170.183	883.208
234.928	15.395	1169.187	882.335
235.942	15.423	1168.330	881.757
236.957	15.367	1167.844	881.019
237.972	15.323	1167.192	880.220
238.986	15.409	1166.435	880.022
240.001	15.357	1165.806	879.195
241.015	15.407	1164.727	878.568
242.030	15.544	1163.810	878.511
243.045	15.519	1163.020	877.708
244.059	15.664	1162.004	877.622
245.074	15.698	1161.040	876.991
246.088	15.657	1160.382	876.207
247.103	15.623	1159.634	875.386
248.117	15.705	1159.230	875.431
249.132	15.841	1158.704	875.664
250.147	15.911	1158.026	875.438
251.161	15.920	1157.567	875.058
252.176	16.046	1156.471	874.805
253.190	15.974	1155.978	873.983
254.205	15.981	1155.755	873.773
255.220	16.040	1155.141	873.539
256.234	16.136	1154.028	873.115
257.249	16.024	1153.705	872.212
258.263	16.106	1153.203	872.179
259.278	16.136	1152.029	871.374
260.293	16.171	1151.548	871.111
261.307	16.206	1150.813	870.657
262.322	16.160	1150.378	870.016
263.336	16.233	1149.687	869.794
264.351	16.277	1149.173	869.551
265.366	16.374	1148.290	869.305
266.380	16.285	1147.248	867.985
267.395	16.326	1146.824	867.798
268.409	16.256	1145.866	866.636
269.424	16.168	1145.729	866.004
270.439	16.144	1144.885	865.164
271.453	16.157	1143.942	864.443
272.468	16.181	1143.338	864.035
273.482	16.168	1142.387	863.171
274.497	16.117	1141.741	862.346
275.512	16.254	1141.249	862.601
276.526	16.208	1140.556	861.763
277.541	16.232	1139.759	861.207
278.555	16.278	1138.855	860.683
279.570	16.338	1138.375	860.552
280.585	16.364	1137.526	859.963
281.599	16.392	1136.631	859.353
282.614	16.445	1135.511	858.701
283.628	16.309	1134.550	857.208
284.643	16.337	1133.806	856.710
285.657	16.402	1132.343	855.861
286.672	16.470	1131.620	855.580
287.687	16.464	1130.937	854.957
288.701	16.444	1130.125	854.169
289.716	16.416	1129.142	853.209
290.730	16.364	1128.788	852.603
291.745	16.349	1128.441	852.189
292.760	16.563	1126.940	852.062
293.774	16.512	1126.701	851.544
294.789	16.637	1126.391	851.868
295.803	16.589	1125.781	851.089
296.818	16.493	1124.947	849.899
297.833	16.627	1123.982	849.766
298.847	16.612	1123.072	848.928
299.862	16.564	1122.492	848.177
300.876	16.543	1121.983	847.611
301.891	16.709	1120.827	847.494
302.906	16.739	1120.492	847.318
303.920	16.785	1119.882	847.007
304.935	16.736	1119.388	846.317
305.949	16.725	1118.886	845.806
306.964	16.863	1117.974	845.729
307.979	16.725	1117.478	844.593
308.993	16.749	1116.278	843.728
310.008	16.879	1115.440	843.670
311.022	16.902	1114.583	843.059
312.037	16.789	1114.112	842.068
313.052	16.782	1113.039	841.150
314.066	16.716	1112.357	840.233
315.081	16.608	1111.392	838.891
316.095	16.658	1110.379	838.301
317.110	16.670	1109.806	837.856
318.125	16.826	1108.807	837.798
319.139	16.787	1108.464	837.269
320.154	16.740	1107.629	836.336
321.168	16.866	1106.849	836.294
322.183	16.760	1106.481	835.418
323.197	16.795	1106.060	835.199
324.212	16.924	1105.024	834.975
325.227	16.891	1104.996	834.720
326.241	16.849	1104.303	833.914
327.256	16.792	1103.359	832.849
328.270	16.851	1102.182	832.175
329.285	16.799	1101.176	831.089
330.300	16.853	1100.378	830.676
331.314	16.776	1099.844	829.821
332.329	16.779	1099.043	829.159
333.343	16.780	1098.120	828.394
334.358	16.978	1097.219	828.607
335.373	16.987	1096.473	828.015
336.387	17.007	1095.856	827.577
337.402	17.043	1094.979	827.017
338.416	17.164	1094.515	827.181
339.431	17.113	1093.789	826.310
340.446	17.139	1092.927	825.715
341.460	17.186	1092.546	825.581
342.475	17.326	1091.502	825.399
343.489	17.362	1090.312	824.597
344.504	17.287	1089.731	823.723
345.519	17.238	1089.257	823.056
346.533	17.404	1088.235	823.012
347.548	17.366	1087.459	822.168
348.562	17.383	1087.004	821.835
349.577	17.262	1085.832	820.292
350.592	17.314	1084.925	819.784
351.606	17.253	1084.308	818.954
352.621	17.276	1083.674	818.513
353.635	17.280	1083.082	818.013
354.650	17.201	1082.369	817.021
355.665	17.347	1081.684	817.131
356.679	17.273	1081.279	816.398
357.694	17.346	1080.324	815.959
358.708	17.240	1079.972	815.109
359.723	17.328	1078.892	814.644
360.738	17.395	1078.729	814.770
361.752	17.358	1077.987	813.962
362.767	17.471	1077.222	813.852
363.781	17.455	1076.921	813.475
364.796	17.522	1076.375	813.313
365.810	17.567	1075.936	813.121
366.825	17.767	1074.745	813.106
367.840	17.670	1074.540	812.412
368.854	17.665	1074.385	812.204
369.869	17.531	1073.482	810.807
370.883	17.642	1072.189	810.288
371.898	17.628	1071.287	809.468
372.913	17.628	1070.912	809.114
373.927	17.592	1070.456	808.528
374.942	17.718	1070.114	808.796
375.956	17.730	1069.101	808.015
376.971	17.807	1068.707	808.010
377.986	17.822	1068.061	807.521
379.000	17.765	1067.643	806.866
380.015	17.905	1066.985	806.957
381.029	17.912	1066.293	806.394
382.044	17.994	1065.246	805.918
383.059	17.985	1064.898	805.543
384.073	17.814	1064.435	804.316
385.088	17.980	1063.311	804.173
386.102	18.023	1062.334	803.570
387.117	17.808	1061.286	801.695
388.132	17.771	1060.393	800.772
389.146	17.882	1059.740	800.729
390.161	17.849	1059.216	800.110
391.175	17.800	1058.239	799.072
392.190	17.935	1057.658	799.195
393.205	18.028	1056.857	798.951
394.219	18.027	1056.173	798.361
395.234	17.973	1055.266	797.352
396.248	18.080	1054.282	797.037
397.263	17.863	1053.544	795.396
398.278	17.944	1052.349	794.800
399.292	17.887	1051.948	794.164
400.307	17.863	1051.087	793.334
401.321	17.803	1050.414	792.474
402.336	17.880	1049.905	792.379
403.350	17.924	1048.980	791.813
404.365	18.018	1048.296	791.661
405.380	18.001	1047.593	790.981
406.394	17.962	1047.089	790.354
407.409	18.095	1046.447	790.411
408.423	18.155	1045.469	789.881
409.438	18.178	1044.890	789.480
410.453	18.291	1044.289	789.478
411.467	18.387	1043.654	789.368
412.482	18.279	1043.211	788.466
413.496	18.438	1042.184	788.354
414.511	18.321	1041.857	787.497
415.526	18.463	1041.492	787.806
416.540	18.441	1040.953	787.229
417.555	18.491	1040.343	786.923
418.569	18.445	1039.829	786.255
419.584	18.428	1039.469	785.835
420.599	18.426	1038.721	785.193
421.613	149.269	1400.909	1793.841
422.628	136.427	1453.666	1793.924
