DTS Sentinel unit serial number:	SN413079Multiplexer serial number:	ORYXHardware model number:	OX4-SRSoftware version number:	ORYX F/W v4.00 Oryx Data Collector v3.7.2.0data status	okinstallation	princeton_trtdifferential loss correction	single-endedforward channel	channel 2reverse channel	N/Adate	2019/09/15time	09:55:35forward acquisition time	60.00reverse acquisition time	0.00gamma	496.2192k internal	0.2316k external	0.2316temperature offset calibration	1.0017default loss term (dB/km)	0.3790temperature slope calibration	1.0000multiplexer offset coefficient	1.0000multiplexer slope coefficient	1.0000fibre end	0.00T internal ref (°C)	34.06T ext. ref 1 (°C)	4.99T ext. ref 2 (°C)	29.87length (m)	temperature (°C)	Stokes	anti-Stokes-747.200	800.000	-0.063	0.207
-746.185	-200.000	-0.005	0.359
-745.171	-200.000	0.047	-0.244
-744.156	24.869	-0.121	0.102
-743.142	-112.626	0.168	0.034
-742.127	-85.795	0.072	0.023
-741.112	110.990	-0.144	0.176
-740.098	-200.000	-0.003	0.071
-739.083	-21.766	-0.073	0.045
-738.069	101.362	-0.142	0.167
-737.054	-68.011	-0.139	0.055
-736.039	-167.810	0.191	0.008
-735.025	-200.000	0.009	0.164
-734.010	448.086	-0.084	0.186
-732.996	-200.000	-0.018	0.167
-731.981	-45.100	0.149	0.075
-730.966	64.410	0.283	-0.288
-729.952	-200.000	0.014	-0.074
-728.937	-200.000	0.039	-0.225
-727.923	800.000	-0.037	-0.142
-726.908	-200.000	-0.021	0.159
-725.894	57.605	-0.099	0.097
-724.879	-185.967	0.224	0.003
-723.864	-145.784	0.098	0.009
-722.850	-178.049	-0.293	0.007
-721.835	5.680	0.355	-0.265
-720.821	277.608	-0.102	-0.184
-719.806	74.715	-0.096	-0.102
-718.791	121.800	-0.075	0.095
-717.777	-0.316	0.354	0.255
-716.762	173.568	0.103	-0.150
-715.748	-200.000	0.001	0.010
-714.733	800.000	-0.059	0.217
-713.718	495.261	-0.091	-0.211
-712.704	338.793	-0.098	0.194
-711.689	492.800	-0.037	0.086
-710.675	386.927	0.070	0.146
-709.660	-117.919	-0.295	-0.053
-708.645	264.990	0.065	-0.114
-707.631	112.361	0.175	-0.214
-706.616	17.094	0.101	0.081
-705.602	95.552	-0.069	0.080
-704.587	-200.000	-0.009	0.085
-703.572	-39.391	-0.283	-0.150
-702.558	-200.000	-0.034	-0.178
-701.543	76.569	0.266	-0.285
-700.529	62.863	0.275	-0.279
-699.514	603.550	-0.051	-0.129
-698.499	-200.000	0.063	0.321
-697.485	800.000	0.085	-0.315
-696.470	28.386	-0.096	-0.082
-695.456	-200.000	-0.050	-0.475
-694.441	-200.000	0.009	-0.140
-693.426	-200.000	0.043	0.298
-692.412	-42.572	-0.455	0.235
-691.397	56.772	0.173	-0.170
-690.383	204.220	-0.106	-0.165
-689.368	-106.549	0.183	-0.041
-688.354	-1.918	-0.158	-0.112
-687.339	800.000	0.045	-0.199
-686.324	800.000	-0.089	0.248
-685.310	145.258	-0.091	-0.123
-684.295	-36.461	-0.149	-0.081
-683.281	54.296	-0.016	0.016
-682.266	25.863	-0.153	0.129
-681.251	-200.000	-0.023	0.150
-680.237	800.000	0.059	-0.202
-679.222	-58.947	-0.209	-0.091
-678.208	-138.969	0.240	0.026
-677.193	142.031	-0.096	-0.129
-676.178	-1.623	-0.130	-0.093
-675.164	-87.191	-0.199	-0.061
-674.149	171.457	-0.198	-0.287
-673.135	800.000	0.063	-0.181
-672.120	580.114	-0.194	-0.480
-671.105	-200.000	0.020	-0.121
-670.091	122.307	-0.298	-0.377
-669.076	66.000	-0.307	-0.314
-668.062	-183.184	-0.388	0.007
-667.047	-85.954	0.126	0.039
-666.032	409.670	-0.028	0.060
-665.018	-83.809	-0.372	-0.120
-664.003	417.074	0.052	-0.111
-662.989	203.757	0.239	-0.374
-661.974	800.000	-0.013	-0.038
-660.959	5.284	-0.187	0.139
-659.945	-200.000	0.120	-0.000
-658.930	800.000	0.055	-0.193
-657.916	-82.902	0.142	0.046
-656.901	-100.868	-0.438	-0.109
-655.886	-10.481	-0.213	0.142
-654.872	36.327	-0.131	-0.116
-653.857	-149.396	-0.367	-0.029
-652.843	260.756	-0.140	0.244
-651.828	-97.345	0.393	-0.103
-650.814	147.063	0.115	-0.156
-649.799	73.719	-0.024	-0.026
-648.784	323.802	-0.217	-0.419
-647.770	3.401	0.144	-0.106
-646.755	93.590	-0.198	0.227
-645.741	-130.781	-0.253	0.034
-644.726	-64.233	0.434	-0.178
-643.711	-0.740	0.264	-0.189
-642.697	-200.000	0.045	0.299
-641.682	16.031	-0.160	0.127
-640.668	-23.802	0.194	0.117
-639.653	16.453	-0.269	0.214
-638.638	18.889	-0.248	0.201
-637.624	-139.103	0.089	0.010
-636.609	22.383	-0.294	0.243
-635.595	40.546	-0.199	0.181
-634.580	589.420	-0.189	0.470
-633.565	-83.188	0.048	-0.015
-632.551	343.128	-0.075	-0.148
-631.536	151.791	0.230	-0.316
-630.522	266.814	0.067	-0.119
-629.507	677.496	0.180	-0.472
-628.492	-154.745	0.114	-0.008
-627.478	800.000	0.035	-0.142
-626.463	387.454	-0.176	-0.367
-625.449	-200.000	0.023	0.109
-624.434	2.294	0.175	-0.127
-623.419	66.469	0.151	-0.155
-622.405	-121.291	0.122	0.021
-621.390	-155.805	-0.149	0.010
-620.376	118.643	-0.161	-0.201
-619.361	-53.211	-0.285	-0.132
-618.346	-116.513	-0.247	0.046
-617.332	-200.000	0.008	-0.224
-616.317	102.159	-0.049	-0.058
-615.303	-50.181	0.242	0.116
-614.288	-96.132	0.247	0.066
-613.273	-200.000	0.034	0.204
-612.259	258.906	0.060	0.104
-611.244	86.592	0.133	0.148
-610.230	-171.132	0.080	0.003
-609.215	133.684	0.055	-0.072
-608.201	-200.000	-0.027	-0.499
-607.186	122.861	0.087	0.109
-606.171	-200.000	0.012	0.081
-605.157	54.020	-0.135	0.131
-604.142	142.553	-0.312	0.418
-603.128	-200.000	-0.041	0.197
-602.113	-84.825	0.119	0.038
-601.098	25.708	-0.102	-0.085
-600.084	-200.000	-0.010	-0.261
-599.069	800.000	-0.007	0.027
-598.055	-200.000	0.091	0.552
-597.040	-135.076	-0.230	0.028
-596.025	-200.000	0.000	-0.115
-595.011	-86.134	0.183	-0.057
-593.996	-43.076	0.212	0.108
-592.982	-87.361	-0.276	0.084
-591.967	188.940	-0.187	0.281
-590.952	-200.000	0.104	-0.524
-589.938	344.628	0.086	-0.170
-588.923	92.117	-0.051	-0.058
-587.909	252.610	0.053	0.092
-586.894	800.000	-0.077	0.274
-585.879	800.000	-0.044	-0.153
-584.865	-139.391	0.043	-0.005
-583.850	-69.588	0.099	0.038
-582.836	-61.514	-0.132	-0.056
-581.821	126.306	0.088	-0.112
-580.806	800.000	0.030	0.089
-579.792	-117.985	0.050	0.009
-578.777	170.719	-0.099	-0.142
-577.763	-200.000	0.001	0.063
-576.748	800.000	-0.043	0.158
-575.733	-84.885	0.249	-0.079
-574.719	-15.432	0.118	0.076
-573.704	648.901	0.001	0.002
-572.690	-66.145	0.280	-0.112
-571.675	50.392	-0.143	-0.136
-570.661	-112.737	0.103	0.021
-569.646	-29.863	-0.058	0.033
-568.631	800.000	0.078	0.278
-567.617	-200.000	-0.030	0.243
-566.602	-41.183	0.268	0.139
-565.588	543.292	0.088	0.212
-564.573	103.789	-0.140	-0.165
-563.558	67.850	-0.213	-0.219
-562.544	-200.000	0.041	0.229
-561.529	466.755	-0.069	0.155
-560.515	-200.000	0.037	-0.165
-559.500	-77.769	-0.032	-0.011
-558.485	152.451	-0.184	-0.253
-557.471	-3.641	0.171	0.120
-556.456	33.356	0.305	-0.267
-555.442	150.507	0.098	0.134
-554.427	-130.823	-0.279	0.038
-553.412	225.478	-0.108	-0.175
-552.398	-94.112	-0.367	-0.101
-551.383	-153.059	0.479	0.034
-550.369	800.000	-0.007	0.020
-549.354	-200.000	0.024	-0.177
-548.339	-154.618	0.214	0.014
-547.325	-49.788	0.149	0.071
-546.310	-156.394	-0.143	0.009
-545.296	55.959	0.103	0.100
-544.281	321.131	0.128	0.244
-543.266	1.072	0.044	0.032
-542.252	-200.000	0.012	-0.084
-541.237	268.476	-0.163	-0.288
-540.223	11.452	-0.160	0.123
-539.208	-23.383	0.216	-0.130
-538.193	-200.000	0.023	0.149
-537.179	-103.440	-0.086	-0.020
-536.164	-23.262	-0.224	0.136
-535.150	82.908	-0.211	0.231
-534.135	-57.028	-0.068	-0.030
-533.121	-20.811	-0.349	0.215
-532.106	-61.802	0.133	-0.056
-531.091	57.341	-0.108	0.106
-530.077	15.959	-0.363	0.287
-529.062	154.157	-0.280	-0.385
-528.048	-121.221	-0.319	-0.054
-527.033	-120.260	-0.231	0.040
-526.018	134.367	0.198	0.258
-525.004	800.000	0.063	-0.217
-523.989	276.001	0.147	0.261
-522.975	354.763	0.033	-0.066
-521.960	787.291	-0.008	0.021
-520.945	120.744	-0.174	-0.218
-519.931	-90.766	-0.086	-0.025
-518.916	-103.044	0.156	-0.037
-517.902	351.638	-0.098	-0.196
-516.887	800.000	0.067	-0.257
-515.872	18.779	0.339	-0.273
-514.858	42.303	-0.242	0.221
-513.843	-200.000	0.009	0.166
-512.829	800.000	-0.145	0.416
-511.814	-48.740	0.132	-0.064
-510.799	-109.213	0.121	0.026
-509.785	44.399	-0.352	-0.325
-508.770	-200.000	0.031	0.156
-507.756	233.645	-0.145	0.239
-506.741	-23.901	-0.049	0.029
-505.726	55.066	0.350	0.340
-504.712	116.940	0.091	-0.112
-503.697	-139.505	0.200	0.021
-502.683	23.341	0.125	-0.103
-501.668	-200.000	0.050	-0.228
-500.653	-58.779	-0.293	-0.127
-499.639	404.496	0.037	-0.078
-498.624	-138.398	-0.076	0.008
-497.610	111.345	-0.174	-0.210
-496.595	19.587	0.129	0.104
-495.581	-200.000	-0.045	-0.347
-494.566	-200.000	-0.006	0.271
-493.551	-149.267	-0.190	0.015
-492.537	48.050	0.134	0.126
-491.522	-43.876	-0.236	0.119
-490.508	-67.033	-0.416	-0.165
-489.493	-42.590	-0.129	-0.066
-488.478	-32.199	0.117	0.065
-487.464	283.936	0.146	-0.263
-486.449	-200.000	-0.016	0.284
-485.435	-14.338	-0.284	-0.184
-484.420	-131.197	0.233	0.031
-483.405	-128.318	-0.083	-0.012
-482.391	800.000	-0.083	-0.324
-481.376	-132.961	-0.077	0.010
-480.362	683.666	-0.057	0.149
-479.347	74.380	0.272	0.287
-478.332	119.042	0.123	0.153
-477.318	-200.000	-0.038	0.205
-476.303	-135.906	-0.249	0.029
-475.289	-200.000	-0.048	0.226
-474.274	180.075	-0.147	-0.216
-473.259	20.520	0.111	-0.090
-472.245	800.000	0.018	0.067
-471.230	-200.000	-0.100	0.548
-470.216	-82.306	-0.103	0.034
-469.201	-200.000	-0.026	0.138
-468.186	-200.000	-0.015	0.408
-467.172	-18.758	0.141	0.088
-466.157	-99.346	0.238	-0.060
-465.143	-200.000	0.022	-0.152
-464.128	-200.000	-0.038	-0.168
-463.113	800.000	-0.092	0.315
-462.099	162.941	-0.073	0.103
-461.084	215.287	0.086	0.137
-460.070	-200.000	0.004	0.075
-459.055	203.185	0.195	0.303
-458.040	149.147	-0.075	0.102
-457.026	58.535	-0.103	-0.101
-456.011	13.452	-0.197	-0.153
-454.997	-152.207	0.308	-0.022
-453.982	125.536	-0.259	0.328
-452.968	-200.000	-0.004	0.207
-451.953	-186.472	0.161	-0.002
-450.938	78.989	0.191	-0.205
-449.924	800.000	-0.074	0.255
-448.909	-146.306	-0.254	-0.022
-447.895	28.147	-0.058	-0.049
-446.880	775.491	0.085	-0.232
-445.865	240.621	0.075	-0.126
-444.851	-112.367	-0.390	-0.078
-443.836	459.767	0.119	-0.266
-442.822	-146.155	-0.280	-0.025
-441.807	21.610	0.263	-0.214
-440.792	800.000	0.117	0.336
-439.778	52.549	0.132	0.126
-438.763	-44.976	-0.238	0.118
-437.749	545.394	0.129	0.309
-436.734	53.843	-0.211	-0.203
-435.719	-65.485	0.347	-0.140
-434.705	-69.027	-0.065	0.025
-433.690	-77.131	-0.086	0.030
-432.676	800.000	0.035	-0.107
-431.661	-147.261	-0.158	-0.013
-430.646	119.349	-0.210	0.261
-429.632	-154.414	0.030	-0.002
-428.617	759.000	0.090	0.243
-427.603	-200.000	0.030	-0.232
-426.588	-200.000	0.006	-0.201
-425.573	-126.219	-0.164	0.025
-424.559	109.496	0.106	-0.127
-423.544	259.440	0.096	0.167
-422.530	403.582	0.071	-0.149
-421.515	190.413	0.102	0.154
-420.500	-7.128	0.402	-0.273
-419.486	193.741	0.073	-0.111
-418.471	16.773	-0.286	-0.227
-417.457	264.536	0.205	-0.358
-416.442	75.441	-0.225	0.238
-415.428	-200.000	0.087	-0.385
-414.413	-47.892	-0.188	-0.091
-413.398	-200.000	0.029	-0.429
-412.384	-200.000	0.090	0.533
-411.369	49.317	0.078	0.073
-410.355	482.083	0.095	-0.215
-409.340	194.766	0.061	-0.093
-408.325	4.075	0.335	0.245
-407.311	26.232	-0.155	-0.129
-406.296	-100.560	-0.042	-0.010
-405.282	316.722	-0.131	-0.248
-404.267	-161.119	0.198	0.010
-403.252	122.862	0.002	-0.002
-402.238	31.105	0.071	0.061
-401.223	705.701	-0.048	0.127
-400.209	-200.000	0.033	-0.175
-399.194	42.902	0.045	0.041
-398.179	239.887	-0.118	0.196
-397.165	344.821	0.061	0.121
-396.150	-180.538	0.154	-0.003
-395.136	762.621	-0.026	-0.069
-394.121	-200.000	0.026	0.306
-393.106	467.438	0.062	0.138
-392.092	80.550	-0.218	0.235
-391.077	60.641	0.181	-0.180
-390.063	800.000	0.072	-0.262
-389.048	172.392	-0.058	0.084
-388.033	33.727	-0.134	-0.117
-387.019	-84.499	0.343	0.108
-386.004	-106.775	-0.194	-0.043
-384.990	-195.292	0.368	-0.003
-383.975	-200.000	0.004	0.151
-382.960	-5.963	-0.052	0.036
-381.946	-200.000	0.012	0.095
-380.931	35.812	0.093	0.081
-379.917	800.000	-0.089	0.253
-378.902	-99.684	-0.271	0.068
-377.888	134.274	0.090	-0.117
-376.873	-200.000	0.018	0.136
-375.858	-138.616	0.661	0.072
-374.844	59.601	-0.107	-0.105
-373.829	71.910	0.129	0.134
-372.815	65.050	0.117	-0.118
-371.800	234.464	0.222	-0.366
-370.785	-119.970	-0.341	-0.059
-369.771	-57.329	0.084	0.037
-368.756	414.261	0.039	-0.084
-367.742	800.000	-0.011	-0.045
-366.727	23.708	0.219	0.180
-365.712	-200.000	-0.022	-0.103
-364.698	-200.000	-0.031	0.286
-363.683	-143.705	-0.115	-0.011
-362.669	507.319	-0.045	-0.105
-361.654	104.568	-0.128	0.150
-360.639	-120.448	0.288	-0.049
-359.625	-156.983	0.217	-0.013
-358.610	-51.835	0.298	0.139
-357.596	34.036	0.350	0.304
-356.581	-52.411	-0.356	-0.164
-355.566	211.573	-0.067	0.106
-354.552	800.000	0.076	0.326
-353.537	-200.000	-0.030	0.188
-352.523	190.626	0.159	-0.239
-351.508	100.689	0.145	-0.168
-350.493	-38.827	0.069	0.037
-349.479	-152.999	0.170	0.012
-348.464	234.146	-0.088	-0.145
-347.450	-85.208	-0.250	-0.078
-346.435	34.328	-0.160	-0.139
-345.420	95.445	0.069	-0.078
-344.406	-200.000	-0.015	-0.070
-343.391	-97.655	0.207	-0.054
-342.377	234.753	-0.061	0.100
-341.362	-11.511	-0.172	-0.113
-340.348	56.179	0.114	0.110
-339.333	-200.000	0.006	0.212
-338.318	35.128	-0.048	-0.042
-337.304	-125.510	-0.269	0.041
-336.289	500.961	0.046	0.107
-335.275	-23.192	-0.348	0.209
-334.260	-200.000	-0.006	0.185
-333.245	153.087	-0.154	0.210
-332.231	6.200	-0.206	-0.152
-331.216	-40.421	-0.087	0.045
-330.202	125.636	-0.100	-0.126
-329.187	-28.959	0.124	0.071
-328.172	-106.132	0.016	-0.004
-327.158	115.876	0.214	-0.260
-326.143	-158.144	0.156	0.009
-325.129	-107.884	-0.098	0.021
-324.114	37.244	0.194	-0.171
-323.099	-48.353	0.131	0.063
-322.085	-99.278	-0.297	-0.075
-321.070	29.846	-0.129	-0.110
-320.056	-182.333	-0.197	-0.004
-319.041	692.992	-0.051	-0.132
-318.026	-200.000	0.008	-0.142
-317.012	-200.000	-0.010	-0.160
-315.997	99.108	0.085	0.098
-314.983	-200.000	0.016	0.090
-313.968	-200.000	0.040	0.176
-312.953	-112.348	0.253	-0.050
-311.939	-200.000	-0.053	0.487
-310.924	-73.046	0.320	0.117
-309.910	800.000	0.037	-0.135
-308.895	51.561	0.099	-0.094
-307.880	-26.476	-0.051	0.030
-306.866	37.879	-0.224	-0.198
-305.851	-76.084	-0.072	0.025
-304.837	-42.282	0.111	-0.056
-303.822	-87.645	0.055	-0.016
-302.807	-146.630	-0.411	0.036
-301.793	474.611	-0.118	0.264
-300.778	-200.000	0.015	-0.126
-299.764	-156.440	0.252	0.016
-298.749	-42.355	-0.292	0.149
-297.735	-200.000	-0.019	0.256
-296.720	-17.873	-0.155	0.097
-295.705	-177.712	0.262	-0.006
-294.691	206.867	-0.088	-0.136
-293.676	190.937	-0.164	-0.246
-292.662	-42.957	-0.259	0.131
-291.647	-170.513	0.160	0.006
-290.632	169.961	-0.039	0.056
-289.618	214.663	-0.133	-0.210
-288.603	-200.000	-0.033	0.224
-287.589	-53.829	0.294	-0.133
-286.574	-100.057	0.070	0.017
-285.559	-138.091	-0.329	-0.036
-284.545	-69.384	0.023	0.009
-283.530	295.729	0.128	0.233
-282.516	67.826	-0.141	-0.143
-281.501	-200.000	0.002	0.290
-280.486	-6.547	0.157	-0.106
-279.472	800.000	-0.051	0.201
-278.457	113.756	0.159	0.192
-277.443	33.716	0.247	0.213
-276.428	-147.562	0.394	0.033
-275.413	-148.985	0.419	-0.034
-274.399	-200.000	-0.004	-0.061
-273.384	-200.000	0.016	0.246
-272.370	-8.184	0.089	0.060
-271.355	23.117	-0.239	0.195
-270.340	-200.000	0.012	-0.170
-269.326	56.432	-0.210	-0.203
-268.311	-200.000	0.007	0.178
-267.297	245.602	0.148	0.248
-266.282	23.479	0.138	-0.113
-265.267	-200.000	-0.000	0.077
-264.253	124.224	0.049	-0.061
-263.238	9.699	0.059	0.045
-262.224	9.770	-0.167	0.126
-261.209	282.329	0.023	0.041
-260.195	800.000	0.023	-0.099
-259.180	-114.965	0.223	-0.042
-258.165	-3.212	0.060	0.041
-257.151	-87.694	-0.155	-0.046
-256.136	-34.870	-0.083	0.045
-255.122	18.620	-0.089	-0.071
-254.107	322.878	-0.044	0.083
-253.092	510.899	0.109	-0.253
-252.078	-129.772	0.170	0.023
-251.063	515.942	0.050	-0.117
-250.049	800.000	-0.137	-0.469
-249.034	381.650	-0.090	0.184
-248.019	-36.785	0.264	0.141
-247.005	212.669	-0.239	-0.374
-245.990	-200.000	0.018	-0.122
-244.976	800.000	0.058	0.235
-243.961	800.000	-0.120	-0.363
-242.946	85.882	0.060	0.066
-241.932	111.360	0.101	0.121
-240.917	120.479	0.070	0.086
-239.903	523.571	0.056	0.131
-238.888	0.406	0.094	-0.067
-237.873	-191.937	-0.392	0.004
-236.859	-160.970	-0.200	-0.010
-235.844	-59.937	-0.305	0.130
-234.830	151.437	0.078	-0.106
-233.815	-59.653	0.008	0.003
-232.800	-200.000	-0.082	0.429
-231.786	-53.961	0.267	0.121
-230.771	200.138	0.164	-0.250
-229.757	-176.491	-0.125	0.003
-228.742	127.055	0.145	0.183
-227.727	-26.119	-0.258	0.151
-226.713	-200.000	-0.028	-0.178
-225.698	-12.597	0.224	-0.145
-224.684	-15.510	-0.169	-0.107
-223.669	800.000	0.060	0.204
-222.655	-93.996	0.212	0.058
-221.640	-68.422	0.359	0.138
-220.625	2.068	-0.126	-0.090
-219.611	-125.602	0.107	-0.016
-218.596	287.340	-0.159	-0.286
-217.582	-46.785	-0.094	-0.046
-216.567	63.800	0.057	-0.057
-215.552	162.819	0.205	-0.286
-214.538	-200.000	-0.041	-0.465
-213.523	195.816	-0.081	0.122
-212.509	129.206	0.066	0.084
-211.494	-200.000	0.042	-0.483
-210.479	385.305	-0.176	-0.359
-209.465	302.028	0.045	0.083
-208.450	-200.000	0.038	0.337
-207.436	469.487	0.076	-0.170
-206.421	800.000	0.061	-0.204
-205.406	186.369	0.057	-0.084
-204.392	314.512	-0.142	0.266
-203.377	63.631	0.130	-0.130
-202.363	-200.000	-0.003	-0.118
-201.348	800.000	0.067	-0.245
-200.333	-103.586	-0.226	-0.053
-199.319	-110.136	-0.232	-0.048
-198.304	19.177	0.158	0.126
-197.290	-53.114	-0.171	-0.078
-196.275	210.682	-0.101	-0.157
-195.260	-74.358	0.157	-0.056
-194.246	0.712	-0.136	0.097
-193.231	289.166	0.049	-0.088
-192.217	379.348	0.126	0.257
-191.202	-91.113	-0.329	-0.093
-190.187	-200.000	0.088	-0.398
-189.173	-89.272	0.310	0.091
-188.158	-60.765	-0.237	0.100
-187.144	13.102	-0.235	0.181
-186.129	342.183	-0.071	0.138
-185.114	128.617	0.062	-0.078
-184.100	-26.510	0.161	-0.094
-183.085	-99.296	-0.176	-0.044
-182.071	-176.081	0.025	0.001
-181.056	-200.000	0.081	-0.513
-180.042	135.333	-0.073	-0.094
-179.027	115.796	0.127	-0.154
-178.012	53.924	0.069	-0.065
-176.998	-200.000	0.009	-0.391
-175.983	320.744	-0.131	-0.246
-174.969	50.306	-0.138	0.129
-173.954	-46.342	0.304	0.148
-172.939	-177.706	0.046	-0.001
-171.925	514.599	-0.073	-0.168
-170.910	1.665	-0.161	0.115
-169.896	-120.831	-0.206	-0.034
-168.881	-68.513	0.160	-0.061
-167.866	41.185	0.075	-0.067
-166.852	-200.000	-0.032	-0.249
-165.837	800.000	-0.072	-0.201
-164.823	132.593	0.248	0.317
-163.808	-85.129	0.191	0.059
-162.793	17.519	-0.039	-0.030
-161.779	-23.552	-0.091	-0.054
-160.764	122.255	0.224	-0.277
-159.750	-75.002	-0.277	-0.098
-158.735	800.000	-0.026	0.107
-157.720	800.000	0.032	-0.114
-156.706	74.461	0.082	0.085
-155.691	800.000	-0.031	-0.130
-154.677	57.160	-0.054	-0.053
-153.662	-23.273	-0.142	0.084
-152.647	345.383	-0.143	0.279
-151.633	43.324	-0.014	-0.012
-150.618	232.831	-0.200	0.325
-149.604	800.000	0.020	0.063
-148.589	-200.000	0.001	0.249
-147.574	-70.491	-0.128	0.048
-146.560	-94.258	-0.112	0.030
-145.545	-200.000	-0.002	-0.190
-144.531	499.940	-0.117	-0.267
-143.516	159.543	-0.243	-0.334
-142.502	211.977	-0.146	0.227
-141.487	614.918	-0.117	0.290
-140.472	228.266	-0.069	0.110
-139.458	388.341	-0.148	0.304
-138.443	387.694	0.131	0.267
-137.429	265.990	0.205	0.354
-136.414	-70.771	-0.097	-0.036
-135.399	-31.180	0.200	0.111
-134.385	406.849	-0.095	-0.199
-133.370	-200.000	0.040	0.288
-132.356	800.000	0.090	0.249
-131.341	-60.151	0.241	0.102
-130.326	47.878	0.178	-0.165
-129.312	-200.000	-0.014	-0.177
-128.297	-31.169	-0.225	-0.126
-127.283	407.345	-0.054	0.113
-126.268	498.099	-0.121	-0.276
-125.253	376.005	0.079	-0.159
-124.239	800.000	0.086	0.263
-123.224	800.000	0.054	-0.234
-122.210	-10.140	-0.096	0.063
-121.195	-200.000	-0.026	0.159
-120.180	70.237	0.129	-0.131
-119.166	800.000	-0.108	-0.344
-118.151	-116.717	0.125	-0.023
-117.137	-200.000	-0.068	0.342
-116.122	209.028	-0.078	0.120
-115.107	-50.592	-0.075	-0.035
-114.093	-54.749	0.070	-0.031
-113.078	800.000	0.101	0.285
-112.064	-51.677	0.119	0.055
-111.049	-200.000	-0.335	0.001
-110.034	-173.352	-0.234	-0.007
-109.020	287.429	0.047	-0.084
-108.005	721.813	-0.041	-0.108
-106.991	800.000	-0.045	0.127
-105.976	235.050	0.195	0.318
-104.962	6.219	0.205	-0.151
-103.947	-177.751	0.178	0.004
-102.932	113.127	0.097	-0.116
-101.918	1.851	-0.229	-0.163
-100.903	111.250	-0.085	0.101
-99.889	-83.633	0.149	0.047
-98.874	800.000	0.071	0.245
-97.859	-143.411	-0.229	0.022
-96.845	-48.312	-0.132	0.063
-95.830	800.000	-0.053	0.176
-94.816	-42.410	-0.222	0.112
-93.801	3.986	-0.156	0.112
-92.786	-186.797	0.156	-0.002
-91.772	43.254	0.190	-0.171
-90.757	-56.174	0.106	-0.047
-89.743	-70.086	-0.059	-0.022
-88.728	152.359	-0.100	0.135
-87.713	800.000	-0.065	0.217
-86.699	3.967	0.193	0.139
-85.684	800.000	-0.077	0.211
-84.670	-36.669	0.136	0.072
-83.655	-66.830	-0.380	0.148
-82.640	-146.689	0.119	-0.010
-81.626	-98.324	0.298	0.075
-80.611	-120.921	0.168	0.028
-79.597	96.159	-0.212	0.239
-78.582	-149.426	0.160	-0.013
-77.567	-70.109	0.206	-0.077
-76.553	800.000	0.036	0.151
-75.538	-136.747	0.321	-0.037
-74.524	42.137	-0.098	-0.088
-73.509	74.253	0.051	0.053
-72.494	-200.000	-0.011	0.209
-71.480	-158.827	-0.291	-0.016
-70.465	-92.985	0.431	0.119
-69.451	-41.605	-0.352	-0.178
-68.436	-136.677	0.322	0.037
-67.422	12.902	0.067	0.051
-66.407	437.062	0.063	0.135
-65.392	-200.000	-0.039	0.262
-64.378	800.000	-0.051	0.147
-63.363	-46.375	0.093	-0.045
-62.349	-11.686	0.158	0.102
-61.334	90.339	-0.879	-0.970
-60.319	-52.475	0.725	0.331
-59.305	-200.000	0.005	-1.012
-58.290	219.795	0.576	0.909
-57.276	286.720	0.705	1.256
-56.261	-200.000	97.586	573.333
-55.246	622.875	1407.944	3496.882
-54.232	184.995	2623.438	3837.730
-53.217	113.713	2313.230	2771.624
-52.203	43.478	1924.020	1734.364
-51.188	37.320	1710.577	1494.707
-50.173	34.495	1666.125	1434.592
-49.159	51.746	1714.861	1608.529
-48.144	54.843	1731.393	1647.555
-47.130	37.135	1687.649	1473.029
-46.115	34.186	1672.719	1437.712
-45.100	34.014	1668.016	1432.314
-44.086	33.885	1665.455	1429.090
-43.071	33.949	1662.909	1427.330
-42.057	33.879	1660.512	1424.693
-41.042	33.953	1658.309	1423.295
-40.027	33.921	1656.688	1421.613
-39.013	33.925	1654.370	1419.597
-37.998	33.902	1652.998	1418.190
-36.984	33.938	1651.867	1417.430
-35.969	34.034	1649.965	1416.455
-34.954	34.164	1647.792	1415.501
-33.940	34.043	1646.641	1413.559
-32.925	34.069	1644.972	1412.263
-31.911	34.135	1642.505	1410.582
-30.896	34.076	1640.915	1408.721
-29.881	34.055	1639.495	1407.293
-28.867	34.051	1637.667	1405.634
-27.852	34.047	1635.899	1404.034
-26.838	34.051	1634.630	1402.921
-25.823	34.054	1633.720	1402.100
-24.809	34.123	1632.122	1401.184
-23.794	34.115	1630.397	1399.591
-22.779	34.048	1629.471	1398.247
-21.765	34.008	1627.965	1396.603
-20.750	34.103	1625.369	1395.018
-19.736	34.178	1624.053	1394.383
-18.721	34.067	1622.968	1392.586
-17.706	34.071	1621.417	1391.223
-16.692	34.060	1620.142	1389.998
-15.677	34.087	1618.612	1388.824
-14.663	34.120	1616.921	1387.558
-13.648	34.144	1615.896	1386.800
-12.633	34.047	1614.450	1384.798
-11.619	34.040	1613.059	1383.503
-10.604	34.165	1610.713	1382.342
-9.590	34.072	1610.216	1381.181
-8.575	34.152	1608.359	1380.114
-7.560	34.087	1607.500	1378.850
-6.546	34.074	1606.574	1377.909
-5.531	34.060	1605.448	1376.790
-4.517	34.099	1604.160	1375.912
-3.502	34.088	1602.707	1374.534
-2.487	34.152	1601.357	1373.778
-1.473	33.998	1590.029	1362.905
-0.458	31.214	1570.456	1326.331
0.556	26.577	1569.924	1292.571
1.571	24.073	1594.310	1294.354
2.586	23.525	1607.533	1300.956
3.600	20.858	1555.067	1239.439
4.615	13.048	1445.614	1100.237
5.629	6.245	1381.153	1007.635
6.644	5.066	1373.103	994.163
7.659	4.975	1372.150	992.803
8.673	4.950	1370.720	991.522
9.688	4.949	1368.885	990.103
10.702	4.863	1365.977	987.366
11.717	8.067	1373.121	1012.829
12.731	15.703	1386.625	1071.538
13.746	19.601	1391.822	1100.342
14.761	18.712	1388.918	1092.290
15.775	17.649	1386.052	1083.190
16.790	16.578	1383.067	1073.963
17.804	15.599	1381.212	1066.223
18.819	15.212	1380.149	1062.852
19.834	14.983	1378.326	1059.902
20.848	14.762	1376.937	1057.343
21.863	14.526	1375.658	1054.777
22.877	14.398	1374.875	1053.271
23.892	14.215	1374.283	1051.566
24.907	14.284	1373.547	1051.350
25.921	14.443	1371.617	1050.779
26.936	14.431	1370.752	1049.952
27.950	14.388	1370.411	1049.322
28.965	14.518	1369.113	1049.059
29.980	14.549	1367.874	1048.210
30.994	14.629	1366.835	1047.821
32.009	14.641	1365.833	1047.039
33.023	14.581	1364.340	1045.423
34.038	14.607	1363.049	1044.504
35.053	14.552	1361.838	1043.142
36.067	14.460	1361.141	1041.936
37.082	14.496	1359.691	1040.959
38.096	14.538	1358.838	1040.478
39.111	14.589	1358.107	1040.146
40.126	14.459	1357.584	1038.844
41.140	14.393	1356.058	1037.173
42.155	14.227	1356.078	1036.063
43.169	14.243	1355.471	1035.602
44.184	14.251	1354.910	1035.133
45.199	14.231	1354.915	1034.921
46.213	14.274	1354.200	1034.554
47.228	14.425	1353.257	1034.679
48.242	14.393	1351.864	1033.321
49.257	14.388	1350.376	1032.061
50.271	14.392	1349.297	1031.172
51.286	14.421	1347.773	1030.093
52.301	14.508	1346.493	1029.566
53.315	14.319	1345.578	1027.604
54.330	14.328	1344.292	1026.590
55.344	14.375	1342.803	1025.648
56.359	14.258	1342.031	1024.251
57.374	14.330	1340.695	1023.584
58.388	14.265	1340.001	1022.564
59.403	14.135	1339.764	1021.490
60.417	14.133	1339.089	1020.874
61.432	14.124	1338.356	1020.168
62.447	14.106	1337.373	1019.222
63.461	14.195	1335.503	1018.250
64.476	13.998	1335.263	1016.769
65.490	14.095	1333.659	1016.054
66.505	14.189	1331.740	1015.075
67.520	14.149	1330.688	1013.940
68.534	14.172	1329.876	1013.372
69.549	14.293	1328.438	1012.924
70.563	14.163	1327.721	1011.493
71.578	13.996	1327.030	1009.865
72.593	14.046	1325.606	1008.995
73.607	13.980	1325.199	1008.197
74.622	13.971	1324.636	1007.625
75.636	14.095	1323.565	1007.469
76.651	14.054	1322.838	1006.581
77.666	14.041	1322.603	1006.235
78.680	14.210	1321.395	1006.246
79.695	14.040	1321.678	1005.348
80.709	14.193	1320.267	1005.108
81.724	14.303	1319.625	1005.195
82.739	14.270	1319.230	1004.607
83.753	14.345	1318.018	1004.048
84.768	14.436	1316.818	1003.589
85.782	14.495	1315.745	1003.042
86.797	14.516	1314.276	1001.958
87.812	14.365	1313.188	1000.131
88.826	14.288	1312.441	999.014
89.841	14.393	1311.309	998.689
90.855	14.451	1310.396	998.256
91.870	14.503	1309.517	997.807
92.884	14.514	1308.525	997.029
93.899	14.484	1308.114	996.450
94.914	14.588	1307.011	996.143
95.928	14.573	1306.316	995.433
96.943	14.502	1305.462	994.275
97.957	14.531	1304.258	993.441
98.972	14.526	1303.207	992.523
99.987	14.454	1302.547	991.502
101.001	14.470	1301.266	990.537
102.016	14.407	1300.737	989.670
103.030	14.572	1299.372	989.525
104.045	14.546	1298.889	988.915
105.060	14.375	1297.284	986.595
106.074	14.393	1295.740	985.436
107.089	14.161	1295.009	983.421
108.103	14.147	1293.555	982.148
109.118	14.269	1291.671	981.349
110.133	14.360	1290.236	980.710
111.147	14.261	1289.057	979.147
112.162	14.259	1287.929	978.188
113.176	14.283	1286.522	977.176
114.191	14.265	1285.812	976.446
115.206	14.275	1284.961	975.767
116.220	14.327	1283.188	974.639
117.235	14.298	1282.242	973.669
118.249	14.264	1281.467	972.791
119.264	14.152	1280.174	971.073
120.279	14.261	1278.911	970.661
121.293	14.283	1277.664	969.758
122.308	14.270	1276.567	968.768
123.322	14.183	1275.991	967.736
124.337	14.226	1274.538	966.799
125.352	14.186	1273.630	965.793
126.366	14.180	1272.456	964.783
127.381	14.236	1271.462	964.268
128.395	14.171	1270.428	963.019
129.410	14.228	1269.519	962.579
130.424	14.249	1268.717	962.006
131.439	14.326	1267.428	961.385
132.454	14.309	1266.898	960.801
133.468	14.330	1265.615	959.868
134.483	14.396	1265.124	959.789
135.497	14.341	1264.185	958.675
136.512	14.290	1263.011	957.404
137.527	14.414	1260.849	956.392
138.541	14.363	1259.884	955.287
139.556	14.345	1258.391	953.967
140.570	14.437	1257.916	954.050
141.585	14.461	1256.856	953.295
142.600	14.540	1255.533	952.657
143.614	14.511	1254.924	951.950
144.629	14.659	1253.556	951.671
145.643	14.534	1252.531	950.097
146.658	14.443	1250.972	948.310
147.673	14.462	1249.628	947.319
148.687	14.393	1248.691	946.130
149.702	14.309	1247.706	944.823
150.716	14.421	1245.740	943.885
151.731	14.450	1244.448	942.986
152.746	14.367	1243.974	942.078
153.760	14.538	1242.004	941.465
154.775	14.557	1241.026	940.747
155.789	14.637	1240.151	940.454
156.804	14.530	1239.226	939.068
157.819	14.596	1238.503	938.804
158.833	14.639	1237.606	938.285
159.848	14.785	1236.397	938.103
160.862	14.692	1235.706	936.978
161.877	14.605	1234.520	935.504
162.892	14.501	1233.796	934.293
163.906	14.447	1232.559	932.970
164.921	14.359	1232.031	931.994
165.935	14.509	1231.086	932.039
166.950	14.624	1229.911	931.706
167.964	14.501	1229.507	930.631
168.979	14.534	1228.768	930.176
169.994	14.606	1227.640	929.641
171.008	14.541	1226.995	928.706
172.023	14.777	1226.039	929.212
173.037	14.750	1225.520	928.590
174.052	14.663	1225.289	927.849
175.067	14.603	1223.786	926.296
176.081	14.626	1222.743	925.552
177.096	14.530	1222.230	924.547
178.110	14.683	1220.638	924.110
179.125	14.672	1219.539	923.133
180.140	14.630	1218.394	921.956
181.154	14.636	1217.389	921.144
182.169	14.747	1215.804	920.477
183.183	14.741	1214.576	919.429
184.198	14.835	1213.307	918.908
185.213	14.797	1212.248	917.813
186.227	14.777	1211.157	916.799
187.242	14.726	1210.476	915.922
188.256	14.911	1209.199	915.889
189.271	14.953	1208.105	915.206
190.286	14.875	1207.052	913.899
191.300	14.689	1206.251	912.201
192.315	14.675	1205.168	911.220
193.329	14.589	1204.741	910.351
194.344	14.617	1204.043	909.892
195.359	14.816	1203.091	910.177
196.373	14.787	1203.063	909.918
197.388	14.920	1202.746	910.324
198.402	15.036	1202.163	910.431
199.417	14.963	1201.948	909.789
200.432	15.085	1201.003	909.659
201.446	15.178	1199.795	909.167
202.461	15.214	1199.017	908.695
203.475	15.096	1198.368	907.483
204.490	15.128	1196.659	906.281
205.504	15.091	1195.434	905.074
206.519	15.003	1194.333	903.685
207.534	15.099	1193.051	903.150
208.548	15.119	1191.876	902.288
209.563	15.034	1191.509	901.471
210.577	15.134	1190.751	901.359
211.592	15.157	1189.559	900.500
212.607	15.247	1188.690	900.246
213.621	15.122	1188.407	899.282
214.636	15.171	1186.981	898.385
215.650	15.200	1186.281	897.933
216.665	15.246	1185.356	897.397
217.680	15.335	1183.732	896.563
218.694	15.432	1183.282	896.662
219.709	15.370	1182.883	895.948
220.723	15.391	1181.637	895.040
221.738	15.363	1181.373	894.612
222.753	15.306	1180.598	893.642
223.767	15.473	1179.831	893.870
224.782	15.454	1179.223	893.230
225.796	15.399	1178.978	892.675
226.811	15.426	1178.245	892.184
227.826	15.330	1177.397	890.951
228.840	15.369	1176.830	890.649
229.855	15.439	1175.719	890.105
230.869	15.482	1174.867	889.606
231.884	15.392	1173.872	888.296
232.899	15.360	1173.182	887.529
233.913	15.331	1172.781	886.991
234.928	15.374	1171.643	886.278
235.942	15.273	1171.252	885.374
236.957	15.306	1170.274	884.730
237.972	15.336	1169.085	883.911
238.986	15.387	1168.442	883.613
240.001	15.396	1167.621	882.964
241.015	15.329	1167.284	882.276
242.030	15.483	1166.182	882.174
243.045	15.576	1165.675	882.204
244.059	15.585	1164.200	881.055
245.074	15.566	1164.210	880.887
246.088	15.561	1163.408	880.175
247.103	15.565	1162.901	879.732
248.117	15.560	1162.173	879.078
249.132	15.661	1161.323	878.886
250.147	15.729	1160.994	878.916
251.161	15.864	1159.867	878.689
252.176	15.886	1159.081	878.128
253.190	15.948	1158.812	878.171
254.205	16.112	1158.125	878.430
255.220	15.994	1157.426	877.206
256.234	16.046	1156.722	876.865
257.249	15.981	1155.911	875.835
258.263	16.076	1155.047	875.595
259.278	16.029	1154.705	875.017
260.293	15.910	1154.679	874.300
261.307	16.159	1153.538	874.651
262.322	16.088	1153.279	874.008
263.336	16.067	1152.519	873.247
264.351	16.093	1151.995	872.907
265.366	16.136	1151.009	872.306
266.380	16.219	1150.234	872.068
267.395	16.274	1149.054	871.384
268.409	16.074	1148.740	870.034
269.424	16.089	1148.137	869.580
270.439	16.111	1147.676	869.265
271.453	16.185	1146.559	868.721
272.468	16.000	1145.724	867.062
273.482	16.049	1144.840	866.565
274.497	16.133	1144.252	866.476
275.512	16.072	1143.606	865.599
276.526	16.089	1142.931	865.101
277.541	16.124	1142.664	864.999
278.555	16.176	1141.507	864.316
279.570	16.128	1140.807	863.460
280.585	16.166	1140.298	863.195
281.599	16.279	1139.279	862.925
282.614	16.337	1138.030	862.195
283.628	16.253	1137.032	860.936
284.643	16.212	1136.315	860.111
285.657	16.194	1135.754	859.514
286.672	16.237	1134.676	858.845
287.687	16.380	1133.413	858.536
288.701	16.294	1133.065	857.763
289.716	16.273	1132.270	856.979
290.730	16.386	1131.315	856.752
291.745	16.329	1130.802	855.997
292.760	16.308	1130.340	855.466
293.774	16.481	1129.588	855.698
294.789	16.391	1129.109	854.806
295.803	16.468	1128.104	854.358
296.818	16.411	1127.615	853.623
297.833	16.411	1126.500	852.703
298.847	16.425	1126.002	852.320
299.862	16.413	1125.238	851.605
300.876	16.540	1124.420	851.551
301.891	16.408	1124.099	850.567
302.906	16.590	1123.274	850.783
303.920	16.640	1122.786	850.591
304.935	16.551	1122.165	849.598
305.949	16.769	1120.998	849.733
306.964	16.682	1120.803	849.076
307.979	16.779	1119.899	848.803
308.993	16.629	1119.224	847.464
310.008	16.724	1118.306	847.167
311.022	16.807	1117.718	847.060
312.037	16.803	1116.627	846.141
313.052	16.656	1115.848	844.740
314.066	16.589	1114.753	843.502
315.081	16.603	1113.913	842.863
316.095	16.532	1113.091	841.815
317.110	16.698	1112.533	842.145
318.125	16.617	1111.940	841.216
319.139	16.643	1111.350	840.825
320.154	16.524	1111.054	839.939
321.168	16.642	1110.679	840.164
322.183	16.611	1109.356	838.935
323.197	16.654	1108.793	838.647
324.212	16.626	1108.246	838.021
325.227	16.600	1107.595	837.327
326.241	16.676	1107.106	837.257
327.256	16.768	1105.991	836.798
328.270	16.756	1105.140	836.018
329.285	16.682	1104.189	834.862
330.300	16.797	1103.396	834.752
331.314	16.827	1102.334	834.023
332.329	16.855	1101.185	833.218
333.343	16.801	1100.646	832.472
334.358	16.868	1099.962	832.211
335.373	16.796	1099.602	831.511
336.387	16.860	1098.582	830.979
337.402	16.967	1097.560	830.659
338.416	16.978	1096.869	830.114
339.431	16.965	1096.408	829.629
340.446	17.092	1095.561	829.534
341.460	17.156	1094.713	829.133
342.475	17.149	1094.155	828.601
343.489	17.145	1093.471	827.988
344.504	17.165	1092.370	827.181
345.519	17.328	1091.481	827.229
346.533	17.173	1090.670	825.787
347.548	17.358	1090.172	826.234
348.562	17.310	1089.416	825.356
349.577	17.280	1088.410	824.375
350.592	17.057	1088.185	823.049
351.606	17.087	1086.816	822.086
352.621	17.179	1085.981	821.830
353.635	17.002	1085.692	820.681
354.650	17.124	1085.154	820.792
355.665	17.195	1084.109	820.271
356.679	17.192	1083.715	819.884
357.694	17.168	1082.909	819.086
358.708	17.206	1082.429	818.833
359.723	17.302	1081.685	818.664
360.738	17.368	1081.038	818.416
361.752	17.283	1080.492	817.521
362.767	17.312	1079.855	817.109
363.781	17.272	1079.411	816.506
364.796	17.306	1079.250	816.476
365.810	17.466	1078.163	816.352
366.825	17.559	1077.707	816.376
367.840	17.550	1077.141	815.837
368.854	17.784	1076.197	816.168
369.869	17.738	1075.620	815.435
370.883	17.647	1074.392	814.000
371.898	17.515	1074.070	813.052
372.913	17.560	1073.512	812.772
373.927	17.634	1072.851	812.556
374.942	17.622	1072.513	812.170
375.956	17.598	1072.151	811.710
376.971	17.659	1071.315	811.294
377.986	17.523	1070.866	810.233
379.000	17.811	1070.313	811.115
380.015	17.741	1069.922	810.413
381.029	17.776	1069.045	809.843
382.044	17.795	1068.458	809.416
383.059	17.821	1067.804	808.973
384.073	17.865	1066.728	808.297
385.088	17.870	1065.965	807.672
386.102	17.880	1064.951	806.878
387.117	17.750	1064.114	805.557
388.132	17.741	1063.006	804.603
389.146	17.770	1062.226	804.079
390.161	17.677	1061.813	803.258
391.175	17.681	1061.031	802.614
392.190	17.887	1060.050	802.769
393.205	17.949	1059.447	802.532
394.219	17.875	1059.008	801.782
395.234	17.834	1057.844	800.639
396.248	17.778	1056.889	799.580
397.263	17.846	1055.857	799.048
398.278	17.795	1055.119	798.182
399.292	17.868	1054.632	798.084
400.307	17.737	1053.805	796.773
401.321	17.800	1053.305	796.618
402.336	17.713	1052.938	795.867
403.350	17.797	1051.798	795.326
404.365	17.890	1050.874	794.992
405.380	17.978	1050.241	794.848
406.394	17.969	1049.663	794.302
407.409	17.877	1049.161	793.422
408.423	18.077	1047.986	793.390
409.438	18.187	1047.673	793.597
410.453	18.188	1047.003	793.022
411.467	18.317	1045.976	792.770
412.482	18.232	1045.785	792.163
413.496	18.285	1044.853	791.633
414.511	18.314	1044.345	791.310
415.526	18.264	1044.292	790.969
416.540	18.269	1043.441	790.280
417.555	18.325	1042.992	790.130
418.569	18.288	1042.671	789.645
419.584	18.274	1042.424	789.321
420.599	18.283	1041.810	788.828
421.613	147.776	1400.460	1790.255
422.628	135.135	1452.736	1790.363
