DTS Sentinel unit serial number:	SN413079Multiplexer serial number:	ORYXHardware model number:	OX4-SRSoftware version number:	ORYX F/W v4.00 Oryx Data Collector v3.7.2.0data status	okinstallation	princeton_trtdifferential loss correction	single-endedforward channel	channel 2reverse channel	N/Adate	2019/09/12time	05:33:11forward acquisition time	60.00reverse acquisition time	0.00gamma	496.2192k internal	0.2325k external	0.2325temperature offset calibration	1.0068default loss term (dB/km)	0.3790temperature slope calibration	1.0000multiplexer offset coefficient	1.0000multiplexer slope coefficient	1.0000fibre end	0.00T internal ref (°C)	31.94T ext. ref 1 (°C)	1.62T ext. ref 2 (°C)	27.44length (m)	temperature (°C)	Stokes	anti-Stokes-747.200	211.262	-0.098	0.156
-746.185	-200.000	0.007	0.225
-745.171	103.335	0.117	0.139
-744.156	-200.000	0.014	0.148
-743.142	-14.526	0.071	0.046
-742.127	800.000	0.122	0.533
-741.112	6.923	0.311	0.234
-740.098	-70.045	0.011	0.004
-739.083	178.774	0.083	-0.122
-738.069	-200.000	-0.020	0.202
-737.054	-200.000	-0.007	-0.104
-736.039	137.978	-0.129	-0.170
-735.025	800.000	-0.049	0.185
-734.010	800.000	-0.095	-0.347
-732.996	-45.585	-0.290	0.145
-731.981	114.098	0.029	0.036
-730.966	8.062	0.129	-0.098
-729.952	-113.610	-0.311	0.061
-728.937	-10.504	0.024	0.016
-727.923	110.969	0.083	-0.101
-726.908	185.370	-0.122	-0.183
-725.894	-182.360	-0.377	-0.007
-724.879	298.185	-0.076	-0.141
-723.864	-98.796	0.073	-0.019
-722.850	168.902	0.044	0.063
-721.835	-200.000	-0.001	-0.162
-720.821	46.374	0.145	-0.135
-719.806	-24.603	0.228	0.137
-718.791	-19.684	0.223	-0.139
-717.777	398.749	-0.124	-0.261
-716.762	-157.940	0.244	-0.014
-715.748	384.055	0.114	-0.237
-714.733	98.017	-0.103	-0.119
-713.718	-133.030	-0.178	0.023
-712.704	214.897	-0.157	0.250
-711.689	41.128	0.074	0.067
-710.675	-51.937	0.236	-0.111
-709.660	-61.438	0.203	-0.086
-708.645	800.000	0.091	-0.331
-707.631	523.509	-0.064	-0.152
-706.616	709.297	-0.099	0.263
-705.602	86.901	-0.200	-0.223
-704.587	-66.184	0.072	0.029
-703.572	-77.406	-0.170	-0.059
-702.558	-47.547	0.285	-0.139
-701.543	-116.114	0.428	-0.080
-700.529	800.000	-0.061	0.228
-699.514	-13.505	-0.072	-0.047
-698.499	-200.000	0.034	0.217
-697.485	24.744	-0.162	0.135
-696.470	612.522	0.113	0.285
-695.456	800.000	0.057	-0.162
-694.441	-200.000	0.007	-0.079
-693.426	145.747	0.188	0.253
-692.412	83.255	0.196	-0.215
-691.397	493.241	0.114	-0.263
-690.383	-111.777	-0.112	0.023
-689.368	-200.000	0.017	-0.169
-688.354	77.198	0.167	0.179
-687.339	48.317	0.226	0.213
-686.324	-124.563	0.096	-0.015
-685.310	8.076	-0.052	0.039
-684.295	41.372	0.194	0.177
-683.281	65.938	0.109	-0.111
-682.266	800.000	-0.098	0.309
-681.251	-165.541	-0.323	0.014
-680.237	800.000	0.044	-0.155
-679.222	-22.818	0.420	0.255
-678.208	89.101	0.140	0.157
-677.193	-91.203	-0.288	-0.083
-676.178	800.000	-0.017	-0.065
-675.164	-161.685	-0.388	0.020
-674.149	83.392	-0.369	-0.404
-673.135	800.000	-0.041	-0.150
-672.120	-81.698	-0.238	0.079
-671.105	-94.521	0.405	0.111
-670.091	-200.000	0.016	0.125
-669.076	800.000	0.015	-0.044
-668.062	-46.568	0.116	0.057
-667.047	800.000	0.011	-0.033
-666.032	43.552	-0.056	-0.051
-665.018	-50.631	0.126	0.060
-664.003	-32.756	0.169	-0.094
-662.989	163.563	0.155	0.220
-661.974	285.753	0.171	-0.311
-660.959	800.000	0.092	0.259
-659.945	-132.767	-0.087	0.011
-658.930	-27.483	0.243	-0.142
-657.916	75.159	-0.235	-0.249
-656.901	93.699	0.214	-0.243
-655.886	49.439	-0.216	0.204
-654.872	289.880	-0.126	0.229
-653.857	-118.257	0.215	-0.038
-652.843	313.027	0.064	0.122
-651.828	800.000	-0.079	0.273
-650.814	-152.198	-0.140	-0.010
-649.799	307.460	0.247	-0.463
-648.784	800.000	-0.079	-0.292
-647.770	6.059	-0.168	0.125
-646.755	627.719	-0.061	0.155
-645.741	-200.000	-0.034	0.188
-644.726	800.000	-0.078	0.294
-643.711	-191.083	0.037	-0.000
-642.697	-200.000	0.005	-0.073
-641.682	-129.820	-0.258	0.036
-640.668	132.336	0.149	-0.193
-639.653	155.856	-0.051	-0.070
-638.638	800.000	0.034	-0.105
-637.624	-9.367	0.121	0.081
-636.609	14.199	0.206	-0.161
-635.595	-200.000	-0.042	-0.360
-634.580	800.000	0.108	0.386
-633.565	-88.781	0.502	-0.150
-632.551	-93.365	-0.104	0.029
-631.536	-200.000	-0.012	-0.088
-630.522	-157.565	0.256	-0.015
-629.507	-46.880	-0.132	0.065
-628.492	259.044	-0.104	-0.180
-627.478	800.000	-0.067	0.208
-626.463	800.000	0.093	0.337
-625.449	-41.950	0.412	0.212
-624.434	-200.000	0.015	0.364
-623.419	50.033	0.084	-0.080
-622.405	266.370	0.052	0.092
-621.390	131.206	-0.069	-0.089
-620.376	-86.326	0.160	0.049
-619.361	-62.362	-0.359	0.150
-618.346	119.939	-0.190	-0.237
-617.332	-45.601	0.205	0.102
-616.317	166.354	-0.019	-0.026
-615.303	164.738	-0.125	-0.177
-614.288	-200.000	-0.049	-0.228
-613.273	800.000	-0.120	-0.365
-612.259	-51.594	0.123	-0.057
-611.244	-200.000	0.047	-0.303
-610.230	609.468	0.045	-0.112
-609.215	-103.338	-0.323	0.077
-608.201	-200.000	-0.063	0.317
-607.186	-25.966	-0.125	0.074
-606.171	165.302	-0.121	0.171
-605.157	800.000	-0.021	0.084
-604.142	800.000	0.051	0.146
-603.128	289.885	-0.209	0.381
-602.113	-109.017	-0.034	-0.007
-601.098	27.608	0.179	-0.151
-600.084	800.000	0.061	0.182
-599.069	-26.294	0.118	-0.069
-598.055	-55.282	0.205	0.092
-597.040	25.924	0.213	0.178
-596.025	-100.441	-0.208	-0.052
-595.011	-98.582	0.032	0.008
-593.996	-41.445	0.364	-0.188
-592.982	-55.583	-0.166	0.075
-591.967	246.392	-0.136	0.229
-590.952	-126.826	0.235	0.035
-589.938	-200.000	0.055	-0.459
-588.923	284.580	0.085	0.153
-587.909	-93.290	-0.421	0.117
-586.894	-200.000	-0.047	-0.260
-585.879	-62.192	0.104	-0.043
-584.865	-24.568	0.084	-0.050
-583.850	11.220	-0.250	0.192
-582.836	-72.758	-0.258	-0.095
-581.821	197.758	0.083	-0.128
-580.806	188.035	0.105	0.157
-579.792	395.555	0.159	-0.333
-578.777	-200.000	0.023	0.115
-577.763	27.067	0.381	0.320
-576.748	-119.362	-0.258	0.045
-575.733	-200.000	-0.144	-0.001
-574.719	-57.017	-0.174	-0.077
-573.704	79.513	0.068	0.073
-572.690	-12.136	-0.157	-0.103
-571.675	-87.321	0.268	-0.081
-570.661	157.495	0.253	0.352
-569.646	4.308	-0.312	0.229
-568.631	-40.142	0.100	0.052
-567.617	-84.808	0.428	-0.135
-566.602	-18.840	0.355	-0.221
-565.588	-64.618	-0.073	-0.030
-564.573	800.000	0.048	-0.166
-563.558	-43.171	-0.142	-0.072
-562.544	-25.080	-0.219	0.130
-561.529	-200.000	0.006	-0.157
-560.515	35.281	-0.416	-0.366
-559.500	-200.000	-0.016	-0.388
-558.485	-200.000	-0.013	0.234
-557.471	30.262	-0.135	0.115
-556.456	-170.445	0.222	0.008
-555.442	-200.000	-0.027	-0.307
-554.427	10.687	0.095	-0.072
-553.412	-151.912	-0.165	-0.012
-552.398	111.930	0.097	0.117
-551.383	269.019	-0.179	0.315
-550.369	-139.651	-0.041	0.004
-549.354	113.815	0.126	0.153
-548.339	-99.510	-0.223	0.056
-547.325	164.021	-0.181	0.255
-546.310	-192.254	-0.256	0.002
-545.296	-72.242	0.179	0.066
-544.281	-200.000	0.006	-0.345
-543.266	-20.054	0.119	0.073
-542.252	-200.000	0.025	0.221
-541.237	43.829	-0.323	-0.296
-540.223	137.358	-0.242	-0.317
-539.208	-83.211	-0.099	-0.032
-538.193	-68.024	-0.342	0.133
-537.179	12.356	-0.209	-0.161
-536.164	82.153	0.101	0.110
-535.150	-31.515	-0.058	0.033
-534.135	800.000	-0.096	-0.387
-533.121	15.740	0.108	0.085
-532.106	193.271	-0.264	0.400
-531.091	-200.000	0.000	0.037
-530.077	-49.445	-0.106	0.051
-529.062	-87.388	0.302	0.092
-528.048	-200.000	0.014	0.190
-527.033	-32.884	-0.044	0.025
-526.018	800.000	0.059	-0.195
-525.004	-65.959	-0.089	0.035
-523.989	-167.388	0.242	0.010
-522.975	361.179	-0.030	-0.059
-521.960	-142.118	0.271	-0.027
-520.945	597.454	-0.086	0.214
-519.931	800.000	0.035	-0.134
-518.916	471.212	-0.124	0.279
-517.902	433.140	-0.054	0.117
-516.887	-124.101	-0.451	0.071
-515.872	-34.500	-0.232	0.127
-514.858	-149.072	0.193	-0.016
-513.843	134.551	-0.054	0.070
-512.829	385.811	-0.136	-0.281
-511.814	-200.000	-0.049	-0.258
-510.799	170.664	0.056	-0.081
-509.785	265.187	0.054	-0.095
-508.770	-55.791	0.286	0.128
-507.756	800.000	-0.110	-0.390
-506.741	-200.000	0.000	-0.172
-505.726	-96.314	0.368	-0.097
-504.712	139.020	0.060	-0.078
-503.697	447.217	0.088	0.193
-502.683	85.838	-0.095	0.105
-501.668	-19.475	-0.398	0.246
-500.653	-58.856	-0.110	-0.048
-499.639	280.109	-0.064	-0.114
-498.624	-200.000	-0.020	0.187
-497.610	300.477	0.113	-0.208
-496.595	-200.000	0.002	0.120
-495.581	-90.382	-0.394	-0.114
-494.566	-116.590	-0.249	-0.046
-493.551	-200.000	0.018	0.176
-492.537	405.136	-0.133	0.279
-491.522	612.916	-0.053	0.134
-490.508	-57.555	-0.235	0.103
-489.493	-118.999	-0.144	0.025
-488.478	-161.132	0.144	-0.007
-487.464	229.449	0.159	-0.260
-486.449	-200.000	0.033	-0.253
-485.435	141.578	-0.172	0.227
-484.420	-200.000	-0.105	-0.504
-483.405	1.437	0.360	-0.259
-482.391	255.808	-0.063	-0.108
-481.376	-91.088	-0.175	-0.050
-480.362	286.239	0.121	-0.218
-479.347	-175.171	-0.154	-0.004
-478.332	-17.972	-0.218	0.137
-477.318	75.286	-0.158	0.167
-476.303	4.613	-0.186	-0.137
-475.289	-189.520	0.120	0.001
-474.274	58.294	0.258	0.253
-473.259	-93.380	0.245	-0.068
-472.245	-200.000	-0.039	-0.344
-471.230	-110.090	-0.309	-0.065
-470.216	-59.021	-0.099	-0.043
-469.201	319.825	0.068	0.128
-468.186	160.393	0.190	-0.265
-467.172	800.000	-0.030	-0.111
-466.157	-200.000	0.086	0.378
-465.143	98.470	0.085	0.098
-464.128	-37.958	-0.239	-0.127
-463.113	-200.000	-0.002	0.306
-462.099	4.444	0.128	0.093
-461.084	-200.000	0.020	0.152
-460.070	662.911	0.157	0.405
-459.055	781.648	0.039	0.106
-458.040	-114.037	-0.316	0.061
-457.026	29.298	0.170	0.144
-456.011	-91.745	0.137	0.039
-454.997	-200.000	-0.037	-0.195
-453.982	194.084	0.127	-0.192
-452.968	16.055	-0.285	0.224
-451.953	-118.066	0.419	-0.075
-450.938	-200.000	0.034	0.305
-449.924	-200.000	0.034	0.196
-448.909	-200.000	-0.037	-0.167
-447.895	800.000	-0.016	-0.056
-446.880	-55.423	-0.196	0.088
-445.865	-200.000	0.042	-0.379
-444.851	-12.368	-0.087	0.056
-443.836	-200.000	-0.004	0.333
-442.822	-200.000	-0.018	0.135
-441.807	284.865	0.081	0.146
-440.792	-105.699	0.067	-0.015
-439.778	418.717	-0.142	0.304
-438.763	747.657	0.128	0.344
-437.749	800.000	-0.079	-0.297
-436.734	509.244	-0.094	0.217
-435.719	-66.483	-0.058	0.023
-434.705	3.699	-0.333	0.242
-433.690	719.503	0.023	-0.062
-432.676	800.000	0.048	-0.182
-431.661	69.535	-0.094	0.096
-430.646	-4.190	0.184	-0.127
-429.632	-200.000	-0.010	0.079
-428.617	-200.000	-0.083	-0.410
-427.603	44.107	-0.164	-0.150
-426.588	800.000	0.027	0.095
-425.573	248.472	-0.079	-0.133
-424.559	-94.586	-0.160	0.043
-423.544	277.885	0.098	0.174
-422.530	-200.000	-0.113	0.001
-421.515	-133.037	0.392	0.050
-420.500	78.781	0.321	0.342
-419.486	-57.347	0.104	-0.046
-418.471	-200.000	-0.008	-0.071
-417.457	800.000	0.034	0.102
-416.442	169.940	0.092	-0.131
-415.428	2.870	-0.224	0.162
-414.413	-78.937	0.479	-0.163
-413.398	640.911	0.068	-0.173
-412.384	752.333	-0.119	0.319
-411.369	-50.982	0.218	0.102
-410.355	-200.000	-0.012	0.196
-409.340	-106.891	0.173	0.038
-408.325	-200.000	-0.000	0.019
-407.311	-10.109	-0.191	0.127
-406.296	169.138	-0.066	0.094
-405.282	19.730	0.107	0.086
-404.267	640.384	-0.027	0.068
-403.252	316.118	-0.099	0.185
-402.238	381.853	0.092	-0.189
-401.223	-57.821	-0.178	0.077
-400.209	-200.000	-0.022	-0.368
-399.194	-8.066	0.151	-0.102
-398.179	-200.000	-0.021	-0.232
-397.165	23.057	0.188	-0.153
-396.150	691.267	-0.134	-0.350
-395.136	64.088	-0.082	-0.082
-394.121	-155.275	0.464	0.030
-393.106	800.000	-0.053	-0.156
-392.092	-111.031	0.192	0.039
-391.077	-91.538	0.169	-0.048
-390.063	274.761	-0.110	0.194
-389.048	-200.000	0.030	0.133
-388.033	-57.252	-0.135	0.059
-387.019	266.219	-0.090	0.156
-386.004	-104.685	-0.111	-0.025
-384.990	107.967	0.175	0.208
-383.975	-175.495	-0.354	-0.010
-382.960	-85.230	-0.234	-0.073
-381.946	445.896	0.062	0.136
-380.931	-96.469	0.179	0.047
-379.917	67.649	-0.144	0.146
-378.902	-58.166	-0.212	-0.092
-377.888	84.628	0.141	-0.153
-376.873	-14.871	-0.132	-0.084
-375.858	-94.574	-0.242	0.066
-374.844	44.812	0.113	-0.104
-373.829	107.532	-0.116	-0.138
-372.815	272.184	-0.097	0.171
-371.800	-200.000	-0.042	-0.453
-370.785	241.954	0.191	-0.318
-369.771	-200.000	0.052	-0.258
-368.756	-76.672	-0.269	0.094
-367.742	-200.000	-0.001	0.216
-366.727	-200.000	0.002	0.069
-365.712	256.911	-0.095	0.162
-364.698	134.568	-0.144	-0.186
-363.683	-76.297	0.117	0.041
-362.669	-200.000	0.030	0.278
-361.654	-200.000	0.027	-0.234
-360.639	-85.670	-0.292	0.090
-359.625	800.000	0.046	-0.193
-358.610	-200.000	-0.011	0.059
-357.596	123.517	0.019	0.024
-356.581	154.918	-0.117	-0.159
-355.566	-98.797	-0.268	-0.068
-354.552	5.211	0.096	0.070
-353.537	2.318	0.117	0.084
-352.523	-36.052	0.438	-0.235
-351.508	4.076	-0.077	-0.056
-350.493	-200.000	-0.010	-0.411
-349.479	-9.745	-0.066	-0.044
-348.464	127.978	0.230	-0.290
-347.450	101.786	0.099	0.115
-346.435	800.000	-0.086	-0.294
-345.420	-37.672	0.238	0.126
-344.406	-103.711	0.314	-0.073
-343.391	-200.000	0.019	0.162
-342.377	-200.000	0.012	0.172
-341.362	20.198	-0.106	0.085
-340.348	-19.130	0.049	-0.030
-339.333	427.939	0.122	0.262
-338.318	61.357	-0.234	-0.231
-337.304	51.486	0.068	-0.064
-336.289	-127.455	-0.505	0.073
-335.275	800.000	0.116	-0.388
-334.260	-39.801	-0.151	0.078
-333.245	535.086	0.017	0.039
-332.231	800.000	-0.034	0.101
-331.216	-58.496	-0.009	-0.004
-330.202	-77.421	-0.299	-0.103
-329.187	380.249	0.041	0.084
-328.172	-57.572	-0.221	-0.096
-327.158	-151.782	0.131	0.010
-326.143	-89.408	0.063	-0.018
-325.129	-200.000	-0.015	0.094
-324.114	-200.000	0.014	0.103
-323.099	-12.101	0.279	-0.182
-322.085	-110.354	-0.313	0.065
-321.070	-126.420	-0.311	0.046
-320.056	800.000	-0.047	0.142
-319.041	-200.000	0.006	0.055
-318.026	-69.285	0.204	-0.078
-317.012	32.228	0.035	-0.030
-315.997	-200.000	-0.021	-0.236
-314.983	139.770	-0.198	0.258
-313.968	101.971	-0.213	-0.247
-312.953	224.774	0.125	-0.201
-311.939	262.596	0.018	0.030
-310.924	184.216	-0.058	0.085
-309.910	-116.397	-0.538	-0.099
-308.895	-4.689	0.204	0.140
-307.880	-168.947	0.158	0.006
-306.866	-137.222	0.337	0.038
-305.851	113.960	-0.166	0.200
-304.837	-34.392	-0.128	-0.070
-303.822	-200.000	-0.004	-0.320
-302.807	-111.680	-0.008	-0.002
-301.793	-93.883	-0.021	0.006
-300.778	184.366	-0.064	-0.094
-299.764	8.983	0.106	0.079
-298.749	10.267	-0.073	0.055
-297.735	149.356	-0.057	0.076
-296.720	85.737	0.348	0.380
-295.705	53.033	-0.053	-0.050
-294.691	-85.836	-0.153	-0.047
-293.676	102.660	0.265	0.307
-292.662	-108.858	0.196	0.042
-291.647	534.961	0.038	-0.089
-290.632	353.438	-0.177	0.349
-289.618	-105.637	0.314	0.070
-288.603	-97.985	-0.225	-0.058
-287.589	-200.000	-0.021	0.279
-286.574	624.322	0.107	0.267
-285.559	800.000	0.079	-0.281
-284.545	265.975	0.037	0.065
-283.530	135.246	0.139	-0.179
-282.516	-200.000	-0.008	0.116
-281.501	410.830	-0.114	-0.239
-280.486	-200.000	0.059	-0.343
-279.472	-5.313	0.228	0.155
-278.457	63.107	-0.183	0.181
-277.443	109.508	-0.150	0.178
-276.428	-200.000	-0.019	-0.376
-275.413	-118.563	0.305	-0.053
-274.399	-59.129	0.379	0.162
-273.384	-130.065	0.219	0.030
-272.370	167.623	-0.027	-0.037
-271.355	800.000	-0.082	-0.270
-270.340	-24.330	0.299	0.177
-269.326	800.000	0.014	0.052
-268.311	526.567	-0.053	-0.124
-267.297	-58.875	0.129	0.055
-266.282	-46.089	0.123	-0.060
-265.267	178.295	0.348	0.503
-264.253	344.687	0.147	0.286
-263.238	45.231	-0.258	-0.236
-262.224	16.176	-0.093	-0.073
-261.209	-200.000	-0.033	-0.448
-260.195	800.000	0.026	-0.113
-259.180	523.938	0.112	-0.261
-258.165	40.678	0.160	-0.142
-257.151	-10.004	0.219	0.144
-256.136	141.511	-0.095	0.125
-255.122	52.886	0.292	0.276
-254.107	-83.828	0.325	-0.102
-253.092	319.343	-0.175	0.328
-252.078	-200.000	0.015	-0.190
-251.063	-200.000	0.008	-0.201
-250.049	-130.669	0.338	0.045
-249.034	-134.995	0.222	-0.027
-248.019	-200.000	-0.008	-0.270
-247.005	394.800	-0.095	-0.195
-245.990	-200.000	-0.007	-0.417
-244.976	15.441	0.128	-0.100
-243.961	-175.131	-0.236	-0.006
-242.946	58.035	0.175	0.170
-241.932	-68.026	-0.361	0.139
-240.917	259.828	-0.077	0.132
-239.903	-90.704	0.310	0.089
-238.888	-88.641	-0.110	-0.032
-237.873	773.081	0.083	-0.224
-236.859	452.752	-0.220	-0.482
-235.844	800.000	-0.046	-0.194
-234.830	-200.000	-0.035	0.183
-233.815	-200.000	-0.013	-0.198
-232.800	800.000	-0.064	-0.255
-231.786	800.000	0.052	-0.220
-230.771	-200.000	-0.002	0.283
-229.757	-39.882	-0.080	-0.041
-228.742	-145.650	-0.186	-0.016
-227.727	-200.000	0.019	-0.556
-226.713	14.639	0.187	0.145
-225.698	-32.191	-0.113	0.063
-224.684	66.104	0.322	-0.323
-223.669	140.461	0.100	0.130
-222.655	29.879	-0.129	-0.109
-221.640	800.000	-0.048	0.199
-220.625	-200.000	0.015	0.217
-219.611	-200.000	0.028	0.195
-218.596	8.382	0.085	0.063
-217.582	49.046	-0.247	0.229
-216.567	-200.000	0.008	-0.278
-215.552	-200.000	-0.086	-0.479
-214.538	-99.385	0.246	-0.061
-213.523	-119.969	-0.342	0.058
-212.509	-9.794	-0.267	0.175
-211.494	33.033	0.139	-0.119
-210.479	-200.000	0.016	0.182
-209.465	-22.014	0.149	-0.089
-208.450	-200.000	0.007	0.222
-207.436	800.000	-0.091	0.274
-206.421	539.685	0.062	-0.145
-205.406	-147.913	0.266	0.022
-204.392	-124.054	-0.525	-0.081
-203.377	-79.848	0.023	-0.008
-202.363	-7.550	-0.061	0.041
-201.348	198.440	0.139	0.210
-200.333	353.230	0.029	0.057
-199.319	3.633	0.188	0.135
-198.304	9.898	0.292	0.219
-197.290	188.373	0.124	0.184
-196.275	235.357	-0.021	0.035
-195.260	58.195	0.105	-0.101
-194.246	-78.384	0.322	0.109
-193.231	800.000	0.052	0.223
-192.217	800.000	-0.054	0.189
-191.202	92.905	-0.073	0.081
-190.187	-200.000	0.002	-0.280
-189.173	32.968	-0.168	-0.144
-188.158	-107.241	-0.405	-0.088
-187.144	-79.865	0.271	-0.090
-186.129	-66.099	-0.214	-0.084
-185.114	-200.000	0.020	0.282
-184.100	146.821	0.065	-0.086
-183.085	24.242	0.265	-0.216
-182.071	800.000	-0.061	0.252
-181.056	164.219	-0.066	-0.092
-180.042	-87.112	0.071	0.021
-179.027	-130.796	0.129	0.017
-178.012	-3.612	0.156	0.107
-176.998	231.890	-0.155	-0.250
-175.983	526.804	0.079	0.184
-174.969	21.322	-0.301	-0.241
-173.954	245.171	0.126	0.209
-172.939	569.605	-0.158	0.378
-171.925	190.927	-0.127	0.188
-170.910	7.702	0.129	-0.096
-169.896	-8.173	0.265	0.176
-168.881	141.773	-0.055	-0.072
-167.866	-27.671	-0.025	0.014
-166.852	-200.000	0.000	0.331
-165.837	-200.000	-0.001	-0.066
-164.823	390.493	-0.106	0.217
-163.808	164.313	0.134	0.186
-162.793	-90.234	0.235	0.067
-161.779	87.795	0.208	-0.228
-160.764	62.631	-0.129	0.127
-159.750	329.435	0.076	-0.144
-158.735	-70.455	0.131	-0.049
-157.720	-106.210	-0.212	-0.047
-156.706	1.283	-0.121	0.086
-155.691	-111.616	0.227	0.046
-154.677	-78.078	-0.261	-0.088
-153.662	4.643	-0.161	-0.117
-152.647	-8.008	0.204	-0.135
-151.633	-74.554	-0.275	-0.098
-150.618	-70.105	0.206	0.077
-149.604	-82.841	0.069	-0.022
-148.589	-95.389	0.096	0.025
-147.574	-108.046	-0.349	0.075
-146.560	-187.454	0.196	0.003
-145.545	-200.000	0.004	0.162
-144.531	-46.449	-0.255	-0.123
-143.516	-65.891	-0.065	0.026
-142.502	-82.214	0.190	0.061
-141.487	-133.038	0.188	0.024
-140.472	-200.000	-0.010	-0.215
-139.458	800.000	-0.037	-0.159
-138.443	-200.000	-0.006	0.134
-137.429	150.513	0.047	0.063
-136.414	77.366	-0.324	-0.340
-135.399	322.354	0.074	-0.139
-134.385	-27.237	0.375	-0.215
-133.370	-149.304	-0.424	0.033
-132.356	74.422	-0.121	0.125
-131.341	259.999	-0.262	-0.446
-130.326	262.933	0.126	-0.216
-129.312	83.813	0.124	0.133
-128.297	-200.000	0.024	-0.229
-127.283	669.515	-0.015	0.039
-126.268	140.967	0.125	-0.163
-125.253	-200.000	0.024	0.307
-124.239	-57.431	-0.334	0.145
-123.224	455.675	0.050	0.109
-122.210	521.784	0.071	0.165
-121.195	-138.731	0.278	-0.030
-120.180	-200.000	0.021	0.337
-119.166	-153.765	-0.019	-0.001
-118.151	76.374	0.177	-0.184
-117.137	-107.333	-0.282	-0.061
-116.122	139.306	-0.044	-0.057
-115.107	-200.000	-0.006	-0.183
-114.093	57.897	-0.277	0.267
-113.078	88.051	0.102	0.112
-112.064	-14.503	-0.128	0.081
-111.049	257.999	-0.097	0.165
-110.034	-200.000	0.026	-0.216
-109.020	50.209	-0.262	-0.243
-108.005	158.867	0.323	-0.441
-106.991	413.296	-0.070	0.147
-105.976	110.851	0.085	0.100
-104.962	101.854	-0.231	0.266
-103.947	-1.783	-0.203	-0.141
-102.932	-200.000	0.029	0.148
-101.918	-77.090	-0.183	-0.063
-100.903	-105.374	0.427	0.096
-99.889	413.916	-0.056	-0.117
-98.874	-47.776	0.269	0.128
-97.859	800.000	0.037	-0.161
-96.845	48.144	0.059	-0.054
-95.830	-70.798	0.091	-0.034
-94.816	-200.000	-0.056	0.375
-93.801	48.205	0.238	0.219
-92.786	414.506	0.096	-0.201
-91.772	673.274	-0.110	-0.281
-90.757	800.000	-0.150	-0.443
-89.743	329.885	-0.054	0.102
-88.728	467.647	-0.139	-0.306
-87.713	-200.000	-0.024	0.108
-86.699	225.095	0.095	0.152
-85.684	-200.000	-0.031	-0.177
-84.670	178.275	0.097	-0.139
-83.655	-177.825	-0.173	-0.004
-82.640	-77.975	0.224	0.076
-81.626	-26.071	-0.458	-0.265
-80.611	-27.836	0.165	0.094
-79.597	26.430	0.166	0.136
-78.582	-200.000	-0.009	-0.181
-77.567	-200.000	-0.044	0.336
-76.553	-5.563	0.099	-0.067
-75.538	142.427	-0.220	-0.286
-74.524	-200.000	0.033	0.325
-73.509	-200.000	0.010	0.161
-72.494	652.638	-0.084	-0.211
-71.480	50.104	0.129	-0.119
-70.465	313.723	0.171	-0.315
-69.451	800.000	0.079	0.251
-68.436	-117.990	0.140	0.025
-67.422	-200.000	-0.050	-0.281
-66.407	-30.548	-0.047	-0.026
-65.392	388.882	0.142	-0.289
-64.378	-66.690	-0.461	-0.180
-63.363	107.810	0.192	0.225
-62.349	-95.584	0.112	-0.029
-61.334	79.364	-0.759	-0.800
-60.319	265.918	0.281	0.482
-59.305	-200.000	-0.189	-1.008
-58.290	166.821	0.748	1.043
-57.276	711.446	0.620	1.611
-56.261	-200.000	95.954	598.736
-55.246	571.464	1368.119	3271.753
-54.232	161.200	2555.496	3508.418
-53.217	107.457	2268.371	2650.169
-52.203	41.496	1895.334	1684.726
-51.188	35.141	1685.868	1450.543
-50.173	32.489	1641.050	1392.344
-49.159	50.701	1687.388	1568.466
-48.144	52.592	1703.721	1597.735
-47.130	34.804	1665.069	1429.903
-46.115	32.069	1650.115	1396.693
-45.100	31.964	1645.301	1391.779
-44.086	31.863	1643.160	1389.165
-43.071	31.874	1640.199	1386.691
-42.057	31.791	1637.689	1383.903
-41.042	31.855	1636.068	1382.948
-40.027	31.809	1634.302	1381.064
-39.013	31.827	1632.154	1379.324
-37.998	31.828	1630.065	1377.513
-36.984	31.855	1628.770	1376.560
-35.969	31.886	1628.041	1376.114
-34.954	32.036	1625.742	1375.221
-33.940	31.894	1624.401	1372.989
-32.925	31.877	1622.936	1371.575
-31.911	31.915	1620.758	1369.958
-30.896	31.871	1618.903	1368.010
-29.881	32.004	1617.081	1367.387
-28.867	31.965	1615.502	1365.715
-27.852	31.959	1614.373	1364.659
-26.838	31.897	1612.536	1362.603
-25.823	31.845	1611.609	1361.391
-24.809	31.933	1609.852	1360.488
-23.794	31.898	1608.581	1359.106
-22.779	31.974	1606.995	1358.262
-21.765	31.821	1606.132	1356.371
-20.750	31.918	1604.062	1355.275
-19.736	31.951	1602.675	1354.284
-18.721	32.008	1601.385	1353.554
-17.706	31.979	1599.596	1351.775
-16.692	31.970	1597.900	1350.224
-15.677	31.903	1597.231	1349.128
-14.663	32.055	1595.000	1348.282
-13.648	32.093	1593.984	1347.636
-12.633	31.944	1592.612	1345.358
-11.619	32.002	1590.892	1344.265
-10.604	32.022	1589.409	1343.100
-9.590	32.085	1587.824	1342.158
-8.575	31.930	1587.041	1340.340
-7.560	32.031	1585.670	1339.847
-6.546	32.002	1584.141	1338.294
-5.531	31.936	1583.564	1337.284
-4.517	32.055	1581.951	1336.714
-3.502	31.992	1581.069	1335.467
-2.487	31.938	1580.016	1334.145
-1.473	31.701	1568.409	1322.617
-0.458	29.115	1549.057	1288.178
0.556	25.916	1549.717	1259.674
1.571	23.604	1573.900	1262.791
2.586	23.350	1587.267	1271.577
3.600	20.522	1532.877	1208.263
4.615	11.124	1420.768	1058.962
5.629	2.966	1356.309	960.013
6.644	1.761	1348.128	946.654
7.659	1.622	1346.645	944.666
8.673	1.583	1345.698	943.677
9.688	1.534	1343.773	941.941
10.702	1.299	1340.546	938.139
11.717	4.695	1347.162	963.754
12.731	14.799	1366.381	1040.631
13.746	23.417	1381.491	1106.067
14.761	25.834	1384.592	1123.547
15.775	26.265	1384.594	1126.136
16.790	26.318	1384.030	1125.908
17.804	26.437	1383.489	1126.110
18.819	26.633	1383.085	1126.903
19.834	26.738	1382.629	1127.086
20.848	26.759	1381.886	1126.508
21.863	26.875	1380.611	1126.090
22.877	26.769	1380.203	1125.002
23.892	26.866	1379.076	1124.580
24.907	26.857	1377.956	1123.514
25.921	26.806	1377.446	1122.683
26.936	26.862	1376.190	1121.906
27.950	26.841	1375.256	1120.916
28.965	26.764	1373.807	1119.159
29.980	26.773	1372.936	1118.407
30.994	26.778	1371.491	1117.160
32.009	26.740	1370.703	1116.187
33.023	26.789	1369.759	1115.618
34.038	26.798	1368.566	1114.608
35.053	26.734	1367.881	1113.557
36.067	26.783	1366.791	1112.874
37.082	26.678	1365.897	1111.404
38.096	26.710	1364.784	1110.595
39.111	26.816	1363.582	1110.163
40.126	26.710	1363.632	1109.456
41.140	26.757	1363.110	1109.226
42.155	26.650	1363.230	1108.569
43.169	26.811	1362.813	1109.114
44.184	26.773	1362.271	1108.344
45.199	26.771	1361.322	1107.464
46.213	26.733	1361.292	1107.108
47.228	26.676	1360.159	1105.741
48.242	26.754	1359.095	1105.252
49.257	26.733	1357.647	1103.851
50.271	26.674	1356.150	1102.178
51.286	26.772	1354.636	1101.447
52.301	26.759	1353.562	1100.397
53.315	26.739	1352.787	1099.545
54.330	26.876	1351.711	1099.404
55.344	26.743	1351.233	1098.115
56.359	26.760	1350.204	1097.282
57.374	26.769	1349.224	1096.442
58.388	26.819	1348.917	1096.399
59.403	26.671	1348.956	1095.436
60.417	26.821	1347.150	1094.781
61.432	26.757	1346.987	1094.168
62.447	26.798	1345.931	1093.461
63.461	26.642	1345.353	1091.951
64.476	26.789	1343.866	1091.531
65.490	26.845	1342.420	1090.599
66.505	26.850	1340.919	1089.315
67.520	26.770	1340.135	1088.097
68.534	26.773	1339.032	1087.125
69.549	26.844	1337.872	1086.515
70.563	26.810	1337.265	1085.717
71.578	26.753	1336.488	1084.651
72.593	26.753	1336.030	1084.183
73.607	26.772	1335.114	1083.458
74.622	26.731	1334.536	1082.648
75.636	26.780	1333.776	1082.227
76.651	26.741	1332.542	1080.901
77.666	26.710	1332.614	1080.675
78.680	26.757	1332.093	1080.441
79.695	26.797	1331.065	1079.746
80.709	26.818	1330.036	1078.945
81.724	26.823	1329.424	1078.381
82.739	26.839	1328.504	1077.636
83.753	26.788	1327.452	1076.384
84.768	26.749	1326.438	1075.232
85.782	26.858	1325.395	1074.939
86.797	26.855	1324.514	1074.110
87.812	26.777	1323.204	1072.492
88.826	26.849	1322.198	1072.009
89.841	26.839	1321.419	1071.225
90.855	26.951	1319.918	1070.573
91.870	26.811	1319.358	1069.198
92.884	26.809	1318.553	1068.441
93.899	26.888	1317.607	1068.040
94.914	26.952	1316.933	1067.777
95.928	26.866	1316.382	1066.729
96.943	26.829	1315.715	1065.879
97.957	26.835	1315.130	1065.347
98.972	26.908	1313.990	1064.757
99.987	26.881	1312.864	1063.594
101.001	26.882	1312.024	1062.822
102.016	26.745	1311.731	1061.686
103.030	26.928	1310.144	1061.378
104.045	26.901	1309.645	1060.723
105.060	26.821	1308.731	1059.425
106.074	26.914	1307.457	1058.840
107.089	26.925	1306.368	1057.931
108.103	26.864	1305.863	1057.074
109.118	26.833	1304.915	1056.027
110.133	26.906	1303.344	1055.088
111.147	26.923	1302.273	1054.229
112.162	26.991	1300.848	1053.377
113.176	26.968	1300.326	1052.728
114.191	26.841	1299.267	1051.042
115.206	26.884	1298.025	1050.191
116.220	26.919	1297.562	1049.925
117.235	26.902	1296.471	1048.855
118.249	26.892	1295.512	1047.926
119.264	26.879	1294.976	1047.323
120.279	26.966	1293.915	1046.877
121.293	26.990	1293.279	1046.408
122.308	27.014	1292.481	1045.807
123.322	27.000	1291.549	1044.880
124.337	26.966	1291.136	1044.255
125.352	27.056	1290.025	1043.785
126.366	27.115	1289.171	1043.338
127.381	26.971	1288.275	1041.697
128.395	27.007	1287.194	1040.936
129.410	27.001	1286.566	1040.302
130.424	27.086	1286.144	1040.356
131.439	26.925	1285.240	1038.607
132.454	26.955	1284.532	1038.118
133.468	26.910	1283.942	1037.292
134.483	26.951	1282.820	1036.526
135.497	26.888	1282.589	1035.891
136.512	26.928	1281.394	1035.063
137.527	27.081	1280.073	1034.773
138.541	26.983	1278.808	1033.102
139.556	26.888	1277.880	1031.718
140.570	27.044	1276.955	1031.772
141.585	26.998	1275.820	1030.503
142.600	26.882	1275.273	1029.307
143.614	26.939	1274.196	1028.669
144.629	26.943	1273.466	1028.014
145.643	26.917	1272.483	1026.984
146.658	26.939	1270.795	1025.655
147.673	26.940	1270.015	1024.941
148.687	26.926	1269.468	1024.327
149.702	26.861	1268.248	1022.884
150.716	26.971	1266.776	1022.226
151.731	26.944	1265.783	1021.184
152.746	26.999	1264.979	1020.752
153.760	26.964	1264.063	1019.727
154.775	27.021	1262.968	1019.073
155.789	26.950	1262.176	1017.949
156.804	26.945	1261.507	1017.287
157.819	26.919	1260.787	1016.475
158.833	26.911	1259.788	1015.534
159.848	26.940	1259.061	1015.022
160.862	26.936	1258.738	1014.648
161.877	26.985	1257.597	1013.909
162.892	27.031	1256.779	1013.420
163.906	27.066	1256.124	1012.996
164.921	26.975	1255.390	1011.806
165.935	27.059	1254.418	1011.401
166.950	27.106	1254.328	1011.502
167.964	27.121	1253.349	1010.708
168.979	27.143	1252.669	1010.191
169.994	27.113	1252.001	1009.398
171.008	27.093	1251.444	1008.749
172.023	27.142	1250.536	1008.197
173.037	27.087	1249.908	1007.295
174.052	27.130	1249.193	1006.872
175.067	27.080	1248.593	1006.019
176.081	27.067	1247.756	1005.182
177.096	27.000	1247.003	1004.118
178.110	27.140	1245.893	1003.910
179.125	27.201	1244.857	1003.319
180.140	27.182	1243.956	1002.400
181.154	27.096	1243.031	1001.097
182.169	27.107	1241.755	1000.038
183.183	27.081	1241.028	999.222
184.198	27.086	1239.926	998.276
185.213	27.140	1239.006	997.740
186.227	27.261	1238.111	997.596
187.242	27.201	1236.993	996.276
188.256	27.286	1235.919	995.789
189.271	27.177	1235.617	994.860
190.286	27.245	1234.901	994.568
191.300	27.190	1234.260	993.667
192.315	27.200	1233.623	993.122
193.329	27.228	1233.384	992.991
194.344	27.237	1233.185	992.794
195.359	27.187	1232.516	991.894
196.373	27.101	1232.137	991.029
197.388	27.113	1231.621	990.593
198.402	27.142	1231.536	990.594
199.417	27.257	1230.909	990.631
200.432	27.137	1230.346	989.439
201.446	27.142	1229.511	988.706
202.461	27.200	1229.142	988.635
203.475	27.153	1228.328	987.637
204.490	27.254	1227.069	987.086
205.504	27.193	1226.171	985.945
206.519	27.171	1225.434	985.146
207.534	27.228	1224.320	984.471
208.548	27.248	1223.347	983.712
209.563	27.270	1222.793	983.299
210.577	27.362	1221.892	982.984
211.592	27.194	1221.666	981.809
212.607	27.291	1220.896	981.624
213.621	27.271	1219.859	980.597
214.636	27.303	1219.089	980.066
215.650	27.332	1217.651	978.976
216.665	27.179	1217.345	977.819
217.680	27.305	1216.489	977.726
218.694	27.357	1215.694	977.280
219.709	27.311	1215.090	976.461
220.723	27.364	1214.398	976.099
221.738	27.268	1213.863	975.069
222.753	27.289	1212.769	974.215
223.767	27.198	1212.589	973.498
224.782	27.332	1211.673	973.397
225.796	27.417	1211.426	973.566
226.811	27.496	1210.339	973.028
227.826	27.418	1209.969	972.224
228.840	27.309	1210.026	971.604
229.855	27.429	1208.731	971.116
230.869	27.310	1208.228	969.992
231.884	27.383	1207.342	969.588
232.899	27.384	1206.587	968.902
233.913	27.420	1205.678	968.275
234.928	27.538	1205.768	968.888
235.942	27.492	1204.921	967.879
236.957	27.549	1204.033	967.383
237.972	27.471	1203.487	966.445
238.986	27.374	1203.279	965.676
240.001	27.497	1202.402	965.541
241.015	27.464	1201.612	964.647
242.030	27.676	1200.511	964.799
243.045	27.579	1200.015	963.801
244.059	27.598	1199.291	963.235
245.074	27.708	1198.248	962.893
246.088	27.526	1197.970	961.621
247.103	27.691	1196.900	961.551
248.117	27.652	1196.131	960.638
249.132	27.633	1195.254	959.749
250.147	27.678	1194.906	959.625
251.161	27.642	1194.251	958.824
252.176	27.579	1193.624	957.904
253.190	27.748	1192.781	958.029
254.205	27.658	1192.654	957.372
255.220	27.585	1191.867	956.271
256.234	27.732	1191.168	956.396
257.249	27.756	1190.663	956.031
258.263	27.648	1190.159	954.977
259.278	27.765	1189.577	955.039
260.293	27.745	1188.907	954.309
261.307	27.761	1188.535	954.014
262.322	27.677	1187.827	952.922
263.336	27.672	1186.989	952.138
264.351	27.745	1186.433	951.990
265.366	27.754	1185.991	951.597
266.380	27.678	1185.359	950.608
267.395	27.778	1184.344	950.232
268.409	27.698	1183.796	949.293
269.424	27.722	1183.429	949.037
270.439	27.748	1183.199	948.904
271.453	27.735	1182.416	948.123
272.468	27.738	1181.397	947.241
273.482	27.732	1180.736	946.597
274.497	27.915	1180.168	947.005
275.512	27.776	1180.020	946.080
276.526	27.948	1178.808	945.918
277.541	27.841	1178.261	944.840
278.555	27.857	1177.795	944.465
279.570	27.902	1176.875	943.878
280.585	27.829	1175.994	942.708
281.599	27.838	1175.209	942.041
282.614	27.879	1174.400	941.524
283.628	27.890	1173.716	940.950
284.643	27.845	1172.778	939.881
285.657	27.864	1171.798	939.109
286.672	27.780	1171.348	938.234
287.687	27.958	1170.290	938.217
288.701	27.940	1169.476	937.391
289.716	27.848	1169.199	936.615
290.730	27.936	1168.460	936.390
291.745	27.999	1167.807	936.105
292.760	27.974	1167.209	935.416
293.774	28.077	1166.535	935.319
294.789	27.986	1166.441	934.699
295.803	28.096	1165.608	934.507
296.818	27.958	1165.079	933.297
297.833	28.104	1164.094	933.171
298.847	28.004	1163.685	932.249
299.862	28.053	1162.811	931.715
300.876	28.014	1162.233	930.972
301.891	28.163	1161.665	931.191
302.906	28.142	1160.589	930.142
303.920	28.092	1160.410	929.664
304.935	28.112	1159.783	929.177
305.949	28.160	1158.915	928.643
306.964	28.101	1158.609	928.020
307.979	28.209	1157.590	927.667
308.993	28.183	1156.850	926.859
310.008	28.176	1156.741	926.654
311.022	28.108	1155.612	925.325
312.037	28.089	1154.929	924.599
313.052	28.162	1153.860	924.032
314.066	28.222	1153.285	923.792
315.081	28.204	1152.623	923.090
316.095	28.163	1151.799	922.142
317.110	28.357	1150.895	922.312
318.125	28.273	1150.651	921.613
319.139	28.187	1150.084	920.644
320.154	28.197	1149.731	920.332
321.168	28.376	1148.829	920.424
322.183	28.274	1148.567	919.625
323.197	28.353	1147.701	919.242
324.212	28.296	1147.444	918.672
325.227	28.238	1146.946	917.900
326.241	28.363	1146.255	917.891
327.256	28.368	1145.352	917.112
328.270	28.360	1144.555	916.354
329.285	28.328	1143.979	915.651
330.300	28.232	1143.551	914.747
331.314	28.458	1142.106	914.638
332.329	28.329	1141.506	913.434
333.343	28.419	1140.703	913.159
334.358	28.414	1140.336	912.762
335.373	28.480	1139.300	912.178
336.387	28.491	1138.794	911.745
337.402	28.410	1137.834	910.495
338.416	28.420	1137.661	910.327
339.431	28.571	1136.927	910.409
340.446	28.454	1136.752	909.607
341.460	28.504	1135.626	908.874
342.475	28.440	1134.955	907.938
343.489	28.460	1133.822	907.053
344.504	28.599	1133.002	907.000
345.519	28.589	1132.383	906.376
346.533	28.497	1131.980	905.517
347.548	28.537	1131.171	904.990
348.562	28.589	1130.143	904.344
349.577	28.468	1129.831	903.420
350.592	28.395	1128.870	902.207
351.606	28.525	1128.183	902.221
352.621	28.578	1128.112	902.345
353.635	28.663	1127.233	901.978
354.650	28.640	1126.396	901.116
355.665	28.698	1126.095	901.080
356.679	28.645	1125.296	900.104
357.694	28.743	1124.544	899.900
358.708	28.782	1123.654	899.302
359.723	28.840	1122.841	898.853
360.738	28.712	1122.390	897.788
361.752	28.798	1122.037	897.845
362.767	28.800	1121.571	897.402
363.781	28.784	1121.426	897.131
364.796	28.849	1120.632	896.731
365.810	28.763	1120.096	895.802
366.825	28.789	1119.259	895.183
367.840	28.877	1118.862	895.213
368.854	28.907	1118.399	894.910
369.869	28.817	1117.342	893.548
370.883	28.891	1116.527	893.176
371.898	28.928	1116.026	892.875
372.913	28.842	1115.573	892.016
373.927	28.979	1114.991	892.135
374.942	28.901	1114.659	891.416
375.956	28.898	1114.084	890.864
376.971	28.925	1113.686	890.597
377.986	28.831	1112.975	889.494
379.000	28.898	1112.520	889.376
380.015	29.030	1111.556	889.165
381.029	28.918	1111.259	888.307
382.044	28.979	1110.902	888.235
383.059	29.033	1110.048	887.734
384.073	28.990	1109.423	886.950
385.088	29.058	1108.214	886.231
386.102	29.068	1107.469	885.605
387.117	29.045	1106.344	884.520
388.132	28.878	1106.070	883.419
389.146	29.061	1105.717	883.938
390.161	29.041	1104.713	882.958
391.175	29.051	1104.145	882.477
392.190	29.070	1103.498	881.973
393.205	29.034	1102.893	881.237
394.219	29.099	1102.115	880.851
395.234	29.216	1100.967	880.413
396.248	29.241	1100.027	879.701
397.263	29.263	1099.317	879.162
398.278	29.186	1098.572	878.121
399.292	29.306	1098.499	878.557
400.307	29.162	1098.180	877.539
401.321	29.183	1097.621	877.116
402.336	29.223	1096.488	876.320
403.350	29.334	1095.707	876.148
404.365	29.184	1095.315	875.042
405.380	29.203	1094.698	874.564
406.394	29.262	1093.934	874.157
407.409	29.372	1093.048	873.889
408.423	29.267	1092.520	872.896
409.438	29.324	1091.931	872.614
410.453	29.340	1091.139	871.982
411.467	29.395	1090.459	871.619
412.482	29.285	1089.927	870.601
413.496	29.443	1089.388	870.840
414.511	29.424	1088.650	870.080
415.526	29.422	1088.048	869.514
416.540	29.379	1087.846	869.071
417.555	29.472	1087.134	868.867
418.569	29.481	1086.667	868.454
419.584	29.387	1086.339	867.677
420.599	29.436	1085.798	867.397
421.613	103.754	1323.167	1460.422
422.628	96.554	1357.724	1460.503
