DTS Sentinel unit serial number:	SN413079Multiplexer serial number:	ORYXHardware model number:	OX4-SRSoftware version number:	ORYX F/W v4.00 Oryx Data Collector v3.7.2.0data status	okinstallation	princeton_trtdifferential loss correction	single-endedforward channel	channel 2reverse channel	N/Adate	2019/09/13time	18:03:34forward acquisition time	60.00reverse acquisition time	0.00gamma	496.2192k internal	0.2317k external	0.2317temperature offset calibration	1.0210default loss term (dB/km)	0.3790temperature slope calibration	1.0000multiplexer offset coefficient	1.0000multiplexer slope coefficient	1.0000fibre end	0.00T internal ref (°C)	34.83T ext. ref 1 (°C)	4.68T ext. ref 2 (°C)	27.51length (m)	temperature (°C)	Stokes	anti-Stokes-747.200	451.023	-0.086	-0.193
-746.185	-129.338	-0.025	-0.004
-745.171	22.778	0.180	0.149
-744.156	176.913	0.217	0.320
-743.142	-136.033	-0.125	-0.015
-742.127	800.000	-0.050	0.160
-741.112	800.000	-0.057	-0.237
-740.098	-73.676	-0.209	-0.077
-739.083	97.820	0.125	0.145
-738.069	555.192	-0.151	0.368
-737.054	-88.062	-0.443	-0.134
-736.039	86.868	0.041	-0.046
-735.025	28.672	-0.260	0.223
-734.010	147.783	-0.056	-0.076
-732.996	-200.000	0.097	-0.439
-731.981	-137.782	0.215	-0.024
-730.966	-200.000	-0.010	-0.412
-729.952	422.984	0.102	0.221
-728.937	165.747	-0.122	-0.174
-727.923	-129.227	-0.107	0.015
-726.908	800.000	-0.074	-0.227
-725.894	339.325	-0.104	-0.205
-724.879	100.404	0.051	0.060
-723.864	115.873	-0.102	-0.126
-722.850	-101.032	-0.046	-0.011
-721.835	207.174	-0.127	-0.201
-720.821	109.827	-0.050	0.061
-719.806	-200.000	0.015	0.368
-718.791	-39.924	-0.222	-0.117
-717.777	-65.359	-0.342	-0.139
-716.762	143.119	0.165	-0.221
-715.748	538.252	-0.080	0.193
-714.733	-49.084	0.226	0.110
-713.718	-200.000	-0.059	0.272
-712.704	273.750	-0.055	0.099
-711.689	-200.000	-0.039	0.271
-710.675	42.124	0.193	0.177
-709.660	438.252	-0.058	-0.127
-708.645	-124.132	0.448	-0.071
-707.631	18.069	-0.054	-0.043
-706.616	-62.443	0.097	-0.041
-705.602	-98.618	-0.371	-0.096
-704.587	181.651	0.117	-0.173
-703.572	52.980	0.243	0.235
-702.558	-64.803	0.070	0.029
-701.543	-200.000	0.002	-0.051
-700.529	-14.093	0.256	0.167
-699.514	-58.379	-0.058	0.025
-698.499	-92.980	0.086	-0.024
-697.485	-102.038	-0.089	0.022
-696.470	45.802	-0.262	-0.245
-695.456	380.524	-0.129	0.267
-694.441	-19.469	0.230	0.144
-693.426	201.988	-0.007	0.011
-692.412	-24.853	0.053	-0.032
-691.397	-200.000	-0.012	-0.302
-690.383	-200.000	-0.027	-0.362
-689.368	-200.000	0.013	-0.123
-688.354	-183.435	-0.114	0.002
-687.339	183.419	-0.207	-0.309
-686.324	-21.968	0.276	0.169
-685.310	-55.223	0.439	-0.199
-684.295	-200.000	0.032	-0.182
-683.281	57.765	-0.234	-0.231
-682.266	-130.382	-0.291	-0.040
-681.251	-74.150	-0.217	0.079
-680.237	39.181	-0.353	-0.319
-679.222	-134.534	-0.258	-0.032
-678.208	195.625	0.131	0.201
-677.193	611.199	0.079	0.199
-676.178	800.000	0.063	-0.231
-675.164	-41.907	-0.102	0.053
-674.149	-151.964	0.250	0.018
-673.135	382.517	-0.153	0.318
-672.120	-200.000	-0.007	-0.076
-671.105	-69.533	-0.239	-0.092
-670.091	-35.921	0.260	-0.142
-669.076	800.000	0.019	0.056
-668.062	-200.000	-0.001	-0.153
-667.047	-200.000	-0.004	-0.282
-666.032	-46.626	-0.288	0.142
-665.018	800.000	-0.074	0.326
-664.003	138.155	0.203	-0.269
-662.989	212.787	-0.106	-0.168
-661.974	-200.000	-0.007	-0.223
-660.959	205.200	-0.133	-0.208
-659.945	-15.037	0.182	-0.117
-658.930	22.246	0.157	0.129
-657.916	120.875	-0.017	0.021
-656.901	-102.669	0.141	0.034
-655.886	89.399	-0.066	0.075
-654.872	-145.989	-0.189	-0.017
-653.857	-62.899	-0.051	0.021
-652.843	-135.000	-0.444	-0.054
-651.828	-19.620	0.226	-0.141
-650.814	-160.603	-0.123	-0.007
-649.799	-200.000	0.041	-0.378
-648.784	-200.000	0.047	-0.384
-647.770	-111.515	0.178	0.037
-646.755	152.595	-0.050	0.069
-645.741	800.000	-0.074	-0.252
-644.726	-16.101	-0.326	-0.209
-643.711	63.494	-0.149	-0.151
-642.697	-117.655	0.147	-0.027
-641.682	-135.376	-0.153	-0.018
-640.668	-176.841	0.091	-0.002
-639.653	329.414	0.083	0.161
-638.638	150.308	0.158	-0.216
-637.624	13.869	-0.202	-0.158
-636.609	103.870	0.239	-0.283
-635.595	800.000	0.050	-0.150
-634.580	-95.925	0.148	0.040
-633.565	144.190	0.047	0.064
-632.551	136.875	-0.291	0.383
-631.536	-11.837	-0.161	-0.106
-630.522	270.869	0.060	0.106
-629.507	-200.000	-0.025	0.325
-628.492	716.574	-0.040	-0.106
-627.478	154.514	-0.101	-0.139
-626.463	558.076	-0.016	-0.039
-625.449	-90.824	-0.066	0.019
-624.434	218.117	0.108	-0.173
-623.419	374.273	-0.142	-0.291
-622.405	-31.906	-0.184	-0.104
-621.390	137.589	0.297	0.391
-620.376	317.759	-0.133	0.254
-619.361	800.000	0.012	0.044
-618.346	-49.099	0.293	0.141
-617.332	-200.000	-0.007	0.155
-616.317	79.568	0.103	0.111
-615.303	-200.000	-0.052	0.323
-614.288	409.148	-0.167	-0.355
-613.273	96.706	-0.219	-0.253
-612.259	-200.000	-0.006	-0.072
-611.244	-136.545	0.120	-0.014
-610.230	-78.481	0.286	-0.099
-609.215	123.888	-0.118	-0.149
-608.201	-122.648	-0.418	0.068
-607.186	-115.073	-0.227	-0.043
-606.171	361.807	0.069	0.139
-605.157	-53.772	0.194	-0.089
-604.142	92.442	-0.039	0.044
-603.128	-200.000	-0.033	-0.163
-602.113	-49.342	0.296	-0.142
-601.098	-54.386	-0.151	-0.069
-600.084	272.886	0.059	0.105
-599.069	190.400	-0.214	-0.323
-598.055	465.147	-0.074	-0.166
-597.040	-21.441	-0.087	-0.054
-596.025	-130.801	-0.316	0.043
-595.011	-200.000	-0.027	0.137
-593.996	-59.023	0.111	0.048
-592.982	800.000	0.033	0.120
-591.967	241.446	0.004	0.007
-590.952	-137.319	-0.140	-0.016
-589.938	-180.101	-0.387	-0.008
-588.923	-200.000	0.005	-0.116
-587.909	-36.153	-0.041	0.022
-586.894	-145.618	0.213	0.019
-585.879	-56.609	0.061	0.027
-584.865	-174.433	-0.064	0.002
-583.850	-131.367	0.419	0.056
-582.836	-182.128	-0.122	-0.002
-581.821	800.000	-0.046	0.160
-580.806	708.634	-0.088	-0.233
-579.792	7.320	0.086	0.065
-578.777	-200.000	0.002	-0.119
-577.763	-171.477	0.251	-0.008
-576.748	-30.902	-0.111	0.063
-575.733	4.308	-0.149	-0.110
-574.719	-33.695	0.217	0.121
-573.704	-4.357	-0.229	0.159
-572.690	244.645	0.111	-0.188
-571.675	-27.710	0.140	-0.082
-570.661	800.000	0.096	0.306
-569.646	-92.169	0.288	-0.082
-568.631	536.997	0.114	-0.273
-567.617	1.867	-0.142	-0.103
-566.602	161.081	-0.127	0.179
-565.588	-200.000	0.027	-0.346
-564.573	-200.000	0.475	0.000
-563.558	158.758	-0.053	0.073
-562.544	-200.000	-0.028	-0.420
-561.529	-127.732	-0.206	-0.030
-560.515	209.292	0.047	-0.074
-559.500	-60.686	-0.249	-0.106
-558.485	634.070	-0.127	-0.323
-557.471	462.671	0.018	-0.040
-556.456	14.934	-0.266	0.209
-555.442	-200.000	-0.012	0.152
-554.427	-111.013	-0.100	0.021
-553.412	-200.000	0.039	-0.204
-552.398	-5.148	0.322	0.223
-551.383	-68.354	-0.228	0.089
-550.369	-200.000	-0.020	0.158
-549.354	-94.869	-0.287	-0.078
-548.339	278.905	0.063	-0.114
-547.325	7.991	0.222	-0.168
-546.310	67.461	0.263	0.270
-545.296	-8.325	0.172	0.116
-544.281	-142.044	0.200	-0.020
-543.266	800.000	-0.075	-0.268
-542.252	310.137	-0.060	-0.113
-541.237	18.317	-0.167	-0.134
-540.223	-105.409	0.216	0.049
-539.208	336.325	-0.050	-0.097
-538.193	-104.719	-0.143	-0.033
-537.179	800.000	0.048	0.151
-536.164	-94.823	-0.078	-0.021
-535.150	-200.000	0.062	-0.388
-534.135	-38.678	0.163	-0.086
-533.121	-118.150	-0.068	-0.012
-532.106	-61.135	0.109	0.046
-531.091	175.055	0.258	-0.375
-530.077	-142.261	-0.267	-0.026
-529.062	800.000	0.069	-0.294
-528.048	-200.000	0.016	-0.087
-527.033	-200.000	0.038	-0.187
-526.018	-200.000	0.051	-0.268
-525.004	-200.000	0.012	0.215
-523.989	800.000	-0.034	0.126
-522.975	-101.363	-0.298	-0.073
-521.960	-139.494	0.263	-0.028
-520.945	-48.209	-0.532	-0.258
-519.931	238.945	-0.265	0.442
-518.916	293.711	-0.068	-0.125
-517.902	-49.512	0.302	0.145
-516.887	-143.450	0.267	-0.026
-515.872	-120.939	-0.328	-0.055
-514.858	-99.280	-0.233	-0.059
-513.843	-128.264	-0.291	-0.042
-512.829	3.259	-0.285	-0.208
-511.814	800.000	0.036	0.141
-510.799	-200.000	0.018	0.119
-509.785	35.828	0.124	0.110
-508.770	800.000	-0.061	-0.189
-507.756	8.679	-0.316	0.239
-506.741	69.909	-0.299	0.309
-505.726	-96.699	-0.296	-0.078
-504.712	-200.000	0.040	0.285
-503.697	-152.192	-0.080	0.006
-502.683	22.868	0.106	0.087
-501.668	-65.645	0.148	-0.060
-500.653	81.966	-0.164	0.178
-499.639	72.532	0.241	-0.252
-498.624	-52.680	-0.206	-0.095
-497.610	87.308	0.304	0.337
-496.595	183.281	-0.083	-0.124
-495.581	-17.926	-0.149	0.094
-494.566	40.585	0.168	0.152
-493.551	23.213	0.236	-0.194
-492.537	800.000	0.056	0.174
-491.522	-200.000	-0.047	0.223
-490.508	114.913	0.226	0.276
-489.493	-200.000	0.039	-0.188
-488.478	-89.751	0.020	0.006
-487.464	217.903	-0.017	-0.028
-486.449	39.462	0.152	0.137
-485.435	130.320	0.036	-0.047
-484.420	728.127	0.068	-0.182
-483.405	800.000	0.054	0.175
-482.391	-128.451	0.208	0.030
-481.376	-54.453	0.189	-0.086
-480.362	800.000	0.057	0.206
-479.347	-15.224	-0.184	0.118
-478.332	-68.071	0.160	-0.062
-477.318	-53.916	0.089	-0.041
-476.303	-75.275	0.022	-0.008
-475.289	202.345	-0.207	-0.320
-474.274	-9.353	0.136	-0.091
-473.259	-200.000	-0.020	0.138
-472.245	181.524	-0.150	0.222
-471.230	-4.737	0.291	0.201
-470.216	652.712	-0.040	0.103
-469.201	-200.000	0.037	-0.255
-468.186	134.139	-0.130	0.169
-467.172	-68.454	0.284	-0.110
-466.157	800.000	-0.087	0.381
-465.143	-200.000	0.001	-0.046
-464.128	-33.868	0.104	0.058
-463.113	800.000	-0.099	0.320
-462.099	-200.000	0.273	0.000
-461.084	165.936	-0.097	0.137
-460.070	193.164	-0.196	-0.297
-459.055	-48.943	-0.192	-0.092
-458.040	-200.000	-0.013	-0.110
-457.026	-31.707	-0.119	-0.067
-456.011	410.119	0.115	-0.244
-454.997	800.000	-0.052	0.178
-453.982	800.000	-0.015	0.053
-452.968	89.268	-0.280	0.312
-451.953	-33.183	-0.187	-0.104
-450.938	-173.955	0.083	-0.002
-449.924	380.121	-0.014	-0.029
-448.909	800.000	0.016	0.064
-447.895	-44.525	0.199	-0.100
-446.880	-200.000	-0.020	-0.177
-445.865	75.149	-0.181	-0.191
-444.851	-17.856	-0.228	0.143
-443.836	-49.350	0.345	-0.165
-442.822	-83.288	-0.646	0.207
-441.807	-85.265	-0.397	0.124
-440.792	-46.498	0.052	0.026
-439.778	-22.749	0.125	-0.076
-438.763	33.897	-0.111	-0.097
-437.749	-54.578	-0.064	0.029
-436.734	-44.535	-0.249	-0.124
-435.719	41.748	0.180	-0.163
-434.705	85.637	-0.113	0.124
-433.690	203.408	0.182	0.282
-432.676	489.446	-0.047	0.107
-431.661	47.669	0.161	-0.150
-430.646	-1.140	-0.240	-0.170
-429.632	-200.000	0.031	-0.203
-428.617	-65.992	0.458	-0.183
-427.603	800.000	-0.118	0.353
-426.588	-14.487	-0.277	-0.178
-425.573	-151.737	-0.134	-0.010
-424.559	80.021	-0.089	-0.096
-423.544	-108.121	0.196	0.042
-422.530	-97.597	-0.226	0.058
-421.515	61.873	0.275	-0.274
-420.500	-200.000	-0.029	0.246
-419.486	-200.000	0.007	-0.030
-418.471	-18.276	-0.041	-0.026
-417.457	-2.866	-0.189	0.132
-416.442	-3.557	-0.320	0.223
-415.428	800.000	0.065	-0.181
-414.413	800.000	0.134	0.414
-413.398	-76.117	-0.328	0.116
-412.384	-11.399	0.274	-0.180
-411.369	-200.000	0.002	-0.150
-410.355	257.722	0.130	-0.223
-409.340	388.824	0.067	-0.139
-408.325	-19.180	0.253	0.157
-407.311	-29.610	0.160	0.091
-406.296	-75.086	-0.222	-0.079
-405.282	-200.000	-0.004	-0.149
-404.267	-200.000	-0.014	0.204
-403.252	-200.000	0.027	0.283
-402.238	-200.000	0.059	-0.400
-401.223	-77.500	-0.034	-0.012
-400.209	-200.000	0.007	-0.242
-399.194	-200.000	0.022	-0.177
-398.179	-138.780	0.149	0.016
-397.165	-200.000	-0.048	-0.232
-396.150	-103.349	0.363	0.085
-395.136	-84.255	-0.055	-0.017
-394.121	-200.000	0.025	-0.263
-393.106	-192.871	-0.354	-0.003
-392.092	-120.137	0.126	0.022
-391.077	-135.875	0.458	0.054
-390.063	255.778	-0.163	0.279
-389.048	510.927	-0.008	0.018
-388.033	-51.764	0.334	0.155
-387.019	4.100	-0.197	0.144
-386.004	183.202	-0.029	-0.043
-384.990	-87.472	-0.161	0.049
-383.975	5.122	-0.094	0.069
-382.960	-200.000	0.012	0.469
-381.946	114.596	-0.217	0.264
-380.931	-39.256	-0.323	0.169
-379.917	-23.283	-0.153	0.092
-378.902	-109.582	0.109	0.023
-377.888	-200.000	-0.001	-0.020
-376.873	-19.565	0.085	0.053
-375.858	-200.000	0.004	0.084
-374.844	-4.987	0.130	0.089
-373.829	-200.000	0.027	-0.260
-372.815	41.865	-0.309	0.280
-371.800	8.730	0.070	-0.053
-370.785	800.000	-0.049	0.212
-369.771	-100.797	0.148	0.036
-368.756	362.949	0.096	-0.191
-367.742	318.913	0.157	-0.297
-366.727	-200.000	0.024	0.166
-365.712	-200.000	-0.011	-0.076
-364.698	-153.936	-0.193	0.013
-363.683	-129.042	0.134	0.019
-362.669	-29.998	0.134	0.076
-361.654	154.169	0.108	0.148
-360.639	84.221	0.101	0.110
-359.625	-134.719	0.270	-0.033
-358.610	800.000	-0.085	-0.292
-357.596	-200.000	0.029	0.175
-356.581	-48.197	0.294	0.142
-355.566	-200.000	0.011	0.129
-354.552	653.514	0.097	0.248
-353.537	90.649	0.265	-0.295
-352.523	800.000	0.111	0.403
-351.508	-115.704	-0.277	-0.052
-350.493	-75.452	-0.046	-0.016
-349.479	159.639	-0.123	0.171
-348.464	-200.000	0.009	-0.299
-347.450	149.389	0.230	-0.310
-346.435	-52.439	-0.251	-0.116
-345.420	412.311	-0.081	-0.172
-344.406	800.000	0.084	0.236
-343.391	-95.599	-0.294	0.078
-342.377	198.023	-0.114	-0.174
-341.362	-200.000	-0.035	0.241
-340.348	361.977	-0.268	-0.536
-339.333	66.518	0.150	0.151
-338.318	-126.227	-0.267	0.040
-337.304	55.405	0.057	0.055
-336.289	88.449	-0.108	-0.120
-335.275	18.254	-0.078	0.062
-334.260	134.296	-0.093	0.121
-333.245	-20.457	0.249	0.152
-332.231	156.366	0.147	-0.202
-331.216	-200.000	0.020	0.098
-330.202	-133.265	0.418	-0.053
-329.187	800.000	-0.032	0.105
-328.172	-118.222	0.378	-0.067
-327.158	800.000	0.053	0.178
-326.143	-121.765	-0.141	-0.023
-325.129	800.000	-0.089	-0.244
-324.114	23.147	0.110	0.090
-323.099	-43.510	-0.119	-0.060
-322.085	97.603	-0.208	-0.239
-321.070	-61.951	-0.360	0.150
-320.056	-200.000	-0.033	-0.326
-319.041	-200.000	-0.038	-0.190
-318.026	-200.000	0.022	-0.375
-317.012	-100.895	0.186	0.045
-315.997	-13.990	0.258	0.166
-314.983	7.505	-0.142	0.106
-313.968	800.000	-0.045	-0.189
-312.953	800.000	0.084	-0.234
-311.939	199.069	0.102	0.155
-310.924	-124.677	-0.126	-0.019
-309.910	-122.315	0.168	-0.027
-308.895	-18.445	0.021	-0.013
-307.880	14.381	-0.083	0.065
-306.866	-139.889	0.202	0.021
-305.851	-61.438	-0.138	-0.058
-304.837	188.795	-0.154	0.230
-303.822	270.724	-0.222	0.389
-302.807	-200.000	-0.032	-0.187
-301.793	-127.064	0.178	-0.026
-300.778	-86.988	-0.265	0.080
-299.764	-200.000	-0.027	0.230
-298.749	107.458	0.078	0.093
-297.735	-136.697	0.157	-0.018
-296.720	-19.015	-0.126	-0.078
-295.705	397.176	-0.206	0.428
-294.691	-110.373	0.070	0.014
-293.676	297.476	0.111	-0.203
-292.662	612.928	0.032	0.079
-291.647	-200.000	-0.009	-0.166
-290.632	60.891	0.173	-0.171
-289.618	180.372	-0.236	0.345
-288.603	-200.000	-0.081	0.387
-287.589	245.028	-0.150	0.251
-286.574	-200.000	-0.018	0.366
-285.559	-132.752	0.112	0.014
-284.545	663.511	-0.142	-0.365
-283.530	69.526	0.244	0.249
-282.516	-19.124	-0.104	0.064
-281.501	-16.043	-0.374	0.237
-280.486	800.000	-0.098	-0.302
-279.472	539.186	-0.111	-0.262
-278.457	197.357	-0.108	-0.164
-277.443	280.911	-0.072	-0.129
-276.428	-200.000	0.004	-0.051
-275.413	556.518	-0.183	0.439
-274.399	-34.774	-0.407	0.221
-273.384	299.722	0.022	0.040
-272.370	-52.938	0.156	0.071
-271.355	53.737	-0.101	-0.096
-270.340	-5.219	-0.344	-0.235
-269.326	89.398	-0.180	0.199
-268.311	-200.000	-0.010	0.238
-267.297	38.074	0.066	-0.058
-266.282	137.942	0.103	-0.134
-265.267	-4.134	-0.102	0.070
-264.253	800.000	0.069	0.190
-263.238	369.682	0.144	-0.289
-262.224	800.000	-0.055	0.208
-261.209	-121.695	-0.298	0.049
-260.195	-178.338	0.304	-0.007
-259.180	-200.000	-0.027	0.332
-258.165	60.103	0.162	0.159
-257.151	-200.000	0.035	-0.300
-256.136	96.159	0.105	0.120
-255.122	800.000	0.037	0.117
-254.107	531.221	0.160	-0.375
-253.092	-94.721	-0.173	0.047
-252.078	212.522	0.141	0.221
-251.063	528.987	0.026	-0.062
-250.049	-200.000	0.029	-0.260
-249.034	-200.000	0.012	-0.124
-248.019	-20.737	0.068	-0.041
-247.005	-117.729	0.081	0.014
-245.990	254.493	-0.083	-0.140
-244.976	-200.000	0.055	0.344
-243.961	798.666	-0.008	-0.021
-242.946	80.258	0.151	-0.161
-241.932	-200.000	0.045	-0.346
-240.917	217.680	0.074	0.117
-239.903	-200.000	0.056	-0.387
-238.888	59.204	0.224	-0.219
-237.873	326.571	-0.081	-0.154
-236.859	-118.688	-0.103	-0.018
-235.844	-200.000	0.005	-0.071
-234.830	800.000	0.054	0.172
-233.815	91.074	-0.091	-0.102
-232.800	800.000	-0.065	0.235
-231.786	117.075	-0.228	0.278
-230.771	-97.832	-0.130	0.033
-229.757	800.000	-0.153	-0.495
-228.742	558.629	-0.058	0.139
-227.727	-102.934	0.180	-0.042
-226.713	-24.224	0.307	-0.182
-225.698	-160.155	-0.192	-0.010
-224.684	188.987	-0.046	-0.069
-223.669	243.602	0.170	0.283
-222.655	58.825	-0.172	-0.168
-221.640	-200.000	0.013	0.157
-220.625	-79.258	0.150	-0.050
-219.611	-120.704	0.180	-0.030
-218.596	773.936	-0.092	0.248
-217.582	800.000	0.046	0.177
-216.567	184.176	0.200	0.293
-215.552	-27.655	-0.284	0.163
-214.538	-165.630	0.292	-0.013
-213.523	-109.785	0.198	-0.041
-212.509	800.000	0.125	0.401
-211.494	-200.000	0.095	-0.462
-210.479	143.670	0.161	0.213
-209.465	-8.262	-0.152	0.101
-208.450	-65.212	0.231	-0.092
-207.436	101.122	0.035	-0.040
-206.421	36.558	0.114	0.099
-205.406	-51.739	-0.091	0.042
-204.392	-47.120	-0.159	-0.077
-203.377	800.000	-0.018	0.055
-202.363	110.791	0.222	0.265
-201.348	800.000	-0.114	0.355
-200.333	-79.006	0.382	-0.129
-199.319	-200.000	-0.012	-0.215
-198.304	800.000	0.044	-0.149
-197.290	-200.000	0.022	-0.102
-196.275	50.423	0.212	-0.199
-195.260	-55.159	-0.189	-0.084
-194.246	-4.139	-0.346	0.238
-193.231	147.513	-0.084	-0.112
-192.217	-200.000	0.022	-0.333
-191.202	110.588	-0.168	0.200
-190.187	52.224	-0.089	0.084
-189.173	-97.394	0.068	0.018
-188.158	-103.085	-0.198	0.046
-187.144	-96.232	0.226	-0.059
-186.129	-200.000	-0.007	-0.371
-185.114	556.822	0.008	-0.019
-184.100	-200.000	-0.063	0.293
-183.085	555.871	-0.052	-0.125
-182.071	-23.939	-0.077	0.046
-181.056	-4.161	-0.358	0.245
-180.042	-7.362	-0.160	-0.108
-179.027	-36.268	0.098	-0.052
-178.012	-95.224	-0.302	-0.081
-176.998	-14.786	0.265	0.168
-175.983	-28.932	0.158	-0.090
-174.969	800.000	0.085	0.341
-173.954	86.012	0.199	0.217
-172.939	-41.957	0.110	0.056
-171.925	-103.413	0.206	-0.048
-170.910	-115.990	0.443	-0.082
-169.896	208.513	0.084	0.130
-168.881	169.653	0.025	-0.035
-167.866	311.043	-0.026	0.048
-166.852	-95.879	0.305	0.080
-165.837	72.974	0.075	0.078
-164.823	1.445	0.168	-0.120
-163.808	317.796	-0.061	0.114
-162.793	-200.000	0.321	0.001
-161.779	-63.812	-0.124	-0.050
-160.764	-169.156	0.297	-0.011
-159.750	800.000	0.048	-0.157
-158.735	-125.614	0.064	0.010
-157.720	-125.371	0.245	-0.037
-156.706	-48.927	0.224	0.106
-155.691	-136.291	0.177	0.020
-154.677	82.870	-0.094	0.101
-153.662	34.549	-0.222	-0.192
-152.647	-200.000	-0.006	0.138
-151.633	110.950	0.058	0.070
-150.618	-200.000	-0.033	0.292
-149.604	-68.102	0.173	-0.067
-148.589	-200.000	0.223	0.000
-147.574	-118.045	0.113	0.020
-146.560	-191.308	-0.258	-0.003
-145.545	800.000	0.131	0.373
-144.531	142.085	-0.237	0.311
-143.516	-200.000	0.023	-0.121
-142.502	-103.565	-0.357	0.083
-141.487	-81.022	0.150	0.049
-140.472	-157.107	-0.171	-0.010
-139.458	-1.335	-0.264	0.185
-138.443	-41.344	-0.163	-0.083
-137.429	-160.510	-0.158	0.008
-136.414	355.475	0.131	0.258
-135.399	800.000	0.072	0.302
-134.385	800.000	0.037	-0.116
-133.370	-129.081	0.110	-0.015
-132.356	13.900	0.190	-0.146
-131.341	-200.000	-0.030	0.230
-130.326	800.000	0.038	-0.119
-129.312	-82.591	0.213	0.068
-128.297	17.480	-0.244	-0.192
-127.283	-48.810	0.030	0.014
-126.268	-117.582	0.234	0.042
-125.253	-7.803	-0.130	0.087
-124.239	800.000	-0.054	0.178
-123.224	-67.321	0.109	-0.042
-122.210	-32.779	-0.081	0.045
-121.195	-200.000	0.030	0.170
-120.180	-200.000	-0.008	-0.088
-119.166	-146.457	0.180	-0.016
-118.151	-200.000	-0.006	-0.196
-117.137	800.000	0.048	0.169
-116.122	800.000	0.025	0.081
-115.107	800.000	0.078	-0.279
-114.093	800.000	-0.024	0.099
-113.078	232.036	-0.118	-0.191
-112.064	-200.000	0.005	0.278
-111.049	-28.401	-0.172	0.098
-110.034	12.401	-0.226	-0.172
-109.020	111.554	-0.144	-0.172
-108.005	181.090	0.241	-0.350
-106.991	63.306	-0.361	0.357
-105.976	-77.406	-0.062	-0.021
-104.962	99.967	-0.170	0.195
-103.947	-31.977	-0.078	-0.043
-102.932	32.623	0.156	-0.133
-101.918	42.057	0.109	-0.098
-100.903	33.119	0.156	-0.133
-99.889	395.647	0.097	-0.200
-98.874	800.000	-0.026	-0.098
-97.859	-117.878	0.122	-0.022
-96.845	41.066	0.116	-0.103
-95.830	-71.848	-0.202	-0.074
-94.816	443.285	-0.088	-0.191
-93.801	-169.369	0.076	-0.003
-92.786	-16.992	-0.221	0.138
-91.772	-124.406	0.088	-0.014
-90.757	287.599	0.154	0.274
-89.743	-200.000	0.017	-0.088
-88.728	690.619	-0.073	0.190
-87.713	769.843	-0.130	-0.349
-86.699	-200.000	-0.064	0.316
-85.684	-11.823	-0.120	0.078
-84.670	228.191	-0.075	-0.121
-83.655	87.229	0.125	-0.136
-82.640	202.357	-0.034	0.052
-81.626	-15.372	-0.354	-0.223
-80.611	800.000	-0.103	-0.439
-79.597	16.243	0.080	-0.062
-78.582	-200.000	-0.013	-0.156
-77.567	-90.316	0.173	0.049
-76.553	-75.068	0.366	0.129
-75.538	-21.931	0.109	-0.066
-74.524	-200.000	-0.037	0.294
-73.509	96.497	-0.071	0.080
-72.494	-125.115	-0.181	0.027
-71.480	-200.000	0.027	0.527
-70.465	-200.000	-0.041	0.209
-69.451	117.956	-0.166	-0.202
-68.436	171.073	0.105	0.149
-67.422	-116.883	0.167	0.030
-66.407	-54.406	0.059	-0.026
-65.392	-79.312	0.251	0.084
-64.378	800.000	-0.041	0.148
-63.363	-37.407	-0.125	-0.066
-62.349	-119.982	0.435	-0.074
-61.334	82.358	-0.871	-0.931
-60.319	52.511	0.324	0.305
-59.305	-200.000	-0.061	-0.662
-58.290	226.459	0.667	1.067
-57.276	730.445	0.549	1.446
-56.261	-200.000	98.617	585.042
-55.246	641.087	1401.157	3515.744
-54.232	187.311	2610.921	3837.139
-53.217	116.700	2299.823	2780.492
-52.203	44.563	1914.042	1733.209
-51.188	38.217	1702.983	1493.715
-50.173	35.314	1658.630	1433.098
-49.159	53.323	1706.588	1611.301
-48.144	56.356	1724.191	1650.788
-47.130	37.848	1680.963	1471.382
-46.115	34.914	1665.825	1436.084
-45.100	34.679	1661.655	1430.670
-44.086	34.686	1658.703	1428.120
-43.071	34.673	1655.906	1425.563
-42.057	34.696	1653.523	1423.629
-41.042	34.746	1651.297	1422.025
-40.027	34.818	1649.241	1420.730
-39.013	34.662	1647.563	1418.071
-37.998	34.601	1645.556	1415.836
-36.984	34.667	1644.089	1415.005
-35.969	34.818	1643.033	1415.157
-34.954	34.922	1641.176	1414.272
-33.940	34.799	1639.561	1411.921
-32.925	34.817	1637.449	1410.179
-31.911	34.764	1635.853	1408.357
-30.896	34.768	1634.224	1406.927
-29.881	34.738	1632.533	1405.195
-28.867	34.755	1631.094	1404.024
-27.852	34.769	1629.442	1402.645
-26.838	34.863	1627.181	1401.332
-25.823	34.857	1626.304	1400.483
-24.809	34.823	1624.792	1398.873
-23.794	34.861	1623.371	1397.871
-22.779	34.856	1622.046	1396.639
-21.765	34.810	1620.316	1394.758
-20.750	34.843	1618.845	1393.678
-19.736	34.990	1616.907	1393.025
-18.721	34.920	1615.848	1391.549
-17.706	34.840	1614.241	1389.529
-16.692	34.911	1612.259	1388.280
-15.677	34.971	1610.853	1387.447
-14.663	34.889	1610.018	1386.086
-13.648	34.810	1608.825	1384.425
-12.633	34.856	1607.336	1383.425
-11.619	34.907	1605.697	1382.328
-10.604	34.893	1604.299	1380.966
-9.590	34.852	1602.515	1379.085
-8.575	34.953	1600.905	1378.372
-7.560	34.830	1600.026	1376.671
-6.546	34.903	1599.060	1376.312
-5.531	34.890	1597.911	1375.178
-4.517	34.887	1596.692	1374.050
-3.502	34.824	1596.176	1373.100
-2.487	34.893	1594.196	1371.834
-1.473	34.368	1582.599	1358.065
-0.458	30.534	1561.008	1312.470
0.556	28.308	1557.794	1269.324
1.571	25.094	1580.234	1264.854
2.586	23.899	1592.215	1265.832
3.600	20.569	1538.606	1200.160
4.615	12.502	1429.155	1062.751
5.629	5.830	1366.014	974.377
6.644	4.622	1358.008	961.114
7.659	4.540	1356.641	959.556
8.673	4.679	1355.787	959.726
9.688	4.859	1354.010	959.491
10.702	4.851	1351.396	957.506
11.717	7.458	1356.560	977.147
12.731	15.229	1370.525	1035.299
13.746	21.452	1380.444	1081.295
14.761	22.275	1380.933	1086.672
15.775	21.485	1378.431	1079.731
16.790	20.480	1375.943	1071.493
17.804	19.725	1373.655	1064.969
18.819	19.252	1372.307	1060.916
19.834	19.149	1371.414	1059.498
20.848	18.955	1370.265	1057.324
21.863	18.809	1369.112	1055.444
22.877	18.767	1368.068	1054.287
23.892	18.676	1366.869	1052.714
24.907	18.709	1366.023	1052.170
25.921	18.644	1365.094	1050.961
26.936	18.686	1364.141	1050.393
27.950	18.803	1363.075	1050.195
28.965	18.871	1362.108	1049.774
29.980	19.046	1360.969	1049.868
30.994	18.958	1360.516	1048.891
32.009	19.080	1358.980	1048.357
33.023	19.097	1357.907	1047.541
34.038	19.034	1356.684	1046.120
35.053	18.820	1355.799	1044.046
36.067	18.815	1354.906	1043.233
37.082	18.801	1353.856	1042.251
38.096	18.950	1352.481	1042.000
39.111	19.033	1351.914	1041.974
40.126	18.907	1350.648	1040.147
41.140	18.564	1350.126	1037.575
42.155	18.494	1349.117	1036.285
43.169	18.429	1349.163	1035.838
44.184	18.499	1348.772	1035.867
45.199	18.500	1348.515	1035.586
46.213	18.672	1347.510	1035.758
47.228	18.874	1346.921	1036.432
48.242	18.873	1345.839	1035.499
49.257	18.839	1344.015	1033.800
50.271	18.703	1343.129	1032.212
51.286	18.851	1341.554	1031.801
52.301	18.686	1340.842	1030.172
53.315	18.808	1338.805	1029.242
54.330	18.552	1337.854	1026.888
55.344	18.595	1336.772	1026.225
56.359	18.587	1335.461	1025.080
57.374	18.587	1334.574	1024.311
58.388	18.314	1334.405	1022.456
59.403	18.379	1333.908	1022.373
60.417	18.392	1332.749	1021.471
61.432	18.390	1331.927	1020.744
62.447	18.330	1330.700	1019.354
63.461	18.262	1328.970	1017.531
64.476	18.168	1328.705	1016.683
65.490	18.307	1326.953	1016.076
66.505	18.264	1325.772	1014.829
67.520	18.225	1324.605	1013.614
68.534	18.374	1323.452	1013.526
69.549	18.216	1322.943	1012.108
70.563	18.174	1321.985	1011.041
71.578	18.051	1320.968	1009.444
72.593	18.109	1319.171	1008.321
73.607	17.969	1319.252	1007.471
74.622	18.048	1318.015	1006.902
75.636	18.116	1317.557	1006.867
76.651	18.209	1316.922	1006.837
77.666	18.224	1316.156	1006.251
78.680	18.168	1316.405	1006.025
79.695	18.221	1315.984	1005.925
80.709	18.339	1314.735	1005.574
81.724	18.570	1313.656	1006.014
82.739	18.588	1313.067	1005.581
83.753	18.782	1311.923	1005.750
84.768	18.890	1311.317	1005.830
85.782	18.922	1310.322	1005.166
86.797	18.894	1309.071	1003.954
87.812	18.818	1307.703	1002.372
88.826	18.825	1306.231	1001.192
89.841	18.745	1305.873	1000.368
90.855	18.898	1304.577	1000.171
91.870	18.943	1304.390	1000.204
92.884	18.941	1303.206	999.198
93.899	18.955	1302.446	998.606
94.914	19.114	1301.830	998.971
95.928	19.010	1300.953	997.604
96.943	18.940	1300.002	996.382
97.957	18.885	1298.817	995.068
98.972	18.823	1298.035	994.020
99.987	18.955	1296.699	993.674
101.001	18.861	1296.026	992.527
102.016	18.850	1295.135	991.691
103.030	18.886	1294.164	991.069
104.045	18.957	1293.248	990.688
105.060	18.673	1292.069	988.060
106.074	18.511	1290.630	985.945
107.089	18.344	1288.748	983.458
108.103	18.266	1287.957	982.319
109.118	18.343	1286.214	981.347
110.133	18.256	1285.044	979.869
111.147	18.431	1283.300	979.452
112.162	18.401	1282.541	978.612
113.176	18.548	1281.156	978.311
114.191	18.458	1280.895	977.510
115.206	18.506	1279.207	976.408
116.220	18.480	1277.754	975.069
117.235	18.492	1277.026	974.493
118.249	18.377	1276.264	973.170
119.264	18.312	1274.857	971.643
120.279	18.321	1273.820	970.818
121.293	18.265	1272.519	969.425
122.308	18.126	1271.662	967.899
123.322	18.098	1270.574	966.829
124.337	17.987	1269.919	965.617
125.352	18.067	1268.649	965.013
126.366	18.117	1267.333	964.210
127.381	18.048	1266.496	963.101
128.395	18.241	1265.395	963.265
129.410	18.229	1264.573	962.486
130.424	18.312	1263.771	962.257
131.439	18.382	1262.625	961.691
132.454	18.440	1262.066	961.506
133.468	18.293	1261.730	960.339
134.483	18.497	1260.655	960.580
135.497	18.435	1259.867	959.550
136.512	18.483	1258.778	958.902
137.527	18.512	1257.056	957.671
138.541	18.544	1255.573	956.633
139.556	18.507	1254.577	955.585
140.570	18.736	1253.591	956.020
141.585	18.713	1252.733	955.153
142.600	18.882	1251.238	954.870
143.614	18.930	1250.576	954.548
144.629	18.910	1249.987	953.902
145.643	19.002	1248.595	953.268
146.658	18.791	1247.233	950.974
147.673	18.692	1245.712	949.183
148.687	18.611	1244.746	947.911
149.702	18.422	1243.290	945.678
150.716	18.471	1242.017	944.896
151.731	18.421	1240.662	943.506
152.746	18.541	1239.658	943.321
153.760	18.555	1238.517	942.448
154.775	18.590	1237.676	941.913
155.789	18.728	1236.608	941.773
156.804	18.794	1235.626	941.306
157.819	18.796	1234.501	940.378
158.833	18.837	1233.731	939.929
159.848	19.002	1232.872	940.098
160.862	18.965	1231.916	939.080
161.877	18.780	1230.686	937.053
162.892	18.516	1229.279	934.459
163.906	18.539	1228.542	933.938
164.921	18.610	1227.456	933.416
165.935	18.557	1226.816	932.560
166.950	18.720	1225.965	932.718
167.964	18.778	1225.377	932.500
168.979	18.659	1224.563	931.157
169.994	18.624	1223.684	930.216
171.008	18.761	1223.188	930.499
172.023	18.846	1222.097	930.046
173.037	18.928	1221.426	929.895
174.052	18.796	1220.815	928.637
175.067	18.653	1219.468	926.755
176.081	18.609	1218.342	925.578
177.096	18.606	1217.336	924.720
178.110	18.663	1216.148	924.042
179.125	18.700	1214.878	923.193
180.140	18.735	1213.953	922.596
181.154	18.821	1213.112	922.338
182.169	18.996	1212.026	922.370
183.183	18.882	1210.902	920.824
184.198	18.924	1209.820	920.143
185.213	19.034	1208.639	919.751
186.227	19.073	1207.474	918.991
187.242	19.033	1206.778	918.164
188.256	19.230	1205.851	918.432
189.271	19.121	1204.961	917.088
190.286	18.843	1203.954	914.763
191.300	18.622	1202.871	912.685
192.315	18.478	1201.752	910.989
193.329	18.570	1201.210	910.984
194.344	18.600	1201.059	910.951
195.359	18.825	1200.048	911.297
196.373	18.741	1200.127	910.827
197.388	18.988	1199.412	911.517
198.402	19.179	1199.209	912.292
199.417	19.233	1198.758	912.156
200.432	19.355	1197.862	912.039
201.446	19.359	1197.502	911.704
202.461	19.438	1195.961	910.866
203.475	19.522	1195.257	910.696
204.490	19.247	1193.809	908.062
205.504	19.073	1192.779	906.282
206.519	19.082	1191.865	905.556
207.534	19.089	1190.549	904.512
208.548	19.115	1189.456	903.735
209.563	19.143	1188.971	903.436
210.577	19.134	1187.894	902.487
211.592	19.228	1187.150	902.338
212.607	19.400	1186.298	902.510
213.621	19.312	1185.946	901.703
214.636	19.316	1184.706	900.699
215.650	19.350	1183.677	900.013
216.665	19.505	1182.579	899.911
217.680	19.542	1182.160	899.702
218.694	19.640	1181.490	899.624
219.709	19.549	1180.340	898.197
220.723	19.551	1179.592	897.556
221.738	19.404	1178.762	896.083
222.753	19.574	1177.911	896.237
223.767	19.549	1177.333	895.588
224.782	19.669	1177.128	895.974
225.796	19.773	1176.688	896.101
226.811	19.625	1175.831	894.603
227.826	19.608	1174.919	893.741
228.840	19.551	1173.909	892.603
229.855	19.441	1173.406	891.572
230.869	19.541	1172.332	891.192
231.884	19.370	1171.897	889.897
232.899	19.422	1170.441	888.984
233.913	19.255	1170.186	887.850
234.928	19.224	1169.398	887.016
235.942	19.320	1168.414	886.683
236.957	19.227	1167.567	885.487
237.972	19.281	1166.669	885.000
238.986	19.359	1166.324	885.065
240.001	19.340	1165.857	884.533
241.015	19.341	1164.928	883.754
242.030	19.413	1164.009	883.348
243.045	19.569	1163.048	883.339
244.059	19.498	1162.752	882.671
245.074	19.577	1161.787	882.267
246.088	19.589	1161.101	881.728
247.103	19.675	1160.713	881.794
248.117	19.690	1159.840	881.126
249.132	19.987	1158.992	881.920
250.147	20.126	1158.634	882.276
251.161	20.253	1158.020	882.380
252.176	20.262	1157.178	881.703
253.190	20.319	1156.948	881.741
254.205	20.455	1156.405	881.940
255.220	20.336	1155.788	880.785
256.234	20.472	1154.805	880.648
257.249	20.384	1153.992	879.506
258.263	20.327	1153.662	878.886
259.278	20.332	1152.853	878.217
260.293	20.362	1152.442	877.979
261.307	20.479	1151.851	878.044
262.322	20.497	1151.400	877.710
263.336	20.503	1150.888	877.272
264.351	20.538	1150.313	876.935
265.366	20.414	1149.984	875.979
266.380	20.472	1148.709	875.224
267.395	20.407	1147.929	874.224
268.409	20.359	1146.841	873.077
269.424	20.379	1145.715	872.245
270.439	20.338	1145.903	872.106
271.453	20.190	1145.124	870.693
272.468	20.289	1144.025	870.273
273.482	20.221	1143.188	869.222
274.497	20.161	1142.944	868.659
275.512	20.187	1141.988	867.984
276.526	20.229	1141.408	867.674
277.541	20.225	1140.550	866.930
278.555	20.344	1140.108	867.109
279.570	20.375	1139.870	867.005
280.585	20.592	1138.776	867.181
281.599	20.535	1137.874	866.133
282.614	20.372	1136.971	864.554
283.628	20.460	1135.505	863.802
284.643	20.299	1134.822	862.407
285.657	20.315	1133.712	861.566
286.672	20.441	1132.965	861.546
287.687	20.444	1132.429	861.080
288.701	20.506	1131.233	860.399
289.716	20.552	1130.665	860.117
290.730	20.440	1130.123	859.079
291.745	20.428	1129.387	858.380
292.760	20.583	1128.884	858.692
293.774	20.568	1128.514	858.258
294.789	20.704	1127.919	858.399
295.803	20.730	1127.088	857.822
296.818	20.490	1126.520	856.130
297.833	20.487	1125.612	855.348
298.847	20.405	1124.807	854.259
299.862	20.499	1123.589	853.721
300.876	20.589	1123.085	853.704
301.891	20.638	1122.900	853.726
302.906	20.736	1121.881	853.355
303.920	20.743	1121.669	853.155
304.935	20.855	1120.980	853.103
305.949	21.082	1119.944	853.350
306.964	20.954	1119.350	852.197
307.979	20.986	1118.646	851.740
308.993	20.858	1118.046	850.582
310.008	20.761	1117.483	849.607
311.022	20.855	1116.981	849.608
312.037	20.937	1115.740	848.991
313.052	20.819	1114.791	847.619
314.066	20.851	1113.198	846.487
315.081	20.540	1112.729	844.547
316.095	20.522	1112.178	843.965
317.110	20.575	1111.269	843.457
318.125	20.572	1110.729	842.960
319.139	20.589	1109.841	842.291
320.154	20.550	1109.475	841.750
321.168	20.594	1108.348	841.033
322.183	20.656	1108.024	841.013
323.197	20.633	1107.579	840.491
324.212	20.800	1106.737	840.585
325.227	20.763	1106.362	840.044
326.241	20.735	1105.634	839.282
327.256	20.710	1104.775	838.436
328.270	20.710	1103.978	837.758
329.285	20.587	1102.927	836.295
330.300	20.667	1102.217	836.066
331.314	20.683	1101.329	835.395
332.329	20.738	1100.160	834.697
333.343	20.919	1099.245	834.796
334.358	20.879	1098.833	834.218
335.373	21.074	1097.991	834.440
336.387	21.109	1096.891	833.695
337.402	21.089	1096.453	833.194
338.416	21.031	1096.104	832.580
339.431	21.154	1095.170	832.385
340.446	21.291	1094.979	832.816
341.460	21.320	1094.363	832.413
342.475	21.405	1093.556	832.128
343.489	21.515	1092.233	831.574
344.504	21.459	1091.713	830.838
345.519	21.474	1091.238	830.473
346.533	21.483	1090.378	829.787
347.548	21.595	1089.298	829.423
348.562	21.497	1088.723	828.447
349.577	21.364	1087.766	827.015
350.592	21.274	1086.564	825.604
351.606	21.222	1085.703	824.633
352.621	21.197	1085.240	824.088
353.635	21.122	1084.449	823.063
354.650	21.057	1083.839	822.221
355.665	21.127	1083.312	822.079
356.679	21.122	1082.836	821.620
357.694	21.376	1081.920	822.045
358.708	21.400	1081.876	822.051
359.723	21.396	1080.706	821.072
360.738	21.430	1080.506	821.009
361.752	21.435	1079.783	820.408
362.767	21.495	1079.026	820.042
363.781	21.522	1078.265	819.517
364.796	21.493	1078.338	819.366
365.810	21.733	1077.560	819.825
366.825	21.747	1076.958	819.358
367.840	21.987	1076.169	819.808
368.854	21.810	1076.203	818.936
369.869	21.967	1075.025	818.697
370.883	21.721	1074.340	816.959
371.898	21.699	1073.652	816.261
372.913	21.623	1073.503	815.719
373.927	21.871	1072.462	816.010
374.942	21.764	1072.252	815.281
375.956	21.847	1071.607	815.101
376.971	21.813	1070.921	814.351
377.986	21.920	1070.322	814.322
379.000	22.022	1069.760	814.293
380.015	21.983	1069.503	813.847
381.029	22.104	1068.494	813.565
382.044	21.965	1068.117	812.566
383.059	22.057	1067.103	812.146
384.073	22.082	1066.176	811.485
385.088	22.179	1065.261	811.163
386.102	22.049	1064.588	809.979
387.117	21.842	1063.718	808.294
388.132	21.800	1062.403	807.027
389.146	21.725	1061.927	806.251
390.161	21.657	1060.864	805.059
391.175	21.705	1060.646	805.044
392.190	22.013	1059.825	805.763
393.205	21.962	1059.081	804.891
394.219	21.841	1058.229	803.618
395.234	21.960	1056.944	803.117
396.248	21.789	1056.256	801.739
397.263	21.899	1054.988	801.209
398.278	21.689	1054.594	799.882
399.292	21.636	1053.701	798.892
400.307	21.607	1052.843	798.038
401.321	21.661	1052.576	798.009
402.336	21.617	1051.757	797.120
403.350	21.727	1050.950	796.937
404.365	21.730	1050.135	796.260
405.380	21.943	1049.586	796.740
406.394	21.920	1049.121	796.212
407.409	21.924	1048.213	795.474
408.423	22.174	1047.422	795.936
409.438	22.279	1047.039	796.047
410.453	22.357	1046.516	795.932
411.467	22.391	1045.820	795.489
412.482	22.423	1045.140	795.043
413.496	22.446	1044.621	794.682
414.511	22.354	1044.074	793.780
415.526	22.530	1043.550	794.108
416.540	22.609	1043.350	794.238
417.555	22.661	1042.566	793.806
418.569	22.511	1041.892	792.548
419.584	22.416	1041.465	791.724
420.599	22.359	1041.187	791.186
421.613	154.888	1400.294	1789.485
422.628	141.821	1452.600	1789.626
