DTS Sentinel unit serial number:	SN413079Multiplexer serial number:	ORYXHardware model number:	OX4-SRSoftware version number:	ORYX F/W v4.00 Oryx Data Collector v3.7.2.0data status	okinstallation	princeton_trtdifferential loss correction	single-endedforward channel	channel 2reverse channel	N/Adate	2019/09/15time	03:15:35forward acquisition time	60.00reverse acquisition time	0.00gamma	496.2192k internal	0.2326k external	0.2326temperature offset calibration	1.0031default loss term (dB/km)	0.3790temperature slope calibration	1.0000multiplexer offset coefficient	1.0000multiplexer slope coefficient	1.0000fibre end	0.00T internal ref (°C)	31.12T ext. ref 1 (°C)	4.58T ext. ref 2 (°C)	25.71length (m)	temperature (°C)	Stokes	anti-Stokes-747.200	-200.000	-0.048	-0.272
-746.185	583.026	-0.089	0.220
-745.171	96.379	-0.041	0.047
-744.156	19.632	-0.158	0.128
-743.142	23.672	-0.290	0.241
-742.127	84.336	-0.295	0.325
-741.112	-61.722	-0.150	-0.063
-740.098	-36.533	-0.101	-0.055
-739.083	-0.924	0.128	0.091
-738.069	358.505	0.102	0.205
-737.054	-200.000	-0.063	0.279
-736.039	139.448	-0.089	0.118
-735.025	-200.000	-0.060	0.306
-734.010	389.842	-0.132	-0.277
-732.996	408.347	-0.062	0.133
-731.981	-18.583	-0.233	0.146
-730.966	-23.385	0.094	0.057
-729.952	-74.462	-0.111	0.041
-728.937	-69.294	-0.261	-0.101
-727.923	-68.082	-0.329	-0.129
-726.908	-82.214	0.310	0.102
-725.894	201.693	-0.088	0.137
-724.879	26.717	0.051	0.043
-723.864	-200.000	0.013	0.123
-722.850	50.544	-0.274	0.261
-721.835	-17.748	-0.307	-0.194
-720.821	67.888	-0.071	0.073
-719.806	464.259	0.131	0.296
-718.791	-96.140	-0.290	0.078
-717.777	-200.000	-0.026	0.212
-716.762	-113.156	-0.256	-0.051
-715.748	-94.233	-0.153	0.042
-714.733	-125.057	-0.081	0.013
-713.718	-174.551	-0.040	-0.001
-712.704	-88.530	0.335	-0.101
-711.689	478.563	-0.064	-0.146
-710.675	149.772	-0.289	-0.395
-709.660	-200.000	-0.009	0.061
-708.645	124.150	0.103	0.130
-707.631	367.846	0.118	0.240
-706.616	352.445	0.177	0.353
-705.602	200.866	0.187	0.290
-704.587	25.860	0.290	0.244
-703.572	800.000	0.107	-0.447
-702.558	800.000	0.067	-0.196
-701.543	280.240	0.142	0.255
-700.529	36.044	0.113	0.100
-699.514	-34.568	0.275	-0.152
-698.499	-42.184	-0.246	-0.127
-697.485	56.074	-0.071	-0.070
-696.470	-155.433	-0.213	-0.014
-695.456	56.324	0.164	0.160
-694.441	800.000	0.088	-0.303
-693.426	105.484	-0.041	-0.048
-692.412	-200.000	0.012	-0.064
-691.397	120.688	0.167	-0.210
-690.383	800.000	0.019	0.061
-689.368	198.932	-0.178	0.274
-688.354	37.942	-0.289	0.259
-687.339	509.830	0.174	-0.408
-686.324	-69.235	-0.263	0.102
-685.310	155.464	-0.195	-0.270
-684.295	-4.187	0.149	0.104
-683.281	-200.000	-0.041	-0.292
-682.266	684.135	0.050	-0.132
-681.251	-200.000	-0.026	0.246
-680.237	78.078	-0.144	-0.155
-679.222	168.003	-0.056	0.080
-678.208	-200.000	-0.021	-0.186
-677.193	-77.227	0.037	0.013
-676.178	-46.489	-0.172	0.085
-675.164	242.443	0.133	0.224
-674.149	800.000	0.145	-0.406
-673.135	-6.034	0.172	0.119
-672.120	-200.000	-0.031	0.273
-671.105	-25.185	0.211	0.126
-670.091	-90.074	-0.149	0.044
-669.076	-133.503	0.224	-0.028
-668.062	540.310	-0.077	-0.185
-667.047	506.663	0.118	-0.274
-666.032	-142.696	0.200	0.020
-665.018	-46.426	0.116	0.057
-664.003	113.272	-0.097	-0.118
-662.989	-123.530	-0.228	0.037
-661.974	-5.747	-0.034	-0.023
-660.959	-167.723	-0.400	0.016
-659.945	-200.000	0.004	0.188
-658.930	315.060	-0.105	0.198
-657.916	-200.000	-0.011	-0.160
-656.901	11.946	0.202	-0.156
-655.886	24.385	-0.153	-0.127
-654.872	-126.122	-0.321	-0.048
-653.857	191.865	0.056	0.085
-652.843	31.037	0.117	0.101
-651.828	-12.976	0.178	0.116
-650.814	800.000	-0.104	-0.446
-649.799	-22.507	-0.122	0.074
-648.784	-200.000	-0.027	0.140
-647.770	456.613	-0.039	-0.088
-646.755	234.171	0.034	0.056
-645.741	800.000	0.082	0.235
-644.726	-200.000	-0.007	0.078
-643.711	-127.153	0.053	0.008
-642.697	800.000	0.085	0.312
-641.682	188.372	-0.121	0.182
-640.668	-144.454	0.092	-0.009
-639.653	-200.000	-0.005	-0.106
-638.638	-200.000	-0.054	0.268
-637.624	154.790	0.072	0.099
-636.609	-100.461	0.364	-0.090
-635.595	-83.564	0.081	-0.026
-634.580	-200.000	0.066	-0.552
-633.565	41.707	-0.135	-0.122
-632.551	515.344	0.008	0.018
-631.536	-3.510	0.192	-0.134
-630.522	342.405	-0.043	0.085
-629.507	299.026	0.025	-0.046
-628.492	-99.033	-0.134	-0.034
-627.478	464.411	-0.075	0.169
-626.463	117.160	0.099	0.122
-625.449	-151.268	0.357	0.027
-624.434	-200.000	-0.022	-0.315
-623.419	-200.000	0.011	0.218
-622.405	-44.184	-0.202	-0.102
-621.390	-42.748	0.297	-0.151
-620.376	800.000	-0.119	-0.462
-619.361	-99.195	-0.351	-0.089
-618.346	-200.000	0.022	-0.203
-617.332	27.200	0.131	0.111
-616.317	-83.826	-0.351	0.112
-615.303	290.216	0.112	-0.205
-614.288	-71.988	-0.230	0.086
-613.273	-156.185	0.369	-0.023
-612.259	-135.370	-0.123	-0.015
-611.244	14.544	0.249	0.195
-610.230	201.924	-0.181	0.280
-609.215	52.833	-0.050	-0.048
-608.201	-200.000	0.027	-0.174
-607.186	-20.965	-0.272	0.167
-606.171	19.238	0.272	-0.219
-605.157	-0.100	-0.264	-0.188
-604.142	800.000	0.026	-0.076
-603.128	-24.609	0.258	-0.154
-602.113	688.726	0.074	-0.195
-601.098	-81.171	-0.286	0.095
-600.084	-200.000	0.010	0.180
-599.069	-75.013	0.044	0.016
-598.055	-49.277	-0.145	-0.069
-597.040	219.161	-0.247	-0.396
-596.025	-35.702	-0.241	0.131
-595.011	-49.636	-0.122	0.058
-593.996	18.831	-0.038	-0.031
-592.982	10.672	0.127	-0.097
-591.967	329.462	-0.069	0.132
-590.952	-38.002	-0.366	0.195
-589.938	664.310	0.020	0.051
-588.923	800.000	-0.071	0.208
-587.909	-166.280	-0.136	-0.006
-586.894	-200.000	0.037	-0.310
-585.879	-100.410	-0.291	0.072
-584.865	440.369	-0.066	-0.145
-583.850	291.098	0.063	-0.115
-582.836	-79.408	-0.095	-0.032
-581.821	472.388	0.187	0.421
-580.806	-200.000	0.017	-0.254
-579.792	-34.045	-0.095	0.053
-578.777	-16.422	-0.317	-0.202
-577.763	68.110	0.098	0.100
-576.748	127.375	-0.138	-0.175
-575.733	-152.519	-0.359	-0.026
-574.719	721.898	0.108	-0.289
-573.704	-130.500	-0.221	-0.030
-572.690	-11.182	0.086	-0.057
-571.675	-200.000	-0.008	-0.068
-570.661	-79.595	0.136	-0.046
-569.646	800.000	0.047	0.160
-568.631	149.738	0.092	-0.125
-567.617	-170.388	0.356	0.012
-566.602	-200.000	0.017	0.137
-565.588	-41.599	-0.134	-0.069
-564.573	246.596	-0.035	-0.059
-563.558	-23.956	-0.172	-0.103
-562.544	800.000	-0.022	-0.066
-561.529	-195.796	0.098	-0.001
-560.515	800.000	-0.053	-0.156
-559.500	-30.913	0.124	-0.070
-558.485	800.000	0.059	0.233
-557.471	-49.464	-0.229	-0.109
-556.456	-173.011	0.299	-0.009
-555.442	800.000	-0.039	0.151
-554.427	95.495	0.043	0.049
-553.412	800.000	-0.070	0.273
-552.398	-18.531	-0.223	0.139
-551.383	82.079	0.176	0.191
-550.369	-137.092	-0.199	0.023
-549.354	-200.000	0.016	-0.097
-548.339	800.000	0.069	-0.264
-547.325	-200.000	-0.018	-0.265
-546.310	197.920	-0.026	0.040
-545.296	-95.427	-0.153	-0.041
-544.281	328.838	-0.184	-0.354
-543.266	579.130	0.162	0.396
-542.252	800.000	0.046	0.147
-541.237	-146.732	-0.340	0.029
-540.223	-200.000	-0.045	-0.516
-539.208	-52.916	0.295	-0.136
-538.193	-39.670	-0.246	-0.129
-537.179	137.794	0.187	0.245
-536.164	-3.454	0.124	0.086
-535.150	-17.814	-0.392	-0.246
-534.135	-127.518	-0.167	0.024
-533.121	-52.114	0.035	0.016
-532.106	132.353	-0.051	-0.066
-531.091	271.499	-0.070	-0.123
-530.077	-200.000	-0.008	-0.121
-529.062	-72.137	-0.234	-0.087
-528.048	52.136	0.461	-0.440
-527.033	800.000	0.093	-0.262
-526.018	800.000	-0.034	0.114
-525.004	-200.000	0.033	0.247
-523.989	81.236	0.280	-0.302
-522.975	-145.784	-0.492	0.044
-521.960	-200.000	0.021	0.141
-520.945	-66.611	0.276	0.109
-519.931	184.067	-0.148	-0.219
-518.916	-95.040	0.058	0.016
-517.902	800.000	-0.012	0.039
-516.887	-140.356	-0.276	0.029
-515.872	111.865	-0.136	-0.165
-514.858	96.525	-0.249	0.285
-513.843	800.000	-0.092	-0.376
-512.829	-66.395	-0.222	0.088
-511.814	-200.000	-0.056	-0.272
-510.799	-123.783	0.429	-0.068
-509.785	-45.079	-0.276	0.137
-508.770	-122.436	-0.409	-0.067
-507.756	-93.143	-0.209	-0.058
-506.741	-156.088	0.199	-0.013
-505.726	184.463	0.229	0.339
-504.712	-124.190	0.245	-0.038
-503.697	-200.000	0.199	-0.001
-502.683	-109.274	-0.264	-0.056
-501.668	297.769	0.100	0.184
-500.653	21.260	-0.086	-0.070
-499.639	-200.000	0.016	0.144
-498.624	-200.000	0.004	0.393
-497.610	-147.447	-0.206	-0.017
-496.595	37.941	0.167	0.148
-495.581	88.624	-0.205	-0.227
-494.566	-200.000	0.020	-0.329
-493.551	77.547	-0.149	-0.158
-492.537	-200.000	0.027	-0.228
-491.522	-145.794	-0.308	0.027
-490.508	-50.470	0.126	0.059
-489.493	800.000	-0.012	-0.048
-488.478	-33.557	0.262	-0.145
-487.464	-58.907	-0.398	-0.172
-486.449	-200.000	-0.024	0.203
-485.435	324.664	-0.182	0.347
-484.420	85.565	-0.085	0.093
-483.405	-142.161	0.234	-0.023
-482.391	800.000	-0.086	0.359
-481.376	-91.125	-0.168	-0.048
-480.362	-175.450	0.059	-0.002
-479.347	-46.464	-0.158	-0.077
-478.332	-42.435	0.125	-0.064
-477.318	-200.000	-0.005	0.316
-476.303	149.048	0.223	0.301
-475.289	447.202	0.126	-0.276
-474.274	800.000	0.048	-0.148
-473.259	-109.486	0.080	0.017
-472.245	-200.000	0.106	-0.480
-471.230	-47.656	-0.167	0.081
-470.216	800.000	0.078	0.237
-469.201	361.185	-0.148	0.297
-468.186	-161.512	-0.138	-0.007
-467.172	308.219	0.140	0.261
-466.157	800.000	-0.091	0.344
-465.143	-52.932	0.159	0.073
-464.128	680.701	-0.102	0.265
-463.113	800.000	-0.036	-0.118
-462.099	-136.952	-0.190	0.022
-461.084	-65.613	-0.423	0.169
-460.070	37.930	-0.089	-0.079
-459.055	259.388	-0.053	0.092
-458.040	449.989	0.081	-0.178
-457.026	-61.531	-0.126	0.053
-456.011	196.651	0.350	-0.531
-454.997	159.853	-0.167	-0.233
-453.982	-200.000	0.024	-0.189
-452.968	458.290	-0.128	-0.284
-451.953	7.539	0.149	0.111
-450.938	-12.288	-0.304	0.198
-449.924	800.000	0.061	-0.186
-448.909	-11.244	-0.097	0.063
-447.895	-200.000	0.050	-0.246
-446.880	53.815	0.309	0.296
-445.865	-8.768	0.173	-0.116
-444.851	-119.955	0.017	-0.003
-443.836	68.638	0.180	-0.184
-442.822	528.798	0.029	-0.068
-441.807	46.906	0.097	0.090
-440.792	68.649	-0.280	0.286
-439.778	-146.062	0.328	-0.029
-438.763	-130.633	-0.365	-0.049
-437.749	14.591	-0.076	-0.059
-436.734	-31.648	0.228	-0.127
-435.719	-43.720	-0.131	0.066
-434.705	185.559	0.099	0.147
-433.690	800.000	-0.050	-0.201
-432.676	800.000	0.103	0.330
-431.661	-52.382	-0.245	0.113
-430.646	-164.429	-0.331	0.015
-429.632	87.401	0.067	0.073
-428.617	-200.000	-0.086	0.000
-427.603	800.000	0.061	-0.167
-426.588	-200.000	0.071	-0.331
-425.573	475.133	-0.045	-0.101
-424.559	-46.737	-0.134	-0.065
-423.544	-185.060	0.273	-0.004
-422.530	-136.686	0.220	0.025
-421.515	-200.000	-0.006	-0.423
-420.500	58.731	-0.087	-0.085
-419.486	21.242	0.095	0.077
-418.471	-173.170	-0.099	-0.003
-417.457	4.029	-0.192	-0.140
-416.442	-75.441	0.316	0.112
-415.428	368.847	-0.160	-0.323
-414.413	-54.441	0.216	-0.098
-413.398	-72.939	-0.147	-0.054
-412.384	-36.151	0.365	-0.196
-411.369	135.145	0.165	0.213
-410.355	-80.032	0.149	-0.050
-409.340	-99.416	0.182	0.046
-408.325	-200.000	-0.013	0.249
-407.311	800.000	-0.030	-0.103
-406.296	607.518	0.088	0.219
-405.282	-118.117	0.374	0.066
-404.267	800.000	-0.022	0.075
-403.252	93.492	0.245	-0.276
-402.238	-200.000	-0.013	-0.237
-401.223	-200.000	-0.008	-0.133
-400.209	-87.876	0.095	0.028
-399.194	-157.425	0.196	0.012
-398.179	-200.000	-0.024	-0.329
-397.165	-200.000	0.002	-0.010
-396.150	272.859	-0.212	0.372
-395.136	411.200	-0.096	0.202
-394.121	-133.009	-0.363	-0.046
-393.106	-200.000	0.003	-0.031
-392.092	4.511	-0.229	-0.167
-391.077	-164.979	-0.302	0.013
-390.063	58.575	0.130	-0.127
-389.048	242.456	-0.088	-0.146
-388.033	-200.000	-0.020	0.109
-387.019	-48.630	0.144	0.069
-386.004	-46.407	0.307	0.150
-384.990	-200.000	0.020	0.156
-383.975	455.912	-0.092	0.203
-382.960	800.000	0.015	-0.043
-381.946	-200.000	0.008	-0.115
-380.931	800.000	0.101	-0.372
-379.917	-61.125	0.212	0.089
-378.902	-4.045	-0.079	-0.054
-377.888	144.030	-0.115	-0.153
-376.873	-200.000	-0.054	-0.304
-375.858	-32.709	0.093	-0.052
-374.844	370.337	0.165	-0.333
-373.829	686.381	-0.048	0.124
-372.815	-104.143	-0.458	0.106
-371.800	-53.316	0.099	-0.045
-370.785	-64.005	-0.233	0.095
-369.771	628.708	0.127	-0.319
-368.756	800.000	0.024	-0.083
-367.742	280.176	-0.073	-0.129
-366.727	141.346	-0.184	0.242
-365.712	800.000	0.053	0.171
-364.698	-174.894	0.142	-0.004
-363.683	-200.000	-0.080	-0.511
-362.669	453.548	-0.047	0.104
-361.654	-200.000	-0.030	0.270
-360.639	37.737	-0.196	0.173
-359.625	119.400	0.205	-0.252
-358.610	385.079	-0.133	-0.272
-357.596	63.355	-0.066	-0.065
-356.581	-41.578	0.231	-0.118
-355.566	247.997	0.061	-0.102
-354.552	-200.000	-0.027	0.173
-353.537	800.000	0.078	-0.219
-352.523	-73.897	-0.157	0.057
-351.508	54.771	0.081	-0.077
-350.493	-36.592	0.270	-0.144
-349.479	576.990	-0.030	0.074
-348.464	800.000	-0.015	-0.063
-347.450	-122.274	0.220	0.036
-346.435	746.496	-0.050	0.133
-345.420	17.489	-0.153	0.121
-344.406	-200.000	-0.060	-0.277
-343.391	800.000	-0.041	-0.123
-342.377	174.595	-0.025	-0.036
-341.362	-45.961	0.175	-0.086
-340.348	-110.662	-0.131	-0.027
-339.333	-131.392	0.338	-0.044
-338.318	53.761	-0.211	0.201
-337.304	85.376	-0.078	-0.085
-336.289	-52.408	0.129	-0.059
-335.275	-113.692	0.342	0.066
-334.260	72.429	0.173	-0.179
-333.245	37.852	0.204	0.180
-332.231	-53.267	0.228	0.104
-331.216	-200.000	0.009	0.075
-330.202	158.984	-0.132	0.183
-329.187	-200.000	-0.047	-0.395
-328.172	-200.000	0.036	-0.163
-327.158	86.688	-0.220	0.241
-326.143	45.651	-0.193	0.177
-325.129	800.000	-0.101	0.348
-324.114	-200.000	0.021	-0.255
-323.099	670.518	-0.069	0.176
-322.085	-0.877	-0.060	0.042
-321.070	800.000	0.035	0.147
-320.056	-138.778	-0.352	0.038
-319.041	63.075	0.122	0.121
-318.026	0.268	0.048	0.034
-317.012	800.000	0.068	0.207
-315.997	468.882	-0.139	0.310
-314.983	-124.998	0.350	-0.053
-313.968	103.740	0.165	0.192
-312.953	495.486	0.060	-0.138
-311.939	-95.542	0.140	0.037
-310.924	-112.089	-0.138	-0.027
-309.910	-186.450	0.170	0.002
-308.895	23.833	-0.164	-0.134
-307.880	-21.167	-0.089	0.054
-306.866	-200.000	0.035	-0.352
-305.851	275.658	-0.067	-0.118
-304.837	86.292	-0.118	0.129
-303.822	35.200	0.207	0.180
-302.807	53.544	0.122	0.116
-301.793	800.000	0.094	0.290
-300.778	121.034	0.054	0.067
-299.764	-187.919	0.326	0.004
-298.749	-16.173	0.036	0.023
-297.735	765.034	0.124	0.335
-296.720	-76.019	-0.113	-0.040
-295.705	-60.003	0.135	-0.057
-294.691	-33.596	0.177	0.097
-293.676	-200.000	-0.072	-0.415
-292.662	-200.000	0.002	-0.150
-291.647	-99.644	-0.270	0.067
-290.632	278.624	0.049	0.087
-289.618	800.000	-0.054	0.212
-288.603	-120.214	-0.172	0.029
-287.589	-28.180	0.150	0.086
-286.574	-102.707	0.283	-0.067
-285.559	-117.698	-0.251	0.045
-284.545	-112.586	0.329	0.065
-283.530	86.554	-0.257	0.281
-282.516	-34.093	0.055	0.030
-281.501	-125.971	0.183	0.027
-280.486	-26.658	-0.227	0.132
-279.472	329.461	0.153	0.292
-278.457	-200.000	-0.082	0.458
-277.443	217.188	0.182	0.287
-276.428	-67.159	0.272	-0.106
-275.413	-64.188	-0.123	-0.049
-274.399	375.758	0.116	-0.235
-273.384	22.069	0.131	0.106
-272.370	-200.000	0.002	-0.106
-271.355	-59.451	-0.079	0.034
-270.340	-131.534	-0.260	-0.034
-269.326	-127.676	-0.172	-0.025
-268.311	-95.161	0.315	-0.084
-267.297	690.101	0.020	-0.051
-266.282	-161.415	0.213	-0.011
-265.267	-200.000	0.030	-0.181
-264.253	-35.168	-0.305	-0.164
-263.238	1.764	-0.153	0.109
-262.224	800.000	0.098	0.295
-261.209	293.653	0.042	0.075
-260.195	800.000	-0.005	-0.019
-259.180	-115.612	-0.017	-0.003
-258.165	-101.084	0.190	-0.046
-257.151	4.020	-0.119	-0.086
-256.136	-109.987	0.084	0.017
-255.122	-18.735	-0.184	-0.113
-254.107	247.044	-0.114	-0.190
-253.092	145.632	0.117	0.156
-252.078	-200.000	0.010	0.112
-251.063	56.840	0.292	-0.281
-250.049	62.184	-0.357	0.352
-249.034	130.621	-0.084	-0.107
-248.019	456.347	0.107	0.234
-247.005	249.060	-0.031	-0.051
-245.990	-200.000	0.021	0.255
-244.976	-13.386	-0.177	0.113
-243.961	316.505	-0.081	-0.150
-242.946	74.253	0.113	-0.117
-241.932	-103.418	-0.137	0.032
-240.917	45.890	0.124	-0.114
-239.903	166.187	0.121	-0.169
-238.888	17.697	0.061	-0.048
-237.873	793.349	-0.031	0.084
-236.859	97.394	0.115	0.131
-235.844	151.048	-0.128	-0.173
-234.830	-102.024	-0.195	0.046
-233.815	-200.000	0.031	0.164
-232.800	-134.197	0.166	0.020
-231.786	258.600	0.068	0.116
-230.771	-200.000	-0.001	0.204
-229.757	-78.447	-0.213	-0.072
-228.742	-151.514	-0.087	-0.006
-227.727	-63.557	-0.095	-0.038
-226.713	-200.000	0.045	-0.490
-225.698	70.395	0.067	0.068
-224.684	-76.520	-0.189	0.066
-223.669	186.565	0.207	0.304
-222.655	-200.000	-0.013	0.252
-221.640	-92.273	-0.229	0.064
-220.625	193.690	0.109	0.162
-219.611	88.940	0.264	-0.290
-218.596	-200.000	-0.005	-0.144
-217.582	-200.000	0.018	0.287
-216.567	-36.974	0.151	0.080
-215.552	800.000	0.079	0.268
-214.538	316.862	-0.074	-0.139
-213.523	43.787	-0.182	0.165
-212.509	-48.362	-0.087	-0.041
-211.494	-182.756	0.202	-0.004
-210.479	0.199	-0.043	0.031
-209.465	-200.000	0.057	0.465
-208.450	-116.408	0.319	0.058
-207.436	678.894	-0.033	-0.084
-206.421	-112.837	0.273	0.053
-205.406	97.116	0.145	0.164
-204.392	-45.124	0.221	0.109
-203.377	-38.425	-0.161	-0.084
-202.363	38.462	-0.272	0.239
-201.348	-48.541	0.313	0.149
-200.333	-4.785	-0.222	-0.151
-199.319	188.672	-0.169	0.249
-198.304	-200.000	0.045	0.269
-197.290	-200.000	-0.012	-0.063
-196.275	-85.627	0.150	0.046
-195.260	800.000	0.079	0.246
-194.246	-82.507	-0.145	0.046
-193.231	-98.317	0.078	0.020
-192.217	-136.159	-0.216	0.025
-191.202	66.409	0.365	-0.366
-190.187	115.957	-0.167	-0.201
-189.173	100.320	0.076	-0.087
-188.158	237.678	-0.012	0.019
-187.144	-165.600	-0.168	0.007
-186.129	-61.502	0.196	0.081
-185.114	256.353	-0.102	-0.173
-184.100	-69.872	0.169	0.064
-183.085	-80.784	-0.079	-0.026
-182.071	-108.197	0.353	-0.075
-181.056	-99.749	-0.449	0.111
-180.042	-200.000	-0.015	-0.200
-179.027	-200.000	0.010	0.211
-178.012	-157.941	0.271	0.016
-176.998	-146.322	0.198	-0.017
-175.983	-2.467	-0.176	0.122
-174.969	180.336	-0.065	-0.094
-173.954	797.809	0.019	0.053
-172.939	-200.000	0.038	0.182
-171.925	-200.000	-0.008	0.198
-170.910	-55.010	-0.245	-0.109
-169.896	-185.362	0.276	0.004
-168.881	250.752	0.183	0.307
-167.866	-200.000	0.040	-0.368
-166.852	318.792	-0.077	-0.145
-165.837	800.000	0.057	0.185
-164.823	-97.146	0.119	0.031
-163.808	-58.343	-0.211	-0.090
-162.793	-148.081	0.184	-0.015
-161.779	53.991	0.146	-0.139
-160.764	-99.977	0.174	-0.043
-159.750	800.000	0.061	0.234
-158.735	-81.977	0.147	0.047
-157.720	471.499	-0.126	0.280
-156.706	-200.000	-0.031	0.327
-155.691	54.574	-0.163	-0.155
-154.677	42.108	-0.221	-0.198
-153.662	-34.413	0.144	0.078
-152.647	127.051	0.177	0.221
-151.633	800.000	0.078	-0.220
-150.618	529.706	-0.033	-0.076
-149.604	-21.952	-0.186	0.111
-148.589	36.616	-0.040	0.035
-147.574	-49.640	0.111	-0.052
-146.560	-151.093	-0.157	0.012
-145.545	337.544	0.129	0.247
-144.531	78.090	0.220	0.231
-143.516	-151.736	0.629	0.046
-142.502	120.290	-0.244	0.298
-141.487	-170.502	0.301	-0.010
-140.472	-61.198	0.087	-0.036
-139.458	-115.262	0.424	0.079
-138.443	-1.001	0.070	-0.049
-137.429	-28.522	0.337	-0.191
-136.414	-131.358	-0.099	-0.013
-135.399	-200.000	-0.004	0.185
-134.385	-154.460	0.307	-0.020
-133.370	800.000	-0.099	-0.314
-132.356	55.251	-0.328	-0.312
-131.341	-200.000	0.090	-0.507
-130.326	-103.187	-0.363	-0.085
-129.312	-62.123	0.076	0.031
-128.297	-89.034	-0.111	-0.032
-127.283	696.989	-0.027	0.070
-126.268	150.223	0.161	0.216
-125.253	36.112	0.263	0.228
-124.239	280.002	-0.178	-0.312
-123.224	326.642	-0.127	-0.239
-122.210	-191.224	0.186	0.002
-121.195	-126.556	0.393	0.057
-120.180	106.935	0.090	0.105
-119.166	-128.050	-0.017	-0.002
-118.151	-109.802	-0.351	-0.073
-117.137	-146.874	0.181	0.015
-116.122	-136.286	-0.199	-0.023
-115.107	-46.358	-0.032	-0.016
-114.093	-126.750	-0.078	-0.011
-113.078	800.000	0.021	-0.072
-112.064	103.399	0.103	-0.119
-111.049	120.514	0.058	0.071
-110.034	350.415	-0.096	0.186
-109.020	297.801	-0.127	0.229
-108.005	-71.233	0.342	-0.126
-106.991	-200.000	0.020	0.147
-105.976	-200.000	-0.006	0.121
-104.962	-102.023	0.482	-0.114
-103.947	260.407	0.051	0.087
-102.932	800.000	0.040	0.112
-101.918	743.163	-0.111	-0.293
-100.903	-21.749	0.174	0.104
-99.889	139.979	-0.091	-0.118
-98.874	206.639	0.120	0.184
-97.859	-16.647	-0.056	-0.035
-96.845	269.003	0.078	0.134
-95.830	440.453	0.196	0.421
-94.816	-13.726	0.232	0.148
-93.801	800.000	-0.077	-0.281
-92.786	87.408	-0.166	0.181
-91.772	-94.866	-0.130	-0.035
-90.757	184.913	-0.118	0.172
-89.743	-35.613	-0.161	0.086
-88.728	800.000	0.133	-0.439
-87.713	95.467	0.150	-0.168
-86.699	-27.075	-0.108	0.062
-85.684	-118.716	-0.149	0.026
-84.670	-200.000	0.038	0.251
-83.655	800.000	-0.088	0.356
-82.640	-73.690	-0.358	-0.128
-81.626	77.676	-0.068	-0.071
-80.611	800.000	-0.094	0.316
-79.597	189.122	0.062	0.092
-78.582	-39.266	0.201	-0.104
-77.567	-26.067	0.278	0.161
-76.553	1.360	0.018	0.012
-75.538	-132.485	0.079	0.010
-74.524	-100.123	0.112	0.027
-73.509	144.467	0.231	-0.303
-72.494	262.428	-0.093	-0.158
-71.480	-20.366	0.137	-0.083
-70.465	-93.804	-0.105	-0.028
-69.451	-200.000	-0.028	-0.125
-68.436	-200.000	0.006	0.111
-67.422	-200.000	-0.011	0.111
-66.407	13.825	0.191	-0.146
-65.392	186.918	0.107	0.157
-64.378	-41.265	0.388	0.197
-63.363	-70.908	0.442	-0.164
-62.349	-200.000	-0.053	-0.419
-61.334	189.788	-1.043	-1.537
-60.319	63.582	0.757	0.747
-59.305	800.000	-0.244	-0.875
-58.290	603.920	0.475	1.161
-57.276	800.000	0.460	1.414
-56.261	-200.000	101.208	606.084
-55.246	585.768	1412.149	3408.991
-54.232	191.117	2602.835	3844.979
-53.217	111.348	2273.457	2690.392
-52.203	40.554	1894.440	1675.361
-51.188	34.274	1683.919	1441.772
-50.173	31.678	1640.241	1385.152
-49.159	49.764	1689.543	1562.921
-48.144	51.411	1706.127	1590.556
-47.130	33.961	1665.522	1423.450
-46.115	31.295	1651.134	1391.278
-45.100	31.073	1646.348	1385.541
-44.086	31.054	1643.779	1383.180
-43.071	31.013	1641.094	1380.559
-42.057	30.980	1638.875	1378.394
-41.042	31.071	1637.103	1377.527
-40.027	31.090	1634.335	1375.280
-39.013	30.910	1633.526	1373.221
-37.998	30.929	1631.509	1371.611
-36.984	30.979	1630.377	1370.967
-35.969	31.080	1628.901	1370.416
-34.954	31.120	1627.061	1369.105
-33.940	31.077	1625.546	1367.466
-32.925	31.055	1624.060	1365.995
-31.911	31.131	1621.691	1364.509
-30.896	31.117	1620.203	1363.099
-29.881	31.214	1618.366	1362.203
-28.867	31.136	1616.738	1360.215
-27.852	31.182	1615.091	1359.106
-26.838	31.150	1614.093	1357.980
-25.823	31.171	1612.894	1357.072
-24.809	31.175	1611.185	1355.613
-23.794	31.164	1609.966	1354.452
-22.779	31.168	1608.664	1353.327
-21.765	31.191	1606.407	1351.543
-20.750	31.102	1605.773	1350.317
-19.736	31.204	1603.788	1349.326
-18.721	31.122	1602.233	1347.372
-17.706	31.076	1601.255	1346.168
-16.692	31.146	1599.214	1344.899
-15.677	31.116	1597.880	1343.513
-14.663	31.168	1597.070	1343.151
-13.648	31.182	1595.580	1341.946
-12.633	31.214	1593.691	1340.532
-11.619	31.042	1592.443	1338.193
-10.604	31.147	1590.784	1337.499
-9.590	31.237	1589.463	1336.984
-8.575	31.205	1588.007	1335.475
-7.560	31.262	1586.926	1334.920
-6.546	31.225	1585.719	1333.588
-5.531	31.109	1585.737	1332.724
-4.517	31.123	1584.012	1331.316
-3.502	31.040	1583.286	1330.060
-2.487	31.203	1581.123	1329.357
-1.473	30.959	1569.456	1317.767
-0.458	28.104	1550.486	1281.808
0.556	23.913	1551.438	1251.087
1.571	21.505	1574.491	1252.349
2.586	21.111	1587.104	1259.426
3.600	18.706	1533.767	1200.203
4.615	11.478	1427.297	1069.596
5.629	5.548	1366.518	986.668
6.644	4.671	1359.342	975.904
7.659	4.544	1357.715	973.853
8.673	4.523	1356.941	973.081
9.688	4.591	1354.868	971.933
10.702	4.438	1352.004	968.834
11.717	7.196	1357.013	989.593
12.731	14.211	1369.963	1043.055
13.746	18.724	1377.136	1076.795
14.761	18.766	1375.916	1076.009
15.775	17.742	1372.980	1067.210
16.790	16.636	1370.105	1057.972
17.804	15.811	1368.164	1051.229
18.819	15.552	1366.427	1048.185
19.834	15.259	1364.978	1045.158
20.848	15.107	1364.161	1043.487
21.863	14.795	1363.223	1040.735
22.877	14.631	1361.878	1038.599
23.892	14.582	1360.915	1037.463
24.907	14.632	1360.163	1037.109
25.921	14.633	1359.137	1036.246
26.936	14.660	1358.523	1035.853
27.950	14.672	1357.344	1034.936
28.965	14.877	1355.760	1034.906
29.980	14.939	1354.950	1034.582
30.994	14.822	1354.120	1033.132
32.009	14.952	1352.671	1032.733
33.023	14.922	1351.912	1031.883
34.038	14.886	1350.270	1030.316
35.053	14.743	1349.084	1028.434
36.067	14.793	1347.850	1027.711
37.082	14.784	1347.329	1027.170
38.096	14.914	1346.221	1027.032
39.111	14.859	1345.353	1025.939
40.126	14.849	1344.138	1024.860
41.140	14.645	1343.750	1023.227
42.155	14.556	1342.831	1021.891
43.169	14.523	1342.342	1021.225
44.184	14.503	1342.501	1021.136
45.199	14.621	1342.238	1021.565
46.213	14.725	1341.498	1021.550
47.228	14.703	1340.552	1020.602
48.242	14.689	1339.600	1019.702
49.257	14.617	1337.975	1017.939
50.271	14.687	1336.621	1017.244
51.286	14.652	1335.517	1016.100
52.301	14.777	1333.605	1015.317
53.315	14.674	1332.627	1013.852
54.330	14.614	1331.636	1012.649
55.344	14.685	1330.106	1011.824
56.359	14.649	1329.307	1010.912
57.374	14.544	1328.798	1009.794
58.388	14.582	1328.080	1009.393
59.403	14.444	1327.684	1008.165
60.417	14.504	1326.879	1007.829
61.432	14.494	1325.797	1006.856
62.447	14.450	1324.811	1005.754
63.461	14.356	1323.798	1004.328
64.476	14.442	1322.939	1004.105
65.490	14.483	1321.283	1003.006
66.505	14.434	1319.666	1001.398
67.520	14.499	1318.347	1000.696
68.534	14.457	1317.439	999.668
69.549	14.515	1315.969	998.814
70.563	14.431	1315.736	998.043
71.578	14.432	1314.359	996.917
72.593	14.364	1313.301	995.620
73.607	14.265	1313.059	994.755
74.622	14.417	1311.687	994.538
75.636	14.343	1311.095	993.560
76.651	14.291	1311.012	993.099
77.666	14.366	1310.453	993.032
78.680	14.272	1309.700	991.813
79.695	14.381	1308.957	991.810
80.709	14.505	1308.097	991.808
81.724	14.453	1307.481	990.949
82.739	14.483	1306.771	990.500
83.753	14.677	1305.611	990.683
84.768	14.743	1304.833	990.399
85.782	14.822	1303.635	989.869
86.797	14.776	1301.988	988.258
87.812	14.652	1300.827	986.558
88.826	14.725	1299.818	986.133
89.841	14.657	1299.245	985.214
90.855	14.818	1298.099	985.207
91.870	14.880	1297.106	984.729
92.884	14.712	1296.832	983.442
93.899	14.922	1295.416	983.517
94.914	14.921	1294.799	982.959
95.928	14.878	1294.196	982.162
96.943	14.854	1292.967	980.997
97.957	14.778	1292.140	979.842
98.972	14.773	1291.431	979.187
99.987	14.821	1289.977	978.278
101.001	14.765	1289.359	977.397
102.016	14.819	1287.938	976.545
103.030	14.821	1287.285	975.977
104.045	14.756	1286.604	974.996
105.060	14.780	1285.129	973.929
106.074	14.572	1283.861	971.675
107.089	14.517	1282.130	969.958
108.103	14.526	1280.824	968.934
109.118	14.473	1279.658	967.661
110.133	14.450	1278.563	966.615
111.147	14.559	1276.941	965.931
112.162	14.481	1275.924	964.629
113.176	14.572	1274.937	964.321
114.191	14.750	1273.482	964.164
115.206	14.585	1272.777	962.591
116.220	14.504	1271.765	961.272
117.235	14.511	1270.497	960.271
118.249	14.581	1269.154	959.575
119.264	14.537	1268.290	958.583
120.279	14.513	1267.246	957.569
121.293	14.553	1265.971	956.753
122.308	14.464	1265.444	955.761
123.322	14.362	1264.193	954.147
124.337	14.442	1263.319	953.860
125.352	14.476	1261.787	952.814
126.366	14.365	1260.924	951.442
127.381	14.424	1259.802	950.849
128.395	14.532	1259.028	950.795
129.410	14.553	1257.669	949.804
130.424	14.493	1257.354	949.139
131.439	14.532	1256.249	948.443
132.454	14.565	1255.042	947.638
133.468	14.541	1254.577	947.066
134.483	14.597	1253.658	946.609
135.497	14.615	1252.752	945.943
136.512	14.575	1251.682	944.822
137.527	14.685	1249.450	943.673
138.541	14.589	1248.522	942.348
139.556	14.778	1247.100	942.258
140.570	14.720	1246.632	941.498
141.585	14.797	1245.365	940.888
142.600	14.806	1244.440	940.154
143.614	14.932	1243.592	940.143
144.629	14.888	1242.552	939.028
145.643	14.856	1241.150	937.702
146.658	14.774	1239.899	936.214
147.673	14.728	1238.125	934.534
148.687	14.663	1237.653	933.735
149.702	14.668	1236.042	932.462
150.716	14.660	1234.715	931.334
151.731	14.686	1233.433	930.429
152.746	14.759	1232.242	929.854
153.760	14.835	1231.082	929.318
154.775	14.752	1230.342	928.219
155.789	14.817	1229.501	927.864
156.804	14.881	1228.352	927.271
157.819	14.912	1227.224	926.507
158.833	14.910	1226.208	925.648
159.848	15.002	1225.577	925.596
160.862	15.003	1224.547	924.744
161.877	14.957	1223.231	923.415
162.892	14.911	1221.942	922.104
163.906	14.804	1221.314	920.959
164.921	14.870	1220.247	920.437
165.935	14.930	1219.582	920.183
166.950	14.912	1218.861	919.461
167.964	14.833	1218.212	918.456
168.979	14.913	1217.541	918.309
169.994	14.848	1217.330	917.709
171.008	14.912	1216.349	917.241
172.023	14.981	1215.079	916.583
173.037	15.097	1214.585	916.759
174.052	14.984	1213.623	915.336
175.067	14.915	1212.478	914.013
176.081	14.885	1211.484	913.019
177.096	14.867	1210.416	912.038
178.110	14.914	1209.361	911.418
179.125	14.972	1208.278	910.837
180.140	14.949	1207.426	909.987
181.154	15.048	1206.039	909.401
182.169	15.069	1204.621	908.365
183.183	15.053	1203.528	907.371
184.198	15.114	1202.755	907.043
185.213	15.123	1201.541	906.095
186.227	15.086	1200.451	904.990
187.242	15.158	1199.424	904.523
188.256	15.367	1198.028	904.520
189.271	15.244	1197.615	903.468
190.286	15.028	1196.626	901.476
191.300	14.898	1195.652	899.964
192.315	14.860	1194.844	899.069
193.329	14.905	1194.333	898.849
194.344	14.886	1194.032	898.438
195.359	14.990	1193.430	898.464
196.373	15.118	1192.659	898.495
197.388	15.252	1192.245	898.819
198.402	15.232	1192.032	898.471
199.417	15.384	1191.226	898.599
200.432	15.463	1189.910	897.948
201.446	15.551	1189.071	897.710
202.461	15.495	1188.386	896.813
203.475	15.446	1187.432	895.751
204.490	15.509	1185.823	894.792
205.504	15.456	1184.588	893.501
206.519	15.307	1183.800	892.033
207.534	15.276	1182.699	890.962
208.548	15.426	1181.756	890.971
209.563	15.325	1180.980	889.770
210.577	15.359	1180.105	889.212
211.592	15.427	1179.486	889.025
212.607	15.568	1178.458	888.917
213.621	15.674	1177.163	888.425
214.636	15.539	1176.554	887.172
215.650	15.539	1175.798	886.524
216.665	15.581	1174.857	885.960
217.680	15.651	1174.265	885.800
218.694	15.658	1173.463	885.157
219.709	15.636	1172.438	884.187
220.723	15.620	1171.716	883.480
221.738	15.555	1171.184	882.660
222.753	15.630	1170.593	882.534
223.767	15.617	1169.575	881.618
224.782	15.753	1169.129	881.917
225.796	15.761	1168.483	881.394
226.811	15.776	1167.482	880.639
227.826	15.722	1166.768	879.738
228.840	15.701	1165.827	878.840
229.855	15.623	1165.259	877.930
230.869	15.749	1164.435	877.889
231.884	15.598	1163.769	876.518
232.899	15.535	1163.006	875.538
233.913	15.695	1162.309	875.769
234.928	15.731	1161.312	875.132
235.942	15.533	1161.239	873.970
236.957	15.529	1159.936	872.888
237.972	15.702	1159.270	873.207
238.986	15.524	1158.959	871.971
240.001	15.627	1157.845	871.590
241.015	15.656	1157.142	871.134
242.030	15.690	1156.067	870.422
243.045	15.813	1155.219	870.344
244.059	15.789	1154.975	869.962
245.074	15.792	1154.168	869.292
246.088	15.854	1153.491	869.025
247.103	15.918	1152.309	868.389
248.117	15.934	1151.751	867.975
249.132	16.026	1151.344	868.064
250.147	16.085	1150.876	867.938
251.161	16.304	1149.571	868.001
252.176	16.197	1149.367	867.221
253.190	16.220	1148.583	866.669
254.205	16.304	1148.058	866.632
255.220	16.338	1147.320	866.169
256.234	16.411	1146.433	865.796
257.249	16.423	1145.737	865.257
258.263	16.295	1145.295	864.193
259.278	16.355	1144.606	863.903
260.293	16.450	1144.072	863.910
261.307	16.446	1143.233	863.179
262.322	16.435	1142.639	862.600
263.336	16.433	1142.347	862.288
264.351	16.380	1141.587	861.370
265.366	16.506	1140.687	861.255
266.380	16.495	1139.971	860.582
267.395	16.502	1139.053	859.851
268.409	16.300	1138.398	858.252
269.424	16.378	1137.812	858.131
270.439	16.499	1136.877	857.966
271.453	16.414	1136.135	856.897
272.468	16.365	1135.153	855.831
273.482	16.447	1134.726	855.851
274.497	16.466	1134.445	855.661
275.512	16.466	1133.725	855.041
276.526	16.309	1132.988	853.613
277.541	16.376	1131.939	853.086
278.555	16.416	1131.383	852.797
279.570	16.626	1130.824	853.356
280.585	16.681	1129.752	852.748
281.599	16.608	1128.972	851.719
282.614	16.696	1127.425	850.919
283.628	16.599	1126.651	849.773
284.643	16.519	1125.716	848.591
285.657	16.641	1124.925	848.529
286.672	16.524	1124.276	847.377
287.687	16.533	1123.265	846.585
288.701	16.647	1122.667	846.633
289.716	16.609	1121.929	845.808
290.730	16.702	1121.188	845.640
291.745	16.702	1120.403	844.972
292.760	16.729	1120.270	844.935
293.774	16.758	1119.200	844.198
294.789	16.764	1119.246	844.187
295.803	16.803	1118.504	843.748
296.818	16.683	1117.647	842.429
297.833	16.742	1116.595	841.852
298.847	16.865	1115.663	841.686
299.862	16.890	1114.909	841.169
300.876	16.839	1114.843	840.793
301.891	16.815	1113.840	839.842
302.906	16.907	1113.264	839.790
303.920	16.877	1112.731	839.163
304.935	16.937	1112.138	838.941
305.949	17.207	1110.781	839.174
306.964	17.102	1110.569	838.421
307.979	16.896	1110.292	837.122
308.993	16.958	1109.051	836.419
310.008	17.114	1108.156	836.437
311.022	17.089	1107.306	835.599
312.037	17.181	1106.756	835.563
313.052	17.014	1105.812	833.954
314.066	16.962	1104.860	832.906
315.081	17.019	1103.707	832.247
316.095	16.906	1103.518	831.474
317.110	16.889	1102.614	830.635
318.125	16.854	1102.183	830.064
319.139	16.925	1101.296	829.671
320.154	17.011	1100.181	829.178
321.168	17.034	1099.895	829.005
322.183	16.949	1099.568	828.268
323.197	16.926	1098.834	827.530
324.212	17.090	1098.154	827.743
325.227	17.102	1097.595	827.307
326.241	17.140	1096.615	826.683
327.256	17.110	1095.907	825.928
328.270	17.114	1094.793	825.033
329.285	17.014	1094.560	824.300
330.300	17.056	1093.142	823.362
331.314	17.086	1092.347	822.837
332.329	17.101	1091.639	822.306
333.343	17.046	1090.943	821.439
334.358	17.161	1090.059	821.259
335.373	17.256	1089.251	821.036
336.387	17.221	1088.713	820.390
337.402	17.223	1087.782	819.622
338.416	17.403	1086.939	819.784
339.431	17.267	1086.883	819.013
340.446	17.395	1085.961	818.864
341.460	17.610	1084.919	819.036
342.475	17.636	1084.275	818.603
343.489	17.554	1083.615	817.639
344.504	17.626	1082.657	817.188
345.519	17.636	1081.994	816.666
346.533	17.511	1081.194	815.392
347.548	17.633	1080.560	815.423
348.562	17.721	1079.784	815.186
349.577	17.592	1079.171	814.036
350.592	17.498	1077.884	812.543
351.606	17.525	1077.293	812.158
352.621	17.358	1076.446	810.651
353.635	17.422	1076.062	810.593
354.650	17.459	1075.494	810.272
355.665	17.573	1074.408	809.923
356.679	17.521	1073.934	809.247
357.694	17.567	1073.832	809.318
358.708	17.539	1073.003	808.487
359.723	17.725	1072.104	808.619
360.738	17.668	1071.583	807.885
361.752	17.614	1071.371	807.397
362.767	17.683	1070.252	806.811
363.781	17.605	1070.136	806.281
364.796	17.667	1069.651	806.138
365.810	17.837	1068.958	806.347
366.825	17.843	1068.194	805.729
367.840	17.967	1067.777	805.930
368.854	18.053	1067.015	805.686
369.869	17.913	1066.302	804.417
370.883	17.861	1065.409	803.430
371.898	17.798	1064.847	802.636
372.913	17.814	1064.196	802.153
373.927	17.989	1063.507	802.382
374.942	17.947	1063.213	801.893
375.956	17.970	1062.680	801.526
376.971	17.962	1061.852	800.796
377.986	17.881	1061.571	800.130
379.000	18.053	1061.101	800.513
380.015	18.154	1060.365	800.360
381.029	18.174	1059.990	800.098
382.044	18.173	1059.019	799.292
383.059	18.254	1057.993	798.826
384.073	18.183	1057.533	798.074
385.088	18.172	1056.502	797.175
386.102	18.291	1055.585	796.969
387.117	18.219	1054.730	795.917
388.132	18.069	1053.913	794.532
389.146	18.008	1053.357	793.760
390.161	18.024	1052.187	792.879
391.175	18.063	1051.661	792.598
392.190	18.109	1050.999	792.239
393.205	18.193	1050.610	792.265
394.219	18.284	1049.465	791.752
395.234	18.290	1048.211	790.765
396.248	18.243	1047.075	789.622
397.263	18.209	1046.493	788.954
398.278	18.292	1045.792	788.739
399.292	18.159	1045.036	787.486
400.307	18.080	1044.524	786.668
401.321	18.068	1043.988	786.139
402.336	18.166	1043.098	785.849
403.350	18.180	1042.050	785.056
404.365	18.213	1041.534	784.746
405.380	18.259	1040.764	784.308
406.394	18.177	1040.476	783.647
407.409	18.358	1039.636	783.775
408.423	18.290	1039.633	783.390
409.438	18.477	1038.196	783.092
410.453	18.565	1037.816	783.137
411.467	18.507	1037.203	782.344
412.482	18.657	1036.063	782.095
413.496	18.542	1035.339	780.956
414.511	18.582	1035.215	780.978
415.526	18.705	1034.647	781.040
416.540	18.691	1034.053	780.459
417.555	18.648	1033.616	779.865
418.569	18.582	1033.491	779.400
419.584	18.646	1032.801	779.102
420.599	18.686	1032.317	778.851
421.613	151.064	1401.798	1797.722
422.628	137.877	1455.627	1797.836
