DTS Sentinel unit serial number:	SN413079Multiplexer serial number:	ORYXHardware model number:	OX4-SRSoftware version number:	ORYX F/W v4.00 Oryx Data Collector v3.7.2.0data status	okinstallation	princeton_trtdifferential loss correction	single-endedforward channel	channel 2reverse channel	N/Adate	2019/09/12time	05:25:11forward acquisition time	60.00reverse acquisition time	0.00gamma	496.2192k internal	0.2325k external	0.2325temperature offset calibration	1.0068default loss term (dB/km)	0.3790temperature slope calibration	1.0000multiplexer offset coefficient	1.0000multiplexer slope coefficient	1.0000fibre end	0.00T internal ref (°C)	31.89T ext. ref 1 (°C)	1.62T ext. ref 2 (°C)	27.33length (m)	temperature (°C)	Stokes	anti-Stokes-747.200	189.779	-0.148	0.224
-746.185	800.000	-0.043	0.147
-745.171	-108.771	0.160	-0.034
-744.156	51.822	-0.065	-0.062
-743.142	-2.544	0.151	0.107
-742.127	-94.625	-0.093	0.025
-741.112	-30.665	0.121	0.069
-740.098	117.746	-0.196	0.244
-739.083	126.097	0.146	0.187
-738.069	-68.874	-0.067	0.026
-737.054	-101.583	0.365	-0.089
-736.039	-136.232	-0.430	-0.051
-735.025	-81.717	0.287	0.095
-734.010	246.332	-0.118	-0.201
-732.996	-200.000	-0.031	-0.311
-731.981	527.142	-0.059	-0.141
-730.966	-193.716	0.180	0.002
-729.952	86.014	0.280	-0.311
-728.937	122.132	-0.162	-0.204
-727.923	165.343	0.217	-0.309
-726.908	-124.370	0.175	0.027
-725.894	79.879	-0.085	-0.092
-724.879	-200.000	-0.050	-0.375
-723.864	1.275	0.203	-0.147
-722.850	-200.000	-0.030	-0.213
-721.835	109.978	-0.209	0.253
-720.821	800.000	-0.093	-0.314
-719.806	800.000	0.055	-0.236
-718.791	-200.000	-0.031	0.242
-717.777	264.758	0.075	-0.132
-716.762	-70.002	0.172	-0.066
-715.748	-200.000	-0.015	-0.215
-714.733	-120.511	0.179	-0.031
-713.718	-126.962	-0.341	-0.051
-712.704	-118.056	0.068	-0.012
-711.689	-200.000	0.028	-0.151
-710.675	-200.000	0.005	0.472
-709.660	-200.000	-0.023	0.123
-708.645	-200.000	-0.001	0.037
-707.631	-102.955	0.284	-0.068
-706.616	-119.911	-0.435	-0.075
-705.602	800.000	0.062	-0.250
-704.587	-113.903	-0.134	0.026
-703.572	109.979	-0.151	-0.183
-702.558	-94.406	0.116	0.032
-701.543	-127.408	-0.173	0.025
-700.529	147.695	0.082	0.111
-699.514	679.267	0.090	0.236
-698.499	90.854	0.262	0.295
-697.485	-26.937	-0.119	-0.070
-696.470	44.884	0.265	0.245
-695.456	-31.488	-0.138	-0.078
-694.441	352.789	0.083	-0.166
-693.426	-51.461	0.212	-0.100
-692.412	296.928	0.045	0.082
-691.397	55.795	-0.322	0.315
-690.383	-200.000	-0.019	-0.311
-689.368	-24.551	-0.265	0.159
-688.354	-81.046	-0.131	0.044
-687.339	-200.000	-0.025	0.220
-686.324	50.368	-0.146	-0.139
-685.310	368.967	-0.123	-0.251
-684.295	-93.330	0.348	-0.097
-683.281	-200.000	-0.128	-0.001
-682.266	475.965	-0.152	0.345
-681.251	-27.533	0.148	0.087
-680.237	-200.000	0.003	0.164
-679.222	16.891	-0.133	-0.106
-678.208	35.831	-0.097	0.086
-677.193	800.000	-0.022	0.092
-676.178	-200.000	-0.027	0.123
-675.164	-91.493	-0.137	-0.039
-674.149	97.563	-0.176	-0.203
-673.135	181.275	0.134	0.199
-672.120	-101.283	0.201	-0.049
-671.105	102.187	-0.100	-0.117
-670.091	-128.441	0.118	0.017
-669.076	-23.769	-0.316	0.190
-668.062	-141.493	-0.142	-0.014
-667.047	-32.804	0.142	0.080
-666.032	-121.418	0.215	-0.036
-665.018	64.147	-0.147	0.149
-664.003	39.583	0.166	-0.150
-662.989	-200.000	0.016	-0.209
-661.974	-42.530	0.294	-0.151
-660.959	-159.683	0.324	0.018
-659.945	-12.380	-0.186	0.122
-658.930	-100.462	-0.221	0.055
-657.916	556.728	0.104	0.253
-656.901	217.057	0.223	0.356
-655.886	-200.000	-0.014	0.150
-654.872	-200.000	-0.046	0.295
-653.857	-122.791	0.130	0.021
-652.843	-122.585	-0.175	0.029
-651.828	41.392	0.181	0.164
-650.814	800.000	-0.060	-0.223
-649.799	800.000	0.098	-0.306
-648.784	-200.000	0.024	0.155
-647.770	800.000	0.027	-0.108
-646.755	28.285	0.244	0.207
-645.741	-154.488	-0.179	0.012
-644.726	-114.974	-0.186	-0.036
-643.711	480.860	-0.047	-0.107
-642.697	-200.000	-0.054	-0.395
-641.682	-196.810	-0.547	0.004
-640.668	800.000	-0.117	-0.343
-639.653	-111.040	0.353	-0.073
-638.638	104.385	-0.146	0.173
-637.624	5.027	-0.293	0.217
-636.609	52.796	-0.101	0.097
-635.595	13.594	-0.198	0.154
-634.580	-121.552	-0.093	0.015
-633.565	-27.455	-0.265	-0.155
-632.551	14.169	0.241	0.188
-631.536	91.634	0.160	-0.181
-630.522	-31.625	-0.122	-0.069
-629.507	-200.000	-0.036	-0.253
-628.492	35.977	0.274	-0.242
-627.478	106.160	-0.153	-0.182
-626.463	-200.000	0.000	-0.337
-625.449	0.493	-0.084	0.060
-624.434	-142.667	0.059	0.006
-623.419	-55.966	0.185	0.083
-622.405	419.860	0.070	-0.150
-621.390	-162.590	-0.146	-0.007
-620.376	51.685	-0.031	-0.029
-619.361	14.150	0.197	-0.154
-618.346	474.187	-0.139	0.316
-617.332	-100.701	0.045	0.011
-616.317	-25.149	-0.159	-0.095
-615.303	179.779	0.127	0.187
-614.288	32.645	-0.173	0.150
-613.273	376.151	0.163	-0.335
-612.259	274.199	-0.041	-0.072
-611.244	698.022	-0.129	0.341
-610.230	-200.000	0.001	0.054
-609.215	-62.313	0.339	0.142
-608.201	-200.000	0.001	-0.211
-607.186	5.287	0.280	-0.207
-606.171	-154.933	-0.051	-0.003
-605.157	364.142	-0.117	0.236
-604.142	-44.195	-0.117	-0.059
-603.128	-58.739	-0.194	-0.084
-602.113	800.000	-0.072	-0.242
-601.098	-79.562	-0.149	-0.050
-600.084	301.879	0.100	-0.186
-599.069	-155.801	-0.059	-0.004
-598.055	665.488	0.074	0.192
-597.040	800.000	0.052	-0.174
-596.025	17.313	0.197	0.157
-595.011	106.446	-0.065	0.077
-593.996	330.578	0.178	0.344
-592.982	123.032	-0.131	0.164
-591.967	0.839	-0.344	0.247
-590.952	-33.570	-0.214	0.118
-589.938	-200.000	-0.010	0.311
-588.923	13.702	0.254	0.198
-587.909	118.734	-0.084	0.104
-586.894	800.000	-0.043	-0.148
-585.879	-148.451	-0.201	0.016
-584.865	-150.392	-0.354	0.027
-583.850	25.931	0.249	0.208
-582.836	-200.000	-0.042	0.294
-581.821	-165.531	0.199	-0.009
-580.806	-93.631	-0.415	-0.115
-579.792	133.543	-0.041	-0.053
-578.777	-200.000	-0.021	0.197
-577.763	-144.923	0.350	0.032
-576.748	754.197	-0.089	-0.240
-575.733	-127.953	0.088	0.013
-574.719	454.418	0.041	0.091
-573.704	210.379	-0.106	-0.166
-572.690	800.000	-0.031	-0.113
-571.675	-42.408	-0.187	-0.095
-570.661	243.524	0.061	0.102
-569.646	734.470	-0.086	-0.231
-568.631	146.012	0.114	0.153
-567.617	-72.745	0.138	-0.051
-566.602	195.776	-0.147	0.225
-565.588	5.104	0.153	-0.113
-564.573	792.946	-0.046	0.127
-563.558	-73.045	0.106	0.039
-562.544	480.235	-0.096	0.217
-561.529	-183.934	-0.086	-0.001
-560.515	800.000	0.047	-0.202
-559.500	283.964	-0.165	0.297
-558.485	602.406	0.067	-0.168
-557.471	104.815	-0.233	-0.275
-556.456	-18.676	0.074	-0.046
-555.442	171.364	-0.018	-0.025
-554.427	0.941	0.280	0.201
-553.412	-153.340	-0.403	-0.028
-552.398	10.052	-0.029	0.022
-551.383	-66.295	-0.241	0.096
-550.369	-56.038	0.239	0.107
-549.354	800.000	-0.019	0.080
-548.339	69.635	0.318	0.328
-547.325	-80.123	-0.092	-0.031
-546.310	646.673	-0.096	0.244
-545.296	-200.000	0.002	-0.381
-544.281	-28.839	0.106	0.061
-543.266	-132.539	0.222	-0.029
-542.252	800.000	0.068	-0.232
-541.237	-106.964	0.100	0.022
-540.223	-136.183	0.564	0.066
-539.208	-200.000	-0.018	-0.122
-538.193	-40.676	-0.117	-0.061
-537.179	40.742	0.078	-0.070
-536.164	-130.000	0.106	-0.014
-535.150	-179.371	0.213	-0.005
-534.135	-200.000	0.016	0.330
-533.121	214.344	0.156	-0.247
-532.106	-200.000	0.059	-0.426
-531.091	-13.664	-0.161	0.104
-530.077	-68.665	-0.100	0.039
-529.062	-200.000	-0.019	-0.125
-528.048	287.346	0.006	0.011
-527.033	43.993	-0.173	0.159
-526.018	-200.000	-0.082	0.468
-525.004	24.062	-0.387	-0.320
-523.989	-117.172	-0.161	-0.029
-522.975	-146.531	0.289	-0.025
-521.960	229.984	-0.208	-0.340
-520.945	-91.486	0.039	-0.011
-519.931	-106.533	0.024	-0.005
-518.916	-200.000	-0.035	0.165
-517.902	167.582	-0.031	0.044
-516.887	800.000	0.042	0.178
-515.872	-107.043	0.393	0.087
-514.858	800.000	-0.057	0.208
-513.843	341.968	0.073	0.142
-512.829	177.394	0.172	0.251
-511.814	800.000	0.047	-0.191
-510.799	279.275	0.045	0.080
-509.785	136.899	-0.143	0.187
-508.770	800.000	-0.081	0.277
-507.756	-200.000	0.027	-0.240
-506.741	43.202	0.104	-0.095
-505.726	-54.365	-0.505	-0.229
-504.712	800.000	0.053	-0.196
-503.697	132.789	-0.040	0.052
-502.683	-108.390	0.329	-0.071
-501.668	-200.000	0.042	-0.465
-500.653	-99.348	0.075	0.019
-499.639	257.011	-0.156	0.267
-498.624	-135.014	-0.105	-0.013
-497.610	56.524	0.128	0.124
-496.595	106.083	0.052	-0.062
-495.581	-42.557	-0.298	0.152
-494.566	148.122	0.107	0.144
-493.551	549.282	0.074	-0.177
-492.537	-200.000	-0.046	-0.223
-491.522	61.005	0.194	-0.192
-490.508	-200.000	0.012	0.088
-489.493	-58.828	0.200	-0.086
-488.478	147.570	-0.051	-0.068
-487.464	-200.000	0.039	0.372
-486.449	-144.038	-0.244	0.023
-485.435	164.889	-0.183	-0.259
-484.420	-62.920	0.161	-0.066
-483.405	211.296	0.146	0.229
-482.391	-200.000	0.014	0.403
-481.376	202.730	-0.071	-0.110
-480.362	156.178	0.132	-0.181
-479.347	37.312	-0.094	0.083
-478.332	19.310	0.167	-0.134
-477.318	-200.000	-0.013	-0.202
-476.303	713.611	-0.081	-0.213
-475.289	800.000	-0.061	-0.232
-474.274	729.776	0.175	0.466
-473.259	800.000	0.155	0.460
-472.245	-21.724	0.140	-0.085
-471.230	310.045	0.063	0.117
-470.216	20.498	-0.177	-0.143
-469.201	-142.108	-0.182	0.018
-468.186	-114.395	-0.426	-0.082
-467.172	48.397	0.193	0.181
-466.157	-186.432	0.277	-0.004
-465.143	800.000	-0.104	0.297
-464.128	-57.151	-0.211	-0.093
-463.113	132.562	-0.195	-0.251
-462.099	-134.507	-0.198	0.024
-461.084	-71.699	-0.324	0.121
-460.070	-200.000	0.060	0.438
-459.055	88.113	0.045	0.050
-458.040	-121.993	0.231	0.038
-457.026	17.750	-0.148	-0.118
-456.011	140.860	-0.021	-0.027
-454.997	800.000	0.103	-0.315
-453.982	273.936	-0.101	-0.177
-452.968	-200.000	0.010	-0.406
-451.953	175.854	0.221	-0.319
-450.938	800.000	-0.077	0.264
-449.924	-200.000	-0.006	0.029
-448.909	-81.254	0.166	-0.055
-447.895	-83.179	-0.138	0.044
-446.880	96.685	-0.292	-0.333
-445.865	-54.106	0.168	-0.076
-444.851	260.463	-0.046	0.080
-443.836	55.434	0.224	0.216
-442.822	-9.295	-0.220	0.147
-441.807	-99.002	0.258	0.065
-440.792	92.521	0.257	-0.289
-439.778	344.158	0.125	0.245
-438.763	-165.073	-0.119	0.005
-437.749	800.000	-0.098	-0.341
-436.734	0.810	0.077	0.055
-435.719	-154.481	0.224	-0.015
-434.705	-21.803	-0.251	0.152
-433.690	800.000	-0.075	-0.213
-432.676	-11.414	0.178	-0.116
-431.661	-84.443	-0.207	-0.065
-430.646	-200.000	0.032	0.415
-429.632	30.327	0.044	-0.037
-428.617	-131.819	0.158	-0.021
-427.603	567.612	0.109	-0.263
-426.588	800.000	-0.071	-0.199
-425.573	-153.799	-0.046	0.003
-424.559	-51.141	0.129	-0.060
-423.544	-200.000	0.050	0.292
-422.530	52.475	0.173	-0.165
-421.515	-148.793	0.453	-0.037
-420.500	800.000	0.084	0.264
-419.486	-67.419	-0.223	-0.087
-418.471	-200.000	-0.004	-0.238
-417.457	-200.000	0.046	-0.450
-416.442	-200.000	-0.023	0.106
-415.428	-72.146	0.006	-0.002
-414.413	296.336	-0.041	-0.075
-413.398	800.000	-0.031	-0.135
-412.384	163.067	-0.218	0.305
-411.369	-177.682	-0.149	0.004
-410.355	800.000	0.109	-0.361
-409.340	104.790	0.170	-0.200
-408.325	800.000	0.024	0.069
-407.311	-200.000	-0.025	-0.150
-406.296	3.807	0.268	-0.195
-405.282	-200.000	-0.008	0.058
-404.267	90.066	0.259	0.288
-403.252	-9.814	-0.154	-0.102
-402.238	-108.214	-0.229	-0.049
-401.223	131.578	0.031	0.040
-400.209	62.719	0.067	-0.067
-399.194	-146.712	0.391	0.034
-398.179	224.379	-0.116	0.187
-397.165	-200.000	-0.009	-0.066
-396.150	-44.245	-0.210	0.105
-395.136	-15.623	0.071	-0.045
-394.121	-43.546	0.302	-0.152
-393.106	-80.778	-0.326	-0.108
-392.092	61.786	0.084	-0.083
-391.077	-200.000	-0.068	0.000
-390.063	208.804	0.041	0.065
-389.048	-200.000	0.007	-0.148
-388.033	-102.461	-0.172	0.041
-387.019	-200.000	0.015	-0.161
-386.004	24.403	-0.105	0.087
-384.990	-133.395	-0.238	0.030
-383.975	213.293	0.074	0.117
-382.960	470.553	0.096	0.215
-381.946	-200.000	-0.007	0.149
-380.931	86.361	0.066	-0.072
-379.917	-121.176	0.249	-0.041
-378.902	36.465	-0.194	0.170
-377.888	-96.737	-0.204	0.053
-376.873	37.497	0.146	0.128
-375.858	-74.796	0.120	0.043
-374.844	-37.281	0.180	-0.095
-373.829	-94.342	0.029	-0.008
-372.815	-106.899	-0.097	-0.021
-371.800	-97.956	-0.363	-0.093
-370.785	-114.282	-0.089	0.017
-369.771	-49.258	-0.163	-0.078
-368.756	-95.775	0.250	-0.066
-367.742	800.000	0.071	-0.281
-366.727	589.120	-0.057	0.139
-365.712	-98.101	-0.354	-0.091
-364.698	800.000	0.026	0.083
-363.683	-64.884	-0.031	0.013
-362.669	321.620	-0.125	0.237
-361.654	132.024	0.142	-0.182
-360.639	168.329	-0.218	0.309
-359.625	-67.033	0.137	-0.054
-358.610	-97.692	-0.163	-0.042
-357.596	401.663	-0.127	-0.264
-356.581	-33.308	-0.150	-0.083
-355.566	-200.000	0.002	0.177
-354.552	-63.264	-0.200	-0.082
-353.537	800.000	-0.088	0.260
-352.523	30.610	0.184	0.156
-351.508	-67.300	-0.161	-0.063
-350.493	-57.682	-0.249	-0.108
-349.479	-118.699	-0.119	0.021
-348.464	800.000	0.017	-0.067
-347.450	-32.546	-0.208	-0.115
-346.435	-48.050	-0.062	0.030
-345.420	800.000	-0.035	-0.129
-344.406	-83.777	-0.300	0.095
-343.391	-200.000	-0.002	-0.373
-342.377	501.783	0.056	0.129
-341.362	-200.000	0.021	-0.150
-340.348	35.373	0.133	-0.116
-339.333	-57.124	-0.136	-0.059
-338.318	-95.639	-0.360	-0.096
-337.304	-149.705	0.344	0.027
-336.289	102.936	-0.159	-0.185
-335.275	-11.952	0.163	0.106
-334.260	-200.000	-0.013	-0.213
-333.245	418.829	0.146	0.311
-332.231	-135.431	0.545	0.065
-331.216	579.872	0.029	-0.071
-330.202	133.876	0.101	0.130
-329.187	-91.505	-0.210	0.060
-328.172	-68.006	0.119	-0.046
-327.158	45.714	-0.066	-0.061
-326.143	-200.000	0.041	0.214
-325.129	-89.858	0.071	-0.021
-324.114	800.000	0.055	-0.173
-323.099	172.115	0.077	0.110
-322.085	-25.459	-0.203	0.119
-321.070	-113.858	0.336	-0.065
-320.056	-153.500	-0.148	-0.010
-319.041	114.776	0.129	-0.155
-318.026	-200.000	0.112	-0.504
-317.012	800.000	0.033	-0.124
-315.997	-15.419	0.153	0.097
-314.983	21.466	-0.384	-0.310
-313.968	-160.325	0.077	-0.004
-312.953	-200.000	0.001	-0.108
-311.939	778.015	-0.067	0.183
-310.924	96.191	-0.023	0.026
-309.910	12.223	0.341	-0.261
-308.895	15.081	0.162	-0.126
-307.880	800.000	0.022	0.086
-306.866	36.827	-0.175	-0.154
-305.851	239.972	-0.122	-0.202
-304.837	197.891	-0.041	0.062
-303.822	426.510	0.067	0.143
-302.807	-6.238	-0.123	-0.083
-301.793	29.101	-0.216	0.182
-300.778	424.772	-0.098	-0.209
-299.764	-73.218	-0.334	0.121
-298.749	367.772	0.056	0.113
-297.735	7.419	0.260	0.193
-296.720	41.303	0.177	0.158
-295.705	33.515	-0.171	0.147
-294.691	-153.233	0.189	0.013
-293.676	49.915	-0.262	0.245
-292.662	11.254	0.159	0.121
-291.647	800.000	0.096	-0.321
-290.632	-200.000	0.007	-0.323
-289.618	318.299	-0.070	0.131
-288.603	-93.267	0.474	0.130
-287.589	-33.149	-0.094	0.051
-286.574	800.000	0.064	-0.200
-285.559	80.027	0.100	0.107
-284.545	-200.000	0.010	0.200
-283.530	104.382	0.317	0.370
-282.516	130.783	-0.171	-0.217
-281.501	-14.961	-0.395	0.251
-280.486	-197.325	0.366	0.002
-279.472	-200.000	0.040	0.338
-278.457	-200.000	-0.017	0.244
-277.443	-120.819	0.158	-0.026
-276.428	-84.767	-0.165	-0.052
-275.413	267.146	0.114	0.198
-274.399	749.243	-0.024	-0.065
-273.384	70.931	0.138	0.142
-272.370	120.195	0.201	0.247
-271.355	-20.344	-0.259	0.158
-270.340	109.075	0.034	-0.041
-269.326	-200.000	-0.015	0.132
-268.311	-82.635	-0.137	-0.044
-267.297	758.765	-0.076	0.203
-266.282	-28.699	-0.022	-0.013
-265.267	541.813	-0.102	0.242
-264.253	-90.083	0.255	-0.073
-263.238	-82.351	0.427	-0.137
-262.224	383.284	-0.078	0.158
-261.209	40.132	0.109	0.097
-260.195	-27.967	-0.117	0.067
-259.180	32.974	-0.101	-0.087
-258.165	-80.741	-0.175	0.058
-257.151	27.082	0.433	-0.360
-256.136	-135.482	-0.306	-0.036
-255.122	-76.111	-0.398	0.139
-254.107	-187.139	-0.070	0.001
-253.092	-33.336	0.121	0.066
-252.078	-63.405	0.261	-0.106
-251.063	800.000	-0.025	0.094
-250.049	-142.122	0.013	0.001
-249.034	84.912	-0.152	-0.165
-248.019	15.140	-0.084	-0.065
-247.005	-37.124	0.318	0.169
-245.990	54.590	-0.090	0.086
-244.976	800.000	0.126	0.359
-243.961	17.369	0.123	-0.097
-242.946	392.109	0.080	0.165
-241.932	-95.174	0.254	0.068
-240.917	-200.000	0.005	-0.039
-239.903	52.555	0.094	-0.089
-238.888	300.737	0.027	-0.050
-237.873	596.351	-0.040	0.098
-236.859	-24.793	-0.118	-0.069
-235.844	800.000	0.062	0.172
-234.830	428.811	0.112	0.239
-233.815	310.994	0.125	-0.232
-232.800	-200.000	0.009	-0.291
-231.786	2.877	0.132	0.095
-230.771	165.112	0.094	-0.131
-229.757	211.096	-0.257	0.400
-228.742	-200.000	0.005	0.171
-227.727	-200.000	-0.013	-0.304
-226.713	-64.335	0.193	-0.078
-225.698	-78.848	0.273	-0.092
-224.684	46.818	0.143	-0.131
-223.669	-200.000	0.011	0.157
-222.655	-54.497	0.074	-0.033
-221.640	148.582	0.119	-0.159
-220.625	-55.038	0.024	-0.010
-219.611	-184.075	0.184	0.003
-218.596	-133.316	-0.138	0.017
-217.582	481.215	-0.143	0.321
-216.567	-60.087	-0.148	-0.062
-215.552	75.989	-0.287	0.300
-214.538	-107.228	0.129	-0.028
-213.523	-200.000	0.018	-0.284
-212.509	-200.000	-0.066	-0.692
-211.494	-103.065	0.234	-0.055
-210.479	-200.000	0.005	0.127
-209.465	536.404	-0.162	0.380
-208.450	53.841	0.142	0.135
-207.436	263.213	0.076	0.130
-206.421	194.184	-0.206	-0.308
-205.406	-83.229	0.242	-0.077
-204.392	75.912	0.136	-0.142
-203.377	-200.000	-0.059	0.322
-202.363	-11.350	0.140	0.091
-201.348	20.220	0.100	-0.080
-200.333	40.333	0.128	0.113
-199.319	143.023	0.153	0.201
-198.304	184.262	0.092	-0.134
-197.290	6.861	0.021	0.015
-196.275	760.025	-0.062	0.165
-195.260	-71.714	0.028	-0.010
-194.246	800.000	0.032	0.090
-193.231	-10.630	-0.091	-0.059
-192.217	344.796	0.149	-0.289
-191.202	116.133	-0.043	-0.052
-190.187	-40.811	-0.122	-0.062
-189.173	-159.796	0.373	-0.020
-188.158	-92.855	-0.031	0.009
-187.144	42.553	-0.330	-0.296
-186.129	-157.358	0.296	-0.018
-185.114	-23.475	-0.252	0.149
-184.100	-50.034	0.072	-0.034
-183.085	-106.074	-0.128	-0.028
-182.071	-53.862	-0.212	0.095
-181.056	-163.856	0.091	0.004
-180.042	71.415	-0.079	0.081
-179.027	-125.617	0.271	-0.041
-178.012	-83.651	-0.256	0.081
-176.998	-94.132	-0.123	-0.033
-175.983	222.779	0.153	-0.243
-174.969	116.137	0.239	0.289
-173.954	538.922	-0.143	0.335
-172.939	-103.831	0.081	0.019
-171.925	800.000	-0.066	0.218
-170.910	-200.000	-0.041	0.222
-169.896	-200.000	0.005	0.145
-168.881	56.246	-0.068	0.065
-167.866	21.232	-0.301	-0.241
-166.852	-0.369	0.057	-0.040
-165.837	-61.538	-0.050	0.021
-164.823	342.914	-0.141	-0.273
-163.808	-200.000	-0.005	0.245
-162.793	13.810	-0.111	0.085
-161.779	-75.031	0.183	-0.065
-160.764	169.210	0.110	0.155
-159.750	424.587	-0.131	-0.277
-158.735	-7.905	0.263	-0.175
-157.720	151.812	-0.235	-0.317
-156.706	586.632	-0.062	0.152
-155.691	10.515	-0.269	0.202
-154.677	2.832	-0.277	-0.198
-153.662	-200.000	0.020	0.237
-152.647	-132.714	-0.116	-0.015
-151.633	331.237	-0.202	-0.384
-150.618	-24.036	-0.210	-0.124
-149.604	-108.180	-0.250	-0.053
-148.589	416.587	-0.054	0.113
-147.574	-132.102	0.192	0.025
-146.560	50.970	0.185	-0.173
-145.545	-50.757	0.292	-0.135
-144.531	377.124	-0.105	0.212
-143.516	-115.939	-0.372	-0.068
-142.502	-69.478	0.178	0.067
-141.487	502.845	-0.041	-0.093
-140.472	-74.016	0.182	-0.065
-139.458	-200.000	0.097	0.470
-138.443	347.572	0.218	-0.424
-137.429	-159.826	0.066	0.004
-136.414	-200.000	0.057	-0.249
-135.399	-200.000	-0.012	0.230
-134.385	-200.000	0.020	-0.131
-133.370	790.709	0.060	-0.163
-132.356	345.769	-0.199	0.385
-131.341	-200.000	0.063	-0.281
-130.326	49.282	0.251	-0.233
-129.312	-200.000	0.055	-0.297
-128.297	242.441	-0.072	-0.118
-127.283	73.324	-0.190	0.196
-126.268	-200.000	0.027	0.183
-125.253	-58.846	-0.150	-0.064
-124.239	-26.639	-0.236	-0.136
-123.224	-200.000	0.001	-0.126
-122.210	-83.228	0.289	-0.091
-121.195	33.623	0.113	-0.097
-120.180	-41.307	0.274	-0.139
-119.166	-106.285	-0.153	0.034
-118.151	-200.000	0.023	0.118
-117.137	800.000	0.108	-0.411
-116.122	-32.205	-0.101	0.056
-115.107	-198.279	0.110	0.001
-114.093	5.111	0.171	0.124
-113.078	-40.265	-0.184	0.094
-112.064	-79.594	0.279	0.093
-111.049	-200.000	-0.026	-0.171
-110.034	143.712	0.287	0.376
-109.020	79.458	0.086	0.091
-108.005	-29.972	-0.105	-0.059
-106.991	-32.565	-0.240	-0.132
-105.976	-98.709	-0.234	-0.059
-104.962	-75.543	-0.277	0.097
-103.947	-147.896	-0.237	0.019
-102.932	-200.000	0.011	-0.393
-101.918	10.418	0.234	-0.176
-100.903	52.714	-0.139	0.131
-99.889	-74.561	0.322	0.114
-98.874	-135.858	-0.142	0.016
-97.859	-91.402	0.138	0.039
-96.845	-136.297	0.177	0.020
-95.830	-28.688	-0.092	-0.052
-94.816	-20.493	0.117	0.070
-93.801	800.000	0.106	-0.330
-92.786	-55.113	-0.188	0.083
-91.772	-200.000	0.007	-0.174
-90.757	-61.046	0.163	0.068
-89.743	35.273	-0.181	-0.156
-88.728	79.415	0.038	-0.040
-87.713	22.366	0.130	-0.104
-86.699	-74.329	-0.396	-0.141
-85.684	-16.504	-0.141	-0.088
-84.670	-12.548	-0.262	-0.168
-83.655	133.495	0.071	-0.090
-82.640	216.825	0.112	-0.175
-81.626	173.510	0.140	0.198
-80.611	-200.000	0.032	-0.145
-79.597	111.865	0.052	-0.062
-78.582	-200.000	0.005	0.029
-77.567	689.388	0.054	0.139
-76.553	-117.850	0.296	-0.052
-75.538	680.481	0.141	0.362
-74.524	-72.276	-0.105	0.038
-73.509	-22.245	-0.143	-0.085
-72.494	417.328	-0.122	-0.256
-71.480	-200.000	0.011	0.066
-70.465	-42.326	0.155	-0.078
-69.451	-200.000	0.020	-0.260
-68.436	119.254	0.167	0.202
-67.422	693.937	0.037	-0.094
-66.407	609.661	0.042	-0.103
-65.392	18.942	-0.207	-0.163
-64.378	162.885	-0.052	0.071
-63.363	309.676	-0.113	-0.208
-62.349	285.534	-0.046	-0.082
-61.334	178.679	-0.691	-0.992
-60.319	83.034	0.400	0.427
-59.305	-200.000	-0.104	-0.990
-58.290	181.788	0.623	0.901
-57.276	614.195	0.776	1.909
-56.261	-200.000	95.784	596.483
-55.246	565.619	1367.644	3257.501
-54.232	161.405	2554.503	3509.211
-53.217	106.436	2267.538	2640.124
-52.203	41.239	1894.899	1682.301
-51.188	35.155	1684.670	1449.731
-50.173	32.516	1640.554	1392.234
-49.159	49.956	1686.925	1562.621
-48.144	51.511	1703.544	1589.604
-47.130	34.705	1664.629	1428.894
-46.115	32.025	1650.008	1396.380
-45.100	31.849	1645.232	1390.979
-44.086	31.800	1642.689	1388.409
-43.071	31.718	1640.196	1385.640
-42.057	31.796	1637.638	1384.001
-41.042	31.801	1635.492	1382.167
-40.027	31.661	1633.846	1379.687
-39.013	31.682	1631.773	1378.040
-37.998	31.683	1629.938	1376.445
-36.984	31.753	1629.247	1376.320
-35.969	31.912	1627.432	1375.896
-34.954	31.883	1625.581	1374.063
-33.940	31.946	1623.441	1372.660
-32.925	31.882	1621.938	1370.871
-31.911	31.859	1620.602	1369.521
-30.896	31.800	1619.091	1367.759
-29.881	31.964	1616.840	1366.999
-28.867	31.911	1615.186	1365.158
-27.852	31.815	1613.929	1363.338
-26.838	31.887	1612.214	1362.360
-25.823	31.874	1610.971	1361.164
-24.809	31.951	1609.474	1360.404
-23.794	31.861	1608.138	1358.571
-22.779	31.944	1607.055	1358.200
-21.765	31.943	1605.025	1356.422
-20.750	31.805	1603.777	1354.318
-19.736	31.880	1602.046	1353.343
-18.721	32.026	1600.075	1352.680
-17.706	32.030	1598.647	1351.442
-16.692	31.927	1597.575	1349.744
-15.677	31.898	1596.505	1348.577
-14.663	31.917	1595.178	1347.543
-13.648	31.904	1593.550	1346.020
-12.633	31.883	1592.474	1344.907
-11.619	31.978	1590.078	1343.512
-10.604	31.920	1588.986	1342.118
-9.590	31.929	1587.919	1341.226
-8.575	31.899	1586.763	1339.980
-7.560	32.027	1584.955	1339.317
-6.546	31.980	1584.335	1338.404
-5.531	31.979	1583.007	1337.225
-4.517	31.924	1582.387	1336.253
-3.502	31.898	1580.584	1334.493
-2.487	32.024	1578.911	1333.922
-1.473	31.697	1567.565	1321.980
-0.458	29.247	1548.309	1288.577
0.556	25.868	1549.171	1258.899
1.571	23.659	1573.601	1262.941
2.586	23.352	1586.793	1271.214
3.600	20.420	1532.203	1207.031
4.615	10.958	1420.627	1057.779
5.629	2.972	1355.791	959.690
6.644	1.734	1347.583	946.109
7.659	1.721	1346.205	944.976
8.673	1.579	1345.041	943.190
9.688	1.466	1343.274	941.172
10.702	1.300	1340.189	937.903
11.717	4.726	1347.343	964.078
12.731	14.866	1366.357	1041.031
13.746	23.485	1381.387	1106.409
14.761	25.941	1384.316	1123.996
15.775	26.286	1384.136	1125.899
16.790	26.369	1383.443	1125.750
17.804	26.357	1383.293	1125.457
18.819	26.573	1383.184	1126.612
19.834	26.769	1382.078	1126.830
20.848	26.742	1381.735	1126.280
21.863	26.785	1380.497	1125.440
22.877	26.692	1379.695	1124.110
23.892	26.743	1378.997	1123.756
24.907	26.702	1377.925	1122.531
25.921	26.734	1376.933	1121.824
26.936	26.796	1375.670	1121.079
27.950	26.786	1374.776	1120.189
28.965	26.760	1373.917	1119.228
29.980	26.688	1372.240	1117.318
30.994	26.678	1371.630	1116.660
32.009	26.762	1370.264	1115.970
33.023	26.686	1369.677	1114.924
34.038	26.766	1368.103	1114.033
35.053	26.684	1367.231	1112.724
36.067	26.676	1366.248	1111.774
37.082	26.775	1365.425	1111.614
38.096	26.763	1364.333	1110.556
39.111	26.785	1363.757	1110.119
40.126	26.737	1362.841	1108.984
41.140	26.779	1362.238	1108.652
42.155	26.655	1362.291	1107.836
43.169	26.801	1362.197	1108.559
44.184	26.813	1362.013	1108.385
45.199	26.723	1361.781	1107.545
46.213	26.766	1360.957	1107.036
47.228	26.822	1359.926	1106.443
48.242	26.853	1358.332	1105.240
49.257	26.695	1357.254	1103.304
50.271	26.697	1356.174	1102.338
51.286	26.746	1354.558	1101.225
52.301	26.728	1353.227	1099.939
53.315	26.744	1352.452	1099.305
54.330	26.687	1351.817	1098.350
55.344	26.728	1350.341	1097.299
56.359	26.762	1349.646	1096.845
57.374	26.698	1348.906	1095.756
58.388	26.556	1348.864	1094.768
59.403	26.602	1348.527	1094.673
60.417	26.752	1347.501	1094.649
61.432	26.767	1346.463	1093.804
62.447	26.787	1345.634	1093.151
63.461	26.775	1344.542	1092.097
64.476	26.727	1343.708	1091.034
65.490	26.639	1342.514	1089.439
66.505	26.778	1340.590	1088.614
67.520	26.705	1339.855	1087.484
68.534	26.750	1338.917	1086.898
69.549	26.707	1337.840	1085.669
70.563	26.719	1336.989	1084.952
71.578	26.725	1335.969	1084.067
72.593	26.724	1335.524	1083.605
73.607	26.709	1334.854	1082.871
74.622	26.748	1333.431	1081.854
75.636	26.821	1332.911	1081.774
76.651	26.800	1332.125	1080.914
77.666	26.746	1331.818	1080.249
78.680	26.780	1331.175	1079.834
79.695	26.672	1330.462	1078.519
80.709	26.762	1329.662	1078.307
81.724	26.841	1328.528	1077.761
82.739	26.730	1327.944	1076.534
83.753	26.761	1326.796	1075.695
84.768	26.774	1326.054	1075.071
85.782	26.801	1324.702	1074.041
86.797	26.742	1323.498	1072.623
87.812	26.781	1322.612	1072.041
88.826	26.727	1321.980	1071.110
89.841	26.840	1320.504	1070.489
90.855	26.743	1320.085	1069.481
91.870	26.766	1318.894	1068.560
92.884	26.861	1318.014	1068.310
93.899	26.799	1317.650	1067.558
94.914	26.910	1316.098	1066.854
95.928	26.964	1315.321	1066.449
96.943	26.841	1315.321	1065.632
97.957	26.811	1314.416	1064.626
98.972	26.895	1313.313	1064.133
99.987	26.870	1312.309	1063.077
101.001	26.835	1311.477	1062.108
102.016	26.788	1310.760	1061.159
103.030	26.894	1309.886	1060.976
104.045	26.884	1309.110	1060.195
105.060	26.929	1308.112	1059.554
106.074	26.819	1307.468	1058.301
107.089	26.799	1306.470	1057.282
108.103	26.825	1305.229	1056.335
109.118	26.987	1303.672	1055.921
110.133	26.914	1302.772	1054.675
111.147	26.994	1301.719	1054.192
112.162	26.990	1300.267	1052.904
113.176	26.889	1299.693	1051.756
114.191	26.972	1298.797	1051.423
115.206	26.975	1297.500	1050.293
116.220	26.910	1297.078	1049.487
117.235	26.939	1295.935	1048.635
118.249	26.958	1294.858	1047.780
119.264	26.848	1294.523	1046.782
120.279	26.901	1293.602	1046.251
121.293	26.938	1292.752	1045.681
122.308	26.947	1292.015	1045.045
123.322	26.892	1291.455	1044.187
124.337	26.832	1290.547	1043.015
125.352	26.961	1289.765	1043.031
126.366	26.988	1288.775	1042.292
127.381	26.893	1288.080	1041.094
128.395	26.900	1287.028	1040.193
129.410	26.982	1286.014	1039.750
130.424	27.073	1285.349	1039.643
131.439	26.961	1284.626	1038.325
132.454	27.069	1283.401	1037.856
133.468	26.999	1283.122	1037.139
134.483	26.960	1282.317	1036.178
135.497	26.872	1281.610	1035.013
136.512	26.981	1280.769	1034.861
137.527	27.027	1279.434	1033.951
138.541	26.984	1277.925	1032.397
139.556	26.950	1277.060	1031.411
140.570	26.977	1276.402	1030.946
141.585	27.006	1274.931	1029.831
142.600	26.916	1274.152	1028.599
143.614	26.831	1273.974	1027.884
144.629	26.913	1272.694	1027.222
145.643	26.920	1271.759	1026.419
146.658	26.937	1270.572	1025.465
147.673	26.894	1269.950	1024.628
148.687	26.953	1268.334	1023.568
149.702	26.823	1267.815	1022.322
150.716	26.869	1266.536	1021.464
151.731	26.982	1265.156	1020.892
152.746	27.008	1264.268	1020.234
153.760	26.974	1263.358	1019.217
154.775	26.928	1262.298	1018.017
155.789	26.858	1261.591	1016.963
156.804	26.938	1260.353	1016.322
157.819	27.042	1259.316	1015.977
158.833	26.908	1259.236	1015.076
159.848	27.042	1258.470	1015.116
160.862	27.061	1257.556	1014.393
161.877	27.041	1256.678	1013.484
162.892	27.084	1256.213	1013.261
163.906	27.026	1255.523	1012.292
164.921	27.067	1254.918	1011.940
165.935	27.024	1253.930	1010.816
166.950	27.104	1253.290	1010.655
167.964	27.052	1252.408	1009.566
168.979	27.098	1252.245	1009.599
169.994	27.047	1251.440	1008.581
171.008	27.034	1251.016	1008.074
172.023	27.054	1249.959	1007.244
173.037	27.017	1249.580	1006.647
174.052	27.117	1248.524	1006.258
175.067	27.139	1247.645	1005.587
176.081	26.981	1247.400	1004.425
177.096	27.065	1246.543	1004.109
178.110	27.056	1245.721	1003.311
179.125	27.127	1244.116	1002.317
180.140	27.175	1243.067	1001.649
181.154	27.162	1242.265	1000.846
182.169	27.144	1240.975	999.615
183.183	27.068	1240.184	998.472
184.198	27.174	1239.199	998.177
185.213	27.166	1238.637	997.591
186.227	27.130	1237.881	996.695
187.242	27.241	1236.274	995.919
188.256	27.139	1235.939	995.006
189.271	27.188	1234.848	994.306
190.286	27.110	1234.504	993.516
191.300	27.057	1233.832	992.598
192.315	27.155	1232.931	992.316
193.329	27.173	1233.010	992.395
194.344	27.225	1232.434	992.124
195.359	27.138	1232.003	991.213
196.373	27.077	1231.426	990.331
197.388	27.124	1231.218	990.334
198.402	27.115	1230.799	989.856
199.417	27.225	1230.018	989.743
200.432	27.142	1229.508	988.795
201.446	27.075	1229.242	988.126
202.461	27.108	1228.530	987.645
203.475	27.276	1227.155	987.366
204.490	27.186	1226.246	986.058
205.504	27.210	1225.779	985.723
206.519	27.219	1224.999	985.058
207.534	27.336	1223.253	984.201
208.548	27.268	1222.672	983.278
209.563	27.220	1222.228	982.575
210.577	27.264	1221.213	981.911
211.592	27.241	1220.657	981.250
212.607	27.348	1219.509	980.821
213.621	27.251	1218.992	979.796
214.636	27.295	1217.936	979.096
215.650	27.346	1217.087	978.598
216.665	27.261	1216.550	977.627
217.680	27.290	1216.166	977.384
218.694	27.318	1215.012	976.521
219.709	27.401	1214.138	976.179
220.723	27.321	1213.432	975.095
221.738	27.349	1212.528	974.434
222.753	27.192	1212.039	973.113
223.767	27.263	1211.401	972.896
224.782	27.348	1210.974	972.920
225.796	27.487	1210.595	973.273
226.811	27.411	1209.961	972.273
227.826	27.386	1209.461	971.650
228.840	27.386	1209.149	971.315
229.855	27.359	1208.443	970.517
230.869	27.413	1207.668	970.094
231.884	27.334	1206.652	968.773
232.899	27.392	1206.025	968.495
233.913	27.435	1205.583	968.283
234.928	27.483	1204.816	967.833
235.942	27.552	1204.294	967.697
236.957	27.399	1203.861	966.448
237.972	27.343	1202.876	965.278
238.986	27.471	1202.351	965.446
240.001	27.577	1201.533	965.266
241.015	27.558	1201.019	964.670
242.030	27.578	1200.108	963.959
243.045	27.639	1199.213	963.473
244.059	27.620	1198.734	962.903
245.074	27.689	1197.384	962.099
246.088	27.735	1196.786	961.777
247.103	27.609	1196.223	960.573
248.117	27.607	1195.495	959.893
249.132	27.597	1194.812	959.206
250.147	27.697	1194.264	959.210
251.161	27.563	1193.931	958.152
252.176	27.618	1192.504	957.210
253.190	27.681	1192.106	957.138
254.205	27.705	1191.532	956.718
255.220	27.670	1191.142	956.136
256.234	27.606	1190.959	955.570
257.249	27.591	1190.091	954.712
258.263	27.747	1189.598	955.049
259.278	27.695	1188.932	954.158
260.293	27.732	1188.432	953.865
261.307	27.686	1187.715	952.964
262.322	27.660	1187.219	952.344
263.336	27.719	1186.668	952.127
264.351	27.720	1185.569	951.166
265.366	27.730	1185.221	950.856
266.380	27.813	1184.471	950.601
267.395	27.674	1184.019	949.429
268.409	27.791	1183.218	949.314
269.424	27.744	1182.808	948.658
270.439	27.707	1182.056	947.779
271.453	27.695	1181.926	947.526
272.468	27.631	1180.960	946.338
273.482	27.695	1179.983	945.799
274.497	27.770	1179.591	945.790
275.512	27.823	1179.155	945.632
276.526	27.730	1178.766	944.757
277.541	27.856	1177.477	944.292
278.555	27.751	1177.556	943.725
279.570	27.747	1176.698	942.933
280.585	27.821	1175.329	942.135
281.599	27.795	1174.849	941.534
282.614	27.777	1173.975	940.658
283.628	27.886	1172.951	940.314
284.643	28.047	1171.823	940.157
285.657	27.905	1171.161	938.815
286.672	27.715	1170.759	937.432
287.687	27.869	1169.867	937.423
288.701	27.912	1169.323	937.128
289.716	27.898	1168.572	936.371
290.730	27.892	1167.762	935.609
291.745	27.999	1166.883	935.370
292.760	27.963	1166.731	934.981
293.774	27.914	1166.197	934.216
294.789	27.977	1165.453	933.863
295.803	27.955	1165.224	933.483
296.818	27.950	1164.268	932.610
297.833	28.004	1163.521	932.200
298.847	28.070	1162.801	931.878
299.862	27.972	1162.193	930.811
300.876	28.006	1161.941	930.699
301.891	28.064	1160.998	930.157
302.906	28.114	1160.430	929.876
303.920	28.106	1159.675	929.147
304.935	28.106	1159.250	928.724
305.949	28.139	1158.329	928.071
306.964	28.118	1157.908	927.545
307.979	28.110	1157.380	926.998
308.993	28.133	1156.352	926.209
310.008	28.213	1155.602	925.934
311.022	28.154	1155.017	925.085
312.037	28.188	1154.210	924.528
313.052	28.249	1152.928	923.724
314.066	28.269	1152.254	923.205
315.081	28.098	1151.931	922.003
316.095	28.124	1151.335	921.575
317.110	28.125	1150.812	921.077
318.125	28.130	1150.378	920.678
319.139	28.274	1149.519	920.632
320.154	28.245	1149.241	920.179
321.168	28.280	1148.298	919.523
322.183	28.251	1147.802	918.897
323.197	28.168	1147.547	918.192
324.212	28.312	1146.733	918.185
325.227	28.366	1146.022	917.806
326.241	28.279	1145.805	917.113
327.256	28.256	1144.961	916.244
328.270	28.239	1144.301	915.548
329.285	28.294	1143.712	915.268
330.300	28.339	1142.640	914.558
331.314	28.515	1141.561	914.491
332.329	28.366	1141.270	913.435
333.343	28.323	1140.581	912.586
334.358	28.395	1139.804	912.242
335.373	28.364	1139.081	911.429
336.387	28.328	1138.459	910.670
337.402	28.351	1137.524	909.958
338.416	28.419	1136.951	909.753
339.431	28.422	1136.252	909.129
340.446	28.522	1135.688	909.096
341.460	28.374	1135.445	908.089
342.475	28.538	1134.365	907.954
343.489	28.528	1133.464	907.105
344.504	28.506	1132.733	906.329
345.519	28.532	1131.978	905.773
346.533	28.612	1130.961	905.274
347.548	28.600	1130.173	904.502
348.562	28.583	1129.337	903.669
349.577	28.551	1128.834	903.029
350.592	28.606	1128.131	902.657
351.606	28.443	1127.810	901.520
352.621	28.568	1127.038	901.437
353.635	28.487	1126.591	900.603
354.650	28.666	1125.489	900.520
355.665	28.728	1125.042	900.389
356.679	28.593	1124.769	899.429
357.694	28.738	1123.783	899.268
358.708	28.641	1123.374	898.387
359.723	28.535	1122.816	897.341
360.738	28.708	1121.616	897.149
361.752	28.675	1121.713	896.986
362.767	28.676	1121.066	896.396
363.781	28.693	1120.505	895.953
364.796	28.822	1119.915	896.030
365.810	28.683	1119.234	894.726
366.825	28.754	1118.710	894.577
367.840	28.830	1118.171	894.435
368.854	28.903	1117.690	894.324
369.869	28.858	1116.915	893.409
370.883	28.897	1115.964	892.759
371.898	28.789	1115.607	891.867
372.913	28.844	1114.661	891.300
373.927	28.844	1114.474	891.069
374.942	28.908	1113.992	890.916
375.956	28.856	1113.677	890.333
376.971	28.899	1113.007	889.926
377.986	28.916	1112.656	889.653
379.000	28.991	1111.915	889.341
380.015	28.909	1111.398	888.452
381.029	28.877	1110.925	887.842
382.044	28.876	1110.204	887.186
383.059	29.058	1109.052	887.062
384.073	29.216	1108.716	887.477
385.088	28.999	1107.702	885.540
386.102	28.975	1107.026	884.806
387.117	28.987	1106.223	884.147
388.132	28.954	1105.231	883.113
389.146	29.120	1104.624	883.350
390.161	29.115	1103.980	882.733
391.175	29.039	1103.269	881.721
392.190	29.132	1102.712	881.642
393.205	29.121	1101.902	880.863
394.219	29.008	1101.585	879.991
395.234	29.046	1100.813	879.479
396.248	29.108	1099.911	878.979
397.263	29.148	1098.730	878.146
398.278	29.231	1098.635	878.386
399.292	29.169	1097.843	877.383
400.307	29.199	1097.305	877.019
401.321	29.150	1096.731	876.247
402.336	29.155	1096.095	875.687
403.350	29.173	1095.304	875.064
404.365	29.362	1094.676	875.379
405.380	29.191	1094.170	874.089
406.394	29.195	1093.299	873.330
407.409	29.218	1092.629	872.826
408.423	29.263	1091.658	872.189
409.438	29.342	1091.334	872.228
410.453	29.246	1090.913	871.359
411.467	29.349	1089.978	871.020
412.482	29.341	1088.936	870.075
413.496	29.283	1088.472	869.355
414.511	29.350	1088.109	869.304
415.526	29.404	1087.732	869.176
416.540	29.393	1087.371	868.763
417.555	29.374	1086.815	868.151
418.569	29.483	1085.918	867.870
419.584	29.419	1085.676	867.299
420.599	29.465	1085.315	867.150
421.613	103.911	1323.156	1461.215
422.628	96.701	1357.765	1461.328
