DTS Sentinel unit serial number:	SN413079Multiplexer serial number:	ORYXHardware model number:	OX4-SRSoftware version number:	ORYX F/W v4.00 Oryx Data Collector v3.7.2.0data status	okinstallation	princeton_trtdifferential loss correction	single-endedforward channel	channel 2reverse channel	N/Adate	2019/09/15time	06:39:34forward acquisition time	60.00reverse acquisition time	0.00gamma	496.2192k internal	0.2326k external	0.2326temperature offset calibration	1.0027default loss term (dB/km)	0.3790temperature slope calibration	1.0000multiplexer offset coefficient	1.0000multiplexer slope coefficient	1.0000fibre end	0.00T internal ref (°C)	30.50T ext. ref 1 (°C)	4.77T ext. ref 2 (°C)	25.44length (m)	temperature (°C)	Stokes	anti-Stokes-747.200	53.744	0.309	-0.299
-746.185	-66.153	-0.216	0.087
-745.171	-200.000	-0.028	-0.310
-744.156	117.957	-0.189	-0.235
-743.142	-200.000	-0.063	-0.340
-742.127	53.722	0.201	0.195
-741.112	580.237	-0.038	0.094
-740.098	-117.861	-0.205	0.037
-739.083	-124.987	0.182	0.028
-738.069	30.312	0.039	0.034
-737.054	70.485	0.193	0.201
-736.039	140.317	0.087	-0.116
-735.025	387.295	-0.203	0.423
-734.010	55.375	0.156	0.152
-732.996	208.606	-0.273	-0.431
-731.981	183.014	-0.126	0.188
-730.966	-200.000	-0.003	-0.095
-729.952	-86.846	-0.147	-0.045
-728.937	-123.704	-0.376	-0.060
-727.923	-56.521	0.040	0.018
-726.908	-5.672	-0.186	-0.129
-725.894	34.729	0.211	-0.186
-724.879	-134.916	-0.360	0.044
-723.864	126.412	0.093	0.118
-722.850	96.947	-0.164	-0.189
-721.835	800.000	0.111	-0.448
-720.821	-59.758	0.100	0.043
-719.806	107.477	0.223	0.267
-718.791	-98.192	-0.225	0.058
-717.777	-147.743	0.371	0.031
-716.762	-116.858	-0.188	0.035
-715.748	564.174	0.086	-0.210
-714.733	-47.114	-0.297	-0.146
-713.718	-200.000	-0.002	-0.170
-712.704	8.793	-0.274	0.208
-711.689	-197.348	-0.415	-0.003
-710.675	322.271	0.120	-0.231
-709.660	69.500	0.172	0.179
-708.645	-35.322	-0.209	0.114
-707.631	-100.308	-0.312	0.078
-706.616	-68.336	-0.350	-0.137
-705.602	61.519	-0.101	0.101
-704.587	-200.000	0.008	-0.131
-703.572	46.321	-0.435	0.406
-702.558	21.649	-0.296	0.243
-701.543	582.448	0.054	-0.134
-700.529	-161.691	-0.252	-0.013
-699.514	164.201	0.029	0.041
-698.499	-200.000	-0.037	-0.304
-697.485	85.808	0.076	0.085
-696.470	104.225	0.404	-0.479
-695.456	-70.390	-0.128	0.049
-694.441	-200.000	-0.026	0.174
-693.426	-68.117	-0.135	0.053
-692.412	-137.620	-0.291	-0.033
-691.397	800.000	-0.064	-0.213
-690.383	31.906	0.254	-0.221
-689.368	-14.522	0.123	-0.080
-688.354	-200.000	-0.002	0.299
-687.339	-105.750	0.305	-0.070
-686.324	-10.748	-0.090	0.060
-685.310	-54.619	0.309	-0.141
-684.295	-67.195	0.347	-0.137
-683.281	-117.756	-0.233	0.042
-682.266	-200.000	0.000	-0.102
-681.251	800.000	-0.030	0.106
-680.237	-200.000	0.071	0.380
-679.222	-14.495	0.051	-0.033
-678.208	445.489	-0.235	-0.519
-677.193	-99.279	0.260	-0.066
-676.178	246.273	-0.070	-0.119
-675.164	-200.000	0.006	-0.281
-674.149	321.518	-0.115	-0.220
-673.135	61.955	-0.133	0.133
-672.120	72.967	-0.196	0.206
-671.105	-200.000	0.004	-0.301
-670.091	-50.529	0.086	0.041
-669.076	-200.000	0.052	-0.300
-668.062	77.142	-0.212	-0.227
-667.047	-19.891	0.253	-0.157
-666.032	422.782	-0.160	0.345
-665.018	251.266	-0.205	0.351
-664.003	20.137	-0.078	0.063
-662.989	800.000	0.012	0.055
-661.974	-200.000	0.008	0.142
-660.959	-115.378	0.320	-0.061
-659.945	-130.188	0.217	-0.030
-658.930	99.925	-0.179	-0.208
-657.916	-74.771	-0.277	0.100
-656.901	290.809	-0.163	0.298
-655.886	-94.565	-0.346	0.095
-654.872	6.425	-0.203	-0.152
-653.857	800.000	-0.054	-0.208
-652.843	-152.551	-0.054	0.004
-651.828	7.452	0.256	0.192
-650.814	-91.921	-0.148	-0.042
-649.799	-33.827	-0.291	0.161
-648.784	-128.094	0.305	-0.044
-647.770	44.449	0.112	-0.103
-646.755	102.994	0.110	0.129
-645.741	-119.872	0.128	-0.022
-644.726	20.738	0.255	0.208
-643.711	-81.887	-0.180	0.059
-642.697	-21.057	-0.279	0.172
-641.682	800.000	0.041	0.167
-640.668	-200.000	0.016	0.114
-639.653	-83.795	-0.176	0.056
-638.638	439.670	-0.052	-0.114
-637.624	358.615	-0.052	0.105
-636.609	-112.343	-0.275	0.055
-635.595	-45.863	0.268	-0.133
-634.580	-29.603	-0.209	-0.120
-633.565	201.372	-0.181	-0.279
-632.551	-129.697	0.334	-0.046
-631.536	-200.000	-0.055	-0.326
-630.522	298.370	-0.097	0.180
-629.507	-200.000	-0.014	0.192
-628.492	-49.323	0.170	0.082
-627.478	-81.189	0.308	0.102
-626.463	7.670	-0.140	-0.105
-625.449	-48.114	-0.080	0.039
-624.434	-21.358	0.096	0.059
-623.419	800.000	-0.071	0.200
-622.405	181.627	-0.077	0.113
-621.390	800.000	-0.024	-0.070
-620.376	800.000	0.033	-0.130
-619.361	-141.498	0.022	-0.002
-618.346	-172.968	-0.235	0.007
-617.332	800.000	-0.091	0.362
-616.317	-200.000	0.037	0.255
-615.303	-119.903	-0.041	0.007
-614.288	-79.305	0.117	0.040
-613.273	800.000	0.042	-0.153
-612.259	-52.963	-0.170	0.078
-611.244	450.626	0.027	-0.061
-610.230	-79.328	-0.208	-0.071
-609.215	21.108	-0.151	-0.123
-608.201	-140.968	-0.297	0.031
-607.186	-200.000	0.036	0.187
-606.171	-96.449	-0.223	-0.059
-605.157	-94.093	0.332	0.091
-604.142	31.105	-0.137	-0.118
-603.128	-200.000	-0.014	-0.158
-602.113	368.648	-0.087	-0.176
-601.098	-39.540	-0.143	-0.075
-600.084	111.635	0.227	-0.275
-599.069	98.384	0.214	0.247
-598.055	469.460	-0.069	-0.154
-597.040	-197.217	-0.157	0.001
-596.025	-36.300	-0.066	0.036
-595.011	46.239	-0.151	0.140
-593.996	-136.025	-0.256	0.030
-592.982	800.000	0.015	-0.044
-591.967	179.439	-0.132	-0.194
-590.952	-200.000	0.048	-0.292
-589.938	-127.732	-0.176	-0.025
-588.923	-200.000	0.030	0.191
-587.909	-200.000	0.035	0.327
-586.894	800.000	-0.031	0.098
-585.879	94.355	-0.279	0.317
-584.865	-200.000	-0.032	0.157
-583.850	-200.000	0.075	0.395
-582.836	217.842	-0.103	0.164
-581.821	-190.404	-0.261	0.003
-580.806	-200.000	-0.006	-0.366
-579.792	84.220	-0.150	0.164
-578.777	800.000	-0.020	0.077
-577.763	70.401	0.169	-0.175
-576.748	-128.902	0.144	0.020
-575.733	-156.208	-0.353	0.022
-574.719	82.437	-0.206	-0.224
-573.704	-40.925	0.043	0.022
-572.690	61.202	-0.077	-0.076
-571.675	-126.120	-0.228	-0.034
-570.661	-199.017	0.075	0.000
-569.646	124.313	-0.124	-0.156
-568.631	60.325	-0.024	-0.024
-567.617	-66.349	0.190	-0.076
-566.602	96.089	-0.089	-0.101
-565.588	-200.000	0.048	-0.274
-564.573	-103.339	-0.155	0.037
-563.558	44.137	-0.214	-0.196
-562.544	-38.058	-0.175	-0.093
-561.529	14.935	-0.269	0.211
-560.515	-200.000	-0.059	-0.300
-559.500	464.513	0.160	-0.359
-558.485	-86.338	-0.028	0.009
-557.471	1.258	0.080	0.057
-556.456	-180.918	-0.068	-0.001
-555.442	800.000	0.050	0.217
-554.427	-156.686	-0.438	0.027
-553.412	-200.000	-0.029	0.172
-552.398	232.624	-0.183	-0.301
-551.383	-200.000	0.019	-0.084
-550.369	129.317	0.269	0.344
-549.354	-47.079	0.061	0.030
-548.339	-70.705	0.164	-0.062
-547.325	-66.741	0.391	-0.155
-546.310	364.205	0.063	-0.126
-545.296	241.179	0.156	-0.260
-544.281	-84.730	0.141	-0.045
-543.266	-58.668	-0.262	0.114
-542.252	45.187	0.188	-0.173
-541.237	405.388	-0.041	-0.087
-540.223	-200.000	0.027	0.483
-539.208	-50.476	0.257	0.121
-538.193	-200.000	0.040	-0.222
-537.179	-0.298	-0.069	-0.049
-536.164	-65.965	-0.241	0.096
-535.150	418.175	0.192	-0.411
-534.135	92.425	-0.240	-0.271
-533.121	800.000	-0.107	-0.417
-532.106	-21.438	0.302	-0.185
-531.091	242.241	-0.167	-0.280
-530.077	73.034	-0.116	-0.122
-529.062	800.000	0.043	-0.182
-528.048	-54.630	-0.190	0.086
-527.033	291.634	0.153	-0.278
-526.018	-78.577	-0.266	-0.091
-525.004	-133.401	0.432	0.054
-523.989	287.906	-0.172	-0.311
-522.975	-76.571	0.077	0.027
-521.960	-61.291	-0.372	0.157
-520.945	415.799	-0.045	0.096
-519.931	49.337	0.203	0.191
-518.916	29.095	0.085	0.072
-517.902	-101.996	-0.286	-0.069
-516.887	800.000	0.091	0.287
-515.872	54.410	0.319	0.307
-514.858	597.866	0.069	-0.171
-513.843	-152.215	0.366	0.027
-512.829	-200.000	-0.033	0.328
-511.814	-19.309	-0.154	-0.095
-510.799	800.000	-0.090	-0.307
-509.785	199.784	0.113	0.174
-508.770	-176.010	-0.368	-0.010
-507.756	-200.000	-0.026	0.155
-506.741	-115.515	-0.172	-0.032
-505.726	-81.709	-0.278	-0.091
-504.712	233.488	0.100	0.164
-503.697	800.000	-0.052	-0.196
-502.683	-116.921	0.117	-0.021
-501.668	-94.083	0.248	-0.068
-500.653	800.000	0.069	-0.192
-499.639	-200.000	0.033	0.258
-498.624	220.225	0.055	0.089
-497.610	248.022	0.167	0.283
-496.595	464.453	-0.050	0.111
-495.581	-6.105	0.084	-0.057
-494.566	-200.000	0.030	-0.141
-493.551	-120.219	-0.370	-0.063
-492.537	800.000	-0.050	0.144
-491.522	-88.498	0.038	0.011
-490.508	150.611	0.183	-0.249
-489.493	244.068	0.079	0.132
-488.478	-200.000	0.013	-0.261
-487.464	-200.000	-0.020	0.271
-486.449	-47.035	0.127	0.062
-485.435	-200.000	-0.034	-0.265
-484.420	-106.616	0.166	-0.037
-483.405	44.114	-0.124	-0.113
-482.391	-63.671	-0.012	-0.005
-481.376	-81.536	0.236	0.077
-480.362	-178.295	0.312	0.007
-479.347	-141.675	-0.176	-0.018
-478.332	666.569	0.135	-0.347
-477.318	315.072	-0.179	-0.337
-476.303	-200.000	0.002	0.067
-475.289	-200.000	0.007	0.351
-474.274	800.000	-0.055	-0.200
-473.259	31.670	0.177	0.152
-472.245	168.445	0.083	0.118
-471.230	-75.732	0.140	0.050
-470.216	-200.000	0.018	-0.250
-469.201	800.000	0.101	-0.326
-468.186	800.000	-0.090	-0.300
-467.172	-79.774	0.189	0.063
-466.157	-200.000	0.002	0.137
-465.143	-200.000	0.022	0.288
-464.128	-14.388	0.016	-0.010
-463.113	111.024	-0.079	0.095
-462.099	-200.000	0.001	0.148
-461.084	-129.682	-0.184	-0.025
-460.070	-55.329	-0.117	-0.053
-459.055	-58.013	-0.285	0.124
-458.040	66.823	0.084	-0.085
-457.026	132.899	-0.129	-0.166
-456.011	-200.000	0.012	0.112
-454.997	-111.189	0.046	0.009
-453.982	-200.000	-0.000	-0.154
-452.968	26.460	-0.037	0.031
-451.953	69.522	0.089	0.092
-450.938	275.249	0.039	-0.069
-449.924	-200.000	0.023	-0.138
-448.909	441.656	0.155	-0.339
-447.895	-109.963	-0.026	-0.005
-446.880	-200.000	-0.028	-0.133
-445.865	-200.000	0.004	0.173
-444.851	31.078	0.181	0.154
-443.836	100.915	-0.385	0.446
-442.822	455.259	0.125	-0.277
-441.807	497.087	-0.076	-0.175
-440.792	-50.469	-0.061	-0.029
-439.778	311.582	0.043	0.080
-438.763	800.000	-0.069	0.213
-437.749	-136.941	0.332	0.038
-436.734	-11.193	0.103	0.068
-435.719	109.939	-0.049	-0.059
-434.705	-1.763	-0.151	-0.106
-433.690	546.425	-0.088	0.210
-432.676	86.087	-0.085	-0.093
-431.661	-141.800	-0.049	0.005
-430.646	-97.094	-0.228	0.059
-429.632	-200.000	0.026	0.233
-428.617	264.437	0.143	0.249
-427.603	-15.723	0.241	-0.153
-426.588	-200.000	-0.005	0.071
-425.573	-200.000	-0.031	0.174
-424.559	418.703	0.148	0.315
-423.544	35.046	0.043	-0.038
-422.530	800.000	0.078	0.327
-421.515	-4.968	0.340	-0.233
-420.500	-76.792	0.308	-0.107
-419.486	-200.000	0.002	0.257
-418.471	-46.747	0.189	0.092
-417.457	-42.854	0.295	0.149
-416.442	-17.866	0.201	0.125
-415.428	-121.499	0.261	-0.043
-414.413	-69.012	-0.208	0.080
-413.398	-49.932	-0.351	-0.166
-412.384	437.460	-0.137	0.298
-411.369	800.000	-0.010	-0.035
-410.355	129.831	0.267	-0.341
-409.340	349.520	-0.069	0.135
-408.325	-200.000	0.004	0.061
-407.311	-127.254	-0.148	0.022
-406.296	-200.000	0.030	0.204
-405.282	183.181	0.113	-0.167
-404.267	-200.000	0.017	0.079
-403.252	-74.417	0.246	-0.088
-402.238	-88.221	-0.072	0.021
-401.223	50.425	0.199	-0.187
-400.209	-174.892	-0.253	0.007
-399.194	-8.920	0.212	-0.141
-398.179	-200.000	0.285	0.001
-397.165	-64.661	0.053	0.021
-396.150	-46.851	0.038	0.018
-395.136	-56.134	-0.287	0.127
-394.121	-43.547	0.177	0.089
-393.106	-122.133	-0.176	0.029
-392.092	-200.000	-0.007	-0.234
-391.077	40.170	0.264	0.236
-390.063	212.499	-0.128	0.201
-389.048	-97.114	-0.077	0.020
-388.033	800.000	-0.066	0.232
-387.019	-200.000	0.007	-0.229
-386.004	-92.295	-0.331	-0.093
-384.990	-67.070	-0.232	0.091
-383.975	800.000	0.006	-0.019
-382.960	101.730	0.176	-0.204
-381.946	89.400	-0.147	0.163
-380.931	-1.432	-0.097	-0.068
-379.917	-46.780	0.182	-0.089
-378.902	-69.526	0.128	-0.049
-377.888	66.378	-0.360	0.364
-376.873	800.000	-0.059	0.181
-375.858	100.400	-0.224	0.259
-374.844	800.000	-0.034	-0.133
-373.829	-200.000	0.017	0.198
-372.815	-200.000	0.080	0.381
-371.800	-200.000	-0.059	-0.309
-370.785	-200.000	0.034	-0.234
-369.771	137.529	-0.195	0.254
-368.756	-200.000	-0.008	-0.198
-367.742	502.649	-0.168	-0.385
-366.727	781.958	-0.146	-0.397
-365.712	144.257	-0.104	0.137
-364.698	139.873	-0.192	-0.251
-363.683	335.006	-0.084	-0.162
-362.669	299.395	-0.124	-0.227
-361.654	-26.718	-0.115	0.067
-360.639	41.730	-0.111	0.100
-359.625	-123.336	-0.093	-0.015
-358.610	-60.925	0.156	0.066
-357.596	-195.523	-0.442	0.003
-356.581	371.717	0.073	0.148
-355.566	-34.611	0.246	-0.134
-354.552	-88.580	-0.321	0.095
-353.537	-200.000	0.081	-0.436
-352.523	616.461	-0.192	0.477
-351.508	-200.000	-0.016	-0.254
-350.493	-200.000	0.010	-0.107
-349.479	-143.860	0.373	0.035
-348.464	800.000	0.039	0.140
-347.450	-1.333	0.269	-0.189
-346.435	494.524	0.159	0.361
-345.420	-200.000	0.002	0.116
-344.406	206.922	0.061	0.095
-343.391	-200.000	0.220	0.000
-342.377	39.625	-0.179	-0.159
-341.362	-75.478	0.233	0.082
-340.348	13.541	0.297	0.229
-339.333	437.648	0.177	-0.384
-338.318	399.080	-0.094	0.195
-337.304	-149.847	-0.077	-0.006
-336.289	-80.192	-0.140	-0.047
-335.275	-200.000	0.005	-0.146
-334.260	132.967	0.147	-0.189
-333.245	124.157	0.164	-0.204
-332.231	47.644	-0.187	-0.173
-331.216	-115.440	0.257	0.048
-330.202	-200.000	-0.072	0.333
-329.187	21.918	0.203	-0.164
-328.172	800.000	0.066	-0.241
-327.158	610.329	-0.091	-0.225
-326.143	96.235	-0.037	0.042
-325.129	112.658	-0.116	0.139
-324.114	445.749	0.116	-0.253
-323.099	140.698	0.189	-0.248
-322.085	-47.329	-0.202	-0.098
-321.070	-200.000	0.043	-0.263
-320.056	185.886	0.163	0.241
-319.041	-35.884	-0.074	0.040
-318.026	234.249	0.076	0.125
-317.012	-200.000	0.071	0.399
-315.997	68.107	0.123	-0.125
-314.983	38.900	-0.270	-0.239
-313.968	108.609	0.175	0.208
-312.953	-58.605	-0.309	-0.133
-311.939	800.000	-0.063	-0.179
-310.924	776.946	-0.070	-0.190
-309.910	-133.983	0.044	0.005
-308.895	10.699	-0.195	-0.148
-307.880	-172.339	-0.025	0.001
-306.866	-122.223	-0.112	0.018
-305.851	-190.320	0.283	-0.003
-304.837	175.523	0.006	-0.009
-303.822	-150.471	-0.117	0.009
-302.807	138.248	0.148	-0.192
-301.793	400.135	0.114	-0.238
-300.778	231.809	0.171	-0.277
-299.764	-161.892	-0.067	-0.003
-298.749	-10.511	-0.305	0.200
-297.735	659.354	0.076	0.194
-296.720	614.898	-0.046	0.114
-295.705	800.000	-0.056	0.196
-294.691	159.219	0.078	-0.107
-293.676	62.947	-0.182	0.181
-292.662	-200.000	0.025	0.285
-291.647	-143.873	-0.390	-0.036
-290.632	-107.758	0.090	-0.019
-289.618	-148.131	-0.291	-0.024
-288.603	-176.893	-0.250	-0.006
-287.589	800.000	0.028	0.094
-286.574	20.444	0.206	0.165
-285.559	800.000	-0.011	0.044
-284.545	-200.000	0.047	-0.351
-283.530	-178.579	-0.060	0.001
-282.516	-65.179	0.126	0.050
-281.501	800.000	-0.068	-0.235
-280.486	736.629	-0.073	-0.193
-279.472	-15.642	0.046	0.029
-278.457	800.000	-0.050	0.161
-277.443	-6.147	0.098	0.066
-276.428	-153.424	0.147	-0.010
-275.413	-13.327	-0.085	0.055
-274.399	800.000	-0.069	-0.266
-273.384	167.738	0.086	0.121
-272.370	15.863	0.054	-0.042
-271.355	800.000	-0.130	-0.365
-270.340	-55.436	-0.202	0.090
-269.326	395.625	-0.055	0.113
-268.311	-161.349	0.341	0.017
-267.297	-50.891	-0.327	0.152
-266.282	-19.315	-0.110	0.068
-265.267	-189.237	-0.187	-0.002
-264.253	-25.015	0.402	0.236
-263.238	57.560	0.044	0.043
-262.224	42.469	0.162	0.145
-261.209	3.609	-0.234	0.169
-260.195	-69.239	-0.264	-0.101
-259.180	-150.006	-0.165	-0.013
-258.165	-82.620	0.318	-0.102
-257.151	800.000	0.012	-0.050
-256.136	-68.820	-0.248	-0.095
-255.122	-200.000	0.039	0.173
-254.107	-154.904	-0.271	-0.018
-253.092	180.166	0.181	-0.262
-252.078	-200.000	0.005	0.255
-251.063	-200.000	0.007	-0.423
-250.049	36.294	0.162	0.141
-249.034	-200.000	0.006	0.322
-248.019	-200.000	-0.058	-0.281
-247.005	-118.000	0.344	0.061
-245.990	-153.820	-0.185	0.013
-244.976	-36.288	0.063	0.034
-243.961	-167.449	-0.179	0.007
-242.946	86.148	-0.173	-0.188
-241.932	-200.000	-0.040	0.299
-240.917	418.897	-0.134	-0.284
-239.903	-80.177	-0.274	-0.091
-238.888	404.106	0.110	0.229
-237.873	81.483	0.041	-0.043
-236.859	-99.669	0.171	0.042
-235.844	91.290	-0.239	0.266
-234.830	135.502	0.048	0.061
-233.815	-200.000	-0.026	-0.139
-232.800	-19.393	-0.241	0.147
-231.786	-163.488	-0.404	0.019
-230.771	-172.925	-0.163	-0.005
-229.757	-163.136	0.107	-0.005
-228.742	323.968	-0.024	-0.045
-227.727	243.719	0.153	-0.254
-226.713	-61.066	0.073	-0.031
-225.698	-91.536	0.155	0.044
-224.684	-67.018	0.371	0.145
-223.669	800.000	0.069	0.297
-222.655	86.173	-0.091	0.099
-221.640	-2.216	-0.339	-0.235
-220.625	-200.000	0.025	0.227
-219.611	-132.126	0.254	0.033
-218.596	-83.818	-0.273	-0.086
-217.582	-200.000	0.022	0.197
-216.567	-90.936	0.121	0.034
-215.552	-170.920	0.282	-0.010
-214.538	35.421	0.152	0.132
-213.523	-183.838	0.104	0.002
-212.509	-104.407	-0.083	-0.019
-211.494	-46.439	0.227	-0.110
-210.479	-90.185	0.236	0.068
-209.465	-57.183	0.077	0.034
-208.450	-200.000	0.054	0.459
-207.436	-200.000	0.019	-0.137
-206.421	-200.000	0.003	0.194
-205.406	557.292	-0.044	-0.104
-204.392	54.613	0.168	-0.160
-203.377	-1.644	0.202	-0.141
-202.363	-107.767	0.095	0.021
-201.348	-114.750	0.153	0.029
-200.333	15.922	-0.051	-0.040
-199.319	-200.000	0.112	0.525
-198.304	-178.460	-0.348	-0.008
-197.290	81.075	-0.031	-0.033
-196.275	-200.000	-0.036	-0.198
-195.260	-119.393	-0.165	0.028
-194.246	110.077	-0.124	0.147
-193.231	-177.659	0.268	-0.006
-192.217	-120.852	0.116	-0.019
-191.202	-200.000	0.031	0.216
-190.187	673.531	0.062	0.158
-189.173	15.184	-0.113	0.087
-188.158	740.459	0.081	0.215
-187.144	-78.379	0.358	0.121
-186.129	103.929	-0.074	-0.086
-185.114	-42.995	-0.200	-0.100
-184.100	198.486	0.101	0.152
-183.085	800.000	-0.063	-0.209
-182.071	-200.000	-0.067	-0.332
-181.056	-53.657	0.156	0.071
-180.042	20.718	0.243	-0.194
-179.027	-120.448	0.197	0.033
-178.012	800.000	-0.090	-0.345
-176.998	800.000	0.039	0.164
-175.983	438.267	-0.179	-0.386
-174.969	-200.000	-0.001	-0.112
-173.954	583.802	-0.040	0.098
-172.939	-114.720	0.255	0.048
-171.925	173.002	0.098	0.140
-170.910	-200.000	-0.010	0.105
-169.896	212.254	0.032	-0.049
-168.881	755.244	0.066	0.175
-167.866	43.489	0.333	0.300
-166.852	-200.000	-0.013	0.082
-165.837	800.000	0.041	0.132
-164.823	-115.018	0.316	0.059
-163.808	62.209	0.126	0.124
-162.793	115.014	-0.225	-0.271
-161.779	-76.750	0.397	-0.137
-160.764	-200.000	0.054	-0.282
-159.750	80.275	0.111	-0.118
-158.735	-2.927	0.426	0.293
-157.720	44.039	-0.249	0.225
-156.706	-200.000	-0.021	-0.127
-155.691	800.000	-0.055	-0.199
-154.677	569.892	-0.095	-0.227
-153.662	-34.234	0.172	0.093
-152.647	56.301	-0.129	0.124
-151.633	800.000	0.093	0.260
-150.618	-102.571	-0.124	-0.029
-149.604	-200.000	-0.035	0.291
-148.589	63.217	0.127	0.125
-147.574	90.814	0.124	0.137
-146.560	-96.039	0.223	0.058
-145.545	-59.576	-0.256	0.108
-144.531	-25.506	-0.107	-0.062
-143.516	-74.062	0.175	0.062
-142.502	-86.985	0.075	0.023
-141.487	55.845	-0.085	0.081
-140.472	-49.772	-0.226	-0.106
-139.458	-17.061	0.198	0.123
-138.443	-128.843	-0.116	0.016
-137.429	-200.000	0.029	0.323
-136.414	-58.097	0.189	0.081
-135.399	-7.544	0.111	-0.074
-134.385	-188.385	0.063	-0.001
-133.370	319.822	-0.167	-0.311
-132.356	114.055	0.045	0.053
-131.341	38.542	-0.264	0.232
-130.326	318.437	0.194	0.362
-129.312	-81.744	0.105	0.034
-128.297	357.158	-0.035	0.069
-127.283	800.000	-0.024	-0.085
-126.268	300.291	0.107	-0.195
-125.253	-99.818	-0.306	-0.075
-124.239	-200.000	0.027	0.137
-123.224	-200.000	-0.058	0.259
-122.210	355.463	0.043	0.084
-121.195	-128.776	0.047	0.007
-120.180	-74.914	-0.223	0.079
-119.166	-144.858	0.147	0.013
-118.151	131.088	-0.193	0.245
-117.137	800.000	0.085	0.292
-116.122	94.024	-0.103	0.115
-115.107	-16.056	0.106	-0.067
-114.093	-27.470	0.205	0.117
-113.078	-113.028	0.148	0.029
-112.064	-65.926	-0.298	0.117
-111.049	-84.410	0.250	-0.078
-110.034	-72.191	-0.543	-0.198
-109.020	-20.030	0.056	0.034
-108.005	800.000	-0.064	0.226
-106.991	-56.033	-0.227	0.100
-105.976	-200.000	0.033	0.337
-104.962	-98.876	-0.081	-0.020
-103.947	-200.000	0.163	-0.000
-102.932	189.434	-0.048	-0.070
-101.918	-165.635	0.178	-0.008
-100.903	68.485	0.319	0.322
-99.889	224.327	0.039	0.061
-98.874	-200.000	0.080	-0.366
-97.859	800.000	-0.088	-0.380
-96.845	-123.386	0.094	-0.015
-95.830	38.077	-0.119	-0.104
-94.816	22.747	0.321	0.258
-93.801	774.769	-0.080	-0.215
-92.786	-105.460	-0.124	0.028
-91.772	229.525	0.064	-0.103
-90.757	-103.992	0.404	0.093
-89.743	302.881	-0.101	0.184
-88.728	-131.977	0.159	0.020
-87.713	151.281	-0.077	0.103
-86.699	-47.503	-0.055	-0.026
-85.684	-200.000	0.047	0.243
-84.670	415.200	0.080	0.168
-83.655	-85.127	-0.310	0.095
-82.640	-115.071	0.153	-0.029
-81.626	-58.269	0.113	-0.048
-80.611	21.324	-0.336	0.268
-79.597	-18.655	0.523	-0.320
-78.582	-66.921	0.316	-0.123
-77.567	-139.074	-0.301	0.032
-76.553	480.880	-0.067	0.150
-75.538	382.213	-0.114	-0.230
-74.524	238.319	0.073	0.119
-73.509	-48.814	0.181	0.085
-72.494	-129.118	-0.292	0.040
-71.480	-49.963	0.368	0.172
-70.465	583.297	-0.006	0.015
-69.451	85.010	0.100	-0.108
-68.436	288.365	0.082	0.146
-67.422	-200.000	-0.010	-0.224
-66.407	-142.978	-0.114	0.011
-65.392	40.011	0.270	-0.238
-64.378	-200.000	-0.006	0.125
-63.363	8.443	-0.162	0.120
-62.349	-1.962	0.228	0.157
-61.334	-26.012	-1.154	-0.667
-60.319	685.497	0.163	0.418
-59.305	-200.000	-0.094	-0.955
-58.290	207.948	0.598	0.917
-57.276	717.027	0.570	1.486
-56.261	-200.000	103.148	598.318
-55.246	562.212	1439.301	3418.726
-54.232	185.099	2637.672	3842.505
-53.217	110.392	2283.259	2693.580
-52.203	39.850	1898.157	1672.849
-51.188	33.674	1686.769	1439.802
-50.173	31.104	1642.841	1383.229
-49.159	49.843	1694.413	1568.167
-48.144	50.614	1710.624	1588.915
-47.130	33.273	1669.575	1421.885
-46.115	30.608	1654.949	1389.490
-45.100	30.410	1650.131	1383.917
-44.086	30.425	1647.480	1381.748
-43.071	30.399	1644.686	1379.160
-42.057	30.428	1642.074	1377.133
-41.042	30.444	1639.892	1375.368
-40.027	30.484	1638.231	1374.212
-39.013	30.331	1636.867	1371.882
-37.998	30.397	1635.279	1370.985
-36.984	30.449	1633.284	1369.640
-35.969	30.474	1632.275	1368.928
-34.954	30.658	1630.406	1368.658
-33.940	30.494	1628.867	1366.106
-32.925	30.503	1627.656	1365.100
-31.911	30.543	1625.246	1363.323
-30.896	30.465	1623.884	1361.550
-29.881	30.465	1622.560	1360.389
-28.867	30.424	1620.652	1358.433
-27.852	30.515	1618.712	1357.418
-26.838	30.437	1617.406	1355.698
-25.823	30.541	1616.100	1355.311
-24.809	30.513	1614.860	1354.009
-23.794	30.504	1613.479	1352.736
-22.779	30.536	1611.977	1351.653
-21.765	30.459	1610.994	1350.218
-20.750	30.521	1608.701	1348.693
-19.736	30.562	1607.241	1347.715
-18.721	30.538	1606.210	1346.618
-17.706	30.518	1604.505	1344.995
-16.692	30.459	1603.203	1343.418
-15.677	30.579	1601.468	1342.778
-14.663	30.575	1600.214	1341.649
-13.648	30.553	1598.787	1340.237
-12.633	30.540	1597.282	1338.827
-11.619	30.486	1596.108	1337.403
-10.604	30.425	1594.581	1335.636
-9.590	30.462	1593.194	1334.683
-8.575	30.623	1591.766	1334.593
-7.560	30.583	1590.572	1333.251
-6.546	30.603	1589.084	1332.091
-5.531	30.516	1588.370	1330.822
-4.517	30.481	1587.420	1329.717
-3.502	30.468	1586.368	1328.691
-2.487	30.666	1584.168	1328.209
-1.473	30.247	1572.727	1315.594
-0.458	27.557	1553.780	1280.816
0.556	23.332	1554.725	1250.251
1.571	21.034	1579.473	1253.549
2.586	20.679	1592.100	1260.886
3.600	18.378	1539.326	1202.838
4.615	11.378	1432.514	1073.377
5.629	5.643	1371.656	991.466
6.644	4.860	1364.592	981.343
7.659	4.793	1362.921	979.632
8.673	4.724	1362.245	978.628
9.688	4.693	1360.090	976.795
10.702	4.649	1357.328	974.451
11.717	7.339	1362.472	994.958
12.731	14.323	1374.692	1047.874
13.746	18.710	1381.683	1080.794
14.761	18.559	1380.748	1079.012
15.775	17.605	1378.025	1070.795
16.790	16.552	1375.360	1062.028
17.804	15.757	1372.945	1055.079
18.819	15.342	1371.816	1051.517
19.834	15.112	1370.423	1048.919
20.848	14.829	1369.351	1046.231
21.863	14.658	1367.376	1043.565
22.877	14.475	1366.942	1041.993
23.892	14.507	1365.893	1041.301
24.907	14.427	1364.811	1039.888
25.921	14.512	1364.056	1039.752
26.936	14.524	1362.944	1038.886
27.950	14.627	1362.076	1038.772
28.965	14.605	1361.353	1037.994
29.980	14.760	1359.526	1037.473
30.994	14.767	1358.975	1036.999
32.009	14.832	1357.368	1036.087
33.023	14.797	1356.516	1035.127
34.038	14.750	1354.668	1033.333
35.053	14.659	1353.789	1032.014
36.067	14.780	1352.296	1031.529
37.082	14.645	1351.904	1030.307
38.096	14.715	1351.299	1030.183
39.111	14.732	1350.006	1029.211
40.126	14.691	1349.258	1028.299
41.140	14.604	1348.310	1026.952
42.155	14.484	1347.706	1025.661
43.169	14.346	1347.705	1024.718
44.184	14.408	1347.514	1024.868
45.199	14.366	1347.166	1024.252
46.213	14.501	1346.737	1024.666
47.228	14.704	1345.028	1024.517
48.242	14.637	1344.085	1023.300
49.257	14.555	1343.485	1022.247
50.271	14.625	1341.315	1020.936
51.286	14.545	1340.491	1019.729
52.301	14.653	1338.672	1018.917
53.315	14.589	1337.568	1017.596
54.330	14.480	1336.620	1016.118
55.344	14.481	1335.509	1015.193
56.359	14.461	1334.779	1014.426
57.374	14.561	1333.742	1014.154
58.388	14.411	1333.141	1012.695
59.403	14.307	1332.864	1011.761
60.417	14.283	1332.070	1010.926
61.432	14.302	1331.061	1010.187
62.447	14.330	1330.007	1009.464
63.461	14.257	1328.621	1007.882
64.476	14.310	1327.560	1007.310
65.490	14.343	1326.340	1006.496
66.505	14.373	1324.665	1005.314
67.520	14.309	1323.961	1004.304
68.534	14.396	1322.343	1003.515
69.549	14.368	1321.326	1002.484
70.563	14.243	1320.740	1001.201
71.578	14.286	1319.082	1000.115
72.593	14.287	1318.647	999.701
73.607	14.190	1317.847	998.423
74.622	14.196	1317.111	997.814
75.636	14.234	1316.608	997.573
76.651	14.256	1315.644	996.887
77.666	14.155	1315.536	996.112
78.680	14.123	1315.361	995.701
79.695	14.240	1314.284	995.495
80.709	14.413	1313.053	995.509
81.724	14.556	1312.109	995.559
82.739	14.424	1311.753	994.409
83.753	14.515	1310.924	994.236
84.768	14.565	1309.711	993.528
85.782	14.730	1308.468	993.480
86.797	14.606	1307.478	991.904
87.812	14.547	1306.262	990.542
88.826	14.587	1305.193	989.879
89.841	14.620	1304.157	989.201
90.855	14.539	1303.504	988.138
91.870	14.663	1302.108	987.730
92.884	14.826	1300.930	987.710
93.899	14.821	1300.481	987.250
94.914	14.719	1300.285	986.413
95.928	14.817	1298.843	985.813
96.943	14.692	1298.465	984.702
97.957	14.663	1297.354	983.600
98.972	14.707	1296.329	982.992
99.987	14.659	1295.362	981.890
101.001	14.731	1293.899	981.117
102.016	14.698	1293.254	980.348
103.030	14.721	1292.250	979.633
104.045	14.615	1291.954	978.704
105.060	14.565	1290.041	976.876
106.074	14.537	1288.331	975.332
107.089	14.369	1287.525	973.653
108.103	14.387	1285.976	972.496
109.118	14.357	1284.864	971.397
110.133	14.472	1283.310	970.803
111.147	14.278	1282.556	969.019
112.162	14.415	1281.497	968.933
113.176	14.489	1280.191	968.287
114.191	14.581	1278.756	967.651
115.206	14.427	1278.170	966.232
116.220	14.499	1276.561	965.344
117.235	14.469	1275.625	964.379
118.249	14.510	1274.555	963.721
119.264	14.475	1273.257	962.449
120.279	14.330	1272.845	961.217
121.293	14.354	1271.491	960.249
122.308	14.318	1270.759	959.405
123.322	14.350	1269.514	958.564
124.337	14.383	1268.329	957.770
125.352	14.381	1267.159	956.792
126.366	14.421	1266.016	956.076
127.381	14.328	1265.293	954.913
128.395	14.350	1264.041	954.007
129.410	14.448	1262.835	953.571
130.424	14.456	1262.646	953.391
131.439	14.511	1261.619	952.845
132.454	14.488	1260.727	951.957
133.468	14.443	1260.090	951.136
134.483	14.461	1258.968	950.305
135.497	14.458	1257.730	949.271
136.512	14.570	1256.488	948.888
137.527	14.471	1255.449	947.454
138.541	14.512	1254.024	946.530
139.556	14.569	1252.856	945.886
140.570	14.660	1251.789	945.513
141.585	14.699	1250.619	944.766
142.600	14.765	1249.244	944.019
143.614	14.703	1248.543	943.055
144.629	14.798	1247.572	942.774
145.643	14.727	1246.319	941.344
146.658	14.647	1245.083	939.876
147.673	14.664	1243.418	938.630
148.687	14.452	1242.658	936.782
149.702	14.609	1241.142	936.436
150.716	14.552	1240.087	935.242
151.731	14.555	1238.837	934.233
152.746	14.589	1237.897	933.628
153.760	14.614	1236.653	932.752
154.775	14.673	1235.401	932.049
155.789	14.698	1234.758	931.626
156.804	14.823	1233.891	931.585
157.819	14.847	1232.403	930.511
158.833	14.792	1231.616	929.531
159.848	14.971	1230.493	929.595
160.862	14.882	1230.220	928.811
161.877	14.832	1228.213	926.936
162.892	14.730	1227.565	925.803
163.906	14.769	1226.828	925.378
164.921	14.676	1226.220	924.323
165.935	14.818	1224.961	924.076
166.950	14.801	1224.489	923.543
167.964	14.806	1223.881	923.035
168.979	14.824	1223.006	922.393
169.994	14.846	1221.967	921.650
171.008	14.840	1221.164	920.928
172.023	14.800	1220.768	920.329
173.037	14.913	1219.968	920.265
174.052	14.972	1218.843	919.659
175.067	14.926	1217.761	918.509
176.081	14.855	1216.295	916.932
177.096	14.740	1215.691	915.765
178.110	14.932	1214.852	916.105
179.125	14.857	1213.401	914.515
180.140	14.708	1212.643	913.053
181.154	14.861	1211.476	912.929
182.169	14.962	1209.786	912.122
183.183	14.963	1209.149	911.570
184.198	14.947	1208.195	910.683
185.213	15.017	1206.532	909.730
186.227	15.086	1205.631	909.340
187.242	15.122	1204.258	908.422
188.256	15.120	1203.781	907.972
189.271	15.135	1202.495	907.003
190.286	15.015	1201.608	905.606
191.300	14.836	1201.117	904.184
192.315	14.744	1200.218	902.928
193.329	14.846	1199.283	902.697
194.344	14.777	1198.990	902.027
195.359	14.935	1198.716	902.594
196.373	15.030	1197.856	902.374
197.388	15.030	1197.797	902.253
198.402	15.157	1197.257	902.449
199.417	15.338	1195.811	902.254
200.432	15.437	1195.278	902.302
201.446	15.320	1194.819	901.247
202.461	15.444	1193.692	900.985
203.475	15.437	1192.618	900.058
204.490	15.299	1191.555	898.434
205.504	15.303	1190.482	897.570
206.519	15.317	1188.862	896.345
207.534	15.312	1187.904	895.515
208.548	15.250	1187.163	894.545
209.563	15.273	1186.562	894.138
210.577	15.328	1185.542	893.580
211.592	15.358	1184.495	892.873
212.607	15.544	1183.651	893.147
213.621	15.527	1183.090	892.555
214.636	15.496	1182.136	891.592
215.650	15.373	1181.579	890.440
216.665	15.540	1180.449	890.396
217.680	15.546	1179.489	889.625
218.694	15.618	1178.917	889.492
219.709	15.503	1177.934	888.068
220.723	15.520	1177.392	887.668
221.738	15.430	1176.969	886.798
222.753	15.597	1175.759	886.688
223.767	15.571	1175.140	886.004
224.782	15.639	1174.652	885.919
225.796	15.681	1173.728	885.364
226.811	15.686	1172.834	884.634
227.826	15.708	1172.391	884.338
228.840	15.695	1171.454	883.488
229.855	15.583	1170.933	882.429
230.869	15.616	1170.200	881.969
231.884	15.765	1168.978	881.750
232.899	15.536	1168.378	880.019
233.913	15.589	1167.221	879.351
234.928	15.643	1166.727	879.183
235.942	15.524	1166.255	878.127
236.957	15.467	1165.660	877.304
237.972	15.552	1164.679	876.930
238.986	15.607	1164.006	876.633
240.001	15.518	1163.425	875.651
241.015	15.582	1162.360	875.109
242.030	15.595	1161.662	874.574
243.045	15.742	1160.960	874.729
244.059	15.668	1160.493	873.919
245.074	15.695	1159.243	873.039
246.088	15.637	1158.699	872.249
247.103	15.786	1157.958	872.386
248.117	15.869	1157.118	872.110
249.132	15.994	1156.506	872.217
250.147	16.041	1156.037	872.028
251.161	16.187	1155.055	871.964
252.176	16.163	1154.325	871.215
253.190	16.191	1153.758	870.855
254.205	16.128	1153.428	870.200
255.220	16.229	1152.658	870.063
256.234	16.208	1152.256	869.579
257.249	16.228	1151.593	869.104
258.263	16.247	1150.771	868.500
259.278	16.257	1150.147	868.008
260.293	16.278	1149.646	867.658
261.307	16.451	1148.734	867.781
262.322	16.261	1148.342	866.435
263.336	16.286	1147.587	865.916
264.351	16.320	1147.088	865.637
265.366	16.335	1146.882	865.482
266.380	16.421	1145.813	865.037
267.395	16.396	1144.438	863.795
268.409	16.324	1143.849	862.906
269.424	16.243	1143.460	862.123
270.439	16.317	1142.946	862.038
271.453	16.315	1141.952	861.201
272.468	16.352	1141.152	860.709
273.482	16.319	1140.027	859.617
274.497	16.394	1139.650	859.639
275.512	16.318	1139.067	858.737
276.526	16.457	1138.018	858.577
277.541	16.373	1137.839	857.938
278.555	16.402	1136.677	857.135
279.570	16.467	1136.122	856.968
280.585	16.507	1135.475	856.608
281.599	16.472	1134.667	855.748
282.614	16.494	1133.278	854.735
283.628	16.344	1132.449	853.273
284.643	16.329	1131.797	852.632
285.657	16.539	1130.690	852.780
286.672	16.450	1129.607	851.443
287.687	16.436	1128.987	850.829
288.701	16.563	1128.005	850.650
289.716	16.599	1127.431	850.322
290.730	16.535	1126.729	849.399
291.745	16.571	1126.304	849.183
292.760	16.621	1125.557	848.796
293.774	16.703	1124.473	848.314
294.789	16.689	1124.127	847.911
295.803	16.733	1123.794	847.805
296.818	16.602	1122.894	846.393
297.833	16.743	1121.704	846.127
298.847	16.715	1121.368	845.659
299.862	16.715	1120.529	844.948
300.876	16.748	1120.044	844.672
301.891	16.788	1119.454	844.356
302.906	16.865	1118.555	843.987
303.920	16.867	1117.932	843.449
304.935	16.960	1117.306	843.367
305.949	17.074	1116.442	843.205
306.964	17.036	1116.024	842.627
307.979	16.991	1115.081	841.614
308.993	16.978	1114.571	841.092
310.008	16.989	1113.677	840.398
311.022	16.963	1113.164	839.806
312.037	16.992	1112.372	839.281
313.052	16.909	1111.386	838.049
314.066	16.852	1110.517	837.038
315.081	16.837	1109.624	836.217
316.095	16.844	1108.551	835.372
317.110	16.908	1108.099	835.272
318.125	16.761	1107.571	834.073
319.139	16.843	1106.608	833.681
320.154	16.915	1105.835	833.378
321.168	16.886	1105.560	832.955
322.183	16.849	1105.153	832.394
323.197	16.996	1104.457	832.517
324.212	16.984	1103.924	831.980
325.227	16.969	1103.284	831.351
326.241	16.947	1102.752	830.769
327.256	16.982	1101.687	830.065
328.270	17.054	1100.306	829.304
329.285	16.883	1100.251	828.354
330.300	16.963	1098.903	827.653
331.314	17.004	1098.244	827.287
332.329	17.071	1097.226	826.771
333.343	17.065	1096.236	825.922
334.358	17.132	1095.202	825.395
335.373	17.160	1094.523	824.946
336.387	17.218	1093.791	824.607
337.402	17.307	1093.160	824.486
338.416	17.243	1092.634	823.707
339.431	17.279	1091.826	823.201
340.446	17.309	1091.512	823.038
341.460	17.381	1091.014	822.935
342.475	17.525	1089.683	822.555
343.489	17.451	1089.379	821.894
344.504	17.667	1087.898	821.749
345.519	17.494	1087.400	820.465
346.533	17.552	1086.766	820.192
347.548	17.556	1085.647	819.295
348.562	17.615	1084.969	818.993
349.577	17.385	1084.616	817.551
350.592	17.444	1083.523	816.938
351.606	17.447	1082.553	816.149
352.621	17.545	1081.838	816.008
353.635	17.368	1081.417	814.770
354.650	17.347	1080.675	814.036
355.665	17.444	1079.769	813.748
356.679	17.394	1079.431	813.178
357.694	17.358	1079.113	812.698
358.708	17.561	1078.053	812.795
359.723	17.594	1077.490	812.457
360.738	17.659	1076.961	812.296
361.752	17.594	1076.233	811.367
362.767	17.559	1075.458	810.542
363.781	17.661	1075.073	810.666
364.796	17.675	1074.528	810.248
365.810	17.719	1074.351	810.255
366.825	17.754	1073.728	809.880
367.840	17.755	1073.021	809.277
368.854	17.930	1072.449	809.605
369.869	17.875	1071.381	808.466
370.883	17.849	1070.633	807.707
371.898	17.764	1069.768	806.579
372.913	17.846	1069.650	806.807
373.927	17.917	1069.206	806.737
374.942	17.848	1068.522	805.826
375.956	17.758	1068.226	805.108
376.971	17.891	1067.276	804.945
377.986	17.940	1066.834	804.771
379.000	18.060	1066.435	804.964
380.015	17.997	1066.024	804.285
381.029	18.077	1065.195	803.966
382.044	18.116	1064.353	803.445
383.059	18.174	1063.523	803.018
384.073	18.168	1062.508	802.153
385.088	18.105	1061.679	801.161
386.102	18.072	1061.088	800.490
387.117	18.095	1060.016	799.715
388.132	18.016	1059.166	798.634
389.146	17.926	1058.580	797.701
390.161	18.051	1057.857	797.671
391.175	18.054	1057.023	796.987
392.190	18.240	1056.140	797.117
393.205	18.165	1055.652	796.329
394.219	18.155	1054.568	795.391
395.234	18.224	1053.780	795.048
396.248	18.156	1052.524	793.714
397.263	18.168	1051.413	792.863
398.278	18.056	1051.211	792.122
399.292	18.021	1050.632	791.451
400.307	17.962	1049.940	790.589
401.321	18.006	1049.239	790.193
402.336	18.028	1048.771	789.874
403.350	17.912	1047.989	788.680
404.365	17.967	1047.526	788.515
405.380	18.139	1046.743	788.650
406.394	18.037	1045.859	787.441
407.409	18.270	1044.871	787.703
408.423	18.346	1044.201	787.478
409.438	18.363	1043.662	787.078
410.453	18.561	1042.819	787.283
411.467	18.442	1042.526	786.443
412.482	18.448	1042.101	786.082
413.496	18.469	1041.136	785.381
414.511	18.494	1040.586	785.009
415.526	18.632	1040.145	785.241
416.540	18.664	1039.597	784.905
417.555	18.672	1038.883	784.330
418.569	18.756	1038.103	784.057
419.584	18.584	1037.854	783.015
420.599	18.687	1037.413	783.085
421.613	150.220	1402.405	1795.193
422.628	137.242	1455.569	1795.293
