DTS Sentinel unit serial number:	SN413079Multiplexer serial number:	ORYXHardware model number:	OX4-SRSoftware version number:	ORYX F/W v4.00 Oryx Data Collector v3.7.2.0data status	okinstallation	princeton_trtdifferential loss correction	single-endedforward channel	channel 2reverse channel	N/Adate	2019/09/15time	10:31:34forward acquisition time	60.00reverse acquisition time	0.00gamma	496.2192k internal	0.2315k external	0.2315temperature offset calibration	1.0016default loss term (dB/km)	0.3790temperature slope calibration	1.0000multiplexer offset coefficient	1.0000multiplexer slope coefficient	1.0000fibre end	0.00T internal ref (°C)	34.23T ext. ref 1 (°C)	5.04T ext. ref 2 (°C)	29.49length (m)	temperature (°C)	Stokes	anti-Stokes-747.200	-200.000	0.009	0.235
-746.185	67.814	0.036	0.038
-745.171	-119.411	-0.132	0.023
-744.156	163.430	-0.187	0.267
-743.142	78.699	0.049	0.053
-742.127	-200.000	-0.004	0.240
-741.112	41.316	-0.153	0.141
-740.098	800.000	-0.025	-0.089
-739.083	-200.000	0.039	-0.288
-738.069	-31.995	0.032	0.018
-737.054	-21.041	-0.103	0.064
-736.039	-200.000	-0.007	-0.079
-735.025	-200.000	0.084	0.416
-734.010	161.058	0.157	-0.223
-732.996	304.303	-0.259	0.487
-731.981	-0.815	-0.298	-0.214
-730.966	149.214	-0.137	-0.188
-729.952	84.756	0.089	0.099
-728.937	-74.596	0.470	0.171
-727.923	800.000	-0.042	-0.121
-726.908	800.000	-0.059	0.175
-725.894	-200.000	0.006	-0.251
-724.879	-200.000	-0.059	-0.367
-723.864	-200.000	0.009	0.066
-722.850	-158.699	-0.283	-0.016
-721.835	800.000	-0.036	0.112
-720.821	-127.461	-0.255	-0.038
-719.806	-200.000	0.033	0.208
-718.791	78.960	-0.205	-0.222
-717.777	234.616	-0.109	0.182
-716.762	-190.513	0.108	0.001
-715.748	-106.728	-0.237	-0.053
-714.733	-200.000	-0.054	-0.325
-713.718	292.734	-0.154	0.285
-712.704	77.423	-0.095	0.103
-711.689	57.082	-0.221	-0.218
-710.675	57.401	-0.296	-0.292
-709.660	800.000	-0.089	-0.347
-708.645	-200.000	0.015	0.229
-707.631	302.225	-0.077	-0.144
-706.616	20.045	0.092	0.075
-705.602	-155.336	-0.285	0.019
-704.587	800.000	0.015	0.051
-703.572	800.000	0.027	-0.091
-702.558	-200.000	0.037	-0.312
-701.543	-200.000	-0.013	-0.200
-700.529	14.550	0.412	0.326
-699.514	157.629	0.109	-0.153
-698.499	-148.491	-0.045	0.004
-697.485	-200.000	0.019	0.210
-696.470	-89.922	-0.188	-0.056
-695.456	-37.886	0.100	-0.054
-694.441	189.112	0.188	0.285
-693.426	-24.333	-0.053	-0.032
-692.412	12.624	-0.171	0.134
-691.397	31.848	-0.136	-0.119
-690.383	-200.000	-0.016	-0.223
-689.368	-38.730	-0.271	-0.144
-688.354	-200.000	0.014	-0.383
-687.339	-154.467	-0.188	-0.013
-686.324	-200.000	0.007	-0.066
-685.310	-89.233	-0.193	-0.058
-684.295	-106.452	-0.260	-0.059
-683.281	-200.000	-0.006	-0.228
-682.266	-83.740	-0.154	0.050
-681.251	81.322	0.101	-0.110
-680.237	260.958	0.068	-0.118
-679.222	-200.000	0.031	-0.200
-678.208	62.109	-0.251	-0.253
-677.193	800.000	0.134	-0.453
-676.178	80.788	0.170	-0.185
-675.164	-200.000	0.049	-0.238
-674.149	800.000	-0.058	0.246
-673.135	-200.000	-0.034	-0.203
-672.120	-200.000	-0.020	0.147
-671.105	-45.240	0.159	0.080
-670.091	-37.179	0.052	0.028
-669.076	159.762	0.102	0.143
-668.062	-119.018	-0.260	0.046
-667.047	19.707	-0.065	-0.053
-666.032	-134.848	0.090	0.011
-665.018	-200.000	-0.064	0.285
-664.003	-102.775	0.196	-0.047
-662.989	-32.390	-0.102	-0.057
-661.974	91.906	-0.038	-0.044
-660.959	-130.551	-0.197	0.027
-659.945	-200.000	-0.026	-0.232
-658.930	-85.243	-0.221	0.070
-657.916	-39.314	-0.186	-0.099
-656.901	-182.803	-0.033	0.001
-655.886	-200.000	-0.044	0.407
-654.872	-3.322	0.283	-0.199
-653.857	-200.000	-0.020	-0.143
-652.843	-200.000	0.081	0.441
-651.828	524.207	0.161	0.382
-650.814	-104.803	0.164	-0.038
-649.799	-105.748	0.142	-0.032
-648.784	214.700	0.112	-0.179
-647.770	-64.290	-0.196	-0.080
-646.755	-200.000	0.016	-0.078
-645.741	124.186	0.150	-0.190
-644.726	-21.216	-0.281	-0.173
-643.711	-166.969	0.036	0.001
-642.697	100.420	-0.100	-0.117
-641.682	800.000	-0.124	-0.396
-640.668	64.482	0.085	-0.087
-639.653	233.048	-0.028	-0.046
-638.638	137.751	-0.150	0.199
-637.624	58.368	-0.110	-0.108
-636.609	57.827	0.106	0.105
-635.595	-68.082	-0.214	-0.084
-634.580	800.000	-0.035	-0.122
-633.565	-200.000	-0.017	-0.174
-632.551	-200.000	-0.001	-0.097
-631.536	127.173	0.098	0.125
-630.522	-104.925	0.252	-0.058
-629.507	162.636	0.330	-0.467
-628.492	-200.000	0.077	-0.344
-627.478	-129.200	-0.293	0.041
-626.463	280.047	0.073	0.132
-625.449	142.512	-0.168	0.226
-624.434	212.885	-0.168	0.267
-623.419	-60.713	0.013	-0.005
-622.405	-34.745	0.489	0.270
-621.390	60.342	-0.184	0.183
-620.376	-84.100	-0.156	0.050
-619.361	800.000	-0.047	0.138
-618.346	1.889	0.255	-0.186
-617.332	-36.223	-0.193	-0.105
-616.317	-74.810	0.169	0.061
-615.303	-152.411	-0.198	0.014
-614.288	800.000	0.073	0.290
-613.273	-80.063	0.069	0.023
-612.259	-16.512	-0.376	-0.240
-611.244	-200.000	-0.003	-0.167
-610.230	-40.064	-0.021	-0.011
-609.215	-35.033	-0.104	0.057
-608.201	-200.000	0.042	0.329
-607.186	239.395	0.065	-0.108
-606.171	128.742	0.101	-0.130
-605.157	-90.141	0.233	0.068
-604.142	612.787	0.101	-0.256
-603.128	164.528	0.074	-0.105
-602.113	-99.306	-0.239	0.061
-601.098	-200.000	-0.011	-0.214
-600.084	-11.473	-0.193	0.128
-599.069	-51.706	-0.392	0.184
-598.055	492.553	-0.154	0.356
-597.040	86.424	0.095	-0.105
-596.025	-127.495	-0.239	-0.035
-595.011	800.000	-0.067	-0.203
-593.996	-200.000	0.022	0.255
-592.982	-74.025	0.257	0.094
-591.967	-200.000	-0.031	0.234
-590.952	-10.275	0.261	0.174
-589.938	75.408	0.127	0.135
-588.923	-70.320	0.192	0.073
-587.909	-200.000	-0.020	-0.141
-586.894	-60.207	-0.236	0.101
-585.879	591.583	-0.091	0.227
-584.865	-200.000	-0.100	-0.496
-583.850	-200.000	-0.040	-0.249
-582.836	-147.777	0.370	-0.031
-581.821	-200.000	-0.222	0.001
-580.806	-52.270	0.134	0.062
-579.792	-4.410	0.322	-0.224
-578.777	-77.498	0.080	0.028
-577.763	28.291	-0.126	0.107
-576.748	-116.617	0.311	0.058
-575.733	138.529	-0.206	-0.272
-574.719	800.000	-0.108	-0.330
-573.704	-200.000	-0.006	-0.048
-572.690	150.648	0.059	-0.081
-571.675	261.730	0.063	0.109
-570.661	800.000	-0.052	0.183
-569.646	451.050	-0.123	-0.273
-568.631	-177.598	-0.218	0.005
-567.617	-91.097	0.040	0.012
-566.602	-83.391	-0.247	0.080
-565.588	-99.943	-0.329	-0.083
-564.573	137.270	-0.041	-0.055
-563.558	192.485	-0.022	-0.034
-562.544	800.000	-0.056	0.230
-561.529	-19.006	-0.160	-0.100
-560.515	-31.024	0.271	-0.154
-559.500	-200.000	0.043	-0.226
-558.485	82.333	0.323	-0.352
-557.471	-118.347	-0.073	0.013
-556.456	-36.761	0.395	0.213
-555.442	800.000	-0.018	0.051
-554.427	-195.883	-0.104	-0.001
-553.412	5.404	-0.332	0.246
-552.398	-75.791	0.202	-0.072
-551.383	-156.049	0.312	0.020
-550.369	800.000	0.081	0.262
-549.354	-200.000	-0.023	-0.148
-548.339	-83.367	-0.348	-0.112
-547.325	106.569	0.089	-0.106
-546.310	-200.000	0.007	-0.244
-545.296	800.000	-0.075	-0.262
-544.281	63.215	0.112	0.113
-543.266	-59.941	0.076	-0.033
-542.252	-45.340	-0.100	-0.050
-541.237	-62.935	0.250	0.104
-540.223	115.332	0.068	-0.083
-539.208	-5.081	0.092	-0.063
-538.193	603.022	0.091	-0.227
-537.179	186.808	-0.117	-0.176
-536.164	-108.812	0.068	0.015
-535.150	-39.536	-0.186	-0.098
-534.135	148.290	-0.140	-0.189
-533.121	-26.428	-0.103	-0.061
-532.106	-200.000	0.052	0.385
-531.091	-86.695	-0.048	-0.015
-530.077	-200.000	0.004	0.046
-529.062	93.954	0.168	-0.191
-528.048	-121.327	0.150	0.025
-527.033	-53.850	0.165	-0.076
-526.018	90.672	0.179	-0.202
-525.004	290.683	-0.015	-0.027
-523.989	-200.000	0.006	-0.163
-522.975	183.631	-0.096	0.143
-521.960	-26.928	0.112	-0.066
-520.945	-162.638	0.225	-0.011
-519.931	32.922	0.030	0.026
-518.916	-69.517	-0.190	-0.073
-517.902	-200.000	0.022	-0.206
-516.887	21.488	0.212	0.173
-515.872	-200.000	-0.012	0.171
-514.858	-140.142	-0.059	-0.006
-513.843	-188.302	0.175	0.002
-512.829	-95.894	0.073	-0.019
-511.814	349.746	0.185	0.366
-510.799	2.056	0.273	-0.198
-509.785	463.895	-0.130	-0.292
-508.770	636.046	-0.106	0.269
-507.756	429.693	-0.130	0.281
-506.741	253.043	0.120	0.205
-505.726	-200.000	-0.012	0.275
-504.712	-200.000	0.018	-0.491
-503.697	438.175	0.097	-0.212
-502.683	-190.103	0.132	-0.001
-501.668	50.959	0.123	-0.117
-500.653	9.644	0.244	0.185
-499.639	91.859	-0.336	-0.379
-498.624	-171.032	-0.305	0.010
-497.610	-114.244	0.070	-0.014
-496.595	267.126	0.070	-0.123
-495.581	294.776	-0.122	-0.223
-494.566	662.277	0.025	-0.064
-493.551	-102.683	-0.096	0.023
-492.537	800.000	0.070	0.264
-491.522	58.799	-0.113	0.111
-490.508	-98.305	0.222	0.057
-489.493	-146.991	0.222	-0.019
-488.478	-19.222	-0.190	-0.118
-487.464	-25.309	-0.151	-0.090
-486.449	-200.000	0.057	-0.300
-485.435	-14.996	0.159	-0.102
-484.420	-79.345	-0.208	0.071
-483.405	-144.273	-0.314	0.029
-482.391	63.927	0.158	-0.159
-481.376	-106.011	-0.263	0.059
-480.362	-200.000	0.024	0.114
-479.347	-130.862	-0.194	0.026
-478.332	-44.707	0.092	-0.046
-477.318	489.965	-0.151	0.345
-476.303	-200.000	-0.004	0.076
-475.289	-200.000	-0.028	0.182
-474.274	4.451	-0.196	0.144
-473.259	-144.795	-0.282	-0.026
-472.245	-59.548	-0.257	-0.111
-471.230	413.171	0.108	-0.229
-470.216	-0.255	0.252	-0.180
-469.201	-200.000	0.036	-0.294
-468.186	-200.000	-0.001	0.191
-467.172	-83.282	0.044	-0.014
-466.157	-109.108	-0.132	-0.028
-465.143	79.436	0.354	0.380
-464.128	-9.938	0.230	-0.153
-463.113	800.000	-0.056	0.246
-462.099	-200.000	0.003	0.069
-461.084	800.000	-0.106	0.340
-460.070	216.757	-0.134	0.214
-459.055	268.062	-0.126	-0.220
-458.040	-127.879	-0.218	-0.031
-457.026	-82.155	-0.346	-0.113
-456.011	-117.137	-0.237	0.043
-454.997	87.466	0.167	0.186
-453.982	-200.000	0.007	0.390
-452.968	79.141	0.245	-0.263
-451.953	721.154	-0.024	0.065
-450.938	-1.081	-0.205	-0.145
-449.924	185.330	-0.082	-0.121
-448.909	800.000	0.004	0.017
-447.895	-141.721	-0.119	-0.012
-446.880	70.165	0.099	-0.102
-445.865	-200.000	0.020	-0.483
-444.851	-154.262	0.092	-0.006
-443.836	-104.780	-0.163	0.038
-442.822	177.260	-0.088	0.129
-441.807	421.840	0.015	0.031
-440.792	-134.327	0.201	-0.025
-439.778	-69.659	0.235	0.090
-438.763	-200.000	0.056	-0.347
-437.749	-81.860	0.143	0.047
-436.734	531.594	-0.078	-0.185
-435.719	-106.128	0.165	0.037
-434.705	-145.348	0.179	0.016
-433.690	3.617	-0.288	0.210
-432.676	87.660	0.151	0.168
-431.661	-200.000	0.054	-0.271
-430.646	316.762	0.106	0.200
-429.632	-200.000	0.018	0.085
-428.617	236.767	0.043	-0.072
-427.603	62.772	0.262	-0.263
-426.588	-56.500	0.377	-0.167
-425.573	126.482	-0.107	0.136
-424.559	661.000	0.087	0.225
-423.544	-17.292	-0.306	-0.193
-422.530	-166.659	0.204	0.008
-421.515	348.469	0.047	-0.093
-420.500	-200.000	0.062	-0.357
-419.486	-112.183	-0.196	-0.039
-418.471	-200.000	-0.034	-0.213
-417.457	-119.788	0.129	0.022
-416.442	-63.618	-0.169	0.069
-415.428	-200.000	0.006	-0.146
-414.413	598.524	0.006	0.015
-413.398	-131.751	-0.275	0.036
-412.384	800.000	0.046	0.139
-411.369	798.150	-0.101	-0.277
-410.355	-8.766	-0.094	-0.063
-409.340	-136.290	-0.153	0.018
-408.325	638.704	-0.096	0.245
-407.311	800.000	0.079	0.256
-406.296	-200.000	-0.004	0.122
-405.282	800.000	0.026	0.091
-404.267	109.069	0.052	0.062
-403.252	-10.128	0.087	-0.058
-402.238	619.052	-0.073	-0.183
-401.223	-79.302	-0.047	-0.016
-400.209	-89.321	-0.297	-0.087
-399.194	-200.000	-0.020	-0.174
-398.179	800.000	-0.005	-0.019
-397.165	-108.204	0.163	0.035
-396.150	39.191	-0.113	-0.101
-395.136	-102.552	0.097	0.023
-394.121	-200.000	0.036	0.375
-393.106	-45.163	0.117	0.058
-392.092	-200.000	0.049	-0.239
-391.077	-32.362	-0.238	-0.133
-390.063	-200.000	0.001	0.065
-389.048	-112.883	-0.354	-0.070
-388.033	800.000	0.118	-0.381
-387.019	341.718	0.027	-0.053
-386.004	-77.994	-0.186	-0.064
-384.990	-30.805	-0.105	-0.059
-383.975	12.756	-0.126	-0.098
-382.960	-99.305	0.294	-0.074
-381.946	800.000	-0.007	-0.028
-380.931	-39.102	0.166	-0.087
-379.917	268.663	0.172	0.302
-378.902	800.000	-0.109	0.393
-377.888	-29.663	0.035	-0.020
-376.873	-200.000	-0.050	0.228
-375.858	800.000	0.040	0.122
-374.844	-150.226	-0.129	-0.010
-373.829	-58.585	0.059	0.026
-372.815	198.632	0.092	-0.141
-371.800	386.156	-0.135	-0.277
-370.785	-138.262	-0.357	0.039
-369.771	-27.535	0.292	0.169
-368.756	18.709	0.281	-0.225
-367.742	-200.000	0.023	-0.260
-366.727	382.071	0.111	-0.229
-365.712	-64.051	0.037	-0.015
-364.698	179.068	-0.108	-0.158
-363.683	-200.000	-0.012	0.082
-362.669	-170.389	-0.063	-0.002
-361.654	-111.533	0.179	-0.036
-360.639	25.652	0.245	-0.204
-359.625	-101.247	0.418	-0.102
-358.610	84.693	0.209	0.228
-357.596	-200.000	0.003	-0.018
-356.581	-79.549	0.334	-0.113
-355.566	97.023	0.111	-0.127
-354.552	369.702	0.047	-0.094
-353.537	800.000	0.060	0.189
-352.523	140.091	0.008	0.010
-351.508	-200.000	-0.044	-0.199
-350.493	795.315	-0.117	-0.320
-349.479	10.528	0.178	-0.136
-348.464	60.912	-0.156	-0.154
-347.450	-69.420	0.312	0.120
-346.435	0.377	0.175	0.125
-345.420	-200.000	0.017	0.163
-344.406	-16.708	0.514	0.324
-343.391	800.000	-0.047	0.172
-342.377	169.866	-0.114	-0.163
-341.362	-200.000	0.051	-0.225
-340.348	14.438	-0.174	0.136
-339.333	91.241	0.182	-0.204
-338.318	157.903	-0.099	-0.137
-337.304	151.591	0.185	-0.251
-336.289	-200.000	0.004	0.300
-335.275	-200.000	0.048	0.241
-334.260	-140.239	-0.139	-0.015
-333.245	135.625	0.165	0.214
-332.231	43.185	0.206	0.188
-331.216	270.066	-0.152	-0.267
-330.202	-200.000	0.015	0.146
-329.187	-151.931	-0.147	-0.011
-328.172	-40.661	0.255	0.132
-327.158	51.244	-0.214	-0.202
-326.143	412.767	-0.074	0.158
-325.129	-11.264	-0.042	0.027
-324.114	-165.785	-0.169	0.007
-323.099	532.841	-0.012	-0.028
-322.085	-127.311	0.211	0.031
-321.070	-56.311	0.391	-0.173
-320.056	-94.730	0.070	0.019
-319.041	86.599	-0.222	-0.244
-318.026	-170.515	0.184	0.006
-317.012	800.000	-0.012	-0.038
-315.997	-200.000	0.036	-0.174
-314.983	-0.282	-0.141	-0.100
-313.968	-23.782	-0.208	-0.124
-312.953	451.050	-0.138	0.304
-311.939	-64.871	0.146	0.059
-310.924	-133.136	0.320	0.040
-309.910	800.000	-0.124	0.388
-308.895	57.854	0.178	0.173
-307.880	-200.000	-0.021	0.192
-306.866	-76.019	-0.232	0.082
-305.851	107.368	-0.063	-0.074
-304.837	552.549	0.007	0.017
-303.822	-69.432	-0.193	-0.074
-302.807	111.154	0.283	0.339
-301.793	-42.185	-0.206	-0.105
-300.778	-69.041	0.072	0.028
-299.764	-109.334	0.049	0.010
-298.749	347.442	0.178	0.349
-297.735	-200.000	-0.004	-0.173
-296.720	800.000	0.039	-0.133
-295.705	-75.050	-0.110	-0.039
-294.691	-200.000	-0.014	0.089
-293.676	-84.495	-0.173	0.054
-292.662	-200.000	0.037	-0.187
-291.647	185.524	0.195	-0.289
-290.632	770.620	0.093	-0.252
-289.618	-40.307	0.376	-0.195
-288.603	168.824	-0.212	0.300
-287.589	-186.962	-0.108	0.001
-286.574	-117.506	0.230	-0.041
-285.559	-30.103	-0.169	0.096
-284.545	-200.000	-0.028	-0.269
-283.530	-200.000	0.021	0.164
-282.516	-7.208	0.142	0.096
-281.501	-94.325	-0.263	0.072
-280.486	-108.289	0.230	0.049
-279.472	-62.439	-0.272	0.113
-278.457	24.484	0.287	0.236
-277.443	-200.000	0.015	0.108
-276.428	-200.000	0.024	0.172
-275.413	298.749	-0.128	0.234
-274.399	-56.456	0.124	-0.055
-273.384	800.000	-0.076	0.232
-272.370	668.859	-0.157	0.403
-271.355	800.000	0.126	-0.420
-270.340	800.000	0.077	-0.218
-269.326	-143.926	-0.033	-0.003
-268.311	372.619	0.110	-0.222
-267.297	-102.996	-0.201	0.047
-266.282	-22.054	-0.250	0.151
-265.267	-200.000	0.011	0.283
-264.253	24.289	-0.419	-0.344
-263.238	468.575	0.134	-0.298
-262.224	-200.000	0.033	0.346
-261.209	800.000	-0.049	0.160
-260.195	-159.485	-0.254	0.014
-259.180	391.739	0.101	0.209
-258.165	185.170	-0.192	0.284
-257.151	-85.725	-0.308	0.095
-256.136	20.602	-0.125	0.100
-255.122	-51.515	-0.281	0.130
-254.107	40.082	0.076	0.067
-253.092	-200.000	-0.002	-0.035
-252.078	8.345	0.065	0.049
-251.063	-78.052	0.136	-0.047
-250.049	-31.072	-0.242	0.136
-249.034	800.000	-0.075	-0.240
-248.019	-200.000	0.005	-0.235
-247.005	73.424	-0.068	0.070
-245.990	278.864	-0.043	-0.075
-244.976	-200.000	0.069	-0.339
-243.961	9.874	-0.374	0.282
-242.946	-200.000	-0.017	-0.142
-241.932	-200.000	0.007	0.098
-240.917	-126.746	-0.045	0.007
-239.903	-32.258	0.131	0.073
-238.888	-200.000	0.034	-0.195
-237.873	-85.454	0.094	0.029
-236.859	-140.880	-0.161	-0.016
-235.844	-21.575	-0.071	-0.043
-234.830	-140.632	0.373	0.038
-233.815	-200.000	0.005	0.239
-232.800	800.000	-0.066	0.260
-231.786	74.735	-0.267	-0.280
-230.771	420.166	0.224	-0.475
-229.757	-96.624	-0.048	0.013
-228.742	-37.907	-0.209	0.110
-227.727	-132.203	-0.256	0.033
-226.713	-114.120	-0.107	0.020
-225.698	-51.848	-0.050	0.023
-224.684	478.868	0.144	0.324
-223.669	-116.704	-0.530	0.097
-222.655	-110.854	-0.089	0.018
-221.640	-173.131	-0.370	-0.011
-220.625	31.731	0.118	0.101
-219.611	-200.000	-0.004	-0.178
-218.596	100.010	0.051	0.059
-217.582	800.000	-0.090	-0.372
-216.567	119.064	-0.050	-0.062
-215.552	598.996	0.028	-0.069
-214.538	-85.707	0.081	-0.025
-213.523	417.658	0.002	0.004
-212.509	450.751	-0.086	-0.188
-211.494	-8.457	-0.081	0.054
-210.479	50.758	0.050	0.047
-209.465	242.615	0.158	0.263
-208.450	800.000	0.038	-0.160
-207.436	800.000	-0.087	-0.342
-206.421	-200.000	0.025	-0.187
-205.406	-150.455	-0.275	-0.021
-204.392	-29.735	-0.179	0.101
-203.377	679.005	-0.023	-0.060
-202.363	-166.426	0.153	-0.006
-201.348	256.500	-0.160	0.272
-200.333	-108.605	-0.188	0.040
-199.319	65.195	-0.019	-0.019
-198.304	-17.329	0.084	-0.053
-197.290	186.296	-0.256	0.378
-196.275	-200.000	0.042	0.409
-195.260	-150.585	-0.246	0.019
-194.246	-200.000	-0.012	-0.084
-193.231	-21.291	-0.348	0.211
-192.217	-200.000	0.023	-0.207
-191.202	-200.000	-0.008	0.299
-190.187	381.892	0.059	0.120
-189.173	-39.301	0.206	0.107
-188.158	237.997	0.084	0.138
-187.144	-87.219	0.251	0.076
-186.129	-200.000	0.030	-0.169
-185.114	-47.971	-0.187	-0.090
-184.100	6.917	-0.059	-0.044
-183.085	800.000	-0.089	0.251
-182.071	12.833	-0.025	0.019
-181.056	82.580	0.493	0.530
-180.042	103.289	0.243	0.283
-179.027	361.902	0.093	0.185
-178.012	-50.415	-0.191	0.089
-176.998	-130.732	0.312	-0.042
-175.983	228.319	0.333	0.537
-174.969	-111.769	-0.127	-0.026
-173.954	-200.000	0.012	0.133
-172.939	133.674	0.190	0.244
-171.925	-148.608	0.206	-0.017
-170.910	91.143	0.138	0.153
-169.896	238.871	0.166	0.273
-168.881	70.724	-0.125	-0.128
-167.866	-200.000	0.074	0.361
-166.852	407.035	0.076	0.159
-165.837	161.318	0.122	0.170
-164.823	-149.900	-0.370	-0.029
-163.808	69.600	0.108	-0.110
-162.793	373.524	-0.057	-0.115
-161.779	800.000	-0.083	-0.348
-160.764	330.994	0.124	0.237
-159.750	-200.000	-0.011	0.280
-158.735	-200.000	-0.067	-0.375
-157.720	62.510	0.115	-0.114
-156.706	238.307	-0.187	0.308
-155.691	271.489	-0.108	0.188
-154.677	-200.000	-0.010	-0.143
-153.662	-50.910	0.158	0.073
-152.647	253.046	-0.057	0.097
-151.633	-28.143	0.175	-0.100
-150.618	-66.909	0.133	0.052
-149.604	150.138	0.116	-0.156
-148.589	11.833	0.087	-0.066
-147.574	320.438	0.155	-0.291
-146.560	-200.000	0.051	0.261
-145.545	-145.322	0.342	-0.031
-144.531	114.432	0.156	-0.189
-143.516	-200.000	-0.000	0.067
-142.502	-200.000	0.012	0.087
-141.487	-200.000	-0.015	-0.101
-140.472	-200.000	0.011	0.180
-139.458	142.176	-0.128	-0.168
-138.443	-200.000	-0.014	-0.322
-137.429	800.000	0.083	-0.270
-136.414	197.059	0.091	0.137
-135.399	-200.000	0.031	-0.134
-134.385	298.720	0.069	0.126
-133.370	215.593	0.111	0.174
-132.356	760.150	-0.048	-0.130
-131.341	-200.000	0.008	-0.046
-130.326	-49.020	0.147	-0.069
-129.312	747.181	-0.090	-0.239
-128.297	-68.761	0.041	-0.016
-127.283	-200.000	0.005	0.162
-126.268	187.555	-0.108	0.160
-125.253	-200.000	0.020	-0.260
-124.239	-200.000	-0.001	0.050
-123.224	159.973	0.166	-0.229
-122.210	-200.000	0.024	0.330
-121.195	-151.653	-0.285	0.021
-120.180	-182.464	-0.138	0.003
-119.166	-33.927	-0.251	-0.137
-118.151	380.549	-0.014	0.028
-117.137	-91.110	0.389	0.110
-116.122	-200.000	-0.037	0.235
-115.107	-163.344	0.261	-0.012
-114.093	-119.687	-0.130	-0.022
-113.078	-93.212	-0.274	-0.075
-112.064	168.433	0.195	0.274
-111.049	800.000	-0.026	0.083
-110.034	27.201	0.279	-0.232
-109.020	-34.619	-0.187	-0.101
-108.005	-173.179	0.123	-0.004
-106.991	-200.000	0.005	0.067
-105.976	-200.000	-0.068	0.353
-104.962	58.678	0.178	-0.172
-103.947	-49.529	0.312	-0.147
-102.932	153.406	-0.150	-0.203
-101.918	197.374	-0.157	-0.237
-100.903	-200.000	-0.035	-0.155
-99.889	-98.060	-0.353	0.090
-98.874	-43.564	0.270	-0.135
-97.859	-70.165	-0.291	0.109
-96.845	-60.942	0.388	0.162
-95.830	-127.037	-0.237	0.034
-94.816	8.258	0.182	0.135
-93.801	96.901	-0.054	-0.061
-92.786	-153.132	-0.248	0.017
-91.772	772.522	0.045	-0.122
-90.757	622.063	-0.148	-0.367
-89.743	23.150	0.401	0.326
-88.728	-200.000	0.003	-0.284
-87.713	-176.441	0.337	-0.009
-86.699	800.000	0.022	-0.085
-85.684	29.850	0.212	-0.179
-84.670	131.892	-0.113	0.144
-83.655	800.000	-0.029	0.081
-82.640	-200.000	0.008	-0.056
-81.626	-68.679	-0.044	0.017
-80.611	412.361	0.123	-0.257
-79.597	186.251	0.071	0.104
-78.582	-62.133	0.274	0.113
-77.567	434.446	-0.088	0.190
-76.553	167.865	0.088	0.124
-75.538	-200.000	-0.004	-0.156
-74.524	34.429	-0.098	0.085
-73.509	-200.000	-0.000	0.218
-72.494	-195.889	-0.233	0.002
-71.480	210.407	0.039	-0.061
-70.465	249.649	0.162	0.271
-69.451	273.965	0.147	-0.257
-68.436	-200.000	0.008	0.081
-67.422	-150.394	0.190	-0.014
-66.407	300.571	0.180	0.327
-65.392	-116.237	-0.233	-0.043
-64.378	-162.624	-0.211	0.010
-63.363	800.000	0.023	0.071
-62.349	-200.000	-0.015	-0.237
-61.334	44.478	-0.857	-0.776
-60.319	187.536	0.251	0.369
-59.305	275.020	-0.438	-0.765
-58.290	290.484	0.712	1.275
-57.276	615.909	0.633	1.566
-56.261	-200.000	97.332	573.419
-55.246	632.117	1402.199	3502.511
-54.232	185.846	2617.782	3837.325
-53.217	114.828	2310.675	2778.906
-52.203	43.851	1921.743	1735.581
-51.188	37.469	1708.694	1494.268
-50.173	34.705	1664.074	1434.470
-49.159	51.731	1712.633	1606.389
-48.144	55.158	1729.446	1648.165
-47.130	37.212	1686.368	1472.565
-46.115	34.364	1670.671	1437.353
-45.100	34.113	1666.255	1431.610
-44.086	34.119	1663.731	1429.429
-43.071	34.078	1660.931	1426.660
-42.057	34.077	1659.009	1424.944
-41.042	34.213	1656.137	1423.438
-40.027	34.099	1654.440	1421.074
-39.013	34.159	1652.247	1419.583
-37.998	34.037	1650.946	1417.499
-36.984	34.163	1648.926	1416.647
-35.969	34.233	1647.366	1415.772
-34.954	34.273	1646.090	1414.913
-33.940	34.223	1644.458	1413.085
-32.925	34.185	1642.528	1411.090
-31.911	34.205	1640.842	1409.732
-30.896	34.165	1639.168	1407.944
-29.881	34.141	1637.957	1406.671
-28.867	34.268	1635.786	1405.684
-27.852	34.178	1634.642	1403.979
-26.838	34.254	1632.916	1403.006
-25.823	34.268	1631.347	1401.703
-24.809	34.297	1630.193	1400.865
-23.794	34.214	1629.125	1399.282
-22.779	34.217	1627.100	1397.515
-21.765	34.268	1625.405	1396.378
-20.750	34.275	1623.501	1394.736
-19.736	34.236	1622.645	1393.658
-18.721	34.277	1621.305	1392.752
-17.706	34.218	1619.645	1390.844
-16.692	34.302	1617.675	1389.705
-15.677	34.241	1616.293	1388.017
-14.663	34.229	1615.569	1387.259
-13.648	34.255	1614.005	1386.049
-12.633	34.326	1612.383	1385.113
-11.619	34.383	1610.767	1384.089
-10.604	34.285	1609.168	1381.948
-9.590	34.282	1607.783	1380.683
-8.575	34.347	1606.337	1379.856
-7.560	34.268	1605.352	1378.384
-6.546	34.284	1603.994	1377.274
-5.531	34.264	1603.087	1376.297
-4.517	34.263	1602.181	1375.461
-3.502	34.227	1600.903	1374.047
-2.487	34.302	1599.298	1373.155
-1.473	34.104	1588.093	1362.062
-0.458	31.208	1568.491	1324.686
0.556	26.438	1567.587	1289.920
1.571	23.961	1591.431	1291.465
2.586	23.284	1605.045	1297.442
3.600	20.751	1552.411	1236.811
4.615	12.985	1443.531	1098.459
5.629	6.170	1379.882	1006.434
6.644	5.145	1371.769	993.902
7.659	5.068	1369.823	991.917
8.673	4.954	1369.296	990.721
9.688	4.982	1367.093	989.219
10.702	4.824	1365.078	986.672
11.717	8.193	1370.821	1012.137
12.731	15.596	1385.045	1069.849
13.746	19.589	1390.044	1099.085
14.761	18.638	1387.343	1090.805
15.775	17.519	1384.793	1081.602
16.790	16.406	1381.688	1072.021
17.804	15.542	1379.789	1064.978
18.819	15.163	1378.412	1061.420
19.834	14.964	1376.870	1058.879
20.848	14.633	1375.951	1055.986
21.863	14.477	1374.351	1053.680
22.877	14.315	1372.935	1051.474
23.892	14.398	1371.659	1050.931
24.907	14.243	1371.565	1049.787
25.921	14.164	1370.867	1048.661
26.936	14.385	1369.368	1048.813
27.950	14.368	1368.757	1048.145
28.965	14.511	1367.615	1048.076
29.980	14.498	1366.358	1046.937
30.994	14.580	1365.520	1046.721
32.009	14.646	1363.977	1045.857
33.023	14.505	1363.056	1044.176
34.038	14.497	1361.608	1042.922
35.053	14.505	1360.198	1041.801
36.067	14.496	1359.159	1040.859
37.082	14.529	1358.255	1040.277
38.096	14.386	1357.865	1038.998
39.111	14.449	1356.918	1038.571
40.126	14.434	1355.512	1037.309
41.140	14.281	1354.754	1035.686
42.155	14.196	1354.465	1034.845
43.169	14.223	1353.991	1034.563
44.184	14.251	1353.639	1034.373
45.199	14.226	1353.265	1033.840
46.213	14.263	1352.764	1033.599
47.228	14.350	1352.035	1033.487
48.242	14.456	1350.294	1032.724
49.257	14.367	1349.274	1031.298
50.271	14.346	1347.723	1029.894
51.286	14.379	1346.594	1029.144
52.301	14.340	1345.239	1027.779
53.315	14.324	1343.931	1026.589
54.330	14.250	1343.068	1025.382
55.344	14.236	1341.601	1024.087
56.359	14.348	1340.499	1023.845
57.374	14.232	1339.548	1022.313
58.388	14.188	1338.727	1021.326
59.403	14.231	1338.259	1021.140
60.417	14.149	1337.886	1020.265
61.432	14.195	1336.852	1019.664
62.447	14.040	1335.984	1017.965
63.461	14.121	1334.579	1017.300
64.476	14.092	1333.539	1016.238
65.490	14.080	1331.855	1014.792
66.505	14.125	1330.495	1013.940
67.520	14.120	1329.823	1013.313
68.534	14.029	1329.521	1012.439
69.549	14.136	1328.036	1011.864
70.563	14.162	1326.781	1010.979
71.578	14.043	1325.760	1009.387
72.593	13.967	1325.040	1008.292
73.607	14.146	1323.426	1008.061
74.622	13.995	1323.213	1006.892
75.636	14.052	1322.278	1006.435
76.651	14.032	1321.532	1005.657
77.666	14.096	1321.401	1005.855
78.680	14.090	1321.048	1005.461
79.695	14.071	1320.033	1004.484
80.709	14.110	1319.317	1004.088
81.724	14.243	1318.504	1004.181
82.739	14.203	1318.123	1003.561
83.753	14.270	1316.863	1002.917
84.768	14.424	1315.624	1002.814
85.782	14.444	1314.876	1002.274
86.797	14.443	1313.286	1000.967
87.812	14.315	1312.203	999.285
88.826	14.392	1311.093	998.812
89.841	14.332	1310.269	997.737
90.855	14.495	1309.112	997.741
91.870	14.384	1308.018	996.156
92.884	14.398	1307.571	995.812
93.899	14.412	1306.958	995.343
94.914	14.508	1306.056	995.138
95.928	14.503	1305.289	994.438
96.943	14.500	1303.910	993.283
97.957	14.479	1302.815	992.232
98.972	14.397	1301.535	990.682
99.987	14.478	1300.872	990.573
101.001	14.442	1300.030	989.627
102.016	14.439	1299.214	988.904
103.030	14.461	1298.319	988.265
104.045	14.494	1297.471	987.729
105.060	14.460	1296.266	986.522
106.074	14.228	1295.124	984.193
107.089	14.192	1292.972	982.260
108.103	14.107	1292.154	981.051
109.118	14.220	1290.647	980.486
110.133	14.234	1289.341	979.488
111.147	14.093	1288.097	977.625
112.162	14.177	1286.612	976.908
113.176	14.135	1285.979	976.095
114.191	14.261	1284.850	975.886
115.206	14.410	1283.406	975.577
116.220	14.308	1282.179	973.959
117.235	14.285	1280.968	972.821
118.249	14.262	1280.005	971.871
119.264	14.274	1278.690	970.856
120.279	14.205	1277.737	969.642
121.293	14.103	1276.909	968.336
122.308	14.095	1275.883	967.423
123.322	14.154	1274.450	966.598
124.337	14.087	1273.606	965.480
125.352	14.116	1272.348	964.610
126.366	14.021	1271.783	963.549
127.381	14.100	1270.710	963.106
128.395	14.149	1269.381	962.295
129.410	14.155	1268.659	961.699
130.424	14.104	1268.119	960.910
131.439	14.279	1266.338	960.484
132.454	14.306	1265.698	960.069
133.468	14.321	1265.123	959.633
134.483	14.245	1264.455	958.606
135.497	14.183	1263.564	957.489
136.512	14.196	1262.131	956.394
137.527	14.293	1261.037	956.035
138.541	14.354	1259.115	954.847
139.556	14.347	1258.255	954.070
140.570	14.337	1257.680	953.493
141.585	14.533	1255.389	952.790
142.600	14.560	1254.710	952.343
143.614	14.480	1254.025	951.282
144.629	14.545	1252.735	950.589
145.643	14.446	1251.725	949.175
146.658	14.501	1250.336	948.354
147.673	14.353	1249.277	946.624
148.687	14.310	1248.109	945.413
149.702	14.429	1246.432	944.732
150.716	14.252	1245.372	942.842
151.731	14.327	1244.026	942.163
152.746	14.327	1242.948	941.264
153.760	14.453	1241.417	940.731
154.775	14.575	1240.406	940.572
155.789	14.568	1239.253	939.576
156.804	14.528	1238.477	938.675
157.819	14.492	1237.716	937.816
158.833	14.588	1236.555	937.389
159.848	14.693	1235.529	937.121
160.862	14.666	1234.829	936.357
161.877	14.568	1233.436	934.670
162.892	14.453	1232.877	933.516
163.906	14.307	1231.695	931.724
164.921	14.516	1230.642	932.014
165.935	14.490	1230.303	931.526
166.950	14.513	1229.395	930.888
167.964	14.567	1228.570	930.477
168.979	14.442	1228.495	929.642
169.994	14.498	1227.518	929.135
171.008	14.482	1226.960	928.539
172.023	14.607	1225.772	928.253
173.037	14.645	1225.313	928.034
174.052	14.679	1223.784	926.984
175.067	14.649	1222.889	926.057
176.081	14.466	1221.871	924.190
177.096	14.507	1221.263	923.877
178.110	14.571	1220.100	923.268
179.125	14.630	1218.650	922.418
180.140	14.606	1217.897	921.633
181.154	14.719	1216.618	921.204
182.169	14.729	1215.225	920.128
183.183	14.632	1214.140	918.687
184.198	14.709	1213.148	918.279
185.213	14.686	1212.104	917.281
186.227	14.833	1210.703	916.946
187.242	14.856	1209.751	916.272
188.256	14.906	1208.778	915.724
189.271	14.915	1207.454	914.692
190.286	14.790	1206.714	913.366
191.300	14.543	1205.922	911.340
192.315	14.430	1205.354	910.208
193.329	14.601	1204.475	910.401
194.344	14.544	1203.981	909.635
195.359	14.702	1203.046	909.708
196.373	14.818	1202.538	909.877
197.388	14.862	1202.210	909.786
198.402	14.933	1201.812	909.790
199.417	14.968	1201.229	909.461
200.432	15.078	1200.108	909.128
201.446	15.092	1199.419	908.601
202.461	15.080	1198.713	907.920
203.475	15.115	1197.446	907.072
204.490	15.082	1196.002	905.716
205.504	15.114	1194.863	904.947
206.519	15.097	1193.321	903.611
207.534	15.005	1192.492	902.403
208.548	14.995	1191.381	901.431
209.563	14.936	1191.007	900.748
210.577	15.000	1190.056	900.295
211.592	15.163	1189.010	900.302
212.607	15.241	1187.971	899.854
213.621	15.165	1187.147	898.741
214.636	15.129	1186.446	897.937
215.650	15.118	1185.395	897.005
216.665	15.244	1184.396	896.845
217.680	15.259	1183.919	896.485
218.694	15.239	1182.893	895.518
219.709	15.253	1182.160	894.960
220.723	15.286	1181.123	894.274
221.738	15.246	1180.459	893.478
222.753	15.251	1179.989	893.070
223.767	15.291	1179.233	892.631
224.782	15.385	1178.721	892.666
225.796	15.418	1177.950	892.178
226.811	15.305	1177.106	890.859
227.826	15.357	1176.585	890.660
228.840	15.329	1176.063	890.040
229.855	15.311	1175.155	889.176
230.869	15.273	1174.319	888.263
231.884	15.292	1173.469	887.644
232.899	15.335	1172.282	886.892
233.913	15.269	1171.599	885.953
234.928	15.296	1170.601	885.260
235.942	15.252	1170.009	884.502
236.957	15.299	1169.428	884.232
237.972	15.293	1168.970	883.776
238.986	15.273	1168.296	883.083
240.001	15.277	1167.523	882.443
241.015	15.285	1166.983	881.999
242.030	15.239	1166.163	881.057
243.045	15.473	1164.914	881.267
244.059	15.446	1164.257	880.548
245.074	15.441	1163.492	879.864
246.088	15.464	1162.666	879.286
247.103	15.497	1162.080	878.938
248.117	15.628	1160.959	878.693
249.132	15.729	1160.451	878.760
250.147	15.663	1159.918	877.934
251.161	15.853	1158.833	878.025
252.176	15.898	1158.389	877.848
253.190	15.953	1157.732	877.558
254.205	15.933	1157.095	876.892
255.220	16.012	1156.656	876.895
256.234	15.924	1155.732	875.659
257.249	15.835	1155.458	874.912
258.263	15.942	1154.777	874.873
259.278	15.939	1154.208	874.350
260.293	15.926	1153.619	873.758
261.307	16.044	1152.646	873.554
262.322	16.116	1151.939	873.317
263.336	16.087	1151.588	872.824
264.351	16.117	1150.970	872.433
265.366	16.086	1150.455	871.806
266.380	16.151	1149.526	871.357
267.395	15.990	1149.207	870.209
268.409	16.040	1148.027	869.496
269.424	16.058	1147.320	868.976
270.439	16.112	1146.484	868.547
271.453	16.107	1145.906	868.001
272.468	16.039	1145.002	866.893
273.482	16.052	1143.926	866.069
274.497	16.041	1143.216	865.399
275.512	15.980	1143.126	864.942
276.526	16.137	1141.761	864.635
277.541	16.100	1141.222	863.961
278.555	16.115	1140.524	863.432
279.570	16.144	1140.178	863.245
280.585	16.369	1138.988	863.418
281.599	16.123	1138.501	861.714
282.614	16.208	1137.242	861.118
283.628	16.274	1135.667	860.183
284.643	16.184	1135.477	859.509
285.657	16.144	1134.718	858.652
286.672	16.272	1133.391	858.224
287.687	16.255	1132.478	857.369
288.701	16.219	1132.130	856.849
289.716	16.177	1131.600	856.160
290.730	16.151	1131.034	855.521
291.745	16.306	1129.640	855.176
292.760	16.263	1128.996	854.394
293.774	16.412	1128.902	855.005
294.789	16.492	1128.506	855.030
295.803	16.394	1127.686	853.842
296.818	16.437	1126.517	853.097
297.833	16.336	1125.925	852.062
298.847	16.315	1125.360	851.456
299.862	16.296	1124.421	850.572
300.876	16.446	1124.036	850.962
301.891	16.535	1122.946	850.510
302.906	16.493	1122.348	849.770
303.920	16.619	1121.420	849.622
304.935	16.517	1121.159	848.840
305.949	16.608	1120.760	848.920
306.964	16.586	1119.983	848.144
307.979	16.664	1119.325	847.962
308.993	16.598	1118.372	846.834
310.008	16.702	1117.339	846.496
311.022	16.863	1116.623	846.683
312.037	16.747	1115.795	845.402
313.052	16.634	1115.154	844.276
314.066	16.582	1113.909	843.001
315.081	16.580	1113.332	842.483
316.095	16.478	1112.884	841.560
317.110	16.592	1111.761	841.202
318.125	16.570	1111.187	840.586
319.139	16.514	1110.578	839.771
320.154	16.639	1109.786	839.717
321.168	16.618	1109.462	839.296
322.183	16.560	1108.929	838.530
323.197	16.684	1107.749	838.178
324.212	16.638	1107.420	837.627
325.227	16.791	1106.413	837.548
326.241	16.614	1106.354	836.553
327.256	16.728	1105.389	836.313
328.270	16.627	1104.673	835.197
329.285	16.796	1103.308	834.926
330.300	16.731	1102.341	833.802
331.314	16.680	1101.632	832.939
332.329	16.659	1100.919	832.221
333.343	16.678	1099.994	831.545
334.358	16.849	1099.247	831.743
335.373	16.797	1098.639	830.955
336.387	16.817	1097.988	830.489
337.402	16.883	1096.952	829.955
338.416	17.018	1096.239	830.004
339.431	16.959	1095.594	829.150
340.446	17.049	1094.746	828.875
341.460	17.068	1094.496	828.705
342.475	17.034	1093.297	827.557
343.489	17.186	1092.331	827.494
344.504	17.156	1091.666	826.771
345.519	17.256	1090.259	826.122
346.533	17.313	1090.033	826.152
347.548	17.239	1089.447	825.277
348.562	17.240	1088.553	824.529
349.577	17.016	1087.802	822.800
350.592	17.064	1087.083	822.418
351.606	17.037	1086.196	821.545
352.621	17.147	1085.232	821.274
353.635	17.004	1084.950	820.294
354.650	17.150	1083.962	820.183
355.665	17.073	1083.284	819.225
356.679	17.114	1082.717	818.919
357.694	17.153	1082.325	818.739
358.708	17.157	1081.921	818.382
359.723	17.155	1081.206	817.757
360.738	17.273	1080.230	817.515
361.752	17.230	1079.814	816.924
362.767	17.330	1079.474	817.072
363.781	17.327	1078.588	816.318
364.796	17.339	1078.241	816.037
365.810	17.443	1077.167	815.650
366.825	17.415	1076.931	815.268
367.840	17.642	1076.209	815.736
368.854	17.580	1076.094	815.281
369.869	17.558	1075.074	814.331
370.883	17.598	1074.240	813.818
371.898	17.461	1073.476	812.510
372.913	17.499	1072.871	812.162
373.927	17.473	1072.603	811.764
374.942	17.573	1071.928	811.655
375.956	17.636	1071.420	811.503
376.971	17.620	1070.653	810.773
377.986	17.573	1070.151	810.098
379.000	17.693	1069.456	810.070
380.015	17.794	1069.016	810.145
381.029	17.719	1068.513	809.335
382.044	17.850	1067.691	809.260
383.059	17.838	1066.775	808.440
384.073	17.782	1066.214	807.679
385.088	17.881	1065.119	807.247
386.102	17.796	1064.323	806.169
387.117	17.776	1063.509	805.387
388.132	17.716	1062.628	804.367
389.146	17.726	1061.766	803.686
390.161	17.797	1060.816	803.230
391.175	17.702	1060.327	802.342
392.190	17.746	1059.719	802.020
393.205	17.765	1059.049	801.531
394.219	17.782	1058.252	800.937
395.234	17.776	1057.032	799.915
396.248	17.791	1056.067	799.182
397.263	17.875	1055.084	798.761
398.278	17.812	1054.603	798.031
399.292	17.723	1053.852	796.976
400.307	17.663	1053.170	796.110
401.321	17.814	1052.467	796.212
402.336	17.894	1051.361	795.682
403.350	17.665	1051.607	794.726
404.365	17.882	1050.412	794.764
405.380	17.915	1049.760	794.357
406.394	17.954	1048.726	793.682
407.409	17.967	1048.312	793.358
408.423	18.061	1047.587	793.179
409.438	17.985	1047.330	792.562
410.453	18.083	1046.551	792.357
411.467	18.123	1045.678	791.808
412.482	18.205	1045.098	791.681
413.496	18.156	1044.836	791.187
414.511	18.221	1044.196	790.930
415.526	18.294	1043.709	790.830
416.540	18.392	1042.990	790.664
417.555	18.362	1042.497	790.084
418.569	18.294	1041.962	789.293
419.584	18.177	1041.831	788.587
420.599	18.352	1040.857	788.587
421.613	147.605	1400.488	1789.798
422.628	134.947	1452.892	1789.917
