DTS Sentinel unit serial number:	SN413079Multiplexer serial number:	ORYXHardware model number:	OX4-SRSoftware version number:	ORYX F/W v4.00 Oryx Data Collector v3.7.2.0data status	okinstallation	princeton_trtdifferential loss correction	single-endedforward channel	channel 2reverse channel	N/Adate	2019/09/19time	04:43:34forward acquisition time	60.00reverse acquisition time	0.00gamma	496.2192k internal	0.2351k external	0.2351temperature offset calibration	1.0017default loss term (dB/km)	0.3790temperature slope calibration	1.0000multiplexer offset coefficient	1.0000multiplexer slope coefficient	1.0000fibre end	0.00T internal ref (°C)	19.94T ext. ref 1 (°C)	0.62T ext. ref 2 (°C)	12.94length (m)	temperature (°C)	Stokes	anti-Stokes-747.200	-40.324	0.136	-0.071
-746.185	-200.000	0.016	0.254
-745.171	33.079	0.095	0.082
-744.156	-190.417	-0.394	-0.004
-743.142	104.315	-0.118	-0.138
-742.127	-200.000	-0.096	0.530
-741.112	82.838	0.131	0.142
-740.098	-122.883	-0.109	-0.017
-739.083	-142.956	0.163	0.016
-738.069	-136.168	-0.198	-0.023
-737.054	-144.507	-0.228	0.021
-736.039	-200.000	-0.040	0.295
-735.025	34.886	0.056	0.049
-734.010	227.913	-0.195	-0.316
-732.996	-142.279	-0.329	-0.032
-731.981	63.154	-0.125	-0.125
-730.966	-77.328	0.329	0.114
-729.952	-200.000	0.095	-0.418
-728.937	-27.847	-0.217	0.125
-727.923	-131.370	-0.202	0.027
-726.908	464.245	-0.042	-0.094
-725.894	-137.745	-0.189	-0.021
-724.879	-200.000	-0.060	0.269
-723.864	-6.838	-0.450	-0.305
-722.850	362.791	0.046	-0.092
-721.835	161.982	-0.239	0.334
-720.821	-43.978	0.193	-0.097
-719.806	-54.943	-0.098	-0.044
-718.791	43.425	-0.133	-0.121
-717.777	-117.180	-0.082	-0.015
-716.762	-200.000	-0.030	-0.160
-715.748	-140.307	0.337	-0.035
-714.733	-80.588	-0.238	0.079
-713.718	-182.340	0.138	0.003
-712.704	-136.674	0.161	-0.019
-711.689	-200.000	-0.010	0.180
-710.675	-33.421	0.142	0.078
-709.660	-66.476	0.228	0.090
-708.645	31.063	0.112	0.096
-707.631	15.307	-0.145	0.113
-706.616	-162.668	-0.124	0.006
-705.602	-150.247	0.294	-0.023
-704.587	-35.542	0.338	-0.183
-703.572	800.000	0.080	-0.248
-702.558	-177.659	-0.074	0.002
-701.543	800.000	0.120	0.364
-700.529	219.819	-0.217	0.347
-699.514	-100.787	-0.126	-0.031
-698.499	-90.206	0.307	0.089
-697.485	800.000	-0.107	-0.392
-696.470	-59.865	0.208	0.089
-695.456	3.796	-0.223	0.162
-694.441	741.077	0.065	0.174
-693.426	800.000	0.153	-0.424
-692.412	800.000	-0.121	0.389
-691.397	-200.000	-0.030	-0.298
-690.383	47.597	-0.101	-0.094
-689.368	42.521	-0.132	-0.119
-688.354	800.000	0.040	0.139
-687.339	-66.005	-0.085	0.034
-686.324	83.873	-0.310	-0.337
-685.310	-36.380	0.024	0.013
-684.295	-87.897	0.097	-0.029
-683.281	-149.476	0.376	-0.030
-682.266	800.000	-0.078	-0.247
-681.251	132.403	-0.128	-0.164
-680.237	146.829	-0.116	-0.156
-679.222	123.259	0.147	-0.184
-678.208	-200.000	-0.068	-0.511
-677.193	-200.000	0.022	-0.335
-676.178	179.575	-0.101	0.147
-675.164	-200.000	0.003	-0.212
-674.149	1.018	-0.274	0.196
-673.135	155.236	0.210	-0.287
-672.120	-200.000	0.040	-0.387
-671.105	-187.976	-0.586	-0.008
-670.091	78.269	-0.060	0.064
-669.076	800.000	-0.064	-0.211
-668.062	-47.538	0.160	-0.077
-667.047	248.625	0.074	0.125
-666.032	-124.941	0.110	-0.017
-665.018	-121.013	0.165	-0.028
-664.003	-200.000	-0.039	-0.346
-662.989	206.707	0.051	0.078
-661.974	-95.612	0.183	0.049
-660.959	-200.000	0.039	-0.264
-659.945	94.168	0.335	-0.378
-658.930	389.619	0.025	0.051
-657.916	-200.000	0.044	0.303
-656.901	363.928	-0.042	-0.084
-655.886	-156.474	0.251	0.016
-654.872	800.000	-0.065	-0.210
-653.857	-166.903	-0.443	-0.018
-652.843	-200.000	0.003	0.275
-651.828	-200.000	-0.032	-0.233
-650.814	800.000	-0.040	-0.160
-649.799	-40.417	0.291	-0.150
-648.784	-66.120	-0.411	0.163
-647.770	-129.396	0.564	-0.078
-646.755	13.663	0.267	-0.206
-645.741	165.563	-0.137	-0.193
-644.726	138.103	0.156	0.203
-643.711	-200.000	0.036	-0.344
-642.697	75.661	0.231	0.243
-641.682	-200.000	-0.013	-0.182
-640.668	800.000	0.056	-0.191
-639.653	-200.000	0.020	0.113
-638.638	-200.000	0.031	0.281
-637.624	128.558	0.242	0.307
-636.609	-13.190	-0.334	-0.216
-635.595	-110.869	-0.106	-0.022
-634.580	-136.847	0.127	0.015
-633.565	87.317	-0.179	0.196
-632.551	-52.325	-0.217	-0.100
-631.536	-17.664	0.121	-0.076
-630.522	800.000	0.041	0.119
-629.507	39.074	-0.261	0.232
-628.492	136.961	-0.122	0.158
-627.478	18.205	0.080	0.063
-626.463	179.260	-0.059	0.085
-625.449	10.601	0.142	0.107
-624.434	62.250	-0.210	-0.208
-623.419	800.000	-0.049	-0.157
-622.405	-92.252	0.184	0.051
-621.390	-200.000	0.005	0.261
-620.376	216.070	0.147	0.233
-619.361	96.141	-0.145	-0.165
-618.346	31.301	-0.132	-0.113
-617.332	-200.000	-0.035	-0.310
-616.317	-200.000	-0.033	0.268
-615.303	-88.444	-0.285	-0.085
-614.288	-104.939	-0.098	-0.022
-613.273	-89.642	-0.068	0.020
-612.259	-84.051	0.209	0.066
-611.244	-79.138	0.266	0.090
-610.230	-200.000	0.055	-0.249
-609.215	-100.868	-0.292	0.071
-608.201	800.000	0.061	-0.187
-607.186	-152.912	-0.285	-0.020
-606.171	-200.000	-0.020	-0.106
-605.157	800.000	0.027	0.077
-604.142	482.018	0.030	0.067
-603.128	449.637	0.042	0.092
-602.113	232.776	0.170	0.278
-601.098	-200.000	-0.011	-0.057
-600.084	0.971	-0.222	0.158
-599.069	800.000	0.035	-0.109
-598.055	-200.000	0.002	-0.062
-597.040	-20.805	-0.084	-0.051
-596.025	-48.480	-0.363	0.173
-595.011	636.851	-0.141	-0.356
-593.996	-6.506	-0.147	-0.099
-592.982	197.684	0.071	-0.108
-591.967	-90.907	0.162	0.046
-590.952	-71.979	-0.436	0.161
-589.938	670.280	0.081	-0.207
-588.923	-5.259	0.094	-0.064
-587.909	-1.295	0.193	0.135
-586.894	-36.608	-0.232	-0.124
-585.879	800.000	-0.018	0.054
-584.865	-153.705	0.120	0.008
-583.850	142.224	-0.124	0.163
-582.836	-32.053	0.342	0.190
-581.821	212.812	0.194	-0.303
-580.806	-120.927	-0.215	0.036
-579.792	104.359	0.057	0.067
-578.777	111.803	-0.289	0.346
-577.763	-200.000	-0.031	0.262
-576.748	-104.084	-0.040	-0.009
-575.733	-52.252	0.435	-0.200
-574.719	-200.000	-0.003	-0.154
-573.704	-200.000	0.003	-0.186
-572.690	-61.084	-0.550	0.230
-571.675	37.774	0.070	-0.062
-570.661	244.341	0.273	-0.455
-569.646	-200.000	0.010	-0.259
-568.631	-5.719	-0.259	0.176
-567.617	-115.078	-0.399	-0.075
-566.602	-122.536	-0.169	0.027
-565.588	-136.745	-0.191	0.022
-564.573	-64.715	-0.321	0.129
-563.558	265.268	-0.033	-0.056
-562.544	-69.847	0.189	0.071
-561.529	-77.765	-0.244	0.084
-560.515	800.000	-0.062	-0.188
-559.500	381.643	0.112	-0.227
-558.485	-200.000	0.042	-0.232
-557.471	-36.465	-0.164	0.088
-556.456	-112.235	0.303	-0.060
-555.442	-125.582	-0.369	-0.055
-554.427	65.777	-0.169	0.169
-553.412	-200.000	-0.036	-0.277
-552.398	-200.000	-0.001	-0.276
-551.383	-200.000	-0.004	-0.094
-550.369	-158.554	0.153	-0.009
-549.354	-2.819	-0.145	-0.100
-548.339	-111.413	-0.121	-0.024
-547.325	-147.322	0.194	0.016
-546.310	295.590	0.153	-0.278
-545.296	800.000	0.100	0.315
-544.281	107.627	-0.190	0.223
-543.266	30.355	0.247	0.209
-542.252	-200.000	0.015	0.157
-541.237	11.774	-0.071	0.054
-540.223	-200.000	-0.016	0.072
-539.208	-200.000	-0.013	-0.215
-538.193	-65.670	0.422	0.167
-537.179	-71.383	-0.400	0.148
-536.164	351.052	-0.109	0.213
-535.150	156.420	0.070	0.096
-534.135	105.920	0.171	-0.200
-533.121	-200.000	-0.028	0.192
-532.106	-84.941	-0.129	0.040
-531.091	-123.235	0.105	0.017
-530.077	98.956	-0.153	-0.175
-529.062	513.286	0.024	0.056
-528.048	460.767	-0.072	-0.159
-527.033	800.000	-0.095	0.266
-526.018	-9.341	-0.349	-0.231
-525.004	-85.595	-0.096	-0.029
-523.989	-168.785	0.195	0.007
-522.975	-45.730	0.230	0.113
-521.960	-22.618	0.205	0.122
-520.945	-162.201	0.363	0.018
-519.931	357.439	-0.096	0.190
-518.916	-117.683	-0.340	-0.061
-517.902	-112.089	0.263	-0.052
-516.887	800.000	-0.070	-0.258
-515.872	109.785	-0.083	0.099
-514.858	-155.262	0.112	-0.007
-513.843	235.668	-0.080	-0.130
-512.829	255.812	-0.212	0.359
-511.814	659.691	0.110	-0.280
-510.799	-156.446	0.250	-0.015
-509.785	34.784	-0.051	0.044
-508.770	414.214	0.078	-0.164
-507.756	-39.147	0.188	0.098
-506.741	800.000	0.127	-0.458
-505.726	113.848	-0.266	0.320
-504.712	-1.681	-0.115	-0.080
-503.697	-77.434	0.503	0.172
-502.683	518.739	-0.039	0.090
-501.668	-117.203	0.125	-0.022
-500.653	138.126	-0.207	0.269
-499.639	800.000	-0.069	0.215
-498.624	38.626	0.090	-0.079
-497.610	13.277	-0.077	-0.059
-496.595	800.000	0.096	-0.282
-495.581	35.976	0.172	-0.149
-494.566	782.368	-0.038	-0.102
-493.551	800.000	-0.065	0.192
-492.537	-9.940	0.096	0.063
-491.522	800.000	-0.012	-0.051
-490.508	800.000	0.136	-0.381
-489.493	-65.724	-0.192	0.076
-488.478	-76.522	0.094	0.033
-487.464	-150.389	-0.217	-0.016
-486.449	-172.940	-0.028	-0.001
-485.435	800.000	0.027	-0.077
-484.420	-101.191	-0.421	0.102
-483.405	-91.435	0.237	-0.067
-482.391	-80.145	-0.459	0.152
-481.376	273.743	0.131	0.229
-480.362	138.534	0.121	0.157
-479.347	-68.794	-0.078	-0.030
-478.332	-200.000	-0.013	-0.057
-477.318	-186.925	-0.379	0.005
-476.303	800.000	0.070	-0.283
-475.289	48.334	0.151	-0.140
-474.274	-62.904	0.151	0.062
-473.259	-200.000	0.026	-0.133
-472.245	233.799	0.052	-0.084
-471.230	-118.755	0.068	-0.012
-470.216	-118.561	0.512	0.089
-469.201	-137.923	0.096	-0.011
-468.186	42.055	-0.116	0.104
-467.172	-128.774	0.126	0.017
-466.157	-64.161	0.215	-0.087
-465.143	177.163	0.021	-0.030
-464.128	-55.928	-0.289	0.127
-463.113	-177.077	0.288	0.007
-462.099	-200.000	0.013	0.423
-461.084	-28.915	0.177	0.100
-460.070	-200.000	-0.055	-0.253
-459.055	126.001	0.054	0.068
-458.040	800.000	-0.134	0.480
-457.026	-200.000	-0.026	0.304
-456.011	-13.491	-0.146	-0.094
-454.997	-64.730	0.145	-0.058
-453.982	132.738	0.139	0.178
-452.968	80.319	-0.063	-0.067
-451.953	15.434	-0.062	-0.048
-450.938	-86.716	0.199	-0.060
-449.924	79.712	0.150	0.159
-448.909	800.000	-0.075	0.276
-447.895	78.309	-0.138	-0.145
-446.880	5.529	-0.178	0.130
-445.865	137.525	-0.103	-0.133
-444.851	-32.487	0.307	0.169
-443.836	-111.289	-0.193	0.039
-442.822	663.399	-0.043	0.109
-441.807	286.512	0.043	-0.076
-440.792	364.061	-0.074	-0.147
-439.778	-200.000	0.030	0.269
-438.763	66.721	-0.149	-0.149
-437.749	65.006	0.047	0.047
-436.734	-38.519	-0.173	-0.090
-435.719	800.000	0.074	-0.203
-434.705	225.045	-0.078	0.124
-433.690	-85.651	0.485	0.148
-432.676	800.000	0.127	0.366
-431.661	-200.000	-0.014	0.108
-430.646	800.000	-0.034	-0.110
-429.632	-156.990	-0.167	-0.010
-428.617	76.370	-0.149	-0.155
-427.603	-133.682	-0.103	-0.013
-426.588	-61.924	-0.048	-0.020
-425.573	-6.350	-0.138	0.093
-424.559	316.908	0.039	-0.073
-423.544	-170.123	-0.169	-0.006
-422.530	511.675	0.081	0.187
-421.515	-144.559	-0.342	-0.031
-420.500	-200.000	0.014	0.085
-419.486	49.560	-0.150	0.139
-418.471	-51.607	0.175	0.080
-417.457	-122.637	-0.474	0.076
-416.442	800.000	-0.017	-0.050
-415.428	44.368	-0.077	-0.070
-414.413	614.833	-0.102	-0.252
-413.398	-17.223	0.358	-0.222
-412.384	724.535	0.076	-0.199
-411.369	800.000	0.041	-0.171
-410.355	-24.335	0.081	0.048
-409.340	-49.989	-0.132	-0.062
-408.325	-121.131	-0.200	0.033
-407.311	46.576	0.220	-0.201
-406.296	379.399	-0.066	-0.132
-405.282	-120.869	-0.198	-0.033
-404.267	107.397	0.197	0.231
-403.252	-105.005	0.251	0.057
-402.238	-85.806	0.109	0.033
-401.223	-200.000	0.013	0.312
-400.209	-96.134	-0.153	-0.040
-399.194	-200.000	-0.028	-0.283
-398.179	-38.974	-0.290	0.150
-397.165	-110.874	0.127	0.026
-396.150	33.359	-0.029	0.025
-395.136	-96.744	0.104	-0.027
-394.121	-200.000	0.055	-0.244
-393.106	24.609	-0.272	-0.222
-392.092	130.966	-0.188	-0.238
-391.077	3.401	-0.095	-0.068
-390.063	-61.170	0.255	-0.106
-389.048	488.311	-0.149	0.335
-388.033	-200.000	-0.013	-0.261
-387.019	-156.079	0.086	0.005
-386.004	-200.000	-0.156	0.001
-384.990	16.170	0.200	-0.155
-383.975	441.682	-0.137	-0.295
-382.960	540.718	0.140	-0.328
-381.946	388.806	-0.086	-0.176
-380.931	-64.170	0.234	0.094
-379.917	242.179	0.168	0.277
-378.902	-6.686	-0.170	-0.114
-377.888	796.159	-0.072	0.196
-376.873	49.193	-0.101	-0.094
-375.858	133.199	-0.111	0.141
-374.844	394.499	0.006	0.013
-373.829	-200.000	-0.008	-0.094
-372.815	-92.787	-0.110	0.030
-371.800	361.878	-0.142	-0.280
-370.785	-54.931	0.146	-0.065
-369.771	-200.000	0.066	-0.403
-368.756	-122.493	0.228	0.037
-367.742	465.041	0.174	0.382
-366.727	148.090	0.011	-0.015
-365.712	-29.915	0.276	0.155
-364.698	612.253	-0.031	-0.075
-363.683	-71.023	0.059	-0.022
-362.669	-200.000	0.010	0.207
-361.654	-184.800	0.085	0.001
-360.639	-56.152	-0.142	-0.062
-359.625	-76.695	0.230	-0.079
-358.610	-16.840	-0.268	0.166
-357.596	-94.428	0.121	-0.032
-356.581	-79.910	0.258	0.085
-355.566	-200.000	0.076	0.334
-354.552	219.559	-0.077	0.122
-353.537	800.000	-0.053	0.210
-352.523	-200.000	-0.025	-0.117
-351.508	63.099	0.096	-0.094
-350.493	-157.142	0.373	0.022
-349.479	23.203	0.183	0.148
-348.464	38.832	-0.056	-0.050
-347.450	-200.000	0.010	0.298
-346.435	-77.126	-0.229	0.078
-345.420	77.262	-0.278	0.290
-344.406	800.000	0.077	0.256
-343.391	41.286	0.246	0.218
-342.377	400.341	0.024	-0.050
-341.362	-57.664	0.231	-0.099
-340.348	-78.813	-0.289	-0.097
-339.333	17.869	0.267	0.209
-338.318	-200.000	-0.044	-0.320
-337.304	800.000	-0.059	0.225
-336.289	-78.171	0.206	-0.070
-335.275	78.792	-0.124	-0.130
-334.260	800.000	0.060	-0.180
-333.245	-67.197	-0.303	0.117
-332.231	516.844	-0.019	-0.045
-331.216	-20.225	-0.208	0.126
-330.202	-200.000	-0.042	0.205
-329.187	-200.000	-0.017	0.100
-328.172	-151.122	-0.209	-0.015
-327.158	374.207	0.040	-0.079
-326.143	-134.900	0.170	-0.020
-325.129	-94.545	0.195	0.052
-324.114	-169.508	0.340	0.012
-323.099	707.764	-0.081	-0.211
-322.085	-28.725	-0.350	-0.198
-321.070	176.475	0.161	-0.230
-320.056	-124.857	0.290	-0.044
-319.041	-74.056	-0.136	0.048
-318.026	-94.052	-0.059	-0.016
-317.012	-107.238	0.290	-0.063
-315.997	444.018	0.096	0.206
-314.983	230.848	0.151	-0.243
-313.968	-200.000	-0.042	0.370
-312.953	-98.470	0.255	0.064
-311.939	-150.002	-0.161	-0.012
-310.924	32.846	-0.104	0.088
-309.910	5.701	0.131	0.095
-308.895	127.284	-0.190	-0.237
-307.880	-126.133	0.052	-0.008
-306.866	-200.000	0.071	0.436
-305.851	-104.635	0.112	0.025
-304.837	-68.918	0.325	-0.123
-303.822	800.000	-0.069	-0.263
-302.807	-24.785	-0.243	0.142
-301.793	75.058	0.185	0.191
-300.778	-200.000	-0.024	-0.126
-299.764	17.701	0.209	0.163
-298.749	0.725	0.385	0.270
-297.735	430.136	-0.155	-0.328
-296.720	-81.372	-0.090	-0.029
-295.705	-200.000	-0.057	-0.260
-294.691	-103.737	-0.205	-0.047
-293.676	34.888	0.094	0.081
-292.662	800.000	-0.083	-0.259
-291.647	210.112	-0.068	-0.105
-290.632	-73.266	-0.218	-0.078
-289.618	787.970	-0.090	-0.242
-288.603	159.110	-0.157	0.214
-287.589	47.452	-0.009	0.008
-286.574	62.964	-0.195	-0.191
-285.559	800.000	0.006	-0.023
-284.545	446.170	0.096	-0.206
-283.530	-47.211	-0.075	-0.036
-282.516	-104.658	0.154	-0.035
-281.501	-120.592	0.175	0.029
-280.486	-26.150	-0.221	-0.127
-279.472	369.308	0.063	-0.125
-278.457	234.072	0.039	0.062
-277.443	-180.093	-0.323	0.007
-276.428	532.242	-0.011	0.026
-275.413	-200.000	0.000	-0.179
-274.399	86.139	-0.102	-0.110
-273.384	-90.748	0.540	-0.153
-272.370	320.261	-0.147	-0.273
-271.355	-200.000	0.009	-0.058
-270.340	-79.603	0.316	-0.105
-269.326	133.064	-0.132	0.167
-268.311	391.988	-0.099	0.202
-267.297	-200.000	-0.009	-0.052
-266.282	-82.157	-0.246	0.079
-265.267	726.441	-0.099	0.260
-264.253	115.754	-0.265	0.317
-263.238	257.225	0.041	-0.070
-262.224	71.679	-0.265	-0.270
-261.209	418.890	-0.050	-0.105
-260.195	-200.000	0.003	0.123
-259.180	800.000	-0.059	-0.225
-258.165	-200.000	-0.038	-0.180
-257.151	158.266	-0.162	-0.220
-256.136	334.034	0.175	-0.331
-255.122	-9.062	-0.032	0.021
-254.107	800.000	0.104	-0.304
-253.092	-88.374	0.230	-0.067
-252.078	10.770	-0.087	-0.065
-251.063	-56.734	-0.156	0.068
-250.049	-68.373	0.197	0.075
-249.034	193.696	0.083	-0.122
-248.019	-200.000	-0.002	0.158
-247.005	527.111	-0.157	0.363
-245.990	20.965	0.210	0.167
-244.976	-82.189	0.339	0.108
-243.961	5.887	-0.111	0.081
-242.946	-200.000	-0.035	0.163
-241.932	-53.256	0.196	-0.088
-240.917	332.012	0.155	-0.293
-239.903	2.312	0.160	-0.113
-238.888	800.000	-0.042	0.138
-237.873	70.355	-0.030	0.030
-236.859	468.356	0.119	-0.262
-235.844	242.578	0.078	-0.128
-234.830	466.557	-0.176	0.386
-233.815	-106.680	0.093	0.020
-232.800	4.037	0.228	-0.163
-231.786	-15.745	0.286	0.178
-230.771	605.050	-0.123	0.299
-229.757	-15.972	-0.270	0.168
-228.742	18.663	0.263	0.205
-227.727	-39.059	-0.351	0.181
-226.713	253.610	0.168	-0.281
-225.698	151.382	-0.182	-0.243
-224.684	13.406	-0.306	-0.232
-223.669	401.647	0.029	-0.060
-222.655	-200.000	-0.004	0.277
-221.640	120.951	0.053	0.064
-220.625	-133.785	0.267	-0.032
-219.611	-200.000	0.018	0.310
-218.596	-118.420	-0.186	-0.032
-217.582	85.827	0.138	-0.148
-216.567	120.061	0.107	0.130
-215.552	42.572	0.094	0.084
-214.538	154.036	-0.096	-0.129
-213.523	-123.338	-0.259	0.040
-212.509	312.908	-0.153	-0.281
-211.494	212.658	0.086	-0.132
-210.479	222.712	-0.166	0.262
-209.465	-200.000	-0.027	-0.191
-208.450	-200.000	-0.046	0.207
-207.436	-200.000	-0.000	-0.285
-206.421	-21.620	0.123	-0.073
-205.406	5.208	0.090	-0.065
-204.392	-200.000	0.022	-0.181
-203.377	-27.938	0.213	0.120
-202.363	62.074	0.277	0.269
-201.348	163.993	-0.162	0.222
-200.333	-110.525	-0.057	-0.012
-199.319	244.861	-0.054	0.089
-198.304	-149.138	0.226	0.018
-197.290	46.078	-0.045	0.040
-196.275	-200.000	0.001	0.187
-195.260	0.043	-0.152	0.105
-194.246	45.449	-0.154	0.139
-193.231	-14.800	-0.185	-0.116
-192.217	-200.000	0.031	0.436
-191.202	117.124	-0.191	0.229
-190.187	294.746	-0.124	0.222
-189.173	447.576	0.120	0.258
-188.158	-72.470	0.097	-0.035
-187.144	-11.842	-0.371	0.237
-186.129	393.734	0.008	-0.017
-185.114	-125.482	0.366	-0.054
-184.100	800.000	-0.100	-0.347
-183.085	335.616	-0.125	0.237
-182.071	-124.866	0.087	0.013
-181.056	800.000	0.026	-0.093
-180.042	89.342	-0.084	0.091
-179.027	-14.131	0.190	-0.120
-178.012	800.000	-0.029	0.084
-176.998	-189.978	0.217	-0.002
-175.983	129.541	0.198	-0.247
-174.969	159.056	0.131	0.178
-173.954	-138.480	-0.161	-0.017
-172.939	-200.000	0.048	-0.247
-171.925	800.000	0.046	-0.176
-170.910	-200.000	0.070	-0.308
-169.896	27.063	0.239	0.196
-168.881	190.697	-0.162	0.238
-167.866	-200.000	0.066	0.380
-166.852	-144.934	0.201	0.018
-165.837	-79.706	0.107	-0.035
-164.823	22.196	-0.218	0.174
-163.808	529.571	-0.051	-0.117
-162.793	742.037	-0.070	-0.183
-161.779	-160.494	0.364	0.019
-160.764	-75.622	-0.308	0.107
-159.750	-18.981	-0.148	-0.090
-158.735	203.610	0.069	-0.104
-157.720	-69.072	-0.291	-0.109
-156.706	592.031	0.121	-0.292
-155.691	164.288	-0.076	-0.104
-154.677	-200.000	-0.047	-0.255
-153.662	-109.161	0.173	0.036
-152.647	-115.731	0.287	-0.052
-151.633	800.000	-0.057	-0.206
-150.618	124.032	-0.219	-0.268
-149.604	-72.583	0.258	-0.093
-148.589	-104.965	-0.177	0.040
-147.574	444.125	0.134	0.287
-146.560	244.979	-0.111	0.182
-145.545	429.070	0.091	0.191
-144.531	-168.082	-0.129	-0.005
-143.516	-115.756	-0.177	0.032
-142.502	-62.194	0.101	-0.041
-141.487	159.347	-0.112	0.152
-140.472	261.020	0.032	-0.055
-139.458	-200.000	-0.069	-0.334
-138.443	800.000	-0.095	0.370
-137.429	-51.783	-0.167	0.076
-136.414	-200.000	-0.004	0.120
-135.399	-109.206	0.327	0.068
-134.385	800.000	-0.064	0.183
-133.370	368.474	-0.063	0.124
-132.356	-200.000	-0.019	0.115
-131.341	226.303	0.071	-0.112
-130.326	-200.000	-0.010	0.230
-129.312	-171.318	-0.099	-0.003
-128.297	774.887	0.045	0.121
-127.283	-200.000	-0.002	-0.048
-126.268	-120.910	0.236	0.039
-125.253	-200.000	-0.020	-0.145
-124.239	-140.690	0.233	0.023
-123.224	-200.000	-0.017	0.080
-122.210	-83.444	-0.090	0.028
-121.195	-149.382	-0.371	-0.029
-120.180	-200.000	-0.009	-0.073
-119.166	524.066	0.072	-0.165
-118.151	-200.000	0.017	-0.128
-117.137	-200.000	-0.014	-0.178
-116.122	170.851	0.230	-0.320
-115.107	800.000	-0.042	0.116
-114.093	108.603	0.047	0.055
-113.078	-200.000	0.025	0.137
-112.064	61.420	0.195	0.188
-111.049	300.478	-0.138	-0.248
-110.034	-111.982	-0.398	-0.078
-109.020	-150.244	0.097	0.007
-108.005	0.623	0.271	0.189
-106.991	-28.654	0.094	-0.052
-105.976	-70.372	-0.234	0.086
-104.962	-96.508	0.144	-0.037
-103.947	76.903	0.178	0.184
-102.932	-190.803	0.530	-0.005
-101.918	-200.000	0.006	0.317
-100.903	-200.000	0.024	-0.132
-99.889	42.032	0.056	0.050
-98.874	-2.862	0.167	0.114
-97.859	271.002	0.117	-0.201
-96.845	56.685	-0.392	0.371
-95.830	800.000	-0.102	-0.404
-94.816	216.872	0.135	0.209
-93.801	-200.000	-0.000	0.153
-92.786	105.860	-0.245	-0.282
-91.772	64.860	-0.226	-0.222
-90.757	82.629	0.251	0.266
-89.743	325.243	0.090	-0.168
-88.728	-50.688	0.117	0.053
-87.713	-65.094	-0.279	0.109
-86.699	-200.000	-0.053	0.438
-85.684	800.000	-0.136	0.558
-84.670	-195.858	-0.324	0.002
-83.655	777.841	-0.083	-0.220
-82.640	-25.834	0.100	-0.057
-81.626	800.000	-0.032	-0.114
-80.611	-158.276	-0.298	-0.017
-79.597	-2.080	-0.136	-0.093
-78.582	403.370	0.016	-0.032
-77.567	-93.869	0.371	-0.099
-76.553	60.878	0.134	0.129
-75.538	136.683	-0.193	0.245
-74.524	214.447	0.085	0.130
-73.509	800.000	0.057	-0.167
-72.494	616.821	-0.167	-0.407
-71.480	-6.491	-0.108	-0.071
-70.465	342.052	-0.213	0.405
-69.451	160.398	-0.157	0.213
-68.436	329.788	-0.152	0.285
-67.422	-34.685	0.221	-0.118
-66.407	-60.063	0.257	0.107
-65.392	237.133	-0.113	-0.182
-64.378	-200.000	0.004	0.161
-63.363	219.017	-0.105	0.164
-62.349	93.980	-0.110	-0.121
-61.334	95.088	-1.161	-1.284
-60.319	287.481	0.588	1.032
-59.305	334.513	-0.764	-1.438
-58.290	391.052	0.838	1.690
-57.276	247.730	0.834	1.369
-56.261	-200.000	137.292	639.598
-55.246	341.942	1656.123	3145.505
-54.232	135.731	2797.049	3536.570
-53.217	78.868	2305.536	2396.065
-52.203	28.336	1907.623	1565.281
-51.188	22.681	1703.331	1354.309
-50.173	21.055	1665.839	1312.222
-49.159	41.861	1741.131	1533.093
-48.144	38.519	1748.301	1513.567
-47.130	22.285	1700.027	1348.427
-46.115	20.012	1684.663	1318.898
-45.100	19.905	1679.099	1313.677
-44.086	19.827	1676.710	1311.171
-43.071	19.791	1674.121	1308.821
-42.057	19.752	1672.236	1306.995
-41.042	19.793	1670.035	1305.534
-40.027	19.768	1668.477	1304.076
-39.013	19.834	1666.003	1302.593
-37.998	19.742	1664.881	1300.968
-36.984	19.818	1663.390	1300.325
-35.969	19.872	1661.928	1299.532
-34.954	19.891	1660.379	1298.412
-33.940	19.910	1659.152	1297.545
-32.925	19.879	1657.062	1295.631
-31.911	19.911	1655.466	1294.564
-30.896	19.851	1654.067	1292.970
-29.881	19.910	1653.101	1292.608
-28.867	19.836	1651.159	1290.483
-27.852	19.911	1649.407	1289.625
-26.838	19.824	1648.683	1288.356
-25.823	19.898	1646.818	1287.398
-24.809	19.944	1645.689	1286.805
-23.794	19.942	1644.048	1285.463
-22.779	19.936	1642.752	1284.351
-21.765	20.088	1640.613	1283.756
-20.750	19.942	1639.216	1281.532
-19.736	20.092	1637.697	1281.402
-18.721	20.052	1636.543	1280.153
-17.706	20.019	1634.967	1278.623
-16.692	19.984	1633.718	1277.341
-15.677	19.971	1632.468	1276.213
-14.663	20.000	1630.789	1275.064
-13.648	19.931	1630.071	1273.947
-12.633	20.000	1628.434	1273.122
-11.619	20.006	1626.489	1271.594
-10.604	20.016	1625.409	1270.771
-9.590	20.054	1623.968	1269.875
-8.575	19.964	1622.641	1268.127
-7.560	20.006	1620.951	1267.060
-6.546	20.059	1620.300	1266.890
-5.531	20.006	1619.433	1265.774
-4.517	20.007	1618.023	1264.631
-3.502	19.963	1617.305	1263.698
-2.487	19.987	1615.408	1262.338
-1.473	19.524	1602.678	1248.992
-0.458	16.298	1582.316	1209.998
0.556	11.497	1584.789	1177.166
1.571	9.200	1608.572	1177.903
2.586	9.021	1620.101	1184.917
3.600	8.521	1565.733	1141.483
4.615	5.043	1461.630	1042.283
5.629	1.203	1408.261	979.381
6.644	0.636	1401.670	971.067
7.659	0.638	1400.418	970.127
8.673	0.675	1399.015	969.304
9.688	0.530	1397.227	967.052
10.702	0.489	1393.315	963.995
11.717	2.406	1395.358	977.581
12.731	7.896	1403.310	1018.260
13.746	14.221	1413.616	1066.289
14.761	17.057	1417.191	1087.080
15.775	16.636	1415.396	1082.916
16.790	15.651	1412.691	1074.459
17.804	14.872	1411.328	1068.350
18.819	14.445	1410.321	1064.764
19.834	14.335	1408.254	1062.406
20.848	14.062	1406.795	1059.473
21.863	13.910	1405.672	1057.564
22.877	13.591	1405.058	1054.983
23.892	13.672	1403.113	1053.944
24.907	13.598	1402.510	1052.921
25.921	13.608	1402.014	1052.519
26.936	13.726	1400.637	1052.146
27.950	13.644	1400.066	1051.101
28.965	13.711	1399.252	1050.823
29.980	13.668	1397.867	1049.420
30.994	13.830	1397.052	1049.735
32.009	13.829	1395.969	1048.826
33.023	13.881	1394.606	1048.035
34.038	13.927	1392.964	1047.001
35.053	13.788	1392.383	1045.594
36.067	13.714	1391.752	1044.565
37.082	13.742	1390.857	1043.972
38.096	13.828	1389.436	1043.355
39.111	13.810	1388.787	1042.663
40.126	13.743	1387.979	1041.542
41.140	13.726	1386.811	1040.469
42.155	13.676	1386.453	1039.794
43.169	13.570	1386.886	1039.359
44.184	13.659	1386.150	1039.279
45.199	13.600	1386.052	1038.742
46.213	13.742	1384.722	1038.542
47.228	13.634	1384.518	1037.620
48.242	13.667	1382.878	1036.508
49.257	13.722	1381.386	1035.636
50.271	13.569	1379.780	1033.388
51.286	13.744	1378.618	1033.516
52.301	13.720	1377.226	1032.230
53.315	13.850	1375.560	1031.701
54.330	13.589	1375.252	1029.756
55.344	13.580	1373.741	1028.481
56.359	13.730	1372.567	1028.441
57.374	13.667	1371.875	1027.437
58.388	13.639	1371.404	1026.819
59.403	13.594	1370.878	1026.059
60.417	13.637	1369.922	1025.520
61.432	13.564	1369.131	1024.386
62.447	13.539	1368.176	1023.423
63.461	13.496	1366.955	1022.154
64.476	13.444	1366.084	1021.093
65.490	13.512	1364.388	1020.157
66.505	13.580	1363.188	1019.585
67.520	13.650	1361.757	1018.856
68.534	13.649	1360.799	1018.041
69.549	13.730	1359.349	1017.366
70.563	13.572	1358.868	1015.943
71.578	13.513	1357.160	1014.215
72.593	13.554	1356.237	1013.689
73.607	13.518	1355.905	1013.132
74.622	13.478	1354.707	1011.902
75.636	13.538	1354.198	1011.799
76.651	13.533	1353.147	1010.891
77.666	13.536	1352.770	1010.541
78.680	13.594	1352.009	1010.237
79.695	13.522	1351.094	1009.020
80.709	13.523	1350.446	1008.455
81.724	13.614	1349.554	1008.257
82.739	13.661	1348.304	1007.517
83.753	13.705	1347.547	1007.131
84.768	13.840	1346.093	1006.770
85.782	13.816	1344.796	1005.566
86.797	13.682	1343.608	1003.780
87.812	13.706	1342.119	1002.722
88.826	13.658	1341.140	1001.611
89.841	13.637	1340.157	1000.667
90.855	13.722	1339.139	1000.329
91.870	13.787	1337.572	999.462
92.884	13.741	1337.766	999.237
93.899	13.793	1336.616	998.608
94.914	13.837	1335.152	997.689
95.928	13.785	1334.937	997.125
96.943	13.926	1333.942	997.144
97.957	13.772	1333.279	995.632
98.972	13.817	1331.890	994.776
99.987	13.762	1330.727	993.493
101.001	13.802	1329.616	992.815
102.016	13.855	1328.791	992.425
103.030	13.824	1328.086	991.626
104.045	13.780	1327.034	990.488
105.060	13.709	1326.032	989.231
106.074	13.615	1324.385	987.355
107.089	13.644	1323.542	986.813
108.103	13.705	1321.344	985.448
109.118	13.651	1320.177	984.173
110.133	13.620	1319.141	983.127
111.147	13.655	1317.388	981.945
112.162	13.667	1316.543	981.294
113.176	13.711	1315.636	980.791
114.191	13.791	1314.120	980.048
115.206	13.757	1313.192	979.072
116.220	13.747	1312.117	978.123
117.235	13.721	1310.880	976.962
118.249	13.804	1310.053	976.748
119.264	13.691	1308.774	975.045
120.279	13.762	1307.562	974.469
121.293	13.653	1307.207	973.481
122.308	13.821	1305.684	973.246
123.322	13.730	1304.458	971.708
124.337	13.732	1303.345	970.810
125.352	13.782	1302.137	970.116
126.366	13.600	1301.491	968.483
127.381	13.690	1300.395	968.108
128.395	13.747	1298.808	967.173
129.410	13.659	1298.359	966.238
130.424	13.698	1297.228	965.540
131.439	13.669	1296.248	964.559
132.454	13.715	1295.210	963.969
133.468	13.746	1294.236	963.334
134.483	13.738	1293.441	962.615
135.497	13.753	1292.368	961.816
136.512	13.708	1290.945	960.411
137.527	13.792	1289.591	959.804
138.541	13.717	1288.487	958.468
139.556	13.681	1287.121	957.157
140.570	13.786	1286.270	957.047
141.585	13.916	1284.417	956.329
142.600	13.800	1283.676	955.024
143.614	13.883	1283.136	955.016
144.629	13.952	1281.568	954.163
145.643	13.870	1280.588	952.880
146.658	13.907	1279.519	952.213
147.673	13.913	1278.289	951.246
148.687	13.869	1276.897	949.870
149.702	13.822	1276.143	948.957
150.716	13.881	1274.372	947.896
151.731	13.928	1273.201	947.208
152.746	13.921	1271.657	945.935
153.760	13.843	1271.105	944.996
154.775	13.948	1269.477	944.302
155.789	13.944	1268.522	943.485
156.804	13.948	1267.373	942.567
157.819	13.887	1266.688	941.630
158.833	14.102	1265.194	941.653
159.848	14.058	1264.269	940.632
160.862	14.072	1263.511	940.064
161.877	13.951	1262.126	938.269
162.892	14.050	1261.137	938.010
163.906	13.926	1260.445	936.712
164.921	13.979	1259.583	936.286
165.935	13.999	1258.871	935.785
166.950	14.042	1257.822	935.169
167.964	14.075	1256.975	934.641
168.979	13.996	1256.525	933.776
169.994	13.977	1255.849	933.088
171.008	14.174	1254.582	933.170
172.023	14.126	1253.805	932.237
173.037	14.226	1252.745	931.929
174.052	14.155	1252.022	930.909
175.067	14.116	1250.778	929.683
176.081	14.144	1249.836	929.056
177.096	14.174	1248.900	928.451
178.110	14.228	1247.613	927.709
179.125	14.210	1246.470	926.679
180.140	14.165	1245.209	925.410
181.154	14.222	1244.173	924.872
182.169	14.299	1242.258	923.796
183.183	14.290	1241.228	922.899
184.198	14.389	1240.558	922.865
185.213	14.333	1238.991	921.307
186.227	14.440	1238.099	921.153
187.242	14.352	1237.137	919.875
188.256	14.327	1236.391	919.101
189.271	14.384	1235.261	918.492
190.286	14.231	1234.277	916.836
191.300	14.281	1233.291	916.299
192.315	14.165	1232.921	915.305
193.329	14.209	1232.476	915.136
194.344	14.344	1231.536	915.098
195.359	14.359	1230.740	914.505
196.373	14.306	1230.514	913.966
197.388	14.408	1229.296	913.539
198.402	14.413	1229.362	913.534
199.417	14.432	1228.729	913.091
200.432	14.555	1227.151	912.507
201.446	14.537	1226.744	912.025
202.461	14.546	1225.431	911.021
203.475	14.625	1224.601	910.752
204.490	14.603	1223.744	909.916
205.504	14.618	1221.995	908.613
206.519	14.577	1221.030	907.596
207.534	14.506	1220.074	906.418
208.548	14.503	1219.035	905.552
209.563	14.553	1217.987	904.959
210.577	14.567	1217.164	904.349
211.592	14.704	1216.174	904.269
212.607	14.643	1215.414	903.299
213.621	14.671	1214.547	902.725
214.636	14.809	1213.143	902.346
215.650	14.686	1213.123	901.587
216.665	14.633	1212.003	900.388
217.680	14.796	1210.785	900.284
218.694	14.806	1210.056	899.716
219.709	14.844	1209.194	899.201
220.723	14.741	1208.542	898.079
221.738	14.855	1207.459	897.808
222.753	14.711	1206.944	896.574
223.767	14.867	1206.264	896.824
224.782	14.866	1205.197	895.947
225.796	14.941	1205.099	896.199
226.811	14.925	1204.096	895.287
227.826	14.970	1203.012	894.640
228.840	14.991	1202.532	894.320
229.855	14.845	1202.168	893.190
230.869	14.939	1200.971	892.724
231.884	14.954	1200.254	892.192
232.899	14.812	1199.508	890.802
233.913	14.896	1198.901	890.715
234.928	14.883	1198.306	890.128
235.942	14.925	1197.158	889.422
236.957	14.875	1196.685	888.725
237.972	14.879	1196.104	888.232
238.986	14.836	1195.524	887.494
240.001	14.928	1194.760	887.338
241.015	14.954	1193.522	886.478
242.030	15.018	1192.795	886.201
243.045	15.017	1191.877	885.435
244.059	15.097	1190.883	885.042
245.074	14.983	1190.382	883.986
246.088	15.057	1189.818	883.883
247.103	15.083	1188.821	883.201
248.117	15.093	1188.135	882.666
249.132	15.278	1187.505	883.091
250.147	15.198	1186.386	881.760
251.161	15.373	1185.289	881.788
252.176	15.354	1184.859	881.292
253.190	15.319	1184.418	880.698
254.205	15.463	1183.745	880.875
255.220	15.385	1182.952	879.799
256.234	15.435	1182.456	879.614
257.249	15.411	1181.741	878.880
258.263	15.387	1181.056	878.170
259.278	15.434	1180.325	877.792
260.293	15.500	1179.597	877.520
261.307	15.583	1178.745	877.238
262.322	15.516	1178.347	876.518
263.336	15.464	1178.081	875.970
264.351	15.557	1177.366	875.846
265.366	15.605	1176.535	875.398
266.380	15.698	1175.137	874.768
267.395	15.555	1174.865	873.740
268.409	15.628	1174.075	873.456
269.424	15.572	1173.858	872.926
270.439	15.485	1173.385	872.046
271.453	15.587	1172.058	871.512
272.468	15.623	1171.227	871.001
273.482	15.570	1170.876	870.392
274.497	15.727	1169.507	870.111
275.512	15.668	1169.294	869.567
276.526	15.596	1168.736	868.702
277.541	15.742	1167.412	868.398
278.555	15.776	1166.998	868.188
279.570	15.723	1166.383	867.382
280.585	15.776	1165.577	866.978
281.599	15.767	1164.617	866.137
282.614	15.858	1163.217	865.489
283.628	15.793	1162.406	864.478
284.643	15.853	1161.747	864.218
285.657	15.788	1160.936	863.201
286.672	15.844	1159.837	862.598
287.687	15.774	1158.875	861.448
288.701	15.837	1157.983	861.029
289.716	15.862	1157.326	860.594
290.730	15.815	1156.275	859.494
291.745	15.882	1156.165	859.679
292.760	15.839	1155.295	858.736
293.774	15.980	1154.432	858.738
294.789	15.920	1154.031	858.061
295.803	15.905	1153.593	857.581
296.818	16.024	1152.388	857.217
297.833	15.951	1151.805	856.334
298.847	16.134	1150.643	856.323
299.862	15.999	1149.925	855.030
300.876	16.150	1149.312	855.263
301.891	16.108	1148.732	854.543
302.906	16.179	1148.097	854.356
303.920	16.029	1147.564	853.125
304.935	16.302	1146.475	853.617
305.949	16.180	1146.179	852.705
306.964	16.138	1145.636	852.016
307.979	16.320	1144.508	852.017
308.993	16.169	1144.029	850.823
310.008	16.247	1143.121	850.468
311.022	16.244	1142.029	849.563
312.037	16.369	1141.288	849.569
313.052	16.280	1140.676	848.590
314.066	16.220	1139.321	847.202
315.081	16.166	1138.554	846.288
316.095	16.190	1138.145	846.031
317.110	16.138	1137.407	845.147
318.125	16.352	1136.247	845.280
319.139	16.174	1135.761	843.953
320.154	16.178	1135.130	843.429
321.168	16.174	1134.683	843.003
322.183	16.319	1134.016	843.159
323.197	16.332	1133.490	842.755
324.212	16.348	1132.459	841.997
325.227	16.381	1131.950	841.707
326.241	16.357	1131.431	841.128
327.256	16.368	1130.550	840.453
328.270	16.363	1129.404	839.500
329.285	16.391	1128.577	838.952
330.300	16.428	1127.798	838.480
331.314	16.364	1126.768	837.325
332.329	16.361	1125.601	836.370
333.343	16.491	1125.138	836.591
334.358	16.462	1124.123	835.622
335.373	16.508	1123.428	835.260
336.387	16.435	1122.831	834.380
337.402	16.633	1121.813	834.527
338.416	16.498	1121.116	833.268
339.431	16.589	1120.472	833.166
340.446	16.548	1120.374	832.815
341.460	16.686	1118.842	832.280
342.475	16.624	1118.321	831.516
343.489	16.711	1117.389	831.174
344.504	16.803	1116.111	830.602
345.519	16.826	1115.093	829.884
346.533	16.760	1114.865	829.319
347.548	16.673	1114.335	828.426
348.562	16.794	1113.164	828.071
349.577	16.816	1112.149	827.350
350.592	16.752	1111.835	826.732
351.606	16.687	1111.482	826.081
352.621	16.761	1110.554	825.677
353.635	16.804	1109.889	825.320
354.650	16.920	1108.830	825.021
355.665	16.849	1108.263	824.181
356.679	16.795	1107.571	823.334
357.694	16.901	1106.892	823.270
358.708	16.981	1106.138	823.023
359.723	16.889	1105.557	822.071
360.738	16.902	1105.219	821.811
361.752	16.903	1104.615	821.295
362.767	16.908	1104.320	821.026
363.781	16.953	1103.163	820.313
364.796	16.935	1102.757	819.852
365.810	17.107	1102.203	820.198
366.825	17.039	1101.373	819.180
367.840	17.010	1100.839	818.568
368.854	17.117	1100.558	818.804
369.869	17.047	1099.712	817.763
370.883	17.150	1098.337	817.165
371.898	17.167	1097.690	816.693
372.913	17.123	1097.195	816.042
373.927	17.099	1096.618	815.424
374.942	17.163	1096.406	815.502
375.956	17.185	1095.266	814.685
376.971	17.249	1095.127	814.820
377.986	17.224	1094.617	814.249
379.000	17.341	1094.005	814.282
380.015	17.361	1093.039	813.585
381.029	17.376	1092.311	813.043
382.044	17.367	1092.182	812.832
383.059	17.319	1091.558	812.067
384.073	17.461	1089.981	811.498
385.088	17.517	1089.115	811.048
386.102	17.592	1088.299	810.726
387.117	17.503	1087.199	809.412
388.132	17.285	1086.760	807.980
389.146	17.381	1085.721	807.590
390.161	17.427	1085.491	807.565
391.175	17.425	1084.235	806.551
392.190	17.454	1083.487	806.058
393.205	17.386	1083.315	805.537
394.219	17.581	1082.006	805.417
395.234	17.487	1081.307	804.378
396.248	17.414	1080.115	803.076
397.263	17.523	1079.152	802.805
398.278	17.582	1078.618	802.616
399.292	17.469	1078.133	801.648
400.307	17.438	1077.423	800.907
401.321	17.534	1076.675	800.730
402.336	17.481	1076.027	799.926
403.350	17.476	1075.237	799.245
404.365	17.544	1075.037	799.347
405.380	17.586	1074.178	798.834
406.394	17.732	1072.793	798.418
407.409	17.652	1072.194	797.526
408.423	17.667	1071.699	797.159
409.438	17.735	1070.859	796.782
410.453	17.706	1070.537	796.333
411.467	17.849	1069.313	796.019
412.482	17.809	1068.679	795.290
413.496	17.929	1067.935	795.226
414.511	17.889	1067.521	794.661
415.526	17.939	1066.827	794.310
416.540	17.839	1066.718	793.692
417.555	17.950	1065.672	793.356
418.569	17.918	1065.223	792.804
419.584	17.912	1065.087	792.604
420.599	18.061	1064.369	792.692
421.613	109.547	1332.950	1491.754
422.628	101.255	1371.995	1491.851
