DTS Sentinel unit serial number:	SN413079Multiplexer serial number:	ORYXHardware model number:	OX4-SRSoftware version number:	ORYX F/W v4.00 Oryx Data Collector v3.7.2.0data status	okinstallation	princeton_trtdifferential loss correction	single-endedforward channel	channel 2reverse channel	N/Adate	2019/09/19time	04:47:35forward acquisition time	60.00reverse acquisition time	0.00gamma	496.2192k internal	0.2351k external	0.2351temperature offset calibration	1.0017default loss term (dB/km)	0.3790temperature slope calibration	1.0000multiplexer offset coefficient	1.0000multiplexer slope coefficient	1.0000fibre end	0.00T internal ref (°C)	19.87T ext. ref 1 (°C)	0.61T ext. ref 2 (°C)	12.96length (m)	temperature (°C)	Stokes	anti-Stokes-747.200	64.404	-0.081	-0.081
-746.185	214.452	0.151	0.238
-745.171	-54.077	0.271	0.123
-744.156	-124.601	-0.289	-0.045
-743.142	-68.135	0.090	-0.035
-742.127	-76.251	-0.477	0.168
-741.112	234.985	0.153	0.253
-740.098	150.746	0.095	0.129
-739.083	300.752	0.110	0.202
-738.069	-138.107	0.228	-0.025
-737.054	-61.954	0.305	0.127
-736.039	-23.112	-0.193	0.116
-735.025	800.000	-0.024	0.088
-734.010	-153.551	-0.306	0.021
-732.996	90.746	0.068	0.076
-731.981	800.000	-0.074	-0.211
-730.966	800.000	0.027	-0.112
-729.952	74.827	-0.342	-0.359
-728.937	800.000	-0.060	0.177
-727.923	-105.786	-0.164	-0.037
-726.908	98.682	0.162	-0.186
-725.894	800.000	0.062	-0.236
-724.879	-200.000	-0.049	0.245
-723.864	-141.876	-0.205	0.020
-722.850	-70.085	0.074	0.028
-721.835	800.000	-0.010	0.038
-720.821	186.160	0.078	-0.116
-719.806	519.557	-0.094	-0.219
-718.791	-1.390	-0.172	-0.121
-717.777	45.073	0.108	-0.100
-716.762	70.154	0.118	0.122
-715.748	-39.087	-0.193	0.101
-714.733	758.845	-0.079	-0.212
-713.718	-128.124	-0.364	0.052
-712.704	5.859	-0.216	0.160
-711.689	167.552	0.105	-0.149
-710.675	-101.317	0.089	0.022
-709.660	28.712	-0.201	0.170
-708.645	-200.000	0.004	-0.356
-707.631	800.000	-0.116	0.419
-706.616	800.000	0.031	-0.109
-705.602	-33.093	-0.526	-0.291
-704.587	6.676	0.143	-0.106
-703.572	261.016	-0.129	-0.223
-702.558	45.636	-0.361	-0.333
-701.543	95.750	-0.033	0.038
-700.529	-200.000	-0.002	-0.169
-699.514	-26.540	-0.296	-0.173
-698.499	-101.511	0.080	-0.019
-697.485	-126.355	0.361	-0.054
-696.470	-21.564	0.165	-0.100
-695.456	2.295	0.168	-0.121
-694.441	-76.841	-0.256	-0.089
-693.426	800.000	-0.057	0.163
-692.412	-32.685	0.081	-0.045
-691.397	-27.237	-0.092	0.053
-690.383	-78.119	-0.131	0.045
-689.368	253.552	0.034	-0.058
-688.354	199.614	0.101	-0.154
-687.339	-162.607	-0.091	0.004
-686.324	86.342	0.046	0.051
-685.310	282.513	-0.088	0.158
-684.295	800.000	-0.100	0.332
-683.281	-121.774	-0.323	-0.053
-682.266	-5.146	-0.246	-0.169
-681.251	57.019	-0.061	-0.059
-680.237	-200.000	-0.054	-0.258
-679.222	-106.087	-0.167	-0.037
-678.208	99.993	0.123	-0.142
-677.193	71.140	0.184	0.190
-676.178	10.658	-0.224	-0.170
-675.164	-24.457	-0.239	0.142
-674.149	-80.809	0.076	0.025
-673.135	185.252	0.198	0.293
-672.120	83.531	-0.202	0.219
-671.105	-66.517	-0.247	-0.097
-670.091	800.000	-0.078	0.217
-669.076	800.000	-0.101	-0.417
-668.062	-200.000	-0.022	-0.134
-667.047	-200.000	0.017	0.390
-666.032	6.890	0.039	-0.029
-665.018	39.742	-0.131	0.117
-664.003	800.000	0.037	0.105
-662.989	-200.000	0.073	-0.526
-661.974	-200.000	-0.026	0.252
-660.959	192.510	0.118	-0.177
-659.945	-128.873	0.326	0.046
-658.930	-68.722	-0.252	-0.097
-657.916	-200.000	-0.026	0.137
-656.901	-19.676	-0.095	0.058
-655.886	104.326	-0.130	-0.152
-654.872	-200.000	-0.001	0.016
-653.857	-173.191	-0.147	0.004
-652.843	-36.556	-0.051	0.027
-651.828	56.131	-0.140	0.135
-650.814	-136.094	-0.228	0.027
-649.799	-9.573	-0.058	-0.038
-648.784	321.090	0.022	-0.042
-647.770	267.257	-0.192	-0.334
-646.755	-200.000	-0.009	-0.134
-645.741	39.511	0.101	-0.090
-644.726	568.548	-0.171	0.414
-643.711	-200.000	0.156	-0.000
-642.697	-119.552	0.028	-0.005
-641.682	158.723	0.212	-0.293
-640.668	459.585	0.112	0.249
-639.653	-175.426	0.050	0.001
-638.638	-159.096	-0.357	0.020
-637.624	-59.335	0.392	-0.168
-636.609	-72.037	-0.367	-0.135
-635.595	-137.477	0.296	0.033
-634.580	65.427	-0.303	-0.304
-633.565	800.000	0.041	0.141
-632.551	5.817	0.177	0.130
-631.536	211.614	-0.196	-0.307
-630.522	-114.533	0.160	0.030
-629.507	-108.414	0.134	-0.029
-628.492	800.000	0.053	-0.183
-627.478	572.311	-0.117	0.283
-626.463	-118.401	0.304	-0.054
-625.449	-33.931	-0.363	0.198
-624.434	95.664	0.111	-0.125
-623.419	92.436	-0.115	0.129
-622.405	-200.000	0.017	-0.109
-621.390	2.629	-0.056	0.040
-620.376	264.068	-0.071	-0.122
-619.361	217.731	-0.135	-0.213
-618.346	-126.991	-0.242	0.035
-617.332	88.698	0.140	0.155
-616.317	-79.795	-0.044	-0.015
-615.303	-108.540	-0.312	-0.067
-614.288	-95.079	0.424	0.114
-613.273	800.000	0.068	-0.287
-612.259	127.356	-0.115	-0.145
-611.244	15.123	0.239	-0.186
-610.230	-113.068	-0.266	0.052
-609.215	311.833	0.027	-0.050
-608.201	-200.000	-0.014	0.113
-607.186	-200.000	-0.005	-0.032
-606.171	181.199	0.108	-0.158
-605.157	11.267	0.142	0.108
-604.142	-200.000	0.013	-0.167
-603.128	180.722	0.186	-0.272
-602.113	-93.328	-0.396	0.109
-601.098	-116.391	-0.256	-0.047
-600.084	-157.702	0.339	-0.020
-599.069	-120.810	0.119	-0.020
-598.055	15.535	-0.127	0.099
-597.040	-200.000	0.016	0.102
-596.025	800.000	0.107	-0.355
-595.011	94.297	-0.137	-0.155
-593.996	-165.415	0.089	0.004
-592.982	302.977	0.161	-0.295
-591.967	-84.295	-0.354	0.111
-590.952	187.806	0.080	0.119
-589.938	-7.166	0.194	0.131
-588.923	-60.490	-0.369	-0.156
-587.909	-200.000	-0.021	0.119
-586.894	214.306	-0.178	-0.280
-585.879	602.115	0.066	0.163
-584.865	-200.000	-0.018	-0.362
-583.850	190.400	-0.132	0.197
-582.836	-200.000	0.015	-0.170
-581.821	-45.727	-0.220	0.108
-580.806	-127.576	0.423	-0.061
-579.792	-96.765	-0.110	-0.029
-578.777	-200.000	-0.004	0.326
-577.763	800.000	0.101	0.278
-576.748	-7.865	-0.201	-0.134
-575.733	112.988	0.038	-0.045
-574.719	-133.900	0.366	-0.045
-573.704	-186.646	0.191	0.003
-572.690	-200.000	0.006	-0.173
-571.675	-20.754	-0.236	0.143
-570.661	-102.177	-0.164	0.039
-569.646	-200.000	-0.059	-0.396
-568.631	7.123	-0.095	-0.070
-567.617	295.883	0.095	-0.173
-566.602	-200.000	0.012	-0.284
-565.588	-59.609	-0.023	0.010
-564.573	222.664	-0.142	-0.226
-563.558	-200.000	0.006	0.032
-562.544	92.538	-0.081	0.091
-561.529	26.565	-0.242	0.201
-560.515	-96.536	0.487	0.127
-559.500	-56.786	-0.187	-0.082
-558.485	-41.427	-0.190	0.097
-557.471	-117.834	0.307	-0.055
-556.456	301.881	0.123	-0.225
-555.442	-200.000	-0.031	0.265
-554.427	-200.000	0.060	0.409
-553.412	-127.832	-0.296	0.042
-552.398	800.000	-0.187	-0.511
-551.383	-78.314	-0.203	-0.069
-550.369	-106.492	-0.259	-0.057
-549.354	271.201	-0.063	-0.111
-548.339	20.225	0.240	0.192
-547.325	-79.216	-0.034	0.012
-546.310	-68.342	0.088	-0.034
-545.296	72.396	-0.293	-0.302
-544.281	64.195	-0.239	0.238
-543.266	41.898	-0.181	-0.162
-542.252	116.750	0.182	-0.221
-541.237	81.422	0.066	0.071
-540.223	-127.974	0.120	-0.017
-539.208	269.639	-0.143	-0.248
-538.193	27.258	0.243	-0.202
-537.179	584.538	-0.090	-0.219
-536.164	800.000	0.070	-0.258
-535.150	800.000	0.045	-0.181
-534.135	578.279	0.033	0.079
-533.121	-200.000	-0.024	0.218
-532.106	139.503	0.126	-0.164
-531.091	43.093	0.068	0.062
-530.077	-11.227	-0.254	-0.165
-529.062	37.326	-0.117	-0.103
-528.048	-46.906	-0.211	0.102
-527.033	-95.981	0.351	0.092
-526.018	-151.286	-0.087	0.006
-525.004	-178.767	-0.335	-0.008
-523.989	-200.000	0.002	0.078
-522.975	-69.820	0.294	0.111
-521.960	-45.670	-0.043	-0.021
-520.945	-200.000	0.011	-0.141
-519.931	-200.000	-0.047	-0.457
-518.916	92.788	-0.054	-0.061
-517.902	-196.292	-0.193	-0.001
-516.887	-48.933	-0.276	-0.131
-515.872	163.004	0.272	0.378
-514.858	79.460	-0.100	-0.106
-513.843	185.681	-0.089	-0.131
-512.829	800.000	-0.075	-0.248
-511.814	800.000	0.091	-0.348
-510.799	-78.413	0.047	0.016
-509.785	-158.446	0.210	-0.012
-508.770	72.574	0.178	-0.184
-507.756	-10.878	-0.340	0.222
-506.741	718.467	-0.061	-0.160
-505.726	127.248	-0.156	0.196
-504.712	160.676	0.132	-0.182
-503.697	696.400	-0.074	0.191
-502.683	415.269	-0.065	-0.137
-501.668	-200.000	0.039	-0.199
-500.653	-55.257	0.128	0.057
-499.639	88.301	-0.361	0.396
-498.624	523.390	-0.076	0.177
-497.610	323.565	-0.089	-0.168
-496.595	-73.423	0.124	-0.045
-495.581	-56.524	-0.411	0.180
-494.566	-40.067	0.189	-0.098
-493.551	-34.378	0.196	0.106
-492.537	800.000	-0.101	-0.402
-491.522	584.125	-0.078	0.190
-490.508	800.000	-0.096	0.305
-489.493	-47.418	0.308	-0.148
-488.478	-85.247	0.077	-0.024
-487.464	64.094	0.185	0.184
-486.449	35.344	0.158	0.137
-485.435	-200.000	-0.002	0.176
-484.420	366.953	0.184	0.367
-483.405	-200.000	-0.051	-0.248
-482.391	800.000	-0.098	-0.321
-481.376	253.831	0.209	-0.352
-480.362	402.854	-0.074	0.154
-479.347	218.970	-0.181	-0.286
-478.332	-67.669	0.319	0.123
-477.318	-200.000	-0.002	0.242
-476.303	-96.636	0.290	0.076
-475.289	-200.000	0.024	0.518
-474.274	-1.978	-0.307	-0.213
-473.259	127.211	-0.145	0.182
-472.245	157.507	0.148	-0.202
-471.230	-200.000	0.054	-0.356
-470.216	-200.000	0.026	-0.368
-469.201	-200.000	-0.110	-0.519
-468.186	73.931	0.052	-0.054
-467.172	40.492	0.110	-0.097
-466.157	-200.000	-0.054	-0.310
-465.143	800.000	0.099	-0.272
-464.128	800.000	0.047	-0.180
-463.113	156.374	0.185	0.251
-462.099	-125.807	0.393	-0.059
-461.084	-166.094	0.075	0.003
-460.070	132.911	-0.077	-0.099
-459.055	376.482	0.097	0.195
-458.040	-79.162	0.140	-0.047
-457.026	800.000	-0.059	0.191
-456.011	29.970	-0.067	-0.056
-454.997	-168.384	-0.234	-0.009
-453.982	641.758	-0.067	0.168
-452.968	-109.114	0.177	0.037
-451.953	542.308	-0.110	-0.258
-450.938	495.536	0.045	-0.101
-449.924	478.527	-0.154	0.344
-448.909	-59.152	-0.056	0.024
-447.895	800.000	-0.073	0.252
-446.880	-200.000	-0.016	0.087
-445.865	800.000	0.009	-0.035
-444.851	-73.916	-0.224	0.080
-443.836	370.297	0.187	0.373
-442.822	759.325	0.132	0.352
-441.807	-200.000	-0.042	0.190
-440.792	99.316	-0.147	-0.168
-439.778	466.844	0.071	0.158
-438.763	800.000	0.043	0.158
-437.749	236.229	0.108	-0.176
-436.734	62.546	-0.118	0.116
-435.719	800.000	0.102	0.342
-434.705	-9.034	0.322	0.213
-433.690	232.255	-0.183	-0.296
-432.676	-200.000	-0.040	0.210
-431.661	800.000	-0.014	-0.048
-430.646	214.483	0.064	-0.100
-429.632	-108.149	-0.529	0.113
-428.617	143.451	0.111	-0.145
-427.603	-154.324	-0.179	-0.012
-426.588	266.459	0.099	-0.171
-425.573	-100.417	-0.134	-0.033
-424.559	800.000	0.099	0.297
-423.544	-78.146	-0.345	0.117
-422.530	10.057	-0.325	-0.243
-421.515	40.240	-0.175	0.155
-420.500	-200.000	-0.011	-0.350
-419.486	-179.757	-0.279	0.006
-418.471	-7.076	0.143	-0.096
-417.457	-135.937	0.445	0.052
-416.442	-59.514	-0.224	-0.095
-415.428	-96.660	0.037	-0.009
-414.413	-200.000	-0.058	-0.341
-413.398	-200.000	0.022	-0.182
-412.384	19.566	0.111	-0.088
-411.369	-200.000	0.046	-0.202
-410.355	800.000	0.125	-0.395
-409.340	-80.069	0.155	0.051
-408.325	-200.000	-0.010	-0.168
-407.311	-98.655	0.207	-0.052
-406.296	-200.000	0.084	0.397
-405.282	-200.000	-0.056	-0.410
-404.267	800.000	-0.073	0.315
-403.252	800.000	0.098	0.341
-402.238	-200.000	-0.048	0.323
-401.223	-87.755	-0.068	-0.020
-400.209	800.000	-0.041	0.114
-399.194	800.000	-0.093	0.272
-398.179	372.525	0.115	-0.231
-397.165	-200.000	0.025	-0.177
-396.150	309.228	0.032	0.059
-395.136	7.265	-0.105	-0.077
-394.121	-124.319	-0.092	0.014
-393.106	38.486	0.065	-0.057
-392.092	800.000	0.020	0.074
-391.077	-90.574	-0.031	0.009
-390.063	83.966	0.248	0.266
-389.048	-39.501	-0.190	-0.098
-388.033	24.845	-0.008	-0.007
-387.019	-200.000	0.007	-0.122
-386.004	800.000	-0.072	0.227
-384.990	34.364	0.137	-0.118
-383.975	86.477	0.193	0.210
-382.960	-23.136	-0.099	-0.059
-381.946	68.620	0.231	0.233
-380.931	-200.000	0.004	0.116
-379.917	776.837	-0.080	0.216
-378.902	147.231	-0.237	0.314
-377.888	-156.633	-0.251	-0.015
-376.873	-102.115	-0.265	0.063
-375.858	-100.702	-0.328	0.080
-374.844	-116.109	0.271	-0.050
-373.829	-36.097	-0.121	-0.064
-372.815	800.000	-0.099	-0.291
-371.800	-35.850	0.380	0.202
-370.785	-53.766	0.112	-0.050
-369.771	-152.551	-0.278	-0.020
-368.756	180.709	0.096	0.139
-367.742	-200.000	-0.027	0.120
-366.727	800.000	0.089	-0.264
-365.712	-124.486	0.115	-0.018
-364.698	-77.800	-0.178	-0.061
-363.683	800.000	0.024	-0.078
-362.669	-111.542	-0.218	-0.043
-361.654	36.713	0.111	-0.096
-360.639	60.835	0.092	-0.090
-359.625	-81.023	0.408	-0.133
-358.610	800.000	-0.073	0.302
-357.596	55.949	-0.105	-0.100
-356.581	-200.000	0.035	-0.153
-355.566	222.649	-0.099	-0.156
-354.552	-138.117	-0.349	0.038
-353.537	206.607	0.255	0.390
-352.523	-188.362	0.108	0.001
-351.508	38.795	-0.321	-0.281
-350.493	-125.993	0.332	0.049
-349.479	-200.000	-0.020	-0.115
-348.464	38.258	0.213	-0.186
-347.450	370.140	0.164	0.326
-346.435	-183.568	-0.088	0.001
-345.420	-12.312	-0.282	0.181
-344.406	-20.091	0.109	0.066
-343.391	2.429	-0.195	0.139
-342.377	800.000	0.088	0.247
-341.362	118.514	-0.155	0.188
-340.348	-53.548	0.233	-0.105
-339.333	800.000	-0.081	-0.301
-338.318	154.659	0.216	0.291
-337.304	246.762	0.140	0.233
-336.289	-150.357	0.235	0.018
-335.275	208.717	-0.098	-0.150
-334.260	555.789	0.054	-0.129
-333.245	800.000	-0.085	-0.297
-332.231	34.146	0.110	-0.094
-331.216	800.000	0.112	0.417
-330.202	165.505	0.146	0.202
-329.187	22.410	-0.175	0.140
-328.172	-2.555	-0.209	0.144
-327.158	800.000	-0.113	-0.321
-326.143	-155.419	0.154	0.010
-325.129	2.998	0.171	-0.122
-324.114	10.566	-0.374	-0.279
-323.099	-59.690	-0.152	0.064
-322.085	-60.973	0.229	0.095
-321.070	219.013	0.056	0.088
-320.056	-23.035	-0.593	0.351
-319.041	-200.000	-0.037	0.232
-318.026	800.000	-0.052	0.142
-317.012	800.000	-0.011	-0.030
-315.997	-73.265	0.122	-0.044
-314.983	-200.000	-0.045	0.491
-313.968	283.029	-0.143	-0.253
-312.953	-200.000	-0.037	-0.254
-311.939	653.254	-0.144	0.362
-310.924	800.000	0.047	-0.128
-309.910	47.100	0.190	-0.173
-308.895	-99.922	-0.219	0.054
-307.880	-200.000	0.072	0.383
-306.866	104.373	0.062	-0.072
-305.851	800.000	0.064	0.253
-304.837	-120.264	-0.327	0.055
-303.822	85.776	0.067	-0.072
-302.807	270.280	-0.127	0.219
-301.793	-178.206	0.135	-0.003
-300.778	-74.682	-0.061	-0.021
-299.764	55.934	-0.092	-0.087
-298.749	-72.523	-0.169	0.061
-297.735	-18.087	0.102	-0.062
-296.720	160.657	0.060	0.082
-295.705	80.234	0.280	0.295
-294.691	121.272	0.117	0.143
-293.676	-18.002	0.220	-0.135
-292.662	457.139	0.010	-0.022
-291.647	-113.357	-0.154	-0.030
-290.632	598.521	0.088	-0.214
-289.618	5.074	0.242	-0.175
-288.603	-68.208	0.169	0.065
-287.589	192.087	-0.124	-0.183
-286.574	621.576	0.079	-0.195
-285.559	-183.506	0.351	-0.006
-284.545	-116.659	0.220	-0.040
-283.530	-200.000	-0.037	0.191
-282.516	36.681	-0.192	0.166
-281.501	-142.264	-0.345	-0.033
-280.486	-187.537	0.340	-0.004
-279.472	-46.743	0.177	-0.085
-278.457	557.582	0.130	0.306
-277.443	-107.297	0.320	0.069
-276.428	214.300	0.084	0.130
-275.413	715.995	0.065	0.168
-274.399	-112.895	-0.151	0.029
-273.384	-167.363	0.392	0.015
-272.370	22.930	0.267	0.215
-271.355	-61.495	-0.469	0.193
-270.340	80.741	0.040	0.042
-269.326	11.442	0.151	0.114
-268.311	485.911	0.194	-0.433
-267.297	-200.000	-0.040	-0.222
-266.282	275.819	0.121	0.210
-265.267	364.077	-0.051	-0.101
-264.253	-200.000	0.074	0.436
-263.238	20.525	-0.052	0.041
-262.224	94.704	0.105	-0.116
-261.209	27.314	-0.282	0.232
-260.195	-88.297	-0.164	0.048
-259.180	478.058	-0.088	0.196
-258.165	213.761	0.169	-0.262
-257.151	76.607	0.079	-0.082
-256.136	-72.727	-0.205	0.074
-255.122	-59.944	0.135	0.057
-254.107	-200.000	-0.032	-0.148
-253.092	403.270	0.099	-0.204
-252.078	191.485	-0.113	0.166
-251.063	-30.637	-0.111	-0.061
-250.049	147.742	-0.414	-0.546
-249.034	9.028	0.192	0.142
-248.019	-96.323	0.242	-0.063
-247.005	310.358	-0.142	0.259
-245.990	229.541	-0.164	0.263
-244.976	592.399	-0.070	-0.168
-243.961	65.959	-0.247	0.245
-242.946	-110.389	0.212	0.043
-241.932	49.969	-0.069	0.064
-240.917	-139.879	0.128	0.013
-239.903	385.214	-0.226	0.457
-238.888	-19.059	0.159	-0.097
-237.873	-168.599	-0.031	-0.001
-236.859	-38.536	-0.174	-0.090
-235.844	-151.323	-0.167	0.012
-234.830	32.664	-0.043	0.036
-233.815	-178.756	-0.047	0.001
-232.800	-94.900	-0.135	-0.036
-231.786	-92.756	-0.283	0.077
-230.771	-71.317	0.106	-0.039
-229.757	-176.146	-0.416	0.011
-228.742	-29.932	-0.219	-0.122
-227.727	-63.547	0.162	-0.065
-226.713	-25.202	-0.209	0.121
-225.698	131.000	0.087	-0.110
-224.684	-200.000	0.496	-0.002
-223.669	46.642	-0.250	0.227
-222.655	83.523	0.116	0.124
-221.640	-70.578	-0.045	0.017
-220.625	-69.879	0.123	-0.046
-219.611	-27.406	0.059	0.033
-218.596	18.357	-0.129	-0.100
-217.582	219.557	0.159	0.248
-216.567	56.598	0.072	-0.068
-215.552	751.889	0.074	-0.194
-214.538	49.336	-0.160	-0.147
-213.523	251.905	-0.066	-0.110
-212.509	-55.150	-0.262	-0.115
-211.494	-110.803	0.242	0.049
-210.479	53.560	-0.053	0.050
-209.465	-92.689	0.163	-0.045
-208.450	-70.666	-0.073	-0.027
-207.436	-99.033	0.166	-0.041
-206.421	-83.389	0.294	-0.092
-205.406	82.195	-0.121	0.128
-204.392	800.000	-0.082	0.344
-203.377	-74.847	0.145	0.051
-202.363	15.856	0.214	0.165
-201.348	50.870	-0.179	0.165
-200.333	-117.088	-0.348	0.062
-199.319	-111.372	0.193	0.038
-198.304	222.050	0.232	0.364
-197.290	-118.977	-0.061	-0.010
-196.275	94.683	0.065	-0.072
-195.260	800.000	0.086	-0.346
-194.246	345.581	0.061	-0.117
-193.231	26.806	0.135	-0.110
-192.217	-21.316	0.107	-0.064
-191.202	18.755	0.228	0.178
-190.187	284.517	-0.032	-0.055
-189.173	-107.886	-0.137	-0.029
-188.158	4.946	0.099	0.071
-187.144	-200.000	0.008	0.118
-186.129	-200.000	-0.044	0.309
-185.114	37.882	0.039	0.034
-184.100	53.549	-0.089	-0.084
-183.085	-13.656	0.092	-0.058
-182.071	29.614	0.022	-0.018
-181.056	-160.917	-0.314	-0.016
-180.042	256.660	-0.166	0.278
-179.027	-82.007	0.084	0.027
-178.012	800.000	0.028	0.092
-176.998	-109.428	-0.126	-0.026
-175.983	5.638	-0.105	0.076
-174.969	800.000	0.055	0.235
-173.954	-200.000	-0.021	0.210
-172.939	-0.805	0.096	-0.066
-171.925	-124.107	0.160	0.024
-170.910	-121.431	-0.213	0.035
-169.896	-87.147	0.228	-0.068
-168.881	-200.000	0.009	0.411
-167.866	130.287	-0.185	-0.231
-166.852	-30.576	0.225	-0.124
-165.837	-103.121	-0.268	-0.062
-164.823	800.000	-0.043	0.138
-163.808	164.755	0.225	-0.309
-162.793	-200.000	-0.072	-0.378
-161.779	-26.471	-0.195	0.112
-160.764	697.173	0.104	0.267
-159.750	800.000	-0.015	-0.047
-158.735	-200.000	0.007	-0.278
-157.720	-104.632	0.283	0.064
-156.706	-4.241	-0.081	-0.055
-155.691	399.122	0.076	0.155
-154.677	-154.718	0.509	0.033
-153.662	161.501	0.110	0.150
-152.647	800.000	0.089	-0.372
-151.633	-54.670	0.218	0.096
-150.618	538.454	0.105	0.243
-149.604	-200.000	-0.019	0.125
-148.589	-36.168	0.226	-0.119
-147.574	-156.844	-0.109	-0.007
-146.560	-92.908	0.255	-0.069
-145.545	45.214	0.283	0.255
-144.531	-200.000	0.020	0.321
-143.516	800.000	0.052	0.213
-142.502	62.628	-0.115	-0.112
-141.487	146.077	-0.205	-0.268
-140.472	-200.000	-0.026	-0.133
-139.458	219.584	0.199	-0.311
-138.443	-66.188	-0.343	0.133
-137.429	-111.172	0.039	0.008
-136.414	-147.729	0.236	-0.019
-135.399	187.639	0.078	0.113
-134.385	800.000	-0.147	0.410
-133.370	23.280	-0.181	-0.145
-132.356	105.103	-0.186	-0.213
-131.341	114.893	0.143	0.170
-130.326	-200.000	0.041	0.537
-129.312	-200.000	0.018	0.249
-128.297	-18.184	0.166	0.101
-127.283	800.000	-0.009	-0.029
-126.268	-200.000	-0.025	0.106
-125.253	800.000	-0.068	-0.225
-124.239	800.000	0.081	-0.263
-123.224	-60.527	0.284	0.117
-122.210	-200.000	-0.012	-0.243
-121.195	112.595	0.141	0.166
-120.180	-200.000	0.016	-0.209
-119.166	-7.421	-0.050	-0.033
-118.151	-103.430	-0.153	-0.035
-117.137	237.266	0.012	0.019
-116.122	242.467	0.068	-0.111
-115.107	156.538	0.075	0.100
-114.093	-48.161	0.122	-0.057
-113.078	195.584	-0.185	0.274
-112.064	354.507	-0.127	-0.246
-111.049	-200.000	-0.027	0.123
-110.034	-33.432	0.060	-0.032
-109.020	-200.000	-0.002	-0.313
-108.005	-200.000	0.015	-0.091
-106.991	683.876	-0.087	0.221
-105.976	279.306	0.271	-0.470
-104.962	-116.360	-0.161	-0.029
-103.947	-18.684	0.194	0.118
-102.932	-39.391	0.377	-0.192
-101.918	217.094	-0.139	0.215
-100.903	28.441	0.404	0.332
-99.889	-14.833	-0.108	0.068
-98.874	800.000	0.068	-0.263
-97.859	37.040	-0.157	0.135
-96.845	-79.241	0.305	0.100
-95.830	411.453	-0.023	0.048
-94.816	-48.623	-0.284	-0.133
-93.801	-34.843	0.260	0.138
-92.786	-22.337	-0.075	0.044
-91.772	-65.973	-0.163	0.063
-90.757	15.834	0.272	0.208
-89.743	190.557	0.072	-0.105
-88.728	800.000	-0.059	0.174
-87.713	-200.000	0.022	-0.227
-86.699	-84.116	0.088	0.027
-85.684	495.453	-0.091	0.203
-84.670	-196.692	-0.436	-0.003
-83.655	-76.488	0.092	0.031
-82.640	-5.943	0.202	-0.134
-81.626	-14.532	0.270	0.169
-80.611	-103.404	0.319	-0.073
-79.597	43.895	-0.203	0.181
-78.582	-200.000	-0.023	-0.255
-77.567	403.345	0.053	0.108
-76.553	1.752	0.178	-0.125
-75.538	469.362	0.132	0.289
-74.524	-200.000	0.061	-0.269
-73.509	752.330	0.056	0.147
-72.494	-115.170	0.162	0.030
-71.480	390.982	-0.123	0.248
-70.465	-200.000	0.019	-0.172
-69.451	-68.938	-0.371	0.139
-68.436	-200.000	-0.030	-0.331
-67.422	-200.000	-0.023	0.386
-66.407	563.554	-0.015	-0.036
-65.392	800.000	0.130	-0.434
-64.378	-1.792	0.146	0.100
-63.363	-200.000	0.003	-0.289
-62.349	-139.234	-0.203	0.021
-61.334	123.684	-0.798	-0.973
-60.319	157.962	0.677	0.912
-59.305	800.000	-0.465	-1.582
-58.290	415.887	0.704	1.458
-57.276	800.000	0.390	1.320
-56.261	-200.000	136.793	639.480
-55.246	343.922	1654.286	3149.933
-54.232	135.834	2797.487	3537.945
-53.217	78.938	2304.809	2395.803
-52.203	28.350	1906.987	1564.758
-51.188	22.687	1702.155	1353.319
-50.173	20.975	1665.306	1311.102
-49.159	41.868	1739.994	1532.033
-48.144	38.321	1748.885	1512.430
-47.130	22.184	1700.024	1347.551
-46.115	19.905	1684.547	1317.899
-45.100	19.754	1679.377	1312.651
-44.086	19.858	1675.787	1310.587
-43.071	19.726	1673.944	1308.090
-42.057	19.686	1671.637	1305.932
-41.042	19.791	1669.715	1305.175
-40.027	19.746	1667.762	1303.259
-39.013	19.725	1665.671	1301.413
-37.998	19.765	1664.489	1300.738
-36.984	19.697	1663.892	1299.709
-35.969	19.836	1661.805	1299.074
-34.954	19.810	1660.156	1297.539
-33.940	19.770	1658.287	1295.722
-32.925	19.895	1656.392	1295.127
-31.911	19.838	1655.436	1293.902
-30.896	19.809	1653.364	1292.017
-29.881	19.747	1652.358	1290.715
-28.867	19.830	1650.535	1289.862
-27.852	19.915	1648.434	1288.797
-26.838	19.793	1648.330	1287.759
-25.823	19.875	1646.435	1286.833
-24.809	19.948	1645.135	1286.309
-23.794	19.881	1643.841	1284.749
-22.779	19.926	1642.228	1283.775
-21.765	19.962	1640.328	1282.505
-20.750	19.904	1639.061	1281.034
-19.736	19.941	1637.804	1280.273
-18.721	20.000	1636.507	1279.647
-17.706	19.982	1634.654	1278.015
-16.692	19.915	1633.235	1276.355
-15.677	19.881	1632.117	1275.185
-14.663	19.978	1630.578	1274.641
-13.648	19.969	1629.168	1273.425
-12.633	19.908	1627.457	1271.585
-11.619	19.970	1626.272	1271.064
-10.604	19.867	1625.233	1269.450
-9.590	19.935	1623.927	1268.878
-8.575	19.930	1622.446	1267.631
-7.560	19.942	1621.271	1266.751
-6.546	19.913	1620.181	1265.640
-5.531	19.932	1619.211	1264.967
-4.517	19.939	1617.836	1263.896
-3.502	19.901	1616.556	1262.569
-2.487	19.952	1614.993	1261.667
-1.473	19.407	1602.654	1248.039
-0.458	16.174	1582.476	1209.137
0.556	11.475	1584.214	1176.446
1.571	9.242	1607.705	1177.444
2.586	8.959	1619.821	1184.119
3.600	8.508	1565.488	1141.083
4.615	4.966	1461.413	1041.494
5.629	1.225	1407.295	978.736
6.644	0.666	1400.552	970.375
7.659	0.613	1400.021	969.582
8.673	0.573	1399.299	968.733
9.688	0.578	1396.863	966.993
10.702	0.426	1392.911	963.203
11.717	2.294	1394.575	976.203
12.731	7.974	1402.820	1018.285
13.746	14.242	1413.090	1065.907
14.761	16.879	1417.180	1085.808
15.775	16.679	1414.946	1082.724
16.790	15.655	1412.203	1073.985
17.804	14.856	1410.132	1067.221
18.819	14.424	1409.146	1063.621
19.834	14.312	1407.959	1061.919
20.848	14.023	1406.872	1059.160
21.863	13.811	1405.139	1056.415
22.877	13.616	1403.889	1054.143
23.892	13.683	1402.344	1053.314
24.907	13.596	1402.552	1052.823
25.921	13.640	1401.204	1051.995
26.936	13.698	1400.265	1051.570
27.950	13.692	1399.383	1050.776
28.965	13.692	1398.610	1050.102
29.980	13.826	1396.823	1049.514
30.994	13.830	1396.824	1049.444
32.009	13.806	1395.640	1048.315
33.023	13.941	1393.843	1047.722
34.038	13.802	1393.065	1046.171
35.053	13.865	1391.600	1045.369
36.067	13.737	1390.879	1043.935
37.082	13.743	1390.035	1043.243
38.096	13.844	1388.743	1042.817
39.111	13.803	1388.383	1042.196
40.126	13.735	1387.730	1041.186
41.140	13.715	1386.325	1039.915
42.155	13.627	1386.101	1039.107
43.169	13.616	1386.361	1039.136
44.184	13.644	1385.793	1038.797
45.199	13.608	1385.124	1037.979
46.213	13.698	1384.238	1037.787
47.228	13.703	1383.371	1037.076
48.242	13.594	1382.781	1035.861
49.257	13.666	1380.906	1034.810
50.271	13.685	1379.361	1033.683
51.286	13.664	1377.967	1032.413
52.301	13.582	1377.073	1031.141
53.315	13.715	1375.519	1030.716
54.330	13.623	1374.691	1029.430
55.344	13.614	1373.446	1028.350
56.359	13.635	1372.239	1027.489
57.374	13.599	1371.420	1026.559
58.388	13.475	1371.021	1025.404
59.403	13.556	1370.569	1025.475
60.417	13.561	1369.376	1024.524
61.432	13.574	1368.664	1023.981
62.447	13.578	1367.624	1023.135
63.461	13.557	1366.185	1021.838
64.476	13.655	1365.027	1021.484
65.490	13.522	1364.067	1019.860
66.505	13.549	1362.528	1018.783
67.520	13.746	1360.902	1018.687
68.534	13.643	1360.134	1017.390
69.549	13.544	1359.419	1016.158
70.563	13.599	1357.894	1015.268
71.578	13.565	1356.813	1014.163
72.593	13.524	1356.099	1013.283
73.607	13.457	1355.690	1012.481
74.622	13.475	1354.636	1011.712
75.636	13.462	1354.088	1011.136
76.651	13.483	1353.383	1010.646
77.666	13.458	1352.895	1010.039
78.680	13.501	1351.557	1009.215
79.695	13.534	1350.619	1008.626
80.709	13.503	1350.143	1007.996
81.724	13.673	1348.892	1008.001
82.739	13.647	1348.141	1007.196
83.753	13.713	1347.023	1006.671
84.768	13.770	1345.606	1005.872
85.782	13.762	1344.763	1005.100
86.797	13.663	1343.434	1003.417
87.812	13.727	1342.059	1002.692
88.826	13.688	1340.690	1001.344
89.841	13.715	1339.874	1000.811
90.855	13.731	1338.291	999.637
91.870	13.749	1337.810	999.297
92.884	13.673	1337.467	998.493
93.899	13.746	1336.395	998.044
94.914	13.850	1335.211	997.698
95.928	13.849	1334.371	996.974
96.943	13.775	1333.577	995.851
97.957	13.796	1332.535	995.107
98.972	13.764	1331.644	994.162
99.987	13.726	1330.433	992.944
101.001	13.726	1329.567	992.209
102.016	13.746	1328.091	991.142
103.030	13.754	1327.312	990.520
104.045	13.733	1326.503	989.703
105.060	13.724	1325.642	988.920
106.074	13.591	1323.934	986.764
107.089	13.775	1322.220	986.491
108.103	13.668	1321.239	985.036
109.118	13.679	1319.902	984.019
110.133	13.613	1318.836	982.748
111.147	13.714	1317.250	982.079
112.162	13.647	1315.838	980.542
113.176	13.798	1314.663	980.472
114.191	13.713	1313.882	979.302
115.206	13.695	1312.808	978.309
116.220	13.762	1311.447	977.599
117.235	13.655	1310.651	976.293
118.249	13.687	1309.584	975.595
119.264	13.741	1308.020	974.661
120.279	13.693	1307.276	973.739
121.293	13.559	1306.108	972.001
122.308	13.566	1305.283	971.342
123.322	13.641	1304.010	970.745
124.337	13.592	1303.575	970.048
125.352	13.651	1302.119	969.224
126.366	13.678	1300.491	968.085
127.381	13.523	1299.829	966.604
128.395	13.594	1298.584	966.005
129.410	13.607	1297.775	965.392
130.424	13.679	1297.013	965.161
131.439	13.676	1295.780	964.138
132.454	13.594	1294.572	962.679
133.468	13.676	1293.838	962.522
134.483	13.716	1293.223	962.213
135.497	13.734	1291.812	961.185
136.512	13.854	1290.083	960.508
137.527	13.697	1289.375	958.985
138.541	13.699	1287.488	957.512
139.556	13.647	1286.825	956.629
140.570	13.750	1285.688	956.297
141.585	13.822	1284.152	955.481
142.600	13.827	1283.525	954.963
143.614	13.836	1282.582	954.224
144.629	13.916	1280.978	953.407
145.643	13.836	1280.049	952.172
146.658	13.800	1279.198	951.249
147.673	13.842	1277.456	950.108
148.687	13.922	1276.254	949.587
149.702	13.887	1275.005	948.379
150.716	13.913	1273.401	947.250
151.731	13.806	1273.005	946.261
152.746	13.990	1271.151	945.842
153.760	14.044	1269.628	944.933
154.775	13.947	1268.708	943.615
155.789	13.958	1267.563	942.745
156.804	14.038	1266.199	942.098
157.819	13.942	1266.053	941.362
158.833	13.997	1264.353	940.326
159.848	14.056	1263.917	940.254
160.862	14.087	1262.256	939.111
161.877	13.974	1261.425	937.768
162.892	13.955	1260.242	936.701
163.906	13.954	1259.763	936.256
164.921	14.018	1258.571	935.648
165.935	14.081	1257.570	935.172
166.950	14.048	1257.019	934.494
167.964	14.054	1256.504	934.063
168.979	14.096	1255.748	933.656
169.994	14.091	1255.013	932.999
171.008	14.048	1253.739	931.726
172.023	14.052	1253.075	931.175
173.037	14.197	1251.814	930.967
174.052	14.223	1250.774	930.253
175.067	14.146	1250.142	929.274
176.081	14.033	1249.193	927.855
177.096	14.067	1248.422	927.387
178.110	14.105	1247.426	926.778
179.125	14.080	1246.000	925.497
180.140	14.063	1244.541	924.238
181.154	14.272	1243.420	924.485
182.169	14.261	1242.029	923.310
183.183	14.279	1241.143	922.669
184.198	14.227	1239.869	921.354
185.213	14.261	1238.580	920.500
186.227	14.276	1237.591	919.768
187.242	14.324	1236.600	919.213
188.256	14.437	1235.116	918.651
189.271	14.277	1234.605	917.308
190.286	14.309	1233.720	916.747
191.300	14.200	1232.795	915.381
192.315	14.165	1232.599	914.959
193.329	14.288	1231.345	914.622
194.344	14.237	1230.860	913.904
195.359	14.339	1230.242	913.924
196.373	14.363	1229.450	913.386
197.388	14.449	1228.931	913.390
198.402	14.424	1228.425	912.795
199.417	14.499	1227.679	912.569
200.432	14.561	1226.807	912.180
201.446	14.568	1225.854	911.429
202.461	14.559	1225.350	910.926
203.475	14.590	1224.281	910.220
204.490	14.641	1222.647	909.204
205.504	14.593	1221.378	907.915
206.519	14.629	1220.084	907.070
207.534	14.541	1219.495	906.072
208.548	14.555	1218.688	905.470
209.563	14.459	1217.500	903.985
210.577	14.534	1216.857	903.838
211.592	14.581	1215.895	903.296
212.607	14.758	1214.246	902.950
213.621	14.734	1214.006	902.559
214.636	14.570	1213.048	900.880
215.650	14.689	1211.984	900.656
216.665	14.795	1211.146	900.524
217.680	14.772	1210.456	899.804
218.694	14.807	1209.124	898.924
219.709	14.741	1208.446	897.988
220.723	14.826	1207.587	897.728
221.738	14.707	1207.006	896.577
222.753	14.853	1206.210	896.688
223.767	14.796	1205.777	895.983
224.782	14.862	1205.043	895.712
225.796	14.908	1204.247	895.284
226.811	14.846	1204.122	894.782
227.826	14.896	1202.975	894.118
228.840	14.895	1202.176	893.437
229.855	14.934	1201.497	893.061
230.869	14.951	1200.623	892.425
231.884	14.909	1200.045	891.693
232.899	14.913	1199.127	890.951
233.913	14.874	1198.554	890.242
234.928	14.858	1197.714	889.454
235.942	14.841	1196.933	888.704
236.957	14.956	1195.952	888.509
237.972	14.962	1195.004	887.755
238.986	14.942	1194.435	887.150
240.001	14.960	1193.972	886.821
241.015	14.981	1193.167	886.256
242.030	14.967	1191.700	885.013
243.045	15.006	1191.080	884.684
244.059	14.931	1190.473	883.756
245.074	15.069	1189.644	883.789
246.088	15.168	1188.884	883.669
247.103	15.129	1188.102	882.805
248.117	15.254	1187.106	882.646
249.132	15.276	1186.699	882.380
250.147	15.354	1185.469	881.799
251.161	15.129	1185.501	880.565
252.176	15.262	1184.442	880.394
253.190	15.367	1183.768	880.369
254.205	15.365	1183.320	879.946
255.220	15.329	1182.818	879.305
256.234	15.436	1181.819	879.045
257.249	15.444	1180.996	878.400
258.263	15.454	1180.478	877.991
259.278	15.403	1180.054	877.330
260.293	15.405	1179.432	876.801
261.307	15.508	1178.770	876.765
262.322	15.528	1178.004	876.224
263.336	15.546	1177.233	875.666
264.351	15.595	1176.608	875.380
265.366	15.515	1176.410	874.737
266.380	15.599	1175.371	874.327
267.395	15.635	1174.150	873.527
268.409	15.604	1173.575	872.859
269.424	15.583	1172.886	872.162
270.439	15.627	1172.479	872.009
271.453	15.568	1171.840	871.153
272.468	15.502	1170.960	870.079
273.482	15.467	1170.400	869.404
274.497	15.631	1169.687	869.648
275.512	15.674	1169.194	869.428
276.526	15.618	1167.893	868.090
277.541	15.686	1167.320	867.940
278.555	15.735	1166.880	867.791
279.570	15.723	1165.851	866.884
280.585	15.764	1165.081	866.446
281.599	15.717	1163.781	865.162
282.614	15.761	1163.064	864.779
283.628	15.739	1161.742	863.604
284.643	15.778	1160.998	863.177
285.657	15.740	1160.619	862.624
286.672	15.774	1159.571	861.941
287.687	15.757	1158.579	861.042
288.701	15.832	1157.727	860.716
289.716	15.901	1156.777	860.286
290.730	15.921	1155.608	859.445
291.745	16.006	1155.364	859.619
292.760	15.986	1154.275	858.631
293.774	15.961	1153.782	858.059
294.789	15.983	1153.725	858.056
295.803	16.057	1152.710	857.601
296.818	15.852	1152.355	856.220
297.833	15.990	1151.416	856.144
298.847	16.054	1150.031	855.363
299.862	15.886	1149.988	854.406
300.876	16.011	1149.274	854.431
301.891	15.945	1148.586	853.512
302.906	16.009	1147.794	853.169
303.920	16.059	1146.911	852.689
304.935	16.127	1146.251	852.468
305.949	16.174	1145.363	851.973
306.964	16.288	1144.890	852.122
307.979	16.194	1144.309	851.138
308.993	16.247	1143.445	850.687
310.008	16.268	1142.708	850.168
311.022	16.354	1141.531	849.651
312.037	16.354	1140.672	848.935
313.052	16.229	1139.595	847.429
314.066	16.200	1138.944	846.726
315.081	16.229	1138.436	846.418
316.095	16.311	1137.367	845.961
317.110	16.282	1136.167	844.851
318.125	16.365	1135.509	844.698
319.139	16.263	1135.143	843.843
320.154	16.239	1134.325	843.039
321.168	16.153	1133.977	842.277
322.183	16.337	1133.154	842.508
323.197	16.191	1132.732	841.392
324.212	16.244	1132.188	841.181
325.227	16.359	1131.693	841.309
326.241	16.252	1130.831	840.062
327.256	16.385	1130.162	840.153
328.270	16.305	1129.271	839.019
329.285	16.253	1128.380	838.023
330.300	16.338	1127.516	837.731
331.314	16.368	1126.038	836.705
332.329	16.409	1125.207	836.218
333.343	16.450	1124.553	835.858
334.358	16.424	1123.685	835.010
335.373	16.362	1123.007	834.129
336.387	16.612	1121.763	834.362
337.402	16.575	1121.618	833.998
338.416	16.445	1120.855	832.717
339.431	16.555	1119.925	832.495
340.446	16.611	1119.303	832.235
341.460	16.571	1118.957	831.705
342.475	16.587	1117.927	830.947
343.489	16.666	1116.937	830.522
344.504	16.600	1116.118	829.520
345.519	16.740	1115.017	829.311
346.533	16.836	1113.815	828.812
347.548	16.864	1113.452	828.606
348.562	16.918	1112.844	828.346
349.577	16.756	1112.399	827.147
350.592	16.816	1111.396	826.624
351.606	16.725	1110.477	825.424
352.621	16.802	1109.868	825.271
353.635	16.681	1109.230	824.135
354.650	16.848	1108.307	824.188
355.665	16.811	1108.081	823.767
356.679	16.820	1107.102	823.012
357.694	16.730	1106.410	821.990
358.708	16.918	1105.852	822.411
359.723	16.914	1105.269	821.887
360.738	16.896	1104.655	821.270
361.752	17.021	1103.741	821.125
362.767	16.963	1103.357	820.486
363.781	16.900	1102.586	819.533
364.796	17.046	1101.984	819.720
365.810	17.029	1101.364	819.104
366.825	17.056	1100.748	818.700
367.840	17.033	1100.209	818.117
368.854	17.144	1099.785	818.267
369.869	17.128	1099.122	817.621
370.883	17.097	1098.038	816.594
371.898	17.157	1097.039	816.068
372.913	17.132	1097.068	815.898
373.927	17.161	1096.032	815.193
374.942	17.172	1095.743	814.961
375.956	17.160	1095.443	814.609
376.971	17.163	1094.798	814.070
377.986	17.263	1093.821	813.751
379.000	17.282	1093.342	813.412
380.015	17.292	1092.673	812.888
381.029	17.378	1092.013	812.737
382.044	17.397	1091.080	812.064
383.059	17.380	1090.460	811.448
384.073	17.498	1089.552	811.265
385.088	17.470	1088.806	810.505
386.102	17.477	1088.177	809.994
387.117	17.384	1086.892	808.524
388.132	17.309	1085.996	807.431
389.146	17.378	1085.445	807.276
390.161	17.412	1084.486	806.653
391.175	17.313	1084.160	805.872
392.190	17.458	1083.309	805.854
393.205	17.553	1082.374	805.535
394.219	17.548	1081.335	804.667
395.234	17.548	1080.413	803.911
396.248	17.480	1079.672	802.967
397.263	17.519	1078.833	802.455
398.278	17.454	1078.264	801.658
399.292	17.567	1077.068	801.227
400.307	17.412	1076.540	800.036
401.321	17.440	1076.345	799.949
402.336	17.503	1075.573	799.602
403.350	17.630	1074.679	799.462
404.365	17.646	1074.198	799.111
405.380	17.621	1073.504	798.407
406.394	17.682	1072.341	797.756
407.409	17.683	1071.386	796.979
408.423	17.714	1071.194	796.912
409.438	17.750	1070.202	796.271
410.453	17.748	1069.650	795.781
411.467	17.777	1068.898	795.285
412.482	17.857	1068.077	794.974
413.496	17.791	1067.449	794.130
414.511	17.870	1067.156	794.209
415.526	17.954	1066.604	794.120
416.540	18.057	1065.838	793.960
417.555	18.065	1065.074	793.356
418.569	17.866	1065.101	792.383
419.584	17.938	1064.748	792.383
420.599	17.922	1064.147	791.794
421.613	109.883	1332.871	1493.189
422.628	101.566	1371.930	1493.250
