DTS Sentinel unit serial number:	SN413079Multiplexer serial number:	ORYXHardware model number:	OX4-SRSoftware version number:	ORYX F/W v4.00 Oryx Data Collector v3.7.2.0data status	okinstallation	princeton_trtdifferential loss correction	single-endedforward channel	channel 2reverse channel	N/Adate	2019/09/11time	00:21:11forward acquisition time	60.00reverse acquisition time	0.00gamma	496.2192k internal	0.2332k external	0.2332temperature offset calibration	0.9941default loss term (dB/km)	0.3790temperature slope calibration	1.0000multiplexer offset coefficient	1.0000multiplexer slope coefficient	1.0000fibre end	0.00T internal ref (°C)	29.30T ext. ref 1 (°C)	-0.31T ext. ref 2 (°C)	22.82length (m)	temperature (°C)	Stokes	anti-Stokes-747.200	-92.077	0.336	0.096
-746.185	492.589	-0.046	-0.107
-745.171	71.775	0.360	-0.376
-744.156	166.029	-0.134	0.190
-743.142	462.898	0.140	-0.314
-742.127	47.873	0.141	-0.133
-741.112	13.213	-0.113	-0.088
-740.098	-45.459	-0.169	-0.084
-739.083	-200.000	0.005	0.060
-738.069	-77.337	-0.094	-0.033
-737.054	-86.133	0.108	0.034
-736.039	-54.355	-0.105	-0.048
-735.025	800.000	-0.056	0.157
-734.010	73.055	-0.257	-0.270
-732.996	800.000	-0.079	-0.295
-731.981	20.753	0.123	0.100
-730.966	-27.056	-0.047	-0.027
-729.952	288.902	-0.117	-0.213
-728.937	-60.580	-0.181	-0.077
-727.923	296.144	-0.089	0.163
-726.908	342.717	-0.119	-0.234
-725.894	156.200	0.053	0.073
-724.879	-200.000	-0.014	-0.271
-723.864	-167.464	0.144	-0.006
-722.850	-138.449	-0.173	-0.019
-721.835	-200.000	0.001	-0.011
-720.821	-200.000	0.003	0.190
-719.806	-46.682	-0.099	-0.049
-718.791	-38.252	0.138	-0.073
-717.777	-37.137	-0.359	-0.193
-716.762	-200.000	-0.043	-0.216
-715.748	-46.873	-0.105	-0.051
-714.733	247.289	-0.121	0.205
-713.718	238.287	0.224	-0.373
-712.704	800.000	-0.128	-0.406
-711.689	-67.655	-0.158	-0.062
-710.675	-200.000	0.068	0.371
-709.660	-73.121	0.347	-0.128
-708.645	2.807	0.112	0.082
-707.631	232.399	-0.080	0.131
-706.616	-200.000	0.026	0.254
-705.602	-200.000	-0.032	0.312
-704.587	210.495	0.152	0.240
-703.572	18.145	-0.065	0.052
-702.558	101.360	0.078	0.092
-701.543	-137.101	-0.035	0.004
-700.529	301.473	-0.191	-0.354
-699.514	3.707	0.075	0.055
-698.499	1.302	-0.264	-0.191
-697.485	431.940	-0.070	0.152
-696.470	-14.590	-0.154	-0.099
-695.456	-6.210	0.273	0.187
-694.441	-166.505	-0.194	0.008
-693.426	800.000	0.053	0.151
-692.412	42.931	0.087	-0.079
-691.397	-200.000	-0.004	-0.145
-690.383	147.724	-0.187	-0.254
-689.368	3.107	0.071	-0.052
-688.354	-200.000	0.039	0.224
-687.339	195.293	-0.157	-0.239
-686.324	-156.377	0.208	0.013
-685.310	257.898	-0.119	-0.206
-684.295	-60.959	0.184	-0.078
-683.281	-18.346	-0.127	0.080
-682.266	-200.000	0.063	0.445
-681.251	-95.468	0.374	-0.101
-680.237	-42.817	0.300	0.153
-679.222	-142.035	0.126	0.013
-678.208	705.431	-0.055	-0.145
-677.193	513.611	-0.121	0.284
-676.178	0.656	-0.109	-0.078
-675.164	372.208	-0.051	0.104
-674.149	-145.241	0.119	0.011
-673.135	-200.000	0.017	0.130
-672.120	350.770	0.045	0.090
-671.105	78.410	0.170	0.182
-670.091	-36.854	0.369	-0.199
-669.076	-200.000	0.015	-0.177
-668.062	-200.000	0.055	-0.421
-667.047	89.976	-0.126	-0.141
-666.032	466.938	0.056	-0.125
-665.018	-200.000	-0.053	0.355
-664.003	71.413	0.204	-0.213
-662.989	218.850	-0.075	0.120
-661.974	-200.000	-0.034	0.178
-660.959	610.476	0.048	-0.121
-659.945	-114.150	0.317	0.061
-658.930	-200.000	0.013	0.400
-657.916	-125.683	0.271	0.041
-656.901	24.121	-0.219	0.181
-655.886	430.874	0.116	-0.253
-654.872	-78.590	-0.198	0.068
-653.857	41.197	0.099	-0.089
-652.843	-54.966	-0.253	-0.114
-651.828	-40.741	0.297	-0.154
-650.814	94.078	-0.201	-0.228
-649.799	-4.511	-0.314	-0.217
-648.784	147.576	0.202	0.273
-647.770	-175.481	-0.234	-0.006
-646.755	-200.000	0.013	0.143
-645.741	160.139	0.242	-0.338
-644.726	-80.283	-0.197	0.066
-643.711	-200.000	-0.001	-0.314
-642.697	800.000	0.078	0.327
-641.682	-200.000	-0.068	-0.409
-640.668	800.000	0.044	-0.150
-639.653	-119.327	0.226	-0.039
-638.638	-155.573	-0.136	-0.009
-637.624	-21.539	-0.268	-0.164
-636.609	346.306	-0.079	-0.155
-635.595	694.130	0.117	-0.307
-634.580	-197.942	-0.468	0.003
-633.565	-200.000	0.062	0.296
-632.551	-16.445	-0.245	0.156
-631.536	130.793	-0.056	-0.072
-630.522	-70.585	-0.128	-0.049
-629.507	177.262	0.189	-0.276
-628.492	131.286	0.201	-0.259
-627.478	800.000	-0.058	0.208
-626.463	-75.093	-0.091	-0.033
-625.449	-118.617	0.291	0.051
-624.434	8.784	-0.146	0.110
-623.419	74.767	0.071	-0.074
-622.405	-51.533	0.204	-0.096
-621.390	-1.030	-0.311	-0.220
-620.376	143.393	0.035	-0.047
-619.361	83.284	0.101	-0.110
-618.346	-68.066	0.307	-0.120
-617.332	5.022	-0.140	0.103
-616.317	-71.640	0.127	0.047
-615.303	328.858	-0.049	0.095
-614.288	201.006	-0.062	0.095
-613.273	20.720	-0.156	-0.127
-612.259	800.000	0.098	-0.313
-611.244	94.262	-0.340	-0.386
-610.230	90.027	-0.096	-0.107
-609.215	20.218	0.039	0.031
-608.201	192.843	-0.097	0.147
-607.186	-143.935	-0.343	-0.032
-606.171	604.062	0.098	0.244
-605.157	-82.432	0.421	-0.137
-604.142	317.100	0.062	-0.117
-603.128	-64.032	0.336	-0.138
-602.113	237.905	-0.160	0.266
-601.098	125.768	0.084	0.106
-600.084	24.101	-0.248	0.205
-599.069	84.207	0.260	-0.284
-598.055	103.588	-0.161	-0.189
-597.040	-116.574	-0.192	-0.035
-596.025	5.931	-0.181	-0.134
-595.011	800.000	-0.048	0.136
-593.996	800.000	-0.044	-0.180
-592.982	-200.000	0.045	0.279
-591.967	-200.000	0.040	0.276
-590.952	-36.638	0.113	0.061
-589.938	-147.596	-0.145	-0.012
-588.923	-200.000	0.010	0.056
-587.909	800.000	0.034	0.125
-586.894	106.943	-0.153	-0.182
-585.879	288.430	0.308	0.557
-584.865	-170.245	-0.336	0.012
-583.850	266.517	0.048	-0.083
-582.836	-5.377	-0.209	0.143
-581.821	176.174	-0.126	-0.183
-580.806	800.000	-0.068	-0.242
-579.792	-188.947	-0.146	0.002
-578.777	-131.785	-0.276	-0.036
-577.763	800.000	0.095	-0.320
-576.748	-130.451	-0.192	-0.026
-575.733	-200.000	0.021	-0.128
-574.719	-44.977	0.237	0.118
-573.704	-200.000	-0.040	-0.195
-572.690	-200.000	-0.095	-0.419
-571.675	78.546	-0.346	-0.369
-570.661	800.000	0.084	0.239
-569.646	-188.080	0.056	0.001
-568.631	-112.322	0.146	-0.029
-567.617	42.004	-0.185	-0.168
-566.602	-125.017	0.296	-0.046
-565.588	0.966	0.236	-0.169
-564.573	305.413	0.128	0.238
-563.558	-45.439	0.132	-0.065
-562.544	66.957	0.140	0.142
-561.529	-82.715	-0.156	0.050
-560.515	5.627	-0.210	-0.155
-559.500	800.000	0.040	0.168
-558.485	-200.000	-0.029	0.160
-557.471	-150.561	-0.246	0.019
-556.456	-40.985	0.276	-0.143
-555.442	-174.516	0.274	0.008
-554.427	-47.569	-0.305	-0.148
-553.412	-101.722	0.539	0.131
-552.398	-147.361	-0.333	-0.028
-551.383	-200.000	0.037	-0.364
-550.369	13.231	-0.232	0.180
-549.354	-200.000	-0.022	-0.270
-548.339	800.000	0.090	-0.260
-547.325	151.936	-0.026	-0.036
-546.310	-143.203	-0.165	0.016
-545.296	66.653	0.050	0.051
-544.281	-119.109	-0.242	0.042
-543.266	137.167	-0.120	-0.157
-542.252	35.137	-0.167	0.146
-541.237	-170.684	-0.044	-0.002
-540.223	172.493	0.129	-0.186
-539.208	-81.254	0.208	-0.069
-538.193	-200.000	0.018	-0.189
-537.179	800.000	-0.027	-0.095
-536.164	-22.903	-0.045	-0.027
-535.150	350.108	0.099	0.195
-534.135	19.808	0.114	0.092
-533.121	-142.668	0.257	0.025
-532.106	-125.468	0.340	0.052
-531.091	181.462	-0.215	0.315
-530.077	103.228	-0.035	-0.041
-529.062	96.226	-0.204	-0.233
-528.048	800.000	-0.083	0.252
-527.033	83.654	-0.102	0.111
-526.018	117.780	-0.044	0.054
-525.004	635.272	-0.108	0.274
-523.989	-70.412	0.035	0.013
-522.975	800.000	0.046	-0.144
-521.960	-133.564	0.306	-0.038
-520.945	682.395	0.067	-0.173
-519.931	-200.000	-0.014	-0.280
-518.916	0.600	-0.402	-0.286
-517.902	82.217	0.139	-0.151
-516.887	-0.730	-0.400	0.283
-515.872	-61.273	0.451	0.190
-514.858	-200.000	-0.015	-0.133
-513.843	-200.000	0.063	0.444
-512.829	-110.215	0.165	0.034
-511.814	-200.000	0.006	-0.176
-510.799	-109.681	0.314	0.066
-509.785	183.613	-0.031	-0.046
-508.770	-133.589	0.488	-0.061
-507.756	-76.114	0.279	0.098
-506.741	-139.775	-0.166	-0.018
-505.726	800.000	0.086	0.249
-504.712	-129.597	-0.150	0.021
-503.697	-123.154	-0.339	-0.054
-502.683	800.000	0.054	-0.222
-501.668	800.000	-0.057	-0.163
-500.653	40.320	0.077	-0.069
-499.639	-104.103	-0.274	0.064
-498.624	494.742	-0.094	0.216
-497.610	-127.205	-0.100	-0.015
-496.595	12.232	-0.108	0.083
-495.581	-105.141	-0.167	-0.038
-494.566	-7.961	-0.236	0.159
-493.551	800.000	-0.009	0.033
-492.537	-200.000	-0.061	-0.534
-491.522	285.895	-0.119	0.213
-490.508	240.006	0.119	0.197
-489.493	-183.980	-0.053	0.001
-488.478	-96.704	0.088	-0.023
-487.464	402.989	0.094	0.197
-486.449	45.764	0.223	0.205
-485.435	-200.000	-0.031	-0.185
-484.420	219.815	0.192	0.306
-483.405	11.407	-0.079	0.061
-482.391	800.000	-0.069	-0.216
-481.376	-129.413	0.509	0.070
-480.362	800.000	0.050	0.176
-479.347	-200.000	-0.095	0.000
-478.332	-45.149	0.057	0.028
-477.318	-45.384	0.161	-0.080
-476.303	-22.911	0.137	-0.082
-475.289	454.914	0.147	-0.324
-474.274	-200.000	0.009	0.221
-473.259	564.766	-0.016	-0.040
-472.245	262.640	-0.077	0.133
-471.230	800.000	0.087	-0.265
-470.216	-69.204	-0.313	0.120
-469.201	-200.000	0.013	-0.203
-468.186	18.583	-0.232	0.184
-467.172	277.999	-0.116	-0.205
-466.157	-200.000	0.024	-0.376
-465.143	-200.000	0.022	-0.403
-464.128	11.700	0.358	0.273
-463.113	-62.675	0.258	-0.106
-462.099	65.800	-0.181	0.183
-461.084	525.458	0.080	-0.188
-460.070	-200.000	-0.057	-0.270
-459.055	19.808	0.079	-0.063
-458.040	175.281	-0.102	0.147
-457.026	91.592	0.164	0.183
-456.011	800.000	-0.030	-0.116
-454.997	-28.425	0.057	0.033
-453.982	-200.000	0.038	-0.182
-452.968	96.975	0.098	-0.112
-451.953	800.000	0.040	-0.111
-450.938	-200.000	-0.018	0.100
-449.924	-48.039	-0.339	0.163
-448.909	-165.203	-0.469	0.021
-447.895	-36.869	-0.216	-0.115
-446.880	-89.848	0.034	0.010
-445.865	-119.726	0.142	0.024
-444.851	208.102	0.087	-0.135
-443.836	702.444	-0.068	-0.177
-442.822	-83.653	0.177	-0.056
-441.807	-116.346	0.130	-0.024
-440.792	800.000	-0.041	-0.154
-439.778	90.811	0.285	-0.317
-438.763	-85.057	0.062	0.019
-437.749	-200.000	-0.035	0.266
-436.734	-85.311	-0.085	-0.026
-435.719	-38.630	-0.198	-0.104
-434.705	520.140	0.071	0.165
-433.690	-25.948	-0.197	0.115
-432.676	662.362	-0.107	0.275
-431.661	105.239	-0.200	-0.235
-430.646	93.053	-0.076	-0.086
-429.632	-200.000	0.084	0.434
-428.617	334.279	-0.044	0.084
-427.603	-115.179	-0.355	-0.067
-426.588	-57.533	0.253	-0.110
-425.573	-37.148	0.012	0.006
-424.559	118.208	-0.167	-0.204
-423.544	-17.000	-0.047	-0.030
-422.530	-154.073	-0.299	0.020
-421.515	-200.000	0.013	0.173
-420.500	461.822	0.013	0.029
-419.486	-200.000	-0.019	0.134
-418.471	278.549	0.235	0.416
-417.457	-123.152	0.121	0.019
-416.442	-108.820	-0.191	0.040
-415.428	241.036	-0.059	0.098
-414.413	105.016	-0.075	-0.087
-413.398	121.646	-0.147	-0.182
-412.384	-136.571	-0.232	0.027
-411.369	800.000	-0.035	-0.117
-410.355	155.213	0.215	-0.294
-409.340	250.322	-0.168	0.283
-408.325	291.218	0.134	0.241
-407.311	-200.000	-0.015	-0.072
-406.296	177.918	0.017	-0.025
-405.282	20.587	0.214	-0.172
-404.267	18.411	-0.350	0.278
-403.252	129.646	-0.294	0.373
-402.238	-143.694	-0.225	0.021
-401.223	-78.643	0.056	-0.019
-400.209	-200.000	0.042	-0.195
-399.194	-200.000	-0.007	-0.082
-398.179	114.533	0.034	0.042
-397.165	4.778	0.189	-0.138
-396.150	-120.716	0.478	-0.080
-395.136	186.920	-0.075	0.112
-394.121	-103.885	0.205	-0.047
-393.106	440.595	0.103	0.223
-392.092	-155.611	-0.140	-0.009
-391.077	-134.044	-0.103	0.013
-390.063	29.679	-0.393	0.332
-389.048	-103.529	0.272	0.063
-388.033	148.765	-0.241	-0.324
-387.019	-200.000	0.018	-0.140
-386.004	-200.000	0.026	-0.148
-384.990	105.557	0.070	0.082
-383.975	-130.995	0.083	0.011
-382.960	8.296	-0.155	-0.116
-381.946	191.470	0.270	0.404
-380.931	-88.163	0.137	0.041
-379.917	168.136	0.072	-0.102
-378.902	-187.622	-0.360	0.005
-377.888	800.000	-0.107	0.363
-376.873	1.924	0.084	0.060
-375.858	261.855	-0.028	-0.048
-374.844	800.000	0.100	0.348
-373.829	-88.222	-0.093	0.028
-372.815	-200.000	0.058	-0.401
-371.800	169.059	-0.128	0.181
-370.785	-100.242	0.247	0.061
-369.771	143.447	-0.101	0.133
-368.756	-200.000	-0.026	-0.131
-367.742	-140.527	-0.069	0.007
-366.727	134.239	-0.162	0.208
-365.712	-115.422	0.096	0.018
-364.698	-200.000	-0.034	0.228
-363.683	499.847	-0.138	-0.316
-362.669	-189.254	0.252	0.003
-361.654	-62.725	-0.174	-0.072
-360.639	-200.000	-0.002	0.111
-359.625	104.202	0.230	0.268
-358.610	-200.000	0.004	-0.224
-357.596	-200.000	0.017	0.119
-356.581	-200.000	0.082	0.365
-355.566	239.573	0.034	0.056
-354.552	-103.339	-0.304	-0.071
-353.537	133.461	0.123	0.158
-352.523	31.669	-0.195	0.166
-351.508	-72.339	0.113	-0.042
-350.493	-81.947	0.277	-0.090
-349.479	-36.951	-0.087	-0.046
-348.464	28.659	-0.079	-0.066
-347.450	277.493	-0.137	0.241
-346.435	207.279	-0.032	0.050
-345.420	97.637	-0.191	-0.217
-344.406	-67.631	-0.140	-0.054
-343.391	717.090	0.009	-0.023
-342.377	-54.210	-0.389	0.175
-341.362	40.188	0.180	0.160
-340.348	136.885	-0.098	-0.127
-339.333	660.027	-0.125	0.318
-338.318	145.966	0.068	-0.090
-337.304	-71.310	0.249	-0.092
-336.289	-60.532	0.364	-0.153
-335.275	-138.013	0.136	0.015
-334.260	800.000	-0.010	0.029
-333.245	-36.597	-0.138	0.073
-332.231	222.696	-0.212	-0.338
-331.216	94.209	-0.087	-0.097
-330.202	0.677	0.314	-0.223
-329.187	118.921	-0.150	-0.184
-328.172	800.000	-0.050	-0.213
-327.158	-52.294	0.162	0.074
-326.143	192.000	0.175	-0.261
-325.129	106.167	0.073	-0.085
-324.114	645.171	0.104	-0.263
-323.099	17.746	0.020	-0.016
-322.085	703.011	-0.108	-0.283
-321.070	800.000	-0.083	-0.242
-320.056	-200.000	0.004	-0.030
-319.041	-200.000	-0.001	0.193
-318.026	-200.000	0.029	-0.178
-317.012	-9.443	-0.217	-0.144
-315.997	-192.632	0.079	0.001
-314.983	414.552	-0.086	-0.180
-313.968	-200.000	0.001	-0.202
-312.953	-200.000	-0.032	-0.160
-311.939	-45.313	0.127	-0.062
-310.924	479.258	0.031	0.069
-309.910	-92.314	0.193	-0.054
-308.895	-41.707	-0.285	-0.145
-307.880	800.000	-0.019	0.053
-306.866	-67.450	0.243	-0.094
-305.851	146.063	0.122	-0.162
-304.837	800.000	0.093	-0.285
-303.822	26.448	0.015	0.013
-302.807	-122.440	-0.179	0.029
-301.793	-162.670	-0.077	-0.004
-300.778	-104.424	-0.099	-0.023
-299.764	-181.799	-0.095	-0.002
-298.749	-116.623	-0.439	0.080
-297.735	-200.000	-0.061	0.303
-296.720	800.000	0.018	0.075
-295.705	-200.000	-0.028	0.175
-294.691	-200.000	0.038	-0.202
-293.676	205.327	0.091	0.140
-292.662	-54.439	0.352	0.158
-291.647	-100.568	-0.331	-0.081
-290.632	24.960	-0.248	0.203
-289.618	-121.336	-0.077	-0.013
-288.603	-40.020	0.209	0.108
-287.589	800.000	0.111	0.389
-286.574	189.190	0.149	0.221
-285.559	800.000	-0.065	-0.238
-284.545	800.000	-0.035	0.138
-283.530	-200.000	-0.010	0.203
-282.516	-63.525	0.122	0.049
-281.501	-106.263	-0.189	-0.042
-280.486	185.707	0.026	-0.038
-279.472	-56.843	-0.149	-0.065
-278.457	-200.000	-0.017	-0.114
-277.443	212.899	-0.245	0.382
-276.428	-2.948	0.145	0.100
-275.413	74.894	0.141	0.146
-274.399	-200.000	-0.061	0.368
-273.384	59.745	0.081	0.079
-272.370	-149.491	0.267	0.021
-271.355	-29.646	-0.309	-0.174
-270.340	-79.936	-0.154	0.051
-269.326	243.308	-0.050	0.083
-268.311	-200.000	-0.001	-0.230
-267.297	-67.052	0.153	0.060
-266.282	107.025	0.045	-0.053
-265.267	-128.839	0.116	0.016
-264.253	709.748	-0.016	-0.043
-263.238	86.350	0.080	-0.087
-262.224	607.052	0.160	0.393
-261.209	484.602	0.064	0.144
-260.195	-80.542	0.175	-0.058
-259.180	235.766	-0.143	-0.234
-258.165	54.939	0.255	0.243
-257.151	-125.526	0.077	-0.012
-256.136	26.711	-0.094	-0.078
-255.122	-66.359	0.424	0.167
-254.107	-200.000	-0.028	0.156
-253.092	-39.938	0.106	-0.055
-252.078	-132.099	-0.370	0.047
-251.063	-136.870	0.140	-0.016
-250.049	122.467	0.237	-0.293
-249.034	19.718	0.251	-0.199
-248.019	110.804	-0.052	-0.061
-247.005	139.046	0.136	0.176
-245.990	-107.704	-0.156	0.034
-244.976	-65.771	-0.236	0.093
-243.961	3.629	0.209	0.150
-242.946	-200.000	-0.023	-0.110
-241.932	43.803	-0.026	0.023
-240.917	800.000	0.048	0.186
-239.903	-200.000	-0.207	0.001
-238.888	252.364	0.191	0.320
-237.873	262.464	-0.226	0.387
-236.859	-49.941	0.117	-0.055
-235.844	-13.258	-0.121	-0.078
-234.830	154.554	0.200	0.272
-233.815	243.887	0.300	0.496
-232.800	800.000	0.073	0.295
-231.786	-103.934	0.102	0.023
-230.771	17.668	-0.115	0.090
-229.757	263.445	0.219	-0.375
-228.742	81.133	0.069	0.074
-227.727	800.000	0.106	0.363
-226.713	-200.000	-0.042	-0.190
-225.698	134.122	0.106	-0.135
-224.684	-114.736	-0.092	0.017
-223.669	-3.228	-0.272	-0.187
-222.655	-92.052	0.167	-0.046
-221.640	255.571	-0.134	0.226
-220.625	416.777	0.158	0.332
-219.611	-123.122	0.129	0.020
-218.596	-14.501	0.196	-0.124
-217.582	-72.713	-0.065	0.024
-216.567	46.083	-0.118	-0.107
-215.552	151.544	0.129	-0.173
-214.538	-30.836	0.229	-0.128
-213.523	800.000	0.062	0.256
-212.509	800.000	-0.040	-0.115
-211.494	-114.976	-0.077	-0.014
-210.479	-72.732	-0.110	0.040
-209.465	272.126	0.090	0.156
-208.450	429.693	0.053	0.112
-207.436	448.929	0.082	-0.177
-206.421	-200.000	-0.055	0.466
-205.406	-150.136	0.281	-0.022
-204.392	183.837	-0.212	-0.309
-203.377	-200.000	0.010	-0.095
-202.363	11.009	-0.264	-0.198
-201.348	397.755	-0.150	0.309
-200.333	-200.000	-0.022	0.144
-199.319	-88.315	0.212	0.062
-198.304	-30.449	-0.309	0.173
-197.290	-73.395	0.433	-0.156
-196.275	-104.138	0.340	-0.078
-195.260	272.088	0.046	0.080
-194.246	-74.124	0.306	0.109
-193.231	-200.000	0.000	0.198
-192.217	496.129	-0.129	-0.291
-191.202	-79.763	0.091	-0.030
-190.187	-200.000	0.039	-0.296
-189.173	-51.502	-0.317	0.146
-188.158	235.027	0.193	0.314
-187.144	423.513	-0.072	-0.153
-186.129	34.027	0.116	0.100
-185.114	-18.637	-0.111	0.068
-184.100	-200.000	-0.031	0.225
-183.085	124.285	0.216	0.267
-182.071	27.498	-0.046	-0.038
-181.056	5.228	-0.186	-0.135
-180.042	-200.000	-0.012	-0.076
-179.027	62.298	-0.275	0.270
-178.012	-107.313	0.237	-0.051
-176.998	800.000	-0.084	-0.345
-175.983	-132.007	-0.197	0.025
-174.969	146.546	0.238	0.314
-173.954	526.693	-0.024	-0.055
-172.939	-37.475	-0.333	0.175
-171.925	-141.788	0.183	0.018
-170.910	-114.800	0.180	-0.034
-169.896	-200.000	-0.014	-0.082
-168.881	684.876	0.036	-0.093
-167.866	81.782	0.152	-0.162
-166.852	-138.860	-0.147	0.016
-165.837	800.000	-0.110	-0.383
-164.823	800.000	-0.087	0.295
-163.808	-75.980	0.170	0.059
-162.793	-97.955	-0.203	-0.052
-161.779	800.000	0.094	-0.272
-160.764	-200.000	0.023	-0.475
-159.750	-200.000	-0.066	0.396
-158.735	270.851	-0.146	0.252
-157.720	86.015	0.078	0.084
-156.706	445.608	-0.011	0.023
-155.691	-200.000	-0.005	-0.120
-154.677	-85.360	0.340	0.104
-153.662	-93.790	-0.245	-0.066
-152.647	-25.407	0.209	0.122
-151.633	-105.441	0.375	-0.084
-150.618	-68.379	-0.206	-0.078
-149.604	324.365	0.098	0.185
-148.589	25.483	0.218	-0.178
-147.574	236.009	0.117	-0.190
-146.560	-45.654	-0.241	-0.117
-145.545	-154.141	-0.388	-0.026
-144.531	5.054	-0.149	0.108
-143.516	-30.498	0.161	0.090
-142.502	219.228	0.072	-0.114
-141.487	-200.000	-0.031	0.236
-140.472	339.775	0.079	-0.152
-139.458	562.373	0.067	0.160
-138.443	-19.029	-0.128	-0.078
-137.429	1.451	0.282	-0.199
-136.414	-156.089	-0.475	0.030
-135.399	8.851	0.361	0.268
-134.385	-167.122	0.286	-0.011
-133.370	445.992	-0.096	0.208
-132.356	226.846	0.192	0.306
-131.341	-200.000	0.011	-0.248
-130.326	-10.803	-0.024	-0.015
-129.312	-58.615	-0.171	-0.073
-128.297	-200.000	0.105	-0.498
-127.283	502.542	0.044	0.101
-126.268	-127.686	0.488	0.069
-125.253	200.169	-0.081	-0.123
-124.239	-87.698	-0.109	0.032
-123.224	72.917	0.105	0.108
-122.210	-97.427	0.538	0.138
-121.195	-177.960	-0.368	-0.009
-120.180	284.783	0.151	-0.266
-119.166	60.054	0.248	-0.240
-118.151	217.317	-0.112	-0.175
-117.137	201.837	0.077	0.116
-116.122	-82.852	0.147	0.047
-115.107	-40.762	0.206	-0.105
-114.093	19.884	0.179	-0.142
-113.078	-196.270	0.173	0.001
-112.064	800.000	0.124	0.524
-111.049	-78.493	0.161	0.054
-110.034	10.547	0.111	-0.083
-109.020	-80.177	-0.241	0.079
-108.005	-82.210	0.195	0.062
-106.991	-64.272	0.184	-0.073
-105.976	-164.414	-0.238	0.011
-104.962	-137.767	0.199	0.022
-103.947	-130.890	-0.253	0.033
-102.932	-194.221	-0.294	0.002
-101.918	78.784	0.038	-0.040
-100.903	-71.445	0.189	-0.069
-99.889	47.071	0.327	0.299
-98.874	74.681	-0.255	0.264
-97.859	-200.000	0.016	0.234
-96.845	335.598	0.060	0.114
-95.830	5.859	-0.103	-0.075
-94.816	-104.565	0.054	-0.012
-93.801	105.194	-0.090	0.104
-92.786	-137.978	0.293	0.032
-91.772	-29.334	-0.068	0.038
-90.757	214.706	0.088	-0.137
-89.743	-104.250	-0.363	0.083
-88.728	59.413	-0.086	0.083
-87.713	-83.127	0.276	-0.087
-86.699	27.473	-0.143	-0.118
-85.684	15.199	-0.254	0.195
-84.670	90.991	0.308	0.339
-83.655	-200.000	-0.042	0.310
-82.640	187.673	0.124	-0.181
-81.626	348.894	-0.058	-0.111
-80.611	110.215	-0.157	0.185
-79.597	-200.000	-0.028	0.181
-78.582	-45.966	0.258	-0.125
-77.567	-200.000	0.001	0.029
-76.553	59.185	0.096	0.093
-75.538	-67.278	0.108	-0.042
-74.524	80.915	0.161	-0.170
-73.509	-200.000	-0.019	-0.125
-72.494	-200.000	0.002	-0.080
-71.480	-89.511	0.089	-0.026
-70.465	-25.951	0.069	0.040
-69.451	-173.189	0.124	-0.004
-68.436	209.598	0.093	-0.143
-67.422	800.000	-0.052	-0.219
-66.407	800.000	0.040	0.153
-65.392	-200.000	0.010	0.391
-64.378	-16.075	0.103	-0.064
-63.363	-200.000	-0.060	-0.275
-62.349	-12.353	0.251	-0.161
-61.334	117.222	-0.882	-1.062
-60.319	-38.497	0.806	0.417
-59.305	173.433	-0.577	-0.816
-58.290	310.457	0.490	0.899
-57.276	-200.000	0.280	1.530
-56.261	-200.000	106.908	615.652
-55.246	515.292	1508.981	3451.171
-54.232	175.305	2709.396	3845.189
-53.217	104.214	2294.112	2643.091
-52.203	38.529	1899.031	1658.290
-51.188	32.531	1685.982	1426.914
-50.173	29.906	1642.283	1370.462
-49.159	48.534	1696.981	1556.891
-48.144	48.758	1712.112	1572.398
-47.130	32.008	1669.789	1409.055
-46.115	29.388	1654.576	1376.641
-45.100	29.314	1649.695	1371.970
-44.086	29.283	1646.739	1369.232
-43.071	29.107	1644.391	1365.915
-42.057	29.151	1642.288	1364.445
-41.042	29.241	1640.133	1363.267
-40.027	29.178	1638.450	1361.346
-39.013	29.142	1636.642	1359.523
-37.998	29.125	1635.095	1358.063
-36.984	29.188	1633.600	1357.226
-35.969	29.347	1631.819	1356.861
-34.954	29.396	1629.997	1355.654
-33.940	29.336	1628.680	1354.067
-32.925	29.299	1626.761	1352.147
-31.911	29.309	1624.844	1350.571
-30.896	29.226	1623.625	1348.895
-29.881	29.213	1622.371	1347.708
-28.867	29.332	1619.678	1346.285
-27.852	29.290	1618.600	1345.029
-26.838	29.296	1617.120	1343.787
-25.823	29.269	1616.122	1342.712
-24.809	29.341	1614.596	1341.912
-23.794	29.343	1612.673	1340.280
-22.779	29.341	1611.682	1339.388
-21.765	29.283	1610.094	1337.591
-20.750	29.308	1607.898	1335.894
-19.736	29.307	1606.622	1334.776
-18.721	29.292	1605.534	1333.708
-17.706	29.297	1604.122	1332.517
-16.692	29.204	1603.072	1330.920
-15.677	29.259	1601.818	1330.223
-14.663	29.404	1599.659	1329.429
-13.648	29.319	1598.585	1327.867
-12.633	29.352	1597.001	1326.734
-11.619	29.332	1595.266	1325.101
-10.604	29.320	1593.736	1323.688
-9.590	29.359	1592.277	1322.705
-8.575	29.387	1590.986	1321.780
-7.560	29.372	1590.211	1320.973
-6.546	29.376	1589.504	1320.366
-5.531	29.368	1588.043	1319.045
-4.517	29.376	1586.731	1317.959
-3.502	29.283	1586.256	1316.848
-2.487	29.423	1584.393	1316.246
-1.473	29.178	1572.054	1304.211
-0.458	26.323	1552.237	1267.728
0.556	20.429	1553.934	1236.724
1.571	18.243	1578.447	1240.299
2.586	17.981	1591.960	1248.889
3.600	16.414	1539.485	1196.530
4.615	8.822	1430.390	1061.515
5.629	1.257	1366.888	966.264
6.644	-0.290	1359.011	950.810
7.659	-0.301	1357.653	949.704
8.673	-0.328	1356.378	948.561
9.688	-0.300	1354.553	947.374
10.702	-0.595	1351.391	943.223
11.717	2.464	1357.667	966.861
12.731	11.589	1374.857	1037.163
13.746	19.012	1387.979	1094.370
14.761	21.006	1389.763	1108.365
15.775	21.139	1390.029	1109.329
16.790	21.196	1389.197	1108.926
17.804	21.235	1389.357	1109.204
18.819	21.628	1388.476	1110.894
19.834	21.801	1387.439	1111.067
20.848	21.605	1387.189	1109.521
21.863	21.639	1386.628	1109.193
22.877	21.638	1385.716	1108.355
23.892	21.738	1384.265	1107.732
24.907	21.644	1383.641	1106.542
25.921	21.681	1382.767	1105.979
26.936	21.675	1381.605	1104.914
27.950	21.608	1380.861	1103.794
28.965	21.804	1379.295	1103.679
29.980	21.617	1378.239	1101.565
30.994	21.606	1377.139	1100.520
32.009	21.744	1375.613	1100.069
33.023	21.683	1374.697	1098.856
34.038	21.650	1373.560	1097.641
35.053	21.635	1372.624	1096.701
36.067	21.715	1371.317	1096.058
37.082	21.574	1370.744	1094.626
38.096	21.673	1369.755	1094.353
39.111	21.604	1369.308	1093.472
40.126	21.665	1368.371	1093.005
41.140	21.662	1367.672	1092.335
42.155	21.790	1366.635	1092.206
43.169	21.590	1367.694	1091.708
44.184	21.642	1366.964	1091.352
45.199	21.538	1367.022	1090.653
46.213	21.670	1365.971	1090.541
47.228	21.620	1365.514	1089.769
48.242	21.611	1364.213	1088.579
49.257	21.643	1362.517	1087.327
50.271	21.772	1360.567	1086.477
51.286	21.656	1359.785	1085.035
52.301	21.742	1358.736	1084.634
53.315	21.634	1358.051	1083.322
54.330	21.682	1356.900	1082.606
55.344	21.754	1355.543	1081.872
56.359	21.684	1354.750	1080.713
57.374	21.603	1353.743	1079.314
58.388	21.631	1353.490	1079.188
59.403	21.684	1353.253	1079.228
60.417	21.607	1352.281	1077.885
61.432	21.624	1351.502	1077.272
62.447	21.692	1350.807	1077.044
63.461	21.685	1349.534	1075.891
64.476	21.649	1348.644	1074.864
65.490	21.626	1348.087	1074.187
66.505	21.754	1345.740	1073.002
67.520	21.598	1344.990	1071.358
68.534	21.651	1343.241	1070.190
69.549	21.672	1342.816	1069.886
70.563	21.708	1341.492	1068.955
71.578	21.747	1340.413	1068.237
72.593	21.713	1339.596	1067.289
73.607	21.739	1338.833	1066.741
74.622	21.655	1338.434	1065.820
75.636	21.606	1337.679	1064.825
76.651	21.689	1336.562	1064.349
77.666	21.658	1336.510	1064.022
78.680	21.741	1335.835	1063.897
79.695	21.748	1334.627	1062.879
80.709	21.765	1333.711	1062.164
81.724	21.739	1333.110	1061.430
82.739	21.694	1332.114	1060.272
83.753	21.664	1331.398	1059.428
84.768	21.688	1329.589	1058.036
85.782	21.718	1329.037	1057.687
86.797	21.755	1327.534	1056.617
87.812	21.715	1326.671	1055.601
88.826	21.667	1325.795	1054.518
89.841	21.698	1324.598	1053.661
90.855	21.800	1323.345	1053.185
91.870	21.761	1322.440	1052.136
92.884	21.798	1321.621	1051.613
93.899	21.729	1321.074	1050.668
94.914	21.709	1320.184	1049.749
95.928	21.695	1319.467	1049.003
96.943	21.794	1318.819	1048.986
97.957	21.787	1318.205	1048.365
98.972	21.731	1317.525	1047.398
99.987	21.759	1316.005	1046.261
101.001	21.731	1315.261	1045.412
102.016	21.771	1314.648	1045.070
103.030	21.743	1313.122	1043.600
104.045	21.748	1312.446	1042.997
105.060	21.799	1311.672	1042.592
106.074	21.700	1310.840	1041.252
107.089	21.736	1309.576	1040.368
108.103	21.762	1308.166	1039.310
109.118	21.850	1306.956	1038.780
110.133	21.866	1306.047	1038.058
111.147	21.922	1304.540	1037.099
112.162	21.908	1303.590	1036.174
113.176	21.922	1302.636	1035.406
114.191	21.858	1302.205	1034.593
115.206	21.824	1300.893	1033.259
116.220	21.799	1299.868	1032.204
117.235	21.768	1299.018	1031.256
118.249	21.807	1297.850	1030.468
119.264	21.872	1296.830	1029.946
120.279	21.827	1295.988	1028.924
121.293	21.879	1295.149	1028.475
122.308	21.893	1294.406	1027.875
123.322	21.857	1293.114	1026.543
124.337	21.916	1292.468	1026.290
125.352	21.904	1291.484	1025.344
126.366	21.851	1290.949	1024.523
127.381	21.859	1290.111	1023.811
128.395	21.969	1289.019	1023.497
129.410	21.770	1287.998	1021.432
130.424	21.915	1287.182	1021.542
131.439	21.811	1286.412	1020.232
132.454	21.875	1285.467	1019.765
133.468	21.864	1284.667	1018.979
134.483	21.803	1284.161	1018.130
135.497	21.785	1283.401	1017.335
136.512	21.795	1282.507	1016.596
137.527	21.811	1281.176	1015.541
138.541	21.861	1280.042	1014.840
139.556	21.932	1278.441	1013.894
140.570	21.818	1276.850	1011.882
141.585	21.825	1276.020	1011.180
142.600	21.881	1274.721	1010.380
143.614	21.775	1274.484	1009.495
144.629	21.891	1273.153	1009.019
145.643	21.793	1272.109	1007.536
146.658	21.816	1271.063	1006.754
147.673	21.732	1270.025	1005.360
148.687	21.649	1269.801	1004.617
149.702	21.832	1267.606	1003.838
150.716	21.772	1267.088	1002.997
151.731	22.029	1265.513	1003.132
152.746	21.847	1265.012	1001.607
153.760	21.852	1263.621	1000.440
154.775	21.927	1262.566	999.949
155.789	21.882	1261.745	998.953
156.804	21.949	1260.664	998.388
157.819	21.911	1259.817	997.415
158.833	21.935	1258.807	996.660
159.848	21.895	1258.692	996.257
160.862	21.980	1257.884	996.009
161.877	21.972	1256.602	994.864
162.892	21.868	1256.010	993.714
163.906	22.012	1255.294	993.876
164.921	21.983	1254.366	992.892
165.935	21.986	1253.527	992.156
166.950	21.979	1253.335	991.876
167.964	22.028	1252.372	991.302
168.979	21.982	1251.579	990.328
169.994	21.990	1251.388	990.136
171.008	22.105	1250.208	989.759
172.023	21.954	1249.965	988.627
173.037	22.045	1248.830	988.159
174.052	22.027	1248.017	987.323
175.067	21.943	1247.682	986.500
176.081	22.007	1246.686	985.983
177.096	21.986	1246.005	985.242
178.110	22.019	1244.708	984.315
179.125	22.058	1243.820	983.742
180.140	22.092	1242.632	982.905
181.154	22.084	1241.367	981.775
182.169	22.050	1240.679	980.956
183.183	21.865	1240.294	979.527
184.198	22.092	1238.068	978.950
185.213	22.185	1237.320	978.787
186.227	22.186	1236.736	978.245
187.242	22.070	1235.948	976.891
188.256	22.092	1235.043	976.215
189.271	22.116	1234.535	975.857
190.286	22.084	1233.796	975.008
191.300	22.067	1233.247	974.395
192.315	22.008	1232.834	973.653
193.329	22.010	1232.367	973.212
194.344	22.122	1231.724	973.237
195.359	22.127	1231.003	972.608
196.373	22.048	1230.884	971.990
197.388	21.950	1230.449	971.019
198.402	22.045	1229.565	970.763
199.417	21.985	1229.367	970.187
200.432	22.040	1228.404	969.646
201.446	22.017	1228.213	969.281
202.461	22.146	1227.031	968.976
203.475	22.125	1226.398	968.275
204.490	22.153	1225.283	967.463
205.504	22.150	1224.262	966.556
206.519	22.126	1223.490	965.729
207.534	22.163	1222.868	965.352
208.548	22.197	1221.627	964.473
209.563	22.248	1220.708	963.942
210.577	22.184	1219.724	962.734
211.592	22.156	1219.340	962.191
212.607	22.184	1218.387	961.507
213.621	22.193	1217.602	960.852
214.636	22.343	1216.460	960.682
215.650	22.212	1216.044	959.557
216.665	22.090	1215.247	958.174
217.680	22.240	1214.465	958.293
218.694	22.183	1213.590	957.205
219.709	22.275	1212.834	957.023
220.723	22.219	1212.360	956.261
221.738	22.053	1211.768	954.807
222.753	22.065	1211.030	954.206
223.767	22.327	1209.683	954.482
224.782	22.245	1210.016	954.215
225.796	22.266	1209.238	953.633
226.811	22.210	1208.681	952.805
227.826	22.411	1207.436	952.826
228.840	22.220	1207.526	951.780
229.855	22.312	1206.555	951.428
230.869	22.329	1205.419	950.542
231.884	22.278	1205.103	949.930
232.899	22.321	1204.125	949.310
233.913	22.343	1203.784	949.077
234.928	22.426	1203.511	949.221
235.942	22.433	1202.701	948.537
236.957	22.368	1202.075	947.609
237.972	22.198	1201.689	946.305
238.986	22.313	1201.065	946.351
240.001	22.431	1200.253	946.259
241.015	22.406	1199.288	945.282
242.030	22.498	1198.334	944.939
243.045	22.448	1198.038	944.357
244.059	22.472	1197.112	943.671
245.074	22.450	1196.454	942.951
246.088	22.522	1195.647	942.614
247.103	22.507	1194.683	941.694
248.117	22.486	1194.008	940.967
249.132	22.361	1193.693	939.964
250.147	22.558	1192.401	939.917
251.161	22.521	1191.617	939.017
252.176	22.519	1191.179	938.580
253.190	22.564	1190.315	938.053
254.205	22.444	1189.996	937.080
255.220	22.529	1189.344	936.937
256.234	22.636	1188.642	936.868
257.249	22.590	1188.091	936.106
258.263	22.571	1187.352	935.344
259.278	22.584	1186.833	934.919
260.293	22.597	1186.643	934.755
261.307	22.692	1185.837	934.543
262.322	22.497	1185.332	933.028
263.336	22.589	1184.822	933.029
264.351	22.609	1183.851	932.287
265.366	22.701	1183.144	932.135
266.380	22.647	1182.740	931.451
267.395	22.552	1182.314	930.532
268.409	22.493	1181.665	929.628
269.424	22.520	1181.220	929.339
270.439	22.681	1180.277	929.364
271.453	22.633	1179.699	928.570
272.468	22.540	1178.738	927.245
273.482	22.644	1177.868	927.024
274.497	22.572	1177.594	926.347
275.512	22.723	1176.899	926.515
276.526	22.720	1176.333	925.967
277.541	22.745	1175.789	925.588
278.555	22.714	1175.013	924.737
279.570	22.655	1174.579	924.001
280.585	22.708	1173.273	923.170
281.599	22.743	1172.777	922.883
282.614	22.831	1171.582	922.319
283.628	22.742	1170.562	920.971
284.643	22.747	1170.103	920.555
285.657	22.797	1169.396	920.179
286.672	22.792	1168.286	919.193
287.687	22.690	1167.689	918.114
288.701	22.724	1167.061	917.717
289.716	22.854	1166.397	917.789
290.730	22.792	1166.014	917.081
291.745	22.853	1165.141	916.630
292.760	22.846	1164.711	916.174
293.774	22.922	1163.804	915.777
294.789	22.961	1163.486	915.645
295.803	22.900	1162.793	914.705
296.818	22.792	1162.648	913.952
297.833	22.889	1161.797	913.700
298.847	23.020	1160.983	913.657
299.862	23.003	1159.932	912.663
300.876	22.940	1159.274	911.736
301.891	22.909	1158.921	911.222
302.906	23.014	1158.318	911.205
303.920	23.043	1157.194	910.389
304.935	23.014	1156.667	909.747
305.949	22.976	1156.050	908.985
306.964	22.938	1155.497	908.278
307.979	23.059	1155.132	908.529
308.993	23.068	1154.469	907.975
310.008	23.090	1153.368	907.142
311.022	23.072	1152.683	906.431
312.037	23.122	1151.912	906.001
313.052	23.005	1151.231	904.785
314.066	23.067	1150.559	904.492
315.081	22.933	1149.799	903.129
316.095	23.016	1148.985	902.836
317.110	23.115	1148.415	902.813
318.125	23.127	1148.247	902.663
319.139	23.055	1147.115	901.325
320.154	23.178	1146.181	901.138
321.168	23.085	1146.275	900.659
322.183	23.063	1145.518	899.874
323.197	23.124	1144.662	899.432
324.212	23.100	1144.417	899.039
325.227	23.241	1143.885	899.255
326.241	23.283	1143.166	898.821
327.256	23.135	1142.417	897.403
328.270	23.233	1141.393	897.017
329.285	23.206	1140.969	896.470
330.300	23.234	1139.759	895.577
331.314	23.083	1139.354	894.418
332.329	23.192	1138.567	894.270
333.343	23.301	1137.573	893.963
334.358	23.285	1136.984	893.341
335.373	23.355	1136.626	893.333
336.387	23.411	1135.512	892.661
337.402	23.375	1134.583	891.671
338.416	23.418	1134.147	891.466
339.431	23.337	1133.616	890.562
340.446	23.452	1132.738	890.371
341.460	23.323	1132.413	889.388
342.475	23.491	1131.404	889.359
343.489	23.401	1130.969	888.489
344.504	23.364	1129.762	887.276
345.519	23.395	1128.966	886.729
346.533	23.411	1128.279	886.189
347.548	23.450	1127.826	885.951
348.562	23.375	1127.081	884.914
349.577	23.477	1125.883	884.403
350.592	23.351	1125.250	883.196
351.606	23.402	1124.839	883.049
352.621	23.483	1124.479	883.092
353.635	23.392	1123.832	882.056
354.650	23.458	1122.972	881.631
355.665	23.557	1122.310	881.524
356.679	23.614	1121.658	881.215
357.694	23.572	1121.036	880.441
358.708	23.598	1120.129	879.782
359.723	23.456	1119.731	878.686
360.738	23.319	1119.291	877.585
361.752	23.461	1118.762	877.794
362.767	23.622	1117.928	877.860
363.781	23.449	1118.030	877.007
364.796	23.721	1116.742	877.259
365.810	23.580	1116.349	876.177
366.825	23.632	1116.161	876.212
367.840	23.706	1115.261	875.792
368.854	23.877	1114.245	875.761
369.869	23.713	1113.604	874.373
370.883	23.819	1112.880	874.247
371.898	23.676	1112.451	873.129
372.913	23.736	1112.075	873.050
373.927	23.728	1111.568	872.536
374.942	23.715	1111.114	872.037
375.956	23.746	1110.658	871.754
376.971	23.752	1110.317	871.442
377.986	23.744	1109.526	870.705
379.000	23.850	1108.770	870.554
380.015	23.753	1108.200	869.552
381.029	23.824	1107.625	869.371
382.044	23.783	1107.153	868.724
383.059	23.848	1106.349	868.336
384.073	23.724	1106.045	867.412
385.088	23.809	1104.982	866.917
386.102	23.900	1103.699	866.279
387.117	23.844	1103.504	865.776
388.132	23.905	1102.100	864.893
389.146	23.959	1101.458	864.574
390.161	23.932	1101.023	864.026
391.175	23.983	1100.642	863.897
392.190	23.911	1099.932	862.916
393.205	23.957	1098.973	862.312
394.219	23.965	1098.095	861.582
395.234	23.997	1097.403	861.118
396.248	23.935	1096.561	860.083
397.263	23.946	1095.991	859.611
398.278	24.060	1095.334	859.574
399.292	24.122	1094.327	859.003
400.307	24.059	1093.808	858.217
401.321	23.987	1093.301	857.397
402.336	23.986	1092.469	856.664
403.350	24.097	1091.456	856.328
404.365	23.963	1091.511	855.650
405.380	24.089	1090.440	855.341
406.394	24.164	1089.749	855.083
407.409	24.135	1089.181	854.423
408.423	24.204	1088.137	853.856
409.438	24.151	1087.825	853.284
410.453	24.129	1087.300	852.690
411.467	24.295	1086.484	852.769
412.482	24.094	1086.104	851.437
413.496	24.208	1084.837	850.911
414.511	24.217	1084.495	850.611
415.526	24.144	1084.109	849.884
416.540	24.287	1083.592	850.086
417.555	24.238	1082.879	849.215
418.569	24.147	1082.741	848.602
419.584	24.279	1082.164	848.701
420.599	24.398	1081.467	848.645
421.613	148.960	1401.508	1798.863
422.628	137.580	1448.112	1798.954
