DTS Sentinel unit serial number:	SN413079Multiplexer serial number:	ORYXHardware model number:	OX4-SRSoftware version number:	ORYX F/W v4.00 Oryx Data Collector v3.7.2.0data status	okinstallation	princeton_trtdifferential loss correction	single-endedforward channel	channel 2reverse channel	N/Adate	2019/09/15time	04:47:35forward acquisition time	60.00reverse acquisition time	0.00gamma	496.2192k internal	0.2326k external	0.2326temperature offset calibration	1.0036default loss term (dB/km)	0.3790temperature slope calibration	1.0000multiplexer offset coefficient	1.0000multiplexer slope coefficient	1.0000fibre end	0.00T internal ref (°C)	30.80T ext. ref 1 (°C)	4.76T ext. ref 2 (°C)	25.30length (m)	temperature (°C)	Stokes	anti-Stokes-747.200	800.000	-0.030	0.119
-746.185	208.120	-0.144	0.228
-745.171	800.000	0.089	0.310
-744.156	-145.547	-0.141	-0.013
-743.142	74.301	0.193	-0.204
-742.127	-112.116	-0.377	0.076
-741.112	69.958	0.330	0.344
-740.098	42.198	0.203	0.186
-739.083	166.366	-0.172	0.246
-738.069	800.000	0.049	0.175
-737.054	174.795	-0.118	0.172
-736.039	245.215	-0.177	-0.301
-735.025	237.090	0.209	0.348
-734.010	199.664	0.090	0.139
-732.996	91.604	-0.119	-0.135
-731.981	-10.977	0.147	-0.098
-730.966	236.081	0.087	0.144
-729.952	37.145	0.032	-0.028
-728.937	-53.356	-0.239	-0.111
-727.923	178.102	-0.184	-0.270
-726.908	343.084	0.072	0.142
-725.894	486.271	0.033	-0.077
-724.879	-200.000	-0.009	-0.094
-723.864	-200.000	0.011	-0.221
-722.850	223.373	-0.045	0.073
-721.835	-200.000	-0.091	-0.513
-720.821	133.542	-0.274	0.357
-719.806	231.845	-0.066	-0.108
-718.791	-103.416	0.028	0.007
-717.777	231.942	-0.194	-0.320
-716.762	-200.000	0.035	-0.163
-715.748	-44.149	0.164	-0.083
-714.733	-200.000	0.039	-0.246
-713.718	-170.995	-0.172	0.006
-712.704	800.000	-0.054	-0.156
-711.689	-200.000	0.002	-0.127
-710.675	-200.000	-0.010	0.260
-709.660	-200.000	-0.020	-0.095
-708.645	800.000	0.091	0.272
-707.631	168.796	0.182	-0.261
-706.616	-200.000	0.031	0.281
-705.602	-200.000	0.046	-0.275
-704.587	-200.000	0.055	-0.251
-703.572	-200.000	-0.014	0.163
-702.558	-151.649	0.111	-0.008
-701.543	99.268	-0.071	-0.082
-700.529	-72.110	-0.173	-0.065
-699.514	800.000	-0.099	-0.380
-698.499	-75.231	-0.263	0.095
-697.485	248.077	0.074	0.127
-696.470	-200.000	-0.030	-0.436
-695.456	-96.400	0.246	-0.066
-694.441	-175.914	-0.112	0.003
-693.426	174.363	-0.164	-0.238
-692.412	-143.552	-0.178	0.017
-691.397	-200.000	-0.004	-0.049
-690.383	800.000	0.051	-0.173
-689.368	-102.496	-0.197	-0.047
-688.354	-200.000	0.072	0.327
-687.339	-148.459	-0.373	-0.031
-686.324	4.644	-0.068	-0.050
-685.310	7.963	0.256	-0.193
-684.295	-117.264	0.128	0.023
-683.281	708.899	0.032	0.086
-682.266	-200.000	-0.025	-0.172
-681.251	-200.000	0.014	0.401
-680.237	-50.246	-0.055	-0.026
-679.222	-200.000	0.010	0.253
-678.208	239.526	0.024	-0.041
-677.193	-200.000	0.048	-0.226
-676.178	12.607	0.158	-0.122
-675.164	-200.000	0.013	0.059
-674.149	-200.000	-0.005	-0.098
-673.135	-53.415	-0.421	-0.194
-672.120	-33.776	0.155	0.086
-671.105	-136.706	0.231	0.027
-670.091	-116.116	0.157	0.029
-669.076	-117.330	-0.099	0.018
-668.062	76.661	0.066	0.071
-667.047	349.125	0.097	-0.193
-666.032	800.000	-0.021	-0.070
-665.018	-135.566	-0.209	0.025
-664.003	-200.000	0.077	-0.404
-662.989	800.000	-0.094	-0.263
-661.974	-52.476	-0.106	-0.049
-660.959	-139.722	-0.265	0.028
-659.945	79.027	-0.373	-0.402
-658.930	-43.655	0.211	-0.107
-657.916	-108.162	0.400	-0.087
-656.901	62.910	-0.084	-0.084
-655.886	-112.019	0.220	-0.044
-654.872	800.000	-0.010	0.042
-653.857	-200.000	0.018	-0.134
-652.843	800.000	-0.074	0.215
-651.828	198.590	-0.161	-0.247
-650.814	800.000	0.061	0.258
-649.799	-200.000	-0.014	0.178
-648.784	800.000	0.066	-0.233
-647.770	-200.000	-0.045	-0.224
-646.755	97.999	-0.122	0.142
-645.741	-91.291	-0.081	0.023
-644.726	154.102	-0.102	0.141
-643.711	800.000	-0.002	0.006
-642.697	182.711	-0.127	0.189
-641.682	-87.304	-0.541	0.165
-640.668	-137.260	-0.157	0.018
-639.653	-200.000	0.007	-0.177
-638.638	-200.000	0.002	0.068
-637.624	111.777	-0.176	0.213
-636.609	15.421	0.166	0.130
-635.595	720.636	0.079	-0.210
-634.580	-12.228	-0.183	-0.120
-633.565	800.000	0.111	-0.370
-632.551	-93.971	0.176	-0.049
-631.536	800.000	0.034	-0.144
-630.522	169.327	0.149	-0.213
-629.507	800.000	-0.044	0.128
-628.492	-29.571	-0.176	-0.101
-627.478	-191.292	0.061	0.001
-626.463	-137.865	0.282	0.032
-625.449	800.000	0.073	0.244
-624.434	-200.000	0.004	-0.058
-623.419	-200.000	0.119	-0.000
-622.405	800.000	-0.059	0.195
-621.390	73.822	0.263	0.277
-620.376	176.714	0.093	-0.136
-619.361	-121.252	-0.099	0.017
-618.346	458.842	0.145	-0.325
-617.332	253.611	-0.023	0.040
-616.317	-157.190	-0.156	-0.010
-615.303	164.469	0.280	0.396
-614.288	-200.000	-0.006	-0.027
-613.273	800.000	-0.122	-0.439
-612.259	-34.650	-0.137	-0.075
-611.244	353.367	0.029	0.058
-610.230	-60.536	-0.199	0.085
-609.215	42.859	-0.275	0.252
-608.201	-200.000	0.012	0.329
-607.186	-151.042	0.251	-0.019
-606.171	-35.832	-0.235	0.128
-605.157	-12.916	0.064	-0.041
-604.142	74.452	-0.083	-0.087
-603.128	349.901	0.030	0.060
-602.113	-179.588	-0.137	-0.003
-601.098	232.417	0.111	0.182
-600.084	316.784	-0.058	0.109
-599.069	166.815	0.042	0.060
-598.055	-200.000	-0.028	-0.462
-597.040	501.380	-0.241	-0.559
-596.025	75.993	-0.236	-0.250
-595.011	-73.214	0.084	-0.031
-593.996	-13.941	-0.024	-0.015
-592.982	-103.124	0.325	-0.077
-591.967	-131.385	0.181	-0.024
-590.952	268.324	-0.108	0.189
-589.938	112.980	0.203	0.246
-588.923	-28.328	-0.123	0.071
-587.909	-200.000	-0.021	0.164
-586.894	-200.000	-0.030	0.176
-585.879	296.014	0.077	-0.142
-584.865	209.733	-0.132	0.207
-583.850	-162.750	0.069	0.003
-582.836	294.188	0.067	0.122
-581.821	-94.530	-0.239	-0.065
-580.806	351.061	0.110	0.218
-579.792	-54.973	0.296	0.134
-578.777	800.000	-0.024	0.093
-577.763	-56.794	-0.020	-0.009
-576.748	-200.000	0.001	-0.052
-575.733	-65.736	-0.219	0.088
-574.719	-35.318	-0.240	0.131
-573.704	800.000	0.090	-0.388
-572.690	-72.965	0.346	-0.127
-571.675	50.239	0.263	0.249
-570.661	146.884	-0.211	-0.284
-569.646	800.000	-0.054	-0.212
-568.631	352.093	-0.146	-0.289
-567.617	-20.878	-0.106	-0.065
-566.602	-51.509	0.170	-0.079
-565.588	-56.430	0.213	0.095
-564.573	-200.000	-0.021	0.133
-563.558	-200.000	0.025	-0.167
-562.544	800.000	-0.083	-0.270
-561.529	244.486	0.111	0.186
-560.515	212.134	-0.114	0.180
-559.500	64.680	-0.225	0.227
-558.485	-200.000	0.009	0.091
-557.471	-200.000	-0.019	-0.180
-556.456	-95.029	0.310	-0.084
-555.442	800.000	0.018	-0.050
-554.427	-200.000	0.034	-0.173
-553.412	-129.423	-0.262	0.036
-552.398	-200.000	0.033	-0.223
-551.383	136.570	0.203	0.265
-550.369	-10.231	0.284	-0.189
-549.354	339.081	-0.043	-0.084
-548.339	7.307	-0.093	-0.070
-547.325	51.606	-0.292	-0.278
-546.310	-70.331	0.113	0.043
-545.296	-123.205	-0.233	-0.037
-544.281	-200.000	0.038	-0.181
-543.266	391.344	0.109	-0.226
-542.252	611.547	-0.077	0.192
-541.237	-58.299	-0.286	0.124
-540.223	-7.699	-0.117	-0.079
-539.208	157.449	0.042	-0.059
-538.193	203.981	0.038	-0.058
-537.179	-147.441	-0.268	0.023
-536.164	-66.036	-0.150	0.060
-535.150	-133.681	-0.252	-0.031
-534.135	-123.359	0.336	0.054
-533.121	-148.388	-0.521	-0.043
-532.106	-20.509	0.120	0.074
-531.091	-104.689	-0.061	-0.014
-530.077	-126.518	-0.232	-0.035
-529.062	-79.151	0.157	-0.053
-528.048	600.605	0.083	0.207
-527.033	800.000	-0.082	-0.337
-526.018	631.037	-0.012	0.031
-525.004	800.000	0.044	-0.149
-523.989	-160.209	-0.202	-0.011
-522.975	800.000	-0.053	0.175
-521.960	-13.375	-0.192	0.124
-520.945	-162.216	0.190	-0.010
-519.931	-200.000	-0.040	-0.197
-518.916	70.159	0.245	-0.253
-517.902	132.771	-0.057	0.074
-516.887	-45.334	-0.153	0.076
-515.872	-200.000	-0.022	-0.138
-514.858	-93.558	-0.331	-0.091
-513.843	443.394	-0.045	-0.098
-512.829	486.725	-0.142	0.323
-511.814	800.000	-0.038	-0.163
-510.799	166.085	0.046	-0.065
-509.785	800.000	-0.063	-0.185
-508.770	800.000	0.178	-0.513
-507.756	78.014	-0.151	0.161
-506.741	1.738	0.228	-0.164
-505.726	145.951	-0.040	-0.054
-504.712	142.900	-0.162	-0.215
-503.697	-27.341	0.406	0.236
-502.683	90.314	-0.226	0.252
-501.668	41.132	-0.209	0.189
-500.653	60.263	0.062	-0.061
-499.639	672.476	0.146	-0.379
-498.624	160.549	-0.122	0.169
-497.610	68.657	0.103	-0.106
-496.595	204.197	0.189	0.293
-495.581	143.462	0.095	-0.127
-494.566	83.319	0.107	-0.116
-493.551	-147.455	-0.633	0.053
-492.537	-69.401	0.327	0.125
-491.522	-14.346	-0.146	0.094
-490.508	-42.286	-0.153	-0.078
-489.493	-54.873	-0.085	0.038
-488.478	-123.906	0.258	-0.041
-487.464	-89.624	0.002	0.001
-486.449	130.262	-0.231	0.295
-485.435	26.690	0.124	-0.103
-484.420	140.620	-0.295	0.389
-483.405	113.747	0.133	0.161
-482.391	-26.117	-0.237	-0.139
-481.376	452.703	0.064	0.142
-480.362	14.660	-0.210	0.164
-479.347	5.051	0.303	-0.223
-478.332	-43.248	0.253	0.128
-477.318	-69.033	-0.168	-0.064
-476.303	121.987	0.037	0.046
-475.289	-200.000	-0.006	0.092
-474.274	-74.693	0.389	0.140
-473.259	52.444	0.082	0.078
-472.245	800.000	0.026	0.083
-471.230	-200.000	-0.001	-0.037
-470.216	800.000	-0.027	-0.100
-469.201	-32.054	-0.263	0.147
-468.186	-104.760	0.163	0.037
-467.172	27.692	0.228	-0.191
-466.157	206.223	-0.037	0.057
-465.143	800.000	0.032	-0.097
-464.128	-63.769	-0.063	-0.026
-463.113	-140.481	-0.192	0.020
-462.099	160.184	-0.151	-0.210
-461.084	-12.988	0.138	-0.090
-460.070	300.797	0.105	0.193
-459.055	-31.301	0.131	0.074
-458.040	429.254	0.094	0.202
-457.026	178.692	0.181	0.264
-456.011	800.000	-0.114	0.384
-454.997	-157.378	-0.358	0.022
-453.982	8.617	0.153	-0.115
-452.968	431.267	0.138	0.297
-451.953	30.537	-0.186	0.159
-450.938	378.069	0.104	0.212
-449.924	31.192	0.240	0.206
-448.909	-191.246	0.040	-0.000
-447.895	-200.000	0.007	-0.310
-446.880	87.694	-0.022	-0.024
-445.865	-200.000	0.012	-0.252
-444.851	800.000	0.038	-0.147
-443.836	230.622	0.101	-0.164
-442.822	282.448	0.115	-0.206
-441.807	106.635	-0.195	-0.230
-440.792	117.454	0.185	-0.226
-439.778	553.385	0.148	0.355
-438.763	-1.606	0.119	0.084
-437.749	36.377	-0.141	-0.124
-436.734	-181.279	0.299	-0.006
-435.719	-200.000	0.009	0.079
-434.705	-200.000	-0.170	0.000
-433.690	104.771	-0.145	0.170
-432.676	265.459	-0.122	0.212
-431.661	-200.000	-0.028	0.147
-430.646	-200.000	-0.003	0.235
-429.632	486.950	-0.156	0.355
-428.617	-200.000	-0.030	0.342
-427.603	-101.257	-0.048	0.012
-426.588	-67.950	-0.127	-0.049
-425.573	328.929	0.025	0.048
-424.559	-200.000	0.018	0.227
-423.544	800.000	-0.073	-0.303
-422.530	-21.103	0.301	-0.184
-421.515	-93.659	0.066	-0.018
-420.500	-200.000	0.040	-0.209
-419.486	-200.000	-0.007	0.144
-418.471	-10.835	0.312	-0.205
-417.457	10.022	0.155	-0.117
-416.442	-200.000	-0.026	-0.165
-415.428	337.088	-0.083	-0.160
-414.413	173.759	-0.101	0.146
-413.398	118.511	-0.041	-0.050
-412.384	-200.000	0.015	0.345
-411.369	800.000	0.014	0.043
-410.355	674.711	0.102	0.263
-409.340	57.216	0.048	0.047
-408.325	27.733	0.157	0.132
-407.311	-53.664	-0.259	-0.118
-406.296	71.650	0.088	-0.091
-405.282	66.672	-0.130	0.132
-404.267	-52.906	-0.144	-0.066
-403.252	-137.402	-0.204	-0.023
-402.238	-125.604	-0.118	0.018
-401.223	800.000	0.057	0.235
-400.209	-24.886	-0.177	0.105
-399.194	-200.000	0.010	0.161
-398.179	800.000	-0.071	-0.224
-397.165	157.588	-0.141	-0.194
-396.150	-49.819	-0.076	-0.036
-395.136	-59.367	0.143	0.061
-394.121	13.059	-0.308	-0.237
-393.106	6.360	0.323	-0.239
-392.092	231.799	-0.128	0.209
-391.077	-200.000	0.045	-0.273
-390.063	-200.000	0.020	-0.213
-389.048	-26.044	0.226	-0.132
-388.033	-132.039	0.307	0.040
-387.019	-62.989	0.164	0.068
-386.004	-200.000	0.091	-0.657
-384.990	-200.000	-0.020	-0.230
-383.975	-110.261	-0.350	0.073
-382.960	-200.000	-0.048	-0.211
-381.946	-200.000	0.018	0.108
-380.931	-72.998	-0.160	0.058
-379.917	-200.000	0.021	0.161
-378.902	30.549	-0.020	0.017
-377.888	34.399	0.295	0.256
-376.873	-149.404	0.234	0.019
-375.858	-200.000	0.023	0.116
-374.844	800.000	0.050	-0.194
-373.829	-154.954	0.094	0.006
-372.815	-119.749	-0.089	-0.015
-371.800	-145.550	-0.329	-0.029
-370.785	-46.701	-0.126	-0.061
-369.771	63.034	0.316	0.315
-368.756	-114.543	-0.025	-0.005
-367.742	320.157	0.181	0.342
-366.727	-5.921	0.057	0.039
-365.712	-200.000	0.017	-0.095
-364.698	73.213	0.129	-0.134
-363.683	-46.063	-0.107	-0.052
-362.669	159.965	-0.182	0.252
-361.654	-102.495	0.266	-0.063
-360.639	-159.327	0.382	-0.021
-359.625	56.550	-0.058	0.056
-358.610	-138.502	0.206	0.023
-357.596	-121.351	-0.255	0.042
-356.581	60.430	-0.178	0.175
-355.566	-200.000	-0.021	0.310
-354.552	526.818	0.025	0.058
-353.537	270.325	-0.208	-0.363
-352.523	602.473	0.072	0.178
-351.508	800.000	-0.066	0.241
-350.493	-200.000	-0.003	0.207
-349.479	-200.000	-0.016	-0.142
-348.464	-92.769	0.242	0.067
-347.450	-13.313	-0.041	0.026
-346.435	800.000	0.091	-0.360
-345.420	-58.286	-0.135	0.058
-344.406	-119.348	-0.312	-0.054
-343.391	800.000	-0.078	-0.310
-342.377	-64.516	0.321	0.129
-341.362	-200.000	0.033	0.198
-340.348	431.161	0.192	0.413
-339.333	-200.000	-0.024	-0.219
-338.318	-126.457	0.147	0.022
-337.304	6.189	0.238	0.175
-336.289	800.000	0.122	-0.409
-335.275	-200.000	0.013	-0.077
-334.260	165.937	-0.051	-0.072
-333.245	485.739	0.002	-0.004
-332.231	118.370	0.092	-0.113
-331.216	-200.000	-0.013	-0.213
-330.202	-41.572	-0.194	-0.099
-329.187	-60.084	0.216	-0.091
-328.172	141.068	0.040	0.052
-327.158	-83.147	-0.369	0.118
-326.143	-76.130	-0.303	0.106
-325.129	25.458	0.236	0.195
-324.114	800.000	0.104	-0.448
-323.099	-200.000	-0.019	-0.277
-322.085	-51.821	0.494	0.228
-321.070	444.810	-0.057	-0.125
-320.056	90.683	0.381	0.424
-319.041	78.349	-0.175	0.185
-318.026	111.851	0.059	-0.071
-317.012	-84.454	0.122	-0.038
-315.997	-200.000	0.019	0.302
-314.983	-114.687	0.329	0.062
-313.968	-48.626	-0.210	0.100
-312.953	-117.229	0.219	-0.039
-311.939	-200.000	0.007	0.050
-310.924	134.958	0.143	-0.185
-309.910	-11.202	-0.173	0.113
-308.895	121.282	0.141	-0.174
-307.880	133.389	-0.045	-0.058
-306.866	163.581	0.136	0.190
-305.851	-200.000	0.013	0.187
-304.837	16.081	-0.167	-0.131
-303.822	114.008	0.050	0.060
-302.807	-51.026	-0.132	-0.061
-301.793	-200.000	-0.053	0.248
-300.778	542.631	-0.139	0.328
-299.764	800.000	0.126	0.428
-298.749	-95.765	0.107	-0.028
-297.735	130.674	-0.298	-0.378
-296.720	78.793	0.172	0.182
-295.705	41.272	0.165	-0.148
-294.691	168.455	0.188	-0.265
-293.676	-68.100	-0.404	0.156
-292.662	503.817	-0.072	-0.166
-291.647	-99.055	0.307	-0.077
-290.632	66.349	0.108	0.109
-289.618	-63.431	0.213	0.087
-288.603	428.729	0.089	0.190
-287.589	524.873	-0.124	-0.289
-286.574	71.598	-0.114	-0.117
-285.559	-129.996	-0.152	-0.021
-284.545	186.369	-0.074	-0.109
-283.530	800.000	-0.072	0.275
-282.516	-85.458	-0.422	0.130
-281.501	-200.000	-0.037	0.282
-280.486	-200.000	0.007	-0.035
-279.472	-200.000	0.034	-0.448
-278.457	-200.000	0.155	0.001
-277.443	800.000	0.070	0.218
-276.428	-188.006	-0.165	0.002
-275.413	-107.769	0.140	-0.030
-274.399	5.026	-0.232	-0.169
-273.384	591.558	0.045	0.110
-272.370	-200.000	0.002	0.329
-271.355	-3.437	0.195	0.134
-270.340	-152.077	0.245	-0.018
-269.326	83.640	0.039	0.042
-268.311	19.683	-0.390	0.311
-267.297	424.892	0.093	-0.198
-266.282	19.321	0.089	-0.071
-265.267	18.745	-0.166	0.132
-264.253	59.677	-0.200	-0.195
-263.238	191.215	0.106	-0.158
-262.224	57.139	0.091	0.088
-261.209	253.761	0.102	0.172
-260.195	79.997	-0.215	-0.228
-259.180	14.441	0.319	0.246
-258.165	-139.416	-0.042	-0.004
-257.151	55.283	0.152	0.146
-256.136	-13.622	0.077	-0.050
-255.122	-0.799	0.375	-0.263
-254.107	-27.419	0.150	-0.087
-253.092	-200.000	0.024	0.113
-252.078	82.046	0.033	-0.036
-251.063	800.000	0.054	-0.232
-250.049	-116.434	-0.373	0.068
-249.034	-4.878	-0.181	-0.123
-248.019	-151.824	0.114	-0.008
-247.005	-200.000	-0.008	0.120
-245.990	32.656	0.177	0.151
-244.976	55.115	0.322	0.308
-243.961	-79.734	0.280	-0.093
-242.946	373.686	0.223	-0.448
-241.932	-200.000	-0.030	-0.166
-240.917	-27.183	-0.222	0.128
-239.903	-120.679	-0.264	-0.044
-238.888	-200.000	-0.010	0.203
-237.873	659.198	0.080	0.205
-236.859	249.453	-0.120	0.202
-235.844	-72.457	-0.211	0.077
-234.830	260.634	-0.068	0.116
-233.815	534.172	0.092	0.216
-232.800	-200.000	0.012	-0.286
-231.786	800.000	0.028	0.097
-230.771	-200.000	-0.004	-0.220
-229.757	-38.026	0.143	-0.075
-228.742	-57.727	-0.150	0.065
-227.727	34.565	0.119	0.102
-226.713	-79.424	-0.144	-0.048
-225.698	-23.595	-0.518	0.307
-224.684	-102.922	0.291	-0.068
-223.669	87.368	0.174	-0.190
-222.655	-66.811	-0.249	-0.097
-221.640	-200.000	-0.256	-0.000
-220.625	-200.000	0.018	0.215
-219.611	-56.067	0.224	0.099
-218.596	253.018	-0.252	-0.424
-217.582	-200.000	-0.061	-0.397
-216.567	-111.974	-0.249	0.050
-215.552	20.717	0.384	0.307
-214.538	53.927	-0.070	0.067
-213.523	-112.692	-0.256	-0.050
-212.509	-200.000	-0.005	-0.127
-211.494	269.689	-0.096	-0.167
-210.479	47.889	-0.210	-0.194
-209.465	116.867	-0.126	-0.153
-208.450	54.329	-0.133	0.126
-207.436	28.164	0.178	0.149
-206.421	-200.000	0.014	0.376
-205.406	270.974	0.130	-0.226
-204.392	-59.148	-0.179	-0.076
-203.377	-110.246	0.317	0.065
-202.363	800.000	0.083	0.280
-201.348	121.161	0.071	-0.088
-200.333	359.479	0.121	-0.240
-199.319	40.068	-0.141	0.125
-198.304	90.502	-0.158	0.175
-197.290	220.904	0.135	0.213
-196.275	198.608	0.263	-0.398
-195.260	741.754	-0.087	0.231
-194.246	-87.914	0.304	-0.090
-193.231	-77.556	-0.239	0.082
-192.217	38.707	-0.228	0.201
-191.202	-0.810	-0.109	0.076
-190.187	-82.174	0.283	-0.091
-189.173	59.808	-0.153	-0.149
-188.158	-200.000	0.065	-0.359
-187.144	218.080	0.107	0.168
-186.129	-159.774	0.171	0.009
-185.114	374.664	0.027	-0.053
-184.100	-11.322	-0.175	-0.114
-183.085	-55.021	0.183	-0.081
-182.071	62.707	0.219	-0.216
-181.056	-7.152	0.307	0.206
-180.042	50.817	0.138	-0.129
-179.027	417.528	0.105	-0.221
-178.012	417.955	-0.097	-0.204
-176.998	-190.229	-0.276	0.003
-175.983	-42.866	0.095	-0.047
-174.969	-157.729	-0.351	-0.021
-173.954	-43.414	0.535	-0.267
-172.939	-34.208	0.139	-0.075
-171.925	21.162	0.219	-0.175
-170.910	607.776	0.152	-0.373
-169.896	800.000	-0.131	0.363
-168.881	94.633	-0.079	-0.088
-167.866	800.000	-0.047	-0.175
-166.852	366.568	0.164	-0.326
-165.837	-92.623	-0.240	-0.066
-164.823	166.379	-0.166	-0.232
-163.808	-168.455	-0.291	-0.011
-162.793	-7.072	-0.117	0.078
-161.779	455.253	-0.056	-0.123
-160.764	18.430	0.028	0.022
-159.750	-200.000	0.004	0.076
-158.735	-117.892	-0.280	-0.049
-157.720	-25.140	-0.395	0.231
-156.706	-2.754	-0.176	-0.122
-155.691	464.964	-0.061	0.134
-154.677	-200.000	-0.062	-0.274
-153.662	-200.000	-0.044	0.239
-152.647	-200.000	0.076	0.327
-151.633	498.745	0.083	0.189
-150.618	-200.000	0.014	-0.151
-149.604	338.472	-0.059	-0.113
-148.589	574.686	0.087	-0.209
-147.574	-165.447	0.366	-0.016
-146.560	-136.070	-0.195	-0.023
-145.545	-200.000	0.000	-0.179
-144.531	-200.000	-0.005	0.363
-143.516	276.862	0.151	-0.264
-142.502	69.573	-0.130	0.132
-141.487	387.429	0.035	0.071
-140.472	-200.000	-0.001	0.048
-139.458	-15.837	-0.208	-0.130
-138.443	230.686	-0.133	0.214
-137.429	-200.000	-0.050	0.283
-136.414	-52.144	0.162	-0.074
-135.399	213.832	0.047	0.073
-134.385	-200.000	0.013	0.100
-133.370	-33.326	0.288	-0.157
-132.356	512.088	0.077	0.178
-131.341	9.022	0.050	0.037
-130.326	-200.000	0.050	-0.270
-129.312	-200.000	-0.005	0.106
-128.297	-200.000	-0.070	0.432
-127.283	-200.000	-0.121	-0.000
-126.268	-106.831	0.161	-0.035
-125.253	-200.000	-0.015	-0.183
-124.239	-44.556	-0.308	-0.152
-123.224	-9.750	-0.240	-0.157
-122.210	-144.353	0.049	0.004
-121.195	15.642	0.075	-0.058
-120.180	141.435	0.099	0.129
-119.166	-200.000	0.005	0.085
-118.151	-200.000	-0.045	-0.245
-117.137	-200.000	0.060	-0.287
-116.122	800.000	0.148	0.535
-115.107	640.038	0.056	0.141
-114.093	-5.147	0.147	-0.100
-113.078	2.468	-0.076	-0.054
-112.064	-200.000	-0.038	-0.373
-111.049	-119.520	0.071	-0.012
-110.034	-47.222	0.137	0.065
-109.020	-200.000	0.008	0.146
-108.005	-69.878	0.193	0.072
-106.991	-61.273	-0.019	0.008
-105.976	-14.971	0.022	-0.014
-104.962	-119.860	0.124	-0.021
-103.947	192.205	0.222	-0.329
-102.932	794.008	0.119	0.321
-101.918	313.938	0.155	0.286
-100.903	-80.938	0.407	-0.133
-99.889	-21.490	0.275	-0.165
-98.874	-200.000	-0.009	-0.372
-97.859	-200.000	-0.028	0.172
-96.845	96.642	0.199	-0.224
-95.830	-70.750	0.391	0.145
-94.816	800.000	-0.025	0.096
-93.801	565.685	0.061	0.147
-92.786	-200.000	-0.015	0.223
-91.772	91.855	0.029	0.032
-90.757	5.965	0.241	0.175
-89.743	191.836	0.112	-0.167
-88.728	63.767	-0.226	0.223
-87.713	800.000	-0.115	-0.313
-86.699	-200.000	-0.002	0.296
-85.684	58.162	0.097	0.094
-84.670	329.860	0.174	0.328
-83.655	247.506	-0.059	0.098
-82.640	-200.000	0.010	-0.166
-81.626	340.988	-0.117	0.225
-80.611	-128.623	-0.237	-0.033
-79.597	169.544	0.088	-0.123
-78.582	121.612	0.128	-0.157
-77.567	13.264	0.123	0.094
-76.553	81.974	0.106	-0.113
-75.538	122.221	0.065	-0.080
-74.524	-71.149	-0.143	0.053
-73.509	-75.924	-0.205	-0.071
-72.494	50.398	-0.077	0.071
-71.480	94.700	0.205	0.229
-70.465	800.000	-0.044	0.173
-69.451	38.498	-0.044	-0.038
-68.436	-200.000	-0.038	0.211
-67.422	103.348	-0.125	-0.144
-66.407	273.150	-0.163	0.282
-65.392	300.567	0.057	0.103
-64.378	68.642	-0.165	-0.166
-63.363	-147.177	-0.073	0.006
-62.349	-154.811	-0.351	0.023
-61.334	-15.860	-1.084	-0.678
-60.319	96.341	0.363	0.408
-59.305	-200.000	-0.122	-1.030
-58.290	326.300	0.646	1.215
-57.276	800.000	0.554	1.661
-56.261	-200.000	102.649	592.634
-55.246	557.819	1431.006	3387.594
-54.232	187.173	2626.697	3844.356
-53.217	109.838	2279.717	2683.766
-52.203	40.010	1896.564	1672.419
-51.188	33.893	1685.970	1440.456
-50.173	31.398	1642.023	1384.397
-49.159	49.325	1692.994	1562.640
-48.144	50.656	1708.818	1587.189
-47.130	33.646	1667.632	1422.710
-46.115	30.940	1653.346	1390.312
-45.100	30.681	1648.722	1384.437
-44.086	30.761	1645.795	1382.521
-43.071	30.610	1643.363	1379.301
-42.057	30.707	1640.623	1377.662
-41.042	30.686	1639.117	1376.195
-40.027	30.719	1636.754	1374.400
-39.013	30.660	1635.215	1372.618
-37.998	30.553	1634.315	1371.016
-36.984	30.677	1632.708	1370.526
-35.969	30.823	1630.690	1369.851
-34.954	30.879	1629.215	1368.969
-33.940	30.784	1628.018	1367.210
-32.925	30.735	1626.370	1365.416
-31.911	30.859	1624.131	1364.389
-30.896	30.831	1622.241	1362.542
-29.881	30.904	1620.845	1361.852
-28.867	30.802	1619.343	1359.788
-27.852	30.772	1617.987	1358.375
-26.838	30.823	1616.357	1357.330
-25.823	30.853	1615.102	1356.441
-24.809	30.898	1613.118	1355.041
-23.794	30.799	1612.216	1353.511
-22.779	30.816	1610.898	1352.475
-21.765	30.857	1609.291	1351.371
-20.750	30.776	1607.367	1349.118
-19.736	30.857	1605.866	1348.391
-18.721	30.947	1604.551	1347.879
-17.706	30.800	1602.963	1345.433
-16.692	30.749	1601.734	1343.980
-15.677	30.753	1600.185	1342.652
-14.663	30.862	1598.924	1342.326
-13.648	30.799	1597.509	1340.635
-12.633	30.780	1596.352	1339.475
-11.619	30.840	1594.566	1338.354
-10.604	30.765	1593.458	1336.831
-9.590	30.802	1592.022	1335.837
-8.575	30.849	1590.710	1335.019
-7.560	30.869	1589.260	1333.898
-6.546	30.796	1588.490	1332.672
-5.531	30.763	1587.445	1331.508
-4.517	30.935	1585.617	1331.152
-3.502	30.838	1585.162	1330.020
-2.487	30.824	1583.429	1328.417
-1.473	30.545	1571.357	1316.261
-0.458	27.665	1552.130	1279.922
0.556	23.514	1552.928	1248.773
1.571	21.262	1576.774	1251.723
2.586	20.779	1589.494	1258.221
3.600	18.546	1536.196	1200.309
4.615	11.555	1429.848	1071.409
5.629	5.650	1369.653	989.025
6.644	4.886	1362.126	978.702
7.659	4.699	1360.819	976.499
8.673	4.725	1359.893	975.914
9.688	4.731	1358.278	974.705
10.702	4.681	1354.907	971.889
11.717	7.450	1360.141	992.904
12.731	14.270	1372.675	1044.903
13.746	18.768	1379.755	1078.510
14.761	18.728	1378.544	1077.221
15.775	17.791	1375.500	1068.879
16.790	16.764	1373.058	1060.460
17.804	16.032	1370.728	1053.987
18.819	15.614	1369.773	1050.547
19.834	15.346	1368.305	1047.657
20.848	15.179	1366.537	1045.170
21.863	14.809	1365.994	1042.355
22.877	14.761	1364.476	1040.803
23.892	14.718	1363.525	1039.720
24.907	14.650	1362.956	1038.769
25.921	14.666	1362.299	1038.278
26.936	14.770	1360.908	1037.771
27.950	14.828	1360.175	1037.480
28.965	14.766	1359.117	1036.196
29.980	14.937	1357.847	1036.198
30.994	15.018	1356.777	1035.785
32.009	15.046	1355.482	1034.883
33.023	14.956	1354.455	1033.451
34.038	14.900	1353.203	1032.060
35.053	14.765	1352.131	1030.317
36.067	14.797	1351.231	1029.735
37.082	14.897	1350.082	1029.384
38.096	14.859	1349.217	1028.401
39.111	14.909	1348.537	1028.101
40.126	14.890	1347.109	1026.800
41.140	14.577	1346.908	1024.637
42.155	14.637	1345.862	1024.117
43.169	14.630	1346.061	1024.135
44.184	14.544	1345.479	1023.074
45.199	14.556	1345.326	1022.943
46.213	14.712	1344.564	1023.226
47.228	14.821	1343.130	1022.711
48.242	14.780	1342.577	1021.953
49.257	14.735	1341.166	1020.512
50.271	14.773	1339.421	1019.323
51.286	14.730	1338.569	1018.323
52.301	14.806	1337.078	1017.561
53.315	14.727	1335.732	1015.971
54.330	14.666	1335.076	1015.007
55.344	14.555	1334.282	1013.640
56.359	14.717	1332.670	1013.308
57.374	14.682	1331.552	1012.155
58.388	14.573	1330.793	1010.828
59.403	14.502	1331.279	1010.678
60.417	14.549	1329.994	1009.902
61.432	14.575	1328.756	1009.028
62.447	14.393	1328.256	1007.455
63.461	14.522	1326.590	1006.882
64.476	14.499	1326.031	1006.232
65.490	14.405	1324.591	1004.485
66.505	14.434	1323.301	1003.589
67.520	14.444	1321.795	1002.422
68.534	14.455	1320.950	1001.756
69.549	14.527	1319.730	1001.178
70.563	14.538	1318.800	1000.444
71.578	14.493	1317.034	998.746
72.593	14.319	1316.979	997.576
73.607	14.292	1316.022	996.601
74.622	14.467	1314.940	996.742
75.636	14.393	1314.339	995.755
76.651	14.337	1314.244	995.260
77.666	14.406	1313.364	994.919
78.680	14.351	1313.231	994.401
79.695	14.532	1311.964	994.435
80.709	14.476	1311.544	993.690
81.724	14.540	1310.649	993.307
82.739	14.630	1309.989	993.256
83.753	14.683	1309.156	992.851
84.768	14.801	1307.750	992.396
85.782	14.917	1306.940	992.386
86.797	14.837	1305.604	990.808
87.812	14.781	1304.481	989.536
88.826	14.833	1303.166	988.756
89.841	14.826	1302.174	987.878
90.855	14.830	1301.738	987.483
91.870	14.864	1300.690	986.802
92.884	14.805	1299.941	985.796
93.899	14.918	1299.109	985.744
94.914	14.893	1298.694	985.193
95.928	14.906	1297.246	984.087
96.943	14.869	1296.521	983.233
97.957	14.849	1295.309	982.106
98.972	14.798	1294.444	981.063
99.987	14.842	1293.412	980.456
101.001	14.864	1292.481	979.789
102.016	14.790	1291.296	978.372
103.030	14.806	1290.799	978.001
104.045	14.896	1289.582	977.523
105.060	14.755	1288.502	975.794
106.074	14.589	1286.983	973.589
107.089	14.485	1285.572	971.829
108.103	14.469	1284.664	970.963
109.118	14.544	1283.197	970.202
110.133	14.631	1281.546	969.374
111.147	14.599	1280.043	967.968
112.162	14.627	1279.764	967.831
113.176	14.602	1278.764	966.846
114.191	14.599	1277.560	965.831
115.206	14.667	1276.202	965.114
116.220	14.664	1274.789	963.940
117.235	14.652	1274.043	963.225
118.249	14.588	1272.770	961.809
119.264	14.521	1271.777	960.587
120.279	14.486	1271.300	959.938
121.293	14.537	1269.718	958.952
122.308	14.497	1268.795	957.938
123.322	14.448	1267.927	956.918
124.337	14.492	1266.647	956.120
125.352	14.471	1265.756	955.241
126.366	14.545	1264.092	954.329
127.381	14.549	1263.618	953.908
128.395	14.613	1262.203	953.122
129.410	14.535	1261.771	952.262
130.424	14.569	1260.543	951.447
131.439	14.578	1259.411	950.562
132.454	14.652	1258.995	950.582
133.468	14.679	1257.899	949.828
134.483	14.775	1257.220	949.777
135.497	14.692	1256.236	948.477
136.512	14.700	1254.973	947.484
137.527	14.701	1253.634	946.392
138.541	14.789	1251.887	945.492
139.556	14.805	1250.698	944.598
140.570	14.664	1250.560	943.613
141.585	14.796	1249.156	943.218
142.600	14.893	1248.033	942.834
143.614	14.947	1246.913	942.209
144.629	14.937	1245.821	941.241
145.643	15.011	1244.712	940.737
146.658	14.890	1243.304	938.912
147.673	14.845	1242.002	937.593
148.687	14.678	1241.211	935.977
149.702	14.723	1239.562	934.899
150.716	14.864	1238.116	934.518
151.731	14.779	1236.821	932.982
152.746	14.725	1236.676	932.488
153.760	14.828	1235.218	931.878
154.775	14.860	1234.290	931.273
155.789	14.910	1233.136	930.599
156.804	14.900	1232.343	929.864
157.819	15.008	1231.325	929.615
158.833	15.088	1230.313	929.210
159.848	15.163	1229.260	928.749
160.862	14.958	1228.354	926.847
161.877	14.976	1227.077	925.901
162.892	14.866	1225.933	924.347
163.906	14.790	1225.221	923.313
164.921	14.927	1223.989	923.058
165.935	14.975	1223.206	922.650
166.950	14.874	1222.527	921.497
167.964	14.950	1221.665	921.185
168.979	14.954	1220.818	920.489
169.994	14.961	1220.125	919.921
171.008	14.878	1219.869	919.191
172.023	15.006	1218.775	918.988
173.037	15.097	1217.949	918.785
174.052	15.065	1217.325	918.053
175.067	14.925	1216.050	916.248
176.081	14.937	1214.709	915.222
177.096	14.870	1214.565	914.664
178.110	14.916	1213.427	913.978
179.125	15.020	1211.776	913.221
180.140	14.976	1210.618	912.026
181.154	14.994	1209.263	911.024
182.169	15.107	1208.014	910.618
183.183	15.197	1207.003	910.264
184.198	15.169	1206.007	909.279
185.213	15.283	1204.678	908.818
186.227	15.169	1204.500	907.982
187.242	15.170	1203.331	907.025
188.256	15.323	1201.845	906.654
189.271	15.226	1200.904	905.338
190.286	15.141	1200.175	904.251
191.300	14.929	1199.151	902.255
192.315	14.967	1198.439	901.844
193.329	14.924	1197.899	901.127
194.344	15.015	1197.575	901.293
195.359	15.220	1196.417	901.446
196.373	15.264	1195.886	901.200
197.388	15.375	1195.659	901.550
198.402	15.357	1195.520	901.266
199.417	15.481	1194.544	901.117
200.432	15.440	1193.917	900.346
201.446	15.601	1193.059	900.482
202.461	15.571	1192.507	899.825
203.475	15.573	1191.192	898.764
204.490	15.389	1190.255	896.992
205.504	15.420	1188.534	895.779
206.519	15.456	1187.348	895.000
207.534	15.447	1186.897	894.535
208.548	15.463	1185.427	893.431
209.563	15.578	1184.317	893.126
210.577	15.434	1183.916	891.982
211.592	15.589	1182.725	891.829
212.607	15.584	1182.402	891.479
213.621	15.567	1181.561	890.676
214.636	15.506	1180.891	889.769
215.650	15.609	1179.621	889.277
216.665	15.508	1178.865	888.093
217.680	15.699	1177.902	888.301
218.694	15.744	1176.626	887.499
219.709	15.621	1176.608	886.757
220.723	15.638	1175.431	885.881
221.738	15.698	1174.597	885.487
222.753	15.723	1173.977	885.076
223.767	15.750	1173.504	884.780
224.782	15.922	1172.340	884.729
225.796	15.860	1171.886	883.982
226.811	15.832	1171.234	883.265
227.826	15.749	1170.650	882.311
228.840	15.815	1170.034	882.117
229.855	15.787	1169.202	881.263
230.869	15.728	1168.650	880.462
231.884	15.714	1167.644	879.550
232.899	15.637	1166.745	878.395
233.913	15.755	1165.999	878.370
234.928	15.659	1165.356	877.307
235.942	15.574	1164.801	876.366
236.957	15.616	1163.612	875.616
237.972	15.672	1163.279	875.581
238.986	15.704	1162.476	875.066
240.001	15.698	1162.116	874.682
241.015	15.694	1160.952	873.712
242.030	15.735	1160.327	873.376
243.045	15.803	1159.530	873.051
244.059	15.858	1158.783	872.694
245.074	16.002	1157.887	872.688
246.088	15.978	1157.094	871.891
247.103	15.930	1156.720	871.282
248.117	16.038	1155.657	870.967
249.132	16.059	1155.111	870.584
250.147	16.255	1154.355	870.947
251.161	16.360	1153.660	870.890
252.176	16.302	1153.103	870.095
253.190	16.305	1152.281	869.409
254.205	16.371	1151.817	869.323
255.220	16.401	1151.342	869.044
256.234	16.338	1150.666	868.129
257.249	16.449	1149.978	868.105
258.263	16.457	1148.882	867.244
259.278	16.278	1148.624	866.051
260.293	16.383	1148.393	866.342
261.307	16.454	1147.934	866.281
262.322	16.425	1147.085	865.414
263.336	16.650	1145.824	865.539
264.351	16.465	1145.858	864.543
265.366	16.525	1144.632	863.844
266.380	16.541	1144.014	863.387
267.395	16.503	1143.108	862.430
268.409	16.413	1142.295	861.281
269.424	16.489	1141.677	861.126
270.439	16.520	1141.087	860.763
271.453	16.482	1140.475	860.034
272.468	16.433	1139.599	859.045
273.482	16.480	1138.406	858.309
274.497	16.378	1138.344	857.670
275.512	16.506	1137.806	857.838
276.526	16.420	1136.782	856.556
277.541	16.594	1135.765	856.593
278.555	16.544	1135.420	856.004
279.570	16.613	1134.508	855.591
280.585	16.738	1133.595	855.460
281.599	16.804	1132.688	855.028
282.614	16.560	1131.624	852.921
283.628	16.636	1130.216	852.168
284.643	16.657	1129.857	851.926
285.657	16.603	1129.165	851.059
286.672	16.671	1127.852	850.335
287.687	16.758	1127.073	850.110
288.701	16.630	1126.570	849.014
289.716	16.699	1125.486	848.465
290.730	16.809	1125.194	848.720
291.745	16.758	1124.153	847.608
292.760	16.758	1123.987	847.407
293.774	16.781	1123.361	846.976
294.789	16.903	1122.734	847.038
295.803	16.808	1122.160	846.056
296.818	16.690	1121.462	844.865
297.833	16.806	1120.348	844.528
298.847	16.862	1119.710	844.251
299.862	16.897	1118.862	843.711
300.876	16.902	1117.850	842.897
301.891	16.983	1117.504	842.966
302.906	16.940	1116.684	842.057
303.920	17.024	1116.158	842.003
304.935	16.976	1115.957	841.540
305.949	17.036	1115.195	841.188
306.964	17.180	1114.513	841.314
307.979	17.119	1113.314	840.031
308.993	17.020	1112.793	839.075
310.008	17.080	1112.452	839.037
311.022	17.122	1111.364	838.351
312.037	17.136	1110.540	837.727
313.052	17.122	1109.389	836.714
314.066	17.008	1108.527	835.427
315.081	17.022	1107.609	834.730
316.095	16.941	1106.675	833.555
317.110	17.053	1106.557	833.946
318.125	16.963	1105.772	832.835
319.139	16.891	1104.945	831.788
320.154	16.956	1104.547	831.733
321.168	17.105	1103.493	831.596
322.183	17.020	1103.306	830.962
323.197	16.990	1102.792	830.356
324.212	17.005	1102.121	829.851
325.227	17.204	1101.249	830.093
326.241	17.193	1100.656	829.521
327.256	17.174	1099.606	828.564
328.270	17.184	1098.958	828.048
329.285	17.118	1097.922	826.873
330.300	17.097	1097.180	826.138
331.314	17.038	1096.599	825.342
332.329	17.031	1095.379	824.319
333.343	17.253	1094.461	824.630
334.358	17.410	1093.186	824.359
335.373	17.339	1093.113	823.888
336.387	17.335	1092.595	823.402
337.402	17.365	1091.590	822.718
338.416	17.358	1091.246	822.351
339.431	17.344	1090.420	821.591
340.446	17.442	1089.857	821.567
341.460	17.554	1089.391	821.684
342.475	17.578	1088.380	820.961
343.489	17.664	1087.220	820.430
344.504	17.666	1086.254	819.637
345.519	17.664	1085.297	818.831
346.533	17.767	1084.457	818.620
347.548	17.774	1083.786	818.075
348.562	17.740	1083.310	817.479
349.577	17.603	1082.834	816.392
350.592	17.568	1081.679	815.281
351.606	17.574	1080.899	814.652
352.621	17.497	1080.510	813.918
353.635	17.474	1079.760	813.172
354.650	17.444	1079.307	812.616
355.665	17.466	1078.384	811.951
356.679	17.590	1077.749	811.992
357.694	17.530	1077.245	811.257
358.708	17.716	1076.701	811.660
359.723	17.720	1076.044	811.114
360.738	17.742	1075.274	810.566
361.752	17.764	1074.439	809.970
362.767	17.672	1074.140	809.232
363.781	17.754	1073.575	809.124
364.796	17.806	1072.744	808.672
365.810	17.889	1072.636	808.913
366.825	18.015	1071.590	808.652
367.840	17.883	1071.537	807.914
368.854	18.045	1070.731	808.003
369.869	18.182	1069.400	807.570
370.883	18.089	1068.863	806.657
371.898	17.987	1067.992	805.446
372.913	18.022	1067.730	805.342
373.927	17.913	1067.331	804.455
374.942	18.098	1066.455	804.597
375.956	18.117	1065.835	804.145
376.971	18.168	1065.382	803.975
377.986	18.130	1065.437	803.766
379.000	18.102	1064.696	803.003
380.015	18.333	1063.531	803.138
381.029	18.274	1063.290	802.609
382.044	18.233	1062.560	801.793
383.059	18.273	1062.095	801.561
384.073	18.260	1060.968	800.575
385.088	18.190	1060.353	799.717
386.102	18.240	1058.890	798.774
387.117	18.217	1058.481	798.285
388.132	18.147	1057.175	796.907
389.146	18.027	1056.814	796.005
390.161	18.065	1055.806	795.352
391.175	18.185	1054.835	795.110
392.190	18.275	1054.409	795.136
393.205	18.307	1053.694	794.671
394.219	18.384	1052.809	794.292
395.234	18.243	1052.248	793.145
396.248	18.192	1051.058	791.942
397.263	18.245	1050.048	791.356
398.278	18.212	1049.536	790.750
399.292	18.163	1048.725	789.838
400.307	18.113	1047.998	788.993
401.321	18.100	1047.731	788.661
402.336	18.160	1046.797	788.164
403.350	18.096	1046.090	787.270
404.365	18.088	1045.632	786.817
405.380	18.156	1044.914	786.521
406.394	18.290	1043.872	786.281
407.409	18.480	1043.095	786.499
408.423	18.564	1042.394	786.287
409.438	18.523	1041.768	785.555
410.453	18.526	1041.119	785.012
411.467	18.617	1040.452	784.855
412.482	18.524	1039.902	783.944
413.496	18.676	1039.127	783.985
414.511	18.548	1038.889	783.151
415.526	18.623	1038.517	783.145
416.540	18.869	1037.593	783.502
417.555	18.839	1037.155	782.964
418.569	18.691	1036.597	781.802
419.584	18.626	1036.604	781.439
420.599	18.703	1035.622	780.980
421.613	151.049	1402.197	1797.151
422.628	137.960	1455.600	1797.234
