DTS Sentinel unit serial number:	SN413079Multiplexer serial number:	ORYXHardware model number:	OX4-SRSoftware version number:	ORYX F/W v4.00 Oryx Data Collector v3.7.2.0data status	okinstallation	princeton_trtdifferential loss correction	single-endedforward channel	channel 2reverse channel	N/Adate	2019/09/14time	01:31:35forward acquisition time	60.00reverse acquisition time	0.00gamma	496.2192k internal	0.2337k external	0.2337temperature offset calibration	1.0125default loss term (dB/km)	0.3790temperature slope calibration	1.0000multiplexer offset coefficient	1.0000multiplexer slope coefficient	1.0000fibre end	0.00T internal ref (°C)	26.44T ext. ref 1 (°C)	3.18T ext. ref 2 (°C)	21.49length (m)	temperature (°C)	Stokes	anti-Stokes-747.200	-200.000	0.023	0.144
-746.185	109.296	-0.097	0.116
-745.171	-200.000	0.054	0.408
-744.156	-200.000	-0.011	0.062
-743.142	-88.740	0.238	0.071
-742.127	43.920	0.017	0.016
-741.112	-200.000	-0.004	-0.222
-740.098	-200.000	0.013	0.371
-739.083	278.845	-0.126	-0.226
-738.069	260.792	-0.218	0.379
-737.054	469.677	-0.083	-0.188
-736.039	800.000	-0.047	-0.137
-735.025	90.044	0.239	0.268
-734.010	-19.752	-0.142	-0.088
-732.996	69.542	0.046	-0.048
-731.981	800.000	0.024	0.094
-730.966	116.235	-0.108	-0.133
-729.952	158.745	0.182	0.253
-728.937	-107.887	-0.292	-0.064
-727.923	-200.000	0.031	0.239
-726.908	-79.450	0.112	-0.038
-725.894	694.371	-0.113	-0.297
-724.879	-200.000	-0.009	-0.048
-723.864	130.149	-0.251	-0.322
-722.850	88.648	0.106	-0.119
-721.835	-115.868	-0.352	-0.066
-720.821	800.000	0.101	-0.414
-719.806	-108.081	-0.118	0.026
-718.791	157.092	-0.144	-0.199
-717.777	15.045	0.107	-0.084
-716.762	800.000	0.021	0.076
-715.748	147.650	-0.225	-0.305
-714.733	-87.653	-0.194	0.059
-713.718	43.280	-0.117	-0.107
-712.704	-200.000	0.033	-0.259
-711.689	12.004	0.306	0.236
-710.675	-53.168	0.107	0.049
-709.660	-186.802	-0.178	-0.003
-708.645	-93.454	0.174	0.048
-707.631	-9.949	-0.141	0.094
-706.616	294.891	0.160	-0.293
-705.602	145.545	-0.121	-0.162
-704.587	221.376	-0.099	-0.160
-703.572	-200.000	0.007	0.147
-702.558	593.114	-0.094	0.233
-701.543	-34.516	-0.145	-0.079
-700.529	-38.043	0.046	0.024
-699.514	-180.345	-0.214	0.004
-698.499	46.435	0.334	-0.311
-697.485	289.666	0.024	0.043
-696.470	738.479	-0.199	-0.536
-695.456	95.183	-0.170	0.194
-694.441	243.647	-0.249	0.419
-693.426	-55.773	-0.219	-0.098
-692.412	-182.570	-0.047	-0.001
-691.397	462.700	-0.037	-0.083
-690.383	481.626	0.126	-0.285
-689.368	-200.000	0.041	0.218
-688.354	-70.481	0.011	-0.004
-687.339	133.563	-0.172	0.223
-686.324	-76.825	-0.215	-0.075
-685.310	800.000	-0.014	-0.059
-684.295	-200.000	-0.001	-0.243
-683.281	-27.063	-0.160	-0.093
-682.266	512.292	0.140	-0.326
-681.251	-90.040	-0.357	-0.104
-680.237	368.112	-0.222	0.449
-679.222	226.088	0.049	0.079
-678.208	447.238	0.084	0.186
-677.193	-200.000	0.005	0.077
-676.178	-200.000	-0.025	-0.205
-675.164	800.000	-0.069	-0.282
-674.149	-200.000	0.047	-0.297
-673.135	201.002	0.067	-0.102
-672.120	36.734	-0.173	-0.153
-671.105	-200.000	0.024	0.136
-670.091	-200.000	-0.033	0.462
-669.076	-160.933	-0.293	0.015
-668.062	800.000	-0.044	-0.140
-667.047	-200.000	0.028	-0.218
-666.032	33.134	-0.101	0.088
-665.018	-53.799	-0.200	0.091
-664.003	-66.095	-0.238	0.095
-662.989	99.604	0.203	-0.235
-661.974	220.558	0.024	-0.039
-660.959	-145.866	-0.329	-0.029
-659.945	26.862	-0.258	-0.216
-658.930	-200.000	0.021	0.145
-657.916	431.208	0.093	-0.202
-656.901	800.000	-0.095	-0.288
-655.886	800.000	0.049	0.153
-654.872	800.000	0.099	0.276
-653.857	-37.358	-0.388	-0.207
-652.843	-200.000	0.041	-0.218
-651.828	132.521	-0.189	-0.244
-650.814	-96.813	-0.085	-0.022
-649.799	-111.583	0.008	-0.002
-648.784	-200.000	0.017	-0.144
-647.770	-69.193	0.270	-0.104
-646.755	-200.000	0.023	0.290
-645.741	212.241	-0.073	0.115
-644.726	-200.000	0.016	-0.234
-643.711	-85.196	-0.140	-0.044
-642.697	597.039	-0.105	-0.261
-641.682	16.715	0.222	-0.176
-640.668	-113.617	0.300	0.059
-639.653	-200.000	-0.009	0.290
-638.638	8.285	0.158	0.118
-637.624	-200.000	0.028	-0.194
-636.609	-86.043	0.412	-0.127
-635.595	2.806	0.188	-0.136
-634.580	341.434	0.112	-0.218
-633.565	-29.693	0.198	-0.113
-632.551	-200.000	-0.024	0.194
-631.536	280.276	-0.056	0.100
-630.522	800.000	-0.041	-0.150
-629.507	86.141	-0.177	-0.194
-628.492	57.218	0.215	0.210
-627.478	-118.467	0.313	0.055
-626.463	413.829	0.097	-0.207
-625.449	-88.057	0.279	-0.084
-624.434	-108.495	-0.170	-0.037
-623.419	296.844	0.074	-0.135
-622.405	154.548	0.156	-0.214
-621.390	21.310	-0.154	0.125
-620.376	800.000	0.064	-0.204
-619.361	507.101	-0.080	0.184
-618.346	142.415	-0.107	0.142
-617.332	-181.327	0.202	-0.004
-616.317	-96.271	-0.238	0.063
-615.303	-130.426	-0.154	-0.021
-614.288	-200.000	-0.010	0.053
-613.273	-200.000	0.021	-0.110
-612.259	-9.416	-0.122	-0.081
-611.244	30.077	0.150	-0.127
-610.230	-200.000	-0.021	-0.226
-609.215	99.464	0.064	-0.073
-608.201	97.788	-0.094	0.108
-607.186	-200.000	-0.052	-0.244
-606.171	-74.206	0.181	0.065
-605.157	800.000	-0.072	-0.238
-604.142	-70.206	-0.359	0.136
-603.128	178.901	-0.133	0.194
-602.113	-200.000	-0.008	0.100
-601.098	361.074	0.063	-0.127
-600.084	425.820	0.130	0.280
-599.069	131.076	-0.052	0.067
-598.055	-173.528	-0.257	0.008
-597.040	759.600	0.080	-0.216
-596.025	-200.000	-0.021	0.318
-595.011	-152.244	-0.326	-0.024
-593.996	-200.000	-0.033	-0.234
-592.982	800.000	0.067	0.190
-591.967	218.558	-0.172	0.274
-590.952	84.236	0.353	0.385
-589.938	19.206	-0.089	0.071
-588.923	-46.240	-0.239	-0.117
-587.909	-21.992	0.292	0.177
-586.894	-200.000	0.022	0.199
-585.879	-47.414	-0.100	0.049
-584.865	-200.000	-0.037	-0.321
-583.850	-6.564	0.464	-0.315
-582.836	800.000	-0.118	-0.436
-581.821	-132.283	-0.054	0.007
-580.806	42.932	-0.010	0.010
-579.792	200.012	0.154	0.236
-578.777	-200.000	0.006	0.096
-577.763	-13.361	0.154	-0.100
-576.748	-105.962	0.156	0.035
-575.733	-118.824	0.359	0.063
-574.719	-200.000	-0.050	-0.251
-573.704	775.714	0.087	-0.238
-572.690	-200.000	-0.001	-0.281
-571.675	-35.867	0.386	-0.208
-570.661	-200.000	0.010	-0.072
-569.646	-131.269	-0.150	0.020
-568.631	-200.000	0.012	0.195
-567.617	-13.888	-0.229	-0.148
-566.602	800.000	0.081	-0.287
-565.588	125.276	0.275	-0.346
-564.573	-88.898	0.134	-0.040
-563.558	50.415	-0.160	0.150
-562.544	4.778	0.276	-0.202
-561.529	-29.803	0.083	0.047
-560.515	-200.000	-0.016	0.136
-559.500	-35.395	-0.468	-0.253
-558.485	-200.000	-0.035	0.213
-557.471	58.759	-0.138	-0.135
-556.456	-200.000	-0.033	-0.186
-555.442	-24.007	-0.239	0.142
-554.427	800.000	-0.021	0.079
-553.412	-127.715	0.436	0.063
-552.398	-200.000	-0.070	-0.399
-551.383	10.071	-0.077	-0.058
-550.369	-110.339	-0.152	-0.032
-549.354	800.000	0.031	0.126
-548.339	122.619	-0.028	-0.035
-547.325	-44.125	-0.133	0.066
-546.310	-177.705	-0.276	-0.007
-545.296	301.103	-0.070	-0.129
-544.281	-200.000	-0.027	0.288
-543.266	222.666	-0.162	-0.261
-542.252	-32.321	-0.203	0.113
-541.237	54.686	-0.125	-0.120
-540.223	21.616	-0.270	-0.219
-539.208	-192.159	-0.111	0.001
-538.193	-7.047	0.197	-0.133
-537.179	800.000	-0.102	-0.445
-536.164	800.000	-0.020	0.058
-535.150	800.000	-0.084	-0.285
-534.135	75.626	0.203	-0.214
-533.121	535.972	-0.120	0.283
-532.106	-50.481	0.279	0.131
-531.091	-48.678	0.159	-0.076
-530.077	14.575	-0.076	-0.059
-529.062	-76.281	0.162	-0.057
-528.048	-64.836	-0.233	0.094
-527.033	-200.000	-0.010	0.165
-526.018	-141.903	0.259	-0.026
-525.004	95.839	0.115	0.131
-523.989	-200.000	0.027	-0.184
-522.975	-79.192	0.209	-0.071
-521.960	-124.353	-0.214	-0.033
-520.945	800.000	-0.113	0.349
-519.931	-121.455	0.132	-0.022
-518.916	-6.901	0.107	-0.072
-517.902	161.545	-0.096	0.134
-516.887	38.545	-0.141	-0.125
-515.872	105.796	-0.070	-0.082
-514.858	-200.000	-0.024	-0.107
-513.843	800.000	0.141	-0.444
-512.829	-200.000	-0.019	-0.204
-511.814	76.241	-0.163	-0.171
-510.799	800.000	-0.086	-0.245
-509.785	-86.822	-0.235	-0.071
-508.770	800.000	-0.077	0.229
-507.756	110.107	-0.123	-0.147
-506.741	-33.901	-0.269	-0.147
-505.726	-110.503	0.218	0.045
-504.712	-55.867	-0.095	-0.042
-503.697	-99.707	-0.203	-0.051
-502.683	529.824	-0.112	0.262
-501.668	9.877	-0.130	0.098
-500.653	800.000	-0.028	0.091
-499.639	101.678	0.148	-0.171
-498.624	68.389	0.107	0.109
-497.610	-122.909	0.483	0.077
-496.595	-28.025	-0.169	-0.097
-495.581	-46.877	-0.384	-0.187
-494.566	195.572	0.109	-0.164
-493.551	606.757	0.103	0.256
-492.537	-200.000	0.010	0.061
-491.522	-22.501	0.063	-0.038
-490.508	-96.144	-0.166	-0.044
-489.493	-102.707	0.042	0.010
-488.478	272.678	-0.078	-0.137
-487.464	-161.882	-0.282	-0.014
-486.449	-28.758	-0.261	0.149
-485.435	-44.743	-0.192	-0.095
-484.420	16.629	0.122	0.096
-483.405	63.352	-0.175	0.174
-482.391	-200.000	0.008	0.051
-481.376	-105.140	0.092	-0.021
-480.362	259.340	-0.190	0.326
-479.347	-183.189	0.298	0.005
-478.332	36.999	-0.124	-0.109
-477.318	-200.000	0.018	-0.162
-476.303	-16.910	-0.132	0.083
-475.289	438.222	0.049	-0.106
-474.274	88.002	0.053	-0.058
-473.259	97.830	0.107	-0.122
-472.245	95.792	0.129	0.147
-471.230	-200.000	-0.006	0.106
-470.216	237.997	0.049	-0.081
-469.201	-119.516	0.197	0.034
-468.186	219.416	0.088	-0.139
-467.172	685.899	-0.105	0.272
-466.157	3.771	0.145	-0.105
-465.143	27.261	-0.102	-0.085
-464.128	84.483	0.206	0.224
-463.113	-119.508	-0.352	-0.061
-462.099	-158.926	0.481	0.027
-461.084	589.920	0.040	0.097
-460.070	6.014	-0.205	0.151
-459.055	-44.319	-0.172	0.086
-458.040	-200.000	0.064	0.375
-457.026	-91.273	-0.184	0.052
-456.011	-19.360	0.059	-0.036
-454.997	-77.699	0.050	-0.017
-453.982	182.565	-0.062	-0.091
-452.968	-138.066	-0.144	0.016
-451.953	432.184	0.185	-0.397
-450.938	-54.408	-0.300	0.135
-449.924	498.722	0.054	0.123
-448.909	-78.418	-0.103	-0.035
-447.895	174.360	-0.045	0.065
-446.880	800.000	0.083	0.361
-445.865	452.130	-0.103	0.226
-444.851	-71.617	0.336	0.125
-443.836	-125.964	0.461	-0.069
-442.822	-48.774	0.262	-0.125
-441.807	800.000	-0.052	-0.156
-440.792	-104.224	-0.149	0.034
-439.778	-200.000	-0.021	-0.160
-438.763	800.000	0.039	0.110
-437.749	80.016	-0.190	0.203
-436.734	-200.000	-0.082	0.376
-435.719	800.000	-0.068	-0.215
-434.705	800.000	-0.042	0.115
-433.690	150.204	-0.100	0.135
-432.676	-3.575	-0.341	0.235
-431.661	800.000	-0.101	0.436
-430.646	498.814	-0.054	0.123
-429.632	-200.000	-0.010	0.084
-428.617	-200.000	-0.026	0.217
-427.603	83.170	0.308	-0.332
-426.588	640.226	0.131	-0.331
-425.573	-144.855	-0.446	0.041
-424.559	-111.331	-0.150	-0.030
-423.544	-143.637	0.320	0.030
-422.530	685.368	-0.012	-0.031
-421.515	83.759	-0.130	-0.141
-420.500	-91.456	-0.069	-0.019
-419.486	-144.470	0.175	0.016
-418.471	426.456	-0.075	-0.160
-417.457	-200.000	-0.046	0.332
-416.442	404.054	-0.044	-0.092
-415.428	152.621	-0.142	-0.192
-414.413	-97.282	-0.376	-0.097
-413.398	-200.000	0.013	0.055
-412.384	-34.870	-0.228	0.123
-411.369	-2.384	0.237	0.164
-410.355	-20.431	-0.074	0.045
-409.340	-200.000	0.031	0.226
-408.325	-147.546	-0.184	-0.015
-407.311	-200.000	-0.009	-0.050
-406.296	-166.084	0.275	0.012
-405.282	56.125	-0.095	-0.091
-404.267	-11.293	0.287	-0.187
-403.252	209.088	-0.144	-0.223
-402.238	-84.414	-0.236	0.074
-401.223	-88.670	-0.087	-0.025
-400.209	507.636	-0.041	0.095
-399.194	54.119	-0.113	0.108
-398.179	263.640	0.064	0.111
-397.165	-16.484	-0.276	0.174
-396.150	800.000	0.097	-0.305
-395.136	-200.000	-0.010	-0.176
-394.121	-133.929	-0.236	0.029
-393.106	212.174	-0.161	0.251
-392.092	-152.159	-0.101	-0.007
-391.077	-42.115	-0.331	-0.168
-390.063	-200.000	0.036	0.339
-389.048	275.421	0.106	-0.187
-388.033	20.228	0.153	-0.122
-387.019	64.953	-0.068	0.068
-386.004	-200.000	0.007	-0.102
-384.990	-46.830	-0.177	0.086
-383.975	-34.140	-0.065	-0.035
-382.960	-96.451	0.206	-0.054
-381.946	111.006	0.227	0.270
-380.931	695.422	-0.033	-0.085
-379.917	29.702	0.068	0.057
-378.902	170.706	0.099	-0.140
-377.888	-200.000	-0.003	-0.209
-376.873	60.741	0.104	0.102
-375.858	583.249	-0.061	-0.149
-374.844	-69.421	-0.141	-0.053
-373.829	408.222	0.114	-0.238
-372.815	800.000	0.029	0.107
-371.800	-61.888	-0.211	-0.087
-370.785	-124.940	0.099	-0.015
-369.771	-167.020	0.092	0.004
-368.756	470.018	0.098	-0.217
-367.742	236.722	0.067	0.110
-366.727	800.000	-0.073	-0.258
-365.712	-119.962	-0.143	0.024
-364.698	-200.000	-0.009	0.127
-363.683	-200.000	0.003	-0.098
-362.669	57.331	-0.210	0.203
-361.654	79.373	0.107	-0.113
-360.639	-126.719	0.292	0.043
-359.625	-1.802	-0.218	0.151
-358.610	594.012	-0.038	0.093
-357.596	-132.745	0.232	0.029
-356.581	158.331	-0.106	0.145
-355.566	-77.606	0.365	0.125
-354.552	130.738	-0.151	-0.192
-353.537	561.827	-0.054	-0.130
-352.523	407.695	-0.141	-0.294
-351.508	-97.244	0.390	-0.101
-350.493	-151.781	-0.233	-0.017
-349.479	-102.263	-0.405	-0.096
-348.464	-106.552	0.160	0.035
-347.450	218.299	-0.073	-0.115
-346.435	800.000	0.045	0.158
-345.420	395.737	-0.029	0.059
-344.406	117.507	-0.124	0.151
-343.391	-200.000	0.065	-0.352
-342.377	-111.395	-0.061	-0.012
-341.362	800.000	0.163	0.497
-340.348	-200.000	-0.009	0.000
-339.333	800.000	0.042	0.117
-338.318	572.478	0.201	-0.485
-337.304	-200.000	-0.098	-0.435
-336.289	800.000	-0.113	-0.398
-335.275	39.058	0.087	0.077
-334.260	800.000	0.078	0.216
-333.245	64.094	0.154	-0.153
-332.231	108.434	-0.144	0.170
-331.216	-97.974	0.358	0.091
-330.202	594.843	0.263	-0.643
-329.187	-200.000	0.012	0.222
-328.172	300.871	0.042	0.076
-327.158	800.000	-0.108	-0.390
-326.143	71.214	-0.331	0.339
-325.129	-161.373	0.163	0.008
-324.114	-49.901	-0.084	-0.039
-323.099	319.539	0.153	-0.286
-322.085	249.451	-0.130	-0.218
-321.070	-80.255	0.174	-0.057
-320.056	636.656	-0.072	-0.180
-319.041	800.000	0.039	-0.124
-318.026	-104.043	-0.569	0.131
-317.012	-90.667	-0.144	0.041
-315.997	-52.570	-0.089	-0.040
-314.983	800.000	0.120	-0.435
-313.968	800.000	0.096	0.374
-312.953	-200.000	-0.006	0.120
-311.939	9.664	0.153	-0.114
-310.924	22.311	-0.272	0.219
-309.910	-170.907	-0.276	-0.009
-308.895	113.436	0.139	-0.167
-307.880	-38.777	-0.179	-0.093
-306.866	-64.340	-0.176	-0.071
-305.851	388.165	0.024	-0.049
-304.837	-175.087	-0.239	0.007
-303.822	744.255	0.124	-0.329
-302.807	386.674	0.068	0.139
-301.793	167.886	0.271	-0.380
-300.778	8.547	-0.350	-0.260
-299.764	-200.000	0.010	-0.153
-298.749	-41.704	0.153	-0.077
-297.735	-139.781	0.359	0.038
-296.720	800.000	-0.075	0.311
-295.705	63.012	0.139	-0.138
-294.691	-25.148	0.020	0.012
-293.676	117.576	0.094	-0.114
-292.662	-87.689	0.295	-0.088
-291.647	-69.487	-0.159	0.060
-290.632	281.459	0.076	0.134
-289.618	-9.806	0.148	0.097
-288.603	-6.521	-0.167	0.112
-287.589	-200.000	-0.022	0.245
-286.574	800.000	0.050	-0.186
-285.559	297.335	-0.213	-0.386
-284.545	30.379	-0.220	0.186
-283.530	281.941	0.142	0.252
-282.516	186.254	-0.196	0.287
-281.501	-130.330	-0.260	-0.035
-280.486	-104.150	0.297	0.068
-279.472	85.569	-0.198	-0.214
-278.457	-101.481	-0.125	-0.030
-277.443	18.957	-0.269	-0.213
-276.428	-200.000	0.051	0.239
-275.413	-200.000	0.056	0.272
-274.399	800.000	-0.109	-0.348
-273.384	200.564	0.187	-0.283
-272.370	96.780	0.162	0.183
-271.355	157.377	0.112	0.152
-270.340	138.403	-0.173	0.224
-269.326	800.000	0.085	0.249
-268.311	148.889	-0.067	0.090
-267.297	-93.824	0.616	-0.167
-266.282	-6.467	-0.200	0.134
-265.267	473.858	0.173	0.384
-264.253	409.961	0.175	-0.365
-263.238	68.715	0.031	-0.031
-262.224	153.075	-0.223	-0.300
-261.209	-200.000	-0.008	0.127
-260.195	-46.212	0.174	0.084
-259.180	-37.022	0.396	0.209
-258.165	-9.772	-0.120	-0.079
-257.151	-98.929	-0.205	0.051
-256.136	-4.667	-0.166	-0.113
-255.122	800.000	-0.114	0.309
-254.107	-200.000	0.001	0.066
-253.092	-173.070	-0.043	-0.001
-252.078	-97.880	0.235	0.060
-251.063	-112.471	0.117	-0.023
-250.049	87.851	-0.066	0.072
-249.034	800.000	0.054	0.157
-248.019	127.981	0.286	0.358
-247.005	-26.628	0.046	0.027
-245.990	441.188	-0.110	0.238
-244.976	199.343	0.146	0.221
-243.961	88.828	0.071	0.078
-242.946	-200.000	-0.026	0.225
-241.932	-125.123	0.216	-0.033
-240.917	15.040	-0.362	0.279
-239.903	-86.526	0.217	-0.066
-238.888	800.000	0.021	0.058
-237.873	54.218	0.272	0.258
-236.859	211.475	0.175	0.271
-235.844	-91.908	0.113	-0.031
-234.830	-69.861	0.108	0.041
-233.815	403.000	-0.178	0.367
-232.800	-200.000	-0.036	0.326
-231.786	-103.988	0.392	0.090
-230.771	-131.942	0.153	0.020
-229.757	73.799	0.140	-0.144
-228.742	222.855	0.065	0.103
-227.727	58.844	-0.185	0.179
-226.713	-44.156	0.183	-0.090
-225.698	-41.299	0.030	0.015
-224.684	-73.527	0.025	0.009
-223.669	-12.420	0.054	0.035
-222.655	-23.905	0.298	-0.175
-221.640	36.223	0.055	-0.048
-220.625	-200.000	0.035	-0.239
-219.611	-200.000	-0.021	0.100
-218.596	-129.650	-0.317	0.043
-217.582	-12.588	-0.219	0.141
-216.567	-94.420	0.466	0.125
-215.552	155.208	0.174	0.235
-214.538	108.620	0.121	-0.142
-213.523	191.753	-0.135	-0.200
-212.509	-200.000	-0.027	0.339
-211.494	-72.837	-0.150	0.054
-210.479	-187.520	-0.330	0.004
-209.465	-200.000	0.039	0.304
-208.450	-26.257	0.136	0.079
-207.436	-200.000	0.062	-0.334
-206.421	15.100	0.091	0.070
-205.406	-106.882	-0.139	0.030
-204.392	-200.000	-0.022	0.169
-203.377	-121.288	0.041	-0.007
-202.363	-139.856	0.255	0.027
-201.348	-200.000	-0.002	0.102
-200.333	18.354	0.392	-0.307
-199.319	800.000	0.049	-0.191
-198.304	49.634	-0.076	0.070
-197.290	-112.103	0.088	-0.017
-196.275	251.341	-0.040	-0.066
-195.260	800.000	0.089	0.342
-194.246	-64.568	0.045	-0.018
-193.231	-200.000	-0.016	0.103
-192.217	-89.627	0.305	0.088
-191.202	32.216	0.091	-0.077
-190.187	200.039	-0.029	0.044
-189.173	-16.595	-0.240	0.149
-188.158	718.331	-0.013	0.033
-187.144	103.976	-0.236	0.272
-186.129	-170.613	-0.283	-0.010
-185.114	23.340	0.097	0.078
-184.100	-50.212	-0.301	-0.140
-183.085	119.273	0.152	0.184
-182.071	169.055	-0.044	0.062
-181.056	22.670	0.446	-0.359
-180.042	-30.941	0.291	0.161
-179.027	800.000	0.142	0.409
-178.012	800.000	0.081	0.345
-176.998	9.062	-0.216	0.160
-175.983	-49.165	-0.130	-0.061
-174.969	-172.922	0.496	-0.015
-173.954	-112.802	-0.271	0.053
-172.939	-104.053	-0.250	-0.057
-171.925	235.780	0.043	0.069
-170.910	-200.000	-0.007	0.105
-169.896	-200.000	0.003	-0.328
-168.881	700.464	-0.021	-0.053
-167.866	-86.235	-0.124	-0.037
-166.852	-81.069	-0.184	0.060
-165.837	-200.000	0.035	0.267
-164.823	-65.781	0.206	0.081
-163.808	-64.460	-0.193	0.077
-162.793	-71.536	-0.205	0.075
-161.779	58.690	-0.202	-0.195
-160.764	-21.654	-0.260	0.156
-159.750	559.916	0.141	-0.334
-158.735	63.510	-0.111	-0.109
-157.720	-200.000	0.038	0.180
-156.706	-200.000	-0.007	0.178
-155.691	252.251	0.112	-0.187
-154.677	-200.000	-0.025	0.390
-153.662	514.432	0.068	-0.156
-152.647	435.135	-0.176	-0.376
-151.633	-191.104	-0.543	0.006
-150.618	189.975	0.121	0.178
-149.604	-22.771	-0.289	-0.171
-148.589	-144.534	0.301	-0.027
-147.574	106.384	0.083	-0.097
-146.560	800.000	-0.106	-0.302
-145.545	-200.000	-0.032	0.311
-144.531	-200.000	0.048	-0.241
-143.516	104.205	-0.149	-0.171
-142.502	-53.965	0.406	-0.181
-141.487	-22.458	-0.052	0.031
-140.472	-21.160	0.145	0.087
-139.458	209.406	-0.131	-0.202
-138.443	261.047	-0.113	-0.192
-137.429	105.861	0.167	0.193
-136.414	-134.023	0.280	-0.034
-135.399	-114.658	0.324	0.061
-134.385	192.660	-0.115	0.171
-133.370	-122.361	-0.111	0.018
-132.356	-200.000	-0.018	-0.087
-131.341	-88.427	0.074	-0.022
-130.326	-49.347	-0.120	0.056
-129.312	116.129	-0.060	-0.072
-128.297	312.059	0.115	0.211
-127.283	-200.000	0.002	0.170
-126.268	-144.317	0.234	-0.021
-125.253	-11.299	0.087	0.056
-124.239	-200.000	0.007	0.123
-123.224	-161.461	0.109	0.006
-122.210	-200.000	0.012	0.074
-121.195	160.139	-0.072	-0.099
-120.180	144.683	-0.092	0.120
-119.166	37.307	-0.304	-0.263
-118.151	228.326	0.116	-0.185
-117.137	800.000	0.042	0.132
-116.122	-120.330	0.212	-0.035
-115.107	-61.248	-0.197	-0.081
-114.093	620.899	-0.056	-0.139
-113.078	-173.531	-0.217	0.006
-112.064	-17.908	-0.027	-0.016
-111.049	-200.000	-0.020	-0.261
-110.034	800.000	-0.050	-0.193
-109.020	31.901	0.359	0.303
-108.005	90.494	0.075	0.082
-106.991	37.933	-0.105	-0.091
-105.976	79.574	-0.254	0.267
-104.962	-200.000	0.030	0.234
-103.947	-200.000	0.021	-0.298
-102.932	800.000	0.024	0.066
-101.918	13.729	0.184	0.140
-100.903	-163.226	-0.426	-0.020
-99.889	-122.456	0.069	0.011
-98.874	89.491	0.132	-0.144
-97.859	-176.903	0.137	-0.003
-96.845	698.146	0.099	-0.254
-95.830	-171.210	0.154	0.005
-94.816	310.061	0.131	-0.240
-93.801	-68.895	0.136	-0.051
-92.786	89.034	-0.159	0.173
-91.772	-149.016	-0.239	-0.019
-90.757	-200.000	0.007	0.192
-89.743	-70.415	-0.112	0.042
-88.728	11.022	0.345	-0.258
-87.713	27.081	-0.243	-0.200
-86.699	-45.371	-0.314	-0.153
-85.684	-125.719	0.150	-0.022
-84.670	-69.685	-0.168	-0.063
-83.655	-200.000	0.030	0.159
-82.640	0.224	0.303	0.211
-81.626	-57.765	0.153	-0.066
-80.611	696.861	-0.137	-0.352
-79.597	41.133	-0.163	-0.144
-78.582	86.845	0.120	-0.129
-77.567	-200.000	-0.001	-0.027
-76.553	-93.975	0.263	0.071
-75.538	625.720	0.061	-0.151
-74.524	-30.534	-0.298	-0.165
-73.509	-39.284	0.184	0.094
-72.494	800.000	0.136	0.446
-71.480	-200.000	-0.073	0.352
-70.465	-73.191	0.076	-0.027
-69.451	-104.601	-0.381	0.086
-68.436	266.773	-0.137	-0.234
-67.422	-200.000	0.011	0.147
-66.407	431.079	-0.085	0.181
-65.392	-41.323	-0.291	-0.146
-64.378	-165.942	0.152	-0.006
-63.363	-34.580	0.273	0.146
-62.349	271.876	-0.132	0.228
-61.334	94.214	-1.146	-1.271
-60.319	77.008	0.652	0.676
-59.305	-200.000	-0.095	-0.749
-58.290	800.000	0.430	1.505
-57.276	615.189	0.480	1.175
-56.261	-200.000	116.180	645.160
-55.246	502.274	1539.518	3475.258
-54.232	174.176	2721.174	3841.474
-53.217	98.271	2296.338	2584.072
-52.203	35.419	1903.336	1631.487
-51.188	29.483	1696.527	1409.004
-50.173	27.153	1655.422	1357.429
-49.159	47.227	1713.181	1557.975
-48.144	45.857	1725.758	1558.943
-47.130	29.065	1683.588	1394.873
-46.115	26.486	1669.014	1363.336
-45.100	26.227	1664.786	1357.880
-44.086	26.394	1661.553	1356.447
-43.071	26.307	1659.366	1353.951
-42.057	26.212	1656.690	1351.001
-41.042	26.316	1654.424	1349.879
-40.027	26.388	1652.243	1348.582
-39.013	26.274	1650.414	1346.188
-37.998	26.266	1649.336	1345.198
-36.984	26.369	1647.695	1344.569
-35.969	26.475	1645.734	1343.707
-34.954	26.387	1644.745	1342.190
-33.940	26.352	1643.440	1340.809
-32.925	26.429	1641.281	1339.570
-31.911	26.465	1639.277	1338.147
-30.896	26.498	1637.592	1336.958
-29.881	26.375	1636.638	1335.221
-28.867	26.478	1634.431	1334.127
-27.852	26.435	1633.507	1333.004
-26.838	26.478	1631.901	1331.955
-25.823	26.452	1630.115	1330.254
-24.809	26.396	1629.732	1329.474
-23.794	26.412	1627.908	1328.053
-22.779	26.476	1626.262	1327.128
-21.765	26.485	1624.585	1325.770
-20.750	26.359	1623.108	1323.591
-19.736	26.411	1621.945	1322.975
-18.721	26.530	1620.329	1322.473
-17.706	26.505	1618.625	1320.842
-16.692	26.411	1617.313	1319.037
-15.677	26.432	1615.814	1317.914
-14.663	26.517	1614.269	1317.219
-13.648	26.472	1613.055	1315.852
-12.633	26.494	1611.426	1314.631
-11.619	26.550	1609.928	1313.764
-10.604	26.502	1608.092	1311.866
-9.590	26.498	1607.177	1311.033
-8.575	26.444	1605.731	1309.413
-7.560	26.503	1604.351	1308.660
-6.546	26.463	1603.973	1308.015
-5.531	26.510	1601.978	1306.673
-4.517	26.470	1601.160	1305.662
-3.502	26.402	1600.309	1304.433
-2.487	26.493	1598.564	1303.608
-1.473	26.228	1586.500	1291.827
-0.458	23.415	1567.672	1256.536
0.556	20.954	1569.412	1226.937
1.571	18.708	1593.215	1229.372
2.586	18.221	1606.149	1235.723
3.600	16.098	1550.551	1178.024
4.615	9.387	1442.634	1052.183
5.629	4.036	1383.637	975.424
6.644	3.204	1376.591	965.154
7.659	3.119	1375.235	963.585
8.673	3.212	1373.601	962.937
9.688	3.205	1372.512	962.042
10.702	3.174	1369.577	959.710
11.717	5.722	1374.306	978.866
12.731	12.936	1387.835	1033.774
13.746	18.933	1397.621	1078.712
14.761	20.403	1398.417	1088.451
15.775	19.773	1396.667	1083.045
16.790	18.735	1394.351	1074.663
17.804	17.904	1391.978	1067.547
18.819	17.595	1390.559	1064.434
19.834	17.499	1389.795	1063.155
20.848	17.307	1388.488	1060.864
21.863	16.961	1387.320	1057.720
22.877	16.962	1385.841	1056.505
23.892	16.848	1385.075	1055.118
24.907	16.798	1384.643	1054.381
25.921	16.870	1382.976	1053.465
26.936	16.885	1382.247	1052.910
27.950	16.967	1381.436	1052.710
28.965	17.103	1380.353	1052.635
29.980	17.233	1379.104	1052.397
30.994	17.245	1378.045	1051.567
32.009	17.327	1376.647	1050.917
33.023	17.256	1375.956	1049.856
34.038	17.248	1374.393	1048.519
35.053	17.018	1373.500	1046.325
36.067	17.031	1372.558	1045.596
37.082	17.054	1371.720	1045.008
38.096	17.083	1370.432	1044.116
39.111	17.221	1369.755	1044.356
40.126	17.094	1368.475	1042.507
41.140	16.866	1367.411	1040.203
42.155	16.711	1366.813	1038.707
43.169	16.838	1366.368	1039.054
44.184	16.843	1365.875	1038.621
45.199	16.724	1366.029	1037.916
46.213	16.839	1365.661	1038.245
47.228	17.009	1364.688	1038.458
48.242	17.009	1363.355	1037.349
49.257	16.995	1361.716	1035.929
50.271	16.966	1360.588	1034.799
51.286	17.011	1359.196	1033.923
52.301	17.075	1357.705	1033.085
53.315	16.931	1356.830	1031.455
54.330	16.774	1356.205	1029.932
55.344	16.778	1354.756	1028.765
56.359	16.844	1353.269	1027.948
57.374	16.804	1352.331	1026.898
58.388	16.673	1352.077	1025.821
59.403	16.713	1351.366	1025.434
60.417	16.622	1350.807	1024.368
61.432	16.576	1349.753	1023.202
62.447	16.496	1348.685	1021.815
63.461	16.613	1347.146	1021.269
64.476	16.442	1346.314	1019.511
65.490	16.518	1345.140	1018.990
66.505	16.506	1343.965	1017.943
67.520	16.556	1342.651	1017.154
68.534	16.615	1341.247	1016.357
69.549	16.589	1340.496	1015.542
70.563	16.483	1339.222	1013.850
71.578	16.474	1338.184	1012.919
72.593	16.448	1337.041	1011.814
73.607	16.284	1336.630	1010.429
74.622	16.336	1335.533	1009.823
75.636	16.402	1334.944	1009.678
76.651	16.434	1334.354	1009.333
77.666	16.481	1333.772	1009.084
78.680	16.522	1333.206	1008.816
79.695	16.422	1332.883	1007.887
80.709	16.640	1331.909	1008.355
81.724	16.647	1331.496	1008.000
82.739	16.765	1330.502	1007.857
83.753	16.969	1329.344	1008.107
84.768	16.938	1328.905	1007.497
85.782	17.079	1327.536	1007.207
86.797	17.132	1325.877	1006.175
87.812	17.026	1324.648	1004.526
88.826	16.987	1323.528	1003.356
89.841	17.108	1322.497	1003.199
90.855	17.000	1322.307	1002.330
91.870	17.145	1320.927	1002.051
92.884	17.133	1320.124	1001.280
93.899	17.202	1319.330	1000.998
94.914	17.285	1318.654	1000.882
95.928	17.273	1317.720	1000.015
96.943	17.236	1316.784	999.001
97.957	17.237	1315.400	997.869
98.972	17.143	1314.831	996.796
99.987	17.065	1313.951	995.582
101.001	17.013	1312.938	994.422
102.016	17.111	1311.708	993.978
103.030	17.131	1310.623	993.183
104.045	17.058	1310.103	992.278
105.060	17.035	1308.138	990.566
106.074	16.801	1306.915	988.188
107.089	16.635	1305.716	986.225
108.103	16.597	1303.777	984.452
109.118	16.543	1302.976	983.448
110.133	16.634	1301.180	982.529
111.147	16.614	1300.574	981.874
112.162	16.730	1298.620	980.980
113.176	16.637	1298.100	979.965
114.191	16.689	1296.947	979.308
115.206	16.671	1296.208	978.557
116.220	16.769	1294.694	977.894
117.235	16.731	1293.806	976.918
118.249	16.601	1292.837	975.353
119.264	16.627	1291.447	974.365
120.279	16.680	1289.957	973.463
121.293	16.564	1289.288	972.200
122.308	16.425	1288.514	970.732
123.322	16.524	1286.978	970.062
124.337	16.459	1286.049	968.900
125.352	16.474	1284.924	968.051
126.366	16.461	1284.119	967.286
127.381	16.468	1282.642	966.129
128.395	16.506	1281.505	965.406
129.410	16.464	1281.151	964.814
130.424	16.518	1280.445	964.504
131.439	16.617	1279.217	964.056
132.454	16.590	1278.754	963.471
133.468	16.740	1277.500	963.293
134.483	16.691	1276.862	962.448
135.497	16.739	1275.795	961.832
136.512	16.693	1274.840	960.767
137.527	16.738	1273.300	959.771
138.541	16.750	1271.581	958.462
139.556	16.908	1270.531	958.478
140.570	16.897	1269.946	957.891
141.585	16.905	1268.646	956.871
142.600	17.077	1267.676	957.025
143.614	17.087	1266.959	956.455
144.629	17.095	1265.919	955.631
145.643	17.084	1264.687	954.553
146.658	17.056	1263.116	953.123
147.673	16.891	1262.391	951.566
148.687	16.846	1260.685	949.946
149.702	16.729	1259.262	948.131
150.716	16.770	1258.176	947.462
151.731	16.836	1257.118	946.949
152.746	16.815	1255.856	945.800
153.760	16.930	1254.624	945.428
154.775	16.920	1253.818	944.683
155.789	17.004	1252.779	944.285
156.804	16.969	1251.709	943.200
157.819	16.990	1250.862	942.595
158.833	17.147	1249.907	942.661
159.848	17.320	1248.950	942.817
160.862	17.287	1248.019	941.848
161.877	17.072	1246.859	939.700
162.892	16.831	1245.742	937.437
163.906	16.803	1244.565	936.319
164.921	16.853	1244.387	936.377
165.935	16.894	1243.099	935.549
166.950	16.960	1242.656	935.496
167.964	17.078	1241.873	935.475
168.979	16.923	1241.043	933.917
169.994	16.983	1239.868	933.275
171.008	16.948	1239.236	932.526
172.023	17.150	1238.405	932.930
173.037	17.158	1238.084	932.649
174.052	17.134	1236.694	931.385
175.067	17.054	1235.423	929.911
176.081	16.816	1234.797	928.050
177.096	16.845	1233.513	927.166
178.110	16.994	1232.712	927.295
179.125	16.952	1231.682	926.208
180.140	17.013	1230.230	925.369
181.154	17.106	1228.882	924.780
182.169	17.245	1227.920	924.726
183.183	17.232	1227.173	924.015
184.198	17.246	1225.904	923.051
185.213	17.276	1224.560	922.120
186.227	17.274	1223.813	921.464
187.242	17.419	1222.757	921.377
188.256	17.448	1221.911	920.813
189.271	17.476	1220.731	919.993
190.286	17.190	1219.975	917.798
191.300	17.021	1218.655	915.813
192.315	16.877	1218.169	914.585
193.329	16.995	1217.200	914.415
194.344	17.047	1217.012	914.474
195.359	17.034	1216.644	914.046
196.373	17.172	1216.215	914.386
197.388	17.387	1215.247	914.736
198.402	17.404	1215.254	914.749
199.417	17.537	1214.054	914.481
200.432	17.607	1213.305	914.208
201.446	17.781	1212.878	914.740
202.461	17.832	1211.860	914.167
203.475	17.808	1210.826	913.175
204.490	17.553	1209.620	910.820
205.504	17.469	1208.110	909.154
206.519	17.490	1206.905	908.280
207.534	17.415	1205.846	907.002
208.548	17.450	1204.941	906.430
209.563	17.369	1203.791	905.055
210.577	17.569	1202.936	905.393
211.592	17.581	1202.272	904.877
212.607	17.632	1201.756	904.680
213.621	17.557	1201.189	903.771
214.636	17.649	1199.993	903.282
215.650	17.717	1198.944	902.770
216.665	17.681	1198.264	901.989
217.680	17.787	1197.300	901.744
218.694	17.883	1196.486	901.557
219.709	17.817	1195.383	900.299
220.723	17.830	1194.889	899.917
221.738	17.647	1194.582	898.642
222.753	17.746	1193.743	898.453
223.767	17.727	1192.725	897.507
224.782	17.801	1192.434	897.599
225.796	17.997	1191.872	898.127
226.811	17.889	1191.424	897.141
227.826	17.918	1190.095	896.213
228.840	17.810	1189.382	895.029
229.855	17.758	1188.763	894.213
230.869	17.761	1187.676	893.329
231.884	17.700	1187.151	892.539
232.899	17.663	1185.947	891.360
233.913	17.721	1184.933	890.823
234.928	17.659	1184.312	889.954
235.942	17.588	1183.508	888.898
236.957	17.558	1182.974	888.261
237.972	17.619	1182.180	887.907
238.986	17.711	1181.541	887.827
240.001	17.749	1180.831	887.414
241.015	17.804	1179.241	886.427
242.030	17.698	1179.137	885.716
243.045	17.853	1178.482	885.954
244.059	17.848	1177.790	885.329
245.074	17.857	1177.217	884.866
246.088	17.973	1175.997	884.470
247.103	18.081	1175.016	884.211
248.117	18.147	1174.689	884.229
249.132	18.195	1174.195	884.029
250.147	18.463	1173.632	884.910
251.161	18.518	1172.647	884.375
252.176	18.453	1172.100	883.548
253.190	18.512	1171.682	883.460
254.205	18.669	1170.835	883.547
255.220	18.614	1170.364	882.830
256.234	18.588	1170.009	882.355
257.249	18.515	1169.267	881.339
258.263	18.483	1168.679	880.652
259.278	18.494	1167.865	880.022
260.293	18.554	1167.241	879.779
261.307	18.791	1166.736	880.534
262.322	18.685	1166.276	879.567
263.336	18.687	1165.289	878.756
264.351	18.730	1164.772	878.509
265.366	18.753	1164.164	878.092
266.380	18.689	1163.396	877.108
267.395	18.648	1162.686	876.281
268.409	18.542	1161.730	874.946
269.424	18.580	1161.205	874.664
270.439	18.608	1160.573	874.254
271.453	18.537	1159.834	873.257
272.468	18.655	1158.012	872.411
273.482	18.529	1157.746	871.494
274.497	18.451	1157.496	870.830
275.512	18.576	1156.802	870.864
276.526	18.493	1155.922	869.708
277.541	18.587	1154.954	869.377
278.555	18.606	1154.479	869.040
279.570	18.719	1153.802	869.023
280.585	18.840	1152.878	868.863
281.599	18.743	1152.055	867.677
282.614	18.636	1151.292	866.485
283.628	18.703	1149.504	865.397
284.643	18.685	1149.147	864.962
285.657	18.635	1148.213	863.932
286.672	18.722	1147.414	863.693
287.687	18.641	1146.676	862.652
288.701	18.715	1145.734	862.242
289.716	18.688	1145.196	861.625
290.730	18.764	1144.118	861.119
291.745	18.777	1143.363	860.539
292.760	18.796	1143.042	860.313
293.774	18.820	1142.966	860.304
294.789	18.935	1142.142	860.180
295.803	18.928	1141.345	859.467
296.818	18.878	1140.377	858.415
297.833	18.905	1139.574	857.871
298.847	18.859	1138.956	857.097
299.862	18.781	1137.999	855.916
300.876	18.970	1137.259	856.222
301.891	19.072	1136.751	856.272
302.906	19.156	1135.757	855.866
303.920	19.104	1135.637	855.439
304.935	19.163	1135.082	855.238
305.949	19.241	1134.366	855.010
306.964	19.269	1134.075	854.858
307.979	19.245	1132.812	853.708
308.993	19.097	1132.106	852.367
310.008	19.186	1131.195	852.048
311.022	19.311	1130.099	851.764
312.037	19.191	1129.565	850.696
313.052	19.147	1128.773	849.806
314.066	19.045	1127.166	848.016
315.081	18.907	1126.642	846.868
316.095	18.985	1125.998	846.691
317.110	18.949	1125.350	845.953
318.125	18.977	1124.841	845.635
319.139	18.938	1124.003	844.739
320.154	19.029	1123.352	844.618
321.168	19.066	1122.720	844.252
322.183	19.006	1122.072	843.395
323.197	19.081	1121.432	843.205
324.212	19.010	1121.044	842.492
325.227	19.039	1120.305	842.004
326.241	18.991	1119.907	841.397
327.256	19.057	1118.854	840.854
328.270	19.136	1117.590	840.213
329.285	19.043	1116.514	838.878
330.300	19.084	1115.671	838.371
331.314	19.008	1115.205	837.575
332.329	19.018	1113.904	836.572
333.343	19.185	1112.937	836.585
334.358	19.191	1112.589	836.277
335.373	19.110	1112.367	835.644
336.387	19.289	1111.115	835.499
337.402	19.280	1110.011	834.548
338.416	19.408	1109.402	834.639
339.431	19.442	1108.917	834.361
340.446	19.534	1108.503	834.421
341.460	19.599	1107.778	834.117
342.475	19.680	1107.015	833.859
343.489	19.652	1106.164	833.009
344.504	19.631	1105.247	832.144
345.519	19.764	1104.235	831.948
346.533	19.774	1103.579	831.429
347.548	19.820	1102.843	831.021
348.562	19.786	1101.879	830.059
349.577	19.607	1101.188	828.608
350.592	19.564	1100.078	827.494
351.606	19.472	1099.471	826.523
352.621	19.413	1098.873	825.714
353.635	19.448	1098.130	825.254
354.650	19.422	1097.433	824.530
355.665	19.459	1096.530	823.958
356.679	19.637	1095.941	824.288
357.694	19.630	1095.873	824.134
358.708	19.598	1095.304	823.480
359.723	19.703	1094.462	823.271
360.738	19.663	1093.501	822.287
361.752	19.652	1093.502	822.164
362.767	19.766	1092.474	821.857
363.781	19.742	1092.004	821.319
364.796	19.846	1091.435	821.310
365.810	19.968	1090.907	821.420
366.825	19.979	1090.569	821.148
367.840	20.115	1090.028	821.309
368.854	20.162	1089.570	821.114
369.869	20.087	1088.896	820.179
370.883	20.164	1087.397	819.344
371.898	20.081	1086.415	818.136
372.913	20.021	1085.747	817.281
373.927	19.977	1086.227	817.361
374.942	20.125	1085.274	817.269
375.956	20.105	1085.057	816.941
376.971	20.010	1084.156	815.742
377.986	20.128	1083.537	815.758
379.000	20.212	1083.221	815.846
380.015	20.318	1082.748	815.915
381.029	20.331	1082.148	815.448
382.044	20.352	1081.186	814.752
383.059	20.279	1080.377	813.729
384.073	20.215	1079.605	812.774
385.088	20.345	1078.752	812.668
386.102	20.273	1077.452	811.281
387.117	20.289	1076.369	810.470
388.132	20.204	1075.241	809.151
389.146	20.157	1074.845	808.561
390.161	20.063	1074.036	807.442
391.175	20.078	1073.585	807.101
392.190	20.214	1072.808	807.078
393.205	20.274	1072.423	807.000
394.219	20.326	1071.471	806.454
395.234	20.225	1070.627	805.278
396.248	20.212	1069.672	804.425
397.263	20.163	1068.416	803.185
398.278	20.170	1067.619	802.548
399.292	19.973	1066.790	800.942
400.307	20.047	1066.266	800.819
401.321	19.921	1065.830	799.838
402.336	20.046	1064.980	799.706
403.350	20.073	1064.316	799.263
404.365	20.163	1063.475	798.975
405.380	20.189	1062.936	798.619
406.394	20.219	1062.383	798.272
407.409	20.454	1061.369	798.516
408.423	20.439	1060.984	798.090
409.438	20.439	1060.564	797.703
410.453	20.697	1059.514	798.027
411.467	20.759	1058.885	797.765
412.482	20.602	1058.479	796.668
413.496	20.768	1057.355	796.513
414.511	20.822	1057.057	796.465
415.526	20.726	1056.727	795.709
416.540	20.947	1056.417	796.411
417.555	20.879	1055.340	795.221
418.569	20.761	1055.160	794.476
419.584	20.779	1054.949	794.327
420.599	20.837	1054.132	793.910
421.613	155.228	1404.690	1796.339
422.628	142.474	1455.735	1796.441
