DTS Sentinel unit serial number:	SN413079Multiplexer serial number:	ORYXHardware model number:	OX4-SRSoftware version number:	ORYX F/W v4.00 Oryx Data Collector v3.7.2.0data status	okinstallation	princeton_trtdifferential loss correction	single-endedforward channel	channel 2reverse channel	N/Adate	2019/09/18time	10:23:34forward acquisition time	60.00reverse acquisition time	0.00gamma	496.2192k internal	0.2332k external	0.2332temperature offset calibration	0.9982default loss term (dB/km)	0.3790temperature slope calibration	1.0000multiplexer offset coefficient	1.0000multiplexer slope coefficient	1.0000fibre end	0.00T internal ref (°C)	28.16T ext. ref 1 (°C)	0.34T ext. ref 2 (°C)	24.73length (m)	temperature (°C)	Stokes	anti-Stokes-747.200	-62.408	-0.313	0.131
-746.185	-191.508	0.216	-0.002
-745.171	-64.531	-0.187	0.076
-744.156	9.945	-0.118	0.090
-743.142	-117.569	0.247	0.045
-742.127	-85.819	-0.214	-0.067
-741.112	-136.425	0.290	0.034
-740.098	-49.524	0.124	-0.059
-739.083	-28.380	-0.323	0.188
-738.069	237.281	-0.070	-0.117
-737.054	211.635	-0.167	0.265
-736.039	-38.446	-0.097	-0.051
-735.025	354.695	-0.044	-0.088
-734.010	-0.623	-0.312	-0.223
-732.996	19.471	-0.266	0.215
-731.981	-124.803	-0.544	0.085
-730.966	-130.025	-0.290	0.040
-729.952	-109.453	-0.292	-0.062
-728.937	-13.312	0.156	0.102
-727.923	99.634	-0.236	0.275
-726.908	-26.938	-0.071	-0.042
-725.894	-27.814	-0.255	0.149
-724.879	-200.000	0.003	-0.152
-723.864	-200.000	-0.002	0.134
-722.850	133.998	0.164	0.214
-721.835	-175.679	-0.155	0.004
-720.821	147.424	0.089	-0.121
-719.806	-200.000	0.046	-0.257
-718.791	-70.538	-0.258	0.098
-717.777	-123.524	-0.316	0.050
-716.762	-94.103	0.093	0.026
-715.748	21.562	0.100	-0.082
-714.733	-200.000	0.001	0.106
-713.718	-200.000	-0.041	-0.248
-712.704	731.100	-0.097	-0.260
-711.689	-200.000	-0.003	0.221
-710.675	-149.767	0.203	0.016
-709.660	128.034	-0.099	-0.126
-708.645	557.137	0.051	-0.124
-707.631	78.527	-0.231	0.248
-706.616	45.214	0.109	-0.101
-705.602	-24.657	-0.210	-0.125
-704.587	-173.191	0.434	0.013
-703.572	800.000	0.086	0.296
-702.558	-140.025	-0.317	-0.034
-701.543	-135.462	-0.135	-0.016
-700.529	-200.000	-0.017	-0.097
-699.514	-144.097	-0.356	-0.033
-698.499	201.044	0.163	-0.252
-697.485	-200.000	-0.046	-0.250
-696.470	-78.284	0.413	-0.142
-695.456	-89.105	0.302	0.090
-694.441	-9.780	-0.070	-0.047
-693.426	82.766	0.085	-0.093
-692.412	288.997	0.126	0.229
-691.397	-147.819	-0.393	0.033
-690.383	423.773	-0.055	0.119
-689.368	-17.256	0.188	-0.119
-688.354	275.794	0.072	0.128
-687.339	-114.158	-0.106	0.021
-686.324	131.595	0.071	0.092
-685.310	634.370	0.163	-0.415
-684.295	800.000	0.087	-0.321
-683.281	800.000	0.059	-0.175
-682.266	234.726	0.239	-0.396
-681.251	69.175	0.318	-0.328
-680.237	-200.000	-0.023	-0.194
-679.222	800.000	-0.080	0.256
-678.208	150.280	0.079	0.107
-677.193	-115.206	-0.193	0.037
-676.178	-20.622	0.164	-0.101
-675.164	-200.000	0.053	-0.236
-674.149	800.000	-0.016	0.058
-673.135	-149.401	0.160	0.013
-672.120	-72.714	0.292	-0.108
-671.105	800.000	0.101	0.282
-670.091	-200.000	-0.009	-0.168
-669.076	-37.249	-0.208	-0.111
-668.062	146.240	-0.184	0.247
-667.047	-62.345	0.170	-0.071
-666.032	-5.536	0.146	-0.100
-665.018	-200.000	0.005	-0.219
-664.003	-38.456	0.233	-0.123
-662.989	-200.000	-0.004	-0.084
-661.974	245.979	-0.011	0.019
-660.959	-85.552	-0.386	0.120
-659.945	74.336	-0.065	-0.068
-658.930	-33.200	-0.294	-0.163
-657.916	-200.000	0.014	0.105
-656.901	-200.000	-0.018	-0.121
-655.886	674.281	0.064	0.167
-654.872	-200.000	-0.032	-0.237
-653.857	-200.000	0.036	0.404
-652.843	-71.706	-0.197	-0.074
-651.828	-69.182	0.195	0.075
-650.814	-114.304	0.026	0.005
-649.799	222.971	0.225	-0.364
-648.784	97.998	0.220	0.254
-647.770	-36.425	-0.069	-0.038
-646.755	-200.000	0.019	-0.153
-645.741	160.447	0.155	0.217
-644.726	535.693	0.122	-0.291
-643.711	-200.000	-0.025	-0.216
-642.697	800.000	0.058	-0.165
-641.682	-124.685	-0.334	-0.052
-640.668	-157.734	-0.039	-0.002
-639.653	499.788	-0.037	-0.086
-638.638	-200.000	-0.009	-0.242
-637.624	-44.043	-0.075	-0.038
-636.609	188.583	0.121	0.181
-635.595	123.616	-0.032	-0.040
-634.580	2.517	-0.127	-0.092
-633.565	-87.812	0.105	0.032
-632.551	-194.295	0.370	0.003
-631.536	800.000	-0.046	0.150
-630.522	-51.877	-0.131	0.061
-629.507	74.095	-0.352	0.370
-628.492	800.000	0.019	0.067
-627.478	58.371	0.120	-0.118
-626.463	800.000	0.035	0.132
-625.449	800.000	-0.050	-0.147
-624.434	-200.000	0.006	-0.203
-623.419	11.416	0.129	-0.099
-622.405	255.123	-0.183	0.313
-621.390	-200.000	-0.015	-0.147
-620.376	800.000	-0.044	-0.152
-619.361	369.798	-0.112	-0.227
-618.346	-200.000	-0.029	0.180
-617.332	54.737	-0.115	-0.111
-616.317	-138.667	0.282	0.031
-615.303	286.596	0.031	0.055
-614.288	800.000	-0.049	0.141
-613.273	22.624	-0.142	-0.117
-612.259	174.209	0.128	-0.185
-611.244	-14.713	0.099	0.064
-610.230	35.030	-0.164	0.143
-609.215	-116.676	0.124	0.023
-608.201	-129.594	0.237	0.033
-607.186	800.000	0.101	-0.383
-606.171	101.224	-0.266	-0.310
-605.157	-200.000	0.012	0.305
-604.142	483.679	0.045	-0.103
-603.128	252.311	-0.102	-0.173
-602.113	69.547	0.093	0.096
-601.098	-30.296	-0.167	0.095
-600.084	-146.405	-0.336	0.029
-599.069	-200.000	-0.003	-0.057
-598.055	790.718	0.038	0.105
-597.040	-26.423	0.319	0.187
-596.025	115.522	-0.074	-0.090
-595.011	116.851	-0.090	0.111
-593.996	1.229	0.191	-0.137
-592.982	-90.252	0.421	0.122
-591.967	-144.926	-0.281	0.026
-590.952	166.849	-0.218	0.310
-589.938	59.453	-0.175	-0.172
-588.923	800.000	0.041	0.118
-587.909	-61.045	-0.259	0.109
-586.894	16.817	0.184	-0.146
-585.879	800.000	0.118	-0.464
-584.865	-200.000	0.018	-0.091
-583.850	46.572	-0.083	0.077
-582.836	800.000	-0.022	0.077
-581.821	800.000	0.011	-0.038
-580.806	773.083	-0.059	-0.162
-579.792	29.099	0.189	-0.160
-578.777	-69.021	0.237	-0.091
-577.763	289.985	-0.056	-0.101
-576.748	409.721	0.077	0.164
-575.733	352.165	0.195	-0.387
-574.719	63.234	-0.308	0.309
-573.704	800.000	-0.059	0.194
-572.690	-62.589	0.277	0.115
-571.675	-55.979	0.184	-0.082
-570.661	0.801	0.138	0.099
-569.646	-174.870	-0.268	-0.008
-568.631	41.569	-0.196	-0.177
-567.617	105.445	-0.107	0.127
-566.602	60.460	0.074	-0.073
-565.588	-92.053	-0.099	-0.028
-564.573	325.063	0.083	-0.159
-563.558	5.962	0.205	0.151
-562.544	-57.100	-0.083	0.036
-561.529	800.000	-0.083	-0.252
-560.515	800.000	0.057	-0.224
-559.500	-128.542	0.099	-0.014
-558.485	49.961	-0.150	0.141
-557.471	232.208	-0.142	0.233
-556.456	-83.668	0.255	0.081
-555.442	238.917	0.072	-0.119
-554.427	-200.000	0.022	0.147
-553.412	273.477	0.087	0.153
-552.398	16.432	0.184	0.145
-551.383	800.000	-0.022	-0.070
-550.369	529.401	0.109	-0.257
-549.354	-200.000	0.082	0.394
-548.339	800.000	-0.065	-0.242
-547.325	-15.378	-0.298	0.190
-546.310	-66.358	0.273	-0.108
-545.296	585.880	-0.108	-0.266
-544.281	-36.747	0.258	-0.138
-543.266	800.000	0.059	-0.212
-542.252	-200.000	-0.025	-0.275
-541.237	-160.400	-0.106	0.006
-540.223	800.000	-0.072	0.225
-539.208	-115.309	-0.407	-0.077
-538.193	-75.355	0.098	0.035
-537.179	-200.000	-0.012	-0.067
-536.164	389.018	-0.066	-0.137
-535.150	-81.663	0.581	-0.190
-534.135	-186.231	-0.368	-0.005
-533.121	-95.017	-0.108	-0.029
-532.106	286.972	0.167	0.302
-531.091	-200.000	0.017	-0.188
-530.077	400.281	0.078	0.162
-529.062	800.000	-0.077	0.287
-528.048	-71.265	-0.213	-0.080
-527.033	64.686	-0.207	0.208
-526.018	-117.740	-0.145	0.026
-525.004	800.000	0.030	0.116
-523.989	134.361	-0.290	0.375
-522.975	800.000	0.025	-0.087
-521.960	-90.986	-0.054	-0.015
-520.945	-125.952	-0.308	0.046
-519.931	-72.797	-0.178	0.065
-518.916	-144.065	0.226	0.021
-517.902	83.487	0.099	0.107
-516.887	58.166	-0.084	-0.082
-515.872	56.658	0.122	0.118
-514.858	101.826	-0.181	-0.210
-513.843	-82.708	-0.059	-0.019
-512.829	-21.244	-0.036	0.022
-511.814	-200.000	0.006	-0.037
-510.799	-200.000	0.011	-0.381
-509.785	120.850	0.139	0.172
-508.770	-200.000	-0.107	0.476
-507.756	13.226	0.279	-0.215
-506.741	-113.206	-0.310	-0.061
-505.726	-92.019	-0.250	-0.070
-504.712	96.435	0.081	-0.092
-503.697	-200.000	0.011	0.327
-502.683	257.883	-0.072	0.124
-501.668	-39.315	-0.181	-0.095
-500.653	-109.364	-0.059	-0.012
-499.639	267.475	-0.014	-0.024
-498.624	-200.000	0.026	0.322
-497.610	-200.000	0.007	-0.159
-496.595	-42.042	0.069	0.035
-495.581	-62.362	0.214	0.089
-494.566	-59.273	-0.045	0.019
-493.551	9.381	0.267	0.201
-492.537	-24.207	-0.267	0.159
-491.522	-200.000	0.017	0.142
-490.508	-149.720	0.291	-0.023
-489.493	-200.000	-0.014	0.157
-488.478	296.447	0.093	-0.170
-487.464	-48.794	-0.170	-0.081
-486.449	30.114	0.206	-0.175
-485.435	-200.000	0.024	-0.184
-484.420	-86.220	-0.187	0.057
-483.405	800.000	-0.089	-0.254
-482.391	800.000	-0.020	0.086
-481.376	-101.303	0.067	-0.016
-480.362	56.775	-0.216	0.210
-479.347	-14.626	-0.084	-0.054
-478.332	132.852	-0.085	-0.109
-477.318	-134.579	0.120	-0.015
-476.303	-171.900	0.257	0.008
-475.289	223.606	-0.080	0.129
-474.274	-41.207	-0.218	-0.112
-473.259	-166.765	-0.382	-0.016
-472.245	-200.000	-0.052	0.327
-471.230	-17.808	0.184	0.115
-470.216	-98.180	0.229	0.058
-469.201	535.681	-0.207	-0.488
-468.186	175.324	-0.029	0.042
-467.172	141.706	0.148	0.195
-466.157	-68.360	0.197	0.076
-465.143	-66.770	-0.312	0.123
-464.128	-38.871	-0.495	-0.260
-463.113	440.789	0.145	-0.316
-462.099	-200.000	-0.006	0.164
-461.084	24.524	-0.226	-0.186
-460.070	-59.049	-0.508	-0.218
-459.055	-200.000	0.025	-0.138
-458.040	-200.000	0.006	0.251
-457.026	90.147	0.268	0.298
-456.011	-200.000	-0.023	-0.105
-454.997	-168.580	0.399	-0.015
-453.982	44.720	0.188	0.172
-452.968	-200.000	-0.028	0.212
-451.953	-14.079	-0.230	-0.148
-450.938	-102.729	-0.170	-0.040
-449.924	76.763	0.091	0.096
-448.909	800.000	0.041	-0.136
-447.895	-78.968	-0.063	-0.021
-446.880	-25.604	0.100	0.059
-445.865	109.353	-0.047	-0.056
-444.851	-99.986	0.227	-0.056
-443.836	150.778	0.158	0.213
-442.822	-200.000	0.037	0.240
-441.807	650.917	0.040	-0.102
-440.792	120.585	0.206	-0.255
-439.778	101.418	0.355	-0.411
-438.763	-200.000	0.022	-0.294
-437.749	-108.196	-0.051	0.011
-436.734	-149.910	0.344	0.027
-435.719	800.000	0.035	-0.141
-434.705	52.701	-0.150	-0.142
-433.690	98.238	-0.116	-0.133
-432.676	-61.825	-0.219	-0.091
-431.661	-145.534	0.049	-0.004
-430.646	-68.320	-0.329	-0.127
-429.632	-80.914	-0.227	-0.075
-428.617	-101.103	-0.178	-0.043
-427.603	800.000	0.057	0.192
-426.588	231.924	-0.078	-0.128
-425.573	-57.218	0.240	0.105
-424.559	28.262	0.165	-0.139
-423.544	90.771	-0.165	-0.184
-422.530	-200.000	-0.016	0.428
-421.515	13.659	0.320	-0.247
-420.500	-200.000	0.036	0.172
-419.486	129.354	-0.095	0.120
-418.471	-142.792	-0.185	-0.018
-417.457	-149.246	0.330	0.026
-416.442	-143.049	-0.403	-0.039
-415.428	-200.000	0.004	0.315
-414.413	-0.116	-0.175	-0.124
-413.398	-59.839	0.345	0.146
-412.384	62.051	0.142	-0.140
-411.369	-115.915	0.230	-0.043
-410.355	-200.000	0.145	0.001
-409.340	800.000	0.019	0.075
-408.325	24.797	0.305	-0.251
-407.311	-200.000	0.042	0.208
-406.296	16.123	-0.229	-0.179
-405.282	-200.000	0.039	-0.406
-404.267	-200.000	-0.009	-0.409
-403.252	800.000	0.038	-0.109
-402.238	661.223	0.114	-0.291
-401.223	-200.000	-0.010	0.141
-400.209	-51.776	-0.347	0.160
-399.194	618.541	0.104	-0.258
-398.179	118.046	-0.277	0.339
-397.165	662.094	-0.177	0.453
-396.150	84.153	0.214	-0.232
-395.136	235.279	0.281	-0.461
-394.121	-200.000	-0.048	-0.264
-393.106	800.000	0.016	-0.045
-392.092	-80.487	-0.218	-0.072
-391.077	-200.000	0.036	-0.224
-390.063	-200.000	-0.001	0.094
-389.048	42.233	-0.214	-0.192
-388.033	800.000	0.064	0.237
-387.019	27.270	-0.043	0.036
-386.004	-200.000	0.033	0.151
-384.990	388.299	-0.085	-0.175
-383.975	229.405	0.072	-0.117
-382.960	800.000	0.030	0.103
-381.946	192.346	-0.155	-0.232
-380.931	542.319	0.187	-0.442
-379.917	277.775	0.068	0.119
-378.902	10.928	-0.132	0.100
-377.888	595.903	-0.128	0.315
-376.873	-200.000	0.001	-0.136
-375.858	-11.958	-0.098	0.064
-374.844	-118.345	-0.184	-0.032
-373.829	-158.538	-0.143	0.008
-372.815	77.170	-0.142	0.150
-371.800	-200.000	0.034	-0.330
-370.785	29.272	0.177	-0.149
-369.771	-28.087	0.174	0.100
-368.756	-91.828	-0.264	0.074
-367.742	-96.936	-0.159	0.041
-366.727	-200.000	-0.025	-0.185
-365.712	266.008	-0.058	0.101
-364.698	399.292	-0.186	0.386
-363.683	800.000	-0.071	0.245
-362.669	169.513	-0.178	0.252
-361.654	-73.042	-0.371	-0.135
-360.639	-69.780	0.063	-0.024
-359.625	93.154	0.203	-0.227
-358.610	170.050	-0.027	-0.038
-357.596	800.000	-0.041	-0.141
-356.581	89.818	0.294	0.325
-355.566	65.480	0.189	0.189
-354.552	-23.262	-0.482	-0.287
-353.537	20.221	0.192	-0.153
-352.523	437.258	0.031	0.068
-351.508	-200.000	0.016	-0.250
-350.493	-87.568	-0.144	0.043
-349.479	-86.067	0.266	0.081
-348.464	415.611	-0.100	-0.211
-347.450	-9.341	0.136	-0.090
-346.435	39.949	0.077	-0.069
-345.420	-200.000	-0.008	-0.237
-344.406	148.624	-0.157	-0.210
-343.391	-200.000	0.025	-0.176
-342.377	-32.541	0.330	-0.182
-341.362	356.829	-0.041	0.080
-340.348	-3.600	0.148	0.102
-339.333	-74.021	0.413	-0.148
-338.318	-103.666	-0.164	-0.038
-337.304	22.683	0.045	-0.036
-336.289	72.867	-0.105	-0.108
-335.275	-200.000	-0.001	0.354
-334.260	15.856	-0.079	0.061
-333.245	-34.795	-0.146	-0.079
-332.231	475.396	0.105	-0.235
-331.216	-66.547	-0.043	-0.017
-330.202	800.000	-0.032	-0.133
-329.187	-137.775	0.143	0.016
-328.172	401.144	-0.091	0.190
-327.158	-13.123	-0.163	-0.105
-326.143	209.776	-0.096	0.149
-325.129	286.659	0.151	0.270
-324.114	38.280	-0.142	0.125
-323.099	-102.215	0.328	0.078
-322.085	-49.492	0.310	-0.146
-321.070	267.464	-0.029	-0.050
-320.056	800.000	-0.090	-0.268
-319.041	176.052	0.197	-0.283
-318.026	203.844	-0.150	-0.229
-317.012	-200.000	0.005	-0.355
-315.997	-130.199	-0.348	0.047
-314.983	-68.362	-0.145	0.056
-313.968	-22.437	0.176	0.105
-312.953	-200.000	-0.022	0.169
-311.939	-21.064	-0.156	0.095
-310.924	-45.223	-0.416	0.204
-309.910	1.832	0.407	0.290
-308.895	4.334	-0.088	-0.064
-307.880	11.053	0.259	0.196
-306.866	-26.312	0.073	-0.043
-305.851	-86.035	-0.336	0.103
-304.837	-200.000	0.060	0.302
-303.822	-47.615	0.303	-0.146
-302.807	800.000	0.086	0.244
-301.793	-164.674	0.044	0.002
-300.778	800.000	0.106	0.309
-299.764	800.000	-0.063	-0.262
-298.749	13.828	0.187	0.144
-297.735	-96.726	-0.167	0.043
-296.720	185.041	-0.095	-0.140
-295.705	-200.000	0.061	0.475
-294.691	494.006	-0.123	0.279
-293.676	11.078	0.260	0.196
-292.662	738.100	-0.102	0.272
-291.647	-200.000	-0.023	0.146
-290.632	98.178	-0.063	-0.071
-289.618	800.000	0.085	-0.317
-288.603	-60.670	-0.090	0.038
-287.589	-110.891	0.274	-0.056
-286.574	321.008	-0.159	0.298
-285.559	-95.826	-0.207	0.054
-284.545	15.703	0.289	0.225
-283.530	26.648	-0.077	-0.064
-282.516	68.375	-0.041	0.041
-281.501	171.795	-0.114	-0.161
-280.486	-37.971	0.351	-0.184
-279.472	800.000	-0.077	0.244
-278.457	196.441	-0.180	-0.271
-277.443	-148.519	-0.059	0.005
-276.428	-15.376	-0.174	-0.110
-275.413	-171.754	-0.056	0.002
-274.399	800.000	0.096	-0.270
-273.384	39.695	0.187	-0.165
-272.370	358.372	-0.183	0.361
-271.355	-18.466	0.226	-0.139
-270.340	-85.778	-0.116	-0.036
-269.326	-200.000	-0.019	0.095
-268.311	-200.000	-0.035	-0.155
-267.297	-47.811	0.421	0.201
-266.282	56.503	0.058	-0.055
-265.267	23.416	0.207	0.168
-264.253	290.041	-0.064	0.114
-263.238	108.576	-0.133	-0.156
-262.224	46.127	-0.048	0.044
-261.209	278.275	0.071	-0.125
-260.195	462.322	0.125	-0.276
-259.180	4.212	0.245	-0.177
-258.165	-35.810	-0.127	-0.068
-257.151	-200.000	-0.009	0.541
-256.136	477.764	0.048	-0.108
-255.122	196.349	-0.084	-0.126
-254.107	-156.060	-0.026	-0.002
-253.092	622.767	-0.151	0.374
-252.078	-181.619	0.007	-0.000
-251.063	121.189	0.188	0.231
-250.049	800.000	0.021	0.064
-249.034	-200.000	-0.008	0.204
-248.019	-200.000	-0.001	0.011
-247.005	-24.850	0.227	0.133
-245.990	162.370	0.102	-0.141
-244.976	338.632	0.137	0.264
-243.961	99.878	0.129	-0.148
-242.946	4.324	-0.299	0.216
-241.932	230.945	0.159	0.257
-240.917	177.029	-0.163	-0.234
-239.903	-200.000	0.006	-0.228
-238.888	800.000	0.045	0.122
-237.873	320.940	-0.096	-0.180
-236.859	800.000	-0.011	-0.031
-235.844	800.000	0.123	0.341
-234.830	-167.445	-0.245	0.010
-233.815	-149.268	0.245	-0.019
-232.800	52.997	0.146	-0.138
-231.786	70.628	0.071	0.072
-230.771	167.622	0.053	-0.074
-229.757	629.526	-0.067	-0.167
-228.742	512.649	-0.165	0.380
-227.727	800.000	0.102	-0.290
-226.713	-70.126	-0.371	0.139
-225.698	4.845	-0.253	-0.183
-224.684	-22.686	0.131	-0.078
-223.669	-122.535	0.090	-0.014
-222.655	-36.652	0.286	0.152
-221.640	-31.351	-0.056	0.031
-220.625	-200.000	-0.028	-0.161
-219.611	548.020	-0.056	0.131
-218.596	-161.336	-0.169	0.009
-217.582	38.769	-0.219	0.193
-216.567	-88.395	0.458	0.135
-215.552	-200.000	-0.009	-0.280
-214.538	-167.322	0.107	-0.004
-213.523	800.000	0.071	0.259
-212.509	128.144	-0.186	0.233
-211.494	265.868	-0.198	0.340
-210.479	-42.213	0.109	-0.055
-209.465	247.289	-0.099	0.164
-208.450	-141.393	0.329	0.033
-207.436	-31.958	0.053	0.029
-206.421	-3.287	0.210	-0.144
-205.406	-108.702	-0.347	0.073
-204.392	-108.631	-0.275	-0.058
-203.377	-42.290	0.112	-0.056
-202.363	11.250	-0.201	0.152
-201.348	372.379	0.053	0.107
-200.333	-79.094	-0.327	0.109
-199.319	-78.479	-0.195	0.066
-198.304	-200.000	0.001	0.094
-197.290	125.945	0.212	0.263
-196.275	-200.000	0.022	0.233
-195.260	31.560	0.057	-0.049
-194.246	26.332	0.268	-0.221
-193.231	-129.360	-0.134	0.018
-192.217	-200.000	0.052	0.261
-191.202	111.454	0.116	0.138
-190.187	-200.000	0.050	-0.283
-189.173	205.259	0.056	-0.086
-188.158	-130.975	0.216	0.028
-187.144	-108.263	0.281	-0.060
-186.129	193.692	0.025	-0.037
-185.114	-27.251	-0.311	0.178
-184.100	93.808	-0.168	0.187
-183.085	718.318	-0.094	0.246
-182.071	147.036	0.093	-0.123
-181.056	449.098	0.046	-0.099
-180.042	800.000	0.057	-0.194
-179.027	-200.000	-0.008	0.059
-178.012	530.976	-0.104	0.242
-176.998	50.899	0.049	0.046
-175.983	-166.676	-0.346	0.014
-174.969	-114.730	-0.415	0.078
-173.954	128.134	0.117	-0.146
-172.939	-75.327	0.224	-0.079
-171.925	475.716	0.076	-0.169
-170.910	-7.541	0.449	0.299
-169.896	55.570	0.061	-0.058
-168.881	-57.739	-0.345	0.149
-167.866	274.012	0.158	0.274
-166.852	-23.990	0.234	-0.138
-165.837	594.088	-0.084	-0.204
-164.823	-113.641	0.318	-0.061
-163.808	-200.000	-0.035	-0.247
-162.793	800.000	0.055	0.213
-161.779	688.301	0.139	-0.357
-160.764	-200.000	0.028	-0.318
-159.750	45.317	0.247	-0.224
-158.735	109.618	-0.177	0.209
-157.720	6.696	-0.338	0.247
-156.706	136.159	-0.083	0.107
-155.691	147.318	0.216	0.286
-154.677	-200.000	0.020	0.270
-153.662	-52.574	-0.088	0.040
-152.647	38.156	-0.308	-0.269
-151.633	69.804	0.044	0.045
-150.618	223.769	-0.146	0.231
-149.604	136.936	0.368	0.473
-148.589	336.809	-0.079	0.150
-147.574	-12.377	0.351	-0.225
-146.560	-141.824	-0.197	-0.019
-145.545	-65.709	0.335	-0.132
-144.531	-103.275	0.098	-0.023
-143.516	510.612	0.198	-0.453
-142.502	4.804	0.047	-0.034
-141.487	-2.155	-0.440	0.303
-140.472	-200.000	0.025	-0.124
-139.458	378.469	-0.099	0.199
-138.443	122.288	0.083	0.102
-137.429	777.072	-0.044	0.117
-136.414	-21.855	-0.333	-0.199
-135.399	-160.612	-0.236	0.012
-134.385	3.510	0.076	0.055
-133.370	-63.622	-0.168	-0.068
-132.356	-106.869	-0.136	-0.030
-131.341	61.859	0.207	0.202
-130.326	-155.371	0.328	0.021
-129.312	-96.926	0.297	-0.076
-128.297	-54.317	0.125	-0.056
-127.283	-200.000	0.036	0.416
-126.268	67.537	-0.132	0.132
-125.253	4.662	0.377	-0.272
-124.239	-200.000	-0.014	0.210
-123.224	-157.188	0.156	-0.009
-122.210	800.000	0.048	-0.137
-121.195	-200.000	0.015	0.068
-120.180	-200.000	-0.008	-0.223
-119.166	74.732	-0.204	0.211
-118.151	432.317	-0.002	-0.004
-117.137	-41.394	0.205	-0.104
-116.122	800.000	0.082	0.313
-115.107	-106.878	-0.296	0.064
-114.093	-157.476	-0.189	-0.011
-113.078	199.489	-0.064	0.096
-112.064	624.417	0.094	0.232
-111.049	303.843	0.198	0.360
-110.034	259.382	0.121	-0.206
-109.020	800.000	0.019	-0.071
-108.005	800.000	-0.105	0.326
-106.991	211.016	-0.210	0.324
-105.976	-200.000	0.004	0.214
-104.962	404.311	-0.083	-0.171
-103.947	-65.331	0.203	0.080
-102.932	222.962	-0.090	-0.142
-101.918	51.356	-0.131	-0.122
-100.903	-125.132	-0.174	0.026
-99.889	172.538	-0.174	0.245
-98.874	633.906	-0.029	0.073
-97.859	800.000	-0.017	-0.057
-96.845	-111.202	-0.080	-0.016
-95.830	-200.000	-0.004	0.135
-94.816	55.810	0.074	-0.070
-93.801	-116.598	0.152	-0.027
-92.786	294.469	0.053	0.095
-91.772	-197.467	-0.049	0.000
-90.757	20.033	-0.180	0.142
-89.743	-104.519	0.132	0.030
-88.728	4.314	-0.351	0.252
-87.713	-63.212	0.031	0.013
-86.699	15.839	-0.091	0.070
-85.684	225.055	-0.129	0.204
-84.670	-32.451	0.118	0.065
-83.655	645.497	0.104	-0.259
-82.640	-100.461	-0.080	-0.020
-81.626	-0.514	0.099	0.069
-80.611	-106.657	-0.218	-0.048
-79.597	-18.073	0.226	0.139
-78.582	231.408	0.267	-0.429
-77.567	56.250	-0.283	0.270
-76.553	70.302	-0.207	0.209
-75.538	800.000	0.078	0.233
-74.524	14.866	0.163	0.125
-73.509	-46.607	0.084	0.040
-72.494	241.311	-0.114	-0.187
-71.480	-90.258	0.225	-0.064
-70.465	157.323	-0.119	0.161
-69.451	800.000	-0.081	0.240
-68.436	108.348	-0.225	0.263
-67.422	-200.000	-0.039	-0.349
-66.407	-160.814	-0.379	0.020
-65.392	-50.285	0.387	0.179
-64.378	157.598	-0.240	-0.326
-63.363	-200.000	-0.000	-0.205
-62.349	10.096	-0.068	-0.051
-61.334	350.623	-0.588	-1.139
-60.319	43.057	0.549	0.490
-59.305	261.549	-0.562	-0.954
-58.290	423.194	0.682	1.435
-57.276	297.810	0.820	1.475
-56.261	-200.000	110.081	587.165
-55.246	414.532	1527.118	3184.429
-54.232	140.181	2728.442	3524.104
-53.217	95.330	2327.732	2597.688
-52.203	37.070	1928.857	1671.478
-51.188	31.291	1714.534	1441.266
-50.173	28.702	1672.326	1386.213
-49.159	48.499	1726.878	1583.781
-48.144	48.317	1740.879	1595.164
-47.130	30.930	1699.096	1425.299
-46.115	28.176	1684.452	1392.039
-45.100	28.097	1679.259	1387.096
-44.086	28.062	1676.262	1384.297
-43.071	28.001	1674.188	1382.074
-42.057	27.914	1671.856	1379.434
-41.042	27.970	1669.853	1378.149
-40.027	28.028	1667.495	1376.586
-39.013	28.103	1664.715	1374.803
-37.998	27.964	1663.674	1372.838
-36.984	28.052	1662.151	1372.192
-35.969	28.161	1660.666	1371.724
-34.954	28.118	1659.817	1370.650
-33.940	28.137	1658.091	1369.310
-32.925	28.194	1655.643	1367.660
-31.911	28.142	1654.378	1366.177
-30.896	28.178	1652.334	1364.699
-29.881	28.199	1650.912	1363.627
-28.867	28.100	1649.086	1361.330
-27.852	28.175	1647.602	1360.611
-26.838	28.129	1646.294	1359.130
-25.823	28.044	1645.595	1357.867
-24.809	28.202	1643.769	1357.485
-23.794	28.195	1642.402	1356.246
-22.779	28.161	1640.906	1354.704
-21.765	28.131	1639.322	1353.121
-20.750	28.180	1637.388	1351.836
-19.736	28.197	1636.389	1351.084
-18.721	28.196	1635.239	1350.073
-17.706	28.196	1633.965	1348.968
-16.692	28.165	1632.054	1347.106
-15.677	28.164	1631.276	1346.405
-14.663	28.292	1629.513	1345.834
-13.648	28.173	1627.547	1343.285
-12.633	28.173	1626.120	1342.051
-11.619	28.137	1624.749	1340.603
-10.604	28.087	1623.258	1338.954
-9.590	28.240	1621.445	1338.522
-8.575	28.264	1620.440	1337.818
-7.560	28.270	1619.279	1336.849
-6.546	28.276	1618.441	1336.147
-5.531	28.159	1617.430	1334.405
-4.517	28.117	1616.504	1333.286
-3.502	28.222	1615.228	1332.943
-2.487	28.271	1613.527	1331.845
-1.473	28.190	1601.646	1321.400
-0.458	25.784	1583.583	1289.244
0.556	20.896	1586.004	1260.252
1.571	18.692	1610.596	1263.477
2.586	18.267	1622.278	1269.374
3.600	16.506	1568.534	1214.576
4.615	9.134	1456.937	1078.704
5.629	1.927	1392.534	984.525
6.644	0.456	1384.547	969.348
7.659	0.348	1383.521	967.852
8.673	0.319	1382.668	966.982
9.688	0.246	1380.517	964.924
10.702	0.112	1377.205	961.667
11.717	3.498	1383.090	987.391
12.731	11.504	1394.950	1047.296
13.746	16.448	1401.745	1084.095
14.761	16.929	1401.053	1086.543
15.775	16.297	1398.778	1080.638
16.790	15.269	1396.250	1072.019
17.804	14.426	1394.428	1065.142
18.819	14.114	1392.880	1061.872
19.834	13.924	1391.575	1059.574
20.848	13.658	1390.079	1056.647
21.863	13.515	1388.417	1054.375
22.877	13.163	1387.948	1051.688
23.892	13.095	1386.988	1050.433
24.907	13.120	1385.638	1049.474
25.921	13.238	1384.744	1049.454
26.936	13.295	1383.944	1049.119
27.950	13.307	1383.040	1048.417
28.965	13.341	1382.004	1047.757
29.980	13.380	1380.923	1047.087
30.994	13.285	1380.258	1045.888
32.009	13.490	1379.188	1046.282
33.023	13.307	1378.128	1044.229
34.038	13.377	1376.603	1043.423
35.053	13.379	1375.768	1042.711
36.067	13.347	1375.000	1041.835
37.082	13.305	1374.173	1040.849
38.096	13.445	1373.077	1040.810
39.111	13.403	1372.292	1039.860
40.126	13.366	1371.037	1038.586
41.140	13.264	1370.767	1037.650
42.155	13.100	1370.844	1036.583
43.169	13.142	1369.972	1036.096
44.184	13.168	1369.595	1035.881
45.199	13.146	1369.049	1035.242
46.213	13.183	1368.616	1035.056
47.228	13.324	1367.662	1035.121
48.242	13.259	1366.603	1033.821
49.257	13.246	1365.115	1032.524
50.271	13.290	1363.759	1031.684
51.286	13.368	1362.501	1031.125
52.301	13.333	1361.131	1029.778
53.315	13.325	1359.764	1028.608
54.330	13.261	1358.949	1027.502
55.344	13.209	1357.622	1026.080
56.359	13.195	1356.921	1025.378
57.374	13.251	1355.645	1024.669
58.388	13.151	1355.209	1023.625
59.403	13.153	1354.489	1023.007
60.417	13.155	1353.597	1022.251
61.432	13.088	1352.947	1021.255
62.447	13.028	1352.153	1020.200
63.461	13.025	1350.844	1019.100
64.476	13.076	1349.601	1018.390
65.490	13.202	1348.207	1018.020
66.505	13.152	1346.746	1016.522
67.520	13.193	1345.295	1015.590
68.534	13.159	1344.291	1014.534
69.549	13.206	1343.049	1013.791
70.563	13.188	1342.258	1012.995
71.578	13.102	1341.327	1011.676
72.593	13.209	1340.106	1011.320
73.607	13.146	1339.368	1010.286
74.622	13.060	1338.660	1009.141
75.636	12.981	1337.938	1008.021
76.651	13.106	1336.929	1007.935
77.666	13.023	1336.604	1007.098
78.680	13.094	1336.241	1007.164
79.695	13.137	1335.171	1006.535
80.709	13.094	1334.229	1005.471
81.724	13.179	1333.062	1005.022
82.739	13.266	1332.204	1004.815
83.753	13.268	1331.135	1003.929
84.768	13.288	1330.197	1003.254
85.782	13.272	1329.274	1002.372
86.797	13.357	1327.294	1001.309
87.812	13.190	1326.471	999.590
88.826	13.286	1325.183	999.110
89.841	13.224	1324.429	998.077
90.855	13.293	1323.342	997.583
91.870	13.331	1322.174	996.847
92.884	13.420	1321.295	996.629
93.899	13.402	1320.423	995.778
94.914	13.267	1320.312	994.794
95.928	13.418	1319.142	994.729
96.943	13.387	1318.036	993.625
97.957	13.274	1317.990	992.822
98.972	13.348	1316.536	992.085
99.987	13.338	1315.048	990.815
101.001	13.294	1314.406	989.981
102.016	13.420	1313.239	989.768
103.030	13.391	1312.629	989.046
104.045	13.337	1311.543	987.815
105.060	13.325	1310.349	986.760
106.074	13.281	1308.925	985.337
107.089	13.275	1307.505	984.146
108.103	13.191	1306.316	982.663
109.118	13.188	1305.285	981.784
110.133	13.196	1303.591	980.469
111.147	13.220	1302.231	979.503
112.162	13.233	1301.178	978.701
113.176	13.372	1299.921	978.493
114.191	13.346	1299.296	977.781
115.206	13.355	1298.131	976.871
116.220	13.270	1297.034	975.455
117.235	13.357	1295.803	974.960
118.249	13.265	1294.869	973.625
119.264	13.226	1293.898	972.580
120.279	13.284	1292.605	971.862
121.293	13.272	1291.027	970.522
122.308	13.275	1290.119	969.769
123.322	13.248	1289.292	968.902
124.337	13.229	1288.347	967.999
125.352	13.306	1286.796	967.199
126.366	13.292	1285.844	966.317
127.381	13.280	1284.890	965.444
128.395	13.174	1284.136	964.168
129.410	13.300	1282.419	963.529
130.424	13.291	1282.327	963.326
131.439	13.308	1280.982	962.329
132.454	13.344	1279.794	961.558
133.468	13.264	1279.346	960.672
134.483	13.356	1278.484	960.476
135.497	13.306	1277.730	959.532
136.512	13.302	1276.005	958.128
137.527	13.302	1274.583	956.976
138.541	13.299	1273.482	956.049
139.556	13.302	1271.954	954.836
140.570	13.235	1271.525	954.043
141.585	13.452	1269.701	953.840
142.600	13.448	1268.122	952.545
143.614	13.456	1267.404	951.966
144.629	13.366	1266.526	950.705
145.643	13.537	1265.228	950.627
146.658	13.472	1264.495	949.622
147.673	13.443	1262.672	948.001
148.687	13.432	1261.625	947.069
149.702	13.317	1260.423	945.426
150.716	13.387	1258.349	944.188
151.731	13.345	1257.754	943.418
152.746	13.443	1256.225	942.742
153.760	13.476	1255.203	942.083
154.775	13.324	1254.973	940.962
155.789	13.458	1253.425	940.481
156.804	13.500	1252.377	939.849
157.819	13.529	1251.316	939.133
158.833	13.549	1250.185	938.311
159.848	13.727	1249.172	938.479
160.862	13.603	1248.214	936.972
161.877	13.553	1247.319	935.937
162.892	13.556	1245.975	934.863
163.906	13.438	1245.573	933.811
164.921	13.551	1243.836	933.062
165.935	13.564	1243.805	933.029
166.950	13.548	1243.133	932.355
167.964	13.615	1242.046	931.831
168.979	13.542	1241.539	930.959
169.994	13.618	1240.552	930.566
171.008	13.663	1239.698	930.094
172.023	13.751	1238.239	929.411
173.037	13.617	1238.052	928.437
174.052	13.682	1236.981	927.916
175.067	13.667	1236.372	927.292
176.081	13.594	1234.930	925.721
177.096	13.577	1234.309	925.077
178.110	13.555	1233.453	924.235
179.125	13.631	1232.365	923.761
180.140	13.678	1230.401	922.470
181.154	13.734	1229.434	921.974
182.169	13.813	1228.072	921.307
183.183	13.830	1226.867	920.417
184.198	13.858	1225.957	919.806
185.213	13.800	1224.672	918.441
186.227	13.786	1223.767	917.606
187.242	13.810	1222.721	916.870
188.256	13.931	1221.603	916.620
189.271	13.907	1220.657	915.696
190.286	13.811	1219.455	914.183
191.300	13.732	1218.742	913.135
192.315	13.797	1218.231	913.028
193.329	13.662	1217.439	911.614
194.344	13.823	1216.788	911.929
195.359	13.891	1216.338	911.885
196.373	13.927	1215.694	911.520
197.388	13.995	1214.805	911.145
198.402	14.090	1214.406	911.284
199.417	14.063	1214.043	910.786
200.432	14.114	1212.726	909.994
201.446	14.067	1212.298	909.336
202.461	14.103	1211.617	908.941
203.475	14.115	1210.336	907.963
204.490	14.143	1208.613	906.744
205.504	14.110	1207.827	905.893
206.519	14.063	1206.776	904.772
207.534	14.027	1205.347	903.426
208.548	14.007	1204.591	902.667
209.563	14.078	1203.603	902.236
210.577	14.147	1202.274	901.529
211.592	14.127	1201.942	901.092
212.607	14.254	1200.807	900.851
213.621	14.224	1200.349	900.265
214.636	14.149	1199.383	899.056
215.650	14.269	1198.215	898.751
216.665	14.293	1197.246	898.073
217.680	14.325	1196.449	897.566
218.694	14.383	1195.307	896.943
219.709	14.335	1194.798	896.225
220.723	14.349	1194.203	895.773
221.738	14.385	1193.342	895.240
222.753	14.385	1192.803	894.756
223.767	14.329	1192.133	893.873
224.782	14.456	1191.529	894.026
225.796	14.444	1190.405	893.037
226.811	14.469	1189.719	892.576
227.826	14.428	1189.230	891.910
228.840	14.498	1188.436	891.612
229.855	14.417	1187.718	890.562
230.869	14.411	1186.843	889.795
231.884	14.483	1186.027	889.491
232.899	14.338	1185.715	888.401
233.913	14.316	1185.027	887.691
234.928	14.409	1183.793	887.181
235.942	14.400	1182.682	886.226
236.957	14.378	1182.227	885.687
237.972	14.442	1181.647	885.517
238.986	14.434	1180.762	884.729
240.001	14.449	1180.105	884.239
241.015	14.421	1179.292	883.405
242.030	14.538	1178.494	883.351
243.045	14.594	1177.698	882.970
244.059	14.594	1177.110	882.448
245.074	14.656	1175.893	881.787
246.088	14.571	1175.064	880.640
247.103	14.561	1174.370	879.991
248.117	14.638	1174.074	880.096
249.132	14.752	1172.604	879.515
250.147	14.696	1171.933	878.643
251.161	14.727	1171.625	878.492
252.176	14.840	1170.832	878.414
253.190	14.883	1170.216	878.102
254.205	14.934	1169.570	877.809
255.220	14.943	1169.061	877.393
256.234	14.920	1168.840	877.029
257.249	14.927	1167.845	876.242
258.263	15.000	1166.949	875.873
259.278	14.934	1166.680	875.248
260.293	15.027	1166.018	875.165
261.307	15.012	1165.290	874.459
262.322	15.128	1164.298	874.243
263.336	15.060	1163.711	873.370
264.351	15.076	1163.268	873.048
265.366	15.035	1162.711	872.338
266.380	15.090	1161.920	871.951
267.395	15.156	1160.755	871.342
268.409	15.057	1160.349	870.445
269.424	15.155	1159.395	870.162
270.439	15.200	1159.382	870.312
271.453	15.137	1158.526	869.264
272.468	15.197	1157.217	868.516
273.482	15.189	1156.350	867.746
274.497	15.094	1156.423	867.231
275.512	15.229	1155.356	867.053
276.526	15.087	1154.961	865.945
277.541	15.224	1153.712	865.643
278.555	15.230	1153.471	865.416
279.570	15.220	1152.413	864.496
280.585	15.319	1151.611	864.326
281.599	15.223	1151.047	863.332
282.614	15.359	1149.667	862.921
283.628	15.342	1148.704	862.031
284.643	15.269	1147.833	860.928
285.657	15.347	1147.119	860.719
286.672	15.395	1146.061	860.094
287.687	15.319	1145.277	859.040
288.701	15.347	1144.630	858.621
289.716	15.465	1143.457	858.270
290.730	15.449	1142.977	857.749
291.745	15.498	1142.125	857.287
292.760	15.409	1141.772	856.493
293.774	15.483	1140.890	856.129
294.789	15.532	1140.246	855.819
295.803	15.410	1139.886	854.852
296.818	15.482	1139.071	854.533
297.833	15.421	1138.070	853.394
298.847	15.509	1137.308	853.198
299.862	15.581	1136.462	852.853
300.876	15.574	1135.849	852.279
301.891	15.625	1135.103	851.903
302.906	15.659	1134.609	851.630
303.920	15.722	1133.674	851.174
304.935	15.734	1133.190	850.796
305.949	15.756	1132.687	850.453
306.964	15.725	1131.785	849.545
307.979	15.771	1131.061	849.156
308.993	15.784	1130.097	848.426
310.008	15.904	1129.419	848.447
311.022	15.886	1129.001	847.965
312.037	15.805	1127.886	846.643
313.052	15.776	1127.055	845.802
314.066	15.791	1125.966	844.982
315.081	15.668	1125.398	843.865
316.095	15.809	1124.430	843.771
317.110	15.807	1124.092	843.435
318.125	15.751	1123.619	842.725
319.139	15.766	1122.902	842.187
320.154	15.738	1121.951	841.260
321.168	15.790	1121.379	841.013
322.183	15.806	1120.996	840.734
323.197	15.827	1119.999	840.015
324.212	15.796	1119.411	839.345
325.227	15.917	1118.600	839.268
326.241	15.938	1117.796	838.691
327.256	15.916	1117.444	838.244
328.270	15.718	1116.018	836.115
329.285	15.781	1115.712	836.125
330.300	15.880	1114.604	835.715
331.314	15.987	1113.397	835.267
332.329	15.945	1112.963	834.659
333.343	15.945	1111.601	833.561
334.358	16.053	1110.782	833.409
335.373	16.066	1110.010	832.823
336.387	15.933	1109.639	831.811
337.402	15.996	1108.849	831.457
338.416	15.947	1108.188	830.648
339.431	16.151	1107.540	831.095
340.446	16.004	1107.302	830.117
341.460	16.144	1106.506	830.134
342.475	16.173	1105.274	829.279
343.489	16.194	1104.348	828.615
344.504	16.385	1103.525	828.863
345.519	16.354	1102.495	827.861
346.533	16.146	1102.053	826.436
347.548	16.265	1101.285	826.369
348.562	16.251	1100.456	825.609
349.577	16.344	1099.414	825.206
350.592	16.316	1098.466	824.287
351.606	16.301	1098.093	823.858
352.621	16.302	1097.252	823.161
353.635	16.245	1097.036	822.649
354.650	16.244	1096.321	822.035
355.665	16.238	1095.556	821.358
356.679	16.312	1094.455	820.822
357.694	16.381	1094.014	820.752
358.708	16.353	1093.230	819.956
359.723	16.383	1092.491	819.476
360.738	16.401	1092.174	819.252
361.752	16.321	1091.446	818.245
362.767	16.363	1091.108	818.123
363.781	16.440	1090.385	817.881
364.796	16.448	1089.609	817.264
365.810	16.607	1088.795	817.352
366.825	16.654	1087.809	816.763
367.840	16.578	1088.003	816.470
368.854	16.690	1087.689	816.702
369.869	16.701	1086.541	815.824
370.883	16.671	1085.792	815.045
371.898	16.597	1084.950	813.984
372.913	16.707	1084.457	814.069
373.927	16.587	1084.138	813.184
374.942	16.743	1083.584	813.443
375.956	16.681	1083.257	812.828
376.971	16.760	1082.397	812.489
377.986	16.796	1081.514	811.927
379.000	16.745	1081.102	811.305
380.015	16.755	1080.432	810.776
381.029	16.847	1079.955	810.785
382.044	16.858	1079.078	810.111
383.059	16.860	1078.388	809.529
384.073	16.954	1077.231	809.036
385.088	16.853	1076.554	807.976
386.102	17.033	1075.305	807.825
387.117	16.834	1074.942	806.534
388.132	16.812	1074.141	805.753
389.146	16.933	1072.914	805.336
390.161	16.895	1072.713	804.935
391.175	16.986	1071.462	804.360
392.190	16.975	1070.756	803.703
393.205	17.030	1070.148	803.436
394.219	16.985	1069.582	802.729
395.234	17.069	1068.149	801.977
396.248	16.961	1067.220	800.700
397.263	16.960	1066.391	800.002
398.278	17.025	1065.694	799.715
399.292	17.000	1065.026	799.027
400.307	16.975	1064.272	798.272
401.321	16.889	1064.432	797.918
402.336	17.044	1063.249	797.689
403.350	16.988	1062.547	796.830
404.365	16.978	1062.317	796.536
405.380	17.084	1061.185	796.113
406.394	17.138	1060.549	795.823
407.409	17.229	1059.461	795.361
408.423	17.160	1058.645	794.355
409.438	17.211	1058.293	794.259
410.453	17.292	1057.642	794.077
411.467	17.290	1056.859	793.409
412.482	17.414	1055.615	792.984
413.496	17.398	1055.409	792.684
414.511	17.359	1054.965	792.098
415.526	17.441	1054.572	792.117
416.540	17.303	1054.146	791.084
417.555	17.417	1053.291	790.902
418.569	17.423	1053.063	790.690
419.584	17.424	1052.273	790.028
420.599	17.371	1052.006	789.516
421.613	104.336	1327.352	1476.328
422.628	96.025	1367.418	1476.408
