DTS Sentinel unit serial number:	SN413079Multiplexer serial number:	ORYXHardware model number:	OX4-SRSoftware version number:	ORYX F/W v4.00 Oryx Data Collector v3.7.2.0data status	okinstallation	princeton_trtdifferential loss correction	single-endedforward channel	channel 2reverse channel	N/Adate	2019/09/17time	16:07:34forward acquisition time	60.00reverse acquisition time	0.00gamma	496.2192k internal	0.2297k external	0.2297temperature offset calibration	0.9983default loss term (dB/km)	0.3790temperature slope calibration	1.0000multiplexer offset coefficient	1.0000multiplexer slope coefficient	1.0000fibre end	0.00T internal ref (°C)	40.34T ext. ref 1 (°C)	0.37T ext. ref 2 (°C)	38.69length (m)	temperature (°C)	Stokes	anti-Stokes-747.200	508.655	-0.117	0.279
-746.185	-172.754	-0.325	-0.010
-745.171	150.635	-0.054	-0.074
-744.156	-116.651	0.294	-0.055
-743.142	142.857	-0.219	-0.297
-742.127	800.000	-0.046	0.138
-741.112	56.088	-0.172	0.170
-740.098	174.235	-0.158	0.233
-739.083	-115.957	0.300	-0.057
-738.069	-16.408	-0.095	-0.061
-737.054	-54.548	-0.162	0.075
-736.039	-200.000	-0.004	-0.179
-735.025	-47.844	0.034	0.017
-734.010	292.399	-0.134	0.249
-732.996	-124.053	0.058	-0.009
-731.981	-128.829	0.248	0.036
-730.966	-110.786	0.503	-0.106
-729.952	-142.882	0.073	0.007
-728.937	292.656	0.138	-0.257
-727.923	-176.538	-0.140	-0.004
-726.908	298.408	-0.216	-0.406
-725.894	180.224	0.098	-0.147
-724.879	-149.860	-0.262	-0.021
-723.864	-7.705	0.273	0.188
-722.850	-25.199	-0.318	-0.192
-721.835	352.006	0.106	0.214
-720.821	288.297	-0.133	-0.245
-719.806	69.175	0.216	-0.226
-718.791	-42.620	-0.227	0.118
-717.777	261.057	-0.072	-0.127
-716.762	-42.563	-0.281	-0.146
-715.748	-14.640	-0.432	-0.283
-714.733	-150.188	-0.220	-0.017
-713.718	-200.000	-0.055	-0.261
-712.704	-200.000	-0.019	0.317
-711.689	800.000	0.068	-0.218
-710.675	-84.037	0.044	-0.014
-709.660	-200.000	-0.005	0.207
-708.645	5.965	-0.214	-0.162
-707.631	-134.017	-0.567	0.072
-706.616	-39.669	-0.243	0.129
-705.602	-200.000	-0.061	-0.285
-704.587	-200.000	0.006	-0.141
-703.572	-133.869	-0.255	-0.032
-702.558	29.102	0.070	-0.061
-701.543	108.126	0.110	-0.133
-700.529	64.572	0.318	0.327
-699.514	-200.000	0.026	-0.301
-698.499	216.373	-0.161	-0.261
-697.485	-70.344	0.217	0.084
-696.470	75.989	-0.066	0.071
-695.456	47.000	0.098	0.093
-694.441	-102.108	0.417	-0.102
-693.426	-80.222	-0.151	0.051
-692.412	270.468	0.096	-0.173
-691.397	-141.875	-0.397	-0.040
-690.383	-139.175	-0.244	-0.027
-689.368	306.538	0.059	-0.112
-688.354	800.000	0.058	0.245
-687.339	96.742	0.145	0.169
-686.324	-73.927	0.326	0.121
-685.310	-124.301	0.261	0.042
-684.295	277.175	0.239	-0.433
-683.281	-200.000	0.026	-0.187
-682.266	800.000	0.091	-0.398
-681.251	19.451	0.236	-0.193
-680.237	316.097	-0.120	0.230
-679.222	94.646	0.142	-0.165
-678.208	-84.527	0.035	-0.011
-677.193	-200.000	-0.012	-0.370
-676.178	800.000	-0.150	-0.438
-675.164	543.175	0.096	-0.232
-674.149	90.865	-0.148	-0.169
-673.135	386.972	-0.040	0.083
-672.120	-179.747	-0.103	-0.002
-671.105	800.000	-0.087	0.314
-670.091	-58.815	-0.200	-0.088
-669.076	-200.000	0.019	0.130
-668.062	139.731	-0.006	-0.008
-667.047	34.195	0.173	0.154
-666.032	-30.574	0.173	0.100
-665.018	-77.115	0.244	-0.086
-664.003	165.105	0.107	-0.153
-662.989	174.156	0.200	-0.295
-661.974	-78.917	-0.445	-0.154
-660.959	72.258	-0.163	-0.173
-659.945	36.072	0.145	-0.130
-658.930	-200.000	0.028	-0.285
-657.916	7.790	0.139	0.106
-656.901	-134.220	0.307	-0.039
-655.886	23.844	-0.122	0.102
-654.872	118.691	-0.035	0.044
-653.857	-63.401	0.089	0.037
-652.843	-165.089	-0.345	0.016
-651.828	-114.157	-0.311	-0.061
-650.814	800.000	-0.082	0.239
-649.799	-71.790	-0.197	-0.075
-648.784	15.744	0.323	0.258
-647.770	73.517	-0.071	-0.076
-646.755	800.000	-0.048	0.156
-645.741	98.488	-0.104	-0.122
-644.726	-134.358	0.179	0.022
-643.711	-31.405	-0.022	-0.013
-642.697	-153.782	0.261	-0.018
-641.682	-174.721	0.217	-0.006
-640.668	-117.041	-0.276	0.051
-639.653	67.771	0.265	0.275
-638.638	25.084	-0.252	0.213
-637.624	-32.002	-0.273	-0.155
-636.609	-124.370	-0.451	-0.072
-635.595	191.317	-0.338	0.517
-634.580	800.000	0.048	0.138
-633.565	505.401	-0.172	-0.404
-632.551	800.000	0.048	0.211
-631.536	66.938	0.336	0.348
-630.522	-200.000	-0.001	0.107
-629.507	25.324	-0.220	-0.186
-628.492	-22.721	-0.175	-0.108
-627.478	-101.217	-0.226	-0.056
-626.463	43.748	0.099	-0.092
-625.449	-200.000	0.003	0.210
-624.434	-200.000	0.008	-0.273
-623.419	-163.310	-0.172	-0.008
-622.405	-7.612	-0.054	-0.037
-621.390	60.828	-0.231	-0.232
-620.376	694.859	-0.202	-0.539
-619.361	-130.587	0.098	0.013
-618.346	-144.073	-0.207	-0.020
-617.332	-46.573	0.110	0.055
-616.317	-58.450	0.177	0.078
-615.303	55.772	-0.021	0.021
-614.288	-200.000	0.007	0.404
-613.273	-65.936	0.173	-0.070
-612.259	-200.000	0.011	-0.166
-611.244	-35.088	-0.273	0.151
-610.230	182.175	0.072	0.107
-609.215	-44.789	-0.281	-0.143
-608.201	-200.000	-0.019	0.385
-607.186	400.555	0.026	0.055
-606.171	-156.408	0.369	-0.023
-605.157	150.199	-0.097	-0.133
-604.142	53.085	0.046	-0.044
-603.128	618.190	-0.082	0.209
-602.113	159.516	-0.076	0.107
-601.098	-54.567	0.086	-0.039
-600.084	258.844	-0.057	0.100
-599.069	90.019	-0.126	0.143
-598.055	-59.375	0.259	0.113
-597.040	46.094	0.162	0.152
-596.025	123.264	0.093	0.119
-595.011	74.349	0.128	0.137
-593.996	121.375	0.160	-0.203
-592.982	800.000	0.011	-0.039
-591.967	15.529	0.159	0.127
-590.952	31.084	0.128	-0.112
-589.938	134.040	0.301	-0.395
-588.923	-200.000	0.007	0.091
-587.909	-200.000	-0.040	0.302
-586.894	-200.000	0.017	0.372
-585.879	-200.000	-0.005	-0.114
-584.865	-200.000	-0.001	0.031
-583.850	97.913	0.271	-0.317
-582.836	800.000	-0.109	-0.408
-581.821	-47.066	-0.348	0.172
-580.806	-123.081	0.307	-0.050
-579.792	-200.000	0.042	0.249
-578.777	578.907	0.052	-0.130
-577.763	88.703	-0.101	0.114
-576.748	89.908	-0.218	0.247
-575.733	-39.466	-0.190	-0.101
-574.719	310.223	0.179	0.340
-573.704	-61.111	0.149	0.064
-572.690	-148.072	-0.160	0.013
-571.675	-49.269	0.134	0.065
-570.661	5.308	-0.090	-0.068
-569.646	86.164	0.149	0.167
-568.631	-59.113	-0.334	-0.146
-567.617	5.811	-0.088	-0.066
-566.602	94.378	-0.127	0.146
-565.588	-4.045	-0.161	0.113
-564.573	-42.708	0.133	0.069
-563.558	99.030	0.149	0.174
-562.544	800.000	-0.036	0.134
-561.529	22.235	0.183	-0.152
-560.515	166.310	0.011	-0.016
-559.500	-39.038	-0.109	-0.058
-558.485	-10.774	0.071	0.047
-557.471	34.440	0.173	0.153
-556.456	-95.268	-0.422	-0.115
-555.442	10.326	0.073	-0.056
-554.427	-200.000	-0.018	0.192
-553.412	-118.311	-0.282	0.051
-552.398	-200.000	0.002	-0.279
-551.383	800.000	-0.074	-0.212
-550.369	800.000	-0.118	0.468
-549.354	232.141	0.034	-0.056
-548.339	800.000	0.033	0.135
-547.325	-200.000	-0.004	-0.092
-546.310	-89.055	0.296	0.089
-545.296	37.799	-0.187	-0.168
-544.281	-154.270	-0.087	-0.006
-543.266	-200.000	-0.002	-0.080
-542.252	113.560	0.097	-0.120
-541.237	-144.332	0.172	0.016
-540.223	68.291	-0.013	-0.013
-539.208	29.751	-0.211	-0.182
-538.193	-49.226	-0.346	-0.167
-537.179	-200.000	0.014	0.172
-536.164	-158.366	-0.312	0.018
-535.150	-200.000	-0.100	0.501
-534.135	141.290	-0.183	-0.245
-533.121	92.002	0.196	-0.224
-532.106	45.518	-0.050	-0.046
-531.091	45.001	0.144	0.134
-530.077	-200.000	-0.037	-0.369
-529.062	46.839	0.031	-0.030
-528.048	-200.000	0.043	0.272
-527.033	78.713	-0.185	0.200
-526.018	-200.000	-0.007	-0.325
-525.004	230.577	-0.140	-0.231
-523.989	-200.000	-0.022	-0.214
-522.975	-49.532	0.103	-0.050
-521.960	-153.887	-0.096	0.007
-520.945	-200.000	0.030	-0.207
-519.931	260.123	-0.127	-0.222
-518.916	-118.635	0.245	-0.044
-517.902	123.677	0.090	-0.114
-516.887	-18.540	-0.222	0.140
-515.872	-133.291	0.182	0.023
-514.858	-200.000	0.007	-0.062
-513.843	-200.000	-0.035	0.156
-512.829	-20.332	0.232	0.145
-511.814	84.612	-0.036	-0.040
-510.799	-25.955	0.183	-0.109
-509.785	127.752	0.091	-0.117
-508.770	-61.186	-0.275	0.117
-507.756	-200.000	0.017	0.256
-506.741	482.722	0.059	0.136
-505.726	-131.477	0.270	0.036
-504.712	259.603	-0.248	0.432
-503.697	163.896	0.104	0.149
-502.683	-54.996	-0.248	-0.113
-501.668	-134.191	0.357	-0.045
-500.653	344.426	0.154	-0.305
-499.639	800.000	-0.029	-0.129
-498.624	-200.000	-0.025	0.121
-497.610	215.966	0.249	-0.401
-496.595	316.639	0.087	0.167
-495.581	-200.000	-0.005	0.228
-494.566	-25.874	0.115	-0.068
-493.551	-157.409	0.126	0.008
-492.537	-47.447	0.201	-0.099
-491.522	-200.000	0.003	-0.042
-490.508	152.492	0.084	-0.116
-489.493	418.067	-0.044	-0.094
-488.478	-107.853	-0.088	-0.019
-487.464	369.465	0.056	0.115
-486.449	25.971	-0.302	0.255
-485.435	496.347	-0.055	-0.128
-484.420	-31.879	0.356	0.202
-483.405	-117.423	0.040	-0.007
-482.391	-108.752	-0.306	0.066
-481.376	-83.631	-0.116	-0.037
-480.362	60.129	0.099	-0.098
-479.347	29.177	0.091	-0.078
-478.332	-69.864	-0.234	0.090
-477.318	-200.000	-0.009	-0.213
-476.303	-200.000	-0.007	0.286
-475.289	59.156	-0.313	0.311
-474.274	308.119	0.127	-0.239
-473.259	431.959	-0.212	-0.464
-472.245	44.499	-0.066	-0.061
-471.230	-178.786	-0.159	0.004
-470.216	-52.869	0.072	-0.033
-469.201	-53.874	0.228	0.105
-468.186	37.930	-0.289	0.259
-467.172	800.000	-0.070	0.273
-466.157	-41.544	0.197	0.102
-465.143	17.210	-0.305	0.244
-464.128	-63.076	0.128	-0.054
-463.113	20.306	-0.148	0.120
-462.099	-127.874	0.107	-0.016
-461.084	-87.459	-0.225	0.069
-460.070	-200.000	-0.054	0.342
-459.055	-133.554	0.133	-0.017
-458.040	-91.134	0.216	-0.063
-457.026	247.011	-0.187	-0.319
-456.011	-200.000	-0.002	0.099
-454.997	800.000	0.072	0.278
-453.982	160.054	0.113	0.160
-452.968	-131.128	-0.097	0.013
-451.953	82.256	-0.023	0.025
-450.938	-200.000	0.028	-0.430
-449.924	800.000	-0.037	-0.107
-448.909	800.000	-0.047	0.204
-447.895	404.934	0.063	-0.134
-446.880	-200.000	0.011	-0.121
-445.865	-200.000	0.063	0.304
-444.851	148.932	0.225	0.308
-443.836	66.805	-0.094	-0.096
-442.822	44.117	0.169	-0.156
-441.807	-111.454	0.302	0.062
-440.792	-64.131	0.043	-0.018
-439.778	-81.842	0.477	-0.158
-438.763	353.405	-0.154	0.308
-437.749	-37.063	0.113	0.061
-436.734	-64.695	-0.211	0.086
-435.719	-145.488	-0.133	0.012
-434.705	-103.033	-0.305	-0.073
-433.690	350.521	-0.093	0.185
-432.676	-115.988	-0.263	0.049
-431.661	-25.138	0.209	-0.125
-430.646	103.131	0.144	-0.170
-429.632	-76.699	0.201	-0.071
-428.617	745.439	-0.099	0.269
-427.603	-200.000	0.031	0.467
-426.588	56.066	-0.033	-0.033
-425.573	57.429	-0.156	-0.153
-424.559	130.633	0.313	0.405
-423.544	-11.153	-0.082	0.054
-422.530	60.900	0.067	-0.067
-421.515	-46.939	0.139	-0.068
-420.500	69.260	0.325	0.337
-419.486	-150.621	-0.163	-0.013
-418.471	-29.132	-0.093	-0.054
-417.457	-166.062	-0.203	-0.009
-416.442	-26.210	0.069	-0.041
-415.428	800.000	-0.031	-0.125
-414.413	99.195	0.162	0.189
-413.398	-200.000	-0.010	-0.343
-412.384	-130.496	-0.133	-0.018
-411.369	3.287	0.132	0.097
-410.355	59.476	0.099	0.099
-409.340	-101.242	-0.261	-0.064
-408.325	537.900	0.172	-0.412
-407.311	800.000	0.141	-0.590
-406.296	-200.000	-0.004	0.027
-405.282	358.244	-0.143	0.288
-404.267	-22.058	-0.145	-0.089
-403.252	-58.599	0.249	0.109
-402.238	-125.235	-0.034	0.005
-401.223	-77.209	-0.390	-0.137
-400.209	4.293	-0.417	-0.308
-399.194	-13.245	0.048	-0.032
-398.179	-2.310	0.072	0.051
-397.165	489.795	0.085	-0.196
-396.150	147.777	0.048	0.066
-395.136	-200.000	0.012	-0.071
-394.121	-104.048	0.246	0.058
-393.106	23.512	0.294	-0.243
-392.092	502.665	0.054	-0.125
-391.077	43.431	-0.206	0.190
-390.063	155.391	0.165	-0.229
-389.048	-200.000	0.012	0.062
-388.033	-165.751	-0.212	-0.009
-387.019	595.302	0.039	-0.098
-386.004	22.283	-0.186	-0.153
-384.990	-131.070	0.282	0.038
-383.975	-41.385	0.082	-0.042
-382.960	-200.000	0.002	0.036
-381.946	-80.336	-0.297	-0.100
-380.931	37.946	0.220	-0.197
-379.917	-59.504	0.173	0.075
-378.902	377.948	-0.217	-0.446
-377.888	-75.221	-0.110	0.040
-376.873	-140.071	0.046	-0.005
-375.858	125.510	-0.208	0.264
-374.844	-173.028	-0.257	-0.008
-373.829	-200.000	-0.031	-0.274
-372.815	-58.436	-0.296	0.129
-371.800	3.921	0.235	-0.173
-370.785	18.330	-0.235	0.189
-369.771	-79.756	-0.189	0.064
-368.756	627.586	-0.092	-0.234
-367.742	62.060	0.226	-0.226
-366.727	4.196	-0.147	0.108
-365.712	-187.510	-0.152	0.002
-364.698	-109.262	-0.123	0.026
-363.683	51.665	0.111	0.106
-362.669	-200.000	-0.062	-0.358
-361.654	258.945	-0.026	-0.045
-360.639	48.645	0.274	0.259
-359.625	-34.147	0.074	0.041
-358.610	156.647	-0.091	-0.127
-357.596	168.695	0.020	0.028
-356.581	418.130	-0.078	-0.167
-355.566	34.501	-0.183	-0.160
-354.552	255.515	0.057	0.099
-353.537	-127.065	0.062	-0.009
-352.523	427.759	0.049	0.106
-351.508	-200.000	-0.008	0.049
-350.493	-200.000	-0.003	-0.224
-349.479	-144.459	0.136	0.013
-348.464	233.560	0.094	0.156
-347.450	230.298	-0.042	-0.069
-346.435	-26.780	-0.219	-0.129
-345.420	-18.955	0.188	-0.117
-344.406	800.000	0.111	-0.317
-343.391	27.666	-0.199	-0.168
-342.377	-77.704	-0.055	-0.019
-341.362	-43.928	-0.007	-0.004
-340.348	-10.154	-0.175	0.117
-339.333	-200.000	0.002	0.262
-338.318	-141.974	0.045	0.004
-337.304	-152.136	0.169	-0.012
-336.289	57.693	0.185	-0.182
-335.275	-63.718	-0.180	-0.074
-334.260	63.936	0.107	-0.108
-333.245	-121.983	-0.183	0.030
-332.231	-87.120	-0.081	0.025
-331.216	17.009	0.189	-0.151
-330.202	67.977	0.136	0.140
-329.187	800.000	-0.076	-0.224
-328.172	-127.349	0.046	-0.007
-327.158	51.768	0.105	0.101
-326.143	574.265	0.043	-0.105
-325.129	720.521	-0.031	-0.084
-324.114	-21.823	-0.180	0.110
-323.099	74.015	0.080	-0.084
-322.085	-200.000	0.018	-0.306
-321.070	-120.044	0.078	-0.013
-320.056	-162.513	0.170	-0.008
-319.041	22.294	0.180	0.147
-318.026	-85.808	-0.139	-0.043
-317.012	267.348	-0.065	0.114
-315.997	57.674	-0.119	0.117
-314.983	-17.274	-0.332	0.210
-313.968	165.489	-0.159	-0.226
-312.953	-122.887	0.112	0.018
-311.939	-90.063	-0.252	0.074
-310.924	-78.491	0.058	0.020
-309.910	59.846	0.077	-0.076
-308.895	-200.000	-0.006	-0.088
-307.880	191.050	0.121	0.182
-306.866	16.655	0.251	0.199
-305.851	140.025	0.183	0.242
-304.837	-47.150	0.215	0.105
-303.822	800.000	0.055	0.181
-302.807	-114.309	0.367	0.071
-301.793	326.105	0.067	0.129
-300.778	330.413	-0.267	0.516
-299.764	46.855	0.245	0.229
-298.749	-84.085	0.208	0.066
-297.735	-71.122	0.192	-0.072
-296.720	365.845	0.060	-0.121
-295.705	-61.429	-0.395	0.167
-294.691	-200.000	0.014	-0.191
-293.676	-68.684	-0.186	-0.072
-292.662	-5.666	0.179	0.123
-291.647	-13.413	-0.268	-0.174
-290.632	125.456	-0.047	-0.059
-289.618	-200.000	-0.007	0.057
-288.603	-45.702	0.180	-0.089
-287.589	84.294	0.162	-0.177
-286.574	-200.000	-0.002	-0.056
-285.559	-26.084	-0.021	0.012
-284.545	-200.000	-0.000	0.081
-283.530	-60.928	0.071	-0.030
-282.516	-200.000	-0.040	-0.221
-281.501	244.198	-0.241	-0.406
-280.486	-59.971	-0.249	0.107
-279.472	-137.283	0.404	0.046
-278.457	800.000	0.023	0.072
-277.443	-169.683	0.086	0.003
-276.428	-25.674	0.218	-0.129
-275.413	-200.000	0.005	0.334
-274.399	-31.879	0.017	0.010
-273.384	-34.584	-0.201	-0.110
-272.370	562.273	0.058	0.142
-271.355	-200.000	-0.053	0.267
-270.340	481.323	-0.101	-0.229
-269.326	29.118	-0.089	-0.076
-268.311	-29.614	-0.069	0.040
-267.297	9.223	0.186	-0.141
-266.282	-200.000	-0.041	0.406
-265.267	127.862	-0.100	0.128
-264.253	175.366	-0.341	-0.496
-263.238	0.765	0.162	0.116
-262.224	-12.826	0.154	-0.101
-261.209	130.877	-0.095	0.122
-260.195	-85.299	0.148	-0.046
-259.180	18.278	0.055	-0.044
-258.165	183.547	0.248	0.367
-257.151	-75.619	0.072	0.026
-256.136	-120.470	-0.171	0.029
-255.122	-46.106	0.105	0.052
-254.107	-34.258	0.093	0.051
-253.092	106.302	-0.051	-0.060
-252.078	50.481	0.191	-0.181
-251.063	-200.000	-0.045	0.236
-250.049	110.042	0.173	-0.208
-249.034	-87.766	-0.211	-0.064
-248.019	-32.323	0.221	0.124
-247.005	-1.644	-0.226	0.159
-245.990	-51.739	0.235	-0.109
-244.976	-200.000	0.036	0.304
-243.961	800.000	-0.055	-0.238
-242.946	-106.879	-0.311	0.069
-241.932	-200.000	0.061	0.399
-240.917	-6.916	-0.239	-0.163
-239.903	533.612	-0.023	0.054
-238.888	179.243	0.128	-0.187
-237.873	-200.000	-0.008	0.131
-236.859	144.338	-0.178	-0.238
-235.844	-68.424	-0.197	-0.076
-234.830	800.000	0.131	-0.388
-233.815	-170.576	0.255	0.009
-232.800	257.204	0.150	-0.259
-231.786	-7.253	-0.143	0.097
-230.771	-134.228	0.130	-0.016
-229.757	-0.448	0.083	-0.059
-228.742	800.000	-0.058	0.170
-227.727	16.225	-0.291	-0.230
-226.713	-120.663	-0.140	0.024
-225.698	367.059	-0.051	0.103
-224.684	-37.710	0.310	-0.165
-223.669	800.000	-0.014	0.050
-222.655	-169.781	0.161	0.006
-221.640	139.654	0.095	0.125
-220.625	548.898	-0.105	0.252
-219.611	-141.910	-0.164	-0.016
-218.596	-200.000	-0.052	0.229
-217.582	-160.456	-0.281	0.015
-216.567	800.000	-0.143	0.402
-215.552	325.940	0.014	-0.026
-214.538	800.000	0.070	0.268
-213.523	59.873	0.215	-0.213
-212.509	-11.065	0.091	0.060
-211.494	91.316	0.035	-0.039
-210.479	-62.463	0.278	0.116
-209.465	800.000	-0.029	0.084
-208.450	341.275	0.019	-0.037
-207.436	-200.000	-0.013	-0.095
-206.421	141.917	-0.108	-0.143
-205.406	40.828	0.163	-0.147
-204.392	-200.000	0.017	-0.315
-203.377	-32.453	0.177	-0.099
-202.363	800.000	-0.016	-0.056
-201.348	800.000	0.004	0.015
-200.333	-116.836	-0.139	0.026
-199.319	-21.406	-0.161	-0.098
-198.304	2.096	0.193	-0.139
-197.290	-142.336	-0.222	0.022
-196.275	407.908	-0.056	-0.118
-195.260	-200.000	0.038	0.228
-194.246	-99.392	0.518	0.130
-193.231	-78.362	0.285	-0.098
-192.217	-200.000	-0.056	-0.349
-191.202	-58.859	-0.179	-0.077
-190.187	549.031	-0.043	-0.103
-189.173	151.844	0.289	0.393
-188.158	-51.623	-0.218	-0.102
-187.144	330.660	-0.085	0.164
-186.129	21.937	-0.154	0.125
-185.114	166.853	0.085	-0.120
-184.100	-12.976	-0.168	-0.109
-183.085	-200.000	0.011	-0.129
-182.071	119.659	0.170	0.210
-181.056	-64.790	0.262	0.106
-180.042	353.531	0.153	0.304
-179.027	30.687	0.083	0.071
-178.012	-99.635	0.055	0.014
-176.998	800.000	-0.011	-0.041
-175.983	-70.385	-0.007	-0.003
-174.969	800.000	-0.049	0.168
-173.954	-200.000	0.018	0.146
-172.939	-100.158	-0.120	0.030
-171.925	12.189	-0.201	-0.155
-170.910	-200.000	-0.026	-0.161
-169.896	36.075	-0.311	0.274
-168.881	82.813	-0.241	0.262
-167.866	27.403	0.112	-0.094
-166.852	-50.888	0.317	-0.149
-165.837	-200.000	0.020	0.249
-164.823	-41.056	0.163	-0.084
-163.808	77.553	-0.135	-0.144
-162.793	166.359	0.181	0.255
-161.779	800.000	-0.063	-0.212
-160.764	-200.000	-0.018	-0.416
-159.750	-155.711	-0.364	-0.023
-158.735	-42.615	0.167	0.085
-157.720	800.000	-0.140	-0.606
-156.706	800.000	-0.104	-0.366
-155.691	-200.000	-0.024	0.146
-154.677	80.738	0.112	-0.120
-153.662	-200.000	-0.092	-0.507
-152.647	135.475	0.194	0.252
-151.633	197.805	0.169	-0.257
-150.618	20.458	0.363	0.293
-149.604	30.001	-0.125	0.106
-148.589	486.592	0.150	0.342
-147.574	-124.964	0.277	0.043
-146.560	-55.557	-0.168	0.075
-145.545	81.387	0.194	0.210
-144.531	-200.000	0.019	0.216
-143.516	54.038	0.473	0.454
-142.502	-14.041	-0.201	0.130
-141.487	-151.815	0.350	-0.026
-140.472	-10.199	0.364	-0.241
-139.458	-200.000	-0.012	-0.231
-138.443	800.000	-0.119	0.330
-137.429	95.705	0.189	-0.216
-136.414	-108.677	0.306	-0.065
-135.399	156.727	0.084	0.115
-134.385	232.950	0.089	-0.145
-133.370	-158.401	0.328	0.019
-132.356	-74.001	0.219	0.079
-131.341	597.280	-0.113	-0.280
-130.326	358.241	-0.155	-0.309
-129.312	531.962	-0.093	-0.219
-128.297	-200.000	-0.033	-0.312
-127.283	-105.112	0.055	0.013
-126.268	614.386	0.073	0.183
-125.253	-99.258	0.174	-0.044
-124.239	419.673	0.031	-0.066
-123.224	-116.681	-0.270	-0.050
-122.210	270.403	-0.206	0.361
-121.195	-59.112	0.362	-0.156
-120.180	-14.556	-0.169	-0.108
-119.166	-112.721	0.214	0.042
-118.151	110.186	0.109	0.131
-117.137	145.600	0.322	0.429
-116.122	-200.000	-0.046	-0.202
-115.107	-200.000	0.001	0.051
-114.093	-58.235	-0.095	0.041
-113.078	193.743	0.144	0.217
-112.064	211.486	0.070	0.110
-111.049	-200.000	-0.001	0.191
-110.034	61.952	-0.274	0.272
-109.020	48.874	-0.040	0.037
-108.005	-89.293	0.282	-0.083
-106.991	329.575	0.099	-0.189
-105.976	774.548	-0.063	-0.171
-104.962	-105.113	0.273	-0.062
-103.947	-186.901	0.512	0.007
-102.932	-200.000	0.071	0.336
-101.918	-189.800	0.212	-0.002
-100.903	-47.102	-0.253	0.123
-99.889	-10.424	-0.124	0.082
-98.874	-137.930	-0.087	-0.010
-97.859	140.696	-0.097	-0.127
-96.845	304.084	-0.085	-0.158
-95.830	-200.000	-0.001	0.019
-94.816	301.327	-0.065	0.119
-93.801	98.100	-0.057	0.065
-92.786	-23.759	0.147	0.088
-91.772	-200.000	-0.049	-0.274
-90.757	800.000	0.016	0.063
-89.743	-14.442	0.253	0.162
-88.728	-3.447	0.125	-0.086
-87.713	-53.865	0.176	0.080
-86.699	161.921	-0.211	0.294
-85.684	-181.518	0.197	0.004
-84.670	455.415	0.052	-0.116
-83.655	-200.000	-0.020	-0.134
-82.640	-67.204	0.190	0.074
-81.626	40.719	0.187	0.167
-80.611	-200.000	-0.043	0.279
-79.597	-107.244	0.310	-0.068
-78.582	205.825	0.076	0.117
-77.567	759.396	0.082	0.221
-76.553	-200.000	-0.023	0.174
-75.538	-200.000	0.017	0.232
-74.524	-22.491	0.191	-0.115
-73.509	800.000	-0.076	-0.325
-72.494	-95.391	-0.081	0.022
-71.480	91.419	0.079	0.088
-70.465	-200.000	-0.190	0.001
-69.451	85.336	0.089	-0.097
-68.436	800.000	0.038	-0.153
-67.422	79.405	0.222	0.237
-66.407	-200.000	-0.023	0.312
-65.392	-33.612	-0.122	-0.067
-64.378	87.962	-0.226	-0.249
-63.363	-20.845	0.159	0.097
-62.349	-150.229	-0.162	0.012
-61.334	168.336	-0.514	-0.728
-60.319	137.342	-0.164	-0.214
-59.305	-200.000	-0.106	-0.733
-58.290	306.872	0.402	0.744
-57.276	800.000	0.485	1.605
-56.261	-200.000	76.483	514.571
-55.246	501.506	1354.464	3109.106
-54.232	137.991	2625.233	3420.187
-53.217	109.366	2387.055	2841.199
-52.203	49.686	1991.993	1865.351
-51.188	43.660	1776.653	1615.699
-50.173	40.820	1730.495	1551.523
-49.159	55.110	1765.241	1695.332
-48.144	60.379	1783.810	1754.502
-47.130	43.715	1747.191	1589.090
-46.115	40.387	1733.431	1550.525
-45.100	40.268	1728.635	1545.245
-44.086	40.268	1726.002	1542.825
-43.071	40.187	1723.851	1540.214
-42.057	40.140	1721.185	1537.404
-41.042	40.260	1718.719	1536.074
-40.027	40.289	1716.502	1534.254
-39.013	40.228	1715.099	1532.470
-37.998	40.081	1714.312	1530.563
-36.984	40.306	1712.064	1530.238
-35.969	40.318	1710.622	1528.977
-34.954	40.425	1708.677	1528.007
-33.940	40.374	1706.640	1525.730
-32.925	40.412	1704.824	1524.341
-31.911	40.305	1703.371	1522.159
-30.896	40.268	1701.624	1520.252
-29.881	40.286	1699.641	1518.555
-28.867	40.340	1697.723	1517.200
-27.852	40.361	1696.210	1515.948
-26.838	40.418	1694.811	1515.074
-25.823	40.375	1693.156	1513.200
-24.809	40.430	1691.657	1512.223
-23.794	40.419	1690.111	1510.694
-22.779	40.393	1689.229	1509.647
-21.765	40.394	1687.397	1507.959
-20.750	40.286	1685.673	1505.537
-19.736	40.442	1684.216	1505.362
-18.721	40.453	1682.423	1503.781
-17.706	40.392	1681.261	1502.225
-16.692	40.350	1679.274	1500.068
-15.677	40.375	1678.138	1499.188
-14.663	40.405	1677.013	1498.348
-13.648	40.388	1675.494	1496.802
-12.633	40.284	1674.488	1495.056
-11.619	40.233	1673.033	1493.317
-10.604	40.356	1670.512	1491.932
-9.590	40.336	1669.577	1490.888
-8.575	40.357	1668.621	1490.135
-7.560	40.353	1667.057	1488.647
-6.546	40.371	1665.753	1487.563
-5.531	40.433	1664.313	1486.683
-4.517	40.407	1663.317	1485.537
-3.502	40.332	1662.399	1484.098
-2.487	40.459	1660.926	1483.675
-1.473	40.610	1650.567	1475.485
-0.458	38.933	1632.221	1446.676
0.556	33.362	1629.987	1407.992
1.571	29.625	1652.277	1398.882
2.586	27.919	1664.776	1396.313
3.600	24.191	1609.286	1322.048
4.615	13.347	1487.938	1147.438
5.629	2.936	1411.563	1019.622
6.644	0.563	1400.886	996.179
7.659	0.327	1399.618	993.630
8.673	0.304	1398.107	992.319
9.688	0.306	1396.522	991.123
10.702	0.066	1393.999	987.668
11.717	4.125	1400.761	1019.105
12.731	13.442	1416.701	1092.356
13.746	18.451	1421.549	1129.081
14.761	17.539	1418.980	1120.939
15.775	16.500	1416.673	1112.191
16.790	15.466	1413.747	1103.000
17.804	14.668	1411.597	1095.993
18.819	14.191	1410.229	1091.702
19.834	13.944	1408.257	1088.459
20.848	13.706	1406.736	1085.629
21.863	13.387	1405.948	1082.842
22.877	13.319	1404.174	1080.934
23.892	13.193	1403.492	1079.489
24.907	13.173	1402.664	1078.624
25.921	13.159	1402.402	1078.239
26.936	13.249	1400.902	1077.577
27.950	13.327	1400.179	1077.434
28.965	13.360	1399.161	1076.770
29.980	13.378	1397.919	1075.833
30.994	13.425	1397.269	1075.543
32.009	13.436	1395.979	1074.529
33.023	13.507	1394.500	1073.752
34.038	13.330	1394.101	1072.207
35.053	13.426	1392.648	1071.615
36.067	13.490	1391.515	1071.064
37.082	13.390	1390.630	1069.640
38.096	13.369	1389.716	1068.708
39.111	13.397	1389.111	1068.329
40.126	13.342	1388.073	1067.078
41.140	13.281	1387.155	1065.888
42.155	13.257	1386.815	1065.374
43.169	13.138	1386.995	1064.655
44.184	13.215	1386.306	1064.524
45.199	13.105	1386.165	1063.613
46.213	13.274	1384.929	1063.661
47.228	13.315	1384.320	1063.361
48.242	13.400	1382.967	1062.770
49.257	13.324	1381.482	1061.048
50.271	13.314	1380.132	1059.858
51.286	13.358	1378.544	1058.824
52.301	13.377	1377.030	1057.688
53.315	13.346	1376.282	1056.824
54.330	13.269	1375.119	1055.348
55.344	13.199	1374.377	1054.235
56.359	13.250	1372.827	1053.281
57.374	13.216	1372.114	1052.420
58.388	13.256	1370.876	1051.636
59.403	13.161	1371.011	1051.039
60.417	13.167	1370.504	1050.597
61.432	13.131	1369.133	1049.223
62.447	13.051	1368.098	1047.828
63.461	13.112	1366.847	1047.164
64.476	13.151	1365.679	1046.426
65.490	13.089	1364.816	1045.277
66.505	13.154	1362.456	1043.788
67.520	13.199	1361.395	1043.169
68.534	13.172	1360.199	1041.993
69.549	13.190	1359.400	1041.396
70.563	13.078	1358.461	1039.883
71.578	13.061	1357.305	1038.801
72.593	13.017	1356.143	1037.537
73.607	13.100	1355.389	1037.392
74.622	12.979	1354.845	1036.125
75.636	13.097	1353.496	1035.741
76.651	13.128	1353.080	1035.526
77.666	13.055	1352.218	1034.320
78.680	13.127	1351.876	1034.418
79.695	13.130	1350.550	1033.328
80.709	13.191	1349.296	1032.659
81.724	13.209	1348.962	1032.421
82.739	13.235	1347.812	1031.615
83.753	13.244	1347.177	1031.094
84.768	13.326	1346.300	1030.839
85.782	13.326	1344.984	1029.744
86.797	13.360	1343.677	1028.861
87.812	13.324	1341.950	1027.226
88.826	13.266	1341.358	1026.320
89.841	13.237	1340.012	1025.024
90.855	13.286	1338.905	1024.388
91.870	13.294	1338.354	1023.923
92.884	13.377	1337.153	1023.427
93.899	13.374	1336.831	1023.071
94.914	13.449	1335.761	1022.626
95.928	13.467	1335.165	1022.191
96.943	13.430	1334.015	1020.990
97.957	13.328	1333.195	1019.644
98.972	13.355	1331.863	1018.702
99.987	13.366	1330.695	1017.785
101.001	13.354	1329.731	1016.887
102.016	13.349	1328.890	1016.120
103.030	13.341	1328.274	1015.515
104.045	13.408	1326.834	1014.734
105.060	13.292	1325.745	1013.100
106.074	13.343	1324.462	1012.339
107.089	13.204	1323.633	1010.771
108.103	13.128	1322.087	1009.033
109.118	13.172	1320.417	1007.937
110.133	13.152	1319.433	1006.977
111.147	13.204	1318.095	1006.184
112.162	13.169	1316.897	1004.964
113.176	13.315	1315.530	1004.722
114.191	13.278	1314.654	1003.738
115.206	13.250	1313.397	1002.518
116.220	13.304	1312.274	1001.902
117.235	13.223	1311.378	1000.639
118.249	13.202	1310.540	999.786
119.264	13.139	1309.534	998.544
120.279	13.370	1307.633	998.403
121.293	13.192	1307.161	996.878
122.308	13.192	1306.004	995.910
123.322	13.219	1305.037	995.245
124.337	13.233	1304.154	994.571
125.352	13.207	1302.608	993.144
126.366	13.127	1301.703	991.888
127.381	13.183	1300.426	991.161
128.395	13.305	1298.639	990.441
129.410	13.194	1298.479	989.570
130.424	13.232	1297.567	989.013
131.439	13.266	1296.454	988.283
132.454	13.255	1295.545	987.434
133.468	13.346	1294.387	987.011
134.483	13.342	1293.891	986.521
135.497	13.352	1292.840	985.687
136.512	13.357	1291.523	984.628
137.527	13.401	1289.976	983.624
138.541	13.373	1288.335	982.118
139.556	13.269	1287.272	980.609
140.570	13.381	1286.108	980.295
141.585	13.432	1284.776	979.494
142.600	13.461	1283.202	978.381
143.614	13.540	1282.323	978.092
144.629	13.496	1281.345	976.999
145.643	13.519	1280.360	976.294
146.658	13.518	1279.169	975.294
147.673	13.430	1277.743	973.606
148.687	13.397	1276.330	972.248
149.702	13.417	1274.918	971.202
150.716	13.387	1273.407	969.791
151.731	13.369	1272.405	968.834
152.746	13.492	1270.601	968.094
153.760	13.379	1270.179	967.030
154.775	13.470	1268.680	966.333
155.789	13.493	1267.465	965.456
156.804	13.538	1266.241	964.703
157.819	13.442	1265.613	963.579
158.833	13.556	1264.749	963.498
159.848	13.574	1263.634	962.669
160.862	13.559	1262.775	961.843
161.877	13.532	1261.470	960.606
162.892	13.424	1260.351	959.044
163.906	13.465	1259.487	958.538
164.921	13.459	1258.808	957.904
165.935	13.551	1257.621	957.443
166.950	13.473	1257.460	956.785
167.964	13.628	1256.179	956.620
168.979	13.561	1255.477	955.618
169.994	13.558	1255.042	955.187
171.008	13.589	1253.757	954.299
172.023	13.718	1252.729	954.173
173.037	13.584	1252.650	953.262
174.052	13.767	1251.417	953.288
175.067	13.604	1250.193	951.338
176.081	13.583	1249.346	950.488
177.096	13.522	1248.441	949.364
178.110	13.598	1247.030	948.641
179.125	13.633	1245.812	947.832
180.140	13.594	1244.963	946.880
181.154	13.632	1243.618	945.991
182.169	13.622	1242.286	944.835
183.183	13.778	1241.588	945.111
184.198	13.796	1240.075	943.976
185.213	13.793	1238.700	942.834
186.227	13.756	1238.083	942.067
187.242	13.869	1236.788	941.638
188.256	13.996	1235.516	941.309
189.271	13.912	1234.590	940.043
190.286	13.767	1233.897	938.615
191.300	13.661	1232.981	937.236
192.315	13.603	1232.457	936.424
193.329	13.708	1231.572	936.262
194.344	13.765	1230.485	935.677
195.359	13.806	1229.839	935.332
196.373	13.939	1229.245	935.547
197.388	13.929	1228.758	935.036
198.402	13.934	1228.352	934.676
199.417	14.062	1227.788	934.878
200.432	14.079	1226.879	934.198
201.446	14.115	1225.811	933.510
202.461	14.129	1224.920	932.825
203.475	14.179	1223.716	932.103
204.490	14.134	1222.675	930.979
205.504	14.050	1221.449	929.495
206.519	14.005	1220.315	928.295
207.534	14.008	1219.420	927.549
208.548	14.020	1218.349	926.722
209.563	14.136	1217.395	926.561
210.577	14.054	1216.629	925.440
211.592	14.164	1215.471	925.088
212.607	14.284	1214.559	924.977
213.621	14.094	1214.290	923.633
214.636	14.160	1213.047	922.976
215.650	14.227	1211.954	922.430
216.665	14.194	1210.990	921.433
217.680	14.320	1210.093	921.365
218.694	14.306	1209.709	920.915
219.709	14.256	1208.638	919.745
220.723	14.314	1207.690	919.259
221.738	14.213	1207.179	918.235
222.753	14.391	1206.062	918.282
223.767	14.357	1205.651	917.700
224.782	14.374	1205.119	917.311
225.796	14.470	1203.969	916.881
226.811	14.532	1203.254	916.596
227.826	14.321	1202.957	915.131
228.840	14.352	1202.371	914.774
229.855	14.426	1201.307	914.288
230.869	14.372	1200.569	913.348
231.884	14.418	1199.694	912.853
232.899	14.379	1199.060	912.079
233.913	14.410	1198.157	911.482
234.928	14.302	1197.757	910.502
235.942	14.357	1196.510	909.777
236.957	14.246	1195.938	908.657
237.972	14.321	1195.018	908.283
238.986	14.384	1194.379	908.064
240.001	14.440	1193.664	907.742
241.015	14.371	1192.959	906.751
242.030	14.455	1192.203	906.551
243.045	14.519	1191.270	906.110
244.059	14.611	1190.073	905.618
245.074	14.468	1189.403	904.252
246.088	14.538	1189.014	904.259
247.103	14.586	1188.212	903.829
248.117	14.686	1187.336	903.625
249.132	14.713	1186.634	903.155
250.147	14.834	1185.605	902.943
251.161	14.751	1185.079	902.017
252.176	14.831	1184.294	901.771
253.190	14.786	1183.726	901.016
254.205	14.840	1183.112	900.758
255.220	14.982	1182.124	900.694
256.234	14.939	1181.413	899.839
257.249	14.878	1181.062	899.165
258.263	15.007	1180.016	898.981
259.278	14.943	1179.641	898.272
260.293	15.002	1178.876	897.926
261.307	14.917	1178.530	897.131
262.322	14.934	1178.081	896.799
263.336	14.972	1177.020	896.115
264.351	15.001	1176.367	895.692
265.366	15.057	1175.749	895.442
266.380	15.056	1175.197	894.937
267.395	15.045	1174.204	894.046
268.409	15.009	1173.474	893.215
269.424	15.073	1172.651	892.854
270.439	15.053	1172.249	892.362
271.453	15.005	1171.500	891.456
272.468	15.003	1170.669	890.733
273.482	15.050	1169.772	890.226
274.497	15.107	1169.289	890.083
275.512	15.042	1168.792	889.278
276.526	15.144	1168.059	889.183
277.541	15.048	1166.887	887.705
278.555	15.016	1166.394	887.082
279.570	15.154	1165.362	886.946
280.585	15.254	1164.748	886.931
281.599	15.248	1163.564	885.920
282.614	15.262	1162.341	884.983
283.628	15.218	1161.579	884.093
284.643	15.206	1160.407	883.058
285.657	15.318	1159.429	882.828
286.672	15.304	1158.471	881.944
287.687	15.236	1157.728	880.944
288.701	15.278	1157.030	880.558
289.716	15.331	1156.190	880.119
290.730	15.311	1155.522	879.425
291.745	15.432	1154.544	879.240
292.760	15.407	1154.335	878.868
293.774	15.437	1153.462	878.285
294.789	15.467	1153.047	878.045
295.803	15.449	1152.355	877.348
296.818	15.416	1151.383	876.357
297.833	15.441	1150.699	875.892
298.847	15.454	1150.157	875.467
299.862	15.495	1148.990	874.717
300.876	15.451	1148.624	874.130
301.891	15.477	1147.945	873.671
302.906	15.533	1147.121	873.258
303.920	15.587	1146.440	872.944
304.935	15.660	1145.744	872.714
305.949	15.735	1144.910	872.394
306.964	15.616	1144.430	871.331
307.979	15.617	1143.865	870.831
308.993	15.653	1142.887	870.195
310.008	15.649	1142.073	869.479
311.022	15.734	1141.290	869.243
312.037	15.717	1140.311	868.333
313.052	15.665	1139.555	867.413
314.066	15.603	1138.988	866.584
315.081	15.754	1137.483	866.140
316.095	15.657	1137.073	865.255
317.110	15.588	1136.137	864.108
318.125	15.628	1135.426	863.695
319.139	15.634	1134.742	863.130
320.154	15.688	1133.766	862.588
321.168	15.587	1133.475	861.777
322.183	15.811	1132.796	862.328
323.197	15.688	1132.253	861.212
324.212	15.696	1131.547	860.636
325.227	15.735	1131.273	860.553
326.241	15.781	1130.523	860.140
327.256	15.770	1129.625	859.326
328.270	15.687	1128.682	858.107
329.285	15.717	1128.059	857.714
330.300	15.848	1126.600	857.194
331.314	15.708	1125.892	855.867
332.329	15.790	1124.520	855.166
333.343	15.906	1123.720	855.068
334.358	15.881	1122.986	854.308
335.373	15.839	1122.476	853.634
336.387	15.969	1121.128	853.191
337.402	16.014	1120.826	853.115
338.416	15.878	1120.463	852.072
339.431	15.960	1119.674	851.813
340.446	16.060	1118.786	851.565
341.460	16.147	1118.100	851.410
342.475	16.017	1117.610	850.303
343.489	16.241	1116.050	850.168
344.504	16.143	1115.262	849.002
345.519	16.222	1114.587	848.809
346.533	16.258	1113.877	848.375
347.548	16.304	1112.604	847.563
348.562	16.185	1111.610	846.130
349.577	16.104	1111.270	845.393
350.592	16.277	1110.133	845.321
351.606	16.178	1109.528	844.289
352.621	16.099	1109.151	843.532
353.635	16.142	1108.422	843.118
354.650	16.204	1107.769	842.855
355.665	16.272	1106.896	842.456
356.679	16.223	1106.291	841.676
357.694	16.282	1105.698	841.446
358.708	16.272	1105.197	840.942
359.723	16.288	1104.344	840.297
360.738	16.336	1103.720	839.987
361.752	16.419	1102.927	839.720
362.767	16.313	1102.361	838.690
363.781	16.372	1102.032	838.658
364.796	16.374	1101.442	838.143
365.810	16.490	1100.512	837.935
366.825	16.405	1100.220	837.218
367.840	16.499	1099.808	837.299
368.854	16.554	1099.026	836.902
369.869	16.650	1098.163	836.642
370.883	16.554	1097.382	835.500
371.898	16.537	1096.468	834.646
372.913	16.511	1096.022	834.103
373.927	16.427	1095.704	833.377
374.942	16.553	1095.024	833.404
375.956	16.634	1094.788	833.549
376.971	16.512	1094.112	832.364
377.986	16.530	1093.535	831.938
379.000	16.655	1092.596	831.764
380.015	16.715	1092.298	831.757
381.029	16.692	1091.537	830.989
382.044	16.755	1090.942	830.773
383.059	16.756	1089.928	829.931
384.073	16.752	1089.093	829.205
385.088	16.770	1087.986	828.374
386.102	16.795	1087.236	827.852
387.117	16.825	1086.189	827.132
388.132	16.827	1085.319	826.403
389.146	16.692	1084.683	825.186
390.161	16.735	1084.293	825.029
391.175	16.825	1083.391	824.708
392.190	16.790	1082.708	823.942
393.205	16.849	1082.008	823.626
394.219	16.918	1080.948	823.082
395.234	16.892	1080.325	822.409
396.248	16.831	1078.832	820.901
397.263	16.866	1077.935	820.316
398.278	16.811	1076.985	819.254
399.292	16.905	1076.381	819.178
400.307	16.812	1076.243	818.548
401.321	16.834	1074.986	817.627
402.336	16.879	1074.716	817.567
403.350	16.979	1073.691	817.200
404.365	16.885	1073.024	816.164
405.380	16.931	1072.529	815.939
406.394	16.932	1071.732	815.262
407.409	16.995	1070.663	814.682
408.423	17.043	1070.051	814.375
409.438	17.111	1069.532	814.232
410.453	17.194	1068.691	813.917
411.467	17.233	1067.955	813.471
412.482	17.153	1067.824	812.915
413.496	17.282	1066.433	812.405
414.511	17.277	1065.925	811.923
415.526	17.253	1065.581	811.473
416.540	17.430	1065.125	811.896
417.555	17.409	1064.779	811.463
418.569	17.364	1064.176	810.717
419.584	17.314	1063.647	810.002
420.599	17.274	1063.188	809.392
421.613	86.447	1297.599	1372.114
422.628	79.844	1331.768	1372.238
