DTS Sentinel unit serial number:	SN413079Multiplexer serial number:	ORYXHardware model number:	OX4-SRSoftware version number:	ORYX F/W v4.00 Oryx Data Collector v3.7.2.0data status	okinstallation	princeton_trtdifferential loss correction	single-endedforward channel	channel 2reverse channel	N/Adate	2019/09/12time	23:39:35forward acquisition time	60.00reverse acquisition time	0.00gamma	496.2192k internal	0.2332k external	0.2332temperature offset calibration	1.0174default loss term (dB/km)	0.3790temperature slope calibration	1.0000multiplexer offset coefficient	1.0000multiplexer slope coefficient	1.0000fibre end	0.00T internal ref (°C)	28.87T ext. ref 1 (°C)	3.77T ext. ref 2 (°C)	23.55length (m)	temperature (°C)	Stokes	anti-Stokes-747.200	-177.428	-0.067	0.002
-746.185	-72.501	-0.098	0.037
-745.171	270.231	0.119	-0.211
-744.156	-200.000	0.042	0.360
-743.142	246.694	0.168	0.286
-742.127	800.000	-0.049	0.140
-741.112	215.314	-0.094	-0.150
-740.098	448.386	-0.066	0.147
-739.083	-108.598	0.258	0.056
-738.069	-200.000	0.032	0.497
-737.054	-152.059	0.209	0.015
-736.039	-50.036	-0.363	0.173
-735.025	-66.817	0.385	-0.153
-734.010	-95.839	-0.363	-0.097
-732.996	-134.490	-0.111	-0.014
-731.981	-78.435	-0.308	-0.106
-730.966	-2.551	-0.179	-0.126
-729.952	6.281	-0.172	0.129
-728.937	-155.376	0.289	0.019
-727.923	0.293	-0.183	-0.131
-726.908	502.685	0.090	-0.208
-725.894	18.038	-0.117	-0.094
-724.879	800.000	-0.051	0.212
-723.864	37.147	0.128	0.114
-722.850	-128.237	0.202	0.029
-721.835	-40.314	-0.087	-0.046
-720.821	635.232	0.075	-0.190
-719.806	263.488	0.136	0.238
-718.791	-78.598	-0.346	0.119
-717.777	31.807	-0.217	0.188
-716.762	800.000	0.011	-0.035
-715.748	-12.690	-0.035	0.023
-714.733	-79.642	0.322	0.109
-713.718	800.000	0.059	-0.194
-712.704	7.286	0.058	-0.043
-711.689	329.414	-0.136	-0.263
-710.675	0.306	-0.346	-0.248
-709.660	-91.281	-0.318	0.091
-708.645	234.456	-0.163	-0.269
-707.631	-181.455	-0.342	-0.007
-706.616	-200.000	-0.006	0.192
-705.602	-92.302	0.233	0.066
-704.587	270.691	-0.154	-0.273
-703.572	-169.739	-0.226	-0.008
-702.558	384.610	0.027	-0.057
-701.543	224.004	-0.214	0.347
-700.529	39.564	0.070	0.063
-699.514	98.539	-0.215	0.249
-698.499	67.398	-0.209	0.214
-697.485	800.000	0.050	0.184
-696.470	187.989	0.181	0.271
-695.456	45.464	-0.190	-0.176
-694.441	-130.234	0.258	0.035
-693.426	800.000	0.062	-0.255
-692.412	-25.578	-0.415	-0.246
-691.397	-12.662	-0.309	-0.202
-690.383	300.253	0.081	-0.150
-689.368	96.272	0.203	-0.233
-688.354	-80.712	0.378	0.126
-687.339	-200.000	0.033	0.181
-686.324	-109.462	0.200	-0.043
-685.310	-6.009	0.076	-0.052
-684.295	-26.847	-0.114	-0.067
-683.281	-200.000	0.007	0.134
-682.266	-200.000	0.050	0.259
-681.251	-42.018	-0.123	-0.063
-680.237	-200.000	-0.042	0.186
-679.222	-54.704	0.212	0.096
-678.208	800.000	0.020	0.059
-677.193	68.544	0.403	-0.415
-676.178	-200.000	-0.045	-0.206
-675.164	90.769	0.266	-0.299
-674.149	-200.000	0.017	-0.125
-673.135	-68.269	-0.267	-0.104
-672.120	191.661	-0.092	0.139
-671.105	59.300	-0.149	0.147
-670.091	349.871	-0.133	-0.264
-669.076	-43.808	0.311	0.157
-668.062	-128.396	-0.107	0.015
-667.047	191.338	0.166	-0.251
-666.032	-136.133	-0.211	-0.025
-665.018	300.499	-0.058	0.107
-664.003	800.000	-0.039	-0.155
-662.989	-0.850	0.126	0.090
-661.974	-107.845	-0.196	0.043
-660.959	-102.812	0.138	-0.033
-659.945	356.451	-0.061	0.122
-658.930	69.880	0.117	-0.121
-657.916	31.745	-0.186	-0.161
-656.901	-200.000	0.070	0.722
-655.886	738.782	0.144	-0.387
-654.872	167.382	-0.037	0.052
-653.857	-200.000	0.002	-0.347
-652.843	-37.643	-0.180	0.096
-651.828	-67.320	-0.333	0.131
-650.814	800.000	-0.093	-0.262
-649.799	-188.391	0.387	-0.005
-648.784	-22.931	-0.183	0.111
-647.770	58.750	0.147	-0.145
-646.755	600.408	0.115	-0.287
-645.741	-200.000	0.032	-0.162
-644.726	-12.450	-0.226	-0.148
-643.711	-100.281	-0.145	0.036
-642.697	-164.142	-0.401	-0.019
-641.682	-141.487	-0.388	-0.039
-640.668	-153.354	-0.218	0.015
-639.653	-200.000	0.010	-0.257
-638.638	6.745	-0.263	-0.196
-637.624	71.806	-0.263	-0.274
-636.609	-106.554	0.260	-0.058
-635.595	-52.607	-0.155	-0.072
-634.580	-77.981	0.297	0.102
-633.565	-82.294	-0.084	-0.027
-632.551	-168.378	-0.340	-0.013
-631.536	-200.000	0.005	0.090
-630.522	55.662	-0.255	0.247
-629.507	-62.127	-0.133	0.056
-628.492	493.185	-0.137	0.314
-627.478	65.195	0.202	-0.205
-626.463	-140.209	-0.348	0.037
-625.449	-200.000	0.023	-0.211
-624.434	400.032	-0.039	-0.081
-623.419	384.389	-0.165	-0.340
-622.405	215.240	0.072	-0.114
-621.390	404.241	-0.096	0.201
-620.376	-99.136	0.205	0.052
-619.361	440.761	0.091	0.199
-618.346	-43.290	-0.226	0.114
-617.332	-39.321	-0.113	-0.059
-616.317	-200.000	-0.001	0.113
-615.303	-37.688	-0.211	0.112
-614.288	141.671	0.102	0.135
-613.273	-200.000	0.014	-0.115
-612.259	-43.867	-0.405	-0.204
-611.244	59.074	0.118	-0.116
-610.230	173.887	0.120	-0.173
-609.215	-195.749	-0.352	0.003
-608.201	-88.327	0.270	0.081
-607.186	-200.000	0.011	-0.103
-606.171	-189.199	0.171	0.002
-605.157	49.595	-0.116	-0.109
-604.142	245.290	-0.037	-0.062
-603.128	-116.815	-0.492	-0.090
-602.113	-8.094	-0.271	-0.183
-601.098	-72.022	-0.293	-0.109
-600.084	83.719	0.074	0.080
-599.069	-200.000	0.029	-0.130
-598.055	358.062	-0.150	-0.300
-597.040	327.031	-0.076	-0.145
-596.025	-49.060	-0.042	-0.020
-595.011	-51.548	-0.272	-0.127
-593.996	541.333	0.046	-0.110
-592.982	-13.394	-0.131	-0.085
-591.967	142.350	0.286	0.380
-590.952	-33.435	0.187	-0.104
-589.938	122.938	0.226	-0.283
-588.923	-200.000	0.034	0.277
-587.909	34.296	0.126	0.110
-586.894	314.493	0.104	0.195
-585.879	4.109	-0.079	-0.058
-584.865	-42.967	-0.183	0.093
-583.850	698.342	0.054	-0.142
-582.836	94.354	-0.158	-0.179
-581.821	-105.047	-0.033	0.008
-580.806	1.984	-0.168	-0.121
-579.792	-200.000	-0.005	0.042
-578.777	800.000	-0.075	0.281
-577.763	-90.480	0.135	-0.039
-576.748	-200.000	0.005	-0.063
-575.733	-58.407	-0.179	-0.078
-574.719	120.064	0.142	0.176
-573.704	7.338	-0.108	0.081
-572.690	-200.000	-0.022	-0.145
-571.675	-63.543	-0.129	0.053
-570.661	11.054	-0.188	0.143
-569.646	-10.808	0.091	0.060
-568.631	-32.278	0.034	-0.019
-567.617	-167.464	0.305	-0.012
-566.602	800.000	-0.035	-0.134
-565.588	208.038	-0.186	0.290
-564.573	199.779	0.067	-0.103
-563.558	-136.105	0.154	-0.018
-562.544	-96.856	-0.113	0.030
-561.529	77.729	0.104	-0.111
-560.515	-3.060	-0.315	-0.220
-559.500	-53.347	0.142	-0.065
-558.485	-33.880	-0.031	-0.017
-557.471	-29.138	-0.091	0.052
-556.456	343.823	0.095	-0.187
-555.442	4.240	-0.155	-0.114
-554.427	-25.952	-0.199	-0.117
-553.412	-6.812	-0.150	-0.102
-552.398	113.890	0.099	0.120
-551.383	-135.849	-0.285	-0.034
-550.369	40.124	0.183	-0.164
-549.354	-200.000	-0.043	0.215
-548.339	109.501	-0.184	0.220
-547.325	-200.000	0.018	-0.245
-546.310	-18.698	0.330	-0.205
-545.296	-200.000	-0.025	-0.260
-544.281	-27.538	-0.481	-0.279
-543.266	-151.554	-0.229	-0.017
-542.252	-43.165	0.063	-0.032
-541.237	-50.914	-0.067	-0.031
-540.223	-200.000	0.053	-0.308
-539.208	0.203	0.040	0.028
-538.193	-115.297	-0.093	-0.017
-537.179	-109.867	-0.297	0.062
-536.164	-40.653	0.199	-0.103
-535.150	-200.000	0.003	-0.303
-534.135	171.120	-0.221	0.316
-533.121	800.000	-0.037	0.109
-532.106	-92.226	-0.310	0.087
-531.091	-82.388	0.280	0.091
-530.077	-200.000	0.059	-0.410
-529.062	43.926	0.134	0.122
-528.048	-197.844	0.299	0.002
-527.033	-140.932	-0.063	0.006
-526.018	-200.000	0.022	0.154
-525.004	-57.614	0.248	-0.108
-523.989	-95.052	0.283	0.076
-522.975	-24.054	0.159	-0.095
-521.960	-63.531	-0.050	-0.021
-520.945	-59.152	0.169	0.073
-519.931	79.800	-0.093	-0.100
-518.916	-200.000	0.018	0.132
-517.902	-200.000	-0.137	-0.000
-516.887	-29.221	-0.312	0.179
-515.872	570.565	-0.070	-0.169
-514.858	107.719	0.148	-0.176
-513.843	-81.108	-0.105	0.035
-512.829	-140.262	-0.164	0.017
-511.814	-30.026	-0.399	0.227
-510.799	327.777	-0.114	-0.218
-509.785	800.000	0.042	-0.155
-508.770	42.894	-0.022	-0.020
-507.756	31.314	0.174	0.149
-506.741	369.890	0.084	-0.169
-505.726	-139.198	0.205	-0.022
-504.712	-104.972	-0.233	-0.053
-503.697	649.928	-0.140	-0.358
-502.683	-37.646	-0.031	-0.016
-501.668	339.349	-0.111	-0.215
-500.653	-126.579	-0.201	0.030
-499.639	363.766	-0.038	-0.075
-498.624	-200.000	0.037	0.204
-497.610	-200.000	-0.026	0.239
-496.595	-20.885	-0.468	0.286
-495.581	405.106	0.053	0.112
-494.566	-200.000	0.008	-0.133
-493.551	189.908	0.083	0.124
-492.537	-124.156	-0.311	-0.049
-491.522	82.246	0.090	-0.097
-490.508	-40.558	0.106	0.055
-489.493	-200.000	0.028	0.307
-488.478	136.528	-0.093	-0.121
-487.464	219.316	-0.157	0.251
-486.449	-127.969	0.390	-0.056
-485.435	528.927	0.131	-0.307
-484.420	-105.634	0.300	0.068
-483.405	37.296	0.051	-0.045
-482.391	232.768	0.105	-0.172
-481.376	-103.558	0.305	-0.071
-480.362	-1.921	0.099	-0.069
-479.347	149.926	-0.042	0.057
-478.332	171.899	0.152	-0.218
-477.318	295.236	0.078	-0.143
-476.303	92.420	0.206	0.231
-475.289	-103.840	-0.323	0.075
-474.274	-34.353	0.187	0.102
-473.259	-124.469	0.035	-0.005
-472.245	-200.000	0.039	-0.355
-471.230	800.000	-0.038	0.113
-470.216	-89.176	0.174	-0.051
-469.201	-78.651	0.312	-0.106
-468.186	-21.641	-0.068	0.041
-467.172	-86.671	0.125	-0.038
-466.157	-175.130	-0.281	-0.008
-465.143	-200.000	0.026	0.155
-464.128	-76.197	-0.413	0.145
-463.113	-158.623	0.184	-0.011
-462.099	359.196	-0.070	-0.138
-461.084	-107.162	0.085	0.019
-460.070	-88.596	0.163	0.048
-459.055	118.757	0.045	0.055
-458.040	-95.957	0.158	-0.042
-457.026	-165.476	0.146	-0.006
-456.011	-97.729	-0.355	0.091
-454.997	-200.000	0.006	-0.197
-453.982	431.877	0.078	-0.169
-452.968	-3.312	0.110	0.076
-451.953	-124.867	-0.255	0.039
-450.938	733.751	0.184	-0.489
-449.924	-88.155	0.165	-0.049
-448.909	442.192	0.100	-0.218
-447.895	-200.000	0.079	0.428
-446.880	707.524	-0.134	0.353
-445.865	-169.416	0.131	-0.005
-444.851	68.504	0.181	-0.185
-443.836	800.000	0.131	0.473
-442.822	-40.954	0.020	-0.010
-441.807	-5.435	0.197	0.135
-440.792	106.737	0.021	-0.025
-439.778	-200.000	0.004	0.175
-438.763	47.880	-0.079	0.073
-437.749	-95.399	0.108	0.029
-436.734	-48.476	-0.314	-0.150
-435.719	-200.000	-0.039	0.389
-434.705	800.000	0.037	0.115
-433.690	-200.000	-0.004	-0.026
-432.676	-59.189	0.064	-0.028
-431.661	-75.151	0.021	-0.008
-430.646	122.156	-0.073	-0.090
-429.632	-200.000	-0.013	0.284
-428.617	119.103	0.229	-0.281
-427.603	-200.000	-0.052	-0.282
-426.588	500.875	-0.075	0.172
-425.573	-200.000	0.002	-0.027
-424.559	-200.000	-0.008	-0.216
-423.544	-28.105	0.191	-0.110
-422.530	102.889	-0.155	-0.180
-421.515	109.847	0.139	-0.165
-420.500	124.424	0.161	0.201
-419.486	-58.756	0.110	-0.047
-418.471	-200.000	-0.070	-0.399
-417.457	-200.000	-0.060	-0.332
-416.442	-77.843	0.193	-0.066
-415.428	-35.167	0.470	0.254
-414.413	-36.235	-0.050	0.027
-413.398	17.757	-0.137	-0.108
-412.384	81.857	0.047	0.051
-411.369	-200.000	0.046	0.261
-410.355	18.227	-0.096	0.076
-409.340	-102.137	-0.154	0.037
-408.325	-39.149	0.229	-0.120
-407.311	-13.461	0.154	0.099
-406.296	-200.000	0.003	-0.183
-405.282	-153.912	0.068	-0.005
-404.267	-24.061	-0.168	-0.100
-403.252	-32.528	-0.047	0.026
-402.238	-78.753	-0.268	0.091
-401.223	-22.813	-0.326	-0.195
-400.209	-200.000	-0.004	-0.206
-399.194	-22.252	-0.156	0.094
-398.179	-102.707	0.571	0.135
-397.165	800.000	-0.078	0.271
-396.150	-33.192	0.125	-0.068
-395.136	109.982	0.089	-0.106
-394.121	-200.000	-0.039	0.192
-393.106	-170.829	0.169	0.006
-392.092	35.231	-0.123	-0.107
-391.077	-200.000	0.076	-0.343
-390.063	-62.315	0.261	-0.108
-389.048	800.000	0.028	-0.094
-388.033	574.993	0.110	-0.266
-387.019	-107.705	0.213	0.046
-386.004	-32.964	0.089	-0.049
-384.990	-102.401	-0.093	0.022
-383.975	-155.400	-0.173	0.011
-382.960	358.238	-0.108	-0.214
-381.946	1.091	-0.219	-0.156
-380.931	231.108	-0.150	0.244
-379.917	482.857	-0.097	0.218
-378.902	125.180	-0.054	0.067
-377.888	70.505	0.098	-0.101
-376.873	-55.149	-0.047	0.021
-375.858	-11.326	0.229	-0.150
-374.844	-66.899	-0.120	-0.047
-373.829	477.247	-0.101	0.226
-372.815	-200.000	0.005	0.229
-371.800	800.000	0.061	0.217
-370.785	800.000	0.070	0.215
-369.771	487.563	0.187	0.423
-368.756	360.491	-0.060	-0.120
-367.742	-19.311	0.319	0.196
-366.727	800.000	0.032	0.094
-365.712	-200.000	-0.018	-0.149
-364.698	169.812	-0.074	-0.104
-363.683	-200.000	-0.001	-0.035
-362.669	-8.241	0.189	-0.126
-361.654	334.752	0.074	-0.142
-360.639	-0.467	0.088	-0.062
-359.625	-36.686	-0.191	-0.102
-358.610	-68.016	0.035	0.014
-357.596	-200.000	-0.018	-0.231
-356.581	104.327	-0.057	-0.066
-355.566	255.661	-0.170	0.288
-354.552	194.043	-0.040	-0.060
-353.537	-38.785	-0.096	0.050
-352.523	-130.569	0.304	-0.041
-351.508	188.241	-0.174	0.257
-350.493	-200.000	0.007	-0.139
-349.479	800.000	0.070	-0.196
-348.464	-69.920	-0.067	0.025
-347.450	451.943	-0.107	0.235
-346.435	-136.860	-0.349	-0.040
-345.420	54.970	-0.163	0.156
-344.406	-200.000	-0.018	0.161
-343.391	800.000	-0.025	-0.105
-342.377	-200.000	0.028	-0.246
-341.362	-200.000	-0.001	0.045
-340.348	800.000	0.030	0.113
-339.333	195.085	-0.035	-0.053
-338.318	800.000	0.078	0.274
-337.304	16.753	-0.217	0.170
-336.289	-179.275	-0.056	-0.001
-335.275	-143.159	-0.068	-0.007
-334.260	-12.013	0.089	0.058
-333.245	-200.000	0.005	0.091
-332.231	-108.544	-0.045	-0.010
-331.216	-66.995	0.232	0.091
-330.202	800.000	-0.035	0.112
-329.187	-150.501	0.223	0.017
-328.172	-45.207	-0.208	-0.103
-327.158	-119.474	-0.221	-0.038
-326.143	188.671	0.095	0.141
-325.129	-100.055	-0.095	-0.023
-324.114	28.980	0.313	0.263
-323.099	0.570	-0.156	0.110
-322.085	-95.560	-0.230	0.061
-321.070	339.408	-0.106	0.204
-320.056	118.604	0.121	0.148
-319.041	-40.554	0.348	0.179
-318.026	365.242	0.110	-0.219
-317.012	430.622	-0.137	0.293
-315.997	505.069	0.092	0.210
-314.983	-196.280	0.171	-0.001
-313.968	-35.672	-0.199	-0.107
-312.953	171.951	0.073	0.103
-311.939	800.000	-0.063	0.176
-310.924	429.999	-0.048	0.102
-309.910	532.238	-0.045	0.104
-308.895	-167.821	-0.233	0.009
-307.880	-167.252	-0.129	0.005
-306.866	19.483	0.117	-0.093
-305.851	-98.940	0.132	-0.033
-304.837	42.099	0.282	-0.253
-303.822	364.878	-0.129	-0.258
-302.807	-200.000	0.064	0.370
-301.793	228.958	-0.091	-0.147
-300.778	-70.659	-0.206	0.077
-299.764	-172.844	-0.249	0.008
-298.749	-200.000	-0.011	0.269
-297.735	459.056	-0.069	0.153
-296.720	796.119	0.067	0.184
-295.705	105.582	-0.211	0.247
-294.691	-37.098	-0.122	0.065
-293.676	164.830	-0.026	-0.036
-292.662	-62.327	0.171	-0.070
-291.647	-118.507	0.120	-0.021
-290.632	101.431	0.213	0.245
-289.618	303.209	-0.029	0.054
-288.603	-81.185	-0.309	0.101
-287.589	800.000	-0.067	-0.183
-286.574	-200.000	-0.043	0.253
-285.559	-135.490	0.137	0.016
-284.545	-200.000	-0.051	-0.521
-283.530	11.501	0.074	0.056
-282.516	-106.093	-0.097	-0.022
-281.501	-74.331	-0.182	0.065
-280.486	20.204	0.186	0.148
-279.472	-200.000	-0.006	-0.122
-278.457	-162.427	0.403	0.020
-277.443	155.959	0.147	0.201
-276.428	427.299	0.156	0.332
-275.413	-56.076	0.448	0.197
-274.399	90.841	0.126	-0.139
-273.384	79.476	-0.246	-0.260
-272.370	-26.111	0.207	0.120
-271.355	-74.774	-0.282	-0.100
-270.340	-86.800	-0.128	-0.039
-269.326	-200.000	-0.059	-0.264
-268.311	114.407	0.248	0.299
-267.297	-18.188	-0.114	0.070
-266.282	-150.704	0.142	-0.011
-265.267	-142.253	0.328	-0.032
-264.253	-60.254	0.409	0.172
-263.238	389.525	-0.140	0.287
-262.224	-18.277	-0.187	-0.115
-261.209	-200.000	-0.006	0.201
-260.195	154.437	0.167	0.227
-259.180	-129.633	-0.156	0.021
-258.165	72.513	0.131	-0.135
-257.151	800.000	-0.048	-0.208
-256.136	31.067	-0.245	0.207
-255.122	82.287	-0.107	0.115
-254.107	-200.000	-0.062	0.322
-253.092	-52.072	0.124	0.057
-252.078	83.715	-0.101	0.109
-251.063	-12.160	0.325	0.210
-250.049	-170.119	-0.382	0.013
-249.034	498.628	-0.075	-0.171
-248.019	-200.000	0.044	0.367
-247.005	38.992	0.097	-0.085
-245.990	-61.032	0.443	0.185
-244.976	501.190	-0.161	-0.367
-243.961	-87.246	0.249	0.074
-242.946	169.298	-0.227	0.319
-241.932	244.916	-0.107	-0.178
-240.917	-73.435	0.162	-0.058
-239.903	155.907	-0.089	-0.122
-238.888	-200.000	-0.043	-0.223
-237.873	101.635	0.253	0.291
-236.859	-200.000	-0.038	0.368
-235.844	-200.000	-0.021	-0.281
-234.830	-39.536	-0.151	0.078
-233.815	-113.536	0.116	-0.022
-232.800	-67.845	0.132	-0.051
-231.786	-45.894	0.420	-0.204
-230.771	1.397	0.310	-0.220
-229.757	2.228	-0.166	-0.118
-228.742	-200.000	0.032	-0.251
-227.727	-40.328	-0.182	0.093
-226.713	-200.000	-0.011	0.322
-225.698	-200.000	-0.030	-0.131
-224.684	-106.873	0.329	-0.072
-223.669	800.000	-0.052	0.173
-222.655	-200.000	-0.017	0.248
-221.640	800.000	0.109	0.307
-220.625	142.429	-0.089	0.116
-219.611	84.006	-0.180	-0.194
-218.596	-200.000	0.008	-0.155
-217.582	86.920	0.035	0.039
-216.567	-200.000	-0.009	-0.042
-215.552	251.068	-0.095	0.159
-214.538	12.201	0.189	-0.144
-213.523	86.740	-0.122	-0.132
-212.509	108.551	0.117	-0.138
-211.494	-200.000	0.019	-0.217
-210.479	181.758	-0.232	-0.337
-209.465	259.904	0.170	-0.289
-208.450	-191.559	-0.222	0.002
-207.436	777.445	0.066	0.178
-206.421	-40.335	0.322	-0.165
-205.406	229.241	-0.072	-0.116
-204.392	-200.000	0.075	-0.428
-203.377	-200.000	-0.059	0.511
-202.363	346.241	-0.114	0.222
-201.348	-200.000	-0.096	0.575
-200.333	-200.000	-0.012	-0.124
-199.319	729.208	0.102	-0.269
-198.304	-200.000	-0.011	-0.411
-197.290	-200.000	-0.019	-0.168
-196.275	-200.000	0.039	0.314
-195.260	240.158	0.052	-0.086
-194.246	-200.000	0.032	-0.197
-193.231	-169.983	-0.072	0.003
-192.217	240.399	0.280	0.460
-191.202	-200.000	-0.020	-0.136
-190.187	773.622	0.050	0.133
-189.173	-68.786	0.529	-0.201
-188.158	-139.773	-0.172	-0.018
-187.144	-200.000	-0.063	0.331
-186.129	-21.405	0.244	0.147
-185.114	11.026	-0.118	0.089
-184.100	5.819	-0.068	0.050
-183.085	-96.483	-0.192	0.050
-182.071	-200.000	0.028	0.450
-181.056	253.802	0.039	-0.065
-180.042	257.731	0.149	0.253
-179.027	-98.677	0.104	0.026
-178.012	-6.335	0.227	0.153
-176.998	289.961	0.040	-0.071
-175.983	-105.833	0.391	-0.087
-174.969	-135.412	-0.269	0.032
-173.954	40.213	-0.198	0.175
-172.939	23.647	0.166	0.135
-171.925	230.045	0.040	-0.065
-170.910	-32.350	0.083	-0.046
-169.896	543.090	-0.031	0.073
-168.881	323.362	0.106	-0.200
-167.866	-141.247	0.137	-0.014
-166.852	-7.164	0.161	-0.108
-165.837	-84.404	-0.112	-0.035
-164.823	670.316	-0.057	0.146
-163.808	800.000	-0.058	-0.181
-162.793	383.907	-0.144	0.291
-161.779	-117.133	0.201	0.036
-160.764	800.000	0.018	-0.068
-159.750	30.207	0.124	-0.104
-158.735	40.437	-0.120	-0.107
-157.720	-200.000	0.001	-0.074
-156.706	-107.042	-0.349	0.076
-155.691	800.000	0.088	-0.328
-154.677	181.015	0.040	0.057
-153.662	185.474	-0.238	-0.347
-152.647	-29.083	0.340	0.192
-151.633	-136.484	0.138	-0.016
-150.618	69.556	-0.181	0.183
-149.604	164.313	-0.128	-0.177
-148.589	-154.391	-0.297	0.020
-147.574	107.878	0.042	-0.050
-146.560	59.331	0.269	0.261
-145.545	-65.641	0.181	-0.071
-144.531	800.000	-0.105	0.322
-143.516	-200.000	-0.029	-0.290
-142.502	41.939	0.474	0.422
-141.487	-93.350	0.149	-0.041
-140.472	-115.417	-0.156	-0.029
-139.458	74.338	0.401	0.414
-138.443	-58.167	-0.098	0.042
-137.429	146.176	0.120	-0.158
-136.414	-70.471	0.051	-0.019
-135.399	-92.439	0.159	0.044
-134.385	404.703	0.040	-0.083
-133.370	-61.619	-0.122	-0.050
-132.356	181.383	-0.101	0.147
-131.341	218.859	0.047	-0.074
-130.326	103.912	0.227	0.262
-129.312	13.387	0.096	-0.073
-128.297	800.000	0.091	0.246
-127.283	-13.806	0.190	0.121
-126.268	88.669	-0.255	0.279
-125.253	28.043	0.127	0.105
-124.239	433.229	-0.114	-0.243
-123.224	-50.578	0.167	-0.077
-122.210	98.542	0.063	-0.071
-121.195	110.502	0.136	-0.160
-120.180	17.452	-0.255	0.199
-119.166	-19.673	-0.095	0.058
-118.151	-3.846	0.223	0.152
-117.137	-200.000	0.013	0.153
-116.122	88.248	-0.016	-0.018
-115.107	79.246	0.177	-0.186
-114.093	-37.432	0.200	-0.105
-113.078	270.419	-0.118	-0.203
-112.064	-44.882	-0.159	-0.078
-111.049	-43.128	0.268	-0.134
-110.034	-93.506	-0.259	-0.070
-109.020	-110.702	0.146	0.030
-108.005	-88.069	0.306	0.090
-106.991	-15.881	-0.501	-0.313
-105.976	-200.000	-0.013	0.237
-104.962	-96.227	0.173	-0.045
-103.947	-18.455	-0.127	-0.078
-102.932	-136.848	-0.213	-0.024
-101.918	67.350	-0.161	0.161
-100.903	-104.641	0.120	-0.027
-99.889	-86.365	-0.121	-0.036
-98.874	108.535	0.043	0.050
-97.859	138.111	0.170	0.219
-96.845	-36.439	0.331	0.175
-95.830	66.991	0.021	-0.021
-94.816	70.028	-0.129	-0.131
-93.801	-68.810	-0.437	-0.166
-92.786	-58.645	0.277	0.118
-91.772	-200.000	-0.001	-0.134
-90.757	-17.613	-0.168	0.104
-89.743	-114.428	-0.188	-0.035
-88.728	-126.976	-0.413	-0.060
-87.713	-139.081	0.204	-0.022
-86.699	51.314	0.266	-0.248
-85.684	91.390	-0.121	-0.134
-84.670	-2.911	0.291	-0.199
-83.655	-200.000	-0.000	0.030
-82.640	-34.032	-0.087	-0.047
-81.626	800.000	0.079	0.259
-80.611	-58.157	-0.105	0.045
-79.597	153.115	0.102	-0.137
-78.582	-200.000	-0.012	0.183
-77.567	122.160	-0.210	-0.258
-76.553	210.023	-0.121	0.185
-75.538	330.231	-0.115	0.217
-74.524	281.005	0.035	0.061
-73.509	-0.072	0.297	-0.207
-72.494	775.514	0.062	0.165
-71.480	438.543	0.080	0.170
-70.465	651.793	0.053	0.134
-69.451	-39.061	0.124	-0.064
-68.436	-20.907	-0.337	-0.203
-67.422	-200.000	-0.182	0.000
-66.407	-137.372	-0.072	-0.008
-65.392	-125.309	0.172	-0.026
-64.378	-200.000	-0.062	0.454
-63.363	-59.892	0.176	0.074
-62.349	-200.000	-0.004	-0.214
-61.334	75.637	-0.821	-0.850
-60.319	-76.403	0.838	0.289
-59.305	417.016	-0.578	-1.208
-58.290	659.350	0.341	0.860
-57.276	800.000	0.587	1.881
-56.261	-200.000	111.051	611.881
-55.246	507.013	1515.412	3442.367
-54.232	176.552	2699.978	3843.107
-53.217	103.213	2282.611	2620.330
-52.203	37.939	1890.060	1645.270
-51.188	32.085	1679.330	1417.730
-50.173	29.471	1636.683	1362.405
-49.159	48.689	1692.183	1553.444
-48.144	48.694	1706.798	1566.837
-47.130	31.556	1663.561	1400.235
-46.115	28.960	1648.811	1368.482
-45.100	28.774	1643.953	1363.015
-44.086	28.648	1641.564	1360.050
-43.071	28.631	1638.969	1357.718
-42.057	28.656	1636.357	1355.689
-41.042	28.809	1633.821	1354.656
-40.027	28.763	1632.334	1353.030
-39.013	28.805	1629.807	1351.196
-37.998	28.698	1628.809	1349.530
-36.984	28.765	1627.353	1348.759
-35.969	28.808	1625.997	1347.900
-34.954	28.854	1624.832	1347.215
-33.940	28.877	1622.402	1345.315
-32.925	28.890	1620.692	1343.939
-31.911	28.839	1619.284	1342.345
-30.896	28.949	1617.590	1341.687
-29.881	28.824	1616.113	1339.501
-28.867	28.868	1614.376	1338.326
-27.852	28.871	1612.748	1336.951
-26.838	28.898	1611.670	1336.194
-25.823	28.905	1610.048	1334.848
-24.809	28.934	1609.129	1334.249
-23.794	28.924	1607.925	1333.124
-22.779	28.883	1606.084	1331.247
-21.765	28.914	1604.450	1330.060
-20.750	28.871	1603.128	1328.604
-19.736	28.976	1601.620	1328.060
-18.721	28.868	1600.471	1326.273
-17.706	28.849	1598.990	1324.859
-16.692	28.908	1597.541	1324.030
-15.677	28.906	1596.101	1322.771
-14.663	28.957	1594.784	1321.991
-13.648	28.968	1593.317	1320.805
-12.633	28.886	1591.971	1319.046
-11.619	28.865	1590.521	1317.641
-10.604	28.876	1588.729	1316.186
-9.590	28.948	1587.126	1315.320
-8.575	28.910	1586.727	1314.666
-7.560	28.905	1585.174	1313.287
-6.546	28.915	1583.874	1312.232
-5.531	28.882	1582.745	1311.009
-4.517	28.902	1581.818	1310.329
-3.502	28.958	1580.380	1309.486
-2.487	28.964	1579.063	1308.383
-1.473	28.510	1567.551	1295.591
-0.458	25.647	1547.691	1259.120
0.556	23.822	1548.698	1227.605
1.571	21.327	1572.799	1229.075
2.586	20.749	1585.918	1235.117
3.600	18.795	1532.739	1180.183
4.615	11.561	1426.437	1051.815
5.629	4.999	1365.654	966.345
6.644	3.813	1357.522	953.198
7.659	3.710	1356.922	952.054
8.673	3.752	1355.729	951.391
9.688	3.786	1353.982	950.292
10.702	3.756	1351.041	947.959
11.717	6.772	1356.455	970.228
12.731	15.005	1371.515	1031.874
13.746	21.978	1382.233	1083.030
14.761	23.615	1384.614	1094.906
15.775	23.134	1382.621	1090.272
16.790	22.359	1380.783	1083.955
17.804	21.717	1378.818	1078.363
18.819	21.465	1378.071	1076.135
19.834	21.525	1377.215	1075.738
20.848	21.497	1376.206	1074.681
21.863	21.432	1375.147	1073.362
22.877	21.204	1374.621	1071.457
23.892	21.169	1373.392	1070.191
24.907	21.082	1372.281	1068.696
25.921	21.195	1371.197	1068.450
26.936	21.231	1369.892	1067.561
27.950	21.229	1369.428	1067.091
28.965	21.345	1368.413	1066.915
29.980	21.413	1367.534	1066.548
30.994	21.581	1366.706	1066.832
32.009	21.624	1365.691	1066.207
33.023	21.576	1365.055	1065.323
34.038	21.404	1363.484	1062.957
35.053	21.381	1362.046	1061.605
36.067	21.363	1361.362	1060.870
37.082	21.337	1360.059	1059.600
38.096	21.364	1359.538	1059.266
39.111	21.452	1358.778	1059.114
40.126	21.353	1357.585	1057.490
41.140	20.819	1357.290	1053.933
42.155	20.866	1355.594	1052.811
43.169	20.667	1355.949	1051.789
44.184	20.762	1355.873	1052.210
45.199	20.846	1355.794	1052.563
46.213	21.078	1355.490	1053.638
47.228	21.174	1354.838	1053.617
48.242	21.372	1353.141	1053.398
49.257	21.281	1351.644	1051.590
50.271	21.215	1350.302	1050.057
51.286	21.169	1349.255	1048.873
52.301	21.168	1347.873	1047.700
53.315	21.075	1346.290	1045.819
54.330	20.939	1345.370	1044.199
55.344	20.917	1344.144	1043.020
56.359	20.846	1343.075	1041.675
57.374	20.919	1342.183	1041.325
58.388	20.770	1341.692	1039.963
59.403	20.716	1341.148	1039.128
60.417	20.577	1340.499	1037.705
61.432	20.543	1339.571	1036.690
62.447	20.471	1338.474	1035.319
63.461	20.424	1337.015	1033.823
64.476	20.297	1336.274	1032.401
65.490	20.439	1334.926	1032.114
66.505	20.357	1333.438	1030.381
67.520	20.441	1332.319	1029.926
68.534	20.628	1331.123	1030.016
69.549	20.392	1330.096	1027.734
70.563	20.291	1329.310	1026.439
71.578	20.213	1328.114	1024.967
72.593	20.121	1327.175	1023.604
73.607	20.082	1326.435	1022.712
74.622	20.150	1326.511	1023.080
75.636	20.199	1325.360	1022.392
76.651	20.314	1324.377	1022.223
77.666	20.333	1324.505	1022.344
78.680	20.330	1323.658	1021.581
79.695	20.442	1323.537	1022.055
80.709	20.475	1323.075	1021.806
81.724	20.869	1321.807	1023.047
82.739	20.933	1321.217	1022.878
83.753	21.071	1320.702	1023.194
84.768	21.189	1320.360	1023.533
85.782	21.497	1318.885	1024.099
86.797	21.622	1317.532	1023.688
87.812	21.367	1316.423	1021.249
88.826	21.285	1315.422	1019.907
89.841	21.341	1314.550	1019.462
90.855	21.419	1313.504	1019.018
91.870	21.553	1312.768	1019.137
92.884	21.680	1311.684	1018.946
93.899	21.542	1311.800	1018.143
94.914	21.569	1311.148	1017.701
95.928	21.551	1309.936	1016.567
96.943	21.557	1309.134	1015.891
97.957	21.536	1307.953	1014.763
98.972	21.502	1306.996	1013.730
99.987	21.456	1306.462	1012.964
101.001	21.477	1305.175	1011.998
102.016	21.451	1304.330	1011.099
103.030	21.516	1303.174	1010.492
104.045	21.427	1302.413	1009.294
105.060	21.229	1300.990	1006.967
106.074	20.972	1298.897	1003.773
107.089	20.650	1297.323	1000.616
108.103	20.396	1296.317	998.294
109.118	20.415	1295.213	997.464
110.133	20.384	1293.778	996.093
111.147	20.479	1292.839	995.824
112.162	20.574	1291.617	995.338
113.176	20.561	1290.828	994.568
114.191	20.628	1289.787	994.062
115.206	20.708	1288.545	993.472
116.220	20.652	1287.246	992.066
117.235	20.562	1286.159	990.628
118.249	20.520	1285.048	989.444
119.264	20.376	1283.703	987.504
120.279	20.317	1282.905	986.469
121.293	20.335	1281.330	985.270
122.308	20.128	1280.642	983.483
123.322	20.119	1279.362	982.360
124.337	20.055	1278.458	981.214
125.352	20.091	1277.359	980.489
126.366	20.055	1276.533	979.563
127.381	19.848	1275.562	977.566
128.395	19.988	1274.155	977.187
129.410	19.945	1273.280	976.188
130.424	20.100	1273.133	976.863
131.439	20.359	1272.271	977.573
132.454	20.425	1271.839	977.528
133.468	20.488	1270.793	976.991
134.483	20.548	1270.790	977.237
135.497	20.613	1269.499	976.524
136.512	20.643	1268.305	975.688
137.527	20.641	1266.858	974.478
138.541	20.626	1265.774	973.476
139.556	20.814	1264.612	973.546
140.570	20.881	1264.137	973.466
141.585	21.013	1263.095	973.315
142.600	21.092	1262.351	973.100
143.614	21.344	1260.942	973.331
144.629	21.356	1260.547	973.005
145.643	21.284	1259.382	971.617
146.658	21.118	1257.829	969.411
147.673	20.981	1255.885	967.067
148.687	20.839	1254.984	965.505
149.702	20.667	1253.446	963.283
150.716	20.648	1251.738	961.780
151.731	20.457	1250.792	959.909
152.746	20.662	1249.835	960.222
153.760	20.751	1248.756	959.798
154.775	20.922	1248.147	960.189
155.789	20.909	1247.542	959.566
156.804	20.940	1246.604	958.932
157.819	21.136	1245.322	958.941
158.833	21.226	1244.650	958.831
159.848	21.338	1244.133	958.964
160.862	21.291	1243.215	957.913
161.877	20.924	1241.358	954.385
162.892	20.641	1239.419	951.265
163.906	20.626	1238.984	950.763
164.921	20.349	1238.590	948.863
165.935	20.606	1237.765	949.549
166.950	20.750	1237.246	949.855
167.964	20.834	1236.269	949.477
168.979	20.772	1235.766	948.670
169.994	20.698	1234.929	947.538
171.008	20.744	1234.485	947.368
172.023	20.916	1233.904	947.771
173.037	21.049	1233.293	947.943
174.052	21.152	1232.095	947.499
175.067	20.701	1231.049	944.160
176.081	20.558	1229.455	942.078
177.096	20.421	1229.123	940.998
178.110	20.588	1227.901	940.885
179.125	20.656	1226.816	940.339
180.140	20.799	1226.308	940.638
181.154	21.105	1225.174	941.335
182.169	21.115	1224.187	940.547
183.183	21.170	1222.984	939.838
184.198	21.201	1221.639	938.888
185.213	21.195	1220.888	938.194
186.227	21.327	1219.668	937.884
187.242	21.313	1219.127	937.307
188.256	21.361	1218.386	936.916
189.271	21.420	1217.456	936.433
190.286	21.341	1216.155	934.927
191.300	20.892	1215.063	931.605
192.315	20.628	1214.333	929.548
193.329	20.726	1213.416	929.288
194.344	20.626	1213.137	928.458
195.359	20.739	1212.782	928.708
196.373	20.734	1212.344	928.264
197.388	20.960	1211.759	928.941
198.402	21.209	1212.170	930.497
199.417	21.525	1211.648	931.698
200.432	21.670	1211.083	931.954
201.446	21.720	1210.279	931.516
202.461	21.849	1209.284	931.354
203.475	21.818	1208.625	930.598
204.490	21.390	1206.865	926.895
205.504	21.191	1205.441	924.665
206.519	21.082	1204.287	923.123
207.534	20.989	1202.993	921.557
208.548	21.076	1201.924	921.112
209.563	20.968	1201.948	920.481
210.577	20.991	1200.944	919.753
211.592	21.131	1199.789	919.525
212.607	21.370	1199.866	920.760
213.621	21.511	1198.676	920.506
214.636	21.308	1197.550	918.496
215.650	21.383	1196.796	918.229
216.665	21.535	1196.243	918.523
217.680	21.808	1195.583	919.365
218.694	21.797	1194.706	918.552
219.709	21.693	1193.373	916.902
220.723	21.516	1193.405	915.920
221.738	21.675	1192.651	916.091
222.753	21.475	1191.459	914.051
223.767	21.459	1191.089	913.600
224.782	21.710	1190.948	914.723
225.796	21.894	1189.904	914.801
226.811	21.783	1189.209	913.606
227.826	21.568	1188.475	911.841
228.840	21.418	1187.556	910.273
229.855	21.365	1186.522	909.125
230.869	21.312	1186.390	908.670
231.884	21.279	1184.966	907.328
232.899	21.107	1183.864	905.510
233.913	21.069	1183.119	904.661
234.928	21.029	1182.967	904.258
235.942	20.936	1181.802	902.808
236.957	20.942	1180.685	901.906
237.972	20.947	1180.089	901.394
238.986	20.956	1179.539	900.940
240.001	20.933	1179.178	900.465
241.015	21.013	1177.994	899.898
242.030	21.143	1177.259	899.925
243.045	21.272	1177.289	900.536
244.059	21.383	1176.134	900.144
245.074	21.442	1175.570	899.937
246.088	21.471	1175.206	899.724
247.103	21.621	1174.659	899.998
248.117	21.750	1173.996	900.074
249.132	21.931	1173.562	900.591
250.147	22.221	1173.467	901.927
251.161	22.514	1172.278	902.433
252.176	22.588	1171.952	902.479
253.190	22.584	1171.301	901.879
254.205	22.686	1170.908	902.017
255.220	22.751	1170.546	901.991
256.234	22.772	1169.930	901.543
257.249	22.735	1169.107	900.640
258.263	22.547	1168.459	899.106
259.278	22.557	1167.474	898.317
260.293	22.681	1167.158	898.627
261.307	22.695	1166.712	898.277
262.322	22.738	1165.994	897.859
263.336	22.780	1165.198	897.381
264.351	22.783	1164.751	896.972
265.366	22.755	1163.948	896.136
266.380	22.770	1163.458	895.756
267.395	22.578	1162.543	893.997
268.409	22.424	1161.494	892.328
269.424	22.387	1161.115	891.771
270.439	22.364	1160.415	891.040
271.453	22.360	1159.152	889.969
272.468	22.220	1158.293	888.526
273.482	22.077	1157.070	886.784
274.497	22.104	1156.825	886.658
275.512	22.039	1156.537	886.029
276.526	22.120	1155.279	885.395
277.541	22.106	1154.694	884.796
278.555	22.257	1154.659	885.455
279.570	22.538	1154.024	886.303
280.585	22.805	1152.737	886.578
281.599	22.700	1152.201	885.556
282.614	22.433	1150.712	882.998
283.628	22.256	1149.783	881.319
284.643	22.322	1148.303	880.436
285.657	22.258	1148.079	879.867
286.672	22.218	1147.071	878.817
287.687	22.340	1146.082	878.593
288.701	22.421	1145.361	878.365
289.716	22.241	1144.800	876.956
290.730	22.314	1144.027	876.654
291.745	22.360	1143.474	876.381
292.760	22.337	1143.103	875.903
293.774	22.412	1142.453	875.699
294.789	22.576	1142.220	876.262
295.803	22.693	1141.231	876.003
296.818	22.482	1140.092	874.008
297.833	22.283	1139.565	872.540
298.847	22.242	1138.871	871.726
299.862	22.324	1138.256	871.583
300.876	22.387	1137.336	871.115
301.891	22.553	1136.436	871.171
302.906	22.701	1136.096	871.561
303.920	22.851	1136.038	872.184
304.935	23.028	1135.453	872.529
305.949	23.026	1135.055	872.137
306.964	23.046	1134.234	871.530
307.979	22.822	1133.400	869.705
308.993	22.781	1132.337	868.610
310.008	22.840	1131.405	868.111
311.022	22.808	1131.004	867.569
312.037	22.904	1129.931	867.141
313.052	22.692	1129.219	865.475
314.066	22.474	1127.537	863.042
315.081	22.238	1126.743	861.201
316.095	22.062	1126.182	859.836
317.110	22.165	1125.633	859.843
318.125	22.119	1124.629	858.775
319.139	22.176	1123.666	858.242
320.154	22.311	1122.924	858.261
321.168	22.216	1122.516	857.411
322.183	22.213	1121.866	856.823
323.197	22.319	1121.629	857.080
324.212	22.473	1120.803	857.123
325.227	22.456	1120.566	856.783
326.241	22.367	1120.393	856.144
327.256	22.390	1118.889	855.032
328.270	22.245	1117.952	853.533
329.285	22.361	1116.791	853.134
330.300	22.327	1116.134	852.395
331.314	22.256	1115.382	851.400
332.329	22.312	1114.521	850.938
333.343	22.398	1113.448	850.457
334.358	22.572	1112.737	850.680
335.373	22.629	1112.875	850.984
336.387	22.848	1112.094	851.369
337.402	22.801	1111.348	850.495
338.416	22.861	1110.843	850.325
339.431	23.032	1110.255	850.623
340.446	23.164	1109.718	850.771
341.460	23.339	1109.358	851.260
342.475	23.434	1108.319	850.844
343.489	23.465	1107.498	850.287
344.504	23.535	1107.055	850.204
345.519	23.483	1106.689	849.598
346.533	23.565	1105.853	849.278
347.548	23.656	1104.696	848.745
348.562	23.635	1103.338	847.530
349.577	23.265	1102.715	845.212
350.592	22.877	1101.453	842.318
351.606	22.804	1100.732	841.342
352.621	22.657	1099.822	839.873
353.635	22.570	1099.264	838.959
354.650	22.683	1098.540	838.870
355.665	22.599	1098.237	838.165
356.679	22.767	1097.587	838.393
357.694	22.970	1097.071	838.888
358.708	22.970	1096.248	838.184
359.723	23.163	1095.872	838.740
360.738	23.018	1095.336	837.565
361.752	22.948	1094.784	836.736
362.767	23.127	1093.314	836.387
363.781	23.175	1093.566	836.735
364.796	23.327	1093.227	837.117
365.810	23.644	1092.724	838.154
366.825	23.748	1092.440	838.353
367.840	23.873	1091.953	838.497
368.854	23.895	1091.484	838.167
369.869	23.855	1090.714	837.310
370.883	23.686	1089.515	835.523
371.898	23.609	1088.648	834.422
372.913	23.540	1087.769	833.350
373.927	23.601	1087.629	833.457
374.942	23.711	1087.437	833.749
375.956	23.732	1086.859	833.332
376.971	23.719	1085.749	832.346
377.986	23.638	1085.535	831.729
379.000	23.811	1085.466	832.414
380.015	24.010	1084.789	832.753
381.029	24.088	1084.432	832.766
382.044	24.082	1083.657	832.073
383.059	23.961	1082.615	830.634
384.073	23.865	1081.859	829.531
385.088	23.925	1081.005	829.082
386.102	23.823	1080.476	828.127
387.117	23.547	1078.992	825.634
388.132	23.336	1077.654	823.557
389.146	23.372	1077.216	823.318
390.161	23.337	1075.981	822.135
391.175	23.411	1075.298	821.887
392.190	23.613	1074.516	822.148
393.205	23.862	1074.290	823.055
394.219	23.799	1073.433	822.037
395.234	23.532	1072.490	820.010
396.248	23.414	1071.928	818.961
397.263	23.345	1070.578	817.537
398.278	23.295	1069.769	816.616
399.292	23.206	1069.003	815.550
400.307	23.291	1068.112	815.190
401.321	23.161	1067.543	814.087
402.336	23.079	1066.912	813.157
403.350	23.041	1066.561	812.639
404.365	23.202	1065.830	812.750
405.380	23.375	1064.917	812.776
406.394	23.491	1064.341	812.797
407.409	23.558	1064.268	812.977
408.423	23.937	1063.339	813.929
409.438	23.992	1062.780	813.681
410.453	24.066	1062.536	813.758
411.467	24.148	1061.776	813.479
412.482	24.143	1061.128	812.891
413.496	24.225	1060.557	812.756
414.511	24.258	1060.268	812.613
415.526	24.382	1059.850	812.786
416.540	24.579	1059.566	813.394
417.555	24.595	1058.694	812.725
418.569	24.277	1058.318	810.917
419.584	24.192	1057.708	809.991
420.599	24.192	1057.026	809.398
421.613	156.428	1404.057	1796.913
422.628	143.720	1454.602	1797.028
