DTS Sentinel unit serial number:	SN413079Multiplexer serial number:	ORYXHardware model number:	OX4-SRSoftware version number:	ORYX F/W v4.00 Oryx Data Collector v3.7.2.0data status	okinstallation	princeton_trtdifferential loss correction	single-endedforward channel	channel 2reverse channel	N/Adate	2019/09/11time	02:41:11forward acquisition time	60.00reverse acquisition time	0.00gamma	496.2192k internal	0.2331k external	0.2331temperature offset calibration	0.9940default loss term (dB/km)	0.3790temperature slope calibration	1.0000multiplexer offset coefficient	1.0000multiplexer slope coefficient	1.0000fibre end	0.00T internal ref (°C)	29.25T ext. ref 1 (°C)	-0.31T ext. ref 2 (°C)	23.15length (m)	temperature (°C)	Stokes	anti-Stokes-747.200	-29.384	-0.250	0.144
-746.185	-11.434	0.170	-0.113
-745.171	140.752	-0.118	-0.157
-744.156	800.000	0.071	-0.225
-743.142	-153.300	0.185	-0.013
-742.127	-200.000	-0.025	0.192
-741.112	-18.144	0.142	-0.090
-740.098	103.816	0.197	0.233
-739.083	116.362	-0.026	-0.032
-738.069	-200.000	0.026	-0.316
-737.054	133.894	0.313	-0.408
-736.039	131.072	-0.221	-0.286
-735.025	-168.633	-0.110	-0.004
-734.010	124.959	0.101	-0.128
-732.996	-134.647	-0.210	-0.026
-731.981	-200.000	-0.038	-0.281
-730.966	-41.000	-0.316	0.164
-729.952	-200.000	-0.095	-0.449
-728.937	-200.000	-0.038	-0.323
-727.923	241.384	-0.219	0.368
-726.908	-62.620	0.270	-0.113
-725.894	-138.014	0.097	-0.011
-724.879	-200.000	0.001	-0.120
-723.864	-144.742	-0.119	0.011
-722.850	-200.000	-0.004	0.216
-721.835	-108.034	0.201	0.044
-720.821	-86.976	0.379	-0.116
-719.806	-169.943	0.037	-0.001
-718.791	282.412	-0.110	0.198
-717.777	800.000	-0.068	-0.237
-716.762	-18.815	-0.087	0.054
-715.748	800.000	-0.114	-0.333
-714.733	-7.534	-0.102	-0.069
-713.718	-120.367	0.316	0.054
-712.704	-74.293	-0.254	-0.092
-711.689	800.000	0.057	0.219
-710.675	152.208	0.178	-0.244
-709.660	-121.307	-0.364	-0.061
-708.645	61.978	-0.143	-0.143
-707.631	-28.260	0.310	0.180
-706.616	-14.988	-0.230	0.148
-705.602	-160.237	-0.025	-0.001
-704.587	-200.000	-0.008	0.076
-703.572	-79.022	0.160	-0.055
-702.558	88.042	-0.277	-0.309
-701.543	-200.000	0.031	-0.168
-700.529	-86.718	0.224	-0.069
-699.514	-24.591	0.069	0.041
-698.499	75.008	-0.220	-0.233
-697.485	800.000	0.051	-0.218
-696.470	-200.000	-0.037	0.201
-695.456	-72.397	-0.261	0.097
-694.441	735.600	-0.064	0.173
-693.426	-127.050	0.248	0.037
-692.412	551.834	-0.101	0.243
-691.397	-57.440	-0.234	0.103
-690.383	294.571	-0.146	0.269
-689.368	-153.838	-0.375	-0.026
-688.354	-200.000	0.016	-0.099
-687.339	-11.491	-0.388	-0.256
-686.324	208.044	0.041	-0.065
-685.310	41.267	-0.199	-0.181
-684.295	32.507	-0.104	0.090
-683.281	145.090	-0.197	0.265
-682.266	800.000	-0.028	-0.080
-681.251	-88.361	-0.522	0.157
-680.237	-55.771	-0.442	-0.198
-679.222	-57.809	0.396	0.174
-678.208	301.634	0.082	0.152
-677.193	-92.531	-0.450	0.127
-676.178	-200.000	0.000	-0.110
-675.164	34.526	-0.148	0.130
-674.149	-154.276	-0.205	-0.014
-673.135	-200.000	0.020	0.353
-672.120	-200.000	0.015	-0.225
-671.105	-200.000	-0.002	-0.109
-670.091	800.000	0.062	0.258
-669.076	343.277	0.218	-0.429
-668.062	192.288	-0.230	0.348
-667.047	-200.000	0.041	0.223
-666.032	800.000	0.037	-0.136
-665.018	-165.651	0.177	0.008
-664.003	-1.192	0.134	0.095
-662.989	102.868	0.103	-0.121
-661.974	22.167	-0.090	0.074
-660.959	800.000	0.177	-0.496
-659.945	-200.000	0.020	0.269
-658.930	96.092	-0.116	-0.133
-657.916	800.000	-0.009	0.027
-656.901	-200.000	-0.044	-0.334
-655.886	411.972	0.107	-0.227
-654.872	240.975	0.071	-0.119
-653.857	792.448	-0.078	-0.214
-652.843	4.999	-0.280	0.206
-651.828	-18.668	-0.230	-0.144
-650.814	-52.281	0.395	0.184
-649.799	800.000	0.044	0.177
-648.784	-120.870	0.213	-0.036
-647.770	-120.126	-0.318	0.055
-646.755	-42.369	0.121	-0.062
-645.741	-35.333	0.096	-0.052
-644.726	75.266	0.051	0.054
-643.711	800.000	0.042	-0.167
-642.697	-200.000	0.035	0.360
-641.682	-23.654	-0.121	0.073
-640.668	255.092	-0.077	0.133
-639.653	-66.987	0.279	0.110
-638.638	224.336	-0.180	-0.292
-637.624	-69.082	0.170	-0.065
-636.609	172.201	-0.028	-0.041
-635.595	86.081	0.217	0.240
-634.580	105.928	-0.070	-0.082
-633.565	61.242	0.127	0.126
-632.551	11.241	-0.018	0.014
-631.536	356.010	-0.152	-0.303
-630.522	-11.496	0.065	-0.043
-629.507	-200.000	0.035	0.201
-628.492	-92.276	0.170	0.048
-627.478	-58.650	-0.206	-0.090
-626.463	-200.000	0.015	0.245
-625.449	-82.941	0.259	-0.084
-624.434	-44.839	0.446	0.223
-623.419	-183.934	0.443	-0.007
-622.405	800.000	0.147	0.422
-621.390	-100.035	-0.143	0.036
-620.376	62.329	0.097	-0.097
-619.361	-31.805	0.099	0.055
-618.346	-101.241	-0.364	-0.089
-617.332	-138.643	-0.188	-0.021
-616.317	-200.000	-0.000	-0.118
-615.303	65.125	-0.244	-0.247
-614.288	-200.000	-0.026	-0.217
-613.273	212.741	-0.136	-0.215
-612.259	48.908	-0.354	-0.333
-611.244	800.000	0.046	-0.145
-610.230	-200.000	-0.058	-0.308
-609.215	800.000	-0.047	0.155
-608.201	167.038	-0.160	0.227
-607.186	800.000	0.103	0.298
-606.171	-200.000	-0.019	-0.212
-605.157	522.087	0.039	-0.092
-604.142	-141.432	0.157	-0.016
-603.128	9.482	-0.236	-0.179
-602.113	800.000	0.105	-0.320
-601.098	800.000	0.058	-0.166
-600.084	-125.759	0.432	0.065
-599.069	-13.632	0.100	0.065
-598.055	-173.678	-0.163	0.005
-597.040	-115.373	0.108	-0.020
-596.025	-12.441	0.187	0.122
-595.011	-146.795	0.085	-0.007
-593.996	314.797	0.150	0.283
-592.982	732.746	0.053	-0.141
-591.967	10.440	0.165	0.126
-590.952	1.450	-0.229	0.165
-589.938	-42.464	0.199	-0.101
-588.923	133.345	-0.129	0.166
-587.909	-125.243	-0.368	0.056
-586.894	-70.425	-0.256	0.097
-585.879	-121.936	0.415	-0.068
-584.865	12.873	-0.230	-0.178
-583.850	29.914	-0.141	0.120
-582.836	-106.196	0.086	0.019
-581.821	152.424	-0.070	-0.096
-580.806	-81.489	0.167	0.055
-579.792	504.002	-0.053	-0.123
-578.777	57.059	0.089	-0.087
-577.763	713.545	-0.069	-0.183
-576.748	-87.908	-0.033	-0.010
-575.733	76.068	-0.105	-0.112
-574.719	-200.000	-0.011	-0.255
-573.704	-74.119	0.147	0.053
-572.690	292.668	-0.047	-0.085
-571.675	-200.000	-0.003	0.061
-570.661	-12.185	0.126	0.082
-569.646	-200.000	0.042	-0.470
-568.631	-52.261	-0.276	-0.128
-567.617	800.000	-0.054	0.191
-566.602	-158.005	-0.337	0.020
-565.588	400.523	-0.034	0.071
-564.573	800.000	0.102	-0.367
-563.558	-73.644	-0.182	0.066
-562.544	-59.299	0.111	-0.048
-561.529	231.196	-0.115	-0.188
-560.515	10.508	0.419	-0.319
-559.500	-130.457	-0.159	-0.022
-558.485	-140.036	-0.092	0.010
-557.471	639.360	-0.028	0.070
-556.456	370.508	0.129	0.262
-555.442	-63.682	0.498	-0.204
-554.427	196.410	0.094	0.142
-553.412	530.632	-0.124	-0.292
-552.398	-200.000	0.027	-0.348
-551.383	-200.000	-0.036	0.323
-550.369	-40.457	0.394	0.204
-549.354	-200.000	-0.050	-0.377
-548.339	800.000	0.039	-0.112
-547.325	-171.351	0.204	-0.007
-546.310	316.139	0.118	0.222
-545.296	-197.054	-0.117	-0.001
-544.281	-41.432	0.321	0.165
-543.266	-15.972	-0.176	-0.112
-542.252	22.642	-0.145	0.118
-541.237	-72.060	-0.060	-0.022
-540.223	-200.000	-0.042	-0.370
-539.208	-14.295	0.201	-0.129
-538.193	164.225	0.171	-0.241
-537.179	268.737	0.134	0.235
-536.164	187.617	-0.034	0.050
-535.150	-87.960	0.416	-0.125
-534.135	310.052	-0.185	0.345
-533.121	74.140	-0.013	0.013
-532.106	189.327	0.102	0.153
-531.091	-200.000	0.017	-0.080
-530.077	15.198	-0.324	0.253
-529.062	193.817	-0.082	0.124
-528.048	-45.032	-0.309	-0.153
-527.033	506.468	-0.050	-0.116
-526.018	100.783	-0.139	-0.161
-525.004	167.791	0.026	0.037
-523.989	-18.811	-0.175	0.109
-522.975	-5.586	-0.292	0.200
-521.960	190.328	0.101	0.151
-520.945	-94.844	-0.252	0.068
-519.931	31.374	-0.125	-0.107
-518.916	-110.216	-0.043	-0.009
-517.902	-42.576	0.149	-0.076
-516.887	-74.527	-0.224	0.080
-515.872	189.178	0.239	-0.358
-514.858	252.061	-0.091	0.154
-513.843	-200.000	-0.031	-0.306
-512.829	800.000	0.055	0.207
-511.814	279.347	0.069	0.123
-510.799	-39.514	-0.267	0.140
-509.785	-26.889	0.162	0.094
-508.770	-143.566	0.109	-0.010
-507.756	-200.000	0.028	0.326
-506.741	-200.000	0.021	0.103
-505.726	-129.362	-0.069	0.010
-504.712	-200.000	0.007	-0.151
-503.697	-200.000	-0.044	0.335
-502.683	-123.120	-0.145	-0.023
-501.668	-50.171	0.160	-0.076
-500.653	138.446	-0.167	0.219
-499.639	145.317	0.066	-0.088
-498.624	800.000	0.055	0.179
-497.610	58.388	0.278	0.272
-496.595	129.977	-0.124	-0.158
-495.581	104.723	0.119	-0.140
-494.566	-81.212	0.189	-0.062
-493.551	-52.562	0.021	0.010
-492.537	-84.922	0.299	0.094
-491.522	-151.591	0.564	-0.042
-490.508	-200.000	-0.005	-0.046
-489.493	44.729	-0.107	0.098
-488.478	-200.000	-0.016	-0.082
-487.464	-1.578	0.280	-0.197
-486.449	449.709	0.145	-0.318
-485.435	-200.000	0.004	-0.060
-484.420	-200.000	0.021	0.107
-483.405	-200.000	-0.008	0.203
-482.391	-22.716	-0.143	-0.086
-481.376	204.894	0.286	0.443
-480.362	91.179	0.225	0.251
-479.347	-129.073	-0.287	-0.040
-478.332	302.839	0.164	0.302
-477.318	-74.005	-0.112	0.041
-476.303	299.217	-0.129	-0.237
-475.289	709.910	0.052	0.137
-474.274	27.390	0.214	0.179
-473.259	59.374	-0.128	-0.126
-472.245	-27.655	-0.153	-0.089
-471.230	-105.807	0.215	0.048
-470.216	77.752	-0.108	-0.114
-469.201	452.519	0.173	0.380
-468.186	-200.000	-0.032	0.160
-467.172	-110.053	-0.231	0.048
-466.157	-200.000	-0.001	-0.286
-465.143	-107.626	0.233	-0.051
-464.128	-19.101	0.188	-0.116
-463.113	-109.110	-0.208	0.044
-462.099	-72.884	0.101	-0.037
-461.084	-25.110	-0.247	-0.146
-460.070	336.668	-0.106	0.204
-459.055	-106.054	-0.048	0.011
-458.040	-200.000	-0.033	0.165
-457.026	800.000	0.076	-0.262
-456.011	203.351	0.075	0.115
-454.997	800.000	-0.018	0.072
-453.982	-200.000	0.011	0.125
-452.968	-139.451	0.316	-0.034
-451.953	87.657	-0.241	0.266
-450.938	-41.750	0.173	0.088
-449.924	-52.764	0.176	-0.081
-448.909	-200.000	-0.013	0.084
-447.895	-105.407	0.022	-0.005
-446.880	800.000	0.026	0.090
-445.865	150.924	0.105	0.143
-444.851	-28.104	-0.203	0.117
-443.836	27.821	-0.037	0.031
-442.822	-200.000	-0.032	-0.145
-441.807	30.903	-0.195	0.166
-440.792	530.840	-0.044	0.104
-439.778	-101.384	-0.239	-0.058
-438.763	-200.000	0.007	-0.169
-437.749	275.282	0.055	-0.096
-436.734	-160.089	-0.294	-0.016
-435.719	-200.000	-0.022	-0.135
-434.705	-200.000	-0.065	0.377
-433.690	214.526	0.170	0.267
-432.676	-84.509	-0.501	-0.157
-431.661	-58.137	-0.434	0.188
-430.646	-181.999	-0.155	0.003
-429.632	-200.000	0.021	-0.264
-428.617	216.106	0.216	0.341
-427.603	780.986	-0.042	0.115
-426.588	104.260	0.111	0.130
-425.573	463.411	0.178	-0.396
-424.559	-200.000	0.025	-0.239
-423.544	-35.428	0.170	-0.092
-422.530	-130.919	-0.226	-0.030
-421.515	-84.933	0.258	-0.080
-420.500	1.902	0.342	-0.245
-419.486	541.748	0.136	0.323
-418.471	800.000	-0.076	-0.220
-417.457	238.983	0.120	0.198
-416.442	572.594	-0.096	-0.234
-415.428	-99.292	0.242	-0.061
-414.413	15.318	-0.137	0.107
-413.398	800.000	0.082	-0.323
-412.384	-117.371	0.107	-0.019
-411.369	158.213	0.118	0.163
-410.355	4.665	-0.049	0.036
-409.340	-200.000	-0.003	0.041
-408.325	-9.267	-0.195	-0.130
-407.311	33.540	-0.159	-0.137
-406.296	16.642	-0.205	-0.161
-405.282	-89.897	0.148	-0.043
-404.267	245.991	0.152	-0.255
-403.252	800.000	-0.098	-0.396
-402.238	-26.761	-0.385	-0.224
-401.223	-200.000	-0.093	-0.000
-400.209	-145.921	0.341	0.030
-399.194	-200.000	0.014	-0.229
-398.179	383.515	0.080	-0.164
-397.165	-70.616	-0.132	0.049
-396.150	282.023	-0.106	-0.189
-395.136	-200.000	0.022	0.393
-394.121	800.000	-0.008	-0.028
-393.106	394.784	0.196	-0.406
-392.092	-93.083	0.349	0.096
-391.077	367.662	0.110	-0.221
-390.063	-200.000	0.031	0.221
-389.048	-200.000	-0.003	-0.076
-388.033	-115.006	-0.205	0.039
-387.019	-81.464	0.178	-0.058
-386.004	-108.159	0.285	0.061
-384.990	-71.593	0.075	0.028
-383.975	184.365	-0.264	-0.388
-382.960	-200.000	-0.024	-0.306
-381.946	-200.000	0.018	-0.162
-380.931	800.000	-0.103	-0.376
-379.917	800.000	-0.028	-0.108
-378.902	165.380	0.128	-0.179
-377.888	-93.368	-0.107	-0.030
-376.873	309.438	0.144	0.268
-375.858	37.645	0.040	-0.035
-374.844	-24.559	-0.107	-0.063
-373.829	1.862	-0.089	0.064
-372.815	-134.446	-0.363	-0.044
-371.800	430.880	0.087	0.187
-370.785	-200.000	-0.057	0.265
-369.771	28.653	0.065	-0.054
-368.756	-200.000	0.002	0.180
-367.742	-47.931	-0.079	0.038
-366.727	800.000	-0.139	0.439
-365.712	-200.000	-0.011	0.161
-364.698	-30.665	0.224	-0.125
-363.683	1.729	0.190	-0.135
-362.669	89.518	0.261	0.289
-361.654	-77.167	0.179	-0.062
-360.639	800.000	-0.088	-0.381
-359.625	9.042	-0.108	0.081
-358.610	-97.064	-0.161	0.042
-357.596	-200.000	-0.034	0.187
-356.581	-145.858	-0.034	-0.003
-355.566	95.386	0.090	-0.102
-354.552	-200.000	-0.016	-0.239
-353.537	-200.000	-0.038	0.182
-352.523	-46.737	-0.317	0.154
-351.508	800.000	0.021	-0.059
-350.493	594.184	0.046	0.113
-349.479	-149.445	-0.159	-0.013
-348.464	-86.609	0.284	0.086
-347.450	-89.158	0.117	-0.034
-346.435	-26.728	-0.091	-0.053
-345.420	-151.741	0.296	0.022
-344.406	-200.000	0.014	0.103
-343.391	44.073	-0.122	-0.111
-342.377	312.042	-0.071	-0.133
-341.362	-27.227	0.026	0.015
-340.348	-200.000	0.008	0.084
-339.333	-83.753	0.010	-0.003
-338.318	-200.000	-0.033	0.307
-337.304	418.391	-0.184	0.390
-336.289	-72.971	0.363	-0.132
-335.275	-200.000	-0.092	-0.000
-334.260	-23.746	0.044	0.026
-333.245	-200.000	0.034	-0.223
-332.231	66.674	-0.178	0.179
-331.216	-54.536	0.153	-0.069
-330.202	291.888	0.158	-0.284
-329.187	31.649	-0.235	0.200
-328.172	61.336	-0.317	-0.312
-327.158	204.906	-0.198	-0.305
-326.143	-64.269	0.307	-0.124
-325.129	-79.166	0.414	0.139
-324.114	-200.000	0.004	-0.229
-323.099	-40.321	-0.120	-0.062
-322.085	-124.878	0.300	-0.046
-321.070	53.318	0.113	-0.107
-320.056	-200.000	0.048	-0.269
-319.041	542.013	0.064	0.152
-318.026	-200.000	0.019	0.089
-317.012	217.857	-0.106	-0.167
-315.997	69.321	0.290	-0.296
-314.983	-200.000	0.015	0.278
-313.968	12.880	0.151	0.116
-312.953	385.102	-0.130	0.265
-311.939	-200.000	0.013	0.260
-310.924	-138.489	0.249	0.027
-309.910	220.020	0.031	0.049
-308.895	-65.903	-0.173	0.068
-307.880	-124.357	-0.190	0.029
-306.866	32.083	-0.135	-0.116
-305.851	56.799	-0.174	-0.167
-304.837	-200.000	-0.096	-0.428
-303.822	-8.082	-0.069	0.046
-302.807	-200.000	0.038	-0.333
-301.793	-144.511	-0.113	0.010
-300.778	-80.388	0.365	-0.121
-299.764	318.220	0.085	0.160
-298.749	222.540	0.128	0.204
-297.735	480.685	0.145	0.326
-296.720	-200.000	0.001	-0.037
-295.705	-200.000	-0.021	-0.116
-294.691	126.100	0.293	0.367
-293.676	520.386	0.097	0.225
-292.662	-110.738	-0.348	-0.071
-291.647	800.000	-0.114	0.337
-290.632	3.952	-0.153	0.111
-289.618	120.454	-0.160	-0.197
-288.603	-43.557	0.120	-0.060
-287.589	47.672	-0.216	-0.199
-286.574	378.333	-0.036	0.073
-285.559	49.768	-0.365	0.340
-284.545	-165.952	-0.254	-0.011
-283.530	566.782	-0.084	0.202
-282.516	-151.032	0.055	0.004
-281.501	-108.661	-0.315	0.067
-280.486	148.684	0.118	-0.158
-279.472	411.569	-0.011	-0.023
-278.457	-200.000	-0.031	-0.285
-277.443	456.338	-0.096	0.211
-276.428	36.590	-0.173	0.151
-275.413	385.872	-0.129	0.264
-274.399	366.624	0.146	-0.292
-273.384	-16.479	-0.099	-0.062
-272.370	-59.004	-0.190	0.081
-271.355	128.770	0.255	-0.321
-270.340	-72.249	0.008	0.003
-269.326	-111.394	-0.346	-0.070
-268.311	332.346	0.048	0.092
-267.297	183.520	0.147	0.214
-266.282	457.678	-0.083	-0.182
-265.267	-200.000	0.021	-0.179
-264.253	74.875	-0.280	-0.292
-263.238	-24.207	-0.163	0.096
-262.224	107.061	-0.029	-0.034
-261.209	-102.751	0.241	-0.057
-260.195	-96.797	0.114	0.029
-259.180	148.432	-0.070	0.093
-258.165	-131.835	-0.225	0.029
-257.151	-101.450	0.077	-0.019
-256.136	4.346	0.266	0.192
-255.122	195.555	-0.220	-0.330
-254.107	310.664	0.166	0.308
-253.092	800.000	-0.030	0.105
-252.078	-111.257	0.476	0.096
-251.063	135.117	0.196	0.251
-250.049	-200.000	-0.043	-0.221
-249.034	-10.662	-0.188	-0.123
-248.019	40.985	-0.130	-0.116
-247.005	329.937	-0.140	0.266
-245.990	-200.000	0.003	-0.081
-244.976	800.000	0.128	0.484
-243.961	362.402	-0.084	-0.167
-242.946	-200.000	0.012	-0.286
-241.932	249.310	0.122	0.205
-240.917	-44.038	-0.280	0.139
-239.903	-29.327	0.170	-0.096
-238.888	-58.869	0.181	0.077
-237.873	7.371	-0.300	0.221
-236.859	800.000	0.072	-0.293
-235.844	800.000	0.110	0.363
-234.830	36.619	-0.209	0.182
-233.815	-194.714	-0.147	0.001
-232.800	-200.000	-0.008	-0.080
-231.786	-200.000	0.047	0.208
-230.771	-200.000	-0.012	-0.208
-229.757	-29.082	-0.030	0.017
-228.742	800.000	0.055	-0.155
-227.727	284.483	0.025	-0.044
-226.713	525.066	0.019	-0.044
-225.698	-55.866	-0.123	0.054
-224.684	427.236	0.110	0.234
-223.669	-95.403	-0.255	-0.068
-222.655	800.000	-0.047	0.188
-221.640	750.868	-0.139	-0.369
-220.625	-200.000	-0.005	-0.053
-219.611	-78.326	0.085	-0.029
-218.596	119.570	-0.267	-0.326
-217.582	136.979	0.104	-0.134
-216.567	-63.467	0.080	-0.032
-215.552	162.175	0.037	-0.052
-214.538	-126.294	-0.246	0.036
-213.523	-138.857	-0.281	0.030
-212.509	532.577	0.034	0.079
-211.494	-48.365	-0.231	-0.110
-210.479	-200.000	0.018	-0.081
-209.465	353.833	-0.102	0.200
-208.450	-176.154	-0.034	0.001
-207.436	-4.146	0.202	-0.138
-206.421	800.000	0.072	-0.240
-205.406	800.000	-0.059	0.204
-204.392	484.373	-0.123	0.276
-203.377	-115.485	-0.530	-0.098
-202.363	-200.000	-0.071	0.332
-201.348	-79.023	0.249	0.083
-200.333	-200.000	0.016	0.076
-199.319	-161.504	0.189	0.010
-198.304	-198.224	-0.360	0.002
-197.290	-115.497	0.348	0.065
-196.275	-177.129	0.121	-0.003
-195.260	-200.000	-0.060	0.364
-194.246	-200.000	0.003	0.077
-193.231	582.436	0.131	-0.316
-192.217	-47.791	0.239	0.114
-191.202	115.731	-0.127	-0.153
-190.187	-131.683	0.306	0.040
-189.173	-200.000	0.053	0.364
-188.158	526.268	-0.116	0.269
-187.144	16.025	0.106	0.082
-186.129	-200.000	0.043	0.349
-185.114	57.960	-0.251	0.242
-184.100	-200.000	0.016	-0.333
-183.085	800.000	0.062	-0.205
-182.071	-67.403	-0.183	-0.071
-181.056	489.369	-0.129	0.290
-180.042	-44.810	-0.074	0.036
-179.027	-90.268	-0.201	-0.058
-178.012	-200.000	-0.025	-0.193
-176.998	-131.810	-0.239	0.031
-175.983	-5.319	0.126	0.085
-174.969	-35.823	0.123	0.066
-173.954	441.117	-0.169	-0.364
-172.939	-132.365	-0.141	0.018
-171.925	-88.116	-0.047	0.014
-170.910	82.246	-0.134	-0.143
-169.896	-81.635	-0.234	0.075
-168.881	102.062	-0.107	0.122
-167.866	800.000	-0.002	-0.007
-166.852	257.829	-0.126	-0.213
-165.837	373.546	0.171	-0.341
-164.823	-82.711	-0.346	0.110
-163.808	-200.000	0.001	0.510
-162.793	164.985	0.224	0.312
-161.779	43.307	-0.273	0.246
-160.764	-7.926	0.265	0.176
-159.750	-35.230	0.177	0.095
-158.735	-200.000	-0.014	-0.364
-157.720	345.102	-0.088	0.171
-156.706	249.503	0.092	0.153
-155.691	-28.635	0.400	-0.227
-154.677	-3.546	0.171	0.117
-153.662	571.459	-0.101	-0.241
-152.647	100.665	-0.097	0.111
-151.633	800.000	0.185	-0.539
-150.618	-200.000	-0.050	-0.256
-149.604	-200.000	-0.016	0.070
-148.589	309.866	0.039	0.072
-147.574	73.567	-0.195	-0.201
-146.560	126.666	0.129	0.161
-145.545	82.765	0.184	0.196
-144.531	315.277	0.092	0.171
-143.516	-45.507	0.179	0.087
-142.502	-200.000	0.008	0.089
-141.487	486.360	-0.166	0.373
-140.472	-75.126	0.301	-0.106
-139.458	-96.123	-0.487	0.127
-138.443	116.324	-0.311	0.375
-137.429	1.260	0.253	-0.178
-136.414	250.256	-0.025	-0.042
-135.399	-77.162	0.224	-0.077
-134.385	334.723	0.246	0.468
-133.370	800.000	0.084	0.357
-132.356	90.371	-0.136	0.149
-131.341	800.000	-0.085	-0.235
-130.326	636.566	-0.089	0.223
-129.312	638.222	0.119	0.297
-128.297	800.000	-0.045	-0.163
-127.283	300.661	0.184	0.334
-126.268	-35.152	-0.122	0.065
-125.253	217.713	0.158	0.248
-124.239	761.645	0.176	-0.470
-123.224	-95.389	-0.038	-0.010
-122.210	677.076	0.111	0.283
-121.195	-157.119	0.253	0.015
-120.180	101.551	-0.225	0.258
-119.166	-200.000	0.045	0.437
-118.151	78.921	-0.087	0.091
-117.137	800.000	-0.024	0.085
-116.122	178.392	-0.191	0.274
-115.107	470.630	0.178	0.393
-114.093	-30.436	-0.164	-0.091
-113.078	800.000	0.078	0.224
-112.064	-163.077	-0.199	0.009
-111.049	280.577	0.246	0.431
-110.034	35.661	0.156	0.135
-109.020	-141.226	-0.305	0.031
-108.005	139.237	0.157	-0.203
-106.991	72.296	-0.034	-0.035
-105.976	800.000	0.101	0.318
-104.962	-138.914	-0.256	0.027
-103.947	235.666	-0.107	-0.174
-102.932	-81.273	-0.192	-0.062
-101.918	800.000	0.066	-0.185
-100.903	-161.739	0.148	0.007
-99.889	800.000	-0.072	0.228
-98.874	800.000	0.089	0.286
-97.859	82.845	-0.189	0.201
-96.845	469.189	0.081	-0.179
-95.830	308.203	0.071	-0.129
-94.816	658.507	-0.021	-0.053
-93.801	672.433	-0.057	-0.145
-92.786	179.466	-0.121	0.173
-91.772	100.558	0.281	0.320
-90.757	528.417	0.084	-0.194
-89.743	244.734	0.186	-0.307
-88.728	-200.000	-0.033	-0.306
-87.713	-200.000	0.011	0.173
-86.699	-154.392	-0.378	0.025
-85.684	-200.000	0.003	-0.047
-84.670	125.026	-0.062	0.077
-83.655	-181.014	-0.116	-0.002
-82.640	-200.000	-0.019	-0.161
-81.626	577.951	-0.090	0.215
-80.611	800.000	0.023	0.091
-79.597	-94.853	0.179	0.048
-78.582	-36.700	0.270	0.142
-77.567	800.000	-0.044	0.120
-76.553	-139.359	0.024	-0.003
-75.538	-118.315	-0.206	-0.036
-74.524	-200.000	0.008	0.201
-73.509	-200.000	0.060	0.390
-72.494	32.179	-0.109	0.092
-71.480	-200.000	-0.034	0.245
-70.465	-200.000	-0.033	0.239
-69.451	-106.327	-0.134	0.029
-68.436	-67.478	0.353	-0.136
-67.422	-2.608	0.057	-0.039
-66.407	266.192	-0.029	-0.049
-65.392	-190.176	0.173	0.002
-64.378	-91.409	-0.237	-0.066
-63.363	800.000	-0.028	0.107
-62.349	-96.778	-0.275	-0.071
-61.334	115.840	-1.039	-1.246
-60.319	-84.919	0.775	0.238
-59.305	800.000	-0.304	-1.174
-58.290	75.246	0.828	0.856
-57.276	509.908	0.703	1.601
-56.261	-200.000	107.035	619.398
-55.246	513.547	1513.605	3457.848
-54.232	174.677	2713.710	3846.383
-53.217	104.220	2299.568	2650.149
-52.203	38.442	1903.713	1662.085
-51.188	32.416	1689.523	1429.419
-50.173	29.917	1646.450	1374.396
-49.159	48.951	1700.468	1563.629
-48.144	49.182	1715.720	1579.333
-47.130	32.010	1672.969	1412.138
-46.115	29.376	1658.615	1380.282
-45.100	29.182	1653.657	1374.654
-44.086	29.157	1651.108	1372.290
-43.071	29.135	1647.616	1369.173
-42.057	29.057	1645.434	1366.727
-41.042	29.112	1643.918	1365.820
-40.027	29.110	1642.598	1364.656
-39.013	29.153	1639.809	1362.601
-37.998	29.122	1638.207	1360.989
-36.984	29.187	1637.057	1360.457
-35.969	29.150	1635.765	1359.062
-34.954	29.280	1633.997	1358.492
-33.940	29.241	1632.268	1356.718
-32.925	29.265	1630.035	1354.979
-31.911	29.305	1628.688	1354.099
-30.896	29.246	1626.636	1351.909
-29.881	29.179	1625.631	1350.527
-28.867	29.215	1623.854	1349.266
-27.852	29.205	1622.002	1347.599
-26.838	29.224	1620.882	1346.754
-25.823	29.264	1619.671	1345.988
-24.809	29.202	1618.331	1344.367
-23.794	29.287	1616.800	1343.656
-22.779	29.282	1615.014	1342.084
-21.765	29.271	1613.630	1340.803
-20.750	29.243	1612.055	1339.237
-19.736	29.310	1610.491	1338.368
-18.721	29.335	1609.026	1337.279
-17.706	29.320	1607.212	1335.614
-16.692	29.215	1605.923	1333.729
-15.677	29.322	1604.550	1333.309
-14.663	29.343	1603.393	1332.447
-13.648	29.352	1601.763	1331.101
-12.633	29.262	1600.374	1329.248
-11.619	29.236	1599.121	1327.968
-10.604	29.249	1597.913	1327.008
-9.590	29.280	1596.499	1326.001
-8.575	29.390	1595.123	1325.600
-7.560	29.270	1593.758	1323.549
-6.546	29.253	1592.868	1322.632
-5.531	29.292	1591.593	1321.802
-4.517	29.258	1590.663	1320.735
-3.502	29.271	1589.672	1319.951
-2.487	29.358	1588.008	1319.141
-1.473	28.975	1576.445	1306.761
-0.458	26.412	1556.428	1272.118
0.556	20.587	1558.266	1241.798
1.571	18.426	1582.912	1245.634
2.586	18.122	1596.471	1253.963
3.600	16.330	1543.280	1199.360
4.615	8.541	1433.758	1062.567
5.629	1.199	1370.376	968.744
6.644	-0.207	1362.570	954.207
7.659	-0.353	1361.220	952.249
8.673	-0.304	1360.116	951.705
9.688	-0.386	1358.461	949.946
10.702	-0.557	1355.394	946.631
11.717	2.796	1361.919	972.377
12.731	12.051	1379.181	1043.785
13.746	19.331	1391.920	1099.952
14.761	21.322	1394.229	1114.386
15.775	21.682	1393.971	1116.376
16.790	21.706	1393.618	1116.146
17.804	21.836	1392.427	1115.920
18.819	22.036	1392.763	1117.366
19.834	22.150	1391.737	1117.168
20.848	22.064	1391.334	1116.200
21.863	22.185	1390.230	1115.986
22.877	22.103	1389.813	1115.030
23.892	22.070	1389.063	1114.120
24.907	22.164	1387.843	1113.637
25.921	22.189	1387.186	1113.170
26.936	22.138	1385.950	1111.759
27.950	22.067	1384.738	1110.238
28.965	22.157	1383.883	1110.022
29.980	22.122	1382.663	1108.724
30.994	22.232	1381.221	1108.166
32.009	22.060	1380.912	1106.738
33.023	22.165	1379.395	1106.081
34.038	22.175	1378.465	1105.303
35.053	22.142	1377.330	1104.088
36.067	22.139	1376.255	1103.105
37.082	22.174	1375.123	1102.324
38.096	22.157	1374.151	1101.340
39.111	22.134	1372.968	1100.147
40.126	21.999	1373.300	1099.471
41.140	22.190	1371.510	1099.137
42.155	22.111	1371.948	1098.897
43.169	22.081	1372.006	1098.655
44.184	22.142	1371.609	1098.623
45.199	22.170	1370.640	1097.928
46.213	22.181	1370.383	1097.692
47.228	22.222	1369.344	1097.017
48.242	22.195	1368.199	1095.837
49.257	22.185	1366.649	1094.436
50.271	22.158	1365.460	1093.219
51.286	22.122	1364.546	1092.168
52.301	22.098	1362.959	1090.647
53.315	22.137	1361.784	1089.857
54.330	22.178	1361.164	1089.517
55.344	22.135	1359.962	1088.194
56.359	22.094	1359.189	1087.222
57.374	22.094	1359.041	1087.007
58.388	22.097	1357.987	1086.090
59.403	22.036	1357.575	1085.287
60.417	22.149	1356.528	1085.051
61.432	22.150	1356.142	1084.650
62.447	22.111	1354.879	1083.307
63.461	22.045	1354.060	1082.145
64.476	22.192	1352.541	1081.742
65.490	22.157	1351.592	1080.675
66.505	22.211	1349.971	1079.612
67.520	22.243	1348.664	1078.665
68.534	22.215	1347.923	1077.808
69.549	22.233	1347.193	1077.239
70.563	22.259	1346.149	1076.471
71.578	22.092	1345.452	1074.794
72.593	22.188	1344.737	1074.716
73.607	22.171	1343.642	1073.644
74.622	22.129	1343.126	1072.877
75.636	22.262	1342.108	1072.779
76.651	22.106	1341.490	1071.239
77.666	22.184	1340.598	1070.907
78.680	22.108	1340.799	1070.509
79.695	22.126	1339.560	1069.536
80.709	22.128	1339.127	1069.111
81.724	22.150	1337.685	1067.995
82.739	22.200	1336.784	1067.487
83.753	22.179	1335.896	1066.555
84.768	22.073	1334.677	1064.848
85.782	22.149	1333.845	1064.546
86.797	22.211	1332.691	1063.906
87.812	22.207	1331.587	1062.907
88.826	22.171	1330.457	1061.693
89.841	22.116	1329.396	1060.421
90.855	22.104	1328.939	1059.890
91.870	22.256	1327.469	1059.539
92.884	22.219	1326.733	1058.635
93.899	22.239	1326.027	1058.099
94.914	22.220	1325.390	1057.383
95.928	22.178	1324.328	1056.193
96.943	22.230	1323.769	1055.961
97.957	22.167	1323.408	1055.201
98.972	22.267	1321.875	1054.489
99.987	22.231	1320.663	1053.209
101.001	22.254	1319.871	1052.623
102.016	22.185	1319.230	1051.609
103.030	22.184	1318.242	1050.720
104.045	22.287	1316.986	1050.241
105.060	22.212	1316.407	1049.242
106.074	22.307	1314.791	1048.425
107.089	22.254	1314.218	1047.560
108.103	22.197	1313.370	1046.452
109.118	22.379	1311.485	1045.937
110.133	22.365	1310.701	1045.141
111.147	22.356	1309.494	1044.028
112.162	22.297	1308.414	1042.725
113.176	22.342	1307.134	1041.882
114.191	22.238	1306.915	1040.996
115.206	22.412	1305.062	1040.459
116.220	22.272	1304.147	1038.810
117.235	22.311	1303.340	1038.305
118.249	22.257	1302.768	1037.437
119.264	22.280	1301.413	1036.404
120.279	22.358	1300.597	1036.122
121.293	22.367	1300.510	1036.014
122.308	22.323	1298.812	1034.311
123.322	22.442	1297.813	1034.123
124.337	22.298	1297.339	1032.812
125.352	22.316	1296.039	1031.788
126.366	22.493	1295.120	1032.005
127.381	22.371	1294.259	1030.513
128.395	22.281	1293.549	1029.325
129.410	22.432	1292.582	1029.349
130.424	22.382	1292.074	1028.561
131.439	22.356	1291.336	1027.735
132.454	22.306	1290.485	1026.674
133.468	22.329	1289.491	1025.921
134.483	22.474	1289.074	1026.349
135.497	22.378	1288.412	1025.172
136.512	22.202	1287.482	1023.313
137.527	22.354	1286.189	1023.081
138.541	22.356	1284.508	1021.661
139.556	22.254	1283.891	1020.493
140.570	22.301	1282.718	1019.743
141.585	22.346	1281.725	1019.119
142.600	22.371	1280.280	1018.025
143.614	22.416	1279.479	1017.561
144.629	22.295	1278.948	1016.351
145.643	22.286	1277.479	1015.041
146.658	22.278	1276.444	1014.079
147.673	22.311	1275.650	1013.550
148.687	22.234	1275.083	1012.564
149.702	22.269	1273.697	1011.579
150.716	22.309	1272.582	1010.832
151.731	22.314	1271.410	1009.844
152.746	22.435	1270.286	1009.551
153.760	22.401	1268.912	1008.176
154.775	22.321	1268.243	1007.100
155.789	22.422	1266.987	1006.588
156.804	22.376	1266.254	1005.655
157.819	22.340	1265.515	1004.772
158.833	22.356	1264.253	1003.775
159.848	22.465	1263.854	1003.993
160.862	22.496	1263.012	1003.410
161.877	22.459	1262.010	1002.313
162.892	22.486	1261.344	1001.848
163.906	22.541	1260.500	1001.402
164.921	22.467	1259.975	1000.478
165.935	22.477	1259.243	999.867
166.950	22.337	1258.901	998.710
167.964	22.546	1257.695	998.852
168.979	22.469	1257.771	998.385
169.994	22.623	1256.532	998.183
171.008	22.395	1256.002	996.386
172.023	22.526	1255.251	996.443
173.037	22.504	1254.551	995.674
174.052	22.584	1253.636	995.310
175.067	22.346	1253.459	993.737
176.081	22.530	1252.280	993.753
177.096	22.438	1251.698	992.683
178.110	22.604	1250.250	992.383
179.125	22.455	1249.534	990.892
180.140	22.551	1248.341	990.397
181.154	22.484	1247.255	989.068
182.169	22.539	1246.221	988.472
183.183	22.597	1244.939	987.694
184.198	22.531	1244.017	986.501
185.213	22.547	1243.417	986.029
186.227	22.620	1242.087	985.294
187.242	22.539	1241.599	984.370
188.256	22.617	1240.593	983.920
189.271	22.501	1239.374	982.218
190.286	22.639	1238.796	982.441
191.300	22.480	1238.776	981.455
192.315	22.507	1238.196	981.057
193.329	22.579	1237.810	981.065
194.344	22.508	1237.696	980.494
195.359	22.686	1236.531	980.474
196.373	22.576	1236.247	979.550
197.388	22.519	1235.667	978.688
198.402	22.573	1235.500	978.768
199.417	22.516	1234.789	977.802
200.432	22.575	1233.870	977.317
201.446	22.538	1233.871	977.027
202.461	22.536	1233.311	976.485
203.475	22.525	1232.492	975.691
204.490	22.527	1230.967	974.407
205.504	22.581	1229.958	973.818
206.519	22.660	1228.822	973.272
207.534	22.652	1228.074	972.545
208.548	22.631	1227.440	971.842
209.563	22.568	1226.606	970.748
210.577	22.735	1225.336	970.576
211.592	22.742	1224.906	970.191
212.607	22.679	1224.102	969.122
213.621	22.593	1223.693	968.241
214.636	22.680	1222.828	967.948
215.650	22.681	1221.930	967.156
216.665	22.755	1220.857	966.623
217.680	22.768	1219.868	965.827
218.694	22.693	1219.173	964.781
219.709	22.639	1218.904	964.190
220.723	22.868	1217.627	964.346
221.738	22.731	1217.034	963.039
222.753	22.651	1216.370	961.997
223.767	22.734	1215.628	961.773
224.782	22.839	1215.378	962.063
225.796	22.710	1215.041	961.009
226.811	22.789	1214.379	960.829
227.826	22.802	1213.760	960.328
228.840	22.828	1213.238	959.971
229.855	22.825	1212.125	958.990
230.869	22.737	1211.771	958.148
231.884	22.808	1210.698	957.598
232.899	22.798	1209.790	956.739
233.913	22.887	1209.169	956.649
234.928	22.847	1209.115	956.303
235.942	22.875	1208.350	955.764
236.957	22.793	1207.607	954.648
237.972	22.791	1206.941	954.028
238.986	22.749	1206.499	953.367
240.001	22.860	1205.890	953.401
241.015	22.990	1204.794	953.151
242.030	22.908	1204.448	952.353
243.045	22.933	1203.508	951.658
244.059	22.993	1202.572	951.156
245.074	22.912	1202.197	950.339
246.088	23.019	1201.017	949.896
247.103	23.050	1200.012	949.187
248.117	22.930	1199.594	948.128
249.132	23.009	1198.711	947.770
250.147	22.922	1198.270	946.867
251.161	23.076	1197.066	946.658
252.176	23.012	1196.690	945.936
253.190	23.096	1195.920	945.692
254.205	23.052	1195.424	944.979
255.220	23.037	1194.768	944.300
256.234	23.001	1194.231	943.601
257.249	23.098	1193.613	943.544
258.263	22.983	1193.113	942.454
259.278	23.024	1192.640	942.214
260.293	23.086	1191.969	941.929
261.307	23.221	1191.070	941.856
262.322	23.237	1190.430	941.350
263.336	23.057	1189.999	939.970
264.351	23.117	1189.194	939.571
265.366	23.038	1189.079	938.979
266.380	23.072	1188.140	938.332
267.395	23.159	1187.495	938.201
268.409	22.960	1186.971	936.651
269.424	23.016	1186.703	936.653
270.439	23.049	1185.990	936.178
271.453	23.128	1184.852	935.618
272.468	23.066	1184.464	934.900
273.482	23.033	1184.019	934.292
274.497	23.133	1182.979	933.915
275.512	23.057	1182.842	933.322
276.526	23.121	1181.960	932.884
277.541	23.243	1181.220	932.861
278.555	23.220	1180.517	932.100
279.570	23.245	1180.007	931.745
280.585	23.237	1178.886	930.737
281.599	23.150	1178.216	929.668
282.614	23.224	1177.377	929.313
283.628	23.298	1176.334	928.796
284.643	23.248	1175.577	927.856
285.657	23.293	1174.761	927.363
286.672	23.257	1174.061	926.538
287.687	23.350	1173.229	926.286
288.701	23.285	1172.596	925.368
289.716	23.364	1171.561	924.879
290.730	23.306	1171.197	924.209
291.745	23.315	1170.353	923.510
292.760	23.331	1169.886	923.140
293.774	23.272	1169.943	922.796
294.789	23.354	1169.098	922.476
295.803	23.471	1167.956	922.102
296.818	23.375	1167.683	921.308
297.833	23.363	1167.022	920.638
298.847	23.295	1166.705	919.957
299.862	23.381	1165.293	919.206
300.876	23.516	1164.852	919.477
301.891	23.458	1164.395	918.735
302.906	23.452	1163.778	918.136
303.920	23.498	1163.066	917.729
304.935	23.504	1162.323	917.094
305.949	23.547	1161.985	916.969
306.964	23.462	1161.420	916.004
307.979	23.489	1160.374	915.234
308.993	23.555	1159.461	914.777
310.008	23.666	1158.598	914.584
311.022	23.617	1158.119	913.872
312.037	23.556	1157.501	912.993
313.052	23.596	1156.405	912.252
314.066	23.634	1155.226	911.436
315.081	23.609	1155.080	911.113
316.095	23.613	1154.452	910.554
317.110	23.560	1154.363	910.133
318.125	23.726	1153.440	910.177
319.139	23.649	1152.209	908.731
320.154	23.647	1151.850	908.357
321.168	23.580	1151.401	907.578
322.183	23.624	1151.045	907.440
323.197	23.584	1150.218	906.507
324.212	23.617	1149.802	906.268
325.227	23.599	1149.339	905.731
326.241	23.794	1148.347	905.864
327.256	23.709	1147.945	905.030
328.270	23.703	1147.335	904.440
329.285	23.710	1146.211	903.511
330.300	23.661	1145.484	902.606
331.314	23.745	1144.324	902.039
332.329	23.772	1143.794	901.681
333.343	23.805	1143.385	901.445
334.358	23.845	1142.269	900.690
335.373	23.812	1141.773	900.049
336.387	23.762	1140.991	899.102
337.402	23.835	1140.661	899.132
338.416	23.769	1139.732	897.985
339.431	23.911	1139.154	898.167
340.446	23.942	1138.455	897.693
341.460	23.724	1138.006	896.161
342.475	23.909	1137.089	896.290
343.489	24.012	1135.714	895.649
344.504	23.820	1135.627	894.530
345.519	23.890	1134.602	893.996
346.533	23.871	1133.747	893.147
347.548	24.040	1132.830	893.196
348.562	24.023	1132.173	892.514
349.577	24.007	1131.329	891.690
350.592	23.753	1130.984	890.069
351.606	23.929	1130.107	890.179
352.621	23.888	1129.612	889.506
353.635	23.931	1129.277	889.379
354.650	23.967	1128.379	888.769
355.665	24.067	1127.507	888.504
356.679	24.062	1127.149	888.118
357.694	24.056	1126.402	887.422
358.708	23.996	1125.590	886.404
359.723	24.109	1125.218	886.596
360.738	24.018	1124.558	885.545
361.752	23.965	1124.104	884.844
362.767	24.017	1123.696	884.702
363.781	24.067	1123.222	884.501
364.796	24.117	1122.801	884.340
365.810	24.115	1122.088	883.690
366.825	24.071	1121.311	882.783
367.840	24.264	1120.348	882.901
368.854	24.236	1119.732	882.198
369.869	24.121	1119.568	881.422
370.883	24.232	1118.533	881.077
371.898	24.169	1117.780	880.099
372.913	24.258	1116.894	879.759
373.927	24.283	1116.768	879.706
374.942	24.268	1116.167	879.084
375.956	24.296	1115.894	878.926
376.971	24.426	1114.956	878.748
377.986	24.321	1114.649	877.916
379.000	24.343	1113.790	877.267
380.015	24.246	1113.744	876.679
381.029	24.369	1112.488	876.212
382.044	24.227	1112.368	875.343
383.059	24.405	1111.577	875.521
384.073	24.310	1110.800	874.362
385.088	24.280	1110.237	873.697
386.102	24.456	1108.642	873.225
387.117	24.357	1108.135	872.261
388.132	24.266	1107.812	871.485
389.146	24.461	1106.483	871.317
390.161	24.509	1105.841	870.969
391.175	24.368	1105.634	870.042
392.190	24.376	1105.082	869.566
393.205	24.296	1104.588	868.714
394.219	24.367	1103.605	868.209
395.234	24.490	1102.899	868.176
396.248	24.312	1101.918	866.463
397.263	24.438	1100.973	866.251
398.278	24.507	1100.277	865.965
399.292	24.488	1100.034	865.605
400.307	24.450	1099.471	864.899
401.321	24.552	1098.525	864.574
402.336	24.441	1097.774	863.369
403.350	24.547	1097.263	863.403
404.365	24.546	1096.686	862.867
405.380	24.617	1095.980	862.578
406.394	24.579	1095.398	861.860
407.409	24.730	1094.562	861.856
408.423	24.824	1093.540	861.427
409.438	24.809	1092.797	860.691
410.453	24.748	1092.156	859.816
411.467	24.750	1091.871	859.525
412.482	24.620	1091.412	858.467
413.496	24.724	1090.300	858.011
414.511	24.744	1089.611	857.492
415.526	24.637	1089.796	857.045
416.540	24.822	1088.763	857.043
417.555	24.820	1088.418	856.687
418.569	24.763	1087.971	855.986
419.584	24.759	1087.530	855.544
420.599	24.761	1086.945	855.019
421.613	148.776	1402.524	1799.959
422.628	137.563	1448.479	1800.040
