DTS Sentinel unit serial number:	SN413079Multiplexer serial number:	ORYXHardware model number:	OX4-SRSoftware version number:	ORYX F/W v4.00 Oryx Data Collector v3.7.2.0data status	okinstallation	princeton_trtdifferential loss correction	single-endedforward channel	channel 2reverse channel	N/Adate	2019/09/15time	21:07:35forward acquisition time	60.00reverse acquisition time	0.00gamma	496.2192k internal	0.2333k external	0.2333temperature offset calibration	0.9941default loss term (dB/km)	0.3790temperature slope calibration	1.0000multiplexer offset coefficient	1.0000multiplexer slope coefficient	1.0000fibre end	0.00T internal ref (°C)	31.50T ext. ref 1 (°C)	8.12T ext. ref 2 (°C)	24.39length (m)	temperature (°C)	Stokes	anti-Stokes-747.200	145.520	-0.112	0.151
-746.185	-84.942	-0.261	0.082
-745.171	346.278	0.195	0.386
-744.156	-200.000	0.034	0.160
-743.142	150.147	0.034	-0.046
-742.127	87.231	-0.273	0.304
-741.112	4.601	-0.290	-0.214
-740.098	-74.998	0.259	0.093
-739.083	-145.936	0.118	0.011
-738.069	-61.279	0.077	-0.032
-737.054	-83.544	0.129	-0.041
-736.039	102.343	-0.157	0.184
-735.025	-94.336	0.437	0.120
-734.010	800.000	0.143	-0.438
-732.996	-92.596	-0.055	0.015
-731.981	763.558	0.074	-0.202
-730.966	684.976	-0.086	-0.226
-729.952	136.640	-0.234	-0.308
-728.937	-2.685	0.210	-0.148
-727.923	-200.000	-0.139	0.620
-726.908	39.838	-0.136	0.123
-725.894	22.391	0.144	-0.118
-724.879	582.826	-0.016	-0.038
-723.864	702.975	-0.079	0.210
-722.850	105.991	-0.036	0.043
-721.835	-78.870	0.238	0.081
-720.821	800.000	0.175	-0.526
-719.806	159.282	0.133	-0.185
-718.791	100.721	0.224	-0.261
-717.777	800.000	0.070	-0.291
-716.762	-32.798	-0.288	-0.161
-715.748	-134.446	-0.260	-0.032
-714.733	254.500	-0.212	-0.364
-713.718	-62.505	-0.213	-0.089
-712.704	-52.359	0.114	0.053
-711.689	-21.090	-0.281	-0.172
-710.675	-38.379	-0.104	-0.055
-709.660	38.489	-0.101	-0.090
-708.645	444.396	-0.061	0.134
-707.631	-95.184	0.239	-0.065
-706.616	-170.241	-0.264	0.009
-705.602	32.763	0.040	-0.035
-704.587	240.643	-0.100	-0.168
-703.572	-46.502	-0.223	-0.110
-702.558	-136.521	-0.433	0.050
-701.543	51.675	-0.109	-0.104
-700.529	-200.000	-0.039	-0.192
-699.514	-140.670	-0.253	-0.026
-698.499	-48.236	0.311	-0.151
-697.485	-11.016	0.157	0.104
-696.470	-200.000	-0.043	-0.219
-695.456	58.145	-0.101	-0.099
-694.441	-129.972	0.382	0.053
-693.426	194.218	0.094	0.143
-692.412	-152.979	-0.147	0.010
-691.397	-20.278	-0.094	0.058
-690.383	142.436	-0.085	-0.113
-689.368	-54.115	0.052	-0.024
-688.354	-115.533	-0.057	0.011
-687.339	454.194	-0.105	-0.233
-686.324	420.538	0.060	0.130
-685.310	418.625	-0.105	0.226
-684.295	-141.390	0.249	0.025
-683.281	102.409	0.061	-0.071
-682.266	-104.919	-0.101	0.023
-681.251	-200.000	0.005	-0.106
-680.237	243.130	0.153	0.257
-679.222	395.763	-0.090	0.189
-678.208	-60.745	0.194	0.082
-677.193	-41.544	0.093	0.048
-676.178	-38.578	-0.132	-0.070
-675.164	-200.000	-0.002	0.086
-674.149	-78.174	0.084	-0.029
-673.135	-86.894	0.316	0.097
-672.120	293.368	-0.118	-0.216
-671.105	51.022	0.149	-0.141
-670.091	-103.021	-0.099	0.024
-669.076	-200.000	-0.040	-0.207
-668.062	417.755	0.127	0.273
-667.047	2.241	0.329	-0.238
-666.032	-200.000	-0.003	-0.067
-665.018	-200.000	0.030	-0.312
-664.003	-27.966	-0.230	-0.133
-662.989	373.466	0.044	0.090
-661.974	800.000	-0.098	0.397
-660.959	-79.974	0.324	-0.109
-659.945	254.436	-0.238	-0.408
-658.930	800.000	-0.019	-0.081
-657.916	-139.305	-0.220	-0.024
-656.901	237.379	-0.152	-0.253
-655.886	-23.419	-0.182	0.110
-654.872	800.000	0.135	-0.394
-653.857	800.000	0.047	-0.189
-652.843	800.000	0.080	-0.282
-651.828	800.000	0.056	-0.241
-650.814	8.958	0.204	0.154
-649.799	-97.243	-0.276	0.072
-648.784	-125.872	0.277	-0.042
-647.770	469.504	0.025	0.056
-646.755	80.045	0.040	-0.043
-645.741	10.470	0.239	-0.182
-644.726	-200.000	-0.001	-0.094
-643.711	-200.000	0.006	0.234
-642.697	-25.959	-0.101	0.059
-641.682	186.065	-0.100	0.150
-640.668	-200.000	0.037	-0.380
-639.653	800.000	0.081	-0.297
-638.638	35.577	-0.084	0.074
-637.624	-170.996	0.157	-0.005
-636.609	85.562	-0.118	-0.130
-635.595	171.296	-0.197	-0.283
-634.580	800.000	0.065	-0.200
-633.565	-200.000	-0.012	0.532
-632.551	-200.000	-0.072	-0.345
-631.536	434.461	0.127	-0.276
-630.522	800.000	-0.064	0.258
-629.507	42.838	-0.167	-0.152
-628.492	272.587	0.148	-0.262
-627.478	-200.000	0.037	-0.449
-626.463	800.000	-0.005	0.019
-625.449	12.123	-0.082	-0.064
-624.434	-200.000	-0.054	-0.391
-623.419	-200.000	-0.259	0.000
-622.405	-77.780	0.116	0.040
-621.390	78.710	0.050	-0.053
-620.376	185.784	-0.262	0.390
-619.361	-85.123	0.247	0.077
-618.346	160.830	-0.132	0.185
-617.332	-169.653	-0.294	0.011
-616.317	48.174	-0.089	-0.083
-615.303	26.246	-0.095	0.079
-614.288	-42.102	0.217	0.111
-613.273	-200.000	0.011	-0.157
-612.259	180.465	0.157	-0.230
-611.244	-200.000	-0.042	-0.369
-610.230	3.703	-0.319	-0.233
-609.215	-128.633	-0.270	0.038
-608.201	-52.676	-0.049	0.023
-607.186	-200.000	0.048	0.223
-606.171	19.881	0.036	0.029
-605.157	-114.306	0.212	0.041
-604.142	635.967	-0.153	-0.390
-603.128	221.054	0.071	0.115
-602.113	47.002	0.013	-0.012
-601.098	800.000	0.057	-0.186
-600.084	677.228	0.035	0.091
-599.069	239.661	-0.036	0.059
-598.055	-83.229	-0.163	-0.052
-597.040	132.421	-0.180	-0.233
-596.025	-24.993	0.053	0.032
-595.011	-145.418	0.173	-0.016
-593.996	800.000	-0.093	-0.259
-592.982	-56.063	0.144	0.064
-591.967	-43.470	-0.226	-0.114
-590.952	-200.000	0.027	-0.137
-589.938	-47.583	-0.218	-0.106
-588.923	-162.260	-0.307	-0.015
-587.909	21.508	-0.213	0.173
-586.894	800.000	0.101	-0.294
-585.879	12.299	-0.103	0.079
-584.865	-57.167	-0.052	-0.023
-583.850	-200.000	-0.006	0.123
-582.836	389.799	0.046	-0.095
-581.821	800.000	0.146	0.420
-580.806	51.329	-0.211	0.200
-579.792	20.304	-0.086	-0.069
-578.777	-107.344	0.303	-0.067
-577.763	52.766	0.146	-0.140
-576.748	-30.442	-0.301	0.170
-575.733	541.204	0.066	-0.156
-574.719	-123.458	-0.051	0.008
-573.704	147.721	0.260	0.350
-572.690	-39.523	-0.297	0.155
-571.675	-200.000	0.015	-0.208
-570.661	-35.843	-0.130	-0.070
-569.646	800.000	-0.058	0.250
-568.631	800.000	-0.078	-0.279
-567.617	33.927	0.240	0.209
-566.602	-47.558	-0.043	0.021
-565.588	245.856	0.097	-0.163
-564.573	-27.684	0.071	-0.041
-563.558	-3.509	-0.224	0.155
-562.544	-161.027	0.051	0.003
-561.529	122.221	0.053	0.066
-560.515	76.763	-0.178	0.188
-559.500	-200.000	0.026	0.262
-558.485	800.000	0.038	0.125
-557.471	133.099	0.224	0.288
-556.456	-74.547	-0.315	0.113
-555.442	-40.459	0.153	-0.079
-554.427	-133.866	-0.176	0.022
-553.412	-127.822	0.190	0.027
-552.398	-69.495	-0.285	0.109
-551.383	-47.481	-0.206	0.100
-550.369	-200.000	-0.023	0.185
-549.354	143.946	0.184	0.246
-548.339	-82.692	-0.297	-0.096
-547.325	-163.215	0.272	0.013
-546.310	69.058	0.194	0.199
-545.296	-200.000	-0.082	-0.367
-544.281	-72.588	0.111	-0.041
-543.266	281.666	0.141	0.252
-542.252	-44.778	0.247	-0.123
-541.237	-89.850	-0.397	0.116
-540.223	-200.000	-0.037	-0.246
-539.208	-200.000	-0.058	-0.392
-538.193	246.894	-0.146	0.245
-537.179	-200.000	-0.017	-0.120
-536.164	-107.210	0.117	-0.026
-535.150	41.988	0.282	-0.255
-534.135	129.692	-0.119	-0.152
-533.121	-80.943	-0.485	0.160
-532.106	-141.188	-0.254	-0.026
-531.091	-47.898	0.174	0.084
-530.077	118.434	0.089	0.109
-529.062	-47.794	0.292	-0.141
-528.048	-200.000	-0.005	-0.409
-527.033	-113.539	0.316	0.062
-526.018	-106.581	0.130	-0.029
-525.004	-200.000	0.043	-0.381
-523.989	85.594	-0.187	-0.205
-522.975	541.897	-0.135	-0.322
-521.960	-200.000	0.009	-0.202
-520.945	25.915	-0.114	0.095
-519.931	515.613	-0.036	0.084
-518.916	-200.000	-0.034	-0.200
-517.902	120.000	0.046	0.057
-516.887	-127.684	-0.211	-0.030
-515.872	-200.000	-0.005	0.174
-514.858	-72.805	-0.285	0.105
-513.843	-19.104	0.249	-0.154
-512.829	-1.758	-0.115	-0.080
-511.814	-141.517	-0.479	-0.048
-510.799	-71.466	0.282	0.105
-509.785	-200.000	-0.024	0.169
-508.770	-158.329	-0.312	0.018
-507.756	-200.000	-0.020	-0.179
-506.741	-200.000	-0.002	-0.293
-505.726	800.000	0.054	0.172
-504.712	556.332	0.161	-0.388
-503.697	112.725	-0.074	-0.089
-502.683	800.000	-0.037	0.118
-501.668	-28.340	-0.080	-0.046
-500.653	72.054	0.277	-0.287
-499.639	-36.632	-0.034	0.018
-498.624	-200.000	-0.014	-0.265
-497.610	479.808	-0.052	0.118
-496.595	-128.342	0.146	-0.021
-495.581	262.778	-0.027	-0.047
-494.566	158.708	0.067	0.093
-493.551	119.297	0.251	0.309
-492.537	351.480	-0.086	0.169
-491.522	507.026	-0.115	-0.266
-490.508	-61.389	0.193	0.081
-489.493	63.269	0.197	-0.196
-488.478	-112.108	0.243	-0.049
-487.464	-168.846	0.321	0.012
-486.449	-35.467	0.251	0.135
-485.435	-116.940	0.250	0.046
-484.420	-200.000	-0.019	-0.181
-483.405	-153.313	0.229	0.016
-482.391	-200.000	-0.002	-0.074
-481.376	-97.070	-0.168	-0.044
-480.362	95.916	0.059	0.067
-479.347	430.070	0.185	-0.398
-478.332	672.323	-0.014	0.035
-477.318	-13.959	0.162	-0.104
-476.303	54.793	-0.059	0.057
-475.289	423.564	-0.053	-0.114
-474.274	624.869	0.101	0.253
-473.259	-200.000	0.011	0.174
-472.245	-200.000	0.018	-0.376
-471.230	-200.000	0.004	-0.072
-470.216	-200.000	-0.039	-0.422
-469.201	-157.074	0.497	0.030
-468.186	-68.579	-0.117	-0.045
-467.172	293.340	-0.193	0.351
-466.157	-81.216	0.264	0.087
-465.143	-200.000	0.039	-0.241
-464.128	-106.840	0.282	0.062
-463.113	-125.181	0.344	0.052
-462.099	-149.587	0.084	0.007
-461.084	-96.623	0.134	-0.035
-460.070	59.796	0.271	-0.266
-459.055	-200.000	0.056	-0.313
-458.040	121.156	0.150	-0.185
-457.026	-148.280	-0.223	-0.018
-456.011	15.681	-0.120	0.094
-454.997	-46.252	0.242	0.118
-453.982	-129.144	-0.203	0.028
-452.968	47.915	-0.135	-0.125
-451.953	-200.000	-0.008	0.294
-450.938	187.901	0.189	0.281
-449.924	-28.579	0.247	0.141
-448.909	16.176	0.300	-0.235
-447.895	114.115	-0.126	0.152
-446.880	-134.990	-0.178	0.021
-445.865	-200.000	0.006	-0.065
-444.851	-200.000	-0.041	-0.326
-443.836	638.248	0.077	0.194
-442.822	-200.000	0.011	0.101
-441.807	732.668	-0.105	0.279
-440.792	800.000	-0.034	0.121
-439.778	800.000	0.053	0.146
-438.763	177.110	-0.200	-0.289
-437.749	-99.920	-0.251	0.062
-436.734	-57.882	-0.262	0.114
-435.719	-24.768	0.189	0.112
-434.705	-72.782	0.224	0.082
-433.690	-76.718	0.152	-0.053
-432.676	-200.000	-0.008	0.042
-431.661	54.477	-0.081	-0.077
-430.646	-124.293	0.020	-0.003
-429.632	-65.392	-0.271	0.108
-428.617	41.793	-0.274	0.247
-427.603	133.657	-0.059	-0.075
-426.588	170.010	-0.214	-0.304
-425.573	5.296	0.127	-0.093
-424.559	-200.000	0.009	-0.274
-423.544	665.675	-0.096	-0.245
-422.530	65.800	-0.233	-0.234
-421.515	-101.627	-0.293	-0.071
-420.500	-32.180	-0.165	0.092
-419.486	157.993	-0.135	0.186
-418.471	226.848	-0.021	-0.034
-417.457	-200.000	0.008	0.232
-416.442	247.340	-0.225	0.377
-415.428	113.350	0.086	0.103
-414.413	-65.407	0.212	0.085
-413.398	85.017	0.221	-0.241
-412.384	133.993	0.224	0.288
-411.369	-168.286	0.230	-0.009
-410.355	-200.000	0.040	0.400
-409.340	-109.350	0.116	-0.024
-408.325	-200.000	0.023	-0.293
-407.311	-200.000	-0.008	-0.087
-406.296	-180.607	-0.349	0.007
-405.282	138.216	0.113	-0.147
-404.267	103.906	-0.156	-0.182
-403.252	800.000	-0.058	0.165
-402.238	100.771	0.136	0.157
-401.223	-166.115	-0.220	-0.009
-400.209	-108.868	0.206	-0.044
-399.194	-14.191	-0.209	0.133
-398.179	-56.962	-0.342	0.150
-397.165	-170.371	0.053	-0.002
-396.150	-6.887	-0.031	-0.021
-395.136	15.892	-0.154	0.120
-394.121	800.000	0.044	-0.164
-393.106	800.000	0.076	-0.219
-392.092	379.745	0.178	-0.362
-391.077	53.416	-0.352	0.334
-390.063	184.762	-0.113	0.167
-389.048	-200.000	0.006	0.084
-388.033	-98.186	0.087	0.022
-387.019	-69.077	-0.301	-0.115
-386.004	-114.738	0.081	0.015
-384.990	229.618	0.037	-0.060
-383.975	61.607	-0.041	-0.040
-382.960	469.395	-0.131	-0.291
-381.946	32.209	-0.130	0.111
-380.931	-29.854	0.210	-0.119
-379.917	-200.000	-0.018	-0.137
-378.902	176.587	0.134	-0.193
-377.888	-200.000	0.006	-0.035
-376.873	-68.064	0.428	-0.165
-375.858	-152.195	-0.186	-0.013
-374.844	72.547	0.039	-0.040
-373.829	120.601	0.257	0.316
-372.815	10.680	-0.202	-0.152
-371.800	72.904	0.217	-0.225
-370.785	13.699	0.289	-0.222
-369.771	800.000	0.082	0.319
-368.756	-40.040	0.125	-0.064
-367.742	-28.076	0.127	0.073
-366.727	-200.000	-0.002	0.099
-365.712	8.296	0.171	0.127
-364.698	-72.684	-0.343	-0.125
-363.683	-89.741	-0.208	-0.060
-362.669	41.790	-0.198	0.178
-361.654	13.439	-0.158	0.122
-360.639	701.645	-0.118	-0.307
-359.625	-75.797	0.134	-0.047
-358.610	276.931	-0.255	0.449
-357.596	72.288	0.091	-0.094
-356.581	188.521	0.147	0.217
-355.566	65.279	-0.120	-0.120
-354.552	-200.000	-0.001	0.055
-353.537	-81.271	0.271	0.089
-352.523	-80.884	-0.109	0.036
-351.508	800.000	0.052	-0.169
-350.493	-200.000	0.001	0.314
-349.479	-200.000	0.004	0.121
-348.464	196.967	0.038	-0.057
-347.450	49.855	-0.136	0.127
-346.435	574.623	0.043	-0.103
-345.420	138.666	-0.206	0.268
-344.406	-3.417	-0.059	0.041
-343.391	800.000	-0.078	0.338
-342.377	800.000	0.017	-0.070
-341.362	-200.000	-0.020	0.099
-340.348	-108.246	-0.347	0.074
-339.333	80.321	0.212	-0.226
-338.318	-200.000	0.019	0.532
-337.304	-33.254	-0.138	-0.076
-336.289	-200.000	0.007	0.147
-335.275	-200.000	-0.014	-0.167
-334.260	-76.598	0.214	-0.074
-333.245	-200.000	-0.092	-0.432
-332.231	96.306	-0.126	-0.142
-331.216	118.327	-0.041	-0.050
-330.202	214.935	-0.103	0.162
-329.187	-60.291	0.212	-0.089
-328.172	57.154	0.251	0.242
-327.158	82.450	0.093	0.100
-326.143	-200.000	0.011	0.395
-325.129	10.807	0.155	-0.117
-324.114	182.223	-0.230	0.335
-323.099	74.399	0.152	-0.158
-322.085	215.877	0.146	-0.229
-321.070	56.020	0.113	0.108
-320.056	-100.496	-0.027	0.007
-319.041	-200.000	0.042	-0.201
-318.026	-155.555	0.113	-0.007
-317.012	141.181	-0.104	-0.136
-315.997	-200.000	-0.011	0.121
-314.983	800.000	-0.068	0.238
-313.968	138.496	0.080	-0.104
-312.953	464.558	-0.184	-0.408
-311.939	-200.000	0.026	-0.246
-310.924	152.105	0.198	-0.267
-309.910	-47.555	-0.106	0.051
-308.895	-62.066	-0.064	-0.027
-307.880	-58.126	-0.277	-0.120
-306.866	281.799	-0.133	-0.236
-305.851	-149.002	0.005	0.000
-304.837	36.209	-0.091	-0.079
-303.822	-75.925	0.082	-0.029
-302.807	669.101	-0.119	0.303
-301.793	174.526	0.186	0.266
-300.778	-76.325	-0.112	0.039
-299.764	-16.184	-0.212	0.133
-298.749	-89.363	-0.387	0.113
-297.735	-8.471	-0.123	-0.082
-296.720	-8.581	0.064	0.043
-295.705	-200.000	-0.093	-0.484
-294.691	-50.523	0.060	-0.028
-293.676	-122.402	-0.244	-0.039
-292.662	-88.317	-0.137	-0.040
-291.647	111.705	-0.009	-0.011
-290.632	-4.935	0.146	-0.099
-289.618	188.112	0.073	0.108
-288.603	-56.896	0.201	-0.088
-287.589	-53.794	-0.079	0.035
-286.574	800.000	-0.021	0.069
-285.559	294.121	-0.066	0.120
-284.545	-200.000	0.034	-0.000
-283.530	0.719	-0.155	-0.109
-282.516	498.700	0.027	-0.062
-281.501	-94.535	-0.170	0.046
-280.486	234.316	0.060	0.097
-279.472	-121.335	-0.322	-0.053
-278.457	-24.869	-0.081	0.048
-277.443	305.706	-0.232	0.426
-276.428	101.400	0.159	0.182
-275.413	-103.223	0.215	0.050
-274.399	80.724	0.105	0.112
-273.384	114.846	0.159	-0.192
-272.370	160.699	-0.013	-0.018
-271.355	-200.000	0.034	0.245
-270.340	719.635	0.139	0.365
-269.326	397.809	-0.251	0.519
-268.311	800.000	-0.042	-0.153
-267.297	-128.893	0.206	-0.029
-266.282	-47.356	-0.142	-0.068
-265.267	-48.488	0.241	-0.114
-264.253	800.000	0.073	-0.311
-263.238	19.539	-0.044	-0.035
-262.224	220.462	0.112	-0.178
-261.209	-10.725	0.167	-0.109
-260.195	-95.227	-0.254	-0.067
-259.180	167.574	-0.139	0.195
-258.165	-74.356	0.204	0.073
-257.151	-105.811	0.260	0.058
-256.136	-25.612	0.117	-0.068
-255.122	242.879	-0.147	-0.244
-254.107	-51.941	0.132	-0.061
-253.092	72.053	-0.023	0.024
-252.078	333.197	-0.064	-0.122
-251.063	800.000	0.065	-0.198
-250.049	-6.491	-0.051	-0.034
-249.034	527.666	0.112	0.261
-248.019	-98.488	0.191	-0.048
-247.005	567.589	-0.027	-0.064
-245.990	-54.379	0.187	0.083
-244.976	-84.233	-0.442	0.138
-243.961	-200.000	-0.016	0.341
-242.946	196.380	0.241	-0.362
-241.932	255.861	-0.074	-0.125
-240.917	380.002	0.218	-0.440
-239.903	-67.489	-0.229	0.089
-238.888	-99.591	-0.093	0.023
-237.873	469.051	-0.121	0.268
-236.859	-63.224	0.127	0.052
-235.844	276.192	0.070	0.122
-234.830	96.109	0.128	0.144
-233.815	266.633	-0.134	0.231
-232.800	-39.960	-0.201	0.103
-231.786	151.882	-0.286	-0.384
-230.771	-68.026	0.108	0.042
-229.757	525.924	0.064	0.148
-228.742	369.203	-0.131	-0.262
-227.727	67.280	-0.287	0.288
-226.713	-103.702	0.108	-0.025
-225.698	659.609	0.040	0.103
-224.684	115.320	0.138	-0.166
-223.669	-7.320	-0.038	-0.026
-222.655	142.618	0.069	0.091
-221.640	-71.073	0.215	-0.080
-220.625	-163.690	0.153	0.007
-219.611	-91.882	-0.192	0.054
-218.596	-141.131	-0.163	0.016
-217.582	-82.613	0.117	-0.037
-216.567	-42.298	-0.388	-0.195
-215.552	-67.373	-0.089	0.034
-214.538	71.452	0.223	0.228
-213.523	108.924	0.065	0.076
-212.509	-140.444	0.366	0.038
-211.494	4.512	-0.061	-0.044
-210.479	606.384	-0.075	-0.185
-209.465	-136.084	0.048	-0.005
-208.450	-76.367	0.139	-0.048
-207.436	719.888	0.046	-0.120
-206.421	106.187	0.252	0.293
-205.406	85.924	0.223	-0.242
-204.392	800.000	-0.058	-0.161
-203.377	-174.862	-0.091	-0.003
-202.363	428.344	0.080	0.171
-201.348	652.596	0.077	-0.195
-200.333	-116.951	-0.090	-0.016
-199.319	-60.397	0.400	0.167
-198.304	-200.000	-0.040	0.203
-197.290	-7.926	0.158	0.105
-196.275	-200.000	0.002	0.092
-195.260	141.592	0.185	0.241
-194.246	-62.311	0.154	0.063
-193.231	682.369	0.096	0.246
-192.217	530.386	-0.088	-0.204
-191.202	-75.179	0.152	0.054
-190.187	75.297	0.075	0.077
-189.173	28.766	0.029	-0.024
-188.158	-168.068	-0.065	0.002
-187.144	-111.665	-0.199	0.040
-186.129	-200.000	-0.039	-0.185
-185.114	68.959	0.159	-0.160
-184.100	-21.713	-0.315	0.189
-183.085	-13.659	0.185	0.118
-182.071	-200.000	0.019	-0.393
-181.056	280.267	-0.111	0.195
-180.042	359.657	-0.025	0.048
-179.027	595.878	0.065	-0.159
-178.012	291.178	0.121	0.216
-176.998	-21.217	0.159	-0.095
-175.983	-92.164	-0.122	0.034
-174.969	88.482	-0.217	0.237
-173.954	-5.044	-0.200	-0.135
-172.939	457.205	0.052	0.115
-171.925	-200.000	0.239	-0.001
-170.910	37.322	-0.216	0.188
-169.896	-187.553	0.178	0.002
-168.881	-200.000	0.019	0.215
-167.866	-68.158	-0.217	-0.083
-166.852	3.754	-0.075	0.054
-165.837	155.962	-0.161	0.218
-164.823	257.258	0.154	0.261
-163.808	84.932	0.117	0.126
-162.793	-110.306	0.139	0.029
-161.779	800.000	-0.098	0.315
-160.764	-200.000	0.013	0.098
-159.750	43.966	-0.079	0.071
-158.735	575.298	-0.128	0.306
-157.720	-169.684	0.078	0.003
-156.706	94.019	-0.069	0.077
-155.691	-174.314	0.092	0.003
-154.677	3.086	0.123	0.088
-153.662	49.818	-0.066	0.061
-152.647	249.252	0.221	0.367
-151.633	54.476	0.195	0.185
-150.618	-59.446	-0.297	-0.125
-149.604	-200.000	-0.000	-0.114
-148.589	22.775	0.147	-0.118
-147.574	-153.368	0.166	-0.011
-146.560	-78.140	0.209	0.071
-145.545	-200.000	0.011	0.393
-144.531	-53.232	0.206	-0.093
-143.516	-125.805	0.224	0.033
-142.502	800.000	0.054	-0.210
-141.487	800.000	0.046	-0.167
-140.472	-131.600	-0.110	0.014
-139.458	-200.000	-0.042	0.310
-138.443	-200.000	0.013	0.205
-137.429	-140.752	0.190	0.019
-136.414	741.460	0.078	-0.206
-135.399	476.982	-0.100	0.222
-134.385	800.000	0.097	-0.343
-133.370	111.221	-0.187	-0.221
-132.356	-20.120	-0.276	-0.167
-131.341	-200.000	0.020	0.292
-130.326	800.000	-0.127	-0.367
-129.312	478.962	0.218	0.484
-128.297	181.352	-0.325	0.469
-127.283	-4.421	0.254	-0.172
-126.268	-89.324	-0.292	-0.084
-125.253	-69.118	-0.244	-0.092
-124.239	77.189	-0.230	0.240
-123.224	-42.075	0.199	-0.100
-122.210	470.953	-0.120	-0.265
-121.195	800.000	-0.066	-0.184
-120.180	34.071	0.067	-0.057
-119.166	-89.713	-0.299	0.086
-118.151	118.157	-0.052	-0.063
-117.137	-140.065	-0.323	0.033
-116.122	-15.845	0.322	0.201
-115.107	-106.422	-0.204	0.045
-114.093	37.220	0.118	-0.103
-113.078	-134.292	-0.069	0.008
-112.064	64.842	-0.209	-0.207
-111.049	-69.080	0.266	-0.101
-110.034	29.445	-0.148	-0.124
-109.020	-2.599	-0.113	-0.078
-108.005	286.069	-0.130	-0.230
-106.991	-40.701	0.116	-0.059
-105.976	800.000	0.031	0.096
-104.962	-42.914	-0.295	-0.147
-103.947	-8.418	-0.256	-0.169
-102.932	13.050	0.441	0.335
-101.918	-5.749	0.229	0.154
-100.903	143.648	0.210	-0.274
-99.889	-200.000	-0.019	-0.315
-98.874	177.539	0.101	0.145
-97.859	-1.568	-0.219	-0.151
-96.845	97.599	-0.139	0.157
-95.830	157.314	0.048	-0.065
-94.816	-45.119	0.053	-0.026
-93.801	-200.000	0.035	0.161
-92.786	-31.361	0.016	0.009
-91.772	288.548	-0.164	0.291
-90.757	-6.389	0.025	0.017
-89.743	-67.976	0.195	-0.075
-88.728	73.308	-0.051	-0.053
-87.713	317.809	0.036	-0.066
-86.699	-200.000	0.013	0.157
-85.684	153.409	0.038	-0.050
-84.670	495.197	-0.078	-0.175
-83.655	-94.029	0.058	-0.016
-82.640	800.000	0.070	0.285
-81.626	219.391	0.142	-0.222
-80.611	-200.000	-0.008	-0.130
-79.597	-200.000	0.045	0.450
-78.582	-6.397	0.404	0.270
-77.567	59.322	-0.305	-0.295
-76.553	-93.324	0.078	-0.021
-75.538	-31.763	0.109	-0.060
-74.524	749.888	0.029	0.078
-73.509	-200.000	0.010	0.082
-72.494	800.000	-0.016	-0.065
-71.480	-153.509	-0.193	-0.013
-70.465	-190.400	-0.134	0.001
-69.451	-200.000	0.014	-0.202
-68.436	-200.000	0.029	-0.208
-67.422	42.100	-0.269	-0.239
-66.407	-47.334	0.051	-0.024
-65.392	-200.000	0.026	-0.112
-64.378	37.131	0.145	0.126
-63.363	-85.677	0.314	-0.095
-62.349	-130.104	0.273	-0.036
-61.334	13.094	-0.908	-0.688
-60.319	-81.287	0.841	0.272
-59.305	-200.000	0.018	-1.212
-58.290	417.688	0.588	1.229
-57.276	800.000	0.508	1.774
-56.261	-200.000	98.565	577.376
-55.246	509.824	1405.052	3198.031
-54.232	158.560	2583.734	3511.315
-53.217	104.557	2260.691	2606.602
-52.203	40.628	1886.903	1664.640
-51.188	34.827	1678.999	1437.691
-50.173	32.044	1636.893	1381.144
-49.159	49.840	1686.808	1556.585
-48.144	51.189	1703.684	1582.173
-47.130	34.371	1662.668	1420.087
-46.115	31.586	1648.536	1387.349
-45.100	31.485	1643.897	1382.645
-44.086	31.433	1641.274	1379.998
-43.071	31.485	1638.398	1377.912
-42.057	31.414	1636.255	1375.528
-41.042	31.443	1633.811	1373.633
-40.027	31.394	1632.449	1372.078
-39.013	31.362	1630.504	1370.152
-37.998	31.390	1629.286	1369.278
-36.984	31.329	1627.977	1367.677
-35.969	31.531	1626.225	1367.625
-34.954	31.500	1624.808	1366.154
-33.940	31.500	1622.887	1364.485
-32.925	31.364	1621.987	1362.685
-31.911	31.507	1620.043	1362.035
-30.896	31.435	1618.084	1359.815
-29.881	31.503	1616.397	1358.838
-28.867	31.548	1614.785	1357.752
-27.852	31.475	1613.389	1355.995
-26.838	31.502	1611.442	1354.501
-25.823	31.520	1610.510	1353.793
-24.809	31.529	1609.238	1352.735
-23.794	31.515	1607.913	1351.469
-22.779	31.536	1606.060	1350.010
-21.765	31.482	1604.761	1348.472
-20.750	31.430	1603.294	1346.814
-19.736	31.553	1601.808	1346.398
-18.721	31.470	1600.405	1344.570
-17.706	31.536	1598.795	1343.633
-16.692	31.513	1597.528	1342.351
-15.677	31.564	1596.400	1341.717
-14.663	31.549	1594.998	1340.380
-13.648	31.669	1592.897	1339.414
-12.633	31.628	1591.328	1337.749
-11.619	31.576	1589.918	1336.140
-10.604	31.503	1589.126	1334.905
-9.590	31.497	1587.902	1333.781
-8.575	31.570	1586.184	1332.802
-7.560	31.560	1585.389	1332.014
-6.546	31.542	1583.993	1330.659
-5.531	31.569	1583.183	1330.119
-4.517	31.532	1581.955	1328.766
-3.502	31.538	1580.644	1327.654
-2.487	31.663	1579.138	1327.226
-1.473	31.114	1567.209	1313.281
-0.458	27.765	1546.885	1272.885
0.556	21.297	1546.552	1236.483
1.571	18.679	1568.793	1235.341
2.586	18.051	1581.794	1240.909
3.600	16.870	1532.325	1193.677
4.615	12.982	1432.436	1090.124
5.629	9.017	1375.042	1021.166
6.644	8.157	1367.249	1009.841
7.659	8.095	1366.454	1008.773
8.673	8.151	1365.058	1008.008
9.688	8.098	1363.139	1006.165
10.702	7.891	1360.237	1002.633
11.717	9.711	1363.000	1016.060
12.731	14.137	1370.564	1049.594
13.746	17.049	1375.094	1071.379
14.761	17.080	1373.586	1070.302
15.775	16.085	1370.636	1061.649
16.790	14.945	1368.558	1052.777
17.804	14.164	1366.087	1045.872
18.819	13.799	1364.721	1042.442
19.834	13.498	1363.348	1039.414
20.848	13.205	1362.238	1036.638
21.863	12.930	1361.176	1034.010
22.877	12.793	1359.872	1032.071
23.892	12.894	1358.592	1031.640
24.907	12.858	1358.094	1030.948
25.921	12.762	1357.058	1029.465
26.936	12.815	1356.549	1029.324
27.950	12.809	1355.771	1028.603
28.965	13.017	1354.400	1028.766
29.980	13.023	1353.338	1027.911
30.994	13.014	1352.124	1026.839
32.009	13.167	1350.450	1026.430
33.023	13.059	1349.728	1025.116
34.038	13.065	1348.232	1023.928
35.053	13.042	1346.988	1022.749
36.067	13.020	1346.297	1022.001
37.082	13.011	1345.107	1020.949
38.096	13.049	1343.958	1020.221
39.111	13.000	1343.792	1019.704
40.126	12.894	1342.524	1017.994
41.140	12.868	1342.116	1017.434
42.155	12.767	1341.085	1015.942
43.169	12.715	1341.187	1015.609
44.184	12.712	1340.839	1015.239
45.199	12.732	1340.670	1015.142
46.213	12.758	1340.104	1014.785
47.228	12.906	1338.594	1014.462
48.242	12.865	1337.609	1013.375
49.257	12.798	1336.723	1012.200
50.271	12.995	1334.492	1011.631
51.286	12.992	1333.227	1010.562
52.301	12.974	1332.171	1009.565
53.315	12.926	1330.865	1008.189
54.330	12.806	1330.109	1006.796
55.344	12.856	1328.988	1006.162
56.359	12.789	1328.175	1005.047
57.374	12.826	1327.081	1004.358
58.388	12.751	1326.310	1003.229
59.403	12.701	1325.908	1002.532
60.417	12.643	1325.050	1001.441
61.432	12.645	1324.108	1000.654
62.447	12.631	1323.350	999.904
63.461	12.658	1322.161	999.086
64.476	12.637	1320.756	997.805
65.490	12.643	1319.799	997.030
66.505	12.749	1317.965	996.196
67.520	12.698	1316.942	995.030
68.534	12.718	1315.738	994.152
69.549	12.808	1314.324	993.538
70.563	12.655	1314.082	992.344
71.578	12.602	1312.839	990.998
72.593	12.555	1311.975	989.976
73.607	12.592	1311.323	989.622
74.622	12.502	1310.661	988.491
75.636	12.663	1309.885	988.789
76.651	12.474	1309.566	987.323
77.666	12.542	1308.578	986.900
78.680	12.667	1307.946	987.083
79.695	12.664	1307.092	986.336
80.709	12.665	1306.864	986.082
81.724	12.743	1305.671	985.558
82.739	12.808	1304.908	985.286
83.753	12.819	1304.043	984.611
84.768	12.933	1302.892	984.334
85.782	12.988	1301.723	983.691
86.797	12.915	1300.335	982.122
87.812	12.953	1299.263	981.453
88.826	12.809	1298.480	979.917
89.841	12.769	1297.763	979.051
90.855	12.939	1296.404	978.949
91.870	12.950	1295.546	978.278
92.884	12.938	1294.675	977.464
93.899	12.998	1293.595	976.919
94.914	12.974	1293.497	976.619
95.928	13.027	1292.023	975.732
96.943	12.981	1291.474	974.955
97.957	12.929	1290.313	973.684
98.972	12.968	1289.045	972.874
99.987	12.930	1288.347	972.036
101.001	13.067	1286.919	971.679
102.016	12.983	1286.194	970.554
103.030	13.022	1285.399	970.097
104.045	12.962	1284.452	968.945
105.060	12.924	1283.119	967.630
106.074	12.955	1281.590	966.571
107.089	12.838	1280.571	965.033
108.103	12.749	1279.225	963.415
109.118	12.818	1277.758	962.627
110.133	12.630	1276.764	960.697
111.147	12.761	1275.384	960.338
112.162	12.710	1274.291	959.132
113.176	12.789	1272.863	958.430
114.191	12.789	1271.932	957.646
115.206	12.847	1270.596	956.890
116.220	12.916	1269.126	956.096
117.235	12.835	1268.289	954.915
118.249	12.791	1268.038	954.384
119.264	12.787	1266.449	953.082
120.279	12.709	1265.613	951.916
121.293	12.736	1264.692	951.297
122.308	12.616	1263.745	949.806
123.322	12.796	1262.424	949.767
124.337	12.745	1261.647	948.807
125.352	12.732	1260.532	947.812
126.366	12.674	1259.554	946.654
127.381	12.694	1258.296	945.743
128.395	12.687	1257.465	944.992
129.410	12.706	1256.479	944.276
130.424	12.880	1255.692	944.601
131.439	12.786	1255.169	943.586
132.454	12.812	1253.923	942.713
133.468	12.855	1252.922	942.125
134.483	12.851	1252.762	941.894
135.497	12.862	1251.398	940.849
136.512	12.931	1249.494	939.727
137.527	12.753	1248.565	937.935
138.541	12.872	1247.099	937.428
139.556	12.905	1246.192	936.849
140.570	12.919	1245.075	936.004
141.585	13.004	1243.516	935.233
142.600	13.046	1242.926	934.943
143.614	12.981	1242.039	933.826
144.629	13.085	1240.523	933.189
145.643	13.106	1239.375	932.365
146.658	13.003	1238.463	931.014
147.673	12.941	1237.198	929.634
148.687	12.957	1235.723	928.531
149.702	12.910	1234.254	927.080
150.716	13.002	1232.884	926.490
151.731	12.972	1232.337	925.828
152.746	13.000	1230.848	924.781
153.760	13.040	1229.704	924.067
154.775	13.030	1228.718	923.188
155.789	13.026	1227.484	922.154
156.804	13.078	1227.166	922.123
157.819	13.140	1226.059	921.556
158.833	13.099	1225.238	920.629
159.848	13.197	1224.373	920.443
160.862	13.085	1223.222	918.877
161.877	13.069	1221.594	917.484
162.892	13.109	1220.613	916.888
163.906	13.018	1219.920	915.778
164.921	13.039	1219.394	915.422
165.935	13.078	1218.050	914.546
166.950	13.134	1217.601	914.435
167.964	13.040	1217.002	913.386
168.979	13.091	1216.455	913.176
169.994	13.020	1215.691	912.131
171.008	13.159	1214.276	911.756
172.023	13.165	1214.162	911.623
173.037	13.249	1213.115	911.217
174.052	13.156	1212.214	909.951
175.067	13.121	1211.079	908.826
176.081	13.119	1210.613	908.381
177.096	13.124	1209.444	907.450
178.110	13.292	1207.789	907.050
179.125	13.245	1206.951	906.088
180.140	13.182	1205.774	904.774
181.154	13.244	1204.427	904.024
182.169	13.292	1203.338	903.392
183.183	13.345	1202.485	902.958
184.198	13.361	1201.328	902.096
185.213	13.437	1200.317	901.672
186.227	13.398	1198.941	900.344
187.242	13.401	1198.261	899.774
188.256	13.463	1197.201	899.231
189.271	13.523	1196.056	898.618
190.286	13.270	1195.371	896.655
191.300	13.157	1194.281	895.143
192.315	13.183	1193.671	894.748
193.329	13.139	1193.011	893.936
194.344	13.204	1192.355	893.718
195.359	13.278	1192.349	894.035
196.373	13.388	1191.212	893.697
197.388	13.389	1191.016	893.479
198.402	13.518	1190.069	893.385
199.417	13.559	1189.538	893.127
200.432	13.689	1189.087	893.407
201.446	13.705	1188.146	892.710
202.461	13.690	1187.281	891.900
203.475	13.771	1186.241	891.477
204.490	13.623	1184.927	889.614
205.504	13.609	1183.386	888.304
206.519	13.526	1182.894	887.412
207.534	13.574	1181.238	886.344
208.548	13.593	1180.515	885.827
209.563	13.591	1179.592	885.047
210.577	13.650	1178.594	884.534
211.592	13.690	1177.887	884.139
212.607	13.702	1177.464	883.803
213.621	13.769	1175.982	882.974
214.636	13.670	1175.445	881.961
215.650	13.864	1174.411	882.140
216.665	13.911	1172.742	881.059
217.680	13.849	1172.936	880.796
218.694	13.798	1172.444	880.077
219.709	13.913	1171.308	879.760
220.723	13.882	1170.256	878.728
221.738	13.812	1170.177	878.221
222.753	13.821	1168.930	877.250
223.767	13.969	1168.240	877.441
224.782	13.973	1167.685	876.965
225.796	14.000	1166.990	876.507
226.811	13.987	1166.358	875.885
227.826	13.881	1165.566	874.658
228.840	13.881	1164.999	874.156
229.855	13.873	1164.379	873.570
230.869	13.792	1163.620	872.500
231.884	13.952	1162.278	872.251
232.899	13.898	1161.749	871.499
233.913	13.880	1161.323	871.004
234.928	13.916	1160.491	870.492
235.942	13.817	1159.808	869.384
236.957	13.912	1158.638	868.926
237.972	13.963	1157.797	868.485
238.986	13.859	1157.545	867.680
240.001	13.970	1156.620	867.489
241.015	13.973	1156.074	867.015
242.030	14.021	1155.122	866.476
243.045	14.070	1154.467	866.165
244.059	14.039	1153.977	865.560
245.074	13.997	1153.055	864.573
246.088	14.211	1151.970	864.795
247.103	14.128	1151.470	863.908
248.117	14.263	1150.590	863.876
249.132	14.258	1150.241	863.511
250.147	14.276	1149.571	863.025
251.161	14.406	1148.583	862.878
252.176	14.413	1148.160	862.519
253.190	14.408	1147.490	861.914
254.205	14.574	1147.040	862.360
255.220	14.490	1146.505	861.448
256.234	14.521	1145.534	860.802
257.249	14.534	1144.512	860.022
258.263	14.527	1143.914	859.460
259.278	14.552	1143.774	859.411
260.293	14.578	1143.322	859.128
261.307	14.606	1142.686	858.718
262.322	14.538	1141.795	857.624
263.336	14.610	1141.091	857.388
264.351	14.728	1140.392	857.392
265.366	14.522	1140.341	856.219
266.380	14.642	1139.335	856.004
267.395	14.642	1138.186	855.065
268.409	14.587	1138.020	854.584
269.424	14.630	1136.797	853.808
270.439	14.630	1136.388	853.429
271.453	14.593	1135.553	852.535
272.468	14.633	1134.673	852.002
273.482	14.579	1133.976	851.131
274.497	14.639	1133.257	850.819
275.512	14.710	1132.621	850.631
276.526	14.726	1131.937	850.124
277.541	14.777	1131.088	849.670
278.555	14.671	1130.851	848.876
279.570	14.694	1130.152	848.395
280.585	14.820	1129.178	848.225
281.599	14.912	1128.053	847.774
282.614	14.793	1127.138	846.409
283.628	14.782	1125.914	845.357
284.643	14.739	1125.215	844.539
285.657	14.799	1124.541	844.262
286.672	14.713	1123.946	843.307
287.687	14.782	1122.966	842.846
288.701	14.813	1122.258	842.399
289.716	14.830	1121.431	841.786
290.730	14.891	1120.547	841.357
291.745	14.865	1120.092	840.807
292.760	14.937	1119.057	840.318
293.774	15.094	1118.188	840.380
294.789	15.064	1117.947	839.974
295.803	15.020	1117.068	839.020
296.818	14.969	1116.877	838.543
297.833	14.965	1115.723	837.586
298.847	14.962	1115.063	837.001
299.862	15.001	1114.414	836.634
300.876	15.049	1113.629	836.210
301.891	15.118	1112.637	835.738
302.906	15.205	1112.054	835.658
303.920	15.205	1111.355	835.060
304.935	15.280	1110.824	834.958
305.949	15.352	1110.215	834.785
306.964	15.205	1109.555	833.485
307.979	15.299	1108.736	833.265
308.993	15.210	1107.941	832.149
310.008	15.286	1106.875	831.653
311.022	15.219	1106.998	831.340
312.037	15.319	1105.690	830.781
313.052	15.165	1104.938	829.380
314.066	15.229	1103.647	828.650
315.081	15.163	1103.055	827.806
316.095	15.188	1101.980	827.051
317.110	15.196	1101.594	826.728
318.125	15.172	1100.636	825.815
319.139	15.096	1100.494	825.263
320.154	15.183	1099.788	825.091
321.168	15.226	1099.289	824.855
322.183	15.258	1098.436	824.300
323.197	15.300	1097.923	824.048
324.212	15.315	1097.004	823.358
325.227	15.294	1096.607	822.882
326.241	15.348	1096.009	822.625
327.256	15.240	1095.313	821.501
328.270	15.246	1093.962	820.447
329.285	15.229	1093.837	820.198
330.300	15.239	1092.974	819.528
331.314	15.359	1091.361	818.830
332.329	15.451	1090.310	818.418
333.343	15.427	1089.584	817.681
334.358	15.457	1088.869	817.221
335.373	15.487	1088.065	816.689
336.387	15.518	1087.371	816.248
337.402	15.502	1086.783	815.658
338.416	15.374	1086.542	814.781
339.431	15.530	1085.134	814.410
340.446	15.569	1084.984	814.416
341.460	15.637	1084.498	814.308
342.475	15.695	1083.343	813.649
343.489	15.725	1082.666	813.215
344.504	15.782	1081.572	812.594
345.519	15.723	1080.879	811.716
346.533	15.830	1079.951	811.464
347.548	15.805	1079.193	810.704
348.562	15.856	1078.507	810.362
349.577	15.802	1077.439	809.228
350.592	15.570	1077.266	807.909
351.606	15.628	1076.389	807.461
352.621	15.632	1075.789	806.958
353.635	15.782	1074.929	806.959
354.650	15.673	1074.337	805.920
355.665	15.689	1073.590	805.369
356.679	15.732	1072.848	804.946
357.694	15.722	1072.599	804.640
358.708	15.852	1071.563	804.412
359.723	15.880	1070.771	803.881
360.738	15.902	1070.455	803.679
361.752	15.833	1070.208	803.093
362.767	15.851	1069.375	802.481
363.781	15.881	1068.825	802.141
364.796	15.915	1068.093	801.681
365.810	16.050	1067.493	801.804
366.825	16.114	1067.074	801.721
367.840	16.138	1066.550	801.369
368.854	16.139	1065.802	800.740
369.869	16.191	1064.882	800.228
370.883	16.177	1064.445	799.763
371.898	15.987	1063.665	798.204
372.913	16.166	1062.811	798.341
373.927	16.202	1062.447	798.165
374.942	16.209	1061.999	797.790
375.956	16.244	1061.483	797.499
376.971	16.142	1060.969	796.563
377.986	16.231	1060.101	796.261
379.000	16.299	1059.835	796.310
380.015	16.276	1059.099	795.576
381.029	16.290	1058.445	795.081
382.044	16.359	1058.022	795.017
383.059	16.338	1056.895	794.004
384.073	16.351	1056.496	793.694
385.088	16.406	1055.720	793.301
386.102	16.388	1054.719	792.392
387.117	16.217	1053.818	790.843
388.132	16.427	1052.323	790.635
389.146	16.296	1051.952	789.672
390.161	16.301	1051.211	789.069
391.175	16.225	1050.689	788.252
392.190	16.332	1049.916	788.106
393.205	16.422	1049.077	787.825
394.219	16.410	1048.409	787.196
395.234	16.464	1047.694	786.842
396.248	16.325	1046.636	785.328
397.263	16.384	1045.259	784.504
398.278	16.397	1044.783	784.134
399.292	16.256	1044.528	783.220
400.307	16.369	1043.319	782.767
401.321	16.330	1042.732	782.080
402.336	16.292	1042.419	781.598
403.350	16.423	1041.517	781.458
404.365	16.447	1040.777	780.946
405.380	16.443	1040.064	780.323
406.394	16.525	1039.389	780.126
407.409	16.569	1038.527	779.611
408.423	16.629	1037.713	779.208
409.438	16.634	1037.251	778.817
410.453	16.763	1036.791	778.996
411.467	16.613	1036.181	777.776
412.482	16.698	1035.550	777.625
413.496	16.741	1034.456	776.934
414.511	16.814	1034.041	776.885
415.526	16.802	1033.733	776.533
416.540	16.861	1033.419	776.497
417.555	16.854	1032.936	776.033
418.569	16.934	1031.944	775.588
419.584	16.920	1031.675	775.253
420.599	16.888	1031.353	774.793
421.613	102.279	1320.101	1463.346
422.628	93.623	1362.169	1463.476
