DTS Sentinel unit serial number:	SN413079Multiplexer serial number:	ORYXHardware model number:	OX4-SRSoftware version number:	ORYX F/W v4.00 Oryx Data Collector v3.7.2.0data status	okinstallation	princeton_trtdifferential loss correction	single-endedforward channel	channel 2reverse channel	N/Adate	2019/09/17time	00:03:35forward acquisition time	60.00reverse acquisition time	0.00gamma	496.2192k internal	0.2330k external	0.2330temperature offset calibration	0.9974default loss term (dB/km)	0.3790temperature slope calibration	1.0000multiplexer offset coefficient	1.0000multiplexer slope coefficient	1.0000fibre end	0.00T internal ref (°C)	29.58T ext. ref 1 (°C)	0.09T ext. ref 2 (°C)	23.95length (m)	temperature (°C)	Stokes	anti-Stokes-747.200	84.548	-0.154	-0.170
-746.185	90.437	-0.168	0.190
-745.171	24.140	0.136	-0.113
-744.156	800.000	-0.095	0.273
-743.142	11.518	-0.165	0.128
-742.127	141.884	-0.341	0.455
-741.112	268.881	0.096	0.170
-740.098	-200.000	-0.019	0.245
-739.083	-200.000	-0.032	0.212
-738.069	386.406	0.132	0.275
-737.054	42.866	0.119	0.109
-736.039	20.064	-0.159	-0.129
-735.025	-128.886	-0.208	-0.029
-734.010	-200.000	-0.009	0.091
-732.996	-200.000	0.012	-0.078
-731.981	34.263	-0.018	0.016
-730.966	-8.714	-0.323	-0.218
-729.952	-89.105	0.158	-0.047
-728.937	-124.456	0.191	0.030
-727.923	-67.894	-0.366	0.144
-726.908	-99.178	-0.326	-0.083
-725.894	81.340	-0.149	0.163
-724.879	563.004	-0.141	-0.344
-723.864	-200.000	0.034	-0.161
-722.850	33.878	0.146	0.128
-721.835	109.860	-0.079	-0.096
-720.821	-189.026	-0.249	0.003
-719.806	-118.450	-0.135	0.024
-718.791	-9.692	-0.236	-0.158
-717.777	-80.890	-0.158	-0.053
-716.762	-36.305	0.177	0.096
-715.748	562.542	-0.035	-0.084
-714.733	-63.911	-0.305	-0.125
-713.718	467.288	0.112	-0.253
-712.704	214.249	-0.093	-0.149
-711.689	690.484	0.039	-0.102
-710.675	104.053	-0.052	-0.062
-709.660	43.829	0.089	-0.082
-708.645	81.225	-0.266	0.289
-707.631	288.258	0.025	-0.045
-706.616	280.448	-0.098	-0.177
-705.602	-200.000	0.016	-0.174
-704.587	-200.000	-0.021	0.209
-703.572	-47.710	-0.110	0.054
-702.558	-55.403	0.162	0.073
-701.543	146.840	0.171	0.232
-700.529	-50.075	-0.266	-0.127
-699.514	610.621	-0.103	-0.259
-698.499	30.104	0.029	0.025
-697.485	35.691	-0.141	0.124
-696.470	-119.477	-0.062	0.011
-695.456	44.700	-0.148	-0.137
-694.441	127.141	-0.139	0.177
-693.426	104.696	0.142	0.168
-692.412	-139.598	0.218	0.023
-691.397	-75.309	-0.130	-0.047
-690.383	137.221	-0.117	0.154
-689.368	-185.493	-0.332	0.005
-688.354	800.000	-0.047	-0.134
-687.339	83.553	-0.317	-0.347
-686.324	-178.191	-0.190	0.004
-685.310	-142.180	0.112	0.011
-684.295	98.580	-0.331	-0.384
-683.281	-30.776	0.365	0.207
-682.266	86.761	-0.239	-0.265
-681.251	-200.000	-0.008	-0.060
-680.237	800.000	-0.034	-0.120
-679.222	-101.863	-0.105	-0.026
-678.208	800.000	0.061	-0.235
-677.193	-37.016	0.114	-0.061
-676.178	-134.898	0.430	0.052
-675.164	110.803	0.144	-0.174
-674.149	-77.021	-0.238	-0.083
-673.135	498.833	0.047	0.109
-672.120	240.634	0.048	-0.081
-671.105	-100.905	-0.220	-0.054
-670.091	414.393	0.152	-0.325
-669.076	39.147	-0.098	-0.088
-668.062	367.744	-0.113	0.229
-667.047	-41.120	-0.066	-0.034
-666.032	210.801	0.159	0.251
-665.018	-95.915	0.457	0.122
-664.003	-39.234	-0.207	0.109
-662.989	-51.204	-0.166	0.078
-661.974	679.631	-0.045	-0.118
-660.959	86.901	0.061	-0.068
-659.945	485.019	0.076	0.173
-658.930	342.031	-0.079	0.156
-657.916	-188.752	-0.310	-0.004
-656.901	114.400	-0.228	0.278
-655.886	-145.243	0.220	-0.020
-654.872	-145.182	0.123	-0.011
-653.857	-24.408	0.175	-0.105
-652.843	-200.000	0.006	-0.222
-651.828	-162.797	-0.138	-0.007
-650.814	-51.953	-0.475	-0.221
-649.799	-42.154	0.217	0.111
-648.784	366.260	0.025	-0.050
-647.770	-200.000	0.055	-0.260
-646.755	174.834	-0.143	-0.208
-645.741	301.535	0.033	0.062
-644.726	234.417	-0.178	0.294
-643.711	207.881	-0.185	0.290
-642.697	-200.000	0.026	-0.115
-641.682	-194.680	-0.307	0.002
-640.668	520.676	0.133	0.314
-639.653	337.042	0.082	-0.160
-638.638	11.590	-0.096	-0.074
-637.624	317.234	-0.136	-0.257
-636.609	-153.368	0.198	0.014
-635.595	-200.000	0.031	0.180
-634.580	-85.517	0.093	-0.029
-633.565	-53.398	0.199	0.091
-632.551	40.342	-0.157	0.142
-631.536	-117.242	0.082	0.015
-630.522	-86.072	-0.111	0.034
-629.507	800.000	0.057	0.197
-628.492	-149.035	-0.183	-0.015
-627.478	-103.105	-0.078	-0.018
-626.463	800.000	-0.087	-0.345
-625.449	536.878	-0.104	0.247
-624.434	-69.503	-0.160	0.061
-623.419	-200.000	0.007	-0.135
-622.405	-200.000	0.014	0.453
-621.390	66.643	0.069	-0.071
-620.376	800.000	0.022	-0.074
-619.361	620.884	0.113	-0.285
-618.346	800.000	0.058	-0.218
-617.332	-87.722	0.169	0.051
-616.317	-200.000	-0.010	-0.066
-615.303	-118.031	-0.173	0.031
-614.288	-16.075	0.072	0.046
-613.273	-41.599	0.208	-0.107
-612.259	800.000	0.068	0.204
-611.244	74.205	0.194	-0.204
-610.230	-200.000	-0.016	-0.267
-609.215	-170.354	0.178	0.006
-608.201	800.000	-0.061	0.184
-607.186	800.000	-0.086	0.306
-606.171	50.886	-0.261	0.248
-605.157	-200.000	0.019	0.151
-604.142	-200.000	0.018	-0.149
-603.128	667.868	-0.075	-0.193
-602.113	800.000	0.093	-0.269
-601.098	-101.440	-0.322	0.079
-600.084	-1.595	0.155	-0.109
-599.069	209.004	0.110	-0.173
-598.055	-135.439	0.259	-0.031
-597.040	-56.496	0.102	-0.045
-596.025	-200.000	-0.039	-0.229
-595.011	-200.000	0.040	-0.238
-593.996	-120.578	-0.297	-0.050
-592.982	-200.000	-0.062	0.317
-591.967	-59.045	0.177	0.077
-590.952	-200.000	0.002	-0.050
-589.938	89.473	0.158	-0.176
-588.923	-91.418	-0.373	-0.107
-587.909	-5.643	-0.104	-0.071
-586.894	-56.770	-0.026	0.011
-585.879	108.493	0.235	-0.281
-584.865	800.000	-0.118	0.330
-583.850	749.646	-0.122	0.329
-582.836	76.309	-0.139	-0.148
-581.821	-200.000	-0.043	0.387
-580.806	316.802	-0.115	0.217
-579.792	226.813	0.110	-0.178
-578.777	54.316	0.207	0.200
-577.763	-132.879	-0.131	-0.017
-576.748	168.296	-0.076	0.108
-575.733	-200.000	0.021	-0.175
-574.719	30.224	-0.161	0.137
-573.704	224.660	-0.113	-0.183
-572.690	-135.165	-0.251	-0.030
-571.675	800.000	-0.030	-0.127
-570.661	-67.508	0.077	-0.030
-569.646	-200.000	0.000	-0.264
-568.631	-154.259	0.137	0.009
-567.617	-86.872	0.046	-0.014
-566.602	-35.138	0.079	-0.043
-565.588	149.296	-0.070	-0.095
-564.573	241.042	-0.276	-0.460
-563.558	-199.309	0.317	0.002
-562.544	693.601	0.074	0.195
-561.529	-54.292	0.309	0.140
-560.515	6.376	0.188	-0.140
-559.500	-121.583	-0.100	0.017
-558.485	-200.000	0.014	0.090
-557.471	544.942	-0.038	-0.092
-556.456	-200.000	0.015	-0.155
-555.442	529.132	0.102	0.241
-554.427	-111.640	0.282	0.057
-553.412	25.923	-0.132	0.110
-552.398	800.000	-0.120	-0.363
-551.383	800.000	-0.045	0.171
-550.369	-67.543	0.135	0.053
-549.354	-40.547	0.416	-0.216
-548.339	-138.712	-0.465	-0.051
-547.325	-68.009	-0.072	0.028
-546.310	-200.000	-0.013	0.279
-545.296	39.089	0.225	0.201
-544.281	148.506	0.228	-0.308
-543.266	98.223	0.104	-0.120
-542.252	-157.301	0.245	-0.015
-541.237	800.000	0.082	-0.229
-540.223	-200.000	0.049	0.292
-539.208	800.000	0.096	-0.402
-538.193	72.281	0.165	-0.171
-537.179	45.613	-0.076	0.070
-536.164	800.000	-0.004	0.014
-535.150	-114.476	0.372	-0.071
-534.135	797.472	-0.035	0.096
-533.121	258.965	-0.046	0.079
-532.106	-18.886	0.035	-0.022
-531.091	198.507	0.052	-0.079
-530.077	-200.000	-0.008	0.092
-529.062	50.162	-0.097	-0.091
-528.048	800.000	0.083	0.275
-527.033	-90.490	-0.079	0.023
-526.018	203.383	0.111	-0.172
-525.004	476.289	-0.056	0.127
-523.989	800.000	-0.056	0.155
-522.975	-112.078	-0.050	-0.010
-521.960	4.511	0.183	-0.134
-520.945	-125.783	0.141	0.021
-519.931	-200.000	-0.031	0.155
-518.916	800.000	-0.054	-0.150
-517.902	-40.702	0.198	0.102
-516.887	-115.802	-0.343	-0.064
-515.872	-86.667	-0.042	-0.013
-514.858	-200.000	-0.005	-0.444
-513.843	26.649	-0.141	-0.118
-512.829	51.145	0.027	0.025
-511.814	-106.828	0.189	0.042
-510.799	506.819	-0.048	0.112
-509.785	9.376	-0.267	-0.202
-508.770	800.000	0.124	0.378
-507.756	-23.354	0.131	-0.079
-506.741	115.288	0.115	-0.140
-505.726	12.101	-0.243	0.186
-504.712	-42.963	-0.171	0.087
-503.697	-110.530	0.132	-0.027
-502.683	568.401	-0.137	0.332
-501.668	-200.000	-0.023	0.275
-500.653	353.574	0.120	-0.238
-499.639	800.000	0.035	0.136
-498.624	-60.669	0.146	0.062
-497.610	-130.557	0.300	0.040
-496.595	16.113	0.119	-0.094
-495.581	-8.837	-0.111	0.074
-494.566	312.367	-0.087	0.163
-493.551	22.580	0.241	0.197
-492.537	800.000	0.112	-0.313
-491.522	-200.000	0.039	-0.292
-490.508	120.131	0.105	0.130
-489.493	-136.987	0.263	0.030
-488.478	45.762	-0.093	-0.086
-487.464	-48.826	-0.065	-0.031
-486.449	19.125	-0.101	0.081
-485.435	727.431	-0.017	0.045
-484.420	-200.000	-0.010	0.094
-483.405	-52.941	-0.101	-0.046
-482.391	-200.000	-0.086	-0.507
-481.376	442.036	0.088	0.192
-480.362	314.042	-0.065	-0.122
-479.347	35.151	-0.014	-0.012
-478.332	49.161	0.073	-0.068
-477.318	373.090	0.029	0.059
-476.303	101.392	-0.137	0.159
-475.289	119.977	0.167	-0.206
-474.274	-200.000	-0.004	-0.030
-473.259	-200.000	0.009	0.263
-472.245	609.680	-0.018	0.045
-471.230	103.797	-0.283	-0.331
-470.216	-132.885	0.189	-0.024
-469.201	795.972	-0.053	0.145
-468.186	-28.892	0.203	-0.116
-467.172	-200.000	0.279	0.001
-466.157	160.550	0.141	0.196
-465.143	-62.883	-0.136	0.056
-464.128	-16.602	-0.193	-0.122
-463.113	63.509	-0.025	0.025
-462.099	147.058	0.103	-0.138
-461.084	-46.272	-0.073	-0.036
-460.070	-18.914	-0.034	-0.021
-459.055	-105.385	-0.222	0.050
-458.040	278.682	0.071	-0.126
-457.026	-107.362	0.024	-0.005
-456.011	-19.934	-0.186	-0.114
-454.997	33.284	-0.239	0.206
-453.982	-36.478	-0.195	0.104
-452.968	-167.462	0.334	-0.013
-451.953	800.000	-0.073	0.309
-450.938	-121.097	0.185	-0.031
-449.924	800.000	-0.052	0.177
-448.909	-51.403	-0.085	0.040
-447.895	-144.422	0.147	-0.014
-446.880	-70.591	-0.235	-0.088
-445.865	-200.000	0.026	0.208
-444.851	-4.614	-0.012	0.008
-443.836	-70.727	0.259	-0.097
-442.822	143.716	0.127	0.168
-441.807	95.497	-0.256	0.291
-440.792	-97.590	0.147	0.038
-439.778	86.411	-0.192	0.210
-438.763	-124.853	-0.231	0.035
-437.749	-171.101	0.060	-0.002
-436.734	22.820	0.070	0.057
-435.719	-200.000	-0.024	0.175
-434.705	-93.065	0.218	0.060
-433.690	-200.000	0.013	0.083
-432.676	-149.003	0.324	-0.026
-431.661	447.900	0.175	0.383
-430.646	44.033	-0.338	0.308
-429.632	-35.420	0.266	0.144
-428.617	-200.000	-0.004	-0.041
-427.603	-110.500	-0.107	0.022
-426.588	-38.623	0.111	-0.058
-425.573	-200.000	0.027	-0.172
-424.559	-200.000	0.006	0.106
-423.544	-166.673	0.211	-0.009
-422.530	-11.565	-0.224	0.146
-421.515	193.635	0.131	-0.197
-420.500	-22.214	0.413	-0.249
-419.486	7.353	-0.280	-0.208
-418.471	-200.000	-0.058	-0.338
-417.457	21.323	0.140	0.113
-416.442	-200.000	0.021	-0.334
-415.428	-25.468	0.122	0.072
-414.413	-63.732	0.054	0.022
-413.398	-33.362	-0.188	-0.103
-412.384	-200.000	-0.051	0.320
-411.369	146.133	0.074	-0.098
-410.355	-115.643	-0.022	0.004
-409.340	-29.606	-0.137	0.078
-408.325	-200.000	0.076	-0.480
-407.311	86.405	0.143	-0.156
-406.296	-122.954	-0.294	-0.047
-405.282	-166.847	-0.113	0.005
-404.267	46.021	-0.218	0.201
-403.252	492.678	0.091	0.207
-402.238	654.461	-0.069	0.176
-401.223	75.772	0.161	0.169
-400.209	51.627	-0.289	-0.273
-399.194	65.239	0.322	-0.324
-398.179	-168.335	0.327	0.013
-397.165	-200.000	0.009	0.138
-396.150	-154.223	0.227	-0.015
-395.136	-158.210	0.080	0.005
-394.121	64.705	-0.143	0.143
-393.106	-147.106	-0.295	-0.025
-392.092	-20.439	0.230	0.140
-391.077	-90.555	-0.242	-0.070
-390.063	110.706	-0.132	-0.158
-389.048	-200.000	-0.041	0.205
-388.033	-41.264	-0.360	0.184
-387.019	333.212	0.035	-0.068
-386.004	237.791	-0.136	-0.224
-384.990	357.943	-0.044	-0.088
-383.975	-103.494	-0.299	0.070
-382.960	-119.319	-0.295	0.051
-381.946	-14.193	-0.302	-0.193
-380.931	66.751	0.105	0.106
-379.917	85.601	0.196	-0.214
-378.902	-200.000	-0.034	-0.375
-377.888	-126.950	0.270	-0.039
-376.873	243.854	0.026	-0.043
-375.858	-200.000	-0.031	0.258
-374.844	-200.000	-0.052	-0.230
-373.829	-200.000	-0.019	0.262
-372.815	-93.472	-0.132	0.036
-371.800	103.455	-0.187	0.217
-370.785	-151.586	0.115	-0.008
-369.771	-200.000	0.066	-0.330
-368.756	-45.991	-0.170	0.083
-367.742	-200.000	0.008	-0.208
-366.727	-200.000	-0.011	0.144
-365.712	-104.268	0.443	0.102
-364.698	800.000	-0.079	0.216
-363.683	-177.392	-0.172	0.004
-362.669	77.467	0.175	-0.185
-361.654	282.589	0.096	0.170
-360.639	-200.000	-0.002	0.069
-359.625	117.464	-0.127	0.154
-358.610	125.990	-0.215	-0.270
-357.596	-51.881	-0.271	-0.125
-356.581	-200.000	0.008	0.038
-355.566	-4.763	0.207	-0.142
-354.552	-200.000	-0.407	0.001
-353.537	-200.000	-0.003	0.086
-352.523	-135.415	-0.035	-0.004
-351.508	206.952	-0.035	0.054
-350.493	800.000	-0.042	0.142
-349.479	426.019	-0.106	-0.227
-348.464	672.148	0.048	0.125
-347.450	114.223	0.057	-0.068
-346.435	-59.307	0.317	-0.135
-345.420	-200.000	-0.037	0.174
-344.406	-122.915	0.269	0.043
-343.391	-21.426	0.272	-0.164
-342.377	-35.637	0.088	-0.047
-341.362	240.819	0.051	0.084
-340.348	-79.158	-0.012	0.004
-339.333	122.514	-0.196	-0.242
-338.318	88.115	-0.115	0.126
-337.304	-33.129	-0.396	-0.218
-336.289	-61.741	0.073	-0.030
-335.275	800.000	0.068	-0.223
-334.260	216.254	0.125	-0.196
-333.245	-60.392	0.166	0.070
-332.231	688.450	0.118	0.306
-331.216	800.000	0.080	0.330
-330.202	-4.766	-0.268	0.183
-329.187	416.337	-0.106	0.225
-328.172	-73.134	0.210	0.076
-327.158	117.150	0.233	-0.284
-326.143	167.491	0.066	-0.093
-325.129	-20.254	-0.039	0.024
-324.114	10.177	0.236	0.178
-323.099	800.000	0.031	0.101
-322.085	-200.000	0.020	-0.215
-321.070	-174.384	0.412	0.012
-320.056	800.000	0.021	-0.072
-319.041	18.032	0.132	-0.105
-318.026	39.002	-0.143	0.127
-317.012	800.000	-0.014	0.051
-315.997	89.379	-0.099	-0.110
-314.983	30.993	-0.118	-0.100
-313.968	57.361	-0.256	-0.247
-312.953	-80.030	-0.193	-0.064
-311.939	70.381	0.228	-0.233
-310.924	-200.000	0.030	-0.319
-309.910	-146.801	-0.096	0.008
-308.895	800.000	-0.110	0.358
-307.880	-117.603	-0.163	-0.029
-306.866	-101.721	0.116	0.028
-305.851	800.000	-0.173	-0.479
-304.837	103.015	0.161	-0.187
-303.822	225.994	0.213	0.342
-302.807	46.561	-0.078	-0.071
-301.793	-50.096	0.227	-0.106
-300.778	237.318	-0.117	-0.192
-299.764	389.587	-0.095	-0.195
-298.749	-129.461	0.316	-0.043
-297.735	-121.529	-0.316	-0.052
-296.720	-67.662	0.175	0.068
-295.705	-200.000	-0.046	-0.366
-294.691	-91.576	-0.150	0.042
-293.676	787.537	-0.141	0.383
-292.662	297.335	0.135	0.245
-291.647	-2.537	0.220	-0.152
-290.632	-200.000	-0.017	-0.263
-289.618	0.274	0.258	-0.182
-288.603	800.000	0.069	0.194
-287.589	800.000	-0.106	0.380
-286.574	30.508	-0.451	0.381
-285.559	770.294	0.043	0.115
-284.545	-78.344	0.077	0.026
-283.530	295.769	0.118	0.215
-282.516	-69.762	-0.368	0.139
-281.501	-200.000	0.004	0.265
-280.486	800.000	0.038	-0.163
-279.472	-133.809	-0.114	0.014
-278.457	549.656	0.086	-0.204
-277.443	15.802	-0.275	-0.214
-276.428	-163.489	0.053	-0.002
-275.413	38.045	0.118	-0.104
-274.399	-137.826	-0.130	-0.014
-273.384	800.000	-0.053	0.170
-272.370	-73.634	-0.344	0.124
-271.355	-61.947	-0.110	0.045
-270.340	-53.948	0.143	-0.065
-269.326	-124.653	-0.296	-0.045
-268.311	-128.448	-0.141	-0.020
-267.297	-200.000	0.056	0.438
-266.282	-75.761	0.297	-0.104
-265.267	-200.000	-0.002	-0.234
-264.253	-200.000	-0.043	-0.429
-263.238	-58.108	-0.386	0.166
-262.224	-111.068	0.262	0.053
-261.209	-180.750	0.285	-0.006
-260.195	6.810	-0.247	-0.181
-259.180	41.739	0.063	-0.056
-258.165	800.000	-0.015	0.044
-257.151	-16.056	0.141	-0.089
-256.136	-200.000	0.073	0.343
-255.122	800.000	-0.067	-0.251
-254.107	-87.646	-0.259	0.077
-253.092	249.860	0.093	-0.155
-252.078	-173.556	0.403	-0.012
-251.063	-200.000	-0.080	0.348
-250.049	-200.000	0.003	-0.186
-249.034	98.972	0.154	-0.175
-248.019	-0.612	0.178	0.125
-247.005	800.000	-0.049	0.165
-245.990	-27.559	-0.241	-0.138
-244.976	-153.226	-0.067	0.005
-243.961	60.249	-0.100	-0.098
-242.946	17.361	0.134	0.105
-241.932	43.859	-0.132	0.119
-240.917	-85.123	0.077	0.024
-239.903	-200.000	0.029	-0.188
-238.888	-98.796	-0.448	-0.113
-237.873	-50.380	-0.200	0.093
-236.859	-153.844	-0.200	0.014
-235.844	-94.146	-0.194	-0.053
-234.830	120.768	0.125	-0.154
-233.815	-138.176	0.353	0.039
-232.800	-139.823	-0.288	0.030
-231.786	112.516	0.038	0.045
-230.771	60.304	-0.207	0.202
-229.757	800.000	0.154	0.509
-228.742	73.872	-0.162	0.168
-227.727	-105.197	-0.267	0.060
-226.713	800.000	0.033	-0.111
-225.698	141.257	-0.138	-0.181
-224.684	106.604	0.057	-0.067
-223.669	3.632	0.107	-0.077
-222.655	-78.161	-0.100	-0.034
-221.640	215.651	-0.057	-0.090
-220.625	471.799	-0.031	-0.070
-219.611	-200.000	-0.002	-0.088
-218.596	186.733	0.122	-0.179
-217.582	-200.000	0.024	-0.161
-216.567	138.958	-0.274	-0.355
-215.552	-149.082	0.459	0.036
-214.538	40.900	0.224	-0.200
-213.523	33.042	0.127	0.108
-212.509	-200.000	0.005	0.112
-211.494	-98.842	0.127	0.032
-210.479	800.000	-0.009	0.032
-209.465	110.050	-0.293	-0.346
-208.450	-42.147	-0.183	0.092
-207.436	-19.293	-0.199	0.122
-206.421	277.886	-0.011	0.019
-205.406	9.594	0.149	-0.111
-204.392	135.648	0.047	0.061
-203.377	73.729	-0.113	-0.117
-202.363	-74.615	0.129	-0.046
-201.348	-5.946	-0.160	0.108
-200.333	-76.065	0.281	-0.098
-199.319	-33.919	0.189	0.103
-198.304	-122.165	-0.296	0.048
-197.290	-200.000	-0.001	0.025
-196.275	800.000	-0.037	0.111
-195.260	0.137	-0.062	0.043
-194.246	-106.897	-0.205	0.045
-193.231	-200.000	-0.041	-0.227
-192.217	-110.189	0.422	0.087
-191.202	755.108	0.083	0.222
-190.187	5.980	0.513	0.374
-189.173	-98.188	0.277	-0.070
-188.158	482.474	0.042	-0.093
-187.144	155.088	-0.072	-0.097
-186.129	800.000	-0.055	-0.157
-185.114	-150.618	0.314	0.024
-184.100	-19.043	-0.292	-0.179
-183.085	37.646	-0.214	0.187
-182.071	-200.000	-0.050	-0.228
-181.056	-200.000	0.015	-0.075
-180.042	514.554	-0.094	0.216
-179.027	110.296	-0.153	0.181
-178.012	66.488	0.284	0.284
-176.998	326.214	-0.096	-0.181
-175.983	4.615	0.386	0.279
-174.969	-157.844	-0.213	-0.012
-173.954	-167.948	-0.147	0.006
-172.939	303.859	-0.188	0.343
-171.925	800.000	0.114	0.404
-170.910	-200.000	0.011	-0.235
-169.896	105.081	0.124	-0.144
-168.881	-10.090	-0.122	0.080
-167.866	-136.074	-0.233	0.027
-166.852	-104.014	-0.280	0.064
-165.837	223.219	-0.101	0.161
-164.823	-50.473	-0.131	0.061
-163.808	-200.000	-0.066	-0.584
-162.793	200.764	0.133	-0.201
-161.779	800.000	0.049	0.179
-160.764	-200.000	-0.011	-0.178
-159.750	403.501	0.115	0.239
-158.735	-200.000	0.024	0.200
-157.720	74.429	-0.221	0.228
-156.706	65.517	0.325	0.323
-155.691	103.258	0.119	0.137
-154.677	-200.000	0.006	-0.187
-153.662	40.385	0.119	0.105
-152.647	800.000	-0.070	-0.192
-151.633	-87.251	-0.173	0.052
-150.618	-50.073	-0.251	0.117
-149.604	-127.770	0.142	0.020
-148.589	-137.953	-0.231	0.025
-147.574	800.000	-0.051	-0.184
-146.560	800.000	0.070	-0.272
-145.545	12.835	0.168	0.128
-144.531	-200.000	-0.008	0.287
-143.516	56.295	-0.046	0.044
-142.502	123.150	0.122	0.150
-141.487	-59.158	-0.292	-0.124
-140.472	-111.523	-0.327	0.065
-139.458	-20.532	-0.205	0.124
-138.443	800.000	0.064	-0.222
-137.429	593.881	-0.065	0.159
-136.414	20.632	0.273	0.217
-135.399	-131.272	0.250	0.033
-134.385	-200.000	-0.003	0.323
-133.370	14.851	0.353	0.272
-132.356	-64.661	-0.097	-0.039
-131.341	-86.867	-0.053	0.016
-130.326	-163.313	-0.311	-0.015
-129.312	49.322	0.187	-0.173
-128.297	-200.000	-0.034	0.208
-127.283	1.747	-0.069	-0.049
-126.268	-116.359	0.217	-0.040
-125.253	149.355	-0.154	-0.204
-124.239	136.917	0.069	0.088
-123.224	245.317	0.059	-0.098
-122.210	-174.111	-0.244	0.007
-121.195	139.319	-0.117	0.151
-120.180	658.328	-0.098	-0.247
-119.166	271.496	-0.082	-0.143
-118.151	-47.647	-0.061	-0.029
-117.137	-11.783	-0.305	0.197
-116.122	-142.877	0.184	0.018
-115.107	-11.063	0.197	-0.128
-114.093	-112.260	-0.208	-0.041
-113.078	-26.147	-0.092	0.053
-112.064	-200.000	0.010	-0.191
-111.049	-77.505	0.334	0.114
-110.034	-12.268	-0.148	-0.095
-109.020	-29.621	-0.343	-0.193
-108.005	-12.731	0.197	0.126
-106.991	800.000	0.035	0.132
-105.976	800.000	-0.075	-0.322
-104.962	-96.870	-0.105	0.027
-103.947	-200.000	0.048	-0.220
-102.932	23.589	0.129	0.104
-101.918	8.410	-0.132	0.098
-100.903	-11.217	-0.053	-0.034
-99.889	88.454	0.087	-0.095
-98.874	-132.481	-0.297	0.038
-97.859	48.970	0.209	-0.192
-96.845	344.228	0.106	-0.204
-95.830	21.938	-0.124	0.099
-94.816	800.000	-0.066	-0.195
-93.801	-80.528	-0.125	0.041
-92.786	-200.000	0.006	0.236
-91.772	149.985	-0.138	0.183
-90.757	-200.000	-0.001	0.368
-89.743	105.901	0.235	0.273
-88.728	-200.000	0.003	-0.259
-87.713	-27.195	0.201	-0.115
-86.699	-25.651	0.345	-0.200
-85.684	-9.190	0.110	0.072
-84.670	318.626	0.120	-0.223
-83.655	62.166	-0.296	0.290
-82.640	-200.000	-0.006	0.167
-81.626	76.215	0.094	0.098
-80.611	41.533	0.169	-0.150
-79.597	-200.000	-0.172	0.000
-78.582	116.458	0.276	0.332
-77.567	10.478	0.281	-0.210
-76.553	74.859	0.227	0.234
-75.538	800.000	0.101	0.400
-74.524	-174.027	-0.177	0.005
-73.509	-38.439	0.113	-0.059
-72.494	321.090	-0.155	0.290
-71.480	96.222	-0.207	0.233
-70.465	663.493	-0.104	-0.262
-69.451	-66.868	0.130	-0.050
-68.436	800.000	-0.043	0.128
-67.422	800.000	-0.041	-0.113
-66.407	-142.650	0.338	-0.032
-65.392	800.000	0.082	-0.227
-64.378	-23.993	-0.061	0.035
-63.363	47.131	-0.042	-0.038
-62.349	-94.199	0.155	0.042
-61.334	47.834	-1.083	-0.991
-60.319	-200.000	0.100	0.499
-59.305	-200.000	-0.233	-1.072
-58.290	112.245	0.865	1.025
-57.276	427.897	0.781	1.654
-56.261	-200.000	108.790	592.484
-55.246	447.977	1482.892	3200.564
-54.232	146.645	2670.967	3517.670
-53.217	99.676	2283.454	2591.123
-52.203	38.550	1896.142	1657.272
-51.188	32.806	1685.093	1429.386
-50.173	30.084	1642.420	1373.001
-49.159	49.152	1696.060	1561.909
-48.144	49.510	1711.293	1578.570
-47.130	32.297	1668.807	1411.525
-46.115	29.731	1654.186	1379.978
-45.100	29.573	1649.457	1374.807
-44.086	29.448	1646.720	1371.540
-43.071	29.443	1644.163	1369.317
-42.057	29.455	1641.257	1366.931
-41.042	29.386	1640.277	1365.555
-40.027	29.509	1637.808	1364.350
-39.013	29.530	1635.609	1362.616
-37.998	29.407	1634.267	1360.539
-36.984	29.432	1632.551	1359.240
-35.969	29.517	1631.680	1359.088
-34.954	29.637	1630.154	1358.648
-33.940	29.519	1628.042	1355.965
-32.925	29.581	1626.325	1354.934
-31.911	29.593	1624.625	1353.556
-30.896	29.465	1623.469	1351.602
-29.881	29.533	1621.570	1350.466
-28.867	29.567	1619.566	1348.989
-27.852	29.482	1618.146	1347.130
-26.838	29.554	1616.840	1346.514
-25.823	29.615	1615.575	1345.853
-24.809	29.689	1614.173	1345.173
-23.794	29.589	1613.183	1343.569
-22.779	29.653	1611.192	1342.318
-21.765	29.587	1609.518	1340.390
-20.750	29.550	1608.139	1338.923
-19.736	29.580	1606.698	1337.887
-18.721	29.652	1605.082	1337.009
-17.706	29.704	1603.938	1336.379
-16.692	29.626	1602.001	1334.148
-15.677	29.572	1600.978	1332.853
-14.663	29.596	1600.048	1332.204
-13.648	29.597	1598.570	1330.924
-12.633	29.664	1596.497	1329.631
-11.619	29.697	1595.229	1328.755
-10.604	29.538	1594.080	1326.601
-9.590	29.655	1592.470	1326.055
-8.575	29.635	1591.603	1325.134
-7.560	29.610	1589.666	1323.287
-6.546	29.651	1588.803	1322.812
-5.531	29.620	1587.476	1321.433
-4.517	29.543	1586.780	1320.251
-3.502	29.581	1585.648	1319.529
-2.487	29.676	1583.526	1318.389
-1.473	29.288	1571.810	1305.831
-0.458	26.495	1552.936	1270.522
0.556	21.437	1553.224	1240.214
1.571	19.140	1576.809	1242.382
2.586	18.778	1589.863	1249.921
3.600	17.069	1537.002	1196.218
4.615	9.520	1427.634	1061.413
5.629	1.751	1363.347	964.471
6.644	0.305	1354.641	949.123
7.659	0.073	1353.900	947.064
8.673	-0.046	1352.718	945.405
9.688	0.018	1351.034	944.543
10.702	-0.222	1347.695	940.624
11.717	3.531	1353.543	968.206
12.731	12.048	1366.744	1031.347
13.746	17.307	1373.747	1069.714
14.761	17.299	1372.295	1068.435
15.775	16.255	1369.470	1059.594
16.790	15.156	1367.386	1050.994
17.804	14.506	1364.574	1044.668
18.819	14.095	1363.401	1041.107
19.834	13.808	1362.303	1038.381
20.848	13.492	1360.986	1035.309
21.863	13.265	1359.896	1032.969
22.877	13.222	1358.185	1031.309
23.892	13.089	1357.810	1030.103
24.907	13.109	1356.641	1029.251
25.921	13.097	1355.717	1028.389
26.936	13.132	1354.939	1027.922
27.950	13.238	1354.075	1027.832
28.965	13.229	1353.527	1027.275
29.980	13.338	1352.168	1026.827
30.994	13.383	1351.179	1026.263
32.009	13.345	1350.594	1025.494
33.023	13.372	1349.532	1024.762
34.038	13.370	1347.889	1023.415
35.053	13.291	1346.723	1021.949
36.067	13.279	1346.285	1021.454
37.082	13.402	1344.575	1020.823
38.096	13.278	1344.521	1019.927
39.111	13.325	1343.618	1019.441
40.126	13.116	1343.037	1017.621
41.140	13.149	1341.605	1016.651
42.155	13.185	1341.397	1016.622
43.169	13.169	1341.267	1016.340
44.184	13.152	1340.638	1015.663
45.199	13.104	1340.594	1015.246
46.213	13.203	1339.664	1015.061
47.228	13.295	1339.222	1015.204
48.242	13.277	1337.351	1013.580
49.257	13.246	1336.213	1012.443
50.271	13.232	1334.783	1011.184
51.286	13.264	1333.583	1010.379
52.301	13.184	1332.210	1008.761
53.315	13.245	1331.363	1008.405
54.330	13.220	1330.186	1007.268
55.344	13.067	1329.550	1005.767
56.359	13.229	1327.934	1005.444
57.374	13.136	1326.935	1004.029
58.388	13.064	1326.526	1003.198
59.403	13.079	1326.353	1003.066
60.417	13.122	1324.857	1002.106
61.432	13.012	1324.680	1001.216
62.447	13.052	1323.439	1000.432
63.461	13.011	1322.363	999.281
64.476	12.989	1321.143	998.140
65.490	13.106	1319.444	997.477
66.505	13.028	1318.631	996.304
67.520	13.109	1317.070	995.520
68.534	13.025	1316.157	994.241
69.549	13.081	1315.376	993.896
70.563	13.039	1314.225	992.687
71.578	13.051	1312.935	991.695
72.593	13.030	1311.862	990.674
73.607	13.000	1311.704	990.284
74.622	13.045	1310.499	989.559
75.636	12.979	1309.979	988.684
76.651	13.088	1308.409	988.060
77.666	12.994	1308.593	987.551
78.680	12.980	1307.950	986.894
79.695	13.039	1307.031	986.464
80.709	13.083	1306.110	985.949
81.724	13.151	1305.283	985.639
82.739	13.109	1304.798	984.937
83.753	13.119	1303.926	984.249
84.768	13.245	1302.561	983.885
85.782	13.323	1301.618	983.551
86.797	13.296	1300.151	982.191
87.812	13.265	1299.107	981.130
88.826	13.077	1298.376	979.376
89.841	13.170	1296.727	978.597
90.855	13.294	1296.071	978.751
91.870	13.207	1295.116	977.430
92.884	13.291	1293.966	976.969
93.899	13.317	1293.412	976.620
94.914	13.424	1292.366	976.374
95.928	13.450	1291.413	975.722
96.943	13.293	1291.084	974.462
97.957	13.336	1289.660	973.552
98.972	13.329	1288.695	972.701
99.987	13.334	1287.563	971.785
101.001	13.362	1286.641	971.167
102.016	13.314	1286.042	970.347
103.030	13.276	1285.263	969.455
104.045	13.404	1283.870	969.066
105.060	13.250	1282.633	967.149
106.074	13.208	1281.735	966.139
107.089	13.066	1280.061	963.963
108.103	13.149	1278.836	963.439
109.118	13.048	1277.755	961.950
110.133	13.150	1276.099	961.210
111.147	13.184	1274.671	960.247
112.162	13.084	1274.020	959.091
113.176	13.325	1272.320	959.123
114.191	13.228	1271.919	958.179
115.206	13.252	1270.719	957.326
116.220	13.199	1269.228	955.812
117.235	13.321	1268.365	955.783
118.249	13.242	1267.752	954.778
119.264	13.155	1266.221	953.039
120.279	13.145	1264.960	951.948
121.293	13.103	1264.076	950.956
122.308	13.181	1262.637	950.238
123.322	13.310	1261.501	950.042
124.337	13.171	1260.651	948.521
125.352	13.078	1259.988	947.403
126.366	13.097	1258.787	946.528
127.381	13.124	1257.863	945.903
128.395	13.142	1256.609	944.979
129.410	13.168	1255.266	944.034
130.424	13.197	1254.996	943.915
131.439	13.301	1253.924	943.613
132.454	13.260	1252.835	942.477
133.468	13.206	1251.996	941.459
134.483	13.173	1251.547	940.846
135.497	13.260	1250.071	940.147
136.512	13.275	1249.007	939.351
137.527	13.319	1247.449	938.344
138.541	13.208	1246.017	936.560
139.556	13.296	1244.598	935.905
140.570	13.357	1243.691	935.489
141.585	13.294	1242.856	934.417
142.600	13.323	1241.721	933.649
143.614	13.361	1240.729	933.034
144.629	13.418	1239.576	932.403
145.643	13.402	1238.177	931.180
146.658	13.294	1237.522	929.995
147.673	13.316	1236.174	929.027
148.687	13.358	1234.816	928.158
149.702	13.293	1233.339	926.605
150.716	13.246	1232.015	925.263
151.731	13.304	1231.309	924.975
152.746	13.222	1229.808	923.305
153.760	13.360	1228.954	923.357
154.775	13.350	1227.714	922.285
155.789	13.357	1226.715	921.493
156.804	13.588	1225.483	921.769
157.819	13.515	1224.836	920.797
158.833	13.646	1223.308	920.293
159.848	13.632	1222.620	919.616
160.862	13.484	1222.061	918.296
161.877	13.412	1221.159	917.139
162.892	13.496	1220.065	916.697
163.906	13.470	1218.499	915.296
164.921	13.404	1218.195	914.622
165.935	13.513	1216.963	914.220
166.950	13.511	1216.581	913.842
167.964	13.503	1215.819	913.144
168.979	13.467	1215.229	912.419
169.994	13.419	1214.467	911.504
171.008	13.493	1213.661	911.226
172.023	13.561	1212.696	910.796
173.037	13.583	1212.346	910.569
174.052	13.553	1211.333	909.565
175.067	13.720	1209.792	909.241
176.081	13.515	1208.899	907.368
177.096	13.604	1207.582	906.788
178.110	13.571	1206.898	906.015
179.125	13.621	1205.698	905.307
180.140	13.649	1204.418	904.414
181.154	13.633	1203.318	903.421
182.169	13.605	1201.967	902.174
183.183	13.717	1200.854	901.872
184.198	13.753	1199.784	901.183
185.213	13.862	1198.568	900.779
186.227	13.826	1197.775	899.909
187.242	13.893	1196.385	899.148
188.256	13.923	1195.944	898.900
189.271	13.828	1194.704	897.376
190.286	13.713	1193.476	895.755
191.300	13.664	1192.764	894.875
192.315	13.712	1191.940	894.436
193.329	13.618	1191.441	893.476
194.344	13.702	1190.640	893.249
195.359	13.766	1190.544	893.439
196.373	13.756	1189.420	892.468
197.388	13.891	1188.943	892.755
198.402	13.963	1188.917	893.041
199.417	13.954	1188.028	892.248
200.432	13.922	1187.597	891.673
201.446	14.015	1186.256	891.084
202.461	13.965	1185.434	890.121
203.475	14.247	1184.297	890.697
204.490	13.948	1183.275	888.255
205.504	13.932	1182.150	887.245
206.519	14.008	1180.294	886.179
207.534	13.943	1179.764	885.354
208.548	14.016	1178.365	884.618
209.563	14.077	1177.763	884.412
210.577	14.043	1177.070	883.629
211.592	14.185	1175.674	883.257
212.607	14.129	1175.371	882.654
213.621	14.125	1174.458	881.869
214.636	14.112	1173.752	881.196
215.650	14.116	1172.455	880.163
216.665	14.150	1171.448	879.507
217.680	14.291	1170.740	879.646
218.694	14.268	1169.868	878.787
219.709	14.226	1169.270	878.044
220.723	14.203	1168.657	877.381
221.738	14.145	1167.524	876.149
222.753	14.249	1167.158	876.343
223.767	14.346	1166.216	876.068
224.782	14.395	1165.366	875.613
225.796	14.439	1164.779	875.325
226.811	14.364	1164.459	874.612
227.826	14.342	1163.742	873.880
228.840	14.393	1162.702	873.287
229.855	14.355	1162.339	872.740
230.869	14.331	1161.165	871.656
231.884	14.398	1160.335	871.305
232.899	14.264	1159.810	870.132
233.913	14.298	1159.154	869.744
234.928	14.148	1158.701	868.542
235.942	14.387	1157.214	868.597
236.957	14.282	1157.102	867.891
237.972	14.392	1156.171	867.687
238.986	14.335	1155.621	866.901
240.001	14.332	1154.642	866.071
241.015	14.422	1153.799	865.832
242.030	14.362	1153.470	865.196
243.045	14.366	1152.496	864.414
244.059	14.538	1151.483	864.464
245.074	14.517	1150.678	863.675
246.088	14.391	1150.227	862.609
247.103	14.555	1149.188	862.603
248.117	14.584	1148.992	862.530
249.132	14.619	1147.646	861.622
250.147	14.797	1147.153	862.095
251.161	14.754	1146.498	861.307
252.176	14.783	1145.945	860.963
253.190	14.738	1145.627	860.417
254.205	14.819	1145.030	860.308
255.220	14.978	1144.040	860.308
256.234	14.890	1143.325	859.238
257.249	14.954	1142.713	859.031
258.263	14.876	1142.154	858.135
259.278	14.814	1141.810	857.484
260.293	14.933	1141.345	857.670
261.307	14.872	1140.533	856.669
262.322	15.005	1139.591	856.569
263.336	14.950	1138.883	855.676
264.351	14.921	1138.777	855.375
265.366	15.023	1137.734	855.037
266.380	15.016	1137.097	854.447
267.395	15.002	1135.813	853.332
268.409	14.979	1135.287	852.748
269.424	14.882	1135.277	852.167
270.439	15.071	1134.439	852.427
271.453	14.947	1133.515	851.027
272.468	15.023	1132.449	850.538
273.482	14.955	1132.049	849.815
274.497	14.977	1131.509	849.447
275.512	15.027	1130.822	849.108
276.526	15.227	1129.930	849.381
277.541	15.099	1129.511	848.340
278.555	14.989	1128.584	847.013
279.570	15.138	1127.926	847.198
280.585	15.186	1126.937	846.621
281.599	15.136	1126.391	845.886
282.614	15.247	1125.108	845.404
283.628	15.138	1124.220	844.114
284.643	15.289	1122.957	843.849
285.657	15.269	1122.186	843.095
286.672	15.237	1121.248	842.159
287.687	15.298	1120.511	841.837
288.701	15.216	1120.124	841.057
289.716	15.316	1119.110	840.723
290.730	15.329	1118.371	840.160
291.745	15.309	1117.678	839.466
292.760	15.316	1116.959	838.886
293.774	15.404	1116.692	839.052
294.789	15.398	1116.325	838.670
295.803	15.429	1115.404	838.056
296.818	15.472	1114.695	837.666
297.833	15.515	1113.672	837.039
298.847	15.370	1112.952	835.702
299.862	15.445	1112.447	835.623
300.876	15.514	1111.582	835.240
301.891	15.566	1111.012	834.998
302.906	15.503	1110.340	834.106
303.920	15.587	1109.693	833.963
304.935	15.627	1108.854	833.458
305.949	15.589	1108.407	832.860
306.964	15.669	1107.869	832.776
307.979	15.641	1106.805	831.766
308.993	15.660	1106.375	831.461
310.008	15.649	1105.301	830.526
311.022	15.612	1105.200	830.196
312.037	15.750	1103.617	829.612
313.052	15.761	1102.723	828.922
314.066	15.557	1101.873	827.205
315.081	15.624	1100.991	826.801
316.095	15.496	1100.593	825.798
317.110	15.683	1099.758	826.018
318.125	15.595	1098.965	824.913
319.139	15.646	1098.515	824.757
320.154	15.639	1097.832	824.136
321.168	15.677	1097.127	823.721
322.183	15.719	1096.809	823.611
323.197	15.724	1096.229	823.128
324.212	15.755	1095.350	822.550
325.227	15.733	1094.944	822.062
326.241	15.735	1093.979	821.277
327.256	15.843	1093.423	821.312
328.270	15.774	1092.451	820.175
329.285	15.799	1091.644	819.616
330.300	15.775	1090.689	818.709
331.314	15.876	1089.581	818.295
332.329	15.834	1088.498	817.210
333.343	15.841	1088.042	816.826
334.358	15.821	1087.062	815.923
335.373	15.871	1086.345	815.553
336.387	15.937	1085.553	815.206
337.402	15.908	1085.442	814.911
338.416	16.028	1084.477	814.695
339.431	16.072	1083.600	814.175
340.446	16.142	1082.983	813.976
341.460	16.071	1082.418	813.139
342.475	16.072	1081.496	812.379
343.489	16.193	1080.846	812.401
344.504	16.116	1079.938	811.278
345.519	16.250	1078.970	811.121
346.533	16.079	1078.278	809.707
347.548	16.154	1077.730	809.586
348.562	16.183	1076.934	809.056
349.577	16.256	1075.952	808.593
350.592	16.145	1075.194	807.424
351.606	16.147	1074.619	806.931
352.621	16.071	1074.238	806.209
353.635	16.085	1073.498	805.646
354.650	16.178	1072.633	805.374
355.665	16.134	1071.834	804.490
356.679	16.235	1071.163	804.400
357.694	16.176	1070.946	803.881
358.708	16.215	1070.306	803.517
359.723	16.214	1069.713	802.995
360.738	16.297	1068.818	802.647
361.752	16.340	1068.367	802.443
362.767	16.440	1067.665	802.319
363.781	16.417	1067.062	801.682
364.796	16.391	1066.687	801.208
365.810	16.395	1066.066	800.691
366.825	16.438	1065.638	800.502
367.840	16.564	1065.055	800.590
368.854	16.619	1064.044	800.018
369.869	16.642	1062.948	799.231
370.883	16.552	1062.665	798.524
371.898	16.549	1061.893	797.860
372.913	16.490	1061.441	797.170
373.927	16.516	1061.014	796.902
374.942	16.691	1060.395	797.192
375.956	16.666	1059.561	796.377
376.971	16.577	1059.045	795.500
377.986	16.682	1058.503	795.513
379.000	16.628	1058.079	794.874
380.015	16.673	1057.721	794.744
381.029	16.810	1056.686	794.540
382.044	16.723	1056.044	793.577
383.059	16.712	1055.465	793.020
384.073	16.854	1054.623	792.982
385.088	16.744	1053.756	791.746
386.102	16.708	1052.951	790.904
387.117	16.850	1051.742	790.589
388.132	16.771	1050.873	789.496
389.146	16.794	1050.470	789.230
390.161	16.656	1049.478	787.772
391.175	16.783	1048.720	787.724
392.190	16.869	1048.412	787.822
393.205	16.848	1047.442	786.930
394.219	16.859	1047.167	786.701
395.234	16.874	1046.158	785.943
396.248	16.990	1044.988	785.534
397.263	16.732	1043.818	783.390
398.278	16.802	1043.229	783.202
399.292	16.715	1042.567	782.236
400.307	16.839	1041.899	782.237
401.321	16.825	1041.630	781.902
402.336	16.894	1040.726	781.473
403.350	16.968	1039.795	781.043
404.365	16.945	1039.371	780.550
405.380	16.975	1038.403	779.892
406.394	16.938	1037.653	779.088
407.409	17.062	1037.381	779.388
408.423	17.088	1036.300	778.626
409.438	17.083	1035.921	778.247
410.453	17.051	1035.472	777.694
411.467	17.111	1034.664	777.293
412.482	17.243	1033.731	777.129
413.496	17.282	1032.817	776.552
414.511	17.251	1032.387	776.016
415.526	17.354	1031.818	775.991
416.540	17.305	1031.733	775.634
417.555	17.425	1030.812	775.422
418.569	17.460	1030.389	775.191
419.584	17.235	1029.855	773.697
420.599	17.379	1029.490	774.011
421.613	103.652	1322.314	1469.795
422.628	94.834	1364.938	1469.912
