DTS Sentinel unit serial number:	SN413079Multiplexer serial number:	ORYXHardware model number:	OX4-SRSoftware version number:	ORYX F/W v4.00 Oryx Data Collector v3.7.2.0data status	okinstallation	princeton_trtdifferential loss correction	single-endedforward channel	channel 2reverse channel	N/Adate	2019/09/19time	04:19:34forward acquisition time	60.00reverse acquisition time	0.00gamma	496.2192k internal	0.2352k external	0.2352temperature offset calibration	1.0017default loss term (dB/km)	0.3790temperature slope calibration	1.0000multiplexer offset coefficient	1.0000multiplexer slope coefficient	1.0000fibre end	0.00T internal ref (°C)	20.25T ext. ref 1 (°C)	0.62T ext. ref 2 (°C)	13.58length (m)	temperature (°C)	Stokes	anti-Stokes-747.200	262.514	-0.090	0.155
-746.185	800.000	-0.066	-0.201
-745.171	-77.445	0.283	0.098
-744.156	526.466	0.051	-0.119
-743.142	255.437	0.155	-0.265
-742.127	202.920	-0.169	0.260
-741.112	-120.684	0.280	0.047
-740.098	-174.082	-0.172	0.005
-739.083	109.829	-0.073	-0.087
-738.069	-200.000	0.017	0.101
-737.054	32.278	0.265	-0.228
-736.039	-200.000	0.017	-0.177
-735.025	542.826	0.040	-0.095
-734.010	26.975	-0.206	0.172
-732.996	151.333	0.162	-0.220
-731.981	268.428	0.026	-0.045
-730.966	-200.000	0.055	-0.271
-729.952	-167.543	-0.146	-0.006
-728.937	126.035	0.102	-0.128
-727.923	27.758	-0.109	0.091
-726.908	800.000	-0.051	-0.223
-725.894	492.849	0.086	-0.198
-724.879	-177.277	-0.434	0.011
-723.864	199.587	-0.051	-0.078
-722.850	230.834	-0.029	0.048
-721.835	-16.884	-0.503	-0.317
-720.821	85.158	-0.062	-0.068
-719.806	-135.612	0.150	0.018
-718.791	-200.000	-0.064	-0.279
-717.777	-66.230	-0.261	-0.104
-716.762	-200.000	0.005	-0.171
-715.748	-45.656	-0.206	0.102
-714.733	475.366	0.078	0.176
-713.718	-140.826	0.033	-0.003
-712.704	-148.507	0.111	-0.009
-711.689	-99.495	0.333	-0.084
-710.675	126.557	0.056	0.071
-709.660	18.279	-0.067	-0.053
-708.645	156.968	0.200	0.276
-707.631	-4.597	-0.152	0.104
-706.616	180.990	0.100	-0.147
-705.602	783.086	-0.042	-0.115
-704.587	800.000	0.051	0.189
-703.572	69.162	-0.142	-0.145
-702.558	-124.882	0.112	-0.017
-701.543	94.612	-0.183	0.207
-700.529	41.804	-0.144	0.130
-699.514	416.936	-0.032	-0.068
-698.499	194.338	0.030	0.046
-697.485	-166.909	-0.014	0.001
-696.470	-200.000	-0.077	-0.446
-695.456	392.868	0.133	0.276
-694.441	307.432	0.048	-0.088
-693.426	800.000	0.058	-0.251
-692.412	-200.000	0.007	-0.179
-691.397	-96.169	-0.316	-0.084
-690.383	-159.607	-0.471	0.026
-689.368	-63.678	0.087	0.036
-688.354	645.901	0.069	-0.174
-687.339	44.407	0.090	0.082
-686.324	800.000	-0.091	0.368
-685.310	609.040	0.115	-0.285
-684.295	-200.000	-0.082	-0.388
-683.281	517.051	0.057	0.133
-682.266	-200.000	-0.038	0.217
-681.251	-107.177	0.295	0.065
-680.237	-200.000	0.008	-0.097
-679.222	-200.000	0.082	-0.486
-678.208	-87.077	-0.188	0.057
-677.193	-200.000	0.027	0.169
-676.178	-200.000	-0.002	-0.013
-675.164	25.198	-0.302	-0.250
-674.149	368.705	0.094	-0.188
-673.135	153.313	-0.199	-0.271
-672.120	31.507	-0.101	-0.086
-671.105	800.000	0.067	-0.261
-670.091	-50.836	0.193	-0.090
-669.076	107.388	0.118	-0.140
-668.062	800.000	-0.080	-0.346
-667.047	77.567	0.093	0.098
-666.032	122.378	0.134	-0.166
-665.018	-69.788	-0.105	0.040
-664.003	-18.096	0.187	0.117
-662.989	150.628	-0.222	-0.300
-661.974	556.585	-0.046	-0.109
-660.959	-179.460	-0.141	0.003
-659.945	-59.462	0.198	-0.084
-658.930	34.250	-0.086	-0.074
-657.916	-51.888	-0.087	-0.040
-656.901	-200.000	0.088	0.459
-655.886	384.944	0.113	-0.231
-654.872	294.588	-0.052	-0.095
-653.857	-200.000	0.024	0.194
-652.843	-23.920	0.079	-0.047
-651.828	-200.000	-0.019	0.149
-650.814	132.508	0.161	0.206
-649.799	263.392	-0.090	-0.156
-648.784	-140.315	-0.201	0.021
-647.770	666.771	-0.110	-0.283
-646.755	657.641	-0.217	-0.555
-645.741	142.780	-0.219	-0.289
-644.726	-180.677	0.308	-0.006
-643.711	-46.324	0.231	0.113
-642.697	81.111	-0.054	0.058
-641.682	-200.000	0.014	0.273
-640.668	443.508	0.153	0.333
-639.653	-57.048	0.151	0.066
-638.638	-47.783	0.307	-0.148
-637.624	22.629	0.016	0.013
-636.609	-174.142	0.328	-0.010
-635.595	-128.254	-0.146	0.021
-634.580	22.721	0.250	-0.204
-633.565	54.669	0.170	0.163
-632.551	-200.000	-0.011	-0.228
-631.536	-200.000	0.017	-0.091
-630.522	69.878	-0.110	-0.113
-629.507	-51.451	0.163	-0.076
-628.492	-200.000	0.017	-0.346
-627.478	214.199	-0.136	0.214
-626.463	-200.000	-0.001	0.299
-625.449	10.602	0.150	0.113
-624.434	230.362	-0.182	0.296
-623.419	89.590	0.032	-0.035
-622.405	-200.000	-0.023	0.111
-621.390	-137.511	0.133	-0.015
-620.376	-176.771	0.187	0.005
-619.361	800.000	-0.059	-0.176
-618.346	-200.000	-0.023	-0.450
-617.332	31.427	-0.197	0.168
-616.317	71.924	0.045	0.047
-615.303	-200.000	-0.000	0.136
-614.288	-200.000	-0.020	0.285
-613.273	-29.802	0.290	0.164
-612.259	619.468	-0.080	-0.199
-611.244	-126.248	-0.418	-0.062
-610.230	800.000	0.083	0.245
-609.215	799.120	-0.007	0.019
-608.201	-135.273	-0.307	-0.037
-607.186	-23.470	0.067	0.040
-606.171	-49.578	-0.255	-0.120
-605.157	800.000	-0.028	-0.118
-604.142	-150.899	0.064	-0.005
-603.128	-200.000	0.037	-0.214
-602.113	60.563	-0.231	-0.227
-601.098	436.062	-0.087	-0.188
-600.084	91.573	-0.178	-0.198
-599.069	-28.800	0.081	-0.046
-598.055	-120.465	0.241	-0.041
-597.040	8.307	-0.218	-0.162
-596.025	257.063	0.059	-0.100
-595.011	-200.000	-0.011	-0.054
-593.996	246.672	-0.141	-0.236
-592.982	-200.000	0.014	0.144
-591.967	242.325	-0.055	0.092
-590.952	-112.899	0.131	-0.026
-589.938	-99.674	-0.534	-0.133
-588.923	-119.956	-0.319	0.054
-587.909	432.369	-0.093	-0.199
-586.894	-44.006	-0.300	-0.150
-585.879	-112.328	-0.106	-0.021
-584.865	-200.000	-0.010	0.353
-583.850	50.075	0.087	-0.081
-582.836	-119.555	-0.274	-0.047
-581.821	64.628	0.042	0.042
-580.806	-20.489	0.059	0.036
-579.792	211.911	0.071	0.111
-578.777	-47.752	0.042	-0.020
-577.763	125.502	0.055	-0.069
-576.748	584.275	-0.094	-0.229
-575.733	270.346	0.177	-0.309
-574.719	190.620	-0.227	-0.339
-573.704	106.617	-0.198	-0.232
-572.690	-200.000	-0.021	0.249
-571.675	-200.000	-0.002	0.013
-570.661	-192.629	0.077	-0.001
-569.646	-121.358	-0.202	0.033
-568.631	134.173	-0.026	-0.033
-567.617	800.000	-0.069	0.199
-566.602	167.817	-0.021	-0.030
-565.588	312.724	0.158	0.294
-564.573	-83.262	0.136	0.043
-563.558	67.079	0.107	0.108
-562.544	156.565	0.035	0.048
-561.529	34.103	-0.093	-0.080
-560.515	-200.000	-0.022	-0.252
-559.500	-104.324	0.198	-0.046
-558.485	281.036	0.104	0.185
-557.471	-200.000	-0.026	-0.154
-556.456	-1.161	-0.232	0.163
-555.442	-2.127	-0.097	0.067
-554.427	-57.181	-0.118	-0.052
-553.412	205.679	0.050	-0.078
-552.398	69.418	-0.149	-0.151
-551.383	-33.413	0.224	-0.123
-550.369	800.000	0.106	-0.324
-549.354	-200.000	0.021	0.326
-548.339	157.461	-0.169	-0.231
-547.325	286.684	0.125	-0.223
-546.310	-200.000	-0.022	0.119
-545.296	231.462	0.103	-0.167
-544.281	-82.748	0.478	-0.153
-543.266	37.881	-0.066	-0.058
-542.252	-91.119	0.243	-0.069
-541.237	800.000	0.019	0.054
-540.223	800.000	0.099	-0.327
-539.208	-14.884	0.103	-0.065
-538.193	-68.299	0.326	-0.125
-537.179	-200.000	-0.020	0.099
-536.164	-45.219	0.212	-0.104
-535.150	-88.651	-0.188	0.055
-534.135	-61.099	0.230	-0.096
-533.121	-92.589	-0.272	0.076
-532.106	26.311	0.173	0.143
-531.091	16.533	-0.145	-0.114
-530.077	126.561	0.062	-0.077
-529.062	213.362	0.170	0.266
-528.048	800.000	-0.114	0.368
-527.033	343.529	-0.099	-0.192
-526.018	78.189	-0.155	-0.164
-525.004	128.005	0.114	0.144
-523.989	-27.126	0.439	0.253
-522.975	-100.191	-0.251	-0.062
-521.960	32.882	0.049	-0.042
-520.945	800.000	-0.063	0.235
-519.931	692.329	0.061	-0.159
-518.916	-89.225	0.106	-0.031
-517.902	-152.108	-0.335	0.024
-516.887	-98.049	-0.127	0.032
-515.872	-200.000	-0.007	-0.101
-514.858	-41.671	-0.154	-0.078
-513.843	-78.156	0.448	-0.152
-512.829	-89.495	-0.389	0.113
-511.814	-89.064	-0.229	-0.067
-510.799	-14.038	-0.025	-0.016
-509.785	-200.000	-0.001	-0.029
-508.770	-113.062	0.098	0.019
-507.756	-24.728	-0.111	0.065
-506.741	800.000	-0.060	-0.166
-505.726	156.961	-0.301	-0.411
-504.712	-200.000	-0.099	0.442
-503.697	-18.238	0.211	0.131
-502.683	-12.268	0.295	-0.190
-501.668	-200.000	-0.039	0.216
-500.653	15.511	-0.210	0.163
-499.639	-51.432	0.179	-0.083
-498.624	246.149	-0.129	-0.215
-497.610	-38.891	0.097	0.051
-496.595	-200.000	-0.007	0.506
-495.581	800.000	0.110	0.314
-494.566	187.263	-0.088	0.130
-493.551	243.609	0.063	-0.105
-492.537	361.480	0.076	0.150
-491.522	-102.514	-0.311	0.074
-490.508	97.921	0.164	-0.187
-489.493	24.947	-0.125	-0.103
-488.478	-200.000	0.006	0.034
-487.464	435.857	-0.088	-0.189
-486.449	-43.856	-0.137	0.068
-485.435	-100.217	0.210	-0.052
-484.420	189.941	-0.147	0.218
-483.405	-87.247	-0.120	-0.036
-482.391	645.754	-0.141	-0.356
-481.376	-46.149	0.231	-0.112
-480.362	800.000	-0.058	0.165
-479.347	-200.000	-0.002	0.364
-478.332	-135.730	-0.059	-0.007
-477.318	504.740	0.069	0.157
-476.303	157.653	0.150	-0.206
-475.289	-88.617	-0.092	0.027
-474.274	123.309	-0.082	0.102
-473.259	-89.298	-0.243	-0.071
-472.245	-8.068	-0.096	-0.064
-471.230	39.685	-0.337	0.298
-470.216	71.237	-0.142	0.145
-469.201	-54.634	0.385	-0.172
-468.186	-14.573	0.241	0.153
-467.172	3.045	-0.172	-0.124
-466.157	50.474	-0.133	-0.124
-465.143	405.539	-0.063	-0.132
-464.128	-200.000	-0.018	-0.172
-463.113	-140.830	0.249	-0.025
-462.099	594.996	-0.102	-0.249
-461.084	443.261	-0.030	-0.065
-460.070	-200.000	-0.045	0.438
-459.055	39.920	-0.158	-0.140
-458.040	-16.259	-0.079	-0.050
-457.026	-78.584	-0.046	-0.016
-456.011	-200.000	-0.005	0.175
-454.997	-200.000	0.036	0.160
-453.982	-126.134	0.313	0.046
-452.968	212.777	0.156	0.242
-451.953	-0.171	0.131	-0.092
-450.938	-120.975	-0.218	0.036
-449.924	-200.000	-0.035	-0.216
-448.909	181.785	-0.104	-0.152
-447.895	110.399	0.115	0.137
-446.880	-61.120	0.075	-0.031
-445.865	800.000	0.149	0.409
-444.851	-200.000	-0.010	0.135
-443.836	-36.650	-0.149	-0.079
-442.822	-200.000	-0.015	-0.121
-441.807	156.925	-0.133	-0.182
-440.792	-139.723	0.121	0.013
-439.778	7.033	-0.213	0.156
-438.763	-200.000	0.032	-0.252
-437.749	217.205	0.068	0.106
-436.734	308.000	0.100	0.184
-435.719	373.486	0.071	-0.143
-434.705	-200.000	-0.042	0.368
-433.690	224.751	-0.226	0.360
-432.676	296.647	0.119	0.214
-431.661	-58.915	0.174	-0.074
-430.646	140.029	0.136	0.176
-429.632	239.395	-0.115	0.188
-428.617	800.000	0.077	-0.247
-427.603	-33.306	-0.205	0.112
-426.588	-81.748	-0.064	-0.021
-425.573	329.518	0.144	0.273
-424.559	663.511	0.098	0.249
-423.544	651.669	-0.046	0.116
-422.530	-98.725	-0.284	0.071
-421.515	-55.437	0.304	-0.134
-420.500	-115.518	-0.217	0.040
-419.486	92.871	-0.172	0.192
-418.471	-149.518	0.213	0.017
-417.457	355.918	0.358	0.702
-416.442	53.494	0.242	0.229
-415.428	-82.598	0.033	-0.010
-414.413	-169.765	-0.210	0.007
-413.398	39.825	-0.331	-0.292
-412.384	308.792	-0.058	-0.107
-411.369	-55.385	0.188	-0.083
-410.355	170.061	-0.152	0.214
-409.340	-72.247	0.168	-0.061
-408.325	-87.385	-0.168	0.050
-407.311	118.773	0.096	0.117
-406.296	553.924	0.030	-0.070
-405.282	299.272	0.149	-0.270
-404.267	-13.965	-0.420	-0.267
-403.252	-89.179	0.025	0.007
-402.238	-72.033	-0.122	0.045
-401.223	-19.256	0.158	-0.097
-400.209	258.435	-0.186	-0.316
-399.194	50.895	0.035	0.033
-398.179	80.189	0.195	-0.206
-397.165	94.036	0.102	-0.114
-396.150	-200.000	0.075	0.000
-395.136	-139.107	-0.185	0.020
-394.121	8.597	0.027	-0.020
-393.106	-13.493	-0.190	-0.121
-392.092	-133.993	-0.284	0.035
-391.077	-29.240	-0.030	0.017
-390.063	-49.427	-0.214	0.100
-389.048	-104.278	-0.181	-0.041
-388.033	284.587	0.081	0.143
-387.019	-48.495	0.116	-0.055
-386.004	182.100	-0.148	-0.214
-384.990	-92.613	-0.207	0.057
-383.975	-58.950	0.490	-0.208
-382.960	511.322	0.048	-0.111
-381.946	-200.000	-0.014	0.108
-380.931	-149.581	0.039	-0.003
-379.917	-200.000	0.022	-0.244
-378.902	-200.000	0.002	-0.084
-377.888	67.144	0.246	-0.247
-376.873	-150.279	0.353	0.027
-375.858	13.074	0.235	0.179
-374.844	110.605	0.164	-0.194
-373.829	227.451	0.010	-0.017
-372.815	-200.000	-0.028	0.124
-371.800	90.858	-0.130	-0.143
-370.785	193.118	-0.021	-0.031
-369.771	696.346	-0.141	0.364
-368.756	800.000	-0.080	0.257
-367.742	800.000	0.037	-0.122
-366.727	-200.000	-0.000	-0.180
-365.712	156.013	0.088	-0.119
-364.698	800.000	0.052	-0.205
-363.683	-200.000	0.059	0.283
-362.669	800.000	-0.109	-0.333
-361.654	246.018	0.111	-0.184
-360.639	684.306	0.092	0.236
-359.625	-134.437	-0.485	-0.058
-358.610	-14.449	0.074	0.047
-357.596	-60.633	0.088	0.037
-356.581	-200.000	0.004	-0.163
-355.566	-32.308	0.055	0.030
-354.552	194.746	-0.070	0.104
-353.537	-171.419	0.338	-0.011
-352.523	800.000	0.058	0.209
-351.508	25.907	-0.043	-0.035
-350.493	5.139	0.187	-0.135
-349.479	749.258	0.111	-0.293
-348.464	-200.000	-0.027	-0.125
-347.450	437.376	0.041	0.088
-346.435	800.000	0.118	0.342
-345.420	-111.732	0.151	0.030
-344.406	100.349	0.102	0.116
-343.391	139.646	-0.097	0.125
-342.377	305.628	0.089	0.162
-341.362	34.678	0.262	0.225
-340.348	83.359	-0.089	0.095
-339.333	-51.753	0.310	0.142
-338.318	-200.000	0.014	0.145
-337.304	800.000	0.077	0.234
-336.289	626.661	0.166	-0.411
-335.275	-73.643	0.139	0.050
-334.260	295.168	0.044	0.080
-333.245	99.946	-0.281	-0.320
-332.231	-139.232	-0.108	0.011
-331.216	-77.036	0.165	-0.056
-330.202	215.219	-0.128	0.199
-329.187	54.839	0.157	-0.149
-328.172	-121.191	-0.193	0.032
-327.158	-200.000	-0.081	-0.518
-326.143	-121.808	0.195	-0.032
-325.129	-36.248	-0.403	-0.213
-324.114	-27.163	0.333	0.191
-323.099	-44.308	-0.341	-0.168
-322.085	12.133	-0.236	0.179
-321.070	-35.107	-0.425	0.227
-320.056	-99.495	-0.245	0.060
-319.041	103.105	0.084	0.096
-318.026	-107.254	0.036	0.008
-317.012	17.760	-0.128	0.100
-315.997	325.940	0.083	-0.156
-314.983	639.751	-0.170	0.423
-313.968	-200.000	-0.090	0.391
-312.953	63.329	-0.174	0.171
-311.939	1.812	-0.131	-0.093
-310.924	702.709	0.034	0.088
-309.910	-163.895	0.211	-0.010
-308.895	-200.000	-0.057	-0.253
-307.880	288.866	0.088	-0.156
-306.866	-200.000	0.060	0.309
-305.851	-79.390	0.350	0.116
-304.837	-101.649	-0.162	0.039
-303.822	-200.000	0.002	-0.060
-302.807	43.712	-0.086	0.077
-301.793	-200.000	0.015	-0.097
-300.778	-200.000	-0.249	-0.000
-299.764	203.314	-0.093	0.141
-298.749	-200.000	0.051	0.346
-297.735	800.000	0.040	-0.146
-296.720	-45.190	0.225	-0.110
-295.705	75.392	0.023	-0.024
-294.691	800.000	0.109	-0.352
-293.676	-71.357	-0.180	-0.066
-292.662	-137.367	-0.324	-0.036
-291.647	83.429	0.194	0.207
-290.632	315.585	-0.119	0.221
-289.618	80.409	-0.305	0.322
-288.603	-39.852	0.219	0.112
-287.589	-200.000	-0.025	-0.260
-286.574	215.445	0.124	0.192
-285.559	800.000	0.052	-0.178
-284.545	-95.569	0.258	-0.068
-283.530	197.071	-0.117	0.174
-282.516	55.200	-0.256	0.243
-281.501	-38.934	-0.201	-0.104
-280.486	-42.976	0.026	-0.013
-279.472	-200.000	-0.009	0.258
-278.457	-42.824	0.236	-0.118
-277.443	-106.335	-0.209	-0.046
-276.428	-63.981	-0.181	-0.073
-275.413	-200.000	-0.011	0.082
-274.399	800.000	-0.080	0.226
-273.384	-67.436	-0.126	0.048
-272.370	783.557	0.079	0.213
-271.355	66.204	0.124	-0.123
-270.340	73.989	-0.217	-0.223
-269.326	345.935	0.091	0.175
-268.311	-200.000	0.005	0.121
-267.297	305.336	0.122	-0.222
-266.282	-126.613	0.283	-0.041
-265.267	-61.484	-0.062	0.025
-264.253	-0.262	0.291	0.202
-263.238	-65.149	-0.132	-0.052
-262.224	-22.399	-0.273	0.162
-261.209	267.814	-0.075	0.128
-260.195	-51.473	0.315	0.144
-259.180	-19.056	0.270	0.165
-258.165	-200.000	0.054	0.290
-257.151	-30.857	-0.289	-0.160
-256.136	-85.845	-0.211	0.064
-255.122	-200.000	0.001	0.247
-254.107	35.586	0.155	0.134
-253.092	-104.154	-0.279	0.063
-252.078	-4.935	0.113	-0.076
-251.063	-19.247	0.110	0.067
-250.049	800.000	0.087	0.369
-249.034	60.595	-0.064	0.062
-248.019	800.000	0.065	-0.217
-247.005	125.987	-0.144	-0.178
-245.990	-70.108	-0.221	-0.082
-244.976	-80.185	0.278	-0.091
-243.961	-29.505	0.028	-0.015
-242.946	-2.096	-0.056	0.039
-241.932	91.582	0.076	-0.084
-240.917	-30.055	-0.166	0.092
-239.903	120.399	0.159	-0.193
-238.888	-200.000	-0.086	-0.470
-237.873	-61.944	-0.353	0.144
-236.859	-165.842	0.209	-0.009
-235.844	233.323	-0.192	0.308
-234.830	203.942	-0.089	0.134
-233.815	697.200	-0.141	-0.362
-232.800	-200.000	0.005	-0.113
-231.786	222.076	-0.141	-0.222
-230.771	-200.000	-0.019	-0.084
-229.757	-45.414	0.293	-0.142
-228.742	155.073	0.047	0.064
-227.727	-115.368	0.441	0.081
-226.713	408.102	0.096	0.199
-225.698	800.000	-0.107	0.362
-224.684	162.033	0.083	-0.114
-223.669	206.893	0.031	0.048
-222.655	-72.095	0.133	-0.048
-221.640	-200.000	-0.025	-0.115
-220.625	-200.000	-0.059	0.400
-219.611	-14.602	-0.120	0.076
-218.596	-3.398	-0.245	-0.167
-217.582	-39.053	-0.173	-0.089
-216.567	800.000	-0.059	0.187
-215.552	-44.819	0.164	0.080
-214.538	138.498	0.127	0.163
-213.523	-200.000	0.012	-0.142
-212.509	-146.214	-0.259	-0.022
-211.494	97.100	0.060	0.067
-210.479	345.796	0.053	-0.102
-209.465	104.687	-0.279	-0.321
-208.450	-124.580	0.124	0.019
-207.436	7.841	-0.177	0.129
-206.421	-151.348	0.395	0.029
-205.406	-200.000	0.055	0.239
-204.392	-9.032	-0.045	-0.029
-203.377	654.740	-0.011	0.028
-202.363	-79.292	0.134	0.044
-201.348	382.164	0.079	-0.159
-200.333	-192.052	0.249	0.002
-199.319	-123.091	-0.399	-0.063
-198.304	223.298	0.199	-0.313
-197.290	55.613	-0.118	0.112
-196.275	800.000	0.055	-0.168
-195.260	-200.000	0.001	0.019
-194.246	296.785	-0.067	-0.121
-193.231	355.427	0.080	0.155
-192.217	-19.648	-0.206	-0.124
-191.202	-200.000	0.038	-0.166
-190.187	181.925	-0.111	0.160
-189.173	-200.000	0.011	0.410
-188.158	800.000	-0.011	0.040
-187.144	-137.234	0.260	-0.029
-186.129	222.910	0.097	0.152
-185.114	-200.000	0.017	0.231
-184.100	49.895	-0.198	0.182
-183.085	-77.489	0.252	-0.085
-182.071	800.000	-0.085	0.239
-181.056	338.590	-0.072	-0.136
-180.042	205.027	0.019	-0.028
-179.027	-56.045	-0.083	-0.036
-178.012	-23.859	-0.311	-0.182
-176.998	-174.358	0.244	0.007
-175.983	-21.455	0.403	0.240
-174.969	-200.000	0.313	0.001
-173.954	-148.822	-0.460	-0.036
-172.939	-110.004	0.219	0.045
-171.925	119.195	0.257	-0.310
-170.910	790.657	0.025	-0.066
-169.896	-126.906	-0.197	-0.028
-168.881	-95.110	-0.214	0.056
-167.866	517.280	0.130	-0.296
-166.852	-90.524	-0.275	-0.078
-165.837	41.700	0.109	0.096
-164.823	22.302	-0.203	0.162
-163.808	-22.087	0.351	-0.208
-162.793	-23.253	0.065	0.038
-161.779	337.843	0.083	-0.157
-160.764	-200.000	-0.015	-0.213
-159.750	800.000	0.165	-0.503
-158.735	-69.796	0.211	-0.079
-157.720	69.966	0.048	0.048
-156.706	-200.000	-0.049	-0.230
-155.691	-169.331	0.567	-0.020
-154.677	648.468	0.067	-0.167
-153.662	-121.053	-0.138	0.023
-152.647	-126.401	0.266	-0.039
-151.633	800.000	0.046	-0.175
-150.618	-200.000	0.023	0.202
-149.604	128.498	0.069	-0.086
-148.589	-161.809	-0.233	-0.012
-147.574	-200.000	-0.003	0.137
-146.560	277.641	-0.032	0.056
-145.545	-200.000	0.022	-0.188
-144.531	201.164	0.091	0.136
-143.516	114.536	-0.204	-0.242
-142.502	389.277	0.022	-0.044
-141.487	-108.933	0.290	-0.060
-140.472	536.783	0.025	0.057
-139.458	288.260	-0.008	-0.014
-138.443	674.657	0.069	0.174
-137.429	78.060	-0.109	0.113
-136.414	-95.731	-0.170	-0.044
-135.399	88.365	0.451	0.488
-134.385	800.000	0.069	-0.233
-133.370	156.525	-0.197	0.265
-132.356	-92.982	0.129	0.035
-131.341	-49.411	0.108	-0.050
-130.326	800.000	0.077	-0.312
-129.312	800.000	0.050	0.155
-128.297	3.092	0.050	0.035
-127.283	-200.000	-0.025	-0.236
-126.268	20.555	0.274	-0.216
-125.253	800.000	0.097	0.276
-124.239	-155.238	-0.397	-0.025
-123.224	-123.661	-0.077	0.012
-122.210	108.990	0.067	-0.078
-121.195	-115.738	-0.280	0.051
-120.180	307.012	-0.063	0.114
-119.166	-14.519	-0.165	-0.103
-118.151	390.068	-0.146	0.295
-117.137	216.776	-0.139	0.216
-116.122	-44.422	-0.157	-0.076
-115.107	-149.253	0.424	-0.033
-114.093	-21.429	-0.127	-0.075
-113.078	800.000	-0.009	0.038
-112.064	-200.000	-0.036	0.302
-111.049	800.000	0.065	-0.200
-110.034	205.821	0.224	0.338
-109.020	-137.248	0.025	0.003
-108.005	699.715	0.090	-0.230
-106.991	-119.477	0.183	0.031
-105.976	-60.820	0.354	0.146
-104.962	752.834	-0.039	-0.103
-103.947	365.307	0.082	-0.161
-102.932	346.119	0.062	-0.119
-101.918	-200.000	-0.028	0.223
-100.903	24.660	-0.106	-0.085
-99.889	64.005	0.104	0.102
-98.874	215.073	0.353	0.545
-97.859	800.000	-0.112	0.356
-96.845	-200.000	-0.019	-0.220
-95.830	-34.585	0.359	-0.191
-94.816	-200.000	0.069	0.364
-93.801	252.482	-0.163	0.270
-92.786	-53.875	0.073	-0.032
-91.772	-75.727	0.152	0.053
-90.757	-57.345	0.199	-0.085
-89.743	-168.892	0.202	-0.007
-88.728	-200.000	0.005	0.226
-87.713	31.591	0.148	0.124
-86.699	78.814	0.283	0.294
-85.684	667.154	-0.106	0.267
-84.670	355.750	-0.072	0.139
-83.655	800.000	0.110	-0.310
-82.640	182.879	-0.011	-0.016
-81.626	-65.407	-0.161	0.063
-80.611	-9.263	0.231	0.150
-79.597	257.402	-0.138	-0.231
-78.582	318.746	0.228	0.419
-77.567	-122.812	0.222	-0.035
-76.553	800.000	0.079	-0.309
-75.538	800.000	-0.048	-0.196
-74.524	-116.993	0.320	-0.057
-73.509	-87.632	0.410	-0.120
-72.494	800.000	-0.020	0.065
-71.480	800.000	-0.052	-0.174
-70.465	-67.400	-0.166	-0.063
-69.451	316.907	0.050	0.091
-68.436	-31.361	-0.042	0.023
-67.422	-60.085	0.235	-0.097
-66.407	-136.643	0.164	-0.018
-65.392	-141.603	0.028	-0.003
-64.378	-188.145	0.201	0.002
-63.363	-113.589	-0.151	-0.029
-62.349	20.111	-0.117	0.092
-61.334	83.060	-1.299	-1.373
-60.319	-118.072	0.750	0.130
-59.305	617.885	-0.559	-1.364
-58.290	103.669	1.212	1.383
-57.276	582.954	0.625	1.489
-56.261	-200.000	135.967	651.022
-55.246	340.150	1661.788	3148.488
-54.232	134.998	2803.588	3536.725
-53.217	79.792	2311.009	2410.370
-52.203	28.764	1911.067	1571.596
-51.188	23.059	1706.050	1359.222
-50.173	21.219	1668.946	1315.761
-49.159	42.553	1742.908	1539.800
-48.144	39.434	1750.817	1522.656
-47.130	22.666	1702.588	1353.238
-46.115	20.305	1686.996	1322.814
-45.100	20.164	1682.122	1317.867
-44.086	20.149	1679.243	1315.449
-43.071	20.106	1677.299	1313.544
-42.057	20.078	1675.329	1311.743
-41.042	20.188	1672.336	1310.175
-40.027	20.132	1670.928	1308.598
-39.013	20.021	1669.122	1306.296
-37.998	20.019	1668.030	1305.371
-36.984	20.119	1666.334	1304.749
-35.969	20.228	1664.893	1304.389
-34.954	20.319	1663.164	1303.661
-33.940	20.145	1661.063	1300.658
-32.925	20.143	1659.667	1299.502
-31.911	20.200	1657.954	1298.537
-30.896	20.215	1656.163	1297.193
-29.881	20.192	1654.931	1296.004
-28.867	20.213	1653.253	1294.798
-27.852	20.247	1652.289	1294.239
-26.838	20.251	1650.294	1292.659
-25.823	20.370	1649.103	1292.557
-24.809	20.297	1648.132	1291.208
-23.794	20.270	1646.647	1289.788
-22.779	20.275	1645.194	1288.633
-21.765	20.270	1643.185	1286.976
-20.750	20.216	1641.666	1285.332
-19.736	20.343	1640.454	1285.274
-18.721	20.367	1639.330	1284.522
-17.706	20.271	1638.211	1282.881
-16.692	20.263	1636.592	1281.504
-15.677	20.267	1634.856	1280.122
-14.663	20.315	1633.863	1279.646
-13.648	20.395	1631.814	1278.583
-12.633	20.271	1630.663	1276.719
-11.619	20.240	1629.325	1275.395
-10.604	20.305	1627.306	1274.238
-9.590	20.238	1626.608	1273.152
-8.575	20.361	1624.200	1272.118
-7.560	20.391	1623.917	1272.063
-6.546	20.410	1623.029	1271.453
-5.531	20.293	1621.821	1269.601
-4.517	20.285	1620.260	1268.274
-3.502	20.297	1619.593	1267.787
-2.487	20.358	1617.367	1266.440
-1.473	19.784	1605.531	1252.961
-0.458	16.780	1585.183	1215.510
0.556	12.106	1586.827	1182.871
1.571	9.843	1611.047	1184.231
2.586	9.532	1623.008	1190.619
3.600	9.001	1567.947	1146.329
4.615	5.199	1463.555	1044.518
5.629	1.447	1408.633	981.046
6.644	0.705	1402.755	972.090
7.659	0.618	1401.353	970.473
8.673	0.561	1400.348	969.325
9.688	0.607	1398.143	968.010
10.702	0.483	1394.169	964.382
11.717	2.339	1396.791	977.982
12.731	8.122	1404.660	1020.506
13.746	14.417	1414.614	1068.111
14.761	17.056	1418.462	1087.862
15.775	16.586	1416.693	1083.397
16.790	15.739	1414.120	1075.919
17.804	14.929	1411.551	1068.697
18.819	14.595	1410.362	1065.569
19.834	14.308	1409.298	1062.839
20.848	14.120	1407.908	1060.499
21.863	13.887	1406.373	1057.762
22.877	13.682	1405.147	1055.440
23.892	13.577	1404.443	1054.150
24.907	13.616	1403.389	1053.519
25.921	13.618	1402.691	1052.913
26.936	13.659	1401.649	1052.296
27.950	13.722	1400.622	1051.831
28.965	13.728	1399.654	1051.047
29.980	13.739	1398.499	1050.161
30.994	13.739	1398.334	1049.940
32.009	13.813	1396.973	1049.298
33.023	13.898	1395.526	1048.655
34.038	13.837	1394.410	1047.336
35.053	13.741	1393.506	1045.961
36.067	13.809	1392.252	1045.355
37.082	13.857	1391.120	1044.715
38.096	13.894	1389.979	1043.994
39.111	13.821	1389.832	1043.333
40.126	13.782	1388.591	1042.066
41.140	13.623	1387.796	1040.381
42.155	13.604	1388.161	1040.441
43.169	13.555	1387.781	1039.758
44.184	13.615	1387.034	1039.485
45.199	13.674	1386.637	1039.461
46.213	13.750	1385.948	1039.329
47.228	13.725	1384.774	1038.203
48.242	13.780	1383.647	1037.606
49.257	13.651	1382.484	1035.841
50.271	13.761	1380.840	1035.199
51.286	13.648	1379.965	1033.747
52.301	13.765	1377.756	1032.732
53.315	13.726	1377.155	1031.949
54.330	13.694	1375.802	1030.644
55.344	13.734	1374.914	1030.136
56.359	13.619	1373.600	1028.344
57.374	13.635	1372.926	1027.848
58.388	13.582	1372.634	1027.214
59.403	13.473	1372.405	1026.275
60.417	13.631	1371.017	1026.121
61.432	13.593	1369.668	1024.786
62.447	13.597	1369.289	1024.439
63.461	13.628	1367.596	1023.270
64.476	13.508	1366.927	1021.942
65.490	13.524	1366.130	1021.355
66.505	13.655	1363.923	1020.417
67.520	13.564	1362.531	1018.731
68.534	13.610	1361.689	1018.292
69.549	13.483	1360.865	1016.804
70.563	13.485	1359.856	1015.970
71.578	13.607	1358.356	1015.509
72.593	13.599	1357.503	1014.735
73.607	13.489	1356.976	1013.578
74.622	13.588	1355.819	1013.230
75.636	13.552	1355.283	1012.519
76.651	13.462	1354.362	1011.193
77.666	13.493	1353.762	1010.845
78.680	13.532	1353.426	1010.737
79.695	13.526	1352.112	1009.634
80.709	13.562	1351.619	1009.394
81.724	13.569	1350.578	1008.569
82.739	13.587	1349.881	1008.070
83.753	13.575	1349.305	1007.479
84.768	13.653	1347.697	1006.664
85.782	13.800	1346.204	1006.350
86.797	13.713	1344.976	1004.814
87.812	13.707	1343.539	1003.614
88.826	13.686	1342.645	1002.734
89.841	13.689	1341.690	1001.951
90.855	13.802	1340.323	1001.518
91.870	13.776	1339.552	1000.697
92.884	13.787	1338.669	1000.016
93.899	13.848	1337.836	999.674
94.914	13.769	1336.876	998.392
95.928	13.886	1335.699	998.131
96.943	13.732	1335.428	996.916
97.957	13.917	1333.997	996.868
98.972	13.910	1332.892	995.911
99.987	13.773	1331.846	994.218
101.001	13.754	1331.251	993.574
102.016	13.778	1330.254	992.886
103.030	13.782	1329.577	992.315
104.045	13.765	1328.813	991.559
105.060	13.793	1327.250	990.470
106.074	13.723	1326.014	989.043
107.089	13.635	1324.357	987.194
108.103	13.665	1323.374	986.553
109.118	13.748	1321.983	985.921
110.133	13.684	1320.525	984.371
111.147	13.616	1319.563	983.160
112.162	13.756	1317.737	982.545
113.176	13.733	1317.094	981.841
114.191	13.785	1316.242	981.427
115.206	13.686	1315.294	980.049
116.220	13.699	1313.911	979.009
117.235	13.714	1312.978	978.313
118.249	13.758	1311.430	977.333
119.264	13.666	1310.675	976.142
120.279	13.763	1309.447	975.711
121.293	13.718	1308.637	974.755
122.308	13.744	1307.532	974.003
123.322	13.724	1306.239	972.832
124.337	13.722	1304.920	971.754
125.352	13.672	1304.244	970.873
126.366	13.614	1302.761	969.344
127.381	13.627	1301.750	968.579
128.395	13.668	1300.700	967.952
129.410	13.630	1299.641	966.858
130.424	13.709	1298.977	966.739
131.439	13.624	1297.985	965.418
132.454	13.750	1296.875	965.241
133.468	13.708	1295.968	964.238
134.483	13.719	1295.304	963.721
135.497	13.683	1294.041	962.488
136.512	13.745	1292.242	961.423
137.527	13.716	1291.361	960.513
138.541	13.741	1289.953	959.529
139.556	13.766	1288.881	958.789
140.570	13.793	1287.615	957.921
141.585	13.869	1286.204	957.223
142.600	13.863	1285.302	956.433
143.614	13.822	1284.550	955.555
144.629	13.968	1282.970	955.134
145.643	13.884	1282.058	953.886
146.658	13.887	1280.613	952.743
147.673	13.860	1279.212	951.462
148.687	13.821	1278.755	950.817
149.702	13.773	1277.269	949.350
150.716	13.855	1275.800	948.641
151.731	13.915	1274.295	947.782
152.746	13.824	1273.520	946.606
153.760	13.849	1272.457	945.876
154.775	13.927	1270.833	945.024
155.789	13.956	1270.144	944.593
156.804	13.982	1268.921	943.750
157.819	13.983	1267.638	942.719
158.833	14.067	1266.931	942.584
159.848	14.062	1265.533	941.431
160.862	14.031	1265.186	940.915
161.877	13.978	1263.975	939.632
162.892	13.967	1262.737	938.569
163.906	13.922	1262.323	937.919
164.921	14.035	1261.028	937.515
165.935	14.034	1260.029	936.686
166.950	14.152	1259.221	936.663
167.964	14.069	1258.877	935.856
168.979	14.017	1258.098	934.905
169.994	14.095	1257.197	934.591
171.008	14.063	1256.263	933.632
172.023	14.101	1255.088	932.889
173.037	14.095	1254.611	932.421
174.052	14.156	1253.967	932.198
175.067	14.137	1252.647	931.029
176.081	14.102	1251.846	930.154
177.096	14.091	1250.617	929.098
178.110	14.145	1250.040	928.892
179.125	14.197	1248.117	927.670
180.140	14.167	1247.086	926.656
181.154	14.245	1245.771	926.029
182.169	14.289	1244.607	925.325
183.183	14.254	1243.572	924.283
184.198	14.266	1242.261	923.289
185.213	14.191	1241.590	922.292
186.227	14.240	1240.316	921.540
187.242	14.241	1239.121	920.572
188.256	14.356	1238.413	920.603
189.271	14.346	1236.983	919.404
190.286	14.351	1235.758	918.439
191.300	14.314	1234.985	917.579
192.315	14.253	1234.278	916.636
193.329	14.165	1234.518	916.246
194.344	14.285	1233.268	915.900
195.359	14.400	1232.565	915.931
196.373	14.393	1231.621	915.107
197.388	14.419	1231.942	915.406
198.402	14.357	1231.622	914.751
199.417	14.531	1230.398	914.714
200.432	14.483	1229.588	913.765
201.446	14.514	1228.851	913.308
202.461	14.465	1227.873	912.234
203.475	14.618	1226.612	912.052
204.490	14.601	1225.388	910.970
205.504	14.519	1224.348	909.664
206.519	14.682	1222.666	909.223
207.534	14.658	1221.597	908.217
208.548	14.586	1221.220	907.468
209.563	14.522	1220.201	906.283
210.577	14.545	1219.307	905.661
211.592	14.628	1218.467	905.406
212.607	14.764	1217.288	905.188
213.621	14.792	1216.567	904.723
214.636	14.674	1215.761	903.406
215.650	14.747	1214.508	902.787
216.665	14.805	1213.361	902.171
217.680	14.830	1212.805	901.813
218.694	14.757	1211.995	900.734
219.709	14.864	1211.111	900.576
220.723	14.865	1210.354	899.940
221.738	14.783	1209.645	898.893
222.753	14.867	1209.217	898.944
223.767	14.834	1208.568	898.204
224.782	14.926	1207.683	897.963
225.796	14.934	1207.087	897.482
226.811	14.898	1206.388	896.689
227.826	14.865	1205.579	895.833
228.840	14.947	1204.761	895.586
229.855	14.926	1204.072	894.881
230.869	14.951	1203.118	894.225
231.884	14.837	1202.622	893.172
232.899	14.885	1201.839	892.765
233.913	14.927	1201.034	892.313
234.928	14.900	1200.149	891.431
235.942	14.888	1199.244	890.615
236.957	14.892	1198.595	890.077
237.972	14.862	1198.268	889.594
238.986	15.012	1197.467	889.720
240.001	14.959	1196.493	888.639
241.015	14.850	1195.982	887.599
242.030	15.043	1194.482	887.429
243.045	15.042	1194.080	887.048
244.059	15.153	1192.584	886.445
245.074	15.101	1192.407	885.962
246.088	15.134	1191.749	885.568
247.103	15.168	1190.526	884.763
248.117	15.175	1189.871	884.231
249.132	15.165	1189.517	883.837
250.147	15.202	1188.510	883.206
251.161	15.310	1187.416	882.886
252.176	15.279	1187.109	882.415
253.190	15.383	1186.460	882.403
254.205	15.195	1186.115	881.081
255.220	15.324	1185.242	881.029
256.234	15.325	1184.402	880.335
257.249	15.280	1183.906	879.651
258.263	15.477	1183.186	880.069
259.278	15.396	1182.681	879.194
260.293	15.431	1181.738	878.600
261.307	15.521	1181.542	878.843
262.322	15.522	1180.456	877.964
263.336	15.526	1180.057	877.611
264.351	15.564	1179.157	877.063
265.366	15.566	1178.614	876.592
266.380	15.499	1178.116	875.793
267.395	15.553	1176.870	875.071
268.409	15.505	1175.974	874.075
269.424	15.634	1175.446	874.281
270.439	15.656	1174.980	873.972
271.453	15.559	1174.195	872.802
272.468	15.552	1173.022	871.816
273.482	15.564	1172.558	871.457
274.497	15.652	1172.091	871.488
275.512	15.658	1171.552	871.043
276.526	15.667	1170.181	869.996
277.541	15.726	1169.588	869.782
278.555	15.670	1169.300	869.201
279.570	15.716	1168.524	868.786
280.585	15.814	1167.362	868.349
281.599	15.738	1166.236	867.042
282.614	15.767	1165.156	866.313
283.628	15.700	1164.570	865.458
284.643	15.740	1163.623	864.879
285.657	15.920	1162.394	864.814
286.672	15.857	1161.540	863.779
287.687	15.890	1160.594	863.169
288.701	15.931	1159.773	862.692
289.716	15.856	1159.411	861.965
290.730	15.920	1158.571	861.591
291.745	15.872	1158.130	860.938
292.760	15.952	1157.162	860.556
293.774	15.939	1156.268	859.747
294.789	15.862	1156.707	859.604
295.803	15.986	1155.457	859.232
296.818	15.967	1154.734	858.523
297.833	16.007	1153.868	858.004
298.847	16.038	1153.128	857.534
299.862	15.999	1152.207	856.575
300.876	16.079	1151.276	856.217
301.891	16.093	1150.900	855.931
302.906	16.186	1149.716	855.444
303.920	16.202	1149.488	855.284
304.935	16.162	1148.753	854.458
305.949	16.178	1148.252	854.091
306.964	16.271	1147.512	853.934
307.979	16.135	1146.572	852.471
308.993	16.194	1145.760	852.089
310.008	16.189	1144.854	851.316
311.022	16.192	1144.610	851.072
312.037	16.213	1143.586	850.342
313.052	16.217	1142.166	849.231
314.066	16.303	1141.949	849.429
315.081	16.294	1140.747	848.414
316.095	16.274	1140.191	847.827
317.110	16.149	1139.544	846.639
318.125	16.314	1138.310	846.476
319.139	16.239	1137.838	845.677
320.154	16.160	1137.287	844.797
321.168	16.346	1136.768	845.264
322.183	16.351	1136.436	844.968
323.197	16.332	1135.575	844.158
324.212	16.361	1134.817	843.667
325.227	16.271	1134.513	842.916
326.241	16.407	1133.615	842.851
327.256	16.352	1132.883	841.958
328.270	16.398	1132.000	841.458
329.285	16.285	1130.856	839.969
330.300	16.340	1129.892	839.457
331.314	16.305	1128.729	838.342
332.329	16.428	1127.741	838.142
333.343	16.473	1127.026	837.764
334.358	16.474	1125.935	836.884
335.373	16.436	1125.353	836.188
336.387	16.433	1124.792	835.682
337.402	16.535	1123.737	835.325
338.416	16.527	1123.390	834.953
339.431	16.669	1122.466	834.897
340.446	16.672	1121.968	834.467
341.460	16.618	1121.305	833.635
342.475	16.848	1120.366	833.992
343.489	16.666	1119.604	832.458
344.504	16.716	1118.212	831.594
345.519	16.761	1117.585	831.276
346.533	16.676	1116.861	830.245
347.548	16.789	1116.079	830.147
348.562	16.801	1115.234	829.501
349.577	16.775	1114.739	828.932
350.592	16.767	1113.953	828.236
351.606	16.769	1112.696	827.238
352.621	16.775	1112.635	827.148
353.635	16.804	1111.640	826.478
354.650	16.844	1110.799	825.975
355.665	16.834	1110.151	825.371
356.679	16.896	1109.789	825.331
357.694	16.932	1109.051	824.886
358.708	16.974	1108.787	824.818
359.723	16.987	1107.732	824.024
360.738	16.806	1107.434	822.848
361.752	16.877	1106.757	822.617
362.767	17.006	1105.857	822.502
363.781	16.960	1105.400	821.866
364.796	17.031	1104.571	821.520
365.810	17.176	1103.944	821.684
366.825	17.072	1103.537	820.807
367.840	17.103	1102.866	820.383
368.854	17.158	1102.182	820.068
369.869	17.191	1101.613	819.729
370.883	17.201	1100.264	818.702
371.898	17.268	1099.592	818.451
372.913	17.025	1099.482	817.130
373.927	17.253	1098.616	817.508
374.942	17.246	1097.909	816.879
375.956	17.220	1097.817	816.614
376.971	17.284	1096.778	816.073
377.986	17.246	1096.439	815.567
379.000	17.250	1095.917	815.128
380.015	17.314	1095.375	814.959
381.029	17.308	1094.694	814.351
382.044	17.333	1093.840	813.764
383.059	17.347	1093.094	813.201
384.073	17.373	1092.325	812.682
385.088	17.470	1091.514	812.472
386.102	17.324	1090.329	810.821
387.117	17.409	1089.214	810.322
388.132	17.534	1088.268	810.142
389.146	17.356	1087.604	808.733
390.161	17.347	1087.431	808.488
391.175	17.476	1086.085	808.028
392.190	17.450	1085.635	807.496
393.205	17.591	1084.662	807.374
394.219	17.433	1083.941	806.013
395.234	17.541	1083.034	805.782
396.248	17.498	1082.307	804.963
397.263	17.418	1081.562	803.960
398.278	17.617	1080.448	804.000
399.292	17.572	1079.898	803.311
400.307	17.460	1079.181	802.177
401.321	17.553	1078.453	802.002
402.336	17.463	1077.916	801.107
403.350	17.604	1077.050	801.055
404.365	17.565	1076.392	800.311
405.380	17.584	1075.488	799.659
406.394	17.575	1074.961	799.156
407.409	17.664	1074.415	799.096
408.423	17.707	1073.697	798.692
409.438	17.724	1072.587	797.877
410.453	17.711	1071.974	797.289
411.467	17.713	1071.580	796.932
412.482	17.724	1070.893	796.405
413.496	17.721	1070.229	795.827
414.511	17.786	1069.226	795.314
415.526	17.879	1069.090	795.573
416.540	17.974	1068.729	795.678
417.555	17.978	1067.926	795.029
418.569	17.861	1067.702	794.246
419.584	17.902	1067.038	793.872
420.599	18.023	1066.235	793.768
421.613	109.364	1333.597	1491.294
422.628	101.112	1372.485	1491.368
