DTS Sentinel unit serial number:	SN413079Multiplexer serial number:	ORYXHardware model number:	OX4-SRSoftware version number:	ORYX F/W v4.00 Oryx Data Collector v3.7.2.0data status	okinstallation	princeton_trtdifferential loss correction	single-endedforward channel	channel 2reverse channel	N/Adate	2019/09/13time	13:27:35forward acquisition time	60.00reverse acquisition time	0.00gamma	496.2192k internal	0.2315k external	0.2315temperature offset calibration	1.0205default loss term (dB/km)	0.3790temperature slope calibration	1.0000multiplexer offset coefficient	1.0000multiplexer slope coefficient	1.0000fibre end	0.00T internal ref (°C)	35.02T ext. ref 1 (°C)	4.57T ext. ref 2 (°C)	31.01length (m)	temperature (°C)	Stokes	anti-Stokes-747.200	-126.372	-0.388	-0.059
-746.185	-153.573	-0.279	-0.020
-745.171	-70.733	0.060	0.023
-744.156	163.121	0.055	0.078
-743.142	84.333	-0.062	0.068
-742.127	164.020	0.081	-0.115
-741.112	42.092	0.050	0.046
-740.098	-148.436	-0.260	0.022
-739.083	-137.842	-0.268	0.030
-738.069	-18.815	0.154	0.097
-737.054	-169.059	0.179	-0.007
-736.039	-58.933	-0.187	-0.082
-735.025	800.000	0.048	0.210
-734.010	679.811	0.030	-0.080
-732.996	180.601	-0.082	0.122
-731.981	-144.697	-0.346	-0.032
-730.966	-196.165	0.243	0.002
-729.952	-200.000	-0.008	-0.271
-728.937	-200.000	0.053	-0.263
-727.923	800.000	-0.089	-0.298
-726.908	-114.790	-0.119	0.023
-725.894	292.863	-0.060	-0.112
-724.879	-72.653	0.122	0.046
-723.864	-21.119	-0.290	0.179
-722.850	188.499	-0.229	-0.346
-721.835	800.000	-0.054	-0.155
-720.821	-15.258	0.225	0.146
-719.806	-200.000	-0.083	-0.421
-718.791	-34.179	-0.131	-0.073
-717.777	-89.849	-0.192	0.057
-716.762	232.705	-0.101	-0.168
-715.748	367.844	0.078	-0.159
-714.733	-61.246	-0.136	-0.058
-713.718	534.836	-0.124	-0.298
-712.704	-200.000	0.037	0.405
-711.689	648.240	-0.118	0.306
-710.675	25.852	-0.152	0.128
-709.660	138.084	-0.154	-0.204
-708.645	225.550	0.092	-0.151
-707.631	-159.200	0.030	-0.002
-706.616	-200.000	0.001	0.191
-705.602	104.018	-0.169	-0.201
-704.587	633.836	0.063	-0.162
-703.572	-200.000	-0.040	0.267
-702.558	251.234	0.175	0.300
-701.543	-200.000	0.022	-0.240
-700.529	-107.219	0.209	-0.047
-699.514	-124.773	-0.316	-0.049
-698.499	136.613	-0.217	-0.287
-697.485	-144.325	0.043	-0.004
-696.470	-200.000	-0.053	-0.315
-695.456	273.002	-0.071	-0.126
-694.441	-68.629	0.176	-0.069
-693.426	-9.662	0.226	0.152
-692.412	443.989	0.031	-0.069
-691.397	-200.000	-0.015	-0.174
-690.383	3.519	-0.085	0.063
-689.368	664.268	0.096	-0.252
-688.354	-42.910	-0.174	0.090
-687.339	-16.232	-0.292	0.187
-686.324	800.000	-0.043	-0.128
-685.310	200.909	-0.157	0.245
-684.295	-200.000	-0.030	-0.443
-683.281	-16.297	0.272	-0.175
-682.266	307.422	-0.147	0.277
-681.251	-182.296	0.201	-0.004
-680.237	70.930	0.098	-0.102
-679.222	159.172	-0.091	-0.129
-678.208	800.000	0.078	-0.226
-677.193	-129.043	0.575	0.081
-676.178	-109.934	0.225	0.048
-675.164	-200.000	-0.017	0.190
-674.149	800.000	-0.051	-0.151
-673.135	137.771	0.144	-0.191
-672.120	24.920	0.257	-0.215
-671.105	39.415	0.006	-0.006
-670.091	-27.242	0.114	0.067
-669.076	-152.236	0.224	0.016
-668.062	-47.784	-0.384	-0.188
-667.047	85.213	-0.201	-0.223
-666.032	-131.614	0.085	-0.011
-665.018	-200.000	-0.008	0.260
-664.003	-157.746	0.382	0.023
-662.989	-192.640	0.359	-0.003
-661.974	463.507	0.049	0.110
-660.959	800.000	-0.050	0.156
-659.945	-120.322	0.178	-0.031
-658.930	-168.140	0.459	0.018
-657.916	48.638	0.019	0.018
-656.901	-36.099	0.387	0.211
-655.886	-57.608	-0.180	0.080
-654.872	-200.000	0.026	-0.136
-653.857	-136.945	0.117	0.014
-652.843	-164.461	0.247	-0.011
-651.828	15.400	0.096	0.076
-650.814	-119.393	-0.377	0.066
-649.799	46.096	0.102	0.096
-648.784	800.000	-0.026	0.106
-647.770	-200.000	0.007	-0.214
-646.755	77.060	-0.241	0.259
-645.741	94.283	-0.228	-0.262
-644.726	-124.071	0.078	0.012
-643.711	-60.168	0.318	0.137
-642.697	-51.059	-0.195	0.092
-641.682	59.896	0.136	0.136
-640.668	-108.107	-0.160	0.035
-639.653	-97.522	0.106	0.028
-638.638	58.426	-0.210	-0.208
-637.624	-165.223	-0.225	-0.010
-636.609	800.000	-0.129	0.490
-635.595	31.067	-0.227	0.196
-634.580	-137.772	0.188	-0.021
-633.565	800.000	-0.055	-0.237
-632.551	-65.625	0.101	-0.041
-631.536	307.115	-0.054	-0.101
-630.522	-134.773	0.212	0.026
-629.507	424.592	0.046	-0.101
-628.492	800.000	0.034	-0.137
-627.478	62.105	0.122	-0.123
-626.463	-137.825	0.257	0.029
-625.449	115.089	-0.080	-0.099
-624.434	20.344	0.206	0.168
-623.419	-200.000	0.040	-0.311
-622.405	-48.196	-0.295	-0.144
-621.390	562.589	-0.038	-0.093
-620.376	-200.000	-0.056	0.268
-619.361	800.000	0.053	0.205
-618.346	140.955	0.102	0.137
-617.332	-49.290	0.194	0.093
-616.317	-200.000	-0.025	0.132
-615.303	800.000	0.051	-0.162
-614.288	-41.823	0.262	0.135
-613.273	-188.014	0.371	0.005
-612.259	-200.000	0.006	0.032
-611.244	462.528	0.108	-0.242
-610.230	49.538	0.192	-0.182
-609.215	-71.754	0.390	0.147
-608.201	-200.000	0.022	-0.102
-607.186	-200.000	-0.001	-0.047
-606.171	-155.006	-0.254	-0.017
-605.157	392.703	-0.070	0.147
-604.142	173.854	-0.109	-0.158
-603.128	-119.537	-0.414	-0.072
-602.113	-32.411	0.017	0.010
-601.098	-129.703	0.303	0.042
-600.084	59.231	-0.057	-0.057
-599.069	146.598	0.188	-0.254
-598.055	-200.000	-0.045	-0.231
-597.040	115.747	-0.249	-0.307
-596.025	-196.836	-0.146	-0.001
-595.011	-124.685	-0.250	0.039
-593.996	226.684	-0.078	-0.128
-592.982	-120.522	0.210	-0.036
-591.967	-21.147	0.269	-0.166
-590.952	-30.868	-0.176	-0.100
-589.938	-200.000	-0.018	-0.115
-588.923	25.979	0.291	0.245
-587.909	-200.000	0.024	0.211
-586.894	-80.864	-0.235	0.079
-585.879	5.645	-0.076	0.057
-584.865	-136.935	-0.282	0.033
-583.850	800.000	-0.042	-0.155
-582.836	800.000	-0.091	0.273
-581.821	-84.610	-0.411	0.130
-580.806	19.828	0.116	-0.094
-579.792	30.021	-0.133	0.114
-578.777	169.553	0.105	-0.151
-577.763	129.629	-0.117	0.150
-576.748	-15.197	0.298	0.192
-575.733	-109.629	-0.234	0.050
-574.719	-68.787	0.254	-0.099
-573.704	167.161	0.219	-0.313
-572.690	149.507	-0.145	-0.198
-571.675	-41.524	-0.215	0.111
-570.661	3.011	-0.185	0.136
-569.646	-45.107	-0.196	0.098
-568.631	505.573	-0.008	-0.019
-567.617	800.000	-0.060	0.218
-566.602	106.549	-0.123	-0.146
-565.588	-200.000	-0.006	0.102
-564.573	146.126	0.040	-0.054
-563.558	-78.004	0.159	-0.055
-562.544	-117.739	-0.134	0.024
-561.529	-22.590	0.184	-0.112
-560.515	800.000	0.028	0.101
-559.500	-122.524	-0.245	-0.040
-558.485	33.360	0.099	0.087
-557.471	-200.000	0.084	-0.541
-556.456	800.000	0.050	-0.153
-555.442	-200.000	-0.011	0.323
-554.427	-104.031	-0.039	0.009
-553.412	279.666	-0.016	-0.029
-552.398	-4.490	-0.381	0.265
-551.383	-200.000	-0.058	-0.306
-550.369	800.000	0.056	0.190
-549.354	-172.868	-0.358	0.011
-548.339	-59.024	-0.186	0.081
-547.325	800.000	0.079	0.278
-546.310	6.223	-0.309	0.231
-545.296	-61.361	0.143	-0.061
-544.281	-200.000	0.095	-0.426
-543.266	133.941	-0.115	0.150
-542.252	-62.452	0.056	0.023
-541.237	35.896	-0.077	0.068
-540.223	-147.238	0.451	-0.039
-539.208	-200.000	-0.024	-0.257
-538.193	153.077	-0.044	-0.061
-537.179	-113.708	-0.170	-0.033
-536.164	-114.526	-0.126	-0.024
-535.150	-200.000	0.009	-0.120
-534.135	-113.900	-0.145	-0.028
-533.121	17.980	-0.039	0.031
-532.106	-200.000	0.016	0.191
-531.091	-124.048	-0.156	-0.025
-530.077	-39.344	0.314	0.166
-529.062	-79.707	0.310	-0.105
-528.048	-28.619	0.098	-0.056
-527.033	226.619	-0.059	0.096
-526.018	8.846	0.296	-0.225
-525.004	800.000	0.057	-0.169
-523.989	707.854	0.042	-0.113
-522.975	-90.899	-0.333	-0.096
-521.960	800.000	0.055	0.229
-520.945	-152.741	-0.215	-0.015
-519.931	489.333	0.171	-0.392
-518.916	800.000	0.067	0.245
-517.902	-97.797	0.176	-0.046
-516.887	-176.661	-0.153	0.004
-515.872	-88.540	0.231	0.069
-514.858	240.929	0.074	-0.125
-513.843	800.000	0.075	0.277
-512.829	-200.000	-0.007	0.198
-511.814	213.894	-0.185	-0.295
-510.799	477.484	-0.059	-0.133
-509.785	39.660	-0.155	0.140
-508.770	-200.000	-0.063	-0.331
-507.756	-114.627	-0.289	-0.056
-506.741	-1.758	-0.258	-0.182
-505.726	800.000	-0.069	-0.235
-504.712	-92.858	-0.479	-0.134
-503.697	-65.351	0.064	-0.026
-502.683	-93.469	-0.104	-0.029
-501.668	-200.000	-0.004	-0.051
-500.653	-164.393	-0.403	-0.018
-499.639	800.000	-0.089	0.300
-498.624	-46.474	-0.248	0.122
-497.610	696.398	0.025	-0.065
-496.595	800.000	0.062	-0.221
-495.581	28.440	0.099	-0.084
-494.566	-121.831	0.151	0.025
-493.551	-200.000	0.000	0.069
-492.537	-200.000	-0.017	-0.155
-491.522	53.796	0.111	-0.107
-490.508	-171.799	-0.431	-0.014
-489.493	192.000	-0.130	0.197
-488.478	800.000	0.053	0.191
-487.464	-200.000	-0.018	-0.121
-486.449	155.417	0.098	0.135
-485.435	66.853	-0.097	-0.099
-484.420	478.861	-0.113	0.256
-483.405	-200.000	-0.045	0.337
-482.391	620.739	-0.030	0.076
-481.376	43.064	0.232	0.212
-480.362	-200.000	0.033	0.470
-479.347	141.486	0.187	-0.248
-478.332	-200.000	-0.021	0.157
-477.318	-200.000	-0.016	-0.270
-476.303	48.764	0.257	0.242
-475.289	-136.750	-0.233	0.027
-474.274	800.000	-0.033	0.114
-473.259	-200.000	-0.002	0.092
-472.245	-137.296	-0.051	0.006
-471.230	-11.391	0.383	0.253
-470.216	-116.779	0.142	-0.026
-469.201	800.000	0.105	0.300
-468.186	800.000	0.037	0.155
-467.172	-45.509	-0.144	-0.072
-466.157	-149.821	0.260	0.020
-465.143	800.000	0.030	-0.121
-464.128	-83.618	-0.492	0.157
-463.113	-200.000	0.017	-0.135
-462.099	-63.439	0.072	0.030
-461.084	-80.963	-0.118	0.039
-460.070	9.230	0.220	-0.166
-459.055	130.792	-0.126	-0.162
-458.040	-200.000	-0.019	0.238
-457.026	800.000	0.059	0.246
-456.011	249.295	0.208	0.353
-454.997	157.739	0.096	-0.133
-453.982	-110.370	-0.104	0.022
-452.968	-98.191	0.186	-0.048
-451.953	-200.000	0.002	0.241
-450.938	-128.329	-0.378	-0.054
-449.924	276.671	0.147	-0.262
-448.909	-200.000	-0.093	0.431
-447.895	800.000	-0.053	0.212
-446.880	430.085	-0.136	0.295
-445.865	-33.821	-0.022	-0.012
-444.851	-137.770	0.228	-0.026
-443.836	87.286	0.004	-0.005
-442.822	-200.000	0.011	-0.361
-441.807	13.997	0.220	0.171
-440.792	57.606	0.070	-0.069
-439.778	613.914	-0.136	-0.342
-438.763	-101.341	0.185	-0.045
-437.749	-200.000	0.020	-0.149
-436.734	-128.413	-0.204	-0.029
-435.719	800.000	-0.119	-0.363
-434.705	4.832	0.410	0.302
-433.690	-29.175	-0.079	0.045
-432.676	349.453	0.028	0.056
-431.661	-28.023	-0.138	-0.080
-430.646	-118.254	-0.189	0.034
-429.632	-121.236	0.172	0.029
-428.617	60.771	-0.098	-0.098
-427.603	-200.000	0.061	0.379
-426.588	32.669	0.376	0.326
-425.573	-57.953	0.333	0.146
-424.559	-29.692	0.158	-0.090
-423.544	-134.992	-0.132	0.016
-422.530	79.612	0.172	0.185
-421.515	362.931	-0.038	-0.076
-420.500	96.538	0.020	-0.023
-419.486	4.001	-0.131	0.096
-418.471	800.000	0.042	0.116
-417.457	370.656	0.092	-0.187
-416.442	-172.540	-0.378	-0.012
-415.428	365.239	0.086	-0.173
-414.413	-200.000	-0.075	-0.606
-413.398	108.061	-0.541	0.645
-412.384	509.879	0.057	0.132
-411.369	460.630	-0.140	0.311
-410.355	800.000	0.091	0.279
-409.340	28.124	0.221	0.186
-408.325	-200.000	0.005	-0.089
-407.311	589.288	-0.173	-0.426
-406.296	-24.207	-0.201	-0.120
-405.282	-200.000	-0.004	-0.251
-404.267	-200.000	0.041	-0.251
-403.252	139.716	-0.066	-0.087
-402.238	-21.998	-0.051	-0.031
-401.223	52.204	-0.168	0.161
-400.209	-200.000	-0.024	0.259
-399.194	80.989	0.167	-0.180
-398.179	235.469	-0.261	-0.432
-397.165	-200.000	0.026	-0.121
-396.150	432.995	0.066	0.144
-395.136	-85.637	0.370	0.115
-394.121	-69.713	-0.074	-0.028
-393.106	-72.907	0.200	-0.074
-392.092	-32.290	-0.353	0.197
-391.077	-153.815	0.255	-0.017
-390.063	-200.000	0.067	-0.367
-389.048	-200.000	0.032	0.255
-388.033	-10.845	-0.215	0.142
-387.019	10.081	-0.172	-0.131
-386.004	-82.021	-0.158	-0.052
-384.990	155.387	-0.164	-0.226
-383.975	-8.819	0.071	0.048
-382.960	113.031	0.047	-0.057
-381.946	-96.768	-0.060	0.016
-380.931	-56.415	-0.184	-0.082
-379.917	261.422	0.129	0.224
-378.902	-28.792	0.211	0.121
-377.888	-85.016	-0.088	0.028
-376.873	800.000	-0.067	0.205
-375.858	-69.181	0.306	-0.118
-374.844	-90.994	0.541	-0.155
-373.829	-22.453	-0.256	0.155
-372.815	-140.016	0.256	0.027
-371.800	-34.012	0.127	-0.070
-370.785	38.396	0.187	0.167
-369.771	202.399	-0.075	0.115
-368.756	800.000	0.052	-0.218
-367.742	54.332	0.096	-0.093
-366.727	-101.118	-0.261	0.064
-365.712	-23.618	-0.300	-0.179
-364.698	-11.955	-0.165	0.108
-363.683	34.008	-0.297	-0.258
-362.669	371.433	-0.198	-0.401
-361.654	-79.987	0.297	-0.099
-360.639	800.000	0.042	-0.169
-359.625	-80.415	-0.050	-0.017
-358.610	-153.207	0.114	-0.008
-357.596	140.740	-0.100	0.132
-356.581	-51.037	-0.107	0.050
-355.566	-123.577	-0.214	-0.034
-354.552	800.000	-0.077	0.328
-353.537	99.807	0.111	0.129
-352.523	20.813	-0.177	-0.143
-351.508	-86.207	0.299	0.092
-350.493	695.575	0.044	-0.116
-349.479	-115.298	0.322	-0.061
-348.464	800.000	0.028	-0.098
-347.450	-132.427	-0.084	-0.011
-346.435	-78.805	0.073	-0.025
-345.420	-62.088	0.109	-0.045
-344.406	-200.000	0.021	0.169
-343.391	-200.000	-0.007	0.297
-342.377	230.770	0.152	0.248
-341.362	800.000	-0.014	0.057
-340.348	-30.167	-0.184	0.104
-339.333	-200.000	-0.006	-0.085
-338.318	-124.772	0.226	0.035
-337.304	-79.562	-0.086	-0.029
-336.289	-200.000	-0.077	0.423
-335.275	342.175	-0.174	0.339
-334.260	-7.567	0.274	-0.185
-333.245	800.000	-0.029	-0.090
-332.231	96.840	-0.106	-0.121
-331.216	-29.783	0.183	-0.104
-330.202	335.738	0.102	-0.197
-329.187	800.000	-0.103	0.304
-328.172	494.428	-0.123	-0.282
-327.158	-200.000	-0.003	0.105
-326.143	22.465	0.108	-0.088
-325.129	-15.593	0.074	-0.047
-324.114	237.748	-0.168	-0.278
-323.099	221.369	-0.164	-0.263
-322.085	800.000	-0.045	0.135
-321.070	46.281	0.245	0.226
-320.056	-171.081	0.231	-0.008
-319.041	309.707	-0.122	-0.227
-318.026	171.949	0.129	-0.185
-317.012	110.910	-0.199	-0.239
-315.997	-16.864	-0.222	-0.140
-314.983	-200.000	0.184	0.000
-313.968	168.805	0.033	0.047
-312.953	-71.752	-0.080	-0.030
-311.939	-200.000	-0.065	-0.299
-310.924	301.443	-0.088	0.162
-309.910	11.836	0.316	0.242
-308.895	-153.659	0.340	0.023
-307.880	-112.523	-0.262	-0.052
-306.866	89.700	-0.182	0.202
-305.851	-7.467	0.102	-0.069
-304.837	-120.376	-0.267	-0.045
-303.822	-8.154	-0.110	-0.074
-302.807	97.819	-0.090	-0.103
-301.793	-59.332	0.172	0.074
-300.778	74.723	0.185	-0.194
-299.764	-102.092	0.292	0.070
-298.749	800.000	-0.056	-0.193
-297.735	512.666	0.065	0.151
-296.720	-34.354	0.116	-0.064
-295.705	-51.890	0.102	-0.047
-294.691	-200.000	-0.048	-0.289
-293.676	-200.000	-0.016	-0.548
-292.662	-178.695	-0.185	0.004
-291.647	-133.569	-0.273	0.034
-290.632	403.746	-0.117	0.245
-289.618	389.438	-0.039	-0.080
-288.603	153.325	0.116	0.158
-287.589	800.000	-0.044	0.190
-286.574	800.000	0.119	-0.391
-285.559	571.849	-0.083	0.201
-284.545	-35.998	-0.394	0.212
-283.530	-200.000	0.009	0.068
-282.516	-200.000	-0.013	0.233
-281.501	-67.654	0.030	-0.012
-280.486	16.947	-0.279	0.220
-279.472	-75.167	0.359	0.128
-278.457	117.249	-0.200	-0.245
-277.443	-169.205	-0.244	-0.009
-276.428	-75.484	0.164	0.058
-275.413	397.528	-0.178	-0.371
-274.399	297.227	0.152	-0.277
-273.384	-53.379	-0.167	-0.076
-272.370	18.662	-0.282	0.225
-271.355	-200.000	0.007	0.037
-270.340	62.146	0.114	0.113
-269.326	800.000	0.095	-0.267
-268.311	-150.683	0.367	-0.028
-267.297	113.141	-0.091	0.110
-266.282	23.645	0.225	0.184
-265.267	13.528	0.209	0.162
-264.253	800.000	-0.048	0.194
-263.238	-79.483	0.145	-0.049
-262.224	-33.663	-0.037	-0.020
-261.209	-50.194	-0.145	0.068
-260.195	-77.911	0.467	-0.160
-259.180	-22.015	-0.323	0.195
-258.165	-42.996	0.192	-0.097
-257.151	12.335	-0.149	-0.114
-256.136	800.000	0.070	-0.275
-255.122	-117.275	-0.366	0.066
-254.107	-150.293	0.392	0.030
-253.092	-200.000	-0.066	-0.353
-252.078	-200.000	-0.008	0.408
-251.063	-200.000	0.040	0.277
-250.049	-35.089	-0.127	0.069
-249.034	-55.670	0.485	-0.216
-248.019	252.745	-0.038	0.065
-247.005	73.280	0.273	-0.284
-245.990	-34.056	0.042	-0.023
-244.976	-130.605	0.329	-0.044
-243.961	-178.334	-0.367	0.009
-242.946	-200.000	0.106	0.606
-241.932	-200.000	0.047	-0.418
-240.917	-77.300	0.134	-0.046
-239.903	118.351	-0.161	0.197
-238.888	53.187	-0.346	0.330
-237.873	235.727	-0.203	-0.334
-236.859	-200.000	0.113	0.000
-235.844	-39.521	0.267	-0.139
-234.830	-196.892	-0.102	0.001
-233.815	-108.249	-0.341	0.073
-232.800	225.360	0.054	0.087
-231.786	219.291	-0.142	0.226
-230.771	-200.000	0.013	-0.233
-229.757	152.174	-0.087	-0.118
-228.742	574.655	0.112	-0.271
-227.727	800.000	-0.037	0.158
-226.713	-128.204	0.214	0.030
-225.698	-118.595	0.190	0.033
-224.684	-200.000	0.007	0.030
-223.669	-200.000	-0.270	0.001
-222.655	800.000	-0.017	0.057
-221.640	-94.850	-0.407	-0.110
-220.625	800.000	-0.039	-0.134
-219.611	-200.000	0.002	-0.149
-218.596	117.320	-0.061	-0.075
-217.582	800.000	0.038	0.141
-216.567	-144.120	0.229	0.021
-215.552	-133.343	-0.232	-0.029
-214.538	115.417	0.185	-0.224
-213.523	-200.000	0.052	-0.271
-212.509	24.320	0.261	0.214
-211.494	15.524	-0.105	0.082
-210.479	743.099	0.073	-0.195
-209.465	800.000	0.176	0.482
-208.450	-200.000	-0.085	-0.399
-207.436	-200.000	0.036	0.239
-206.421	-167.568	0.280	-0.011
-205.406	-44.064	-0.201	0.100
-204.392	-200.000	0.125	-0.644
-203.377	-94.474	0.376	-0.102
-202.363	-200.000	-0.032	-0.247
-201.348	-109.607	0.204	-0.043
-200.333	-67.817	0.144	-0.056
-199.319	-20.805	-0.200	0.121
-198.304	226.167	-0.196	0.316
-197.290	276.710	0.077	-0.136
-196.275	35.219	-0.202	-0.176
-195.260	124.106	0.022	0.028
-194.246	47.390	-0.133	0.123
-193.231	-200.000	0.057	0.280
-192.217	19.882	-0.213	-0.171
-191.202	-33.428	-0.257	0.141
-190.187	28.265	0.108	0.090
-189.173	84.651	0.068	-0.073
-188.158	269.348	0.052	-0.091
-187.144	17.615	-0.115	-0.091
-186.129	-67.111	-0.041	0.016
-185.114	266.758	0.211	-0.365
-184.100	256.009	0.150	-0.255
-183.085	-76.197	-0.145	0.051
-182.071	-145.385	0.255	0.023
-181.056	-162.099	-0.148	0.007
-180.042	-146.120	-0.374	0.033
-179.027	-163.005	0.230	-0.011
-178.012	-28.062	0.082	-0.047
-176.998	-68.296	-0.501	0.193
-175.983	426.895	-0.033	-0.070
-174.969	-28.815	0.165	-0.094
-173.954	235.921	0.089	0.145
-172.939	-200.000	0.054	-0.348
-171.925	-200.000	0.028	-0.372
-170.910	124.051	0.052	0.065
-169.896	800.000	0.116	0.351
-168.881	-144.730	0.266	-0.024
-167.866	75.378	0.088	0.092
-166.852	63.559	-0.028	-0.028
-165.837	143.516	0.363	0.479
-164.823	60.991	-0.159	-0.156
-163.808	39.959	-0.131	0.116
-162.793	34.681	0.179	0.155
-161.779	-69.380	0.090	-0.034
-160.764	84.870	-0.170	0.185
-159.750	605.571	-0.047	-0.115
-158.735	800.000	-0.092	0.305
-157.720	411.888	0.042	0.089
-156.706	-62.508	-0.140	-0.058
-155.691	133.866	0.284	0.365
-154.677	193.421	0.087	0.130
-153.662	0.077	0.149	0.105
-152.647	-125.075	0.337	0.051
-151.633	-19.982	0.404	0.247
-150.618	-9.440	0.379	0.250
-149.604	267.807	-0.159	-0.276
-148.589	86.705	-0.173	0.189
-147.574	-88.198	-0.192	0.057
-146.560	35.988	-0.128	-0.111
-145.545	-83.352	0.273	0.087
-144.531	-35.110	-0.265	0.143
-143.516	800.000	-0.070	-0.209
-142.502	206.998	-0.158	0.244
-141.487	800.000	-0.035	-0.111
-140.472	-8.681	-0.209	0.139
-139.458	800.000	0.051	0.214
-138.443	-112.943	-0.071	0.014
-137.429	-170.998	0.134	0.005
-136.414	-200.000	0.013	0.059
-135.399	-13.277	0.174	-0.112
-134.385	-1.278	0.174	-0.122
-133.370	800.000	0.007	-0.028
-132.356	-139.708	-0.288	-0.030
-131.341	800.000	-0.034	-0.093
-130.326	-77.749	-0.362	-0.124
-129.312	48.515	0.306	0.284
-128.297	-200.000	-0.004	0.488
-127.283	638.409	0.004	-0.009
-126.268	81.216	0.197	0.211
-125.253	-131.965	-0.358	-0.046
-124.239	77.320	0.240	-0.253
-123.224	366.036	0.157	0.314
-122.210	435.962	-0.072	0.156
-121.195	-200.000	-0.021	-0.099
-120.180	15.272	-0.250	-0.194
-119.166	800.000	-0.021	-0.079
-118.151	800.000	0.051	0.214
-117.137	-200.000	0.011	0.411
-116.122	-200.000	0.002	-0.018
-115.107	22.931	0.184	0.149
-114.093	545.845	0.048	-0.112
-113.078	29.361	-0.020	-0.017
-112.064	122.059	-0.156	0.192
-111.049	5.542	-0.036	-0.026
-110.034	61.037	0.119	-0.116
-109.020	318.185	-0.035	-0.066
-108.005	-46.984	-0.166	-0.080
-106.991	-67.267	0.116	-0.045
-105.976	9.423	0.099	0.074
-104.962	136.307	0.224	0.289
-103.947	-13.485	0.079	-0.051
-102.932	-75.642	0.218	-0.076
-101.918	-69.851	-0.125	-0.047
-100.903	-54.674	0.134	-0.060
-99.889	111.364	0.320	-0.382
-98.874	663.655	0.039	-0.099
-97.859	-68.014	0.264	0.102
-96.845	-61.829	-0.030	-0.012
-95.830	350.758	0.115	0.225
-94.816	-96.720	-0.423	-0.110
-93.801	211.864	0.223	0.347
-92.786	-142.460	-0.227	0.022
-91.772	-76.808	0.324	0.112
-90.757	121.892	-0.168	-0.208
-89.743	-124.796	-0.329	-0.050
-88.728	122.535	0.203	0.250
-87.713	800.000	-0.037	0.113
-86.699	-86.251	0.246	-0.075
-85.684	-94.846	0.358	0.096
-84.670	151.215	0.287	0.386
-83.655	-200.000	-0.044	0.317
-82.640	-40.953	-0.228	-0.117
-81.626	-155.629	0.158	-0.010
-80.611	266.335	-0.103	0.178
-79.597	-110.063	0.251	0.052
-78.582	24.127	-0.281	-0.229
-77.567	-54.348	0.194	-0.087
-76.553	-103.890	0.096	-0.022
-75.538	800.000	-0.027	-0.114
-74.524	800.000	-0.049	0.158
-73.509	-200.000	0.013	0.085
-72.494	150.869	0.197	0.264
-71.480	-200.000	0.029	0.237
-70.465	-200.000	0.073	-0.396
-69.451	290.118	0.069	0.125
-68.436	800.000	0.048	-0.161
-67.422	800.000	0.065	0.266
-66.407	-13.588	-0.226	0.145
-65.392	800.000	-0.070	0.293
-64.378	89.354	-0.044	0.049
-63.363	338.148	-0.012	0.023
-62.349	-83.306	0.214	0.068
-61.334	58.317	-0.918	-0.888
-60.319	800.000	0.080	0.219
-59.305	-200.000	0.047	-0.987
-58.290	800.000	0.295	0.854
-57.276	365.630	0.637	1.265
-56.261	-200.000	94.409	557.464
-55.246	641.890	1381.985	3472.913
-54.232	186.271	2613.708	3835.873
-53.217	117.277	2321.883	2815.379
-52.203	44.950	1933.503	1755.984
-51.188	38.386	1718.348	1510.067
-50.173	35.524	1672.636	1448.287
-49.159	51.777	1720.929	1614.816
-48.144	55.343	1738.594	1658.595
-47.130	38.056	1695.020	1486.816
-46.115	35.145	1679.417	1451.060
-45.100	34.941	1675.270	1445.877
-44.086	34.852	1672.531	1442.782
-43.071	34.894	1669.723	1440.622
-42.057	34.835	1667.504	1438.206
-41.042	34.897	1665.184	1436.611
-40.027	34.833	1663.581	1434.696
-39.013	34.887	1661.453	1433.203
-37.998	34.827	1659.925	1431.383
-36.984	34.872	1658.833	1430.720
-35.969	34.977	1657.142	1429.988
-34.954	35.065	1655.636	1429.288
-33.940	35.058	1653.282	1427.150
-32.925	35.004	1651.773	1425.389
-31.911	34.991	1650.302	1423.963
-30.896	35.044	1648.138	1422.439
-29.881	34.949	1646.619	1420.365
-28.867	35.105	1644.791	1419.884
-27.852	34.964	1643.956	1418.066
-26.838	34.987	1642.003	1416.496
-25.823	35.051	1640.335	1415.473
-24.809	35.071	1639.317	1414.681
-23.794	35.040	1637.392	1412.738
-22.779	35.069	1636.341	1411.992
-21.765	35.054	1634.440	1410.186
-20.750	35.043	1632.784	1408.614
-19.736	35.052	1630.866	1406.974
-18.721	35.046	1630.185	1406.288
-17.706	35.033	1628.244	1404.461
-16.692	35.061	1626.413	1403.032
-15.677	35.008	1625.184	1401.528
-14.663	35.023	1623.942	1400.509
-13.648	35.117	1622.481	1399.879
-12.633	34.955	1620.989	1397.352
-11.619	35.034	1619.266	1396.387
-10.604	35.081	1617.359	1395.033
-9.590	35.162	1615.830	1394.248
-8.575	35.031	1615.207	1392.705
-7.560	35.046	1613.410	1391.204
-6.546	35.003	1612.763	1390.282
-5.531	35.075	1611.654	1389.794
-4.517	35.020	1610.936	1388.722
-3.502	35.038	1609.304	1387.385
-2.487	35.181	1607.674	1386.966
-1.473	34.990	1596.516	1375.907
-0.458	31.972	1576.856	1337.438
0.556	30.270	1575.852	1299.797
1.571	27.472	1599.727	1299.440
2.586	26.181	1612.342	1300.283
3.600	22.871	1558.119	1233.368
4.615	13.915	1446.637	1086.676
5.629	6.045	1380.452	987.555
6.644	4.605	1371.019	971.725
7.659	4.562	1369.720	970.449
8.673	4.524	1368.911	969.557
9.688	4.579	1367.403	968.742
10.702	4.637	1365.094	967.384
11.717	8.273	1372.468	995.227
12.731	16.979	1388.404	1061.392
13.746	22.481	1396.734	1102.196
14.761	22.673	1395.821	1102.584
15.775	21.933	1393.331	1095.898
16.790	20.825	1390.848	1086.937
17.804	19.944	1389.014	1079.915
18.819	19.761	1387.276	1077.330
19.834	19.555	1386.684	1075.487
20.848	19.495	1385.478	1074.088
21.863	19.179	1384.405	1071.194
22.877	19.103	1383.190	1069.685
23.892	19.012	1382.195	1068.259
24.907	19.002	1381.357	1067.451
25.921	18.989	1380.843	1066.880
26.936	19.086	1379.602	1066.428
27.950	19.204	1378.316	1066.069
28.965	19.171	1377.885	1065.438
29.980	19.331	1376.653	1065.383
30.994	19.491	1374.743	1064.795
32.009	19.468	1374.219	1064.154
33.023	19.484	1372.803	1063.059
34.038	19.369	1371.302	1061.097
35.053	19.256	1370.295	1059.531
36.067	19.240	1369.381	1058.629
37.082	19.215	1368.311	1057.554
38.096	19.341	1367.451	1057.574
39.111	19.312	1366.975	1056.929
40.126	19.290	1365.422	1055.504
41.140	18.993	1364.378	1052.786
42.155	18.929	1364.003	1052.009
43.169	18.785	1364.024	1051.053
44.184	18.737	1363.970	1050.626
45.199	18.868	1363.067	1050.635
46.213	18.970	1362.446	1050.686
47.228	19.155	1361.673	1051.129
48.242	19.201	1360.807	1050.648
49.257	19.128	1359.274	1048.928
50.271	19.088	1358.091	1047.676
51.286	19.161	1356.277	1046.631
52.301	19.192	1354.871	1045.642
53.315	18.991	1354.022	1043.670
54.330	18.829	1353.188	1041.951
55.344	18.946	1351.615	1041.361
56.359	18.893	1350.909	1040.400
57.374	18.879	1349.875	1039.430
58.388	18.857	1348.981	1038.517
59.403	18.718	1348.541	1037.245
60.417	18.691	1347.993	1036.567
61.432	18.622	1347.188	1035.445
62.447	18.568	1345.726	1033.903
63.461	18.497	1344.702	1032.593
64.476	18.492	1343.823	1031.797
65.490	18.589	1342.315	1031.136
66.505	18.626	1340.386	1029.785
67.520	18.452	1339.678	1028.103
68.534	18.590	1338.357	1027.826
69.549	18.680	1337.342	1027.495
70.563	18.462	1336.818	1025.698
71.578	18.393	1335.392	1024.097
72.593	18.300	1334.412	1022.700
73.607	18.351	1333.621	1022.309
74.622	18.431	1332.674	1021.967
75.636	18.566	1331.844	1022.045
76.651	18.462	1331.455	1021.037
77.666	18.452	1331.228	1020.717
78.680	18.527	1330.887	1020.808
79.695	18.564	1329.811	1020.116
80.709	18.637	1329.385	1020.133
81.724	18.824	1328.749	1020.663
82.739	18.879	1327.869	1020.222
83.753	19.013	1327.095	1020.336
84.768	19.164	1326.432	1020.627
85.782	19.321	1325.239	1020.551
86.797	19.402	1324.255	1020.183
87.812	19.265	1322.892	1018.232
88.826	19.042	1322.277	1016.350
89.841	19.237	1321.058	1016.473
90.855	19.248	1320.107	1015.720
91.870	19.324	1318.967	1015.198
92.884	19.393	1318.476	1015.137
93.899	19.279	1317.975	1013.989
94.914	19.423	1316.929	1013.945
95.928	19.374	1315.940	1012.802
96.943	19.351	1314.809	1011.708
97.957	19.280	1314.318	1010.823
98.972	19.297	1313.422	1010.145
99.987	19.327	1312.362	1009.416
101.001	19.301	1311.424	1008.454
102.016	19.331	1310.232	1007.625
103.030	19.319	1309.623	1006.994
104.045	19.355	1308.451	1006.219
105.060	19.171	1307.172	1004.068
106.074	18.926	1305.389	1001.184
107.089	18.631	1304.239	998.500
108.103	18.654	1302.426	997.155
109.118	18.587	1301.861	996.245
110.133	18.701	1299.900	995.317
111.147	18.620	1298.980	994.054
112.162	18.591	1298.346	993.314
113.176	18.710	1296.924	992.826
114.191	18.775	1295.931	992.357
115.206	18.818	1294.471	991.395
116.220	18.757	1293.301	990.062
117.235	18.755	1292.237	989.149
118.249	18.706	1291.363	988.110
119.264	18.762	1289.760	987.117
120.279	18.608	1288.997	985.564
121.293	18.483	1287.841	983.875
122.308	18.446	1286.684	982.693
123.322	18.472	1285.554	981.886
124.337	18.401	1284.682	980.728
125.352	18.371	1283.766	979.775
126.366	18.384	1282.345	978.677
127.381	18.459	1281.178	978.124
128.395	18.511	1280.245	977.623
129.410	18.575	1279.337	977.207
130.424	18.606	1278.640	976.767
131.439	18.703	1277.947	976.701
132.454	18.801	1277.250	976.643
133.468	18.784	1276.353	975.769
134.483	18.766	1275.483	974.918
135.497	18.814	1274.697	974.504
136.512	18.865	1273.216	973.572
137.527	18.846	1271.852	972.339
138.541	18.851	1271.096	971.702
139.556	18.934	1269.341	970.740
140.570	19.053	1268.422	970.624
141.585	19.052	1267.265	969.651
142.600	19.233	1266.645	970.106
143.614	19.277	1265.845	969.659
144.629	19.390	1264.526	969.194
145.643	19.364	1263.433	968.128
146.658	19.132	1261.924	965.583
147.673	19.040	1260.410	963.822
148.687	18.942	1259.497	962.490
149.702	18.847	1257.920	960.673
150.716	18.718	1256.955	959.126
151.731	18.750	1255.667	958.239
152.746	18.854	1254.546	957.877
153.760	18.896	1253.619	957.319
154.775	18.941	1252.243	956.435
155.789	19.168	1251.231	956.841
156.804	19.139	1250.272	955.862
157.819	19.004	1249.315	954.295
158.833	19.215	1248.675	954.891
159.848	19.342	1247.633	954.711
160.862	19.343	1246.994	954.143
161.877	18.990	1245.217	950.749
162.892	18.772	1244.373	948.819
163.906	18.802	1243.205	948.008
164.921	18.828	1242.778	947.742
165.935	18.992	1241.763	947.788
166.950	19.029	1240.740	947.125
167.964	19.105	1240.083	946.959
168.979	18.980	1239.905	946.050
169.994	18.948	1238.710	944.883
171.008	18.965	1238.140	944.457
172.023	19.152	1237.343	944.791
173.037	19.140	1236.784	944.215
174.052	19.254	1235.752	943.966
175.067	19.022	1234.048	941.314
176.081	18.905	1233.051	939.831
177.096	18.913	1232.055	939.030
178.110	18.963	1231.157	938.539
179.125	18.908	1230.118	937.362
180.140	19.109	1228.858	937.414
181.154	19.223	1227.889	937.210
182.169	19.154	1227.150	936.190
183.183	19.308	1225.950	936.029
184.198	19.393	1224.705	935.454
185.213	19.422	1223.511	934.618
186.227	19.355	1222.895	933.702
187.242	19.423	1221.746	933.109
188.256	19.411	1221.356	932.666
189.271	19.594	1219.945	932.491
190.286	19.301	1218.929	930.053
191.300	18.972	1217.621	927.196
192.315	18.732	1217.168	925.479
193.329	18.811	1216.496	925.310
194.344	19.069	1215.689	926.006
195.359	19.164	1215.015	925.919
196.373	19.146	1214.688	925.494
197.388	19.305	1214.785	926.339
198.402	19.495	1214.263	926.880
199.417	19.610	1213.888	927.126
200.432	19.729	1212.796	926.848
201.446	19.783	1212.332	926.704
202.461	19.908	1211.358	926.545
203.475	19.857	1210.513	925.546
204.490	19.664	1209.004	923.275
205.504	19.542	1207.738	921.579
206.519	19.413	1206.371	919.763
207.534	19.366	1205.272	918.592
208.548	19.386	1204.653	918.148
209.563	19.487	1203.569	917.779
210.577	19.456	1203.142	917.205
211.592	19.479	1202.398	916.682
212.607	19.713	1201.463	917.130
213.621	19.738	1200.236	916.245
214.636	19.651	1199.872	915.426
215.650	19.662	1198.788	914.573
216.665	19.770	1197.694	914.228
217.680	19.791	1197.111	913.813
218.694	19.967	1196.275	914.025
219.709	19.853	1195.632	912.850
220.723	19.738	1195.032	911.705
221.738	19.840	1194.062	911.422
222.753	19.882	1193.068	910.801
223.767	19.935	1192.230	910.362
224.782	19.934	1192.060	910.145
225.796	20.041	1191.393	910.121
226.811	20.016	1190.818	909.468
227.826	19.942	1189.625	908.088
228.840	19.849	1189.153	907.158
229.855	19.843	1188.404	906.475
230.869	19.865	1187.468	905.799
231.884	19.801	1186.399	904.567
232.899	19.657	1185.876	903.333
233.913	19.544	1184.791	901.839
234.928	19.605	1184.162	901.599
235.942	19.583	1183.468	900.878
236.957	19.500	1182.591	899.696
237.972	19.548	1182.128	899.513
238.986	19.564	1181.056	898.705
240.001	19.593	1180.642	898.457
241.015	19.595	1179.718	897.685
242.030	19.656	1178.909	897.306
243.045	19.747	1178.279	897.219
244.059	19.851	1177.660	897.210
245.074	19.962	1176.580	896.884
246.088	20.014	1175.771	896.455
247.103	19.988	1175.639	896.139
248.117	20.034	1175.172	895.945
249.132	20.235	1174.606	896.475
250.147	20.475	1173.768	896.995
251.161	20.684	1172.807	897.256
252.176	20.659	1172.538	896.844
253.190	20.796	1171.560	896.721
254.205	20.808	1170.978	896.258
255.220	20.806	1170.823	896.051
256.234	20.678	1170.142	894.791
257.249	20.749	1169.264	894.406
258.263	20.716	1168.825	893.819
259.278	20.643	1168.137	892.842
260.293	20.772	1167.522	892.953
261.307	20.833	1166.889	892.701
262.322	20.837	1166.261	892.166
263.336	20.773	1166.081	891.619
264.351	20.858	1164.943	891.106
265.366	20.735	1164.744	890.244
266.380	21.050	1163.594	890.897
267.395	20.803	1162.912	889.034
268.409	20.678	1162.006	887.626
269.424	20.654	1161.110	886.740
270.439	20.574	1161.167	886.297
271.453	20.601	1159.904	885.391
272.468	20.567	1158.906	884.378
273.482	20.468	1158.545	883.522
274.497	20.558	1157.585	883.170
275.512	20.518	1157.158	882.562
276.526	20.587	1156.291	882.171
277.541	20.543	1155.261	881.088
278.555	20.609	1154.836	881.017
279.570	20.776	1154.533	881.554
280.585	20.923	1153.808	881.666
281.599	20.877	1152.412	880.289
282.614	20.918	1150.737	879.140
283.628	20.653	1150.026	877.182
284.643	20.667	1149.176	876.525
285.657	20.627	1148.612	875.817
286.672	20.744	1147.417	875.415
287.687	20.779	1146.589	874.883
288.701	20.787	1145.648	874.127
289.716	20.831	1144.821	873.642
290.730	20.719	1144.453	872.720
291.745	20.872	1143.656	872.805
292.760	20.956	1143.142	872.752
293.774	20.986	1142.660	872.459
294.789	21.023	1142.241	872.248
295.803	21.042	1141.483	871.685
296.818	20.874	1140.639	870.128
297.833	20.830	1139.623	869.053
298.847	20.857	1138.983	868.623
299.862	20.827	1138.246	867.835
300.876	20.902	1137.552	867.604
301.891	20.976	1136.951	867.437
302.906	20.967	1136.543	867.005
303.920	21.189	1136.099	867.691
304.935	21.171	1135.385	866.980
305.949	21.323	1134.647	867.092
306.964	21.250	1134.272	866.370
307.979	21.263	1133.126	865.479
308.993	21.181	1132.697	864.671
310.008	21.303	1131.253	864.093
311.022	21.400	1130.937	864.255
312.037	21.320	1130.204	863.227
313.052	21.145	1128.855	861.254
314.066	21.016	1127.705	859.665
315.081	20.885	1126.836	858.281
316.095	20.894	1126.029	857.636
317.110	20.870	1125.373	856.943
318.125	20.909	1124.644	856.501
319.139	21.020	1123.553	856.142
320.154	20.875	1122.991	854.927
321.168	20.938	1122.589	854.853
322.183	20.792	1122.520	854.009
323.197	20.895	1121.613	853.749
324.212	21.089	1121.312	854.393
325.227	20.993	1120.766	853.433
326.241	21.075	1120.067	853.225
327.256	21.044	1119.059	852.228
328.270	20.852	1118.264	850.612
329.285	20.963	1117.054	850.155
330.300	21.061	1115.915	849.691
331.314	20.991	1115.063	848.625
332.329	21.155	1113.616	848.249
333.343	21.149	1113.003	847.676
334.358	21.177	1112.875	847.642
335.373	21.274	1111.991	847.363
336.387	21.323	1111.230	846.944
337.402	21.253	1110.562	846.024
338.416	21.357	1110.141	846.131
339.431	21.413	1109.618	845.926
340.446	21.519	1109.175	846.026
341.460	21.724	1108.177	846.181
342.475	21.714	1107.538	845.569
343.489	21.774	1106.670	845.123
344.504	21.754	1105.914	844.375
345.519	21.857	1105.289	844.318
346.533	21.870	1104.464	843.677
347.548	21.991	1103.511	843.454
348.562	21.811	1102.778	841.954
349.577	21.747	1101.559	840.641
350.592	21.575	1100.819	839.179
351.606	21.473	1099.933	837.942
352.621	21.396	1099.071	836.843
353.635	21.269	1098.540	835.755
354.650	21.438	1097.725	835.872
355.665	21.524	1097.214	835.816
356.679	21.489	1096.903	835.340
357.694	21.633	1096.030	835.288
358.708	21.603	1095.557	834.708
359.723	21.709	1094.965	834.689
360.738	21.661	1094.380	833.940
361.752	21.649	1093.832	833.393
362.767	21.656	1093.180	832.856
363.781	21.590	1093.060	832.379
364.796	21.803	1092.163	832.633
365.810	21.982	1091.388	832.817
366.825	22.141	1090.868	833.103
367.840	22.195	1090.651	833.115
368.854	22.216	1090.345	832.909
369.869	22.236	1089.377	832.189
370.883	22.150	1088.446	831.001
371.898	21.965	1087.690	829.475
372.913	22.005	1086.775	828.893
373.927	22.105	1086.323	828.948
374.942	22.275	1085.891	829.346
375.956	22.184	1085.462	828.516
376.971	22.045	1084.986	827.423
377.986	22.101	1084.293	827.087
379.000	22.285	1083.790	827.492
380.015	22.347	1083.766	827.692
381.029	22.397	1082.729	827.064
382.044	22.402	1081.874	826.360
383.059	22.311	1081.250	825.384
384.073	22.315	1080.467	824.731
385.088	22.381	1079.539	824.261
386.102	22.322	1078.546	823.152
387.117	22.251	1077.258	821.765
388.132	22.087	1076.301	820.195
389.146	22.055	1075.795	819.588
390.161	22.049	1074.869	818.782
391.175	21.981	1074.281	817.944
392.190	22.192	1073.614	818.346
393.205	22.286	1073.180	818.383
394.219	22.307	1072.494	817.884
395.234	22.331	1071.141	816.890
396.248	22.153	1070.109	815.207
397.263	22.097	1069.535	814.438
398.278	22.059	1068.476	813.384
399.292	22.026	1067.643	812.527
400.307	21.876	1066.923	811.210
401.321	21.935	1066.086	810.778
402.336	21.881	1065.389	809.923
403.350	21.975	1065.120	810.081
404.365	22.097	1064.254	809.916
405.380	22.051	1063.801	809.284
406.394	22.130	1062.901	808.895
407.409	22.301	1062.528	809.324
408.423	22.354	1061.798	808.943
409.438	22.515	1061.139	809.108
410.453	22.615	1060.259	808.825
411.467	22.546	1060.054	808.279
412.482	22.678	1059.295	808.235
413.496	22.790	1058.791	808.290
414.511	22.768	1057.966	807.488
415.526	22.996	1057.698	808.254
416.540	22.968	1057.316	807.763
417.555	22.961	1056.862	807.311
418.569	22.727	1056.226	805.686
419.584	22.711	1055.845	805.252
420.599	22.826	1055.128	805.160
421.613	154.097	1400.037	1788.094
422.628	141.558	1450.298	1788.208
