DTS Sentinel unit serial number:	SN413079Multiplexer serial number:	ORYXHardware model number:	OX4-SRSoftware version number:	ORYX F/W v4.00 Oryx Data Collector v3.7.2.0data status	okinstallation	princeton_trtdifferential loss correction	single-endedforward channel	channel 2reverse channel	N/Adate	2019/09/19time	12:23:35forward acquisition time	60.00reverse acquisition time	0.00gamma	496.2192k internal	0.2336k external	0.2336temperature offset calibration	1.0019default loss term (dB/km)	0.3790temperature slope calibration	1.0000multiplexer offset coefficient	1.0000multiplexer slope coefficient	1.0000fibre end	0.00T internal ref (°C)	26.78T ext. ref 1 (°C)	0.86T ext. ref 2 (°C)	24.09length (m)	temperature (°C)	Stokes	anti-Stokes-747.200	-10.781	-0.279	0.185
-746.185	143.577	-0.164	0.219
-745.171	-71.021	-0.118	0.045
-744.156	126.164	-0.116	0.147
-743.142	-200.000	0.047	0.393
-742.127	-92.173	-0.377	-0.107
-741.112	-69.518	-0.033	0.013
-740.098	519.311	0.063	0.149
-739.083	283.541	-0.128	0.230
-738.069	-122.686	-0.190	0.031
-737.054	800.000	0.036	0.143
-736.039	-117.045	-0.278	0.051
-735.025	109.936	-0.131	0.158
-734.010	-129.810	-0.116	-0.016
-732.996	-34.164	-0.184	-0.102
-731.981	-108.720	-0.176	-0.038
-730.966	800.000	-0.045	-0.187
-729.952	72.965	-0.087	0.091
-728.937	-151.134	-0.102	0.008
-727.923	-44.046	-0.104	0.053
-726.908	-1.858	-0.257	0.182
-725.894	-65.474	-0.162	-0.065
-724.879	-116.535	0.147	0.027
-723.864	-200.000	0.012	-0.188
-722.850	257.934	0.114	-0.196
-721.835	-200.000	0.010	0.315
-720.821	64.679	0.062	0.063
-719.806	-39.946	-0.166	0.087
-718.791	648.157	-0.063	-0.161
-717.777	-200.000	-0.054	0.296
-716.762	156.385	-0.069	-0.095
-715.748	-38.190	0.279	-0.148
-714.733	-200.000	-0.017	0.165
-713.718	-108.875	-0.135	-0.029
-712.704	71.470	-0.042	-0.044
-711.689	-128.641	-0.534	-0.076
-710.675	-78.894	0.370	-0.126
-709.660	724.489	-0.142	0.380
-708.645	-113.229	0.069	0.014
-707.631	412.783	-0.061	0.131
-706.616	645.826	-0.075	0.192
-705.602	-53.040	0.342	0.157
-704.587	90.994	-0.138	0.156
-703.572	50.217	0.299	0.283
-702.558	-31.882	-0.172	-0.096
-701.543	-151.972	-0.222	0.016
-700.529	35.562	-0.090	-0.079
-699.514	-60.468	0.228	0.097
-698.499	800.000	0.049	-0.215
-697.485	83.175	0.126	-0.137
-696.470	-179.545	0.225	-0.005
-695.456	-86.583	-0.570	0.175
-694.441	-37.572	-0.239	-0.128
-693.426	-200.000	-0.055	0.266
-692.412	108.325	0.197	-0.235
-691.397	410.604	0.049	-0.104
-690.383	308.363	-0.074	-0.139
-689.368	-125.447	-0.243	-0.037
-688.354	186.828	0.015	0.023
-687.339	139.295	-0.222	0.293
-686.324	-200.000	0.002	-0.152
-685.310	94.687	-0.175	-0.199
-684.295	-200.000	0.050	0.333
-683.281	266.491	0.088	-0.153
-682.266	-200.000	0.024	0.187
-681.251	128.659	-0.212	0.271
-680.237	213.046	-0.140	0.221
-679.222	800.000	-0.071	0.206
-678.208	23.326	0.384	-0.316
-677.193	-16.920	-0.166	-0.105
-676.178	170.185	-0.061	-0.087
-675.164	105.914	-0.180	-0.213
-674.149	-200.000	0.010	0.131
-673.135	800.000	-0.049	-0.191
-672.120	-76.277	-0.339	-0.120
-671.105	-200.000	-0.045	0.211
-670.091	772.024	-0.113	-0.308
-669.076	449.002	-0.010	-0.021
-668.062	7.197	-0.086	-0.064
-667.047	-102.894	-0.194	-0.046
-666.032	-200.000	0.085	-0.436
-665.018	157.813	-0.041	-0.057
-664.003	-200.000	0.001	0.111
-662.989	18.899	0.158	0.127
-661.974	-33.568	0.128	-0.071
-660.959	53.254	0.238	0.228
-659.945	-5.023	0.253	-0.175
-658.930	800.000	-0.045	0.192
-657.916	-19.582	0.063	-0.039
-656.901	-200.000	0.043	-0.237
-655.886	42.227	-0.291	-0.265
-654.872	-200.000	0.061	0.344
-653.857	-200.000	0.060	-0.323
-652.843	148.002	0.103	0.139
-651.828	-57.967	0.126	0.055
-650.814	-55.865	0.260	-0.116
-649.799	-200.000	0.057	0.386
-648.784	193.019	0.085	-0.129
-647.770	553.038	0.114	0.275
-646.755	-180.616	-0.473	-0.010
-645.741	800.000	0.140	-0.437
-644.726	-33.323	-0.113	0.063
-643.711	58.217	0.229	0.224
-642.697	-62.470	-0.147	-0.061
-641.682	-176.199	-0.245	-0.006
-640.668	470.358	0.081	-0.183
-639.653	282.540	0.061	-0.109
-638.638	-90.189	-0.163	-0.047
-637.624	-200.000	0.050	-0.254
-636.609	81.417	0.074	-0.080
-635.595	-44.899	0.098	0.049
-634.580	42.487	0.011	0.010
-633.565	-22.845	0.089	-0.054
-632.551	-200.000	-0.012	-0.211
-631.536	306.221	-0.036	-0.066
-630.522	-33.184	0.280	0.155
-629.507	800.000	0.043	0.145
-628.492	541.690	-0.069	0.165
-627.478	-41.638	0.016	-0.008
-626.463	27.312	-0.220	0.185
-625.449	8.550	-0.265	-0.199
-624.434	461.762	0.046	-0.102
-623.419	520.712	-0.050	-0.117
-622.405	544.506	0.068	-0.163
-621.390	144.913	-0.051	-0.068
-620.376	230.058	-0.252	0.411
-619.361	249.521	0.195	-0.330
-618.346	-76.489	-0.208	0.073
-617.332	800.000	0.039	-0.165
-616.317	299.938	-0.106	-0.195
-615.303	-64.006	-0.117	-0.048
-614.288	-101.749	0.292	0.071
-613.273	800.000	0.073	-0.228
-612.259	81.445	0.247	0.266
-611.244	-48.887	-0.297	0.142
-610.230	-52.151	0.175	0.081
-609.215	-200.000	0.016	-0.296
-608.201	-150.021	0.237	0.018
-607.186	-32.923	-0.442	-0.245
-606.171	11.980	-0.014	-0.011
-605.157	32.459	-0.165	-0.142
-604.142	-21.588	-0.072	-0.044
-603.128	-100.906	-0.337	-0.083
-602.113	38.099	0.015	-0.014
-601.098	800.000	-0.060	0.229
-600.084	45.755	0.053	-0.049
-599.069	-51.453	-0.171	0.080
-598.055	-125.799	0.235	0.035
-597.040	727.607	-0.029	0.076
-596.025	365.711	0.043	-0.086
-595.011	-155.700	0.384	0.025
-593.996	31.446	0.193	-0.165
-592.982	-18.960	0.099	-0.062
-591.967	48.689	0.136	-0.127
-590.952	-70.519	0.287	-0.109
-589.938	-44.496	-0.126	0.063
-588.923	-48.021	-0.209	-0.101
-587.909	-177.278	-0.363	-0.009
-586.894	695.062	0.111	0.291
-585.879	-149.256	0.234	-0.019
-584.865	53.133	-0.165	-0.157
-583.850	32.286	-0.231	-0.199
-582.836	-200.000	-0.023	-0.145
-581.821	-97.050	-0.267	0.070
-580.806	-2.044	0.240	0.169
-579.792	71.140	-0.199	0.206
-578.777	-26.460	0.070	0.041
-577.763	467.562	0.151	-0.339
-576.748	79.562	-0.147	0.158
-575.733	800.000	0.012	-0.041
-574.719	-47.206	0.405	-0.197
-573.704	524.900	0.110	-0.259
-572.690	800.000	0.077	0.289
-571.675	-40.469	0.193	-0.100
-570.661	-153.172	-0.285	-0.020
-569.646	-200.000	0.023	0.127
-568.631	-76.020	-0.094	0.033
-567.617	-63.548	-0.260	0.107
-566.602	-200.000	0.012	-0.094
-565.588	-200.000	0.041	0.314
-564.573	230.787	0.105	-0.171
-563.558	-200.000	-0.007	-0.062
-562.544	-200.000	0.039	-0.219
-561.529	-50.472	-0.510	0.240
-560.515	-19.036	-0.131	-0.081
-559.500	207.633	-0.065	0.102
-558.485	-34.792	0.210	-0.114
-557.471	-13.925	-0.316	0.204
-556.456	142.427	-0.106	-0.141
-555.442	-147.007	-0.211	0.018
-554.427	-200.000	0.003	-0.145
-553.412	800.000	0.010	0.036
-552.398	-200.000	0.003	-0.029
-551.383	-102.074	0.091	-0.022
-550.369	-129.307	-0.333	-0.046
-549.354	29.352	0.092	-0.078
-548.339	-84.981	0.321	-0.100
-547.325	530.300	0.077	-0.182
-546.310	800.000	-0.059	-0.182
-545.296	289.419	0.022	0.040
-544.281	-7.214	0.107	-0.072
-543.266	222.849	-0.065	0.104
-542.252	-125.670	-0.297	-0.045
-541.237	576.252	0.077	-0.187
-540.223	-200.000	0.302	-0.001
-539.208	680.872	-0.154	0.400
-538.193	67.037	0.124	-0.125
-537.179	-41.284	-0.301	0.154
-536.164	-200.000	0.037	0.602
-535.150	-200.000	-0.029	-0.185
-534.135	-58.646	-0.318	-0.137
-533.121	-88.025	-0.326	0.098
-532.106	-200.000	0.018	-0.154
-531.091	-26.626	0.226	0.132
-530.077	301.105	0.070	0.128
-529.062	422.534	-0.073	0.157
-528.048	-83.123	-0.147	0.047
-527.033	99.639	-0.102	0.118
-526.018	35.344	0.175	-0.153
-525.004	44.841	0.097	-0.089
-523.989	-200.000	0.011	0.282
-522.975	276.232	0.151	0.268
-521.960	186.863	0.110	0.163
-520.945	166.082	-0.072	0.101
-519.931	-34.498	-0.136	0.074
-518.916	81.356	0.181	0.194
-517.902	-73.408	-0.214	-0.078
-516.887	408.318	0.086	-0.182
-515.872	-40.087	-0.159	-0.082
-514.858	78.987	-0.109	0.117
-513.843	465.655	-0.047	0.104
-512.829	-100.970	-0.150	-0.037
-511.814	266.082	-0.100	-0.174
-510.799	30.237	-0.294	-0.249
-509.785	-98.128	0.213	-0.054
-508.770	192.296	-0.187	0.281
-507.756	15.282	-0.090	-0.070
-506.741	102.626	-0.231	0.269
-505.726	-6.794	-0.272	0.184
-504.712	-138.640	-0.129	0.014
-503.697	-108.091	-0.165	0.036
-502.683	-11.069	-0.210	0.138
-501.668	-81.167	0.139	-0.046
-500.653	-200.000	-0.042	0.186
-499.639	-198.659	0.114	-0.001
-498.624	701.670	0.124	-0.326
-497.610	-51.398	-0.159	-0.074
-496.595	-40.141	0.270	-0.140
-495.581	-78.043	0.003	0.001
-494.566	-61.495	-0.211	0.088
-493.551	-56.273	0.147	0.065
-492.537	-27.712	0.187	-0.108
-491.522	-200.000	-0.000	-0.039
-490.508	21.223	-0.163	0.132
-489.493	-85.267	0.213	-0.066
-488.478	71.427	-0.209	0.216
-487.464	-104.606	-0.324	-0.074
-486.449	262.780	-0.096	-0.166
-485.435	13.969	-0.199	-0.154
-484.420	-91.139	-0.222	0.063
-483.405	-46.976	-0.154	-0.075
-482.391	313.135	-0.135	0.252
-481.376	-200.000	0.054	-0.277
-480.362	800.000	0.062	0.250
-479.347	-200.000	0.012	0.113
-478.332	-105.252	0.127	-0.029
-477.318	167.756	0.065	0.092
-476.303	-15.450	-0.197	0.125
-475.289	-126.808	0.202	-0.030
-474.274	97.975	-0.264	-0.302
-473.259	-65.889	-0.080	0.032
-472.245	800.000	0.038	-0.114
-471.230	-200.000	0.015	0.337
-470.216	-200.000	0.041	-0.401
-469.201	289.480	0.114	0.205
-468.186	-200.000	0.343	-0.001
-467.172	-44.658	-0.058	0.029
-466.157	-88.323	0.262	0.078
-465.143	752.184	0.070	0.189
-464.128	-200.000	0.009	-0.179
-463.113	-107.377	0.104	-0.023
-462.099	-118.672	-0.296	0.052
-461.084	-3.771	0.191	-0.132
-460.070	-200.000	-0.003	-0.092
-459.055	32.980	0.149	0.128
-458.040	-200.000	-0.050	-0.301
-457.026	800.000	0.022	-0.083
-456.011	90.623	-0.110	0.123
-454.997	-200.000	-0.014	0.323
-453.982	-161.943	0.338	-0.017
-452.968	-128.790	-0.295	-0.041
-451.953	800.000	-0.075	0.252
-450.938	348.449	0.170	-0.334
-449.924	75.395	0.154	-0.161
-448.909	-4.320	-0.179	-0.123
-447.895	147.420	-0.254	0.340
-446.880	-35.953	0.393	-0.211
-445.865	594.943	0.170	-0.418
-444.851	-200.000	-0.016	0.084
-443.836	12.905	0.174	0.133
-442.822	800.000	-0.091	0.357
-441.807	589.495	0.079	-0.194
-440.792	711.249	0.035	0.091
-439.778	-145.208	-0.285	-0.026
-438.763	448.075	-0.098	-0.214
-437.749	-4.099	-0.211	-0.145
-436.734	22.677	-0.139	-0.113
-435.719	478.673	0.162	-0.363
-434.705	-141.226	0.211	0.021
-433.690	-52.454	0.121	-0.056
-432.676	-200.000	0.063	-0.383
-431.661	-200.000	-0.006	-0.100
-430.646	25.348	0.225	-0.186
-429.632	-160.164	0.112	-0.006
-428.617	800.000	0.030	-0.100
-427.603	148.310	-0.182	-0.243
-426.588	-200.000	0.003	-0.073
-425.573	402.922	0.018	0.038
-424.559	-200.000	0.023	-0.155
-423.544	154.163	-0.190	0.259
-422.530	273.428	0.152	0.266
-421.515	-50.437	-0.124	0.058
-420.500	-145.165	-0.093	-0.008
-419.486	47.503	-0.170	-0.157
-418.471	-200.000	0.006	0.212
-417.457	-85.593	-0.086	-0.026
-416.442	-116.517	-0.237	-0.043
-415.428	181.327	-0.193	-0.281
-414.413	6.166	-0.085	-0.063
-413.398	-112.423	0.703	0.139
-412.384	-200.000	0.081	0.381
-411.369	122.111	-0.040	0.050
-410.355	735.656	0.088	0.234
-409.340	-65.927	-0.044	0.017
-408.325	-128.576	0.242	-0.034
-407.311	800.000	-0.099	-0.289
-406.296	-135.474	0.168	0.020
-405.282	-18.719	-0.086	-0.053
-404.267	-200.000	0.055	0.553
-403.252	110.771	-0.151	-0.180
-402.238	262.838	0.083	-0.143
-401.223	489.426	0.127	0.287
-400.209	667.822	0.036	-0.093
-399.194	-127.880	0.241	0.034
-398.179	28.191	-0.140	0.117
-397.165	-7.198	0.287	-0.193
-396.150	-200.000	0.074	-0.481
-395.136	259.110	0.143	-0.245
-394.121	6.534	-0.220	0.162
-393.106	-94.765	0.106	0.029
-392.092	-103.031	0.283	-0.066
-391.077	-101.036	-0.120	-0.029
-390.063	-179.621	0.229	-0.005
-389.048	30.953	0.116	-0.099
-388.033	800.000	-0.090	0.294
-387.019	451.343	-0.014	-0.030
-386.004	-83.442	-0.260	0.082
-384.990	187.629	-0.184	0.273
-383.975	201.143	-0.175	0.267
-382.960	255.364	0.047	0.079
-381.946	-60.164	-0.168	0.071
-380.931	-134.271	0.248	-0.030
-379.917	800.000	0.032	0.104
-378.902	83.822	0.255	0.276
-377.888	236.350	0.077	-0.126
-376.873	-200.000	-0.017	-0.194
-375.858	-67.993	-0.160	-0.062
-374.844	-200.000	-0.008	-0.230
-373.829	-9.151	-0.261	-0.173
-372.815	-200.000	0.033	-0.223
-371.800	69.068	0.129	0.131
-370.785	-200.000	0.012	-0.095
-369.771	63.450	-0.141	0.140
-368.756	-9.071	0.189	-0.125
-367.742	-200.000	-0.011	0.338
-366.727	31.788	-0.089	0.076
-365.712	-200.000	0.000	0.096
-364.698	26.706	-0.162	0.134
-363.683	197.261	-0.160	-0.241
-362.669	-95.742	-0.141	0.037
-361.654	-200.000	0.052	0.226
-360.639	451.214	-0.133	0.291
-359.625	-156.437	0.306	-0.019
-358.610	-36.312	-0.124	0.066
-357.596	-125.709	-0.193	0.029
-356.581	169.448	0.193	0.272
-355.566	-57.440	0.266	-0.115
-354.552	-200.000	-0.055	-0.300
-353.537	531.109	0.090	-0.210
-352.523	181.698	-0.066	0.095
-351.508	-74.057	0.241	-0.086
-350.493	-200.000	-0.015	-0.436
-349.479	235.698	-0.078	0.127
-348.464	800.000	-0.113	0.464
-347.450	98.604	-0.174	0.198
-346.435	-18.970	-0.191	0.118
-345.420	800.000	0.083	0.256
-344.406	-16.053	-0.227	0.143
-343.391	-200.000	0.016	-0.307
-342.377	-124.210	0.175	-0.027
-341.362	-200.000	-0.010	-0.114
-340.348	61.458	0.092	-0.091
-339.333	-106.080	-0.274	-0.061
-338.318	92.075	0.239	-0.266
-337.304	46.388	0.100	0.091
-336.289	-200.000	-0.020	-0.224
-335.275	-123.458	0.033	0.005
-334.260	-111.053	-0.247	0.050
-333.245	100.787	0.111	0.127
-332.231	37.883	0.165	0.145
-331.216	570.090	0.093	-0.224
-330.202	-16.807	-0.050	0.032
-329.187	-114.350	0.125	0.024
-328.172	-0.600	0.189	0.132
-327.158	-104.233	0.218	0.050
-326.143	112.744	0.238	0.285
-325.129	-200.000	0.071	-0.000
-324.114	322.986	0.044	-0.082
-323.099	-165.599	-0.182	0.008
-322.085	-200.000	-0.058	-0.264
-321.070	773.043	-0.054	-0.146
-320.056	-200.000	0.011	-0.068
-319.041	147.281	0.125	0.166
-318.026	-98.186	0.174	-0.044
-317.012	-200.000	0.000	-0.042
-315.997	165.208	-0.148	0.207
-314.983	-31.267	0.278	-0.155
-313.968	-200.000	-0.005	-0.177
-312.953	-115.859	0.161	0.030
-311.939	142.645	-0.200	0.262
-310.924	-39.237	-0.283	-0.147
-309.910	166.040	0.231	-0.323
-308.895	-147.177	-0.390	-0.033
-307.880	66.445	0.230	0.231
-306.866	165.542	0.087	-0.122
-305.851	-200.000	0.001	-0.016
-304.837	-85.046	-0.022	-0.007
-303.822	80.007	-0.209	-0.222
-302.807	-200.000	0.010	-0.137
-301.793	800.000	0.043	0.166
-300.778	-56.395	-0.194	0.085
-299.764	38.634	-0.089	-0.078
-298.749	-200.000	0.084	-0.371
-297.735	-187.554	0.401	-0.005
-296.720	-79.916	0.111	-0.037
-295.705	18.843	-0.148	-0.117
-294.691	-73.820	-0.128	-0.046
-293.676	-200.000	-0.016	0.164
-292.662	-106.633	0.392	0.086
-291.647	58.198	0.106	-0.102
-290.632	-99.257	-0.290	-0.072
-289.618	800.000	-0.035	-0.128
-288.603	-200.000	0.005	-0.175
-287.589	800.000	-0.064	0.242
-286.574	247.950	-0.114	0.191
-285.559	99.025	-0.060	-0.068
-284.545	-28.443	-0.176	-0.100
-283.530	116.737	-0.165	-0.199
-282.516	4.533	-0.094	0.068
-281.501	-3.409	-0.241	0.165
-280.486	-53.680	0.273	0.123
-279.472	-200.000	0.005	-0.165
-278.457	165.277	-0.187	-0.261
-277.443	510.778	0.087	0.201
-276.428	172.586	0.135	0.191
-275.413	-195.076	0.327	-0.002
-274.399	-97.598	-0.397	0.101
-273.384	-164.181	0.511	-0.023
-272.370	-111.940	-0.022	0.004
-271.355	218.832	0.088	-0.139
-270.340	-53.607	0.148	0.067
-269.326	-55.898	0.028	0.013
-268.311	234.835	0.184	0.299
-267.297	33.872	-0.103	-0.088
-266.282	268.809	-0.037	0.063
-265.267	800.000	-0.074	0.296
-264.253	-135.389	-0.411	-0.048
-263.238	-200.000	0.032	0.183
-262.224	66.256	-0.141	-0.141
-261.209	800.000	-0.083	0.343
-260.195	-142.512	0.045	-0.004
-259.180	625.015	0.140	0.348
-258.165	-200.000	-0.005	0.394
-257.151	497.392	0.065	0.148
-256.136	800.000	0.095	0.377
-255.122	-200.000	-0.023	0.124
-254.107	749.870	0.121	-0.321
-253.092	664.320	0.144	-0.366
-252.078	-37.413	0.157	-0.082
-251.063	77.662	-0.104	-0.109
-250.049	-22.438	-0.341	-0.203
-249.034	28.285	0.163	-0.136
-248.019	-42.251	-0.095	-0.048
-247.005	800.000	0.071	-0.230
-245.990	-141.099	-0.079	0.008
-244.976	89.753	0.092	-0.101
-243.961	-200.000	-0.007	-0.228
-242.946	-50.883	0.202	0.093
-241.932	-200.000	0.034	0.199
-240.917	-52.358	0.061	0.028
-239.903	800.000	0.046	-0.176
-238.888	430.418	0.176	0.374
-237.873	-80.043	0.128	-0.042
-236.859	482.167	-0.146	0.326
-235.844	789.986	-0.110	0.299
-234.830	800.000	0.077	-0.243
-233.815	-145.108	-0.279	-0.025
-232.800	-200.000	-0.009	0.178
-231.786	-43.027	-0.206	0.103
-230.771	-159.633	0.135	0.007
-229.757	14.472	0.217	-0.167
-228.742	-41.890	0.277	-0.140
-227.727	-150.807	0.206	0.015
-226.713	418.837	0.060	-0.126
-225.698	-53.034	-0.300	0.136
-224.684	32.260	0.208	0.177
-223.669	-112.112	-0.299	-0.059
-222.655	800.000	0.028	0.104
-221.640	-200.000	0.005	0.149
-220.625	410.127	-0.072	-0.150
-219.611	-200.000	0.080	0.393
-218.596	-65.323	0.210	0.083
-217.582	4.036	0.205	0.148
-216.567	46.699	-0.094	0.086
-215.552	-85.319	-0.130	0.040
-214.538	160.799	0.200	-0.275
-213.523	288.853	-0.197	-0.351
-212.509	-7.029	-0.141	-0.094
-211.494	-178.738	-0.163	0.004
-210.479	133.541	-0.028	0.036
-209.465	-200.000	0.006	0.378
-208.450	-199.175	0.155	0.001
-207.436	-94.623	0.179	-0.048
-206.421	85.321	0.154	-0.166
-205.406	253.457	-0.042	-0.071
-204.392	800.000	0.090	-0.254
-203.377	187.714	-0.062	-0.091
-202.363	-200.000	0.003	-0.045
-201.348	21.664	0.260	-0.208
-200.333	-85.287	-0.260	-0.080
-199.319	665.154	0.114	-0.290
-198.304	68.304	0.113	0.114
-197.290	-89.790	0.040	-0.011
-196.275	-200.000	-0.056	0.264
-195.260	-198.619	0.100	0.001
-194.246	-37.464	-0.286	0.150
-193.231	11.712	-0.080	0.060
-192.217	357.454	0.024	0.048
-191.202	-128.420	0.318	-0.044
-190.187	800.000	-0.044	0.141
-189.173	663.000	-0.164	0.416
-188.158	-200.000	-0.004	0.166
-187.144	-33.831	-0.059	0.032
-186.129	142.770	-0.221	0.289
-185.114	-200.000	-0.030	0.240
-184.100	-200.000	0.090	0.431
-183.085	-200.000	-0.017	0.113
-182.071	-50.970	-0.115	0.053
-181.056	-111.871	0.044	-0.009
-180.042	-194.328	0.233	0.002
-179.027	-183.374	0.236	-0.004
-178.012	3.239	0.134	0.096
-176.998	125.563	0.129	-0.160
-175.983	-25.944	-0.290	-0.168
-174.969	102.743	0.094	0.108
-173.954	81.387	0.117	0.124
-172.939	800.000	-0.081	0.295
-171.925	-185.950	0.321	0.005
-170.910	11.890	0.130	-0.098
-169.896	-200.000	-0.005	-0.196
-168.881	-137.917	0.222	-0.024
-167.866	508.791	0.037	-0.085
-166.852	316.432	0.156	0.290
-165.837	369.606	0.180	-0.358
-164.823	132.242	0.094	-0.119
-163.808	122.685	0.061	-0.075
-162.793	-15.923	-0.156	0.098
-161.779	-200.000	0.079	-0.343
-160.764	-47.316	0.417	0.200
-159.750	-22.837	-0.250	-0.148
-158.735	-56.832	-0.276	0.120
-157.720	800.000	-0.142	-0.399
-156.706	-75.834	-0.169	-0.059
-155.691	-200.000	-0.041	-0.265
-154.677	800.000	-0.134	-0.382
-153.662	-46.124	-0.102	-0.049
-152.647	62.515	0.167	0.164
-151.633	-200.000	-0.016	0.298
-150.618	-151.152	0.263	0.019
-149.604	-196.570	-0.079	-0.001
-148.589	-59.659	-0.103	0.043
-147.574	-200.000	0.244	0.001
-146.560	34.000	-0.120	-0.102
-145.545	-200.000	0.002	-0.094
-144.531	-81.569	0.034	0.011
-143.516	-200.000	-0.036	0.424
-142.502	55.918	0.246	-0.234
-141.487	78.818	0.247	0.259
-140.472	16.792	-0.123	-0.095
-139.458	-200.000	0.002	-0.061
-138.443	-65.781	-0.252	-0.099
-137.429	-145.325	0.033	0.003
-136.414	226.028	-0.116	-0.185
-135.399	-200.000	0.008	-0.053
-134.385	427.732	-0.159	-0.337
-133.370	-53.191	0.197	-0.089
-132.356	-200.000	0.049	-0.304
-131.341	-197.441	-0.158	-0.001
-130.326	800.000	-0.061	-0.195
-129.312	-200.000	-0.014	-0.183
-128.297	536.943	0.141	0.329
-127.283	17.120	0.132	-0.102
-126.268	-178.801	0.334	-0.007
-125.253	800.000	-0.072	0.202
-124.239	-6.191	-0.246	-0.164
-123.224	20.886	0.330	0.262
-122.210	296.611	0.283	-0.509
-121.195	-116.981	-0.036	-0.006
-120.180	262.718	-0.048	-0.082
-119.166	-200.000	0.006	0.132
-118.151	-200.000	0.010	0.359
-117.137	-5.800	-0.436	0.293
-116.122	-30.881	-0.228	-0.126
-115.107	112.935	0.135	-0.160
-114.093	15.489	0.438	-0.337
-113.078	-104.781	-0.139	0.031
-112.064	-174.449	0.093	0.003
-111.049	-200.000	-0.054	0.234
-110.034	113.548	0.221	0.263
-109.020	-80.482	0.184	-0.060
-108.005	77.677	-0.175	0.183
-106.991	-129.589	0.334	0.045
-105.976	34.455	-0.221	-0.189
-104.962	-200.000	-0.061	0.327
-103.947	-73.019	-0.180	-0.065
-102.932	341.349	-0.217	-0.415
-101.918	171.219	0.102	-0.144
-100.903	800.000	-0.083	-0.277
-99.889	-20.450	-0.229	0.138
-98.874	346.026	-0.111	0.213
-97.859	-200.000	0.040	-0.226
-96.845	-75.701	0.272	-0.095
-95.830	592.178	-0.076	-0.185
-94.816	221.807	0.163	0.256
-93.801	614.994	0.067	-0.164
-92.786	-200.000	-0.005	-0.175
-91.772	-61.510	-0.161	-0.066
-90.757	800.000	-0.131	0.412
-89.743	-56.234	-0.271	-0.118
-88.728	-28.862	-0.238	0.134
-87.713	255.192	-0.082	-0.137
-86.699	660.440	0.025	0.064
-85.684	169.450	0.185	0.259
-84.670	-200.000	-0.018	0.132
-83.655	154.319	-0.135	-0.182
-82.640	414.902	0.106	-0.221
-81.626	-99.085	-0.408	0.101
-80.611	-200.000	0.065	0.329
-79.597	-200.000	-0.024	0.142
-78.582	-28.759	-0.048	-0.027
-77.567	-200.000	-0.015	-0.090
-76.553	800.000	0.067	-0.278
-75.538	800.000	-0.147	0.420
-74.524	-94.751	-0.308	-0.082
-73.509	800.000	0.036	0.145
-72.494	-141.232	0.221	0.022
-71.480	231.107	-0.071	0.114
-70.465	-44.619	0.343	0.168
-69.451	-195.345	-0.117	0.001
-68.436	2.236	0.437	-0.309
-67.422	337.797	0.056	-0.107
-66.407	113.009	-0.076	-0.090
-65.392	139.051	0.074	0.096
-64.378	-151.826	-0.287	-0.021
-63.363	-46.385	0.353	-0.169
-62.349	57.734	0.349	0.334
-61.334	172.703	-0.970	-1.366
-60.319	144.415	0.442	0.577
-59.305	-200.000	-0.070	-1.300
-58.290	800.000	0.450	1.484
-57.276	478.079	0.636	1.408
-56.261	-200.000	113.435	630.929
-55.246	444.388	1522.818	3266.974
-54.232	141.929	2721.901	3527.778
-53.217	95.223	2329.478	2594.437
-52.203	36.064	1931.655	1662.532
-51.188	29.798	1717.678	1430.047
-50.173	27.267	1675.778	1375.983
-49.159	49.351	1730.723	1591.220
-48.144	47.706	1744.875	1591.565
-47.130	29.488	1703.099	1415.305
-46.115	26.736	1688.864	1382.464
-45.100	26.706	1683.356	1377.667
-44.086	26.668	1680.717	1375.164
-43.071	26.711	1677.682	1372.957
-42.057	26.597	1675.547	1370.289
-41.042	26.601	1673.750	1368.798
-40.027	26.702	1671.511	1367.674
-39.013	26.584	1669.190	1364.832
-37.998	26.629	1667.985	1364.135
-36.984	26.667	1667.050	1363.595
-35.969	26.650	1665.228	1361.923
-34.954	26.727	1663.587	1361.110
-33.940	26.739	1662.091	1359.923
-32.925	26.718	1659.736	1357.780
-31.911	26.796	1658.076	1356.954
-30.896	26.749	1656.568	1355.312
-29.881	26.786	1654.910	1354.179
-28.867	26.822	1653.089	1352.907
-27.852	26.774	1651.927	1351.544
-26.838	26.762	1649.850	1349.698
-25.823	26.826	1648.965	1349.403
-24.809	26.840	1647.529	1348.275
-23.794	26.853	1645.840	1346.936
-22.779	26.833	1644.530	1345.662
-21.765	26.720	1643.019	1343.531
-20.750	26.793	1641.357	1342.665
-19.736	26.770	1640.513	1341.748
-18.721	26.769	1638.830	1340.311
-17.706	26.848	1636.965	1339.319
-16.692	26.930	1635.114	1338.351
-15.677	26.922	1634.043	1337.368
-14.663	26.853	1632.713	1335.712
-13.648	26.790	1631.270	1334.017
-12.633	26.879	1629.999	1333.583
-11.619	26.803	1628.051	1331.373
-10.604	26.760	1626.860	1330.032
-9.590	26.899	1625.460	1329.851
-8.575	26.750	1624.921	1328.269
-7.560	26.906	1622.472	1327.356
-6.546	26.790	1622.285	1326.302
-5.531	26.868	1620.117	1325.044
-4.517	26.858	1619.291	1324.247
-3.502	26.804	1618.641	1323.270
-2.487	27.011	1616.233	1322.753
-1.473	26.797	1605.607	1312.458
-0.458	24.660	1586.737	1281.672
0.556	20.516	1588.250	1252.615
1.571	17.958	1612.289	1252.718
2.586	17.200	1625.044	1256.913
3.600	15.700	1570.429	1203.829
4.615	9.005	1459.396	1073.933
5.629	2.296	1396.464	984.449
6.644	0.970	1389.489	970.946
7.659	0.806	1388.115	968.852
8.673	0.848	1387.082	968.314
9.688	0.826	1384.961	966.606
10.702	0.705	1381.143	963.083
11.717	3.684	1386.342	985.658
12.731	10.918	1396.896	1039.453
13.746	16.143	1403.585	1077.810
14.761	17.286	1404.834	1085.986
15.775	16.694	1402.912	1080.626
16.790	15.780	1400.445	1072.805
17.804	14.911	1398.269	1065.507
18.819	14.514	1396.586	1061.601
19.834	14.349	1395.550	1059.669
20.848	14.099	1394.281	1057.025
21.863	13.815	1392.895	1054.078
22.877	13.676	1391.521	1052.060
23.892	13.513	1390.626	1050.258
24.907	13.618	1389.623	1050.073
25.921	13.634	1388.711	1049.392
26.936	13.616	1387.959	1048.615
27.950	13.641	1387.140	1048.061
28.965	13.788	1385.910	1047.972
29.980	13.743	1385.056	1046.945
30.994	13.857	1384.045	1046.811
32.009	13.802	1383.182	1045.717
33.023	13.835	1381.762	1044.761
34.038	13.740	1381.100	1043.567
35.053	13.761	1379.803	1042.632
36.067	13.782	1378.849	1041.948
37.082	13.739	1377.935	1040.895
38.096	13.825	1376.813	1040.492
39.111	13.798	1376.104	1039.697
40.126	13.729	1374.775	1038.169
41.140	13.651	1374.701	1037.531
42.155	13.612	1374.180	1036.806
43.169	13.577	1373.962	1036.330
44.184	13.504	1373.756	1035.623
45.199	13.594	1372.862	1035.423
46.213	13.692	1372.580	1035.733
47.228	13.706	1371.735	1035.091
48.242	13.714	1370.180	1033.874
49.257	13.704	1368.577	1032.513
50.271	13.763	1367.428	1031.918
51.286	13.864	1365.733	1031.174
52.301	13.834	1364.322	1029.836
53.315	13.758	1363.395	1028.569
54.330	13.733	1362.816	1027.886
55.344	13.722	1361.401	1026.663
56.359	13.657	1360.085	1025.174
57.374	13.670	1359.974	1025.081
58.388	13.553	1359.398	1023.834
59.403	13.687	1358.374	1023.799
60.417	13.598	1357.719	1022.670
61.432	13.571	1357.328	1022.114
62.447	13.509	1355.859	1020.536
63.461	13.602	1354.836	1020.251
64.476	13.611	1353.774	1019.412
65.490	13.668	1352.226	1018.507
66.505	13.505	1351.294	1016.715
67.520	13.592	1349.568	1015.859
68.534	13.624	1348.329	1015.037
69.549	13.541	1347.728	1013.983
70.563	13.607	1346.319	1013.236
71.578	13.566	1345.094	1011.975
72.593	13.519	1344.190	1010.920
73.607	13.549	1343.661	1010.613
74.622	13.466	1342.739	1009.328
75.636	13.555	1341.861	1009.118
76.651	13.432	1341.159	1007.751
77.666	13.475	1340.890	1007.721
78.680	13.549	1340.077	1007.475
79.695	13.587	1339.460	1007.149
80.709	13.486	1338.728	1005.898
81.724	13.502	1337.828	1005.231
82.739	13.598	1336.495	1004.719
83.753	13.654	1335.943	1004.554
84.768	13.690	1334.622	1003.696
85.782	13.715	1333.369	1002.815
86.797	13.678	1332.160	1001.594
87.812	13.741	1330.826	1000.880
88.826	13.671	1329.487	999.360
89.841	13.772	1328.192	998.909
90.855	13.726	1327.849	998.285
91.870	13.803	1326.953	997.987
92.884	13.785	1326.157	997.189
93.899	13.814	1325.124	996.500
94.914	13.813	1324.202	995.716
95.928	13.918	1323.154	995.464
96.943	13.788	1322.736	994.284
97.957	13.604	1321.590	992.236
98.972	13.747	1320.763	992.381
99.987	13.807	1319.613	991.786
101.001	13.732	1318.522	990.431
102.016	13.790	1317.018	989.562
103.030	13.717	1316.823	988.891
104.045	13.775	1315.702	988.305
105.060	13.764	1314.625	987.343
106.074	13.678	1313.102	985.603
107.089	13.669	1312.140	984.743
108.103	13.668	1310.660	983.537
109.118	13.751	1309.284	982.908
110.133	13.592	1307.787	980.756
111.147	13.689	1306.384	980.190
112.162	13.770	1304.987	979.535
113.176	13.734	1303.802	978.345
114.191	13.749	1303.378	978.029
115.206	13.724	1302.135	976.866
116.220	13.815	1300.189	975.855
117.235	13.736	1299.448	974.748
118.249	13.687	1298.629	973.755
119.264	13.738	1297.024	972.766
120.279	13.709	1296.256	971.935
121.293	13.666	1295.016	970.666
122.308	13.636	1294.634	970.123
123.322	13.651	1293.008	968.900
124.337	13.632	1291.982	967.938
125.352	13.563	1290.935	966.667
126.366	13.774	1289.275	966.568
127.381	13.748	1288.203	965.528
128.395	13.659	1287.505	964.398
129.410	13.747	1286.397	963.995
130.424	13.698	1285.847	963.212
131.439	13.792	1284.582	962.724
132.454	13.725	1283.552	961.482
133.468	13.774	1282.635	960.995
134.483	13.717	1282.179	960.234
135.497	13.800	1280.640	959.478
136.512	13.823	1279.152	958.411
137.527	13.711	1278.305	957.048
138.541	13.730	1277.003	956.094
139.556	13.692	1275.540	954.695
140.570	13.750	1274.586	954.233
141.585	13.777	1273.075	953.169
142.600	13.759	1272.128	952.276
143.614	13.887	1271.185	952.217
144.629	13.840	1269.735	950.779
145.643	13.828	1269.090	950.144
146.658	13.762	1268.045	948.898
147.673	13.748	1266.414	947.515
148.687	13.784	1265.067	946.631
149.702	13.824	1263.596	945.671
150.716	13.907	1262.127	944.959
151.731	13.905	1260.771	943.852
152.746	13.814	1260.126	942.770
153.760	13.932	1258.822	942.379
154.775	13.948	1257.440	941.348
155.789	13.860	1256.707	940.222
156.804	13.965	1255.589	939.895
157.819	13.994	1254.287	938.999
158.833	14.036	1253.561	938.613
159.848	14.162	1252.298	938.294
160.862	14.068	1252.097	937.530
161.877	14.013	1250.496	935.939
162.892	13.991	1249.726	935.154
163.906	13.933	1249.052	934.244
164.921	13.922	1247.902	933.236
165.935	14.028	1246.583	932.764
166.950	14.028	1246.230	932.416
167.964	13.919	1245.726	931.344
168.979	14.029	1244.760	931.160
169.994	13.970	1243.944	930.134
171.008	14.069	1243.005	929.903
172.023	14.067	1242.344	929.315
173.037	14.154	1241.176	928.849
174.052	14.208	1240.425	928.503
175.067	14.172	1239.121	927.245
176.081	14.129	1238.369	926.361
177.096	14.102	1237.269	925.305
178.110	14.233	1236.116	925.090
179.125	14.137	1235.022	923.655
180.140	14.201	1233.850	923.053
181.154	14.131	1232.796	921.795
182.169	14.100	1231.514	920.585
183.183	14.250	1229.942	920.154
184.198	14.215	1228.760	918.996
185.213	14.266	1227.820	918.493
186.227	14.284	1226.866	917.798
187.242	14.276	1226.038	917.053
188.256	14.350	1224.979	916.589
189.271	14.403	1223.524	915.707
190.286	14.248	1222.846	914.268
191.300	14.172	1222.108	913.217
192.315	14.239	1221.431	912.999
193.329	14.263	1220.837	912.609
194.344	14.285	1220.238	912.196
195.359	14.173	1220.037	911.352
196.373	14.364	1218.415	911.105
197.388	14.322	1218.706	911.012
198.402	14.325	1218.166	910.546
199.417	14.370	1217.598	910.288
200.432	14.509	1216.102	909.848
201.446	14.465	1215.353	908.965
202.461	14.466	1214.530	908.276
203.475	14.489	1213.619	907.636
204.490	14.520	1211.871	906.420
205.504	14.559	1210.691	905.667
206.519	14.547	1209.540	904.662
207.534	14.572	1208.304	903.795
208.548	14.560	1207.586	903.112
209.563	14.493	1206.887	902.147
210.577	14.538	1206.054	901.688
211.592	14.631	1205.301	901.548
212.607	14.585	1204.002	900.246
213.621	14.721	1203.485	900.512
214.636	14.612	1202.638	899.214
215.650	14.578	1201.646	898.209
216.665	14.745	1200.284	898.009
217.680	14.735	1199.561	897.334
218.694	14.791	1198.906	897.069
219.709	14.786	1198.025	896.303
220.723	14.840	1197.047	895.781
221.738	14.780	1196.533	894.995
222.753	14.747	1196.104	894.419
223.767	14.861	1195.261	894.319
224.782	14.818	1194.493	893.431
225.796	14.931	1193.959	893.558
226.811	14.903	1192.974	892.594
227.826	14.881	1192.510	892.051
228.840	14.825	1191.790	891.134
229.855	14.844	1190.804	890.417
230.869	14.806	1190.072	889.591
231.884	14.845	1188.985	888.906
232.899	14.894	1188.279	888.562
233.913	14.854	1188.013	888.073
234.928	14.820	1186.599	886.757
235.942	14.888	1186.322	886.830
236.957	14.877	1185.595	886.152
237.972	14.869	1184.809	885.442
238.986	14.877	1183.945	884.758
240.001	14.957	1183.281	884.608
241.015	14.870	1182.789	883.701
242.030	14.946	1181.685	883.199
243.045	15.024	1180.720	882.815
244.059	14.951	1180.103	881.888
245.074	15.024	1179.190	881.515
246.088	15.028	1178.685	881.079
247.103	15.118	1177.413	880.522
248.117	15.087	1176.601	879.677
249.132	15.166	1175.983	879.548
250.147	15.145	1175.522	879.017
251.161	15.276	1174.587	878.928
252.176	15.237	1174.204	878.356
253.190	15.176	1173.562	877.481
254.205	15.254	1172.955	877.359
255.220	15.244	1172.456	876.854
256.234	15.241	1171.625	876.139
257.249	15.321	1170.690	875.783
258.263	15.370	1170.160	875.563
259.278	15.269	1169.519	874.476
260.293	15.318	1169.160	874.390
261.307	15.416	1168.315	874.187
262.322	15.584	1167.552	874.416
263.336	15.435	1167.285	873.362
264.351	15.393	1166.751	872.668
265.366	15.506	1166.178	872.751
266.380	15.577	1164.591	871.851
267.395	15.485	1164.215	871.019
268.409	15.524	1163.221	870.396
269.424	15.512	1162.753	869.908
270.439	15.536	1162.151	869.504
271.453	15.589	1161.157	868.961
272.468	15.538	1160.328	867.999
273.482	15.522	1159.853	867.483
274.497	15.531	1159.301	867.042
275.512	15.518	1158.574	866.352
276.526	15.624	1157.394	865.939
277.541	15.608	1156.862	865.386
278.555	15.622	1156.227	864.904
279.570	15.689	1155.453	864.594
280.585	15.732	1154.433	863.975
281.599	15.807	1153.644	863.690
282.614	15.662	1152.660	862.134
283.628	15.645	1151.550	861.140
284.643	15.709	1150.708	860.762
285.657	15.727	1150.276	860.456
286.672	15.810	1148.445	859.435
287.687	15.665	1147.954	858.251
288.701	15.691	1147.776	858.175
289.716	15.762	1146.988	857.869
290.730	15.910	1145.533	857.460
291.745	15.810	1144.909	856.410
292.760	15.999	1144.205	856.769
293.774	15.831	1143.904	855.614
294.789	15.949	1142.770	855.289
295.803	15.973	1142.509	855.140
296.818	15.962	1141.719	854.417
297.833	15.883	1140.966	853.379
298.847	15.887	1140.235	852.776
299.862	15.901	1139.348	852.105
300.876	15.984	1138.296	851.663
301.891	16.061	1138.033	851.782
302.906	16.102	1137.183	851.278
303.920	16.094	1136.582	850.710
304.935	16.026	1136.257	850.047
305.949	16.227	1135.031	850.068
306.964	16.207	1134.802	849.724
307.979	16.215	1133.475	848.691
308.993	16.202	1133.066	848.244
310.008	16.340	1132.097	848.140
311.022	16.321	1131.444	847.477
312.037	16.438	1130.317	847.149
313.052	16.160	1129.452	845.029
314.066	16.216	1128.635	844.623
315.081	16.242	1127.737	844.011
316.095	16.188	1127.302	843.340
317.110	16.252	1126.808	843.215
318.125	16.173	1126.134	842.239
319.139	16.181	1125.548	841.768
320.154	16.218	1124.508	841.099
321.168	16.191	1124.325	840.752
322.183	16.257	1123.545	840.425
323.197	16.278	1122.592	839.740
324.212	16.312	1121.956	839.362
325.227	16.318	1121.317	838.840
326.241	16.260	1120.830	838.114
327.256	16.310	1120.119	837.756
328.270	16.287	1118.941	836.685
329.285	16.396	1117.962	836.421
330.300	16.348	1117.202	835.538
331.314	16.291	1116.228	834.454
332.329	16.422	1115.046	834.145
333.343	16.367	1114.308	833.246
334.358	16.374	1113.338	832.485
335.373	16.441	1112.911	832.418
336.387	16.528	1111.983	832.082
337.402	16.436	1111.156	830.937
338.416	16.517	1110.711	830.924
339.431	16.528	1109.865	830.275
340.446	16.557	1109.262	829.890
341.460	16.531	1108.772	829.324
342.475	16.589	1107.955	828.925
343.489	16.609	1106.881	828.147
344.504	16.674	1105.721	827.523
345.519	16.653	1104.900	826.734
346.533	16.680	1104.328	826.360
347.548	16.686	1103.794	825.921
348.562	16.667	1102.769	824.985
349.577	16.666	1102.202	824.485
350.592	16.708	1101.261	823.911
351.606	16.749	1100.364	823.367
352.621	16.663	1099.675	822.364
353.635	16.701	1099.062	822.014
354.650	16.805	1098.456	821.991
355.665	16.848	1097.425	821.356
356.679	16.877	1097.178	821.238
357.694	16.746	1096.772	820.227
358.708	16.833	1095.736	819.802
359.723	16.808	1095.006	819.063
360.738	16.879	1094.731	819.128
361.752	16.886	1094.240	818.723
362.767	16.841	1093.345	817.761
363.781	16.975	1092.548	817.742
364.796	16.880	1092.431	817.121
365.810	17.008	1091.258	816.790
366.825	17.006	1091.337	816.765
367.840	16.993	1090.566	816.054
368.854	16.945	1090.264	815.526
369.869	17.078	1089.164	815.267
370.883	17.027	1088.272	814.284
371.898	17.163	1087.377	814.194
372.913	17.088	1086.960	813.449
373.927	17.221	1086.518	813.685
374.942	17.149	1086.106	812.958
375.956	17.107	1085.720	812.399
376.971	17.100	1085.087	811.818
377.986	17.083	1084.681	811.364
379.000	17.169	1083.775	811.022
380.015	17.194	1083.017	810.506
381.029	17.280	1082.588	810.521
382.044	17.231	1081.658	809.519
383.059	17.135	1081.184	808.637
384.073	17.421	1080.185	809.179
385.088	17.285	1079.107	807.652
386.102	17.307	1078.210	807.016
387.117	17.378	1077.448	806.708
388.132	17.284	1076.365	805.381
389.146	17.248	1075.962	804.839
390.161	17.279	1075.462	804.541
391.175	17.353	1074.188	803.866
392.190	17.403	1073.638	803.618
393.205	17.426	1073.095	803.252
394.219	17.324	1072.327	802.124
395.234	17.397	1071.406	801.705
396.248	17.334	1070.344	800.543
397.263	17.438	1069.165	800.083
398.278	17.349	1068.817	799.333
399.292	17.454	1068.024	799.159
400.307	17.354	1067.431	798.179
401.321	17.331	1067.011	797.684
402.336	17.443	1066.445	797.716
403.350	17.411	1065.261	796.608
404.365	17.480	1064.593	796.364
405.380	17.526	1063.737	795.866
406.394	17.495	1063.255	795.290
407.409	17.528	1062.541	794.841
408.423	17.552	1061.775	794.310
409.438	17.538	1060.987	793.583
410.453	17.609	1060.315	793.341
411.467	17.741	1059.253	793.089
412.482	17.841	1058.771	793.125
413.496	17.722	1058.083	791.988
414.511	17.777	1056.912	791.297
415.526	17.834	1056.913	791.490
416.540	17.792	1056.821	791.159
417.555	17.884	1055.913	790.835
418.569	17.788	1055.965	790.359
419.584	17.862	1055.137	790.010
420.599	17.848	1054.440	789.356
421.613	106.534	1327.575	1479.971
422.628	98.201	1367.324	1480.097
