DTS Sentinel unit serial number:	SN413079Multiplexer serial number:	ORYXHardware model number:	OX4-SRSoftware version number:	ORYX F/W v4.00 Oryx Data Collector v3.7.2.0data status	okinstallation	princeton_trtdifferential loss correction	single-endedforward channel	channel 2reverse channel	N/Adate	2019/09/15time	00:39:34forward acquisition time	60.00reverse acquisition time	0.00gamma	496.2192k internal	0.2324k external	0.2324temperature offset calibration	1.0039default loss term (dB/km)	0.3790temperature slope calibration	1.0000multiplexer offset coefficient	1.0000multiplexer slope coefficient	1.0000fibre end	0.00T internal ref (°C)	32.09T ext. ref 1 (°C)	4.56T ext. ref 2 (°C)	27.11length (m)	temperature (°C)	Stokes	anti-Stokes-747.200	204.799	-0.119	0.186
-746.185	-200.000	0.014	-0.093
-745.171	-200.000	0.031	-0.276
-744.156	-200.000	0.010	-0.083
-743.142	-20.845	0.191	-0.118
-742.127	307.774	0.156	0.293
-741.112	-94.013	0.045	-0.012
-740.098	-164.210	-0.314	0.015
-739.083	-15.909	0.059	-0.038
-738.069	-31.976	-0.128	0.072
-737.054	272.455	0.100	-0.178
-736.039	-66.125	-0.152	-0.061
-735.025	-200.000	-0.007	0.101
-734.010	-97.520	-0.289	-0.076
-732.996	-19.603	-0.040	-0.025
-731.981	633.141	0.128	-0.326
-730.966	-78.645	-0.230	-0.079
-729.952	12.816	-0.230	-0.179
-728.937	-6.046	-0.238	-0.164
-727.923	-25.424	0.295	0.176
-726.908	-148.135	-0.213	-0.018
-725.894	-68.871	0.104	-0.041
-724.879	800.000	0.070	0.206
-723.864	-200.000	-0.055	-0.259
-722.850	350.950	0.060	-0.120
-721.835	300.392	-0.182	0.338
-720.821	166.351	0.169	-0.242
-719.806	-58.231	0.068	0.030
-718.791	93.468	-0.304	-0.347
-717.777	7.676	0.231	-0.175
-716.762	-143.286	0.185	0.018
-715.748	-109.993	-0.252	-0.053
-714.733	194.932	0.101	0.154
-713.718	245.448	-0.200	-0.340
-712.704	1.803	-0.380	0.276
-711.689	34.605	0.099	0.088
-710.675	-82.612	-0.300	0.098
-709.660	624.622	-0.024	-0.061
-708.645	510.584	0.072	0.169
-707.631	-200.000	-0.025	-0.261
-706.616	54.700	-0.146	0.142
-705.602	-88.366	-0.093	-0.028
-704.587	41.932	-0.149	0.137
-703.572	-171.856	0.386	0.013
-702.558	296.792	0.130	-0.241
-701.543	115.905	0.055	0.068
-700.529	-199.781	0.085	-0.000
-699.514	800.000	-0.038	0.116
-698.499	417.746	0.118	0.255
-697.485	377.782	-0.076	-0.157
-696.470	-200.000	-0.001	-0.127
-695.456	-112.338	-0.142	0.029
-694.441	-64.786	-0.033	0.014
-693.426	189.762	-0.166	-0.251
-692.412	-165.853	-0.140	-0.006
-691.397	-132.217	-0.198	-0.026
-690.383	-36.623	-0.044	-0.024
-689.368	606.923	0.105	-0.265
-688.354	-123.907	-0.238	-0.038
-687.339	-200.000	-0.014	-0.105
-686.324	-66.699	-0.209	0.083
-685.310	800.000	-0.062	0.255
-684.295	393.571	-0.067	-0.140
-683.281	-200.000	0.043	0.237
-682.266	476.299	-0.073	-0.167
-681.251	-89.794	0.232	0.068
-680.237	800.000	-0.035	-0.112
-679.222	4.556	0.416	-0.307
-678.208	-181.858	0.154	-0.003
-677.193	514.143	0.070	-0.164
-676.178	534.916	-0.135	0.321
-675.164	-91.591	0.164	-0.047
-674.149	-200.000	0.026	-0.236
-673.135	-71.540	0.219	-0.082
-672.120	-200.000	-0.161	-0.887
-671.105	-68.346	-0.232	-0.091
-670.091	698.082	-0.071	-0.187
-669.076	-200.000	0.012	0.221
-668.062	-79.276	-0.228	0.078
-667.047	-137.948	0.200	-0.022
-666.032	249.210	-0.132	-0.226
-665.018	-88.454	0.227	-0.068
-664.003	-94.383	-0.323	-0.089
-662.989	-119.891	0.236	0.041
-661.974	666.023	0.163	-0.424
-660.959	81.717	0.073	-0.080
-659.945	-200.000	0.066	-0.335
-658.930	-127.909	0.171	-0.025
-657.916	-120.316	0.264	0.045
-656.901	-200.000	-0.034	0.418
-655.886	-154.914	0.530	0.035
-654.872	22.617	-0.221	-0.182
-653.857	-200.000	-0.011	-0.058
-652.843	269.210	-0.083	0.146
-651.828	-73.635	-0.136	0.050
-650.814	398.332	0.093	-0.195
-649.799	341.081	-0.087	-0.171
-648.784	-80.109	0.217	-0.073
-647.770	-119.027	-0.394	-0.069
-646.755	26.426	-0.121	0.102
-645.741	-121.987	0.238	0.039
-644.726	33.816	-0.197	-0.173
-643.711	-200.000	-0.040	0.215
-642.697	-88.794	-0.412	-0.123
-641.682	-200.000	-0.004	-0.233
-640.668	187.956	0.079	0.119
-639.653	-50.838	0.152	0.072
-638.638	214.247	0.107	-0.171
-637.624	195.943	-0.113	-0.173
-636.609	-200.000	0.007	-0.500
-635.595	157.573	-0.085	0.119
-634.580	-126.827	-0.050	-0.007
-633.565	-71.622	-0.186	-0.070
-632.551	-200.000	0.012	0.071
-631.536	-200.000	0.024	-0.297
-630.522	118.410	-0.166	0.206
-629.507	-154.821	-0.321	-0.021
-628.492	-121.387	0.304	0.051
-627.478	229.154	0.080	0.132
-626.463	-172.334	0.288	-0.009
-625.449	229.699	0.032	-0.052
-624.434	611.549	-0.106	-0.266
-623.419	-137.817	0.132	-0.015
-622.405	-20.399	0.119	-0.073
-621.390	-127.198	0.304	0.045
-620.376	800.000	-0.038	-0.129
-619.361	-114.377	0.114	0.022
-618.346	113.348	0.141	-0.172
-617.332	-136.255	-0.197	0.023
-616.317	10.579	0.050	0.039
-615.303	285.841	-0.097	0.176
-614.288	152.888	0.020	0.028
-613.273	-139.493	0.232	-0.025
-612.259	-90.501	-0.210	0.061
-611.244	409.142	0.036	0.076
-610.230	196.319	-0.008	0.013
-609.215	-92.624	-0.136	-0.038
-608.201	-5.095	-0.190	-0.131
-607.186	471.651	-0.116	-0.262
-606.171	321.223	0.210	0.400
-605.157	188.223	-0.123	0.185
-604.142	-200.000	-0.006	-0.288
-603.128	655.250	0.062	-0.159
-602.113	-72.019	0.174	0.065
-601.098	1.905	-0.239	0.173
-600.084	-134.829	0.149	-0.018
-599.069	-158.046	0.148	0.009
-598.055	-200.000	-0.012	-0.227
-597.040	-35.769	0.097	-0.052
-596.025	320.941	-0.039	-0.073
-595.011	-200.000	-0.011	0.135
-593.996	-200.000	-0.021	0.175
-592.982	-27.118	0.068	0.040
-591.967	-11.255	0.406	-0.269
-590.952	-117.087	-0.424	0.078
-589.938	416.222	-0.095	-0.203
-588.923	192.763	-0.177	0.268
-587.909	520.941	-0.059	0.138
-586.894	-75.442	0.045	-0.016
-585.879	-30.847	-0.224	-0.127
-584.865	-12.944	0.245	-0.160
-583.850	-200.000	-0.030	-0.200
-582.836	-163.552	-0.365	-0.017
-581.821	-40.593	0.148	0.077
-580.806	800.000	0.028	-0.110
-579.792	-200.000	-0.031	0.268
-578.777	800.000	-0.026	0.093
-577.763	-111.683	0.025	0.005
-576.748	-200.000	-0.028	0.213
-575.733	284.118	-0.211	0.380
-574.719	-40.906	-0.154	0.080
-573.704	30.415	0.109	-0.093
-572.690	-105.222	-0.154	-0.035
-571.675	69.055	-0.144	-0.148
-570.661	-200.000	-0.039	0.282
-569.646	159.621	0.113	0.158
-568.631	12.882	-0.134	-0.104
-567.617	763.485	-0.052	-0.140
-566.602	152.987	-0.095	-0.131
-565.588	-200.000	-0.048	-0.234
-564.573	5.196	0.129	0.096
-563.558	459.124	0.021	0.046
-562.544	-200.000	0.062	-0.517
-561.529	555.706	0.081	0.196
-560.515	-131.707	0.118	0.016
-559.500	43.196	0.216	-0.198
-558.485	84.877	-0.120	0.132
-557.471	580.461	-0.123	-0.302
-556.456	-81.542	-0.448	-0.148
-555.442	800.000	-0.057	0.158
-554.427	-151.504	-0.184	0.014
-553.412	-106.746	0.269	0.060
-552.398	246.767	0.085	0.144
-551.383	-21.545	0.232	-0.142
-550.369	-60.702	-0.200	-0.085
-549.354	2.515	-0.136	0.099
-548.339	-34.933	-0.430	-0.235
-547.325	-126.543	0.155	-0.023
-546.310	182.478	0.070	-0.104
-545.296	380.640	0.150	-0.309
-544.281	-121.340	-0.150	-0.025
-543.266	800.000	-0.069	0.215
-542.252	-200.000	-0.010	0.128
-541.237	10.891	0.241	-0.184
-540.223	422.608	-0.147	-0.316
-539.208	38.328	-0.213	0.190
-538.193	136.951	-0.065	0.085
-537.179	19.484	-0.042	-0.034
-536.164	-53.697	-0.214	0.098
-535.150	-113.609	0.187	-0.037
-534.135	79.069	0.242	0.260
-533.121	-31.445	0.125	-0.070
-532.106	-200.000	-0.048	-0.251
-531.091	630.217	-0.090	0.228
-530.077	-200.000	-0.056	0.313
-529.062	-200.000	0.004	-0.300
-528.048	-200.000	0.029	-0.161
-527.033	800.000	-0.069	-0.202
-526.018	-33.341	-0.125	0.069
-525.004	115.200	0.196	-0.239
-523.989	-122.311	0.239	-0.039
-522.975	-75.455	-0.240	0.086
-521.960	800.000	-0.038	-0.106
-520.945	274.863	0.081	-0.144
-519.931	30.115	-0.250	0.213
-518.916	-200.000	-0.059	0.268
-517.902	286.473	0.050	0.091
-516.887	-173.523	0.062	0.002
-515.872	98.348	0.080	0.092
-514.858	-200.000	0.024	0.212
-513.843	-128.054	-0.268	-0.038
-512.829	53.119	-0.075	-0.072
-511.814	-127.486	-0.207	0.030
-510.799	125.081	-0.201	-0.253
-509.785	-42.853	-0.222	-0.113
-508.770	800.000	0.035	-0.131
-507.756	107.010	0.051	0.061
-506.741	384.509	-0.177	-0.366
-505.726	170.902	0.073	-0.105
-504.712	101.886	-0.067	0.079
-503.697	579.426	0.045	-0.110
-502.683	800.000	0.075	0.235
-501.668	324.281	0.048	0.093
-500.653	21.248	0.079	-0.064
-499.639	-38.133	0.311	-0.165
-498.624	-101.005	-0.223	0.055
-497.610	800.000	0.112	-0.326
-496.595	-200.000	0.083	-0.440
-495.581	-85.685	-0.338	-0.105
-494.566	-89.405	0.099	-0.029
-493.551	257.972	-0.066	0.113
-492.537	358.061	-0.068	-0.136
-491.522	-80.600	0.284	0.095
-490.508	-200.000	-0.060	-0.270
-489.493	-161.698	-0.038	-0.002
-488.478	800.000	-0.033	0.102
-487.464	-138.267	0.239	-0.026
-486.449	-81.963	-0.139	-0.046
-485.435	-200.000	-0.017	0.144
-484.420	8.287	0.157	-0.118
-483.405	-12.539	-0.073	0.048
-482.391	-4.170	0.055	0.038
-481.376	68.110	-0.199	-0.203
-480.362	-174.234	0.187	0.005
-479.347	444.316	-0.083	0.182
-478.332	175.527	-0.054	-0.078
-477.318	-83.603	-0.299	-0.096
-476.303	193.786	0.119	0.180
-475.289	-200.000	-0.059	0.311
-474.274	-200.000	0.011	0.064
-473.259	800.000	-0.037	0.131
-472.245	-94.715	-0.376	0.102
-471.230	-30.934	0.176	-0.099
-470.216	-109.111	0.041	-0.009
-469.201	-200.000	0.000	0.110
-468.186	-39.778	-0.369	0.193
-467.172	800.000	0.085	-0.321
-466.157	-60.410	0.129	-0.055
-465.143	11.561	0.209	-0.160
-464.128	-8.124	-0.167	-0.112
-463.113	-200.000	-0.053	0.377
-462.099	451.815	0.128	0.283
-461.084	-200.000	-0.006	0.260
-460.070	233.697	0.038	0.063
-459.055	-101.169	0.104	-0.025
-458.040	272.864	-0.105	-0.185
-457.026	-200.000	0.015	-0.096
-456.011	-200.000	0.216	0.000
-454.997	116.209	-0.166	0.202
-453.982	-100.496	-0.113	-0.028
-452.968	-200.000	-0.000	-0.119
-451.953	-57.516	-0.225	-0.098
-450.938	-200.000	-0.073	0.362
-449.924	147.248	0.012	0.016
-448.909	119.026	-0.202	0.249
-447.895	193.388	-0.060	-0.091
-446.880	97.430	0.060	0.069
-445.865	-58.207	0.135	-0.058
-444.851	232.990	0.138	-0.226
-443.836	-200.000	-0.057	0.482
-442.822	-41.006	-0.183	-0.094
-441.807	157.353	0.142	0.195
-440.792	-95.735	-0.010	-0.003
-439.778	24.409	-0.220	-0.181
-438.763	800.000	-0.086	0.246
-437.749	800.000	0.048	-0.144
-436.734	-57.875	-0.181	-0.079
-435.719	800.000	0.011	-0.035
-434.705	-200.000	0.038	-0.219
-433.690	63.816	0.148	0.148
-432.676	95.198	-0.269	-0.305
-431.661	320.247	-0.157	0.298
-430.646	27.210	-0.393	-0.329
-429.632	597.949	-0.057	-0.141
-428.617	95.123	-0.084	-0.095
-427.603	-192.435	-0.121	0.001
-426.588	44.138	-0.106	-0.097
-425.573	-200.000	-0.017	-0.117
-424.559	-156.710	0.423	-0.026
-423.544	800.000	-0.094	-0.261
-422.530	99.627	0.342	-0.394
-421.515	144.007	-0.205	-0.273
-420.500	185.081	-0.069	0.102
-419.486	63.083	0.072	0.072
-418.471	-167.098	0.293	0.012
-417.457	705.811	-0.088	0.231
-416.442	-12.524	0.496	0.323
-415.428	184.152	-0.137	-0.203
-414.413	-51.480	-0.249	-0.116
-413.398	675.484	0.083	-0.215
-412.384	800.000	0.063	0.224
-411.369	-200.000	-0.042	0.224
-410.355	-59.211	0.434	-0.187
-409.340	-26.386	-0.176	-0.103
-408.325	-200.000	-0.041	-0.219
-407.311	-162.210	-0.102	-0.005
-406.296	59.672	0.155	0.152
-405.282	196.223	0.240	0.364
-404.267	127.530	0.193	-0.245
-403.252	-200.000	0.024	-0.200
-402.238	122.356	0.052	-0.065
-401.223	67.037	-0.069	0.070
-400.209	336.030	-0.200	-0.386
-399.194	-68.960	0.155	-0.060
-398.179	-120.310	-0.349	0.059
-397.165	-42.511	0.165	0.084
-396.150	800.000	0.018	0.061
-395.136	-167.795	-0.409	-0.016
-394.121	63.860	0.183	-0.183
-393.106	95.257	-0.105	-0.120
-392.092	800.000	0.117	0.404
-391.077	-149.472	0.070	-0.006
-390.063	-93.085	0.045	0.013
-389.048	-146.844	0.469	0.040
-388.033	-72.986	0.149	0.054
-387.019	-200.000	-0.006	-0.241
-386.004	237.696	0.176	-0.291
-384.990	-116.377	0.137	0.025
-383.975	-76.635	-0.301	-0.105
-382.960	275.199	-0.033	-0.058
-381.946	226.893	0.033	0.054
-380.931	767.945	0.114	-0.309
-379.917	-97.201	-0.203	0.053
-378.902	-200.000	0.027	-0.274
-377.888	-60.409	-0.390	0.165
-376.873	177.846	-0.146	-0.212
-375.858	-49.008	-0.112	-0.053
-374.844	503.890	0.073	0.168
-373.829	-53.828	0.035	-0.016
-372.815	-200.000	-0.047	0.257
-371.800	-200.000	-0.039	0.389
-370.785	-3.591	0.032	-0.022
-369.771	-200.000	-0.024	0.180
-368.756	800.000	-0.093	0.261
-367.742	-162.290	0.191	-0.009
-366.727	-200.000	-0.007	-0.082
-365.712	302.456	0.134	-0.246
-364.698	-66.710	-0.305	0.120
-363.683	-135.637	0.304	-0.036
-362.669	75.449	0.039	0.041
-361.654	-78.012	-0.219	-0.075
-360.639	800.000	-0.061	0.176
-359.625	65.051	0.289	0.290
-358.610	-174.988	-0.436	0.012
-357.596	-200.000	-0.055	0.292
-356.581	1.178	0.195	0.139
-355.566	800.000	0.076	0.264
-354.552	800.000	0.111	0.379
-353.537	305.797	-0.040	-0.074
-352.523	-127.631	-0.231	-0.033
-351.508	-200.000	0.039	0.231
-350.493	67.767	-0.192	0.195
-349.479	116.306	0.199	-0.243
-348.464	-93.330	0.078	0.021
-347.450	-185.335	0.146	0.002
-346.435	97.386	0.078	-0.089
-345.420	-148.327	-0.221	-0.018
-344.406	525.724	-0.161	0.376
-343.391	800.000	-0.026	-0.092
-342.377	90.921	-0.143	-0.160
-341.362	9.297	0.172	-0.130
-340.348	204.383	-0.100	-0.155
-339.333	188.519	-0.162	-0.241
-338.318	79.347	-0.149	0.159
-337.304	-35.200	0.215	-0.116
-336.289	245.797	0.185	-0.310
-335.275	310.770	-0.082	-0.152
-334.260	-200.000	-0.017	0.188
-333.245	-43.358	-0.030	0.015
-332.231	-200.000	-0.025	0.111
-331.216	-29.486	0.420	-0.238
-330.202	-200.000	-0.067	-0.683
-329.187	292.182	0.155	-0.280
-328.172	76.383	-0.074	0.077
-327.158	-46.311	-0.102	0.050
-326.143	-200.000	-0.064	0.357
-325.129	59.879	-0.302	0.297
-324.114	800.000	0.116	0.340
-323.099	-9.427	-0.102	-0.068
-322.085	-171.320	-0.291	-0.010
-321.070	-5.796	0.294	0.200
-320.056	-200.000	-0.028	-0.195
-319.041	46.955	-0.256	0.236
-318.026	3.356	-0.196	-0.142
-317.012	-59.668	-0.184	-0.078
-315.997	1.288	-0.126	0.090
-314.983	4.147	-0.013	-0.009
-313.968	-10.375	-0.066	-0.043
-312.953	-26.952	-0.232	-0.134
-311.939	-119.237	-0.214	-0.037
-310.924	-200.000	-0.005	0.216
-309.910	400.953	-0.081	0.168
-308.895	86.555	0.087	0.095
-307.880	132.847	0.050	0.064
-306.866	612.035	0.073	-0.182
-305.851	-200.000	-0.011	0.363
-304.837	324.398	-0.010	0.020
-303.822	-150.185	-0.306	0.024
-302.807	30.248	-0.081	-0.069
-301.793	800.000	0.090	-0.277
-300.778	176.028	0.231	-0.333
-299.764	-131.555	0.470	0.061
-298.749	36.081	0.152	-0.133
-297.735	-109.099	-0.132	0.028
-296.720	156.521	-0.034	0.047
-295.705	-117.709	-0.539	0.096
-294.691	434.689	0.155	0.334
-293.676	-189.620	-0.332	0.004
-292.662	-166.987	0.139	-0.006
-291.647	-75.004	-0.222	-0.079
-290.632	574.151	0.074	0.178
-289.618	-200.000	0.049	-0.232
-288.603	68.499	-0.121	0.124
-287.589	-200.000	0.069	0.448
-286.574	-38.214	-0.161	0.085
-285.559	-200.000	-0.001	-0.209
-284.545	-7.148	0.230	-0.155
-283.530	-200.000	0.044	0.407
-282.516	-23.707	-0.094	-0.056
-281.501	645.462	0.064	-0.162
-280.486	107.729	0.097	0.115
-279.472	-65.113	-0.103	0.041
-278.457	64.955	0.145	-0.145
-277.443	33.000	0.122	0.104
-276.428	-53.686	0.208	0.094
-275.413	-52.967	-0.169	-0.077
-274.399	114.307	0.253	0.305
-273.384	370.925	-0.108	0.217
-272.370	122.313	0.205	-0.254
-271.355	-162.086	0.279	0.014
-270.340	-119.092	-0.012	0.002
-269.326	599.356	0.044	0.109
-268.311	126.242	-0.128	0.160
-267.297	-38.972	0.382	0.199
-266.282	663.505	0.049	-0.124
-265.267	-86.335	-0.365	-0.111
-264.253	245.543	-0.085	0.142
-263.238	-112.717	0.158	0.031
-262.224	66.891	-0.048	0.048
-261.209	371.590	0.082	0.165
-260.195	800.000	-0.139	0.473
-259.180	-147.135	0.448	0.038
-258.165	10.622	0.107	-0.081
-257.151	150.511	0.157	0.212
-256.136	-200.000	0.006	0.106
-255.122	-60.210	0.160	-0.067
-254.107	-68.653	0.234	-0.090
-253.092	-22.988	0.270	0.161
-252.078	60.936	-0.146	0.144
-251.063	-68.240	-0.214	-0.082
-250.049	-113.615	0.070	0.014
-249.034	-26.470	0.206	0.120
-248.019	200.012	0.068	-0.103
-247.005	-142.411	0.261	0.025
-245.990	170.357	0.081	0.114
-244.976	218.961	0.170	-0.269
-243.961	-119.391	0.227	0.039
-242.946	112.966	-0.012	-0.015
-241.932	-41.389	0.252	0.128
-240.917	93.615	0.122	-0.137
-239.903	30.849	0.035	-0.030
-238.888	137.403	-0.091	0.118
-237.873	-139.165	-0.226	0.024
-236.859	-85.488	-0.082	0.025
-235.844	-200.000	-0.026	0.167
-234.830	-110.618	0.115	-0.024
-233.815	-79.195	0.294	0.099
-232.800	-94.339	-0.468	-0.127
-231.786	-121.051	0.452	0.075
-230.771	-113.698	-0.167	0.032
-229.757	800.000	0.014	-0.045
-228.742	-65.940	0.179	-0.071
-227.727	800.000	0.083	-0.242
-226.713	17.617	0.082	-0.065
-225.698	308.680	-0.078	-0.145
-224.684	114.067	0.263	-0.317
-223.669	264.979	-0.129	-0.222
-222.655	-92.628	0.249	0.069
-221.640	-169.500	0.143	-0.005
-220.625	-200.000	0.041	0.206
-219.611	92.991	-0.142	0.159
-218.596	47.000	0.262	0.241
-217.582	800.000	0.024	-0.086
-216.567	20.701	0.075	0.060
-215.552	-131.786	-0.170	0.022
-214.538	-100.621	0.120	0.029
-213.523	-40.544	0.366	0.188
-212.509	-91.715	-0.069	-0.019
-211.494	-92.516	-0.454	0.126
-210.479	-137.841	-0.454	0.050
-209.465	-22.879	0.222	0.133
-208.450	-77.240	0.283	0.097
-207.436	-200.000	0.015	0.104
-206.421	-26.475	0.211	0.122
-205.406	-200.000	-0.021	-0.136
-204.392	-152.702	0.237	0.017
-203.377	-126.662	0.413	-0.060
-202.363	181.389	0.112	0.163
-201.348	353.398	0.068	-0.134
-200.333	-121.680	0.082	-0.013
-199.319	-3.954	0.117	0.080
-198.304	-121.368	0.316	-0.052
-197.290	-58.855	0.127	0.054
-196.275	73.644	-0.129	-0.134
-195.260	-36.664	-0.043	0.023
-194.246	-200.000	-0.008	0.082
-193.231	-200.000	-0.019	-0.086
-192.217	-17.637	-0.294	-0.182
-191.202	215.986	-0.200	-0.314
-190.187	597.457	0.103	0.251
-189.173	-34.627	-0.168	0.091
-188.158	-7.133	0.212	-0.142
-187.144	800.000	-0.050	-0.208
-186.129	-154.106	0.185	0.012
-185.114	16.323	0.274	0.213
-184.100	-122.357	-0.242	-0.039
-183.085	-14.300	0.144	0.092
-182.071	27.594	-0.210	0.174
-181.056	-96.738	-0.278	-0.072
-180.042	800.000	-0.069	0.268
-179.027	411.778	-0.119	-0.249
-178.012	36.010	0.136	-0.118
-176.998	-50.482	0.120	-0.056
-175.983	203.291	-0.133	0.203
-174.969	-200.000	0.022	0.238
-173.954	-130.493	0.294	-0.039
-172.939	-21.491	0.332	0.200
-171.925	163.985	-0.025	0.035
-170.910	-159.163	0.248	-0.014
-169.896	187.738	0.232	0.342
-168.881	5.613	-0.169	-0.123
-167.866	116.294	-0.111	-0.134
-166.852	-78.942	-0.260	0.087
-165.837	-3.432	-0.123	-0.085
-164.823	-60.320	0.196	0.082
-163.808	-102.659	0.170	0.040
-162.793	224.210	-0.082	-0.130
-161.779	-200.000	-0.011	0.134
-160.764	51.051	-0.142	-0.132
-159.750	-134.959	0.313	0.037
-158.735	-50.228	0.046	0.022
-157.720	-200.000	0.013	-0.292
-156.706	400.011	0.156	-0.323
-155.691	-200.000	-0.020	0.216
-154.677	800.000	0.077	0.260
-153.662	-129.299	-0.305	-0.042
-152.647	-64.562	-0.313	-0.125
-151.633	-8.324	-0.090	0.060
-150.618	-138.764	-0.156	0.017
-149.604	-70.072	-0.094	0.035
-148.589	137.315	-0.092	0.119
-147.574	-91.092	0.222	0.063
-146.560	-48.514	-0.252	-0.120
-145.545	212.858	-0.050	0.078
-144.531	-60.415	-0.178	0.074
-143.516	-77.252	-0.123	-0.042
-142.502	-5.439	0.247	0.167
-141.487	800.000	0.057	0.221
-140.472	-100.706	0.218	0.053
-139.458	800.000	0.107	-0.345
-138.443	-200.000	0.068	-0.342
-137.429	-118.391	0.346	0.061
-136.414	-34.719	0.086	0.046
-135.399	800.000	0.029	0.105
-134.385	800.000	0.078	-0.262
-133.370	40.339	0.039	0.035
-132.356	800.000	-0.045	-0.138
-131.341	141.799	-0.133	-0.173
-130.326	-200.000	-0.005	0.250
-129.312	-7.636	-0.065	0.043
-128.297	-3.077	0.027	0.019
-127.283	-26.041	0.072	-0.042
-126.268	201.013	0.112	0.170
-125.253	-143.013	0.099	0.009
-124.239	-71.527	0.350	-0.129
-123.224	-13.171	-0.275	-0.176
-122.210	211.327	-0.070	0.109
-121.195	-89.759	0.175	-0.051
-120.180	-64.017	0.286	0.115
-119.166	-188.787	-0.263	-0.003
-118.151	41.202	-0.320	-0.285
-117.137	607.741	0.033	-0.082
-116.122	404.638	0.073	0.152
-115.107	-37.348	-0.175	-0.092
-114.093	84.898	0.174	0.188
-113.078	-200.000	0.033	-0.323
-112.064	-200.000	-0.009	0.132
-111.049	5.195	0.163	0.118
-110.034	-73.693	0.075	0.027
-109.020	-200.000	0.017	0.115
-108.005	-200.000	-0.012	-0.056
-106.991	-200.000	0.000	0.094
-105.976	328.449	0.087	0.164
-104.962	3.544	0.237	-0.170
-103.947	800.000	-0.104	0.372
-102.932	-115.810	-0.176	-0.032
-101.918	-102.142	0.309	0.073
-100.903	-4.706	0.528	0.358
-99.889	442.732	0.045	-0.097
-98.874	330.192	-0.045	-0.086
-97.859	-48.358	0.498	-0.236
-96.845	-117.011	-0.246	0.044
-95.830	-151.057	0.268	-0.020
-94.816	-149.486	0.273	0.021
-93.801	-93.411	0.445	-0.121
-92.786	26.570	-0.189	0.156
-91.772	-91.639	0.146	0.041
-90.757	-102.405	0.394	0.093
-89.743	307.127	-0.105	0.192
-88.728	-48.120	-0.133	0.063
-87.713	-69.471	-0.065	-0.024
-86.699	-150.993	0.292	-0.022
-85.684	-142.985	0.188	0.018
-84.670	382.237	-0.196	-0.396
-83.655	-124.886	-0.115	-0.017
-82.640	-66.494	0.230	-0.090
-81.626	800.000	0.046	0.138
-80.611	254.325	0.087	0.147
-79.597	800.000	-0.049	0.174
-78.582	119.910	0.109	0.133
-77.567	800.000	0.126	0.380
-76.553	20.816	-0.210	0.168
-75.538	-200.000	-0.009	-0.368
-74.524	268.068	-0.071	0.122
-73.509	62.162	0.304	0.298
-72.494	391.355	0.218	0.445
-71.480	-185.993	0.193	-0.003
-70.465	800.000	-0.085	-0.354
-69.451	-200.000	-0.027	0.193
-68.436	279.224	-0.072	-0.126
-67.422	-200.000	-0.017	0.237
-66.407	189.784	0.057	-0.084
-65.392	-17.253	0.042	0.026
-64.378	-54.376	-0.114	-0.051
-63.363	-5.761	-0.039	-0.026
-62.349	-155.213	-0.187	0.012
-61.334	61.806	-0.818	-0.800
-60.319	800.000	0.211	0.682
-59.305	-200.000	-0.042	-0.967
-58.290	268.315	0.557	0.960
-57.276	800.000	0.507	1.515
-56.261	-200.000	95.499	593.283
-55.246	662.333	1367.674	3465.108
-54.232	199.500	2549.797	3842.730
-53.217	113.606	2266.971	2705.835
-52.203	41.582	1896.429	1687.568
-51.188	35.400	1686.117	1453.703
-50.173	32.716	1642.288	1396.019
-49.159	50.159	1688.268	1566.316
-48.144	51.758	1704.760	1593.544
-47.130	34.961	1665.956	1432.810
-46.115	32.328	1651.544	1400.776
-45.100	32.004	1647.116	1394.558
-44.086	32.059	1644.125	1392.375
-43.071	31.945	1642.069	1389.736
-42.057	31.969	1639.347	1387.553
-41.042	31.961	1637.073	1385.513
-40.027	32.057	1635.137	1384.529
-39.013	31.983	1633.610	1382.637
-37.998	31.891	1632.077	1380.609
-36.984	32.077	1630.646	1380.712
-35.969	32.037	1629.224	1379.155
-34.954	32.109	1627.093	1377.827
-33.940	32.124	1625.450	1376.493
-32.925	32.124	1623.986	1375.198
-31.911	31.983	1622.496	1372.845
-30.896	32.049	1620.605	1371.678
-29.881	32.018	1618.937	1369.984
-28.867	32.075	1617.262	1368.926
-27.852	32.023	1616.112	1367.524
-26.838	32.137	1614.118	1366.611
-25.823	32.146	1612.688	1365.410
-24.809	32.202	1611.190	1364.491
-23.794	32.037	1610.171	1362.382
-22.779	32.210	1607.888	1361.644
-21.765	32.230	1606.688	1360.720
-20.750	32.067	1605.465	1358.455
-19.736	32.152	1603.865	1357.658
-18.721	32.148	1602.470	1356.394
-17.706	32.133	1601.025	1355.007
-16.692	32.119	1599.536	1353.595
-15.677	32.116	1598.221	1352.406
-14.663	32.120	1597.099	1351.431
-13.648	32.122	1595.464	1350.008
-12.633	32.121	1593.894	1348.622
-11.619	32.089	1592.657	1347.288
-10.604	32.134	1590.447	1345.692
-9.590	32.150	1589.466	1344.921
-8.575	32.152	1587.879	1343.539
-7.560	32.156	1587.250	1342.981
-6.546	32.101	1586.332	1341.757
-5.531	32.100	1585.010	1340.580
-4.517	32.150	1583.485	1339.598
-3.502	32.114	1582.296	1338.283
-2.487	32.224	1580.587	1337.563
-1.473	31.899	1569.333	1325.693
-0.458	29.205	1549.460	1290.016
0.556	25.107	1550.207	1258.835
1.571	22.689	1573.809	1260.628
2.586	22.304	1586.818	1268.156
3.600	19.689	1533.291	1207.036
4.615	12.106	1425.183	1072.415
5.629	5.632	1363.414	985.234
6.644	4.704	1355.463	973.594
7.659	4.510	1354.220	971.402
8.673	4.467	1353.070	970.222
9.688	4.569	1351.411	969.586
10.702	4.388	1348.473	966.263
11.717	7.371	1354.489	989.119
12.731	14.762	1367.702	1045.073
13.746	19.206	1374.330	1077.914
14.761	18.934	1372.879	1074.982
15.775	17.921	1369.701	1066.078
16.790	16.879	1367.041	1057.414
17.804	16.061	1365.093	1050.721
18.819	15.594	1363.978	1046.860
19.834	15.472	1362.775	1045.081
20.848	15.182	1361.093	1041.898
21.863	14.863	1360.153	1039.105
22.877	14.869	1359.220	1038.339
23.892	14.769	1357.998	1036.689
24.907	14.739	1357.128	1035.746
25.921	14.794	1356.133	1035.235
26.936	14.820	1355.496	1034.822
27.950	14.858	1354.730	1034.381
28.965	14.885	1353.494	1033.514
29.980	15.036	1352.671	1033.725
30.994	15.027	1351.048	1032.340
32.009	15.109	1350.075	1032.009
33.023	15.099	1349.188	1031.177
34.038	15.016	1347.863	1029.562
35.053	14.919	1346.517	1027.845
36.067	14.905	1345.508	1026.899
37.082	15.028	1344.534	1026.819
38.096	15.039	1343.427	1025.949
39.111	14.978	1342.645	1024.889
40.126	15.029	1341.383	1024.148
41.140	14.734	1341.401	1022.263
42.155	14.667	1340.523	1021.100
43.169	14.753	1340.048	1021.170
44.184	14.593	1340.323	1020.313
45.199	14.673	1339.746	1020.270
46.213	14.753	1339.200	1020.252
47.228	14.851	1338.193	1019.992
48.242	14.999	1336.704	1019.672
49.257	14.938	1335.557	1018.336
50.271	14.919	1333.777	1016.770
51.286	14.927	1332.853	1016.026
52.301	14.885	1331.507	1014.653
53.315	14.889	1330.112	1013.527
54.330	14.693	1329.920	1012.102
55.344	14.712	1328.093	1010.740
56.359	14.797	1326.731	1010.126
57.374	14.636	1326.329	1008.757
58.388	14.662	1325.102	1007.892
59.403	14.631	1324.883	1007.447
60.417	14.556	1324.201	1006.389
61.432	14.643	1323.064	1005.957
62.447	14.605	1322.236	1005.014
63.461	14.459	1321.111	1003.188
64.476	14.575	1319.868	1002.857
65.490	14.589	1318.486	1001.801
66.505	14.594	1317.038	1000.639
67.520	14.591	1316.117	999.832
68.534	14.650	1314.977	999.232
69.549	14.538	1314.443	998.069
70.563	14.623	1312.934	997.345
71.578	14.544	1311.695	995.841
72.593	14.498	1310.615	994.657
73.607	14.418	1310.110	993.710
74.622	14.511	1308.939	993.286
75.636	14.501	1308.425	992.753
76.651	14.550	1307.890	992.552
77.666	14.496	1307.421	991.787
78.680	14.405	1307.096	990.906
79.695	14.468	1306.808	990.977
80.709	14.649	1304.865	990.490
81.724	14.661	1304.537	990.224
82.739	14.646	1303.977	989.625
83.753	14.875	1302.488	989.764
84.768	14.924	1301.889	989.511
85.782	14.991	1300.501	988.764
86.797	15.073	1299.402	988.321
87.812	14.794	1298.246	985.708
88.826	14.907	1297.062	985.391
89.841	14.929	1296.342	984.885
90.855	14.898	1295.360	983.871
91.870	14.976	1294.332	983.464
92.884	15.008	1293.905	983.237
93.899	15.003	1292.848	982.315
94.914	15.006	1292.424	981.929
95.928	15.101	1291.271	981.521
96.943	15.036	1290.231	980.262
97.957	15.065	1289.126	979.503
98.972	14.896	1288.657	978.073
99.987	14.991	1287.245	977.472
101.001	14.961	1286.411	976.575
102.016	14.998	1285.752	976.208
103.030	14.943	1284.397	974.770
104.045	14.992	1283.450	974.249
105.060	14.867	1282.479	972.697
106.074	14.761	1280.751	970.689
107.089	14.715	1279.345	969.267
108.103	14.679	1278.245	968.141
109.118	14.683	1277.139	967.243
110.133	14.599	1276.008	965.810
111.147	14.647	1274.528	964.887
112.162	14.691	1272.871	963.796
113.176	14.766	1271.641	963.213
114.191	14.765	1271.412	962.950
115.206	14.862	1269.947	962.314
116.220	14.812	1268.566	960.894
117.235	14.747	1267.405	959.554
118.249	14.745	1266.411	958.709
119.264	14.728	1265.612	957.918
120.279	14.653	1264.762	956.761
121.293	14.633	1263.293	955.450
122.308	14.631	1262.216	954.544
123.322	14.570	1261.366	953.467
124.337	14.651	1259.931	952.759
125.352	14.562	1259.369	951.744
126.366	14.670	1258.148	951.350
127.381	14.679	1257.052	950.488
128.395	14.615	1256.102	949.323
129.410	14.668	1255.404	949.010
130.424	14.677	1254.976	948.657
131.439	14.816	1253.623	948.340
132.454	14.770	1252.375	947.048
133.468	14.747	1251.677	946.309
134.483	14.684	1251.189	945.496
135.497	14.784	1249.927	945.026
136.512	14.897	1248.420	944.444
137.527	14.841	1247.440	943.301
138.541	14.853	1245.945	942.154
139.556	14.809	1244.601	940.808
140.570	14.995	1243.740	941.119
141.585	14.926	1242.530	939.735
142.600	14.984	1241.135	938.919
143.614	14.967	1240.555	938.305
144.629	15.101	1239.604	938.252
145.643	15.083	1238.258	937.047
146.658	14.934	1237.102	935.257
147.673	14.820	1235.923	933.650
148.687	14.853	1234.785	932.888
149.702	14.863	1233.066	931.562
150.716	14.809	1231.689	930.139
151.731	14.784	1231.053	929.440
152.746	14.835	1229.942	928.799
153.760	14.936	1228.459	928.159
154.775	15.002	1227.690	927.862
155.789	15.032	1226.858	927.320
156.804	14.957	1225.885	926.088
157.819	15.035	1225.072	925.821
158.833	15.097	1224.125	925.364
159.848	15.066	1223.550	924.679
160.862	15.221	1221.937	924.233
161.877	15.043	1220.919	922.396
162.892	14.959	1220.045	921.195
163.906	14.903	1219.198	920.163
164.921	14.942	1218.232	919.570
165.935	15.044	1217.040	919.149
166.950	15.068	1216.293	918.636
167.964	15.168	1215.870	918.782
168.979	15.081	1214.985	917.557
169.994	15.032	1214.144	916.568
171.008	15.031	1213.808	916.232
172.023	15.091	1213.157	915.987
173.037	15.203	1212.161	915.765
174.052	15.192	1211.155	914.865
175.067	15.072	1210.312	913.491
176.081	15.001	1209.160	912.152
177.096	15.075	1208.410	911.909
178.110	15.016	1207.470	910.799
179.125	15.177	1205.962	910.458
180.140	15.082	1204.474	908.739
181.154	15.225	1203.648	908.809
182.169	15.195	1201.966	907.297
183.183	15.262	1201.307	907.080
184.198	15.285	1200.108	906.220
185.213	15.286	1198.978	905.293
186.227	15.336	1198.024	904.762
187.242	15.359	1196.792	903.878
188.256	15.599	1195.453	904.078
189.271	15.453	1195.048	902.905
190.286	15.286	1193.942	901.092
191.300	15.131	1192.980	899.455
192.315	15.005	1192.479	898.319
193.329	14.976	1191.995	897.717
194.344	15.161	1190.714	897.666
195.359	15.244	1190.788	898.088
196.373	15.276	1190.266	897.786
197.388	15.350	1189.742	897.708
198.402	15.460	1189.214	897.817
199.417	15.517	1188.592	897.572
200.432	15.577	1187.795	897.211
201.446	15.694	1187.145	897.268
202.461	15.774	1185.709	896.528
203.475	15.710	1184.973	895.554
204.490	15.550	1183.643	893.614
205.504	15.580	1182.216	892.618
206.519	15.434	1181.524	891.244
207.534	15.402	1180.622	890.311
208.548	15.494	1179.148	889.613
209.563	15.555	1178.228	889.160
210.577	15.471	1177.909	888.395
211.592	15.574	1176.870	888.078
212.607	15.655	1176.315	888.011
213.621	15.670	1174.921	886.957
214.636	15.694	1174.141	886.418
215.650	15.565	1173.549	885.211
216.665	15.713	1172.580	885.185
217.680	15.835	1171.351	884.819
218.694	15.919	1170.962	884.889
219.709	15.923	1169.619	883.815
220.723	15.896	1169.363	883.403
221.738	15.745	1168.445	881.836
222.753	15.832	1167.814	881.740
223.767	15.766	1167.172	880.829
224.782	15.915	1166.359	880.918
225.796	15.967	1166.222	881.012
226.811	15.961	1165.384	880.268
227.826	15.896	1164.386	879.097
228.840	15.879	1163.728	878.431
229.855	15.871	1163.057	877.809
230.869	15.837	1162.229	876.926
231.884	15.818	1161.791	876.418
232.899	15.766	1160.963	875.448
233.913	15.690	1160.335	874.499
234.928	15.742	1159.172	873.817
235.942	15.702	1158.441	872.982
236.957	15.696	1158.147	872.653
237.972	15.817	1156.745	872.146
238.986	15.831	1156.191	871.724
240.001	15.784	1155.633	870.979
241.015	15.889	1154.678	870.727
242.030	15.899	1153.974	870.169
243.045	16.024	1152.770	869.833
244.059	15.947	1152.385	869.070
245.074	15.922	1151.912	868.504
246.088	15.988	1151.069	868.132
247.103	16.015	1149.707	867.168
248.117	16.181	1148.984	867.396
249.132	16.188	1149.004	867.375
250.147	16.365	1148.174	867.581
251.161	16.438	1147.371	867.271
252.176	16.384	1146.759	866.452
253.190	16.400	1146.185	866.026
254.205	16.499	1145.532	865.961
255.220	16.448	1145.071	865.277
256.234	16.480	1144.302	864.780
257.249	16.514	1143.308	864.130
258.263	16.479	1143.172	863.769
259.278	16.472	1142.389	863.065
260.293	16.527	1141.891	862.895
261.307	16.550	1141.381	862.551
262.322	16.498	1140.815	861.779
263.336	16.602	1139.938	861.572
264.351	16.579	1139.841	861.304
265.366	16.631	1138.753	860.670
266.380	16.641	1137.941	860.030
267.395	16.528	1137.441	859.006
268.409	16.555	1136.245	858.161
269.424	16.510	1135.693	857.442
270.439	16.544	1135.118	857.104
271.453	16.537	1134.455	856.491
272.468	16.615	1133.397	856.009
273.482	16.470	1132.709	854.681
274.497	16.545	1131.893	854.369
275.512	16.598	1131.206	854.045
276.526	16.644	1130.713	853.826
277.541	16.651	1129.846	853.133
278.555	16.562	1129.453	852.313
279.570	16.708	1128.977	852.612
280.585	16.757	1128.067	852.097
281.599	16.767	1126.897	851.186
282.614	16.820	1125.800	850.549
283.628	16.717	1124.343	848.857
284.643	16.690	1124.140	848.493
285.657	16.702	1123.310	847.852
286.672	16.757	1122.086	847.131
287.687	16.841	1121.306	846.884
288.701	16.787	1120.987	846.300
289.716	16.901	1119.752	845.862
290.730	16.926	1118.936	845.296
291.745	16.895	1118.278	844.567
292.760	16.745	1117.759	843.354
293.774	16.847	1117.619	843.682
294.789	17.070	1116.840	844.127
295.803	17.032	1116.231	843.406
296.818	16.899	1115.614	842.202
297.833	16.880	1114.583	841.257
298.847	16.933	1113.966	840.979
299.862	16.987	1112.593	840.134
300.876	17.089	1112.238	840.296
301.891	16.989	1111.894	839.467
302.906	17.147	1111.226	839.670
303.920	17.157	1110.520	839.110
304.935	17.022	1110.335	838.232
305.949	17.247	1108.922	838.199
306.964	17.161	1108.751	837.574
307.979	17.221	1107.873	837.131
308.993	17.181	1106.791	836.044
310.008	17.239	1106.323	835.899
311.022	17.222	1105.407	835.050
312.037	17.172	1105.055	834.464
313.052	17.179	1103.810	833.485
314.066	17.163	1102.630	832.441
315.081	17.053	1102.002	831.358
316.095	17.192	1100.747	831.016
317.110	16.994	1100.566	829.840
318.125	16.966	1100.099	829.275
319.139	17.050	1099.405	829.089
320.154	17.034	1098.648	828.368
321.168	17.106	1097.756	827.970
322.183	17.102	1097.513	827.694
323.197	17.175	1096.845	827.474
324.212	17.067	1096.454	826.580
325.227	17.189	1095.803	826.609
326.241	17.156	1095.264	825.968
327.256	17.198	1094.110	825.233
328.270	17.246	1092.855	824.445
329.285	17.134	1092.296	823.406
330.300	17.136	1091.722	822.908
331.314	17.223	1090.659	822.458
332.329	17.263	1089.616	821.791
333.343	17.171	1088.940	820.766
334.358	17.493	1087.865	821.437
335.373	17.232	1087.482	819.816
336.387	17.435	1086.576	820.036
337.402	17.413	1085.535	819.075
338.416	17.515	1084.810	818.943
339.431	17.469	1084.867	818.695
340.446	17.538	1084.277	818.508
341.460	17.636	1083.494	818.315
342.475	17.642	1082.410	817.450
343.489	17.660	1081.342	816.659
344.504	17.684	1080.465	816.039
345.519	17.767	1079.683	815.776
346.533	17.747	1079.140	815.197
347.548	17.898	1078.406	815.291
348.562	17.841	1077.576	814.321
349.577	17.600	1077.014	812.672
350.592	17.765	1076.027	812.642
351.606	17.508	1075.049	810.608
352.621	17.579	1074.530	810.484
353.635	17.582	1073.839	809.905
354.650	17.604	1073.261	809.504
355.665	17.676	1072.830	809.448
356.679	17.717	1072.253	809.133
357.694	17.650	1072.012	808.564
358.708	17.670	1070.928	807.769
359.723	17.683	1070.119	807.149
360.738	17.749	1069.679	807.058
361.752	17.921	1068.700	807.060
362.767	17.730	1069.076	806.369
363.781	17.965	1067.742	806.402
364.796	17.868	1067.147	805.426
365.810	17.943	1067.019	805.611
366.825	18.075	1066.306	805.624
367.840	18.168	1065.974	805.738
368.854	18.164	1065.584	805.355
369.869	18.109	1064.226	803.996
370.883	17.937	1063.811	802.805
371.898	17.959	1062.877	802.130
372.913	18.091	1061.766	801.843
373.927	18.092	1061.763	801.771
374.942	18.139	1061.231	801.520
375.956	18.242	1060.838	801.635
376.971	18.200	1060.340	800.990
377.986	18.113	1059.531	799.904
379.000	18.296	1059.132	800.385
380.015	18.311	1058.393	799.829
381.029	18.325	1058.137	799.628
382.044	18.303	1057.360	798.869
383.059	18.339	1056.743	798.496
384.073	18.368	1055.608	797.706
385.088	18.325	1054.531	796.621
386.102	18.421	1053.885	796.510
387.117	18.304	1052.918	795.164
388.132	18.136	1052.049	793.659
389.146	18.220	1051.109	793.267
390.161	18.240	1050.678	792.966
391.175	18.190	1049.841	792.031
392.190	18.275	1049.295	791.944
393.205	18.169	1048.843	791.042
394.219	18.415	1047.563	791.142
395.234	18.400	1046.797	790.423
396.248	18.320	1045.695	789.154
397.263	18.321	1044.470	788.165
398.278	18.251	1043.635	787.142
399.292	18.310	1043.172	786.997
400.307	18.256	1042.559	786.217
401.321	18.260	1041.754	785.556
402.336	18.164	1041.284	784.691
403.350	18.238	1040.448	784.333
404.365	18.277	1039.923	784.046
405.380	18.363	1039.323	783.918
406.394	18.404	1038.691	783.561
407.409	18.392	1037.919	782.853
408.423	18.537	1037.017	782.766
409.438	18.558	1036.512	782.408
410.453	18.697	1035.543	782.241
411.467	18.726	1034.931	781.846
412.482	18.715	1034.215	781.182
413.496	18.738	1034.072	781.113
414.511	18.766	1033.481	780.722
415.526	18.748	1033.646	780.696
416.540	18.780	1032.716	780.069
417.555	18.830	1032.155	779.805
418.569	18.820	1031.408	779.123
419.584	18.724	1031.137	778.418
420.599	18.880	1030.370	778.476
421.613	150.657	1401.186	1795.421
422.628	137.446	1455.184	1795.515
