DTS Sentinel unit serial number:	SN413079Multiplexer serial number:	ORYXHardware model number:	OX4-SRSoftware version number:	ORYX F/W v4.00 Oryx Data Collector v3.7.2.0data status	okinstallation	princeton_trtdifferential loss correction	single-endedforward channel	channel 2reverse channel	N/Adate	2019/09/18time	20:31:35forward acquisition time	60.00reverse acquisition time	0.00gamma	496.2192k internal	0.2337k external	0.2337temperature offset calibration	1.0034default loss term (dB/km)	0.3790temperature slope calibration	1.0000multiplexer offset coefficient	1.0000multiplexer slope coefficient	1.0000fibre end	0.00T internal ref (°C)	28.17T ext. ref 1 (°C)	0.98T ext. ref 2 (°C)	19.15length (m)	temperature (°C)	Stokes	anti-Stokes-747.200	800.000	-0.055	-0.183
-746.185	-200.000	0.155	0.760
-745.171	94.200	-0.097	0.110
-744.156	112.206	-0.065	0.079
-743.142	285.531	-0.027	0.048
-742.127	-200.000	-0.033	-0.146
-741.112	-119.845	0.414	0.072
-740.098	758.678	0.094	0.255
-739.083	-92.754	-0.237	-0.067
-738.069	-200.000	0.017	-0.119
-737.054	106.410	-0.231	0.274
-736.039	-200.000	-0.005	0.187
-735.025	3.150	-0.159	0.116
-734.010	-200.000	0.016	-0.222
-732.996	-73.644	-0.114	-0.042
-731.981	-40.335	0.259	0.135
-730.966	-200.000	-0.016	0.160
-729.952	-200.000	0.008	-0.121
-728.937	57.788	0.178	0.175
-727.923	34.340	0.048	-0.042
-726.908	2.852	-0.014	-0.010
-725.894	-64.118	0.225	-0.092
-724.879	-91.795	-0.180	0.051
-723.864	-68.844	0.170	-0.066
-722.850	57.360	0.160	0.157
-721.835	-6.078	-0.053	-0.037
-720.821	44.374	0.222	0.204
-719.806	-18.188	0.306	-0.192
-718.791	45.894	0.064	-0.059
-717.777	-155.068	0.342	0.022
-716.762	-85.764	-0.224	0.070
-715.748	217.592	0.198	-0.317
-714.733	800.000	0.027	-0.089
-713.718	-200.000	0.039	-0.232
-712.704	-200.000	-0.024	-0.203
-711.689	464.423	-0.019	-0.042
-710.675	427.128	-0.101	-0.218
-709.660	-200.000	0.009	0.255
-708.645	-200.000	-0.063	0.278
-707.631	-58.457	0.200	-0.087
-706.616	-123.662	-0.050	0.008
-705.602	-200.000	-0.019	-0.133
-704.587	-82.583	-0.270	-0.088
-703.572	-34.664	0.167	0.092
-702.558	-200.000	-0.037	0.215
-701.543	-116.057	0.397	-0.074
-700.529	800.000	0.099	-0.282
-699.514	-79.082	-0.168	0.057
-698.499	-92.309	0.164	-0.046
-697.485	223.111	-0.186	-0.301
-696.470	551.263	-0.110	0.266
-695.456	-200.000	0.018	0.284
-694.441	-49.524	0.231	-0.110
-693.426	276.017	0.052	-0.092
-692.412	-200.000	0.029	0.205
-691.397	134.253	-0.241	-0.313
-690.383	33.053	0.050	-0.043
-689.368	-99.379	-0.341	0.086
-688.354	-180.223	-0.088	0.002
-687.339	275.481	0.199	-0.353
-686.324	449.910	0.165	0.364
-685.310	-96.461	-0.105	-0.028
-684.295	-200.000	0.020	0.090
-683.281	-186.793	-0.045	-0.001
-682.266	64.565	-0.079	-0.080
-681.251	-118.736	-0.202	-0.036
-680.237	-157.541	-0.118	-0.007
-679.222	32.744	-0.090	-0.078
-678.208	-46.519	0.235	-0.115
-677.193	79.427	-0.117	-0.126
-676.178	-200.000	-0.019	-0.138
-675.164	-94.953	0.087	-0.023
-674.149	-64.925	0.078	-0.031
-673.135	72.358	0.465	-0.485
-672.120	148.474	0.142	-0.192
-671.105	25.269	-0.344	0.286
-670.091	226.442	0.182	0.296
-669.076	19.998	-0.135	0.109
-668.062	-54.087	0.049	0.022
-667.047	247.716	0.111	-0.188
-666.032	-200.000	-0.006	0.201
-665.018	-200.000	-0.010	-0.057
-664.003	-96.443	-0.165	0.044
-662.989	178.144	0.180	-0.263
-661.974	328.722	-0.135	0.260
-660.959	-200.000	0.014	0.072
-659.945	359.745	-0.061	-0.122
-658.930	4.752	-0.216	-0.159
-657.916	-34.740	-0.364	-0.199
-656.901	8.750	-0.169	0.128
-655.886	73.062	0.123	-0.129
-654.872	-200.000	0.032	0.239
-653.857	22.508	-0.118	-0.097
-652.843	-200.000	0.006	0.083
-651.828	-200.000	-0.017	0.124
-650.814	441.289	-0.031	-0.069
-649.799	131.132	-0.128	-0.165
-648.784	-124.487	0.268	-0.042
-647.770	-200.000	0.035	0.213
-646.755	770.757	-0.070	-0.192
-645.741	800.000	0.084	-0.301
-644.726	57.280	0.165	0.161
-643.711	-92.152	0.299	-0.085
-642.697	-74.485	0.058	0.021
-641.682	8.625	-0.044	0.033
-640.668	-200.000	0.022	-0.213
-639.653	79.128	-0.017	0.018
-638.638	-104.143	0.104	-0.024
-637.624	-78.889	-0.056	-0.019
-636.609	-47.145	-0.085	0.041
-635.595	60.828	0.088	-0.087
-634.580	0.856	-0.106	0.076
-633.565	-157.900	0.500	0.030
-632.551	-78.160	0.410	-0.141
-631.536	-86.930	0.146	-0.045
-630.522	-200.000	-0.061	0.277
-629.507	-136.438	-0.266	0.031
-628.492	29.088	0.048	0.041
-627.478	112.984	-0.096	0.116
-626.463	800.000	-0.098	-0.409
-625.449	-39.754	0.174	-0.091
-624.434	-94.694	0.255	-0.069
-623.419	-44.268	-0.057	-0.029
-622.405	-200.000	0.332	-0.001
-621.390	197.896	0.116	0.177
-620.376	-177.957	-0.067	0.002
-619.361	-134.462	-0.246	-0.030
-618.346	147.427	0.090	0.121
-617.332	-112.911	0.115	0.023
-616.317	-120.028	-0.325	-0.056
-615.303	-43.732	0.056	-0.028
-614.288	-33.437	-0.291	-0.160
-613.273	800.000	0.064	0.203
-612.259	-129.739	0.221	0.030
-611.244	-139.807	0.278	-0.029
-610.230	287.053	0.149	0.269
-609.215	-50.832	-0.357	0.168
-608.201	301.823	0.169	-0.312
-607.186	-46.647	0.276	0.135
-606.171	-169.095	0.380	-0.014
-605.157	-33.690	-0.218	0.120
-604.142	800.000	0.094	-0.287
-603.128	-102.265	-0.191	0.046
-602.113	-200.000	0.024	-0.200
-601.098	-101.007	-0.023	-0.006
-600.084	-25.316	0.151	-0.089
-599.069	-66.188	-0.147	-0.058
-598.055	-125.878	0.102	-0.015
-597.040	-105.646	-0.307	0.069
-596.025	-57.449	0.135	-0.059
-595.011	171.436	0.090	0.129
-593.996	302.568	-0.242	0.448
-592.982	80.095	0.218	-0.234
-591.967	-20.276	-0.272	0.167
-590.952	-38.133	-0.372	0.197
-589.938	-100.623	0.341	-0.084
-588.923	709.670	-0.048	-0.125
-587.909	-0.803	0.019	-0.013
-586.894	-75.278	-0.171	0.061
-585.879	-27.309	0.159	-0.092
-584.865	201.675	-0.114	0.176
-583.850	-88.829	-0.337	0.100
-582.836	671.524	-0.130	-0.335
-581.821	2.936	-0.109	-0.079
-580.806	-200.000	-0.029	-0.181
-579.792	-62.093	-0.188	0.078
-578.777	-45.225	0.111	0.055
-577.763	800.000	-0.061	0.203
-576.748	-75.590	-0.040	0.014
-575.733	146.446	0.145	0.195
-574.719	-200.000	-0.037	0.246
-573.704	607.880	0.043	-0.108
-572.690	-200.000	-0.028	0.250
-571.675	158.570	-0.037	-0.051
-570.661	800.000	-0.032	-0.091
-569.646	-74.394	-0.172	0.062
-568.631	-69.963	0.393	0.149
-567.617	800.000	-0.104	-0.297
-566.602	800.000	-0.079	0.292
-565.588	800.000	0.018	0.069
-564.573	257.156	-0.070	-0.120
-563.558	800.000	-0.087	0.296
-562.544	49.557	-0.278	0.261
-561.529	-116.717	0.103	-0.019
-560.515	351.659	-0.082	0.161
-559.500	-200.000	-0.000	-0.124
-558.485	-200.000	0.020	-0.225
-557.471	407.337	-0.058	0.121
-556.456	-13.479	-0.214	0.139
-555.442	158.535	0.185	0.257
-554.427	-200.000	-0.019	0.132
-553.412	475.709	0.122	0.275
-552.398	7.878	-0.197	0.147
-551.383	800.000	0.089	-0.321
-550.369	133.007	0.068	-0.087
-549.354	-44.984	-0.305	-0.151
-548.339	-8.303	0.133	0.089
-547.325	-57.210	0.250	0.110
-546.310	800.000	-0.067	-0.197
-545.296	322.043	-0.132	-0.250
-544.281	97.579	-0.129	0.148
-543.266	-164.901	-0.365	0.016
-542.252	-21.933	0.175	0.106
-541.237	366.873	-0.049	0.098
-540.223	800.000	0.008	-0.031
-539.208	18.689	-0.368	-0.294
-538.193	552.704	0.062	-0.147
-537.179	-200.000	0.012	-0.088
-536.164	316.468	-0.031	0.059
-535.150	-200.000	-0.002	-0.073
-534.135	-197.400	0.153	0.001
-533.121	99.345	-0.041	-0.047
-532.106	-109.865	0.391	0.082
-531.091	-200.000	-0.150	-0.000
-530.077	-3.571	0.145	-0.100
-529.062	-186.566	0.097	-0.001
-528.048	-200.000	0.001	-0.035
-527.033	13.465	-0.201	0.155
-526.018	-200.000	-0.001	-0.029
-525.004	-200.000	-0.001	-0.216
-523.989	60.377	-0.199	0.196
-522.975	238.788	-0.119	0.197
-521.960	526.700	0.014	-0.033
-520.945	-134.394	-0.039	-0.005
-519.931	149.743	-0.108	0.145
-518.916	112.129	0.049	-0.059
-517.902	-56.747	0.139	0.061
-516.887	-200.000	0.009	0.173
-515.872	94.408	0.059	-0.067
-514.858	-200.000	0.026	0.159
-513.843	63.365	-0.270	0.270
-512.829	-154.519	-0.253	-0.017
-511.814	84.793	-0.223	-0.243
-510.799	-146.692	0.356	0.031
-509.785	-59.783	-0.263	-0.112
-508.770	-2.820	-0.060	0.042
-507.756	26.475	0.179	-0.149
-506.741	800.000	0.039	0.113
-505.726	-200.000	-0.034	0.153
-504.712	126.317	0.063	0.079
-503.697	-125.855	-0.156	0.023
-502.683	-10.554	0.218	-0.144
-501.668	-134.340	0.264	-0.032
-500.653	228.836	-0.073	0.118
-499.639	395.728	-0.144	-0.298
-498.624	-82.357	-0.113	-0.037
-497.610	-16.993	0.087	0.054
-496.595	-28.141	0.073	-0.042
-495.581	-200.000	0.013	-0.138
-494.566	-31.387	-0.462	0.259
-493.551	510.569	-0.130	-0.301
-492.537	800.000	0.092	-0.391
-491.522	255.412	-0.021	0.035
-490.508	-200.000	-0.042	0.230
-489.493	43.876	-0.184	-0.167
-488.478	-97.886	-0.355	0.091
-487.464	-26.221	0.336	0.196
-486.449	-69.670	0.093	-0.035
-485.435	292.267	-0.123	-0.223
-484.420	-156.038	0.121	-0.008
-483.405	554.219	0.072	0.172
-482.391	25.667	0.162	-0.134
-481.376	16.055	0.300	0.235
-480.362	-9.140	0.213	0.142
-479.347	-200.000	-0.028	0.260
-478.332	-73.985	-0.307	0.111
-477.318	30.415	-0.074	0.062
-476.303	781.181	-0.052	-0.142
-475.289	442.549	0.115	-0.250
-474.274	-105.357	-0.189	-0.043
-473.259	-200.000	0.025	0.142
-472.245	-128.860	-0.286	-0.040
-471.230	23.085	0.197	0.160
-470.216	-2.227	-0.085	-0.060
-469.201	-84.452	0.216	0.068
-468.186	800.000	-0.134	-0.426
-467.172	133.196	-0.189	-0.242
-466.157	-130.845	0.197	0.026
-465.143	290.872	0.116	0.209
-464.128	-200.000	-0.017	-0.313
-463.113	-104.053	-0.306	-0.071
-462.099	-176.983	-0.138	-0.003
-461.084	12.179	-0.030	0.023
-460.070	-4.712	-0.128	0.088
-459.055	69.191	-0.156	0.159
-458.040	-200.000	-0.042	0.188
-457.026	-32.401	0.086	-0.048
-456.011	80.403	0.069	-0.074
-454.997	2.240	0.212	-0.152
-453.982	-200.000	0.025	-0.176
-452.968	380.325	-0.171	-0.348
-451.953	330.241	-0.190	-0.363
-450.938	800.000	-0.072	-0.241
-449.924	800.000	-0.044	-0.123
-448.909	-156.690	0.248	0.015
-447.895	-54.790	0.367	-0.165
-446.880	725.082	0.047	-0.123
-445.865	-200.000	-0.002	0.178
-444.851	-70.665	0.136	0.051
-443.836	313.147	0.077	0.143
-442.822	-200.000	-0.013	-0.087
-441.807	800.000	0.122	-0.451
-440.792	-106.048	0.049	-0.011
-439.778	-108.789	0.037	-0.008
-438.763	-11.594	-0.203	-0.132
-437.749	-71.623	-0.334	-0.124
-436.734	186.059	-0.156	0.231
-435.719	688.161	-0.164	0.426
-434.705	62.760	0.208	-0.207
-433.690	-110.493	-0.432	-0.089
-432.676	5.170	0.062	0.045
-431.661	800.000	0.043	-0.141
-430.646	-200.000	-0.004	-0.269
-429.632	0.883	-0.055	0.039
-428.617	-193.609	-0.045	-0.000
-427.603	-200.000	-0.039	0.251
-426.588	-103.076	0.316	0.074
-425.573	-200.000	-0.052	-0.250
-424.559	-156.934	-0.099	-0.006
-423.544	60.599	-0.125	0.123
-422.530	149.563	0.199	-0.267
-421.515	12.605	0.306	0.234
-420.500	111.726	0.047	0.057
-419.486	-200.000	-0.026	-0.158
-418.471	67.012	0.073	-0.074
-417.457	512.458	0.013	0.029
-416.442	15.012	-0.241	-0.187
-415.428	34.661	-0.372	0.322
-414.413	-136.967	0.196	0.022
-413.398	7.266	-0.068	0.050
-412.384	-4.987	0.282	-0.193
-411.369	10.601	0.056	-0.042
-410.355	753.428	-0.051	-0.138
-409.340	800.000	0.188	0.536
-408.325	-23.179	-0.169	-0.101
-407.311	-147.384	-0.072	0.006
-406.296	72.250	0.045	0.047
-405.282	-18.019	-0.043	0.027
-404.267	84.181	0.109	0.118
-403.252	40.876	-0.315	-0.282
-402.238	800.000	-0.048	0.150
-401.223	176.708	0.189	0.272
-400.209	295.250	0.104	0.189
-399.194	-16.079	0.123	-0.077
-398.179	-152.293	-0.524	0.037
-397.165	-76.694	0.157	0.054
-396.150	-135.510	0.140	-0.017
-395.136	-152.790	0.104	-0.007
-394.121	-200.000	-0.003	0.132
-393.106	35.322	0.145	0.126
-392.092	-68.685	-0.189	-0.072
-391.077	693.370	-0.137	0.355
-390.063	-200.000	0.004	0.323
-389.048	-174.532	-0.459	0.013
-388.033	297.090	-0.038	0.068
-387.019	-75.141	-0.195	0.069
-386.004	-67.139	-0.269	0.105
-384.990	-144.786	-0.133	-0.012
-383.975	76.839	0.210	-0.221
-382.960	189.389	-0.070	-0.104
-381.946	-200.000	-0.018	-0.168
-380.931	61.997	-0.049	-0.048
-379.917	165.921	0.112	0.157
-378.902	487.230	0.118	0.267
-377.888	8.396	0.307	-0.229
-376.873	39.863	0.234	-0.208
-375.858	108.102	-0.064	-0.076
-374.844	-23.984	0.201	0.119
-373.829	-200.000	0.028	-0.224
-372.815	-16.254	-0.223	0.140
-371.800	176.997	-0.164	-0.236
-370.785	-200.000	-0.023	-0.189
-369.771	143.188	-0.084	-0.111
-368.756	356.663	-0.134	0.265
-367.742	-104.228	0.504	0.116
-366.727	-158.030	-0.332	-0.019
-365.712	-200.000	-0.040	-0.199
-364.698	-69.726	0.266	0.101
-363.683	275.152	-0.134	0.234
-362.669	-9.520	0.215	-0.142
-361.654	800.000	0.104	0.366
-360.639	17.046	0.193	0.151
-359.625	110.943	-0.106	-0.126
-358.610	197.694	0.181	-0.273
-357.596	-200.000	-0.004	-0.063
-356.581	-200.000	-0.035	0.237
-355.566	-120.447	0.135	-0.023
-354.552	-200.000	0.039	-0.394
-353.537	-10.578	-0.067	0.044
-352.523	24.614	-0.304	0.249
-351.508	368.660	-0.069	-0.138
-350.493	-101.681	-0.147	-0.035
-349.479	129.559	-0.050	0.063
-348.464	352.729	0.045	0.087
-347.450	209.985	0.140	0.217
-346.435	-194.644	0.356	0.003
-345.420	-192.005	0.317	0.003
-344.406	-200.000	-0.034	-0.396
-343.391	-162.306	0.104	0.005
-342.377	262.746	0.220	-0.377
-341.362	31.537	0.092	0.078
-340.348	305.215	-0.116	-0.213
-339.333	48.609	0.125	-0.116
-338.318	240.536	-0.107	0.176
-337.304	800.000	0.073	0.217
-336.289	-200.000	0.001	0.182
-335.275	-92.324	0.024	-0.007
-334.260	-184.517	-0.302	0.005
-333.245	-200.000	0.015	-0.159
-332.231	-100.027	-0.192	0.047
-331.216	-16.065	0.199	-0.125
-330.202	23.114	-0.262	0.212
-329.187	-21.896	-0.146	0.088
-328.172	-66.024	0.163	-0.064
-327.158	-185.044	0.253	0.004
-326.143	800.000	0.054	0.182
-325.129	800.000	0.045	0.127
-324.114	-200.000	0.052	0.230
-323.099	-200.000	0.019	0.420
-322.085	-200.000	-0.051	-0.226
-321.070	55.006	0.132	-0.126
-320.056	622.099	-0.011	0.027
-319.041	-122.713	-0.205	0.033
-318.026	251.403	0.265	-0.446
-317.012	-200.000	-0.021	-0.200
-315.997	315.014	0.110	0.204
-314.983	-200.000	-0.000	-0.154
-313.968	44.878	0.090	0.082
-312.953	349.581	-0.098	0.192
-311.939	252.057	-0.059	0.098
-310.924	-5.018	-0.158	0.108
-309.910	23.875	-0.316	0.257
-308.895	39.154	0.243	0.215
-307.880	-102.557	-0.121	0.028
-306.866	-200.000	0.006	0.090
-305.851	542.849	-0.010	-0.023
-304.837	252.631	0.103	-0.173
-303.822	-34.310	-0.192	0.104
-302.807	7.469	0.161	0.119
-301.793	-95.760	0.178	0.047
-300.778	55.691	0.092	0.088
-299.764	-5.992	0.057	-0.038
-298.749	42.595	-0.327	0.294
-297.735	-200.000	-0.033	0.181
-296.720	-174.997	-0.223	0.006
-295.705	102.477	0.134	0.154
-294.691	-152.476	-0.271	-0.019
-293.676	-110.163	0.108	0.022
-292.662	336.778	-0.103	-0.197
-291.647	-61.559	0.100	0.041
-290.632	-200.000	-0.011	-0.065
-289.618	-66.237	0.213	-0.084
-288.603	-200.000	0.003	0.221
-287.589	170.806	-0.112	0.158
-286.574	-13.820	0.059	-0.038
-285.559	-200.000	-0.009	-0.339
-284.545	421.960	0.077	0.163
-283.530	-200.000	-0.169	0.000
-282.516	-8.074	-0.215	-0.143
-281.501	53.737	0.149	0.141
-280.486	800.000	-0.088	-0.289
-279.472	800.000	0.072	-0.242
-278.457	-88.797	0.068	-0.020
-277.443	800.000	0.070	0.200
-276.428	-15.071	-0.155	0.098
-275.413	-56.862	-0.195	-0.085
-274.399	26.807	0.086	-0.071
-273.384	27.961	0.358	-0.298
-272.370	265.195	-0.120	0.205
-271.355	87.670	0.123	-0.134
-270.340	206.282	0.134	-0.205
-269.326	247.482	-0.093	0.154
-268.311	648.631	0.086	0.216
-267.297	800.000	0.051	-0.174
-266.282	-200.000	0.027	-0.247
-265.267	314.369	-0.110	0.205
-264.253	-200.000	-0.052	-0.249
-263.238	470.569	-0.199	-0.441
-262.224	-200.000	-0.015	0.192
-261.209	-159.652	0.154	0.008
-260.195	200.262	0.101	-0.153
-259.180	-25.157	0.061	-0.035
-258.165	0.426	-0.060	0.042
-257.151	-124.692	0.338	-0.052
-256.136	-184.492	-0.403	0.006
-255.122	800.000	0.071	0.215
-254.107	-63.138	-0.119	0.048
-253.092	-153.290	0.150	0.010
-252.078	282.005	-0.058	0.103
-251.063	-119.190	-0.168	0.029
-250.049	168.064	-0.190	0.266
-249.034	-57.745	0.207	0.089
-248.019	301.005	-0.155	-0.282
-247.005	-36.732	0.170	-0.090
-245.990	125.832	-0.113	-0.141
-244.976	21.963	-0.234	-0.188
-243.961	-76.298	-0.187	0.065
-242.946	-131.474	0.129	0.017
-241.932	-200.000	0.004	-0.110
-240.917	-135.140	0.336	-0.040
-239.903	-133.457	0.418	0.052
-238.888	25.101	0.051	-0.042
-237.873	37.977	-0.148	-0.130
-236.859	22.290	0.312	-0.251
-235.844	800.000	-0.047	0.166
-234.830	34.305	-0.086	-0.074
-233.815	47.187	0.149	0.136
-232.800	-151.759	0.040	0.003
-231.786	51.704	-0.255	-0.238
-230.771	-200.000	-0.012	0.064
-229.757	-55.453	-0.215	0.095
-228.742	391.658	0.105	0.215
-227.727	-200.000	-0.043	0.245
-226.713	-200.000	0.037	-0.192
-225.698	35.200	0.311	-0.268
-224.684	-97.885	-0.205	-0.052
-223.669	-51.655	0.080	-0.037
-222.655	-90.882	0.339	-0.096
-221.640	63.161	0.217	-0.214
-220.625	23.636	-0.151	0.122
-219.611	-200.000	-0.016	-0.407
-218.596	31.900	0.149	0.126
-217.582	257.734	-0.097	0.164
-216.567	-0.490	0.209	0.146
-215.552	-159.309	0.053	-0.003
-214.538	-200.000	-0.020	-0.178
-213.523	-200.000	-0.018	-0.142
-212.509	-42.092	-0.285	-0.143
-211.494	-88.876	0.263	-0.077
-210.479	-200.000	0.066	0.490
-209.465	-3.408	-0.276	0.189
-208.450	-67.416	0.408	0.157
-207.436	-33.154	-0.290	-0.158
-206.421	-106.582	0.102	-0.022
-205.406	-138.297	-0.029	0.003
-204.392	185.377	-0.086	0.125
-203.377	202.589	-0.154	-0.234
-202.363	233.166	0.076	-0.123
-201.348	75.924	-0.109	0.114
-200.333	-154.070	-0.112	-0.007
-199.319	-3.153	0.174	0.120
-198.304	-95.895	0.114	-0.030
-197.290	-132.654	0.507	0.064
-196.275	-36.076	0.219	-0.116
-195.260	-56.232	-0.353	-0.154
-194.246	-93.412	-0.043	0.012
-193.231	226.240	-0.110	-0.175
-192.217	-11.588	-0.276	-0.178
-191.202	-200.000	0.025	0.210
-190.187	356.250	-0.137	0.267
-189.173	800.000	-0.090	-0.388
-188.158	-200.000	-0.048	-0.292
-187.144	-200.000	0.017	-0.194
-186.129	-2.873	-0.125	0.086
-185.114	-153.661	0.056	-0.004
-184.100	-12.412	-0.199	0.127
-183.085	-200.000	-0.024	-0.171
-182.071	-200.000	0.026	0.137
-181.056	-172.481	0.226	0.007
-180.042	245.707	0.059	0.097
-179.027	568.055	0.061	-0.145
-178.012	-200.000	-0.031	-0.408
-176.998	70.828	-0.213	-0.217
-175.983	375.179	0.120	0.241
-174.969	-30.172	-0.038	-0.021
-173.954	262.229	-0.065	-0.111
-172.939	-141.527	-0.088	-0.009
-171.925	-200.000	-0.022	0.101
-170.910	800.000	0.046	0.142
-169.896	-200.000	0.004	0.085
-168.881	-200.000	0.004	0.341
-167.866	-200.000	-0.004	0.093
-166.852	-144.937	0.051	-0.005
-165.837	-79.873	0.215	-0.071
-164.823	-32.534	-0.224	0.122
-163.808	72.748	0.200	-0.205
-162.793	-200.000	0.014	-0.289
-161.779	-91.420	-0.267	-0.075
-160.764	358.543	-0.113	0.222
-159.750	800.000	0.147	0.467
-158.735	-48.642	0.468	0.221
-157.720	-73.583	-0.195	-0.070
-156.706	-83.744	0.046	-0.014
-155.691	116.857	0.090	-0.108
-154.677	800.000	0.082	0.284
-153.662	-55.683	0.080	0.035
-152.647	516.674	0.145	0.332
-151.633	-142.014	-0.380	-0.037
-150.618	-51.979	0.491	0.224
-149.604	-28.285	-0.397	0.225
-148.589	-1.928	-0.087	0.060
-147.574	123.253	0.067	0.082
-146.560	420.239	0.068	-0.143
-145.545	693.351	0.039	-0.101
-144.531	-130.743	0.112	0.015
-143.516	13.721	-0.145	0.110
-142.502	800.000	-0.099	0.349
-141.487	346.830	0.139	0.269
-140.472	-107.600	-0.299	0.064
-139.458	-18.443	0.028	0.017
-138.443	117.480	-0.198	0.239
-137.429	800.000	-0.038	-0.115
-136.414	-55.900	0.220	-0.096
-135.399	800.000	0.108	0.314
-134.385	-60.140	0.182	-0.076
-133.370	507.131	-0.058	-0.133
-132.356	55.523	-0.154	-0.146
-131.341	729.535	0.044	0.116
-130.326	-146.507	0.262	-0.022
-129.312	-78.651	0.019	-0.006
-128.297	283.000	0.183	0.322
-127.283	593.662	0.125	0.302
-126.268	3.087	0.195	-0.139
-125.253	-68.765	-0.161	-0.061
-124.239	800.000	0.022	0.092
-123.224	-11.129	-0.206	0.133
-122.210	-127.413	0.296	-0.042
-121.195	126.999	0.098	-0.122
-120.180	276.472	-0.042	0.074
-119.166	-35.295	-0.146	-0.078
-118.151	-139.386	0.139	0.015
-117.137	-77.000	-0.327	0.112
-116.122	77.463	-0.273	0.284
-115.107	116.444	0.051	-0.061
-114.093	-109.734	-0.184	-0.038
-113.078	-15.402	0.153	-0.096
-112.064	800.000	0.048	-0.176
-111.049	37.684	-0.216	0.188
-110.034	717.724	0.151	0.394
-109.020	-200.000	-0.034	0.249
-108.005	-54.150	0.219	0.097
-106.991	-200.000	0.017	0.124
-105.976	158.345	-0.152	0.207
-104.962	-23.165	-0.086	0.051
-103.947	-200.000	-0.004	-0.062
-102.932	49.525	0.135	-0.124
-101.918	2.158	0.300	0.212
-100.903	28.309	0.300	0.248
-99.889	-40.907	0.110	-0.056
-98.874	528.538	0.045	-0.104
-97.859	-144.255	0.119	-0.011
-96.845	187.624	-0.108	-0.157
-95.830	-28.603	-0.156	0.088
-94.816	152.029	-0.068	0.091
-93.801	344.190	0.094	0.180
-92.786	-67.921	-0.234	-0.089
-91.772	249.494	-0.031	0.052
-90.757	-119.942	-0.042	0.007
-89.743	-88.002	-0.299	0.088
-88.728	-98.586	0.299	-0.075
-87.713	800.000	-0.127	0.351
-86.699	24.128	0.043	-0.035
-85.684	-112.985	-0.112	-0.022
-84.670	16.803	0.069	-0.053
-83.655	-174.876	-0.337	0.009
-82.640	178.941	0.259	-0.371
-81.626	-9.999	0.112	0.073
-80.611	-184.712	0.343	-0.005
-79.597	60.540	-0.114	0.110
-78.582	120.693	-0.203	0.246
-77.567	-99.493	-0.247	-0.061
-76.553	800.000	0.101	0.298
-75.538	126.277	-0.049	-0.060
-74.524	-157.446	0.249	0.015
-73.509	-200.000	0.002	-0.255
-72.494	-70.725	0.066	0.024
-71.480	800.000	-0.027	0.082
-70.465	-127.813	-0.211	0.030
-69.451	-200.000	-0.041	-0.358
-68.436	-49.986	0.091	-0.042
-67.422	-92.023	0.309	0.086
-66.407	25.645	0.058	0.047
-65.392	-72.969	0.363	0.130
-64.378	-200.000	0.019	0.231
-63.363	5.395	0.163	0.118
-62.349	-200.000	-0.078	0.461
-61.334	61.831	-0.976	-0.950
-60.319	211.659	0.524	0.806
-59.305	-200.000	-0.012	-1.321
-58.290	146.163	0.888	1.165
-57.276	438.975	0.773	1.648
-56.261	-200.000	113.243	655.113
-55.246	501.245	1477.961	3334.608
-54.232	152.120	2646.984	3529.031
-53.217	97.956	2271.490	2554.089
-52.203	37.138	1891.715	1636.595
-51.188	31.292	1687.793	1415.958
-50.173	28.788	1646.409	1362.642
-49.159	49.336	1701.518	1563.655
-48.144	48.255	1716.135	1568.887
-47.130	30.851	1674.582	1401.334
-46.115	28.280	1660.282	1370.109
-45.100	28.017	1655.795	1364.383
-44.086	28.113	1652.848	1362.619
-43.071	27.948	1650.270	1359.213
-42.057	27.994	1648.289	1357.868
-41.042	28.008	1646.315	1356.294
-40.027	28.001	1644.912	1355.030
-39.013	28.038	1642.411	1353.193
-37.998	28.065	1641.358	1352.465
-36.984	28.059	1639.895	1351.167
-35.969	28.085	1638.386	1350.059
-34.954	28.177	1636.847	1349.417
-33.940	28.121	1635.035	1347.454
-32.925	28.064	1633.177	1345.453
-31.911	28.101	1631.499	1344.290
-30.896	28.123	1629.791	1342.993
-29.881	28.152	1628.455	1342.047
-28.867	28.194	1626.744	1340.890
-27.852	28.152	1625.407	1339.433
-26.838	28.120	1623.683	1337.720
-25.823	28.201	1622.536	1337.317
-24.809	28.221	1621.004	1336.144
-23.794	28.138	1619.703	1334.416
-22.779	28.184	1618.241	1333.494
-21.765	28.239	1616.811	1332.659
-20.750	28.185	1615.124	1330.828
-19.736	28.155	1614.059	1329.681
-18.721	28.228	1612.186	1328.611
-17.706	28.156	1611.322	1327.325
-16.692	28.230	1609.065	1325.949
-15.677	28.229	1607.872	1324.903
-14.663	28.245	1606.736	1324.034
-13.648	28.319	1605.115	1323.177
-12.633	28.220	1603.818	1321.345
-11.619	28.152	1602.734	1319.910
-10.604	28.296	1600.716	1319.229
-9.590	28.264	1599.560	1317.996
-8.575	28.289	1598.654	1317.372
-7.560	28.291	1597.476	1316.363
-6.546	28.158	1596.650	1314.677
-5.531	28.234	1595.768	1314.444
-4.517	28.162	1594.490	1312.826
-3.502	28.189	1593.150	1311.863
-2.487	28.261	1591.495	1310.966
-1.473	27.635	1578.378	1295.660
-0.458	23.679	1557.470	1250.641
0.556	18.283	1556.069	1209.108
1.571	15.266	1578.229	1204.568
2.586	14.558	1589.119	1207.651
3.600	13.342	1536.503	1159.048
4.615	7.857	1431.861	1044.113
5.629	2.219	1371.587	964.557
6.644	1.065	1364.191	952.029
7.659	1.038	1363.275	951.130
8.673	0.891	1362.696	949.725
9.688	0.926	1359.905	947.911
10.702	0.782	1356.793	944.763
11.717	3.433	1360.436	963.800
12.731	10.160	1371.206	1013.621
13.746	15.975	1379.125	1055.933
14.761	17.622	1380.218	1066.996
15.775	16.980	1378.156	1061.292
16.790	16.003	1375.563	1053.104
17.804	15.171	1373.778	1046.449
18.819	14.815	1372.447	1043.120
19.834	14.560	1371.005	1040.342
20.848	14.409	1369.552	1038.206
21.863	14.025	1368.613	1035.009
22.877	13.875	1367.439	1033.101
23.892	13.907	1365.987	1032.104
24.907	13.905	1365.358	1031.526
25.921	13.910	1364.447	1030.783
26.936	13.925	1364.014	1030.456
27.950	13.929	1362.686	1029.384
28.965	14.007	1361.742	1029.063
29.980	14.035	1360.778	1028.419
30.994	14.043	1359.854	1027.678
32.009	14.027	1358.972	1026.825
33.023	14.113	1357.706	1026.302
34.038	14.085	1356.672	1025.261
35.053	14.046	1355.789	1024.264
36.067	14.012	1354.744	1023.170
37.082	13.965	1354.231	1022.403
38.096	14.099	1352.927	1022.152
39.111	13.988	1351.866	1020.582
40.126	13.975	1351.072	1019.812
41.140	13.889	1350.527	1018.780
42.155	13.837	1350.247	1018.160
43.169	13.919	1349.745	1018.195
44.184	13.861	1349.814	1017.801
45.199	13.833	1349.153	1017.038
46.213	13.779	1349.037	1016.535
47.228	14.047	1347.210	1016.704
48.242	13.891	1346.716	1015.289
49.257	13.959	1344.869	1014.225
50.271	13.951	1343.334	1012.924
51.286	13.981	1341.974	1011.993
52.301	14.027	1341.122	1011.540
53.315	13.938	1339.931	1010.014
54.330	13.937	1338.936	1009.170
55.344	13.862	1337.903	1007.843
56.359	13.954	1336.779	1007.466
57.374	13.863	1335.900	1006.165
58.388	13.773	1335.554	1005.266
59.403	13.754	1334.739	1004.450
60.417	13.878	1333.131	1003.903
61.432	13.725	1333.184	1002.926
62.447	13.721	1332.129	1002.020
63.461	13.844	1330.614	1001.536
64.476	13.739	1329.638	1000.079
65.490	13.732	1328.559	999.134
66.505	13.844	1326.721	998.342
67.520	13.809	1325.740	997.302
68.534	13.862	1324.379	996.511
69.549	13.793	1323.479	995.331
70.563	13.793	1322.772	994.707
71.578	13.730	1321.635	993.389
72.593	13.726	1320.358	992.320
73.607	13.728	1319.713	991.759
74.622	13.654	1318.931	990.643
75.636	13.720	1318.034	990.271
76.651	13.773	1317.134	989.824
77.666	13.713	1316.769	989.105
78.680	13.825	1315.754	988.922
79.695	13.764	1315.379	988.192
80.709	13.792	1314.652	987.723
81.724	13.760	1313.693	986.725
82.739	13.822	1312.398	986.035
83.753	13.892	1311.970	986.041
84.768	13.994	1310.281	985.286
85.782	13.989	1309.713	984.745
86.797	13.869	1308.313	982.895
87.812	13.888	1306.678	981.689
88.826	13.893	1305.685	980.887
89.841	13.951	1304.697	980.402
90.855	13.931	1304.007	979.676
91.870	14.030	1302.894	979.336
92.884	14.007	1302.147	978.552
93.899	14.012	1301.809	978.241
94.914	14.042	1300.887	977.642
95.928	14.016	1300.049	976.772
96.943	14.047	1298.945	976.039
97.957	13.922	1298.123	974.597
98.972	13.969	1296.985	973.933
99.987	14.006	1295.946	973.283
101.001	14.054	1294.750	972.580
102.016	13.947	1294.093	971.374
103.030	14.082	1292.683	971.023
104.045	13.939	1292.234	969.764
105.060	13.931	1290.865	968.605
106.074	13.930	1289.659	967.606
107.089	13.890	1288.482	966.403
108.103	13.807	1287.388	965.015
109.118	13.877	1285.749	964.111
110.133	13.754	1284.845	962.631
111.147	13.848	1283.624	962.176
112.162	13.941	1282.054	961.451
113.176	13.958	1280.954	960.643
114.191	13.888	1279.946	959.399
115.206	14.021	1278.492	958.988
116.220	13.945	1277.375	957.626
117.235	13.908	1276.307	956.528
118.249	13.835	1275.539	955.448
119.264	13.849	1274.601	954.740
120.279	13.896	1273.458	954.071
121.293	13.884	1272.293	953.049
122.308	13.903	1271.120	952.190
123.322	13.946	1269.962	951.488
124.337	13.909	1269.205	950.623
125.352	13.876	1267.945	949.409
126.366	13.864	1266.848	948.430
127.381	13.778	1265.809	947.079
128.395	13.885	1264.474	946.610
129.410	13.863	1263.519	945.683
130.424	13.845	1262.862	945.006
131.439	13.878	1261.839	944.347
132.454	13.900	1261.152	943.873
133.468	14.066	1260.120	943.956
134.483	14.023	1259.381	943.077
135.497	13.918	1258.072	941.421
136.512	13.952	1257.131	940.824
137.527	13.987	1255.429	939.663
138.541	13.910	1254.047	938.111
139.556	13.972	1252.572	937.278
140.570	13.972	1251.851	936.655
141.585	13.994	1250.573	935.735
142.600	13.969	1249.772	934.918
143.614	14.018	1248.432	934.108
144.629	14.185	1246.978	933.874
145.643	14.116	1246.341	932.924
146.658	14.079	1245.380	931.918
147.673	14.105	1243.753	930.762
148.687	14.020	1242.680	929.404
149.702	14.029	1241.264	928.310
150.716	13.916	1240.445	926.987
151.731	14.048	1238.763	926.381
152.746	13.873	1237.982	924.744
153.760	14.092	1236.234	924.570
154.775	14.191	1235.197	924.265
155.789	14.143	1233.860	922.919
156.804	14.167	1233.165	922.447
157.819	14.259	1231.668	921.754
158.833	14.167	1231.330	920.911
159.848	14.208	1230.081	920.122
160.862	14.209	1229.006	919.243
161.877	14.174	1227.681	917.977
162.892	14.142	1226.787	917.052
163.906	14.150	1226.233	916.603
164.921	14.195	1224.870	915.749
165.935	14.254	1223.902	915.265
166.950	14.185	1223.575	914.561
167.964	14.102	1223.250	913.781
168.979	14.351	1222.208	914.288
169.994	14.282	1221.483	913.287
171.008	14.235	1220.918	912.526
172.023	14.343	1219.897	912.274
173.037	14.271	1219.355	911.396
174.052	14.296	1218.317	910.675
175.067	14.399	1217.200	910.323
176.081	14.330	1216.237	909.146
177.096	14.235	1215.557	908.036
178.110	14.282	1214.051	907.087
179.125	14.368	1212.593	906.387
180.140	14.358	1211.754	905.626
181.154	14.375	1210.692	904.842
182.169	14.310	1209.544	903.555
183.183	14.427	1208.323	903.193
184.198	14.496	1206.829	902.372
185.213	14.377	1206.113	901.112
186.227	14.557	1204.699	900.950
187.242	14.519	1203.825	900.014
188.256	14.545	1202.811	899.312
189.271	14.586	1201.824	898.720
190.286	14.495	1200.982	897.519
191.300	14.339	1200.702	896.392
192.315	14.349	1199.788	895.682
193.329	14.404	1199.230	895.481
194.344	14.370	1197.953	894.268
195.359	14.395	1197.838	894.238
196.373	14.505	1197.414	894.428
197.388	14.467	1196.802	893.688
198.402	14.518	1196.171	893.415
199.417	14.731	1194.808	893.454
200.432	14.663	1194.389	892.702
201.446	14.639	1193.830	892.074
202.461	14.747	1192.578	891.638
203.475	14.729	1191.798	890.878
204.490	14.774	1190.172	889.826
205.504	14.723	1189.122	888.688
206.519	14.706	1187.992	887.676
207.534	14.802	1186.634	887.092
208.548	14.767	1186.071	886.405
209.563	14.813	1184.885	885.685
210.577	14.765	1184.323	884.935
211.592	14.826	1183.214	884.348
212.607	14.756	1182.809	883.598
213.621	14.837	1181.647	883.079
214.636	14.889	1180.984	882.779
215.650	14.884	1180.308	882.172
216.665	14.850	1178.782	880.771
217.680	14.949	1177.812	880.489
218.694	14.953	1177.212	879.984
219.709	14.928	1176.597	879.315
220.723	14.827	1176.440	878.591
221.738	14.915	1175.310	878.134
222.753	14.961	1173.928	877.264
223.767	14.927	1173.841	876.942
224.782	14.970	1173.155	876.577
225.796	15.044	1172.747	876.583
226.811	15.163	1171.754	876.383
227.826	15.027	1171.208	875.186
228.840	15.017	1170.487	874.516
229.855	14.949	1169.891	873.642
230.869	14.995	1169.125	873.232
231.884	15.045	1167.688	872.341
232.899	15.033	1167.189	871.832
233.913	14.954	1166.699	870.973
234.928	15.112	1165.486	870.816
235.942	15.108	1164.654	870.097
236.957	15.049	1164.235	869.396
237.972	15.030	1163.299	868.525
238.986	15.103	1162.975	868.584
240.001	15.052	1162.585	867.952
241.015	14.996	1161.400	866.699
242.030	15.131	1160.316	866.510
243.045	15.227	1159.576	866.379
244.059	15.191	1158.906	865.616
245.074	15.162	1158.209	864.868
246.088	15.246	1157.048	864.357
247.103	15.271	1156.122	863.720
248.117	15.186	1155.725	862.909
249.132	15.292	1155.043	862.870
250.147	15.395	1154.315	862.780
251.161	15.377	1153.346	861.885
252.176	15.428	1152.736	861.617
253.190	15.589	1152.127	861.911
254.205	15.598	1151.360	861.305
255.220	15.388	1151.261	860.077
256.234	15.599	1150.056	860.182
257.249	15.590	1149.168	859.398
258.263	15.566	1148.733	858.871
259.278	15.535	1148.424	858.406
260.293	15.555	1147.748	857.926
261.307	15.620	1146.885	857.538
262.322	15.628	1146.691	857.358
263.336	15.654	1145.680	856.660
264.351	15.675	1145.450	856.520
265.366	15.704	1144.513	855.887
266.380	15.701	1143.930	855.362
267.395	15.690	1142.907	854.464
268.409	15.732	1142.270	854.126
269.424	15.735	1141.728	853.662
270.439	15.747	1141.118	853.190
271.453	15.713	1140.537	852.510
272.468	15.663	1139.799	851.626
273.482	15.669	1138.962	850.957
274.497	15.826	1138.207	851.114
275.512	15.850	1137.359	850.524
276.526	15.900	1136.431	850.010
277.541	15.914	1135.839	849.560
278.555	15.859	1135.353	848.842
279.570	15.880	1134.614	848.325
280.585	15.862	1134.136	847.797
281.599	15.934	1133.029	847.258
282.614	15.982	1131.784	846.493
283.628	15.901	1130.764	845.250
284.643	15.871	1130.274	844.660
285.657	15.996	1129.018	844.274
286.672	15.957	1128.280	843.448
287.687	15.964	1127.101	842.527
288.701	16.013	1126.550	842.287
289.716	16.117	1125.693	842.092
290.730	15.987	1125.115	840.937
291.745	15.959	1124.856	840.527
292.760	16.004	1123.990	840.031
293.774	16.085	1123.155	839.739
294.789	16.113	1122.750	839.500
295.803	16.090	1122.172	838.880
296.818	16.133	1121.261	838.338
297.833	16.187	1120.695	838.106
298.847	16.175	1119.821	837.322
299.862	16.190	1119.149	836.819
300.876	16.133	1118.172	835.731
301.891	16.221	1117.887	835.881
302.906	16.159	1117.179	834.968
303.920	16.239	1116.443	834.742
304.935	16.242	1116.016	834.363
305.949	16.421	1114.924	834.355
306.964	16.457	1114.365	834.042
307.979	16.362	1113.775	833.057
308.993	16.300	1113.020	832.116
310.008	16.413	1112.074	831.892
311.022	16.391	1111.386	831.191
312.037	16.478	1110.416	830.823
313.052	16.396	1109.688	829.803
314.066	16.376	1108.545	828.774
315.081	16.428	1108.021	828.562
316.095	16.431	1107.128	827.837
317.110	16.526	1106.296	827.605
318.125	16.264	1106.213	826.189
319.139	16.335	1105.410	825.864
320.154	16.396	1104.523	825.425
321.168	16.361	1103.658	824.538
322.183	16.424	1103.137	824.380
323.197	16.443	1102.450	823.887
324.212	16.412	1102.006	823.329
325.227	16.528	1100.952	823.034
326.241	16.465	1100.985	822.683
327.256	16.468	1099.728	821.684
328.270	16.471	1098.556	820.752
329.285	16.582	1097.668	820.554
330.300	16.579	1096.709	819.749
331.314	16.650	1095.865	819.390
332.329	16.541	1095.252	818.331
333.343	16.645	1093.854	817.716
334.358	16.571	1093.799	817.246
335.373	16.498	1093.357	816.489
336.387	16.636	1091.852	815.960
337.402	16.667	1091.388	815.689
338.416	16.600	1090.822	814.873
339.431	16.776	1089.878	814.943
340.446	16.718	1089.826	814.551
341.460	16.775	1089.051	814.172
342.475	16.694	1088.071	812.982
343.489	16.812	1087.047	812.707
344.504	16.853	1086.145	812.158
345.519	16.833	1085.449	811.474
346.533	16.842	1084.639	810.839
347.548	16.992	1083.905	810.935
348.562	16.945	1082.796	809.807
349.577	16.970	1082.120	809.350
350.592	16.966	1081.282	808.632
351.606	16.921	1080.736	807.937
352.621	16.826	1080.513	807.248
353.635	16.860	1079.829	806.826
354.650	16.880	1079.180	806.367
355.665	16.850	1078.598	805.719
356.679	16.923	1077.619	805.261
357.694	16.949	1076.809	804.706
358.708	16.950	1076.184	804.173
359.723	17.003	1075.427	803.789
360.738	17.076	1074.760	803.566
361.752	17.040	1074.280	802.964
362.767	16.998	1073.975	802.466
363.781	17.053	1073.291	802.145
364.796	17.210	1072.202	802.000
365.810	17.127	1072.246	801.572
366.825	17.127	1071.799	801.165
367.840	17.092	1071.166	800.457
368.854	17.378	1070.193	801.005
369.869	17.279	1069.632	800.051
370.883	17.325	1068.683	799.486
371.898	17.356	1067.965	799.023
372.913	17.280	1067.351	798.134
373.927	17.273	1067.011	797.777
374.942	17.323	1066.549	797.598
375.956	17.368	1065.687	797.092
376.971	17.374	1065.522	796.927
377.986	17.369	1064.749	796.256
379.000	17.395	1064.268	795.945
380.015	17.453	1063.703	795.726
381.029	17.427	1063.021	795.023
382.044	17.588	1062.046	794.976
383.059	17.596	1061.634	794.633
384.073	17.466	1060.768	793.310
385.088	17.517	1059.893	792.819
386.102	17.484	1059.139	792.034
387.117	17.429	1058.144	790.962
388.132	17.422	1057.365	790.278
389.146	17.534	1056.694	790.225
390.161	17.392	1056.064	789.029
391.175	17.502	1055.133	788.773
392.190	17.612	1054.408	788.668
393.205	17.538	1053.675	787.710
394.219	17.606	1052.766	787.274
395.234	17.570	1052.074	786.520
396.248	17.709	1050.659	786.033
397.263	17.707	1049.633	785.187
398.278	17.518	1049.555	784.191
399.292	17.666	1048.556	784.053
400.307	17.733	1047.896	783.798
401.321	17.620	1047.631	783.013
402.336	17.664	1047.020	782.690
403.350	17.668	1046.139	781.978
404.365	17.723	1045.285	781.524
405.380	17.627	1044.512	780.437
406.394	17.801	1043.753	780.596
407.409	17.742	1043.044	779.730
408.423	17.865	1042.367	779.713
409.438	17.831	1041.934	779.166
410.453	17.945	1040.298	778.393
411.467	17.856	1040.625	778.165
412.482	17.826	1039.569	777.169
413.496	17.871	1039.501	777.256
414.511	17.840	1038.722	776.461
415.526	17.919	1038.329	776.461
416.540	18.097	1037.577	776.637
417.555	18.033	1037.202	775.996
418.569	17.996	1036.675	775.366
419.584	18.019	1036.228	775.067
420.599	18.060	1035.655	774.757
421.613	107.857	1325.378	1481.375
422.628	98.947	1367.562	1481.458
