DTS Sentinel unit serial number:	SN413079Multiplexer serial number:	ORYXHardware model number:	OX4-SRSoftware version number:	ORYX F/W v4.00 Oryx Data Collector v3.7.2.0data status	okinstallation	princeton_trtdifferential loss correction	single-endedforward channel	channel 2reverse channel	N/Adate	2019/09/16time	06:31:35forward acquisition time	60.00reverse acquisition time	0.00gamma	496.2192k internal	0.2334k external	0.2334temperature offset calibration	0.9979default loss term (dB/km)	0.3790temperature slope calibration	1.0000multiplexer offset coefficient	1.0000multiplexer slope coefficient	1.0000fibre end	0.00T internal ref (°C)	27.37T ext. ref 1 (°C)	11.37T ext. ref 2 (°C)	21.81length (m)	temperature (°C)	Stokes	anti-Stokes-747.200	-60.578	0.111	0.047
-746.185	800.000	-0.098	0.310
-745.171	-200.000	0.003	0.070
-744.156	-16.927	0.089	0.056
-743.142	-115.057	0.241	-0.046
-742.127	-25.205	0.130	0.077
-741.112	388.343	0.165	0.343
-740.098	0.436	-0.347	0.249
-739.083	12.483	0.077	-0.059
-738.069	171.820	-0.108	0.155
-737.054	-183.579	0.152	0.003
-736.039	-30.765	-0.295	0.167
-735.025	707.088	0.181	0.480
-734.010	172.061	-0.134	0.194
-732.996	-10.743	0.200	-0.133
-731.981	327.276	-0.013	-0.024
-730.966	-200.000	-0.038	-0.307
-729.952	-138.149	-0.189	-0.021
-728.937	190.292	-0.200	-0.302
-727.923	202.355	0.067	-0.105
-726.908	-200.000	0.025	0.187
-725.894	-142.100	-0.097	-0.010
-724.879	400.822	-0.218	0.460
-723.864	-92.649	0.135	0.038
-722.850	800.000	-0.039	0.138
-721.835	800.000	0.064	-0.273
-720.821	-86.297	0.081	-0.025
-719.806	341.158	-0.063	-0.124
-718.791	-104.898	0.226	0.052
-717.777	-44.076	0.225	0.114
-716.762	-175.595	-0.263	-0.007
-715.748	439.522	0.123	-0.270
-714.733	800.000	-0.103	0.386
-713.718	-200.000	0.047	0.402
-712.704	-200.000	-0.008	-0.163
-711.689	24.182	-0.234	-0.194
-710.675	800.000	0.136	0.389
-709.660	-200.000	-0.011	-0.375
-708.645	384.905	0.208	0.430
-707.631	250.716	-0.175	-0.299
-706.616	29.035	-0.237	-0.202
-705.602	-168.485	0.132	-0.005
-704.587	800.000	0.025	-0.081
-703.572	64.554	0.206	-0.209
-702.558	-53.140	-0.247	-0.114
-701.543	-108.839	-0.096	-0.021
-700.529	-111.560	-0.243	0.050
-699.514	741.323	-0.038	0.102
-698.499	800.000	-0.268	-0.803
-697.485	-34.352	0.099	-0.055
-696.470	-96.268	0.120	-0.032
-695.456	25.575	0.162	-0.136
-694.441	-200.000	-0.048	0.244
-693.426	384.148	0.135	-0.280
-692.412	-200.000	-0.024	-0.109
-691.397	-37.854	-0.418	0.223
-690.383	6.653	-0.178	-0.133
-689.368	94.579	-0.230	-0.262
-688.354	189.371	-0.038	-0.057
-687.339	195.243	0.042	0.064
-686.324	-200.000	-0.014	0.149
-685.310	-96.066	-0.139	-0.037
-684.295	489.225	-0.113	-0.258
-683.281	-200.000	0.036	-0.240
-682.266	-116.405	-0.219	-0.041
-681.251	-112.645	0.029	-0.006
-680.237	800.000	0.085	0.265
-679.222	-200.000	0.004	-0.132
-678.208	-200.000	-0.037	0.246
-677.193	67.959	-0.168	-0.172
-676.178	111.991	0.186	0.225
-675.164	-200.000	0.021	0.104
-674.149	-1.091	0.229	0.162
-673.135	-39.038	-0.141	-0.074
-672.120	-200.000	-0.015	0.095
-671.105	768.963	0.095	0.260
-670.091	-54.685	-0.289	0.131
-669.076	418.653	-0.040	-0.086
-668.062	800.000	0.064	-0.273
-667.047	-200.000	0.043	-0.248
-666.032	43.612	0.019	0.017
-665.018	-26.053	-0.090	-0.053
-664.003	-180.660	-0.063	0.001
-662.989	-99.705	0.119	0.030
-661.974	117.292	-0.169	-0.209
-660.959	-200.000	-0.017	0.144
-659.945	141.213	0.171	0.227
-658.930	-78.313	0.439	-0.151
-657.916	-108.551	-0.051	0.011
-656.901	-200.000	-0.033	0.181
-655.886	228.363	-0.198	-0.323
-654.872	-169.671	0.143	-0.005
-653.857	-29.445	-0.220	0.126
-652.843	92.516	-0.110	-0.124
-651.828	10.106	-0.084	0.064
-650.814	-200.000	0.014	0.188
-649.799	17.603	-0.286	0.228
-648.784	-200.000	-0.033	-0.240
-647.770	207.187	0.050	0.078
-646.755	-15.410	0.146	-0.094
-645.741	279.064	-0.070	-0.125
-644.726	-118.699	0.187	-0.033
-643.711	-74.579	0.275	-0.099
-642.697	-66.938	-0.175	0.069
-641.682	800.000	-0.068	-0.275
-640.668	-51.040	0.188	-0.088
-639.653	43.950	-0.055	0.051
-638.638	38.542	0.221	0.197
-637.624	-92.955	-0.148	-0.041
-636.609	33.585	-0.243	-0.211
-635.595	-200.000	0.031	-0.250
-634.580	13.331	0.315	-0.245
-633.565	405.492	-0.086	0.182
-632.551	34.635	-0.302	-0.264
-631.536	800.000	-0.067	-0.218
-630.522	171.949	0.039	-0.056
-629.507	-53.468	0.279	-0.128
-628.492	-133.378	0.313	0.039
-627.478	15.636	-0.318	0.250
-626.463	-200.000	-0.028	0.356
-625.449	-106.939	-0.436	-0.097
-624.434	-127.065	-0.121	-0.018
-623.419	800.000	0.166	0.528
-622.405	-200.000	-0.006	0.126
-621.390	618.408	-0.057	0.144
-620.376	-200.000	0.030	-0.348
-619.361	-200.000	0.013	0.197
-618.346	-200.000	0.000	0.084
-617.332	-26.587	0.318	0.187
-616.317	-200.000	0.035	0.345
-615.303	557.049	0.116	-0.281
-614.288	32.516	-0.150	0.130
-613.273	-99.436	0.275	-0.069
-612.259	-173.236	0.433	-0.013
-611.244	-86.661	0.104	0.032
-610.230	73.932	-0.078	0.082
-609.215	105.820	-0.204	0.241
-608.201	-119.684	0.179	-0.031
-607.186	0.944	0.040	0.029
-606.171	-81.704	0.126	-0.041
-605.157	-106.071	0.335	0.075
-604.142	66.730	0.181	0.184
-603.128	481.747	-0.138	-0.314
-602.113	-140.342	0.195	-0.020
-601.098	175.669	0.152	-0.220
-600.084	19.969	-0.276	0.222
-599.069	800.000	0.091	-0.277
-598.055	-200.000	-0.015	-0.178
-597.040	402.154	-0.221	0.465
-596.025	-110.831	-0.176	-0.036
-595.011	-20.824	-0.310	-0.190
-593.996	800.000	0.015	0.065
-592.982	-200.000	0.040	-0.285
-591.967	301.736	-0.080	-0.147
-590.952	-40.662	-0.271	-0.140
-589.938	1.487	0.140	-0.101
-588.923	9.275	-0.145	0.110
-587.909	-30.723	-0.274	-0.155
-586.894	-97.013	0.349	-0.091
-585.879	800.000	0.071	-0.210
-584.865	448.981	0.064	0.141
-583.850	2.388	0.187	0.135
-582.836	-152.366	-0.242	-0.017
-581.821	2.482	-0.101	0.073
-580.806	19.458	0.238	-0.191
-579.792	-200.000	-0.267	-0.000
-578.777	-150.067	-0.179	0.014
-577.763	-135.901	-0.234	0.028
-576.748	-145.631	0.206	-0.018
-575.733	-50.849	0.147	-0.069
-574.719	-148.849	0.289	-0.023
-573.704	86.801	-0.232	0.255
-572.690	-78.968	0.056	-0.019
-571.675	-144.574	0.154	-0.014
-570.661	85.440	0.121	0.132
-569.646	55.179	-0.157	-0.152
-568.631	758.720	0.087	0.235
-567.617	-63.570	0.232	0.095
-566.602	96.429	-0.150	0.172
-565.588	-72.329	-0.288	-0.106
-564.573	-5.822	-0.139	0.095
-563.558	-88.973	-0.097	-0.029
-562.544	42.989	0.018	-0.017
-561.529	103.949	-0.126	0.148
-560.515	-11.023	0.236	0.155
-559.500	-49.080	-0.135	-0.065
-558.485	60.850	0.060	-0.059
-557.471	-107.559	-0.240	-0.053
-556.456	28.929	-0.066	-0.056
-555.442	800.000	-0.063	-0.223
-554.427	94.914	0.153	0.173
-553.412	-62.836	-0.135	-0.056
-552.398	-65.587	-0.074	0.029
-551.383	94.583	0.357	-0.405
-550.369	800.000	0.032	0.102
-549.354	800.000	0.042	-0.165
-548.339	-126.488	-0.517	0.077
-547.325	-200.000	-0.015	0.261
-546.310	-70.233	0.185	-0.070
-545.296	-30.225	0.111	-0.063
-544.281	73.632	0.261	-0.272
-543.266	-55.141	-0.087	0.039
-542.252	800.000	-0.055	-0.158
-541.237	89.305	0.177	0.197
-540.223	222.920	-0.074	-0.119
-539.208	-200.000	0.029	-0.165
-538.193	307.323	0.113	-0.209
-537.179	800.000	-0.079	0.338
-536.164	-159.799	-0.147	-0.008
-535.150	-200.000	-0.102	0.563
-534.135	-113.826	-0.145	-0.028
-533.121	13.783	-0.148	0.114
-532.106	-200.000	0.046	-0.203
-531.091	258.332	0.128	-0.219
-530.077	-146.573	-0.085	0.007
-529.062	-200.000	-0.017	0.300
-528.048	-133.159	-0.036	-0.004
-527.033	787.174	-0.135	-0.368
-526.018	-158.983	-0.084	-0.005
-525.004	-200.000	0.022	-0.098
-523.989	18.999	0.232	0.185
-522.975	9.860	-0.174	0.131
-521.960	-137.177	-0.137	-0.016
-520.945	-122.822	-0.161	0.026
-519.931	-37.057	0.033	-0.018
-518.916	-146.650	-0.185	0.016
-517.902	-200.000	0.010	0.269
-516.887	-66.124	-0.172	-0.068
-515.872	-200.000	-0.051	0.294
-514.858	-73.910	-0.025	0.009
-513.843	-200.000	0.001	0.192
-512.829	800.000	0.012	0.040
-511.814	-135.089	-0.034	0.004
-510.799	-10.263	-0.053	-0.035
-509.785	-46.198	-0.084	-0.041
-508.770	-179.185	-0.228	-0.005
-507.756	158.099	0.130	0.179
-506.741	800.000	0.077	0.272
-505.726	-75.032	0.151	0.054
-504.712	-45.962	-0.370	-0.182
-503.697	164.732	-0.052	0.074
-502.683	-200.000	-0.010	-0.390
-501.668	52.056	0.151	-0.143
-500.653	343.642	-0.083	-0.162
-499.639	-155.459	0.464	-0.030
-498.624	-153.036	0.180	0.013
-497.610	-15.236	-0.246	-0.156
-496.595	27.882	0.114	-0.096
-495.581	-67.294	-0.198	0.077
-494.566	506.745	0.082	-0.190
-493.551	-153.522	0.239	-0.016
-492.537	77.134	0.003	-0.003
-491.522	800.000	0.064	-0.268
-490.508	-154.526	-0.364	-0.024
-489.493	-79.066	0.172	0.058
-488.478	-51.245	0.207	0.097
-487.464	-30.580	-0.301	0.170
-486.449	233.810	-0.153	-0.251
-485.435	211.801	-0.045	-0.070
-484.420	-200.000	-0.004	-0.102
-483.405	800.000	-0.052	0.173
-482.391	67.306	-0.265	0.269
-481.376	-162.741	-0.189	-0.009
-480.362	26.121	0.167	-0.139
-479.347	800.000	0.037	-0.126
-478.332	-102.172	0.074	-0.018
-477.318	224.792	0.049	0.078
-476.303	9.144	0.228	0.171
-475.289	-9.551	0.258	-0.171
-474.274	-11.850	-0.054	0.035
-473.259	-62.048	-0.403	0.167
-472.245	-73.486	0.312	-0.113
-471.230	-48.029	-0.151	-0.073
-470.216	211.603	-0.199	0.312
-469.201	616.761	0.093	0.231
-468.186	800.000	-0.065	-0.256
-467.172	800.000	-0.087	0.362
-466.157	800.000	0.088	0.283
-465.143	125.563	0.209	0.262
-464.128	-200.000	0.063	0.353
-463.113	-96.201	-0.157	-0.041
-462.099	-3.988	0.117	-0.081
-461.084	110.416	-0.119	-0.142
-460.070	-200.000	-0.014	-0.061
-459.055	-142.129	0.299	0.029
-458.040	-200.000	-0.021	0.204
-457.026	682.243	0.052	-0.134
-456.011	800.000	-0.198	0.545
-454.997	-190.184	-0.186	0.002
-453.982	637.141	0.024	-0.061
-452.968	-125.861	-0.159	0.024
-451.953	133.925	-0.229	-0.295
-450.938	-49.474	-0.433	0.205
-449.924	-166.898	0.077	-0.003
-448.909	-32.379	0.126	-0.070
-447.895	-73.481	0.060	0.022
-446.880	447.909	0.113	-0.246
-445.865	-82.405	0.130	-0.042
-444.851	5.575	-0.179	-0.131
-443.836	-100.534	0.166	-0.041
-442.822	-200.000	0.001	0.178
-441.807	491.976	-0.050	-0.115
-440.792	-109.564	0.185	-0.039
-439.778	698.431	-0.057	0.149
-438.763	113.138	-0.206	0.248
-437.749	800.000	0.063	0.241
-436.734	-149.779	-0.069	-0.005
-435.719	51.148	0.184	0.174
-434.705	125.352	0.110	-0.137
-433.690	6.406	0.236	-0.174
-432.676	51.803	0.189	-0.179
-431.661	167.291	0.046	0.065
-430.646	-34.398	0.177	0.096
-429.632	800.000	0.106	0.320
-428.617	800.000	0.044	0.134
-427.603	-30.332	-0.114	-0.064
-426.588	433.923	0.184	0.397
-425.573	-200.000	0.007	-0.150
-424.559	74.143	-0.146	-0.153
-423.544	800.000	0.015	-0.063
-422.530	299.304	0.218	0.399
-421.515	-92.472	-0.110	-0.031
-420.500	245.921	-0.025	-0.042
-419.486	3.239	0.264	-0.191
-418.471	-200.000	-0.041	-0.399
-417.457	-200.000	0.030	-0.263
-416.442	-94.297	-0.112	0.031
-415.428	-112.732	-0.398	0.078
-414.413	708.568	0.050	0.132
-413.398	800.000	0.038	-0.131
-412.384	-9.571	-0.127	0.084
-411.369	-62.560	0.368	-0.152
-410.355	16.832	0.276	0.217
-409.340	333.920	0.132	0.254
-408.325	800.000	-0.022	0.088
-407.311	-101.327	-0.256	-0.062
-406.296	800.000	0.128	0.397
-405.282	-80.600	-0.325	-0.107
-404.267	-87.377	-0.396	-0.119
-403.252	72.550	0.237	0.245
-402.238	212.439	0.061	0.095
-401.223	800.000	-0.053	0.164
-400.209	800.000	-0.072	0.289
-399.194	48.017	-0.100	-0.092
-398.179	-12.207	0.226	0.146
-397.165	-6.153	0.185	0.125
-396.150	-39.872	-0.262	-0.136
-395.136	107.872	-0.161	-0.190
-394.121	-73.995	0.355	0.128
-393.106	-65.282	0.149	0.059
-392.092	-200.000	-0.014	-0.321
-391.077	-86.250	-0.344	0.105
-390.063	81.356	0.049	0.052
-389.048	800.000	-0.014	-0.056
-388.033	-76.419	0.200	0.070
-387.019	248.530	-0.120	0.202
-386.004	800.000	-0.032	0.106
-384.990	800.000	0.060	0.166
-383.975	-93.926	-0.547	0.149
-382.960	-29.529	0.054	-0.031
-381.946	353.694	0.071	-0.140
-380.931	-98.245	-0.394	-0.100
-379.917	-15.282	-0.206	0.131
-378.902	38.970	-0.157	-0.139
-377.888	-200.000	-0.058	-0.261
-376.873	-83.008	-0.273	0.087
-375.858	-200.000	-0.029	-0.319
-374.844	-32.517	0.239	0.132
-373.829	65.817	0.170	-0.171
-372.815	-113.709	-0.286	-0.055
-371.800	-111.865	-0.055	0.011
-370.785	-81.451	0.318	-0.104
-369.771	50.449	-0.152	0.142
-368.756	800.000	0.058	-0.165
-367.742	-121.141	-0.091	0.015
-366.727	-97.722	-0.374	-0.096
-365.712	-22.965	0.094	-0.056
-364.698	186.287	-0.109	0.160
-363.683	606.528	-0.018	0.043
-362.669	689.294	-0.063	-0.163
-361.654	138.278	-0.079	-0.102
-360.639	22.612	0.109	0.088
-359.625	15.548	0.121	0.094
-358.610	800.000	0.033	0.097
-357.596	352.743	0.101	0.199
-356.581	-45.960	0.399	-0.195
-355.566	-146.280	0.234	-0.020
-354.552	43.977	-0.184	0.167
-353.537	-43.870	0.155	-0.077
-352.523	-23.306	0.229	-0.136
-351.508	800.000	-0.012	0.049
-350.493	2.156	0.371	-0.265
-349.479	-200.000	0.011	-0.468
-348.464	327.997	-0.260	-0.495
-347.450	60.146	0.091	-0.089
-346.435	-200.000	0.004	-0.317
-345.420	152.034	0.223	-0.301
-344.406	-79.387	0.303	-0.101
-343.391	471.380	-0.030	0.068
-342.377	-61.311	-0.289	0.121
-341.362	-200.000	-0.007	-0.074
-340.348	-132.500	-0.510	0.065
-339.333	-103.318	-0.218	-0.051
-338.318	-29.587	0.287	-0.162
-337.304	113.047	-0.025	-0.030
-336.289	-16.605	-0.059	-0.037
-335.275	91.975	0.209	0.233
-334.260	-20.349	-0.156	0.095
-333.245	-200.000	-0.062	-0.476
-332.231	3.837	-0.061	0.044
-331.216	-39.127	-0.226	0.118
-330.202	-43.629	-0.245	-0.122
-329.187	235.673	-0.089	-0.145
-328.172	638.670	-0.022	-0.055
-327.158	721.545	-0.055	-0.143
-326.143	-200.000	-0.093	0.630
-325.129	89.605	0.153	-0.169
-324.114	515.378	-0.134	0.309
-323.099	357.566	-0.070	-0.139
-322.085	800.000	-0.035	0.135
-321.070	24.841	-0.320	0.262
-320.056	-33.331	0.156	-0.086
-319.041	-70.142	-0.139	-0.052
-318.026	-200.000	0.003	0.226
-317.012	-200.000	-0.000	0.015
-315.997	-83.738	-0.268	0.085
-314.983	-18.456	-0.166	-0.102
-313.968	142.881	-0.141	-0.186
-312.953	76.259	-0.147	0.154
-311.939	800.000	0.043	-0.139
-310.924	8.343	0.074	0.055
-309.910	-186.419	0.344	0.005
-308.895	106.919	-0.062	-0.073
-307.880	-150.519	-0.178	-0.014
-306.866	-200.000	0.035	-0.194
-305.851	247.515	0.078	-0.130
-304.837	-200.000	-0.004	-0.200
-303.822	320.937	0.178	0.334
-302.807	152.997	0.139	0.187
-301.793	-200.000	-0.026	0.150
-300.778	-200.000	-0.024	-0.155
-299.764	-170.207	-0.064	-0.002
-298.749	22.014	-0.210	-0.169
-297.735	42.568	0.129	-0.116
-296.720	-34.454	0.191	0.103
-295.705	-8.520	0.320	0.212
-294.691	-144.785	0.424	-0.038
-293.676	-64.608	-0.086	-0.034
-292.662	130.718	-0.076	-0.096
-291.647	-74.682	0.406	0.144
-290.632	-200.000	-0.055	-0.337
-289.618	40.075	0.180	-0.160
-288.603	-200.000	0.010	0.200
-287.589	-170.378	-0.295	0.010
-286.574	-200.000	-0.014	0.452
-285.559	136.959	0.059	-0.077
-284.545	39.501	-0.141	-0.124
-283.530	171.253	-0.105	0.149
-282.516	-125.465	-0.401	-0.060
-281.501	62.261	-0.163	0.160
-280.486	-200.000	-0.028	-0.143
-279.472	171.407	-0.166	-0.234
-278.457	-192.247	-0.035	-0.000
-277.443	93.842	0.086	0.097
-276.428	-110.407	-0.223	-0.046
-275.413	-94.784	0.384	0.103
-274.399	-200.000	-0.004	0.024
-273.384	121.773	-0.022	0.027
-272.370	111.975	0.187	-0.223
-271.355	80.071	0.214	-0.227
-270.340	-200.000	-0.056	0.347
-269.326	-59.583	-0.151	-0.064
-268.311	800.000	0.088	-0.322
-267.297	666.869	0.060	0.154
-266.282	147.802	0.175	0.233
-265.267	-46.054	-0.066	0.032
-264.253	332.403	-0.107	-0.205
-263.238	8.713	0.209	-0.156
-262.224	392.391	-0.088	-0.180
-261.209	-6.398	-0.400	0.269
-260.195	4.912	0.216	0.157
-259.180	83.394	-0.354	0.380
-258.165	-14.388	-0.279	0.177
-257.151	30.588	0.326	0.275
-256.136	-53.837	-0.214	0.096
-255.122	-151.100	0.112	-0.008
-254.107	64.907	-0.195	0.194
-253.092	92.647	-0.221	-0.246
-252.078	-187.410	-0.226	-0.003
-251.063	-200.000	-0.010	0.075
-250.049	42.967	0.094	-0.085
-249.034	-200.000	0.001	-0.089
-248.019	-95.591	0.162	-0.043
-247.005	-59.150	0.209	0.089
-245.990	16.059	-0.082	-0.064
-244.976	-197.721	-0.126	-0.001
-243.961	-152.935	0.336	0.023
-242.946	-76.383	-0.258	0.090
-241.932	-69.967	-0.350	-0.131
-240.917	-200.000	0.019	-0.126
-239.903	-23.381	-0.256	0.151
-238.888	-79.751	0.294	-0.097
-237.873	248.455	0.065	0.108
-236.859	210.968	-0.111	-0.172
-235.844	800.000	-0.052	0.178
-234.830	-64.414	0.121	-0.049
-233.815	-106.208	-0.134	-0.030
-232.800	64.430	0.035	-0.035
-231.786	-128.496	-0.199	-0.028
-230.771	26.936	-0.100	-0.082
-229.757	800.000	0.053	0.212
-228.742	-6.030	0.340	0.229
-227.727	-57.884	-0.529	-0.228
-226.713	-200.000	-0.022	-0.217
-225.698	-200.000	0.011	-0.058
-224.684	-200.000	-0.002	-0.181
-223.669	-75.966	-0.255	-0.089
-222.655	-39.400	-0.160	0.083
-221.640	33.397	-0.113	0.097
-220.625	800.000	0.096	0.273
-219.611	-46.732	0.294	-0.142
-218.596	-200.000	0.051	0.398
-217.582	-135.730	0.155	0.018
-216.567	800.000	0.030	-0.101
-215.552	475.054	0.083	0.185
-214.538	-105.801	0.011	-0.003
-213.523	-144.246	-0.014	0.001
-212.509	-200.000	-0.079	-0.367
-211.494	800.000	0.057	-0.238
-210.479	-200.000	0.007	0.046
-209.465	302.460	0.032	0.059
-208.450	-200.000	-0.005	-0.348
-207.436	-138.547	0.561	0.061
-206.421	800.000	0.048	-0.139
-205.406	-53.766	-0.096	0.043
-204.392	-200.000	-0.013	0.213
-203.377	-34.263	-0.199	-0.107
-202.363	310.326	0.096	-0.178
-201.348	252.329	0.135	0.226
-200.333	800.000	0.055	0.163
-199.319	763.304	-0.053	-0.142
-198.304	-200.000	-0.014	-0.285
-197.290	-126.521	0.301	0.044
-196.275	-164.288	0.190	0.009
-195.260	74.597	0.053	0.055
-194.246	74.728	-0.151	-0.156
-193.231	109.200	-0.096	0.113
-192.217	800.000	-0.032	-0.086
-191.202	800.000	-0.005	0.017
-190.187	800.000	0.063	-0.209
-189.173	28.535	-0.134	0.111
-188.158	-200.000	-0.074	0.380
-187.144	800.000	0.073	0.244
-186.129	154.231	0.146	0.196
-185.114	-59.623	0.134	-0.056
-184.100	-10.711	0.268	0.174
-183.085	-200.000	-0.045	-0.437
-182.071	-99.686	-0.125	0.031
-181.056	82.568	0.151	-0.161
-180.042	276.727	-0.120	0.210
-179.027	235.787	-0.036	-0.058
-178.012	108.603	-0.070	-0.082
-176.998	-200.000	0.041	0.180
-175.983	-200.000	0.033	-0.149
-174.969	45.647	0.304	-0.276
-173.954	-82.498	0.408	0.130
-172.939	-129.496	0.281	0.038
-171.925	419.988	-0.063	-0.133
-170.910	415.107	0.152	-0.318
-169.896	-45.866	0.114	-0.055
-168.881	800.000	0.040	0.110
-167.866	0.659	-0.074	-0.052
-166.852	148.956	0.147	-0.196
-165.837	9.912	0.256	0.191
-164.823	-143.602	0.092	0.009
-163.808	43.449	0.144	0.129
-162.793	30.470	0.139	0.116
-161.779	5.933	-0.207	-0.151
-160.764	641.743	0.040	-0.099
-159.750	-108.227	0.130	0.028
-158.735	89.131	0.198	-0.217
-157.720	148.537	0.140	-0.186
-156.706	-200.000	-0.032	-0.171
-155.691	-116.270	0.250	-0.046
-154.677	800.000	0.144	0.519
-153.662	-3.340	0.144	-0.098
-152.647	-143.430	-0.045	0.004
-151.633	-54.119	-0.127	0.057
-150.618	131.076	0.222	-0.279
-149.604	42.909	0.314	0.281
-148.589	-143.223	-0.295	0.028
-147.574	-151.294	0.484	-0.035
-146.560	-50.458	0.164	-0.076
-145.545	191.131	0.045	0.067
-144.531	-200.000	0.030	0.322
-143.516	-123.060	-0.118	-0.019
-142.502	-71.959	-0.097	0.036
-141.487	-59.245	0.303	0.128
-140.472	-200.000	0.020	-0.335
-139.458	549.620	0.080	-0.189
-138.443	-200.000	-0.039	-0.252
-137.429	258.072	-0.150	0.253
-136.414	194.501	0.074	0.111
-135.399	-138.950	-0.303	-0.032
-134.385	-132.911	0.105	0.013
-133.370	402.539	0.071	-0.147
-132.356	642.896	0.065	-0.163
-131.341	-24.757	-0.247	-0.144
-130.326	-200.000	0.073	0.405
-129.312	-200.000	0.008	0.105
-128.297	54.216	0.299	-0.282
-127.283	120.614	-0.082	0.100
-126.268	800.000	-0.067	0.248
-125.253	-200.000	0.004	-0.190
-124.239	-200.000	-0.005	0.042
-123.224	24.490	0.215	-0.174
-122.210	100.063	0.236	0.268
-121.195	20.417	-0.168	-0.133
-120.180	172.324	-0.170	-0.240
-119.166	-15.474	0.168	-0.105
-118.151	800.000	-0.040	-0.155
-117.137	382.432	0.133	-0.269
-116.122	-96.631	0.469	0.121
-115.107	-60.591	0.201	0.084
-114.093	-128.825	0.443	-0.061
-113.078	-78.869	-0.284	0.095
-112.064	-80.613	-0.360	-0.117
-111.049	-200.000	0.028	-0.128
-110.034	-82.020	-0.258	-0.083
-109.020	99.116	0.172	-0.195
-108.005	-200.000	0.012	-0.159
-106.991	113.928	0.111	-0.132
-105.976	277.853	0.096	0.168
-104.962	-200.000	0.038	0.557
-103.947	-77.543	-0.213	-0.072
-102.932	-200.000	0.009	0.093
-101.918	-34.444	0.108	0.058
-100.903	-200.000	-0.019	0.296
-99.889	800.000	0.101	0.308
-98.874	69.830	-0.264	-0.267
-97.859	564.020	-0.060	0.142
-96.845	-176.925	-0.119	0.003
-95.830	-85.375	0.223	0.068
-94.816	21.544	-0.225	-0.179
-93.801	-30.564	0.096	0.053
-92.786	-200.000	0.369	-0.001
-91.772	800.000	-0.114	0.334
-90.757	-200.000	-0.008	0.204
-89.743	800.000	-0.060	0.214
-88.728	-62.402	-0.154	0.063
-87.713	-114.185	-0.173	-0.033
-86.699	49.294	-0.245	-0.226
-85.684	-200.000	-0.115	0.497
-84.670	-200.000	-0.016	-0.155
-83.655	115.449	0.054	0.064
-82.640	-200.000	-0.053	0.302
-81.626	206.067	-0.199	0.303
-80.611	155.576	-0.091	-0.123
-79.597	-93.477	0.122	0.033
-78.582	199.877	-0.136	-0.204
-77.567	-29.129	0.293	-0.164
-76.553	745.637	0.027	-0.070
-75.538	800.000	0.097	0.337
-74.524	800.000	-0.124	0.400
-73.509	103.891	-0.150	0.172
-72.494	-120.614	-0.284	-0.047
-71.480	591.461	-0.026	0.063
-70.465	40.040	0.207	0.182
-69.451	181.766	-0.112	-0.162
-68.436	-100.102	0.258	0.063
-67.422	800.000	0.062	0.181
-66.407	-69.554	0.237	-0.089
-65.392	-53.429	0.218	0.098
-64.378	510.163	0.137	-0.312
-63.363	-49.715	0.261	0.121
-62.349	726.632	0.122	0.320
-61.334	116.252	-1.194	-1.431
-60.319	181.246	0.505	0.726
-59.305	-200.000	-0.077	-1.219
-58.290	419.772	0.656	1.375
-57.276	473.687	0.749	1.653
-56.261	-200.000	114.174	644.771
-55.246	464.212	1513.328	3310.114
-54.232	145.332	2689.753	3522.903
-53.217	96.665	2295.422	2571.969
-52.203	36.361	1906.151	1644.385
-51.188	30.527	1697.385	1419.823
-50.173	28.060	1655.710	1366.493
-49.159	50.169	1710.642	1580.117
-48.144	48.920	1724.598	1583.494
-47.130	30.194	1683.138	1405.160
-46.115	27.489	1669.000	1372.944
-45.100	27.218	1663.857	1366.623
-44.086	27.260	1660.994	1364.531
-43.071	27.336	1658.189	1362.742
-42.057	27.219	1655.803	1359.847
-41.042	27.299	1654.093	1358.992
-40.027	27.327	1652.628	1357.938
-39.013	27.231	1650.375	1355.318
-37.998	27.250	1648.988	1354.271
-36.984	27.238	1647.648	1353.027
-35.969	27.311	1645.914	1352.091
-34.954	27.386	1644.687	1351.586
-33.940	27.350	1642.772	1349.692
-32.925	27.412	1640.512	1348.242
-31.911	27.351	1638.895	1346.406
-30.896	27.406	1637.023	1345.221
-29.881	27.438	1635.183	1343.895
-28.867	27.353	1633.651	1341.953
-27.852	27.366	1632.231	1340.832
-26.838	27.278	1631.186	1339.270
-25.823	27.388	1629.327	1338.496
-24.809	27.412	1628.189	1337.690
-23.794	27.409	1626.772	1336.448
-22.779	27.350	1625.488	1334.911
-21.765	27.349	1623.925	1333.565
-20.750	27.393	1622.209	1332.422
-19.736	27.387	1621.239	1331.533
-18.721	27.523	1619.495	1331.036
-17.706	27.358	1618.231	1328.742
-16.692	27.332	1616.524	1327.100
-15.677	27.377	1615.143	1326.238
-14.663	27.444	1613.983	1325.726
-13.648	27.403	1612.329	1324.017
-12.633	27.484	1610.514	1323.056
-11.619	27.404	1609.394	1321.506
-10.604	27.444	1607.831	1320.460
-9.590	27.466	1606.142	1319.182
-8.575	27.356	1605.578	1317.866
-7.560	27.468	1604.012	1317.343
-6.546	27.473	1602.771	1316.305
-5.531	27.406	1601.855	1315.014
-4.517	27.427	1600.647	1314.126
-3.502	27.424	1600.081	1313.589
-2.487	27.531	1597.659	1312.319
-1.473	27.158	1586.359	1300.314
-0.458	24.281	1566.705	1263.790
0.556	19.123	1568.563	1233.044
1.571	17.080	1592.269	1236.701
2.586	16.793	1604.718	1244.153
3.600	16.398	1554.582	1202.361
4.615	14.337	1456.783	1112.865
5.629	11.893	1403.100	1056.019
6.644	11.424	1395.902	1047.500
7.659	11.383	1395.152	1046.582
8.673	11.304	1394.277	1045.323
9.688	11.378	1391.714	1043.784
10.702	11.245	1388.869	1040.706
11.717	12.311	1390.130	1048.373
12.731	14.993	1394.224	1068.514
13.746	17.177	1397.711	1085.058
14.761	17.587	1397.201	1087.180
15.775	16.738	1394.528	1079.598
16.790	15.656	1392.040	1070.685
17.804	14.848	1389.600	1063.577
18.819	14.225	1388.470	1058.657
19.834	13.987	1387.057	1055.972
20.848	13.789	1385.634	1053.535
21.863	13.591	1384.285	1051.161
22.877	13.424	1382.520	1048.674
23.892	13.392	1381.905	1047.909
24.907	13.358	1381.602	1047.375
25.921	13.391	1380.430	1046.599
26.936	13.363	1380.050	1046.043
27.950	13.537	1378.420	1045.812
28.965	13.545	1377.338	1044.949
29.980	13.638	1376.330	1044.677
30.994	13.613	1375.020	1043.434
32.009	13.760	1373.810	1043.346
33.023	13.636	1372.933	1041.813
34.038	13.750	1370.735	1040.765
35.053	13.535	1370.070	1038.818
36.067	13.595	1369.064	1038.342
37.082	13.545	1368.107	1037.209
38.096	13.604	1366.990	1036.640
39.111	13.608	1366.428	1036.147
40.126	13.631	1364.955	1035.086
41.140	13.491	1363.859	1033.285
42.155	13.339	1364.101	1032.431
43.169	13.369	1363.809	1032.303
44.184	13.365	1363.712	1032.114
45.199	13.304	1363.044	1031.138
46.213	13.428	1362.208	1031.187
47.228	13.539	1360.976	1030.853
48.242	13.509	1360.098	1029.908
49.257	13.461	1358.598	1028.387
50.271	13.416	1357.005	1026.808
51.286	13.481	1355.808	1026.213
52.301	13.443	1354.575	1024.959
53.315	13.452	1353.353	1024.000
54.330	13.492	1352.176	1023.265
55.344	13.476	1350.945	1022.142
56.359	13.308	1350.125	1020.393
57.374	13.354	1349.325	1019.985
58.388	13.334	1348.714	1019.306
59.403	13.332	1347.761	1018.486
60.417	13.331	1347.398	1018.116
61.432	13.233	1346.444	1016.700
62.447	13.257	1345.507	1016.053
63.461	13.207	1344.422	1014.832
64.476	13.285	1343.280	1014.363
65.490	13.277	1341.987	1013.245
66.505	13.245	1340.852	1012.103
67.520	13.339	1339.180	1011.325
68.534	13.352	1338.174	1010.557
69.549	13.280	1337.448	1009.478
70.563	13.317	1336.375	1008.808
71.578	13.249	1335.096	1007.335
72.593	13.299	1333.995	1006.723
73.607	13.174	1334.037	1005.904
74.622	13.298	1332.837	1005.665
75.636	13.174	1332.406	1004.498
76.651	13.274	1331.312	1004.192
77.666	13.214	1331.046	1003.535
78.680	13.196	1330.823	1003.171
79.695	13.288	1329.589	1002.709
80.709	13.282	1329.169	1002.267
81.724	13.298	1328.112	1001.480
82.739	13.386	1327.341	1001.343
83.753	13.407	1326.321	1000.607
84.768	13.537	1325.041	1000.339
85.782	13.546	1324.336	999.775
86.797	13.561	1322.137	998.116
87.812	13.304	1321.942	996.334
88.826	13.473	1320.194	995.942
89.841	13.533	1318.983	995.305
90.855	13.453	1318.317	994.232
91.870	13.568	1317.478	994.204
92.884	13.604	1316.748	993.781
93.899	13.622	1315.770	993.063
94.914	13.603	1315.113	992.362
95.928	13.596	1314.407	991.697
96.943	13.563	1313.373	990.636
97.957	13.549	1312.393	989.726
98.972	13.592	1310.771	988.673
99.987	13.509	1310.565	987.929
101.001	13.598	1308.899	987.119
102.016	13.586	1307.815	986.141
103.030	13.662	1306.538	985.543
104.045	13.589	1306.215	984.778
105.060	13.584	1304.837	983.624
106.074	13.409	1303.316	981.355
107.089	13.375	1302.361	980.346
108.103	13.419	1301.135	979.594
109.118	13.332	1299.745	977.950
110.133	13.371	1298.192	976.924
111.147	13.410	1296.940	976.126
112.162	13.497	1295.696	975.618
113.176	13.516	1294.531	974.763
114.191	13.389	1294.026	973.553
115.206	13.337	1293.105	972.466
116.220	13.472	1291.320	971.832
117.235	13.385	1290.118	970.330
118.249	13.416	1289.152	969.699
119.264	13.286	1288.147	968.094
120.279	13.364	1286.936	967.556
121.293	13.303	1286.278	966.620
122.308	13.389	1284.957	966.040
123.322	13.387	1283.806	965.081
124.337	13.331	1282.801	963.913
125.352	13.337	1281.807	963.118
126.366	13.329	1280.726	962.170
127.381	13.299	1279.873	961.272
128.395	13.226	1278.760	959.925
129.410	13.405	1277.437	959.886
130.424	13.276	1277.042	958.755
131.439	13.330	1275.744	958.008
132.454	13.362	1275.117	957.642
133.468	13.509	1273.524	957.210
134.483	13.467	1273.083	956.551
135.497	13.369	1271.920	955.023
136.512	13.479	1270.417	954.447
137.527	13.405	1269.666	953.370
138.541	13.501	1267.997	952.587
139.556	13.418	1267.038	951.303
140.570	13.429	1266.003	950.505
141.585	13.510	1264.505	949.761
142.600	13.626	1263.303	949.442
143.614	13.754	1262.120	949.200
144.629	13.706	1260.867	947.900
145.643	13.640	1260.094	946.858
146.658	13.603	1258.922	945.681
147.673	13.533	1257.742	944.310
148.687	13.582	1256.311	943.434
149.702	13.485	1254.895	941.734
150.716	13.462	1253.780	940.682
151.731	13.476	1252.915	940.033
152.746	13.521	1251.261	938.964
153.760	13.572	1250.108	938.303
154.775	13.621	1249.012	937.676
155.789	13.504	1248.704	936.700
156.804	13.664	1247.015	936.254
157.819	13.706	1245.947	935.605
158.833	13.704	1244.882	934.709
159.848	13.656	1244.483	934.061
160.862	13.733	1243.123	933.390
161.877	13.698	1241.351	931.777
162.892	13.675	1240.432	930.878
163.906	13.638	1239.899	930.185
164.921	13.646	1238.992	929.469
165.935	13.719	1237.702	928.830
166.950	13.732	1237.334	928.544
167.964	13.684	1236.455	927.530
168.979	13.654	1236.026	926.962
169.994	13.686	1234.948	926.250
171.008	13.783	1234.364	926.273
172.023	13.750	1234.127	925.827
173.037	13.815	1233.002	925.260
174.052	13.795	1231.868	924.221
175.067	13.800	1230.790	923.357
176.081	13.601	1229.887	921.492
177.096	13.727	1228.697	921.217
178.110	13.732	1228.028	920.659
179.125	13.754	1226.542	919.587
180.140	13.840	1225.172	918.956
181.154	13.930	1223.979	918.478
182.169	13.844	1222.810	917.044
183.183	13.979	1221.568	916.775
184.198	13.960	1220.524	915.810
185.213	13.909	1219.327	914.548
186.227	13.970	1218.407	914.114
187.242	13.900	1218.059	913.386
188.256	13.955	1216.833	912.685
189.271	14.004	1215.424	911.816
190.286	13.963	1214.508	910.826
191.300	13.783	1213.895	909.300
192.315	13.760	1212.528	908.067
193.329	13.839	1212.287	908.240
194.344	13.811	1211.592	907.484
195.359	13.971	1210.756	907.656
196.373	14.037	1210.451	907.705
197.388	13.934	1210.082	906.787
198.402	14.066	1210.126	907.459
199.417	14.196	1208.612	906.950
200.432	14.128	1208.195	906.190
201.446	14.313	1207.061	906.263
202.461	14.259	1206.016	905.105
203.475	14.311	1204.986	904.534
204.490	14.286	1204.214	903.739
205.504	14.242	1202.465	902.112
206.519	14.224	1201.244	901.017
207.534	14.118	1200.451	899.770
208.548	14.216	1199.657	899.625
209.563	14.244	1198.886	899.114
210.577	14.269	1198.007	898.510
211.592	14.269	1196.677	897.435
212.607	14.302	1196.126	897.122
213.621	14.307	1195.105	896.303
214.636	14.296	1194.162	895.457
215.650	14.395	1193.249	895.226
216.665	14.451	1192.300	894.733
217.680	14.498	1191.672	894.437
218.694	14.439	1191.201	893.690
219.709	14.462	1190.006	892.835
220.723	14.466	1189.432	892.346
221.738	14.526	1188.516	891.902
222.753	14.453	1187.758	890.862
223.767	14.590	1186.895	890.869
224.782	14.609	1186.450	890.558
225.796	14.630	1186.073	890.305
226.811	14.649	1185.414	889.833
227.826	14.606	1184.616	888.930
228.840	14.599	1183.716	888.140
229.855	14.580	1182.725	887.215
230.869	14.524	1182.393	886.587
231.884	14.566	1181.310	885.922
232.899	14.500	1180.612	884.970
233.913	14.454	1180.014	884.196
234.928	14.509	1179.239	883.830
235.942	14.445	1178.481	882.847
236.957	14.488	1178.084	882.699
237.972	14.539	1177.029	882.102
238.986	14.624	1176.287	881.914
240.001	14.602	1175.579	881.189
241.015	14.614	1174.498	880.365
242.030	14.640	1174.065	880.101
243.045	14.610	1173.485	879.428
244.059	14.781	1172.322	879.380
245.074	14.652	1171.470	877.981
246.088	14.807	1170.238	877.800
247.103	14.784	1169.899	877.342
248.117	14.778	1169.352	876.825
249.132	14.862	1168.803	876.774
250.147	14.901	1167.970	876.276
251.161	14.928	1167.407	875.922
252.176	14.938	1166.615	875.300
253.190	15.096	1165.483	875.201
254.205	15.117	1165.386	875.161
255.220	15.122	1164.940	874.775
256.234	15.020	1164.197	873.604
257.249	15.087	1163.317	873.218
258.263	14.989	1162.857	872.285
259.278	15.154	1162.099	872.495
260.293	15.123	1161.238	871.611
261.307	15.138	1160.904	871.361
262.322	15.154	1160.228	870.863
263.336	15.269	1159.752	871.024
264.351	15.312	1158.455	870.196
265.366	15.272	1158.129	869.666
266.380	15.262	1157.330	868.939
267.395	15.122	1156.651	867.628
268.409	15.276	1155.624	867.578
269.424	15.188	1155.341	866.833
270.439	15.165	1154.983	866.370
271.453	15.136	1153.893	865.323
272.468	15.247	1152.715	864.933
273.482	15.294	1151.890	864.484
274.497	15.256	1151.691	864.058
275.512	15.266	1151.063	863.565
276.526	15.271	1149.874	862.624
277.541	15.302	1149.580	862.482
278.555	15.405	1148.432	862.077
279.570	15.379	1147.789	861.382
280.585	15.368	1147.315	860.893
281.599	15.369	1146.326	860.081
282.614	15.417	1145.372	859.535
283.628	15.322	1144.367	858.221
284.643	15.393	1143.463	857.828
285.657	15.403	1142.531	857.103
286.672	15.349	1141.847	856.242
287.687	15.446	1140.582	855.710
288.701	15.396	1139.708	854.723
289.716	15.545	1139.026	854.894
290.730	15.547	1138.176	854.191
291.745	15.557	1137.506	853.666
292.760	15.430	1137.194	852.712
293.774	15.631	1136.454	853.099
294.789	15.590	1136.005	852.478
295.803	15.590	1135.378	851.932
296.818	15.631	1134.612	851.493
297.833	15.664	1133.431	850.695
298.847	15.674	1132.962	850.321
299.862	15.708	1131.927	849.639
300.876	15.503	1132.022	848.597
301.891	15.701	1130.783	848.597
302.906	15.758	1130.428	848.540
303.920	15.678	1129.836	847.618
304.935	15.772	1129.144	847.500
305.949	15.912	1128.362	847.540
306.964	15.950	1127.482	846.996
307.979	15.939	1126.600	846.202
308.993	15.798	1126.142	845.076
310.008	15.784	1125.342	844.329
311.022	15.925	1124.464	844.302
312.037	16.004	1123.347	843.785
313.052	15.779	1122.705	842.104
314.066	15.799	1121.904	841.526
315.081	15.794	1120.787	840.591
316.095	15.786	1120.246	840.070
317.110	15.766	1119.599	839.411
318.125	15.783	1118.789	838.813
319.139	15.951	1117.735	838.788
320.154	15.857	1117.377	837.974
321.168	15.813	1116.601	837.101
322.183	15.831	1115.977	836.648
323.197	15.873	1115.532	836.450
324.212	15.941	1114.713	836.097
325.227	15.923	1114.172	835.530
326.241	15.845	1113.745	834.748
327.256	15.890	1112.505	833.971
328.270	15.932	1111.984	833.714
329.285	16.033	1110.867	833.301
330.300	15.910	1109.969	831.947
331.314	16.012	1108.872	831.551
332.329	16.016	1107.796	830.693
333.343	16.012	1107.413	830.310
334.358	16.001	1106.793	829.718
335.373	15.995	1105.794	828.869
336.387	16.172	1104.719	828.857
337.402	16.028	1103.965	827.513
338.416	16.162	1103.746	827.931
339.431	16.230	1102.505	827.263
340.446	16.250	1102.039	826.935
341.460	16.225	1101.277	826.168
342.475	16.191	1100.895	825.642
343.489	16.359	1099.484	825.333
344.504	16.406	1098.824	824.996
345.519	16.345	1098.009	824.010
346.533	16.370	1097.571	823.732
347.548	16.469	1096.382	823.246
348.562	16.516	1095.128	822.466
349.577	16.380	1095.091	821.700
350.592	16.199	1094.598	820.380
351.606	16.370	1093.532	820.337
352.621	16.338	1092.584	819.397
353.635	16.365	1092.076	819.076
354.650	16.282	1091.363	818.067
355.665	16.331	1090.492	817.577
356.679	16.460	1090.246	817.945
357.694	16.379	1089.851	817.188
358.708	16.493	1088.835	816.900
359.723	16.442	1088.377	816.240
360.738	16.478	1087.845	815.944
361.752	16.529	1086.809	815.337
362.767	16.483	1086.259	814.632
363.781	16.524	1085.773	814.395
364.796	16.574	1085.221	814.149
365.810	16.641	1084.684	813.994
366.825	16.526	1084.256	813.048
367.840	16.763	1083.953	813.889
368.854	16.756	1083.144	813.175
369.869	16.788	1082.287	812.615
370.883	16.583	1081.843	811.224
371.898	16.650	1081.031	810.868
372.913	16.729	1080.223	810.568
373.927	16.753	1079.498	810.067
374.942	16.855	1078.987	810.096
375.956	16.786	1078.669	809.456
376.971	16.661	1078.395	808.582
377.986	16.888	1077.470	808.902
379.000	16.960	1076.952	808.786
380.015	16.925	1076.227	808.002
381.029	17.009	1075.733	807.961
382.044	17.067	1074.797	807.459
383.059	16.962	1074.202	806.444
384.073	16.917	1073.298	805.479
385.088	17.078	1072.125	805.292
386.102	17.040	1071.422	804.513
387.117	17.011	1070.420	803.549
388.132	16.994	1069.231	802.509
389.146	17.008	1068.578	802.011
390.161	16.980	1068.190	801.520
391.175	16.983	1067.680	801.080
392.190	16.924	1066.854	800.108
393.205	16.995	1066.437	800.062
394.219	17.106	1065.268	799.636
395.234	17.021	1064.184	798.350
396.248	16.993	1063.318	797.499
397.263	17.016	1062.696	797.073
398.278	17.102	1061.581	796.569
399.292	17.045	1061.210	795.951
400.307	16.965	1060.708	795.128
401.321	16.912	1060.035	794.307
402.336	17.121	1058.871	794.342
403.350	17.002	1058.326	793.305
404.365	17.004	1058.071	793.055
405.380	17.057	1057.176	792.560
406.394	17.119	1056.463	792.244
407.409	17.124	1055.599	791.552
408.423	17.144	1055.060	791.170
409.438	17.309	1054.084	791.133
410.453	17.295	1053.573	790.616
411.467	17.424	1052.771	790.543
412.482	17.452	1052.104	790.101
413.496	17.416	1051.463	789.385
414.511	17.535	1050.965	789.494
415.526	17.559	1050.603	789.262
416.540	17.505	1049.968	788.464
417.555	17.492	1049.571	788.038
418.569	17.497	1048.546	787.219
419.584	17.518	1048.588	787.282
420.599	17.624	1047.562	786.929
421.613	104.496	1326.215	1475.100
422.628	96.073	1366.764	1475.179
