DTS Sentinel unit serial number:	SN413079Multiplexer serial number:	ORYXHardware model number:	OX4-SRSoftware version number:	ORYX F/W v4.00 Oryx Data Collector v3.7.2.0data status	okinstallation	princeton_trtdifferential loss correction	single-endedforward channel	channel 2reverse channel	N/Adate	2019/09/10time	23:53:11forward acquisition time	60.00reverse acquisition time	0.00gamma	496.2192k internal	0.2331k external	0.2331temperature offset calibration	0.9946default loss term (dB/km)	0.3790temperature slope calibration	1.0000multiplexer offset coefficient	1.0000multiplexer slope coefficient	1.0000fibre end	0.00T internal ref (°C)	29.50T ext. ref 1 (°C)	-0.31T ext. ref 2 (°C)	22.99length (m)	temperature (°C)	Stokes	anti-Stokes-747.200	-27.829	0.178	-0.104
-746.185	-200.000	0.001	-0.091
-745.171	800.000	-0.080	-0.281
-744.156	-78.911	-0.229	0.078
-743.142	268.303	-0.075	-0.132
-742.127	98.345	0.192	0.223
-741.112	242.105	0.137	0.230
-740.098	149.509	0.103	0.141
-739.083	311.206	0.242	-0.456
-738.069	-200.000	0.015	-0.074
-737.054	-120.229	0.071	-0.012
-736.039	-200.000	-0.035	0.213
-735.025	-26.956	0.469	0.275
-734.010	201.430	-0.269	-0.417
-732.996	800.000	0.073	-0.247
-731.981	-151.126	-0.260	-0.020
-730.966	-54.804	0.090	-0.041
-729.952	-62.044	-0.217	0.091
-728.937	610.676	-0.030	-0.075
-727.923	40.881	0.196	-0.178
-726.908	157.957	0.166	0.231
-725.894	-200.000	-0.023	-0.224
-724.879	-151.579	0.049	-0.004
-723.864	-108.780	0.148	0.032
-722.850	-7.826	0.083	-0.056
-721.835	-60.386	-0.298	-0.128
-720.821	184.660	-0.139	-0.207
-719.806	-90.849	-0.294	-0.085
-718.791	574.824	-0.071	0.173
-717.777	213.442	-0.181	-0.288
-716.762	800.000	0.099	-0.309
-715.748	-130.185	0.299	-0.041
-714.733	-49.082	-0.153	-0.074
-713.718	-41.856	0.121	0.062
-712.704	312.833	0.031	-0.058
-711.689	-159.473	0.178	-0.010
-710.675	-96.341	0.015	0.004
-709.660	26.418	-0.066	-0.056
-708.645	-200.000	0.037	-0.200
-707.631	-133.197	-0.246	-0.031
-706.616	29.996	-0.015	0.013
-705.602	-105.823	0.116	0.026
-704.587	-200.000	0.033	0.201
-703.572	5.936	-0.215	-0.160
-702.558	448.541	0.093	0.205
-701.543	44.247	0.110	-0.101
-700.529	800.000	-0.045	0.159
-699.514	314.974	0.115	-0.218
-698.499	43.501	-0.170	0.156
-697.485	-200.000	0.031	0.519
-696.470	-1.192	-0.355	0.252
-695.456	-121.217	-0.059	-0.010
-694.441	-30.806	0.038	0.022
-693.426	-76.305	-0.216	0.076
-692.412	-114.114	0.369	-0.072
-691.397	-101.387	-0.152	-0.037
-690.383	-77.895	0.320	0.111
-689.368	-18.053	0.216	0.136
-688.354	-154.185	-0.159	0.011
-687.339	-60.678	-0.180	-0.077
-686.324	24.241	-0.169	0.140
-685.310	96.044	-0.171	0.196
-684.295	103.228	0.226	0.266
-683.281	31.214	-0.289	-0.249
-682.266	-174.819	0.329	0.009
-681.251	20.429	-0.130	0.105
-680.237	-84.949	-0.337	-0.106
-679.222	800.000	-0.032	0.094
-678.208	587.790	0.083	-0.205
-677.193	-6.266	-0.214	0.147
-676.178	350.283	-0.085	0.169
-675.164	-113.484	0.140	0.027
-674.149	152.848	0.106	-0.146
-673.135	-200.000	0.065	0.314
-672.120	300.573	0.025	-0.047
-671.105	-119.036	-0.287	0.050
-670.091	-157.327	-0.346	-0.021
-669.076	209.492	0.163	-0.257
-668.062	-200.000	0.037	-0.165
-667.047	-200.000	-0.016	-0.205
-666.032	-112.703	-0.375	-0.075
-665.018	54.175	0.291	-0.281
-664.003	-21.356	0.248	0.152
-662.989	50.957	0.278	0.264
-661.974	38.039	-0.192	-0.172
-660.959	-200.000	0.342	0.000
-659.945	-200.000	-0.005	-0.468
-658.930	41.384	0.409	-0.371
-657.916	-118.656	-0.179	0.032
-656.901	35.628	-0.134	0.118
-655.886	260.563	-0.185	-0.321
-654.872	67.296	0.304	-0.311
-653.857	800.000	0.064	0.188
-652.843	83.859	0.292	0.320
-651.828	196.162	-0.053	0.081
-650.814	278.077	0.073	-0.131
-649.799	-105.770	0.144	0.033
-648.784	132.256	-0.118	0.152
-647.770	292.160	0.015	0.028
-646.755	-127.814	-0.154	0.022
-645.741	161.608	-0.130	0.182
-644.726	-38.816	0.196	-0.104
-643.711	249.295	0.164	-0.279
-642.697	-37.023	0.061	-0.033
-641.682	-116.285	0.348	0.065
-640.668	-200.000	-0.002	-0.077
-639.653	393.986	-0.040	-0.084
-638.638	74.520	-0.099	-0.104
-637.624	-48.357	-0.145	-0.070
-636.609	-116.096	0.453	0.084
-635.595	82.454	0.174	-0.190
-634.580	-200.000	-0.017	0.094
-633.565	800.000	0.060	-0.181
-632.551	-194.934	0.249	0.002
-631.536	-125.372	-0.091	0.014
-630.522	-43.338	-0.403	0.204
-629.507	110.855	-0.155	-0.188
-628.492	-37.096	-0.195	0.104
-627.478	800.000	-0.063	-0.221
-626.463	-200.000	-0.064	-0.300
-625.449	-200.000	-0.021	0.127
-624.434	-84.969	0.251	0.079
-623.419	125.711	-0.075	-0.095
-622.405	-200.000	-0.030	-0.184
-621.390	-31.980	0.300	-0.168
-620.376	-200.000	0.030	-0.307
-619.361	-23.364	-0.164	0.098
-618.346	-200.000	-0.026	0.218
-617.332	800.000	0.022	-0.076
-616.317	-200.000	0.001	-0.153
-615.303	54.349	-0.127	-0.122
-614.288	-13.766	0.209	0.135
-613.273	-90.269	-0.076	-0.022
-612.259	-130.458	-0.276	0.037
-611.244	-13.310	0.281	-0.183
-610.230	-21.672	0.086	0.052
-609.215	-200.000	-0.031	0.206
-608.201	-95.845	0.090	-0.024
-607.186	85.335	-0.163	-0.179
-606.171	12.044	0.181	-0.139
-605.157	-65.897	-0.300	-0.120
-604.142	-120.084	0.351	0.060
-603.128	-105.717	0.175	-0.040
-602.113	800.000	0.143	0.557
-601.098	-146.935	0.073	-0.006
-600.084	67.865	0.211	-0.216
-599.069	-92.049	0.205	0.058
-598.055	102.239	-0.120	-0.140
-597.040	800.000	-0.080	0.277
-596.025	-58.260	-0.156	0.068
-595.011	65.511	0.231	-0.234
-593.996	12.023	-0.135	0.104
-592.982	-70.963	0.277	0.104
-591.967	658.010	0.037	0.095
-590.952	-125.315	-0.242	-0.037
-589.938	40.955	-0.151	0.136
-588.923	465.238	0.117	0.262
-587.909	-158.895	0.211	0.012
-586.894	-200.000	0.001	-0.252
-585.879	-8.016	-0.194	-0.131
-584.865	389.168	-0.105	0.218
-583.850	211.362	0.123	0.193
-582.836	9.632	-0.085	0.065
-581.821	-87.199	-0.268	-0.081
-580.806	-40.929	-0.313	0.162
-579.792	81.340	-0.095	0.103
-578.777	-111.535	0.147	-0.030
-577.763	-57.349	-0.077	0.034
-576.748	-97.990	-0.198	-0.051
-575.733	62.418	-0.130	-0.129
-574.719	-73.254	0.162	0.059
-573.704	-200.000	0.026	0.296
-572.690	-200.000	-0.013	0.364
-571.675	-119.075	-0.330	-0.058
-570.661	-188.804	0.227	0.003
-569.646	140.345	-0.131	0.173
-568.631	-14.495	-0.395	-0.254
-567.617	18.597	0.082	-0.066
-566.602	800.000	0.112	0.382
-565.588	564.188	-0.063	0.152
-564.573	-124.945	-0.402	-0.062
-563.558	-134.509	0.244	-0.030
-562.544	474.201	-0.087	-0.196
-561.529	261.490	-0.170	0.294
-560.515	-89.632	-0.129	0.038
-559.500	233.568	-0.132	-0.217
-558.485	-87.920	-0.326	0.098
-557.471	66.386	-0.085	-0.087
-556.456	95.412	-0.028	-0.032
-555.442	160.796	0.281	0.392
-554.427	-200.000	0.039	0.170
-553.412	-200.000	-0.037	-0.182
-552.398	52.978	-0.135	0.129
-551.383	97.436	-0.150	-0.172
-550.369	800.000	-0.130	0.396
-549.354	144.511	-0.183	0.244
-548.339	-200.000	0.001	0.193
-547.325	-143.385	-0.201	-0.019
-546.310	-133.435	-0.368	-0.046
-545.296	-200.000	0.000	0.154
-544.281	414.175	-0.071	-0.150
-543.266	650.482	0.084	-0.215
-542.252	1.396	0.247	-0.177
-541.237	-30.261	0.219	-0.124
-540.223	-200.000	-0.016	-0.120
-539.208	100.587	-0.017	-0.019
-538.193	800.000	-0.056	-0.216
-537.179	15.179	-0.233	-0.182
-536.164	42.002	-0.058	-0.052
-535.150	463.899	-0.059	0.131
-534.135	-143.879	0.281	-0.026
-533.121	502.129	0.043	-0.100
-532.106	-5.145	0.200	-0.137
-531.091	54.135	0.279	0.268
-530.077	450.173	0.014	0.031
-529.062	-151.855	0.351	0.026
-528.048	3.747	0.087	0.063
-527.033	-82.896	-0.261	-0.084
-526.018	710.153	-0.116	-0.305
-525.004	-61.962	0.183	-0.077
-523.989	-124.133	-0.287	0.045
-522.975	-71.281	0.113	-0.042
-521.960	-200.000	-0.012	0.053
-520.945	-64.481	0.416	-0.169
-519.931	-56.888	0.061	-0.027
-518.916	64.733	-0.129	0.129
-517.902	278.255	0.102	0.181
-516.887	-14.337	0.328	0.211
-515.872	111.295	0.168	0.202
-514.858	6.996	0.014	0.010
-513.843	-158.759	-0.225	0.013
-512.829	68.614	-0.229	-0.234
-511.814	800.000	-0.101	-0.425
-510.799	573.538	0.118	-0.288
-509.785	519.948	-0.028	-0.067
-508.770	118.137	-0.319	0.392
-507.756	-53.277	0.279	0.128
-506.741	-74.172	-0.154	-0.056
-505.726	-200.000	0.019	-0.094
-504.712	-200.000	-0.058	-0.503
-503.697	20.730	0.051	0.041
-502.683	319.351	-0.031	0.058
-501.668	161.423	-0.208	-0.290
-500.653	47.080	-0.041	-0.038
-499.639	-31.606	-0.156	0.087
-498.624	318.914	0.100	-0.189
-497.610	123.389	-0.045	0.056
-496.595	-166.938	-0.287	-0.012
-495.581	55.228	0.090	-0.086
-494.566	800.000	0.091	-0.294
-493.551	-200.000	-0.006	-0.049
-492.537	125.066	-0.051	0.064
-491.522	10.187	0.056	-0.042
-490.508	-3.196	-0.187	0.130
-489.493	333.954	-0.143	0.275
-488.478	-200.000	0.032	0.148
-487.464	-200.000	0.079	0.497
-486.449	-9.854	-0.318	0.211
-485.435	111.974	0.156	0.188
-484.420	800.000	0.051	-0.173
-483.405	280.900	-0.176	0.314
-482.391	143.170	0.076	0.101
-481.376	-156.433	0.131	0.008
-480.362	252.572	-0.090	-0.153
-479.347	-37.575	-0.208	-0.110
-478.332	-162.069	0.071	0.004
-477.318	69.137	0.223	-0.229
-476.303	-134.510	0.133	0.016
-475.289	52.212	0.056	-0.053
-474.274	140.203	-0.073	-0.096
-473.259	800.000	-0.020	0.066
-472.245	39.253	-0.085	-0.076
-471.230	-96.972	0.461	-0.120
-470.216	-200.000	-0.041	-0.194
-469.201	683.166	0.059	0.152
-468.186	288.724	-0.066	-0.118
-467.172	-200.000	0.003	0.300
-466.157	-119.604	0.163	0.028
-465.143	-22.825	0.152	0.091
-464.128	-111.632	0.067	-0.014
-463.113	24.282	-0.135	0.111
-462.099	29.154	0.197	-0.166
-461.084	159.559	0.110	-0.153
-460.070	-198.456	0.260	0.001
-459.055	87.707	0.093	-0.102
-458.040	287.208	0.020	0.037
-457.026	-200.000	0.026	0.277
-456.011	800.000	0.064	0.178
-454.997	-119.573	0.188	0.032
-453.982	441.145	0.059	0.129
-452.968	475.460	0.055	0.123
-451.953	151.965	-0.032	-0.043
-450.938	265.839	-0.136	0.237
-449.924	247.183	0.053	0.089
-448.909	800.000	-0.008	-0.026
-447.895	92.009	-0.183	0.205
-446.880	-200.000	-0.032	-0.223
-445.865	47.576	-0.038	0.035
-444.851	-7.402	0.160	0.108
-443.836	-90.396	-0.304	0.088
-442.822	-56.650	0.220	-0.097
-441.807	-161.938	0.166	-0.008
-440.792	800.000	0.078	-0.335
-439.778	31.566	-0.110	0.094
-438.763	107.532	-0.034	-0.041
-437.749	-200.000	-0.077	0.377
-436.734	-29.883	-0.062	-0.035
-435.719	110.063	0.068	0.081
-434.705	170.004	-0.170	0.241
-433.690	65.171	-0.223	0.225
-432.676	800.000	-0.088	0.356
-431.661	-53.191	0.047	0.022
-430.646	-96.291	0.212	0.056
-429.632	-39.978	0.181	-0.094
-428.617	46.207	0.067	0.062
-427.603	110.523	-0.199	0.238
-426.588	-200.000	0.006	0.055
-425.573	-182.499	0.113	0.002
-424.559	800.000	0.039	0.124
-423.544	-200.000	0.018	0.172
-422.530	-200.000	-0.006	-0.164
-421.515	-200.000	0.027	0.210
-420.500	44.664	0.133	-0.121
-419.486	64.064	-0.110	-0.110
-418.471	40.729	0.148	0.133
-417.457	101.975	0.181	-0.210
-416.442	800.000	-0.084	-0.243
-415.428	408.701	0.060	-0.126
-414.413	-107.109	0.113	-0.025
-413.398	-24.110	0.111	-0.066
-412.384	102.778	-0.198	0.230
-411.369	-200.000	0.056	-0.268
-410.355	800.000	-0.092	-0.365
-409.340	-100.634	-0.499	-0.122
-408.325	377.394	-0.075	0.152
-407.311	-200.000	0.021	0.228
-406.296	44.186	0.075	-0.068
-405.282	800.000	-0.094	-0.265
-404.267	-24.886	0.203	0.120
-403.252	52.601	-0.281	-0.267
-402.238	-58.471	-0.424	-0.183
-401.223	-12.098	-0.140	-0.091
-400.209	23.391	-0.250	-0.204
-399.194	-200.000	0.007	0.079
-398.179	-63.885	-0.096	-0.039
-397.165	0.610	0.227	-0.161
-396.150	-98.224	0.245	-0.063
-395.136	-200.000	0.039	0.269
-394.121	-83.163	-0.405	0.129
-393.106	-160.519	-0.397	-0.021
-392.092	-122.897	0.169	0.027
-391.077	73.715	-0.220	0.229
-390.063	-200.000	0.045	0.331
-389.048	-20.085	0.396	0.242
-388.033	25.356	-0.220	-0.182
-387.019	-94.006	0.059	0.016
-386.004	23.561	0.274	-0.224
-384.990	121.057	-0.106	0.131
-383.975	255.400	-0.249	-0.424
-382.960	-200.000	0.078	-0.376
-381.946	570.206	-0.046	-0.111
-380.931	-98.467	-0.327	-0.083
-379.917	-149.070	-0.197	0.016
-378.902	444.974	-0.138	0.300
-377.888	800.000	0.040	-0.132
-376.873	-200.000	-0.013	-0.129
-375.858	-200.000	0.074	-0.325
-374.844	407.987	0.097	-0.202
-373.829	520.599	0.122	-0.285
-372.815	800.000	-0.044	0.166
-371.800	-2.386	0.549	-0.382
-370.785	-126.275	0.150	0.022
-369.771	-74.112	-0.297	0.107
-368.756	-200.000	-0.007	0.046
-367.742	-200.000	0.023	0.110
-366.727	472.628	0.040	-0.089
-365.712	-15.059	-0.416	0.264
-364.698	800.000	0.032	-0.091
-363.683	753.608	0.028	0.075
-362.669	-200.000	-0.039	0.284
-361.654	150.967	0.243	-0.328
-360.639	-126.215	-0.101	-0.015
-359.625	121.808	0.060	0.074
-358.610	-77.105	0.498	0.172
-357.596	88.988	0.096	-0.106
-356.581	-151.560	0.079	0.006
-355.566	49.610	0.258	0.241
-354.552	515.224	0.080	0.185
-353.537	523.581	0.092	0.215
-352.523	-110.882	0.306	-0.062
-351.508	169.592	0.123	0.174
-350.493	-200.000	-0.031	0.246
-349.479	-113.563	-0.255	-0.049
-348.464	-200.000	0.000	0.113
-347.450	718.594	-0.110	0.290
-346.435	615.770	-0.089	-0.220
-345.420	-160.684	-0.153	-0.008
-344.406	-200.000	-0.018	-0.400
-343.391	-63.522	0.340	-0.138
-342.377	-98.543	-0.134	0.034
-341.362	783.616	-0.015	-0.041
-340.348	-61.030	0.245	-0.102
-339.333	591.976	-0.043	-0.106
-338.318	-43.554	-0.301	-0.150
-337.304	52.964	0.298	-0.283
-336.289	-150.542	0.425	0.032
-335.275	656.898	0.181	0.461
-334.260	41.009	0.183	0.163
-333.245	-73.785	-0.109	0.039
-332.231	790.297	0.020	-0.055
-331.216	123.111	0.111	0.137
-330.202	42.702	-0.170	-0.153
-329.187	-200.000	-0.005	-0.425
-328.172	-79.588	0.196	-0.065
-327.158	-122.194	-0.259	0.042
-326.143	-168.327	0.117	0.004
-325.129	-200.000	0.032	-0.352
-324.114	75.426	-0.165	-0.172
-323.099	69.071	0.102	-0.104
-322.085	-83.343	-0.172	0.055
-321.070	66.781	0.106	0.107
-320.056	9.031	-0.044	0.033
-319.041	-200.000	-0.019	-0.162
-318.026	6.252	0.136	0.100
-317.012	112.432	0.120	0.144
-315.997	-200.000	-0.020	0.142
-314.983	-52.543	0.160	-0.073
-313.968	494.096	0.051	0.116
-312.953	8.795	0.132	0.098
-311.939	-0.207	0.200	0.141
-310.924	8.992	0.108	0.081
-309.910	-41.440	-0.046	-0.024
-308.895	102.221	-0.131	0.152
-307.880	96.766	0.099	0.112
-306.866	538.106	0.055	0.130
-305.851	-112.057	-0.579	-0.115
-304.837	-42.125	0.203	-0.103
-303.822	-75.858	0.284	-0.100
-302.807	800.000	0.106	0.317
-301.793	220.152	0.075	-0.119
-300.778	-48.240	-0.242	-0.115
-299.764	129.433	0.095	-0.120
-298.749	-42.707	-0.091	-0.046
-297.735	277.900	0.146	0.257
-296.720	496.007	-0.086	0.196
-295.705	215.532	0.122	0.192
-294.691	-150.715	0.212	0.016
-293.676	22.819	0.277	-0.224
-292.662	223.262	-0.098	-0.157
-291.647	-52.787	-0.081	0.037
-290.632	553.290	0.175	-0.416
-289.618	-200.000	0.146	-0.000
-288.603	-78.187	0.232	-0.079
-287.589	-200.000	-0.002	0.064
-286.574	-96.545	-0.063	-0.017
-285.559	5.063	0.132	-0.096
-284.545	-200.000	0.003	0.017
-283.530	-20.041	-0.301	-0.183
-282.516	-200.000	-0.066	-0.371
-281.501	59.929	-0.083	-0.081
-280.486	-102.899	-0.202	-0.047
-279.472	312.930	0.076	-0.142
-278.457	800.000	0.071	-0.213
-277.443	312.074	0.140	0.259
-276.428	-26.926	-0.105	-0.061
-275.413	168.994	-0.108	0.152
-274.399	-200.000	-0.007	-0.111
-273.384	-126.408	0.435	-0.064
-272.370	496.718	0.064	0.145
-271.355	-50.953	0.173	-0.080
-270.340	345.011	0.020	-0.039
-269.326	15.443	-0.196	0.152
-268.311	800.000	-0.144	0.597
-267.297	38.425	0.180	-0.158
-266.282	88.680	-0.040	-0.044
-265.267	44.056	0.083	-0.075
-264.253	-200.000	-0.024	-0.138
-263.238	800.000	0.144	-0.449
-262.224	161.352	-0.034	0.047
-261.209	-200.000	-0.010	-0.131
-260.195	-48.752	-0.196	0.093
-259.180	-61.655	-0.218	-0.090
-258.165	-41.908	-0.095	-0.048
-257.151	530.239	0.044	0.104
-256.136	-200.000	-0.010	0.143
-255.122	800.000	-0.064	0.236
-254.107	-19.068	-0.162	0.100
-253.092	-109.735	0.386	-0.080
-252.078	743.250	0.084	0.222
-251.063	185.536	0.131	0.192
-250.049	-200.000	-0.004	-0.084
-249.034	-57.492	-0.215	-0.093
-248.019	800.000	-0.144	0.415
-247.005	499.222	-0.066	-0.150
-245.990	-200.000	-0.015	0.088
-244.976	-19.188	0.123	0.075
-243.961	49.682	-0.206	0.191
-242.946	-39.118	-0.218	0.113
-241.932	-200.000	-0.023	-0.453
-240.917	-160.226	0.236	0.013
-239.903	115.329	0.099	0.119
-238.888	34.449	-0.250	-0.216
-237.873	-132.742	-0.531	-0.067
-236.859	-200.000	-0.018	0.104
-235.844	-126.526	0.327	-0.048
-234.830	-124.740	0.121	-0.018
-233.815	314.134	0.127	-0.236
-232.800	-200.000	0.092	0.000
-231.786	45.408	-0.097	-0.088
-230.771	256.829	0.096	0.162
-229.757	-200.000	-0.025	0.119
-228.742	482.094	0.071	-0.160
-227.727	-131.995	-0.174	-0.022
-226.713	662.074	0.090	0.229
-225.698	-200.000	0.008	-0.035
-224.684	44.330	-0.055	-0.050
-223.669	-150.748	-0.232	-0.017
-222.655	-110.900	0.131	0.027
-221.640	800.000	-0.045	-0.184
-220.625	-200.000	0.007	-0.042
-219.611	449.549	-0.224	0.487
-218.596	-200.000	0.018	0.115
-217.582	-105.321	0.273	-0.061
-216.567	416.037	0.125	-0.263
-215.552	-140.081	0.278	-0.029
-214.538	800.000	-0.123	-0.387
-213.523	61.184	0.384	-0.376
-212.509	427.799	-0.101	0.216
-211.494	-92.735	0.409	-0.113
-210.479	650.701	-0.110	-0.276
-209.465	-86.266	-0.269	0.082
-208.450	-200.000	-0.030	0.388
-207.436	-72.276	-0.176	0.064
-206.421	5.957	-0.238	-0.174
-205.406	-38.728	0.179	0.093
-204.392	-108.054	0.229	0.049
-203.377	-34.730	-0.204	0.110
-202.363	36.756	-0.153	-0.133
-201.348	-37.183	0.059	-0.031
-200.333	152.801	-0.150	0.202
-199.319	289.544	-0.107	-0.191
-198.304	49.636	-0.198	-0.184
-197.290	426.258	-0.076	0.161
-196.275	-200.000	-0.049	-0.229
-195.260	-200.000	-0.027	-0.238
-194.246	551.329	-0.062	0.146
-193.231	-106.767	-0.149	0.032
-192.217	116.620	-0.195	-0.236
-191.202	-200.000	0.009	0.329
-190.187	75.366	0.141	0.147
-189.173	-37.481	0.153	-0.080
-188.158	-200.000	0.005	0.050
-187.144	-13.544	-0.017	-0.011
-186.129	-200.000	0.063	0.460
-185.114	56.942	-0.244	-0.235
-184.100	-125.430	-0.167	0.025
-183.085	412.675	0.214	0.447
-182.071	36.479	-0.162	0.141
-181.056	800.000	-0.048	0.140
-180.042	-28.556	0.176	0.100
-179.027	122.704	0.178	-0.220
-178.012	-130.919	0.107	0.014
-176.998	24.950	0.031	-0.025
-175.983	406.618	0.084	-0.175
-174.969	145.949	-0.004	-0.006
-173.954	-46.952	0.341	0.164
-172.939	128.459	0.131	0.165
-171.925	-96.177	-0.399	0.104
-170.910	800.000	-0.081	0.225
-169.896	297.871	0.049	-0.089
-168.881	79.465	-0.058	0.062
-167.866	-200.000	-0.032	-0.185
-166.852	-72.882	-0.250	-0.091
-165.837	-152.027	-0.110	-0.008
-164.823	48.745	0.098	-0.090
-163.808	-200.000	-0.036	-0.348
-162.793	-29.740	0.208	0.117
-161.779	-133.148	-0.148	-0.018
-160.764	-26.568	-0.090	-0.052
-159.750	800.000	-0.123	-0.427
-158.735	-200.000	-0.023	0.353
-157.720	250.385	-0.081	0.135
-156.706	800.000	0.109	0.335
-155.691	-143.983	-0.189	0.018
-154.677	10.094	-0.251	-0.188
-153.662	244.292	0.069	0.114
-152.647	-200.000	0.022	-0.214
-151.633	-167.266	-0.239	0.009
-150.618	483.822	-0.102	0.229
-149.604	-54.446	0.311	0.139
-148.589	20.160	-0.120	0.095
-147.574	800.000	-0.058	0.238
-146.560	34.814	0.197	-0.170
-145.545	12.441	0.307	0.233
-144.531	-200.000	-0.002	0.090
-143.516	800.000	0.067	0.266
-142.502	-33.085	0.073	-0.040
-141.487	-200.000	-0.012	0.179
-140.472	135.417	0.003	0.004
-139.458	-156.598	0.322	-0.020
-138.443	800.000	0.077	-0.284
-137.429	94.696	0.118	-0.132
-136.414	172.144	0.154	0.218
-135.399	191.001	0.097	-0.143
-134.385	212.688	0.098	0.152
-133.370	128.623	0.143	-0.179
-132.356	78.690	-0.239	0.251
-131.341	-115.880	0.015	0.003
-130.326	-147.928	-0.400	0.033
-129.312	-6.558	0.163	-0.109
-128.297	-178.636	-0.311	-0.007
-127.283	428.022	0.128	0.271
-126.268	-75.343	-0.102	0.036
-125.253	468.937	0.102	-0.226
-124.239	800.000	-0.029	-0.104
-123.224	-200.000	0.019	0.086
-122.210	-15.059	-0.214	0.135
-121.195	182.780	0.080	0.116
-120.180	654.242	0.052	0.131
-119.166	-200.000	-0.003	0.218
-118.151	800.000	0.059	-0.233
-117.137	-99.768	-0.400	0.098
-116.122	167.627	-0.102	-0.142
-115.107	10.050	0.157	0.117
-114.093	-130.628	-0.471	-0.062
-113.078	-75.374	-0.427	-0.149
-112.064	800.000	-0.039	0.127
-111.049	-200.000	0.015	0.166
-110.034	148.252	0.194	-0.257
-109.020	-95.895	-0.435	0.114
-108.005	-146.228	-0.504	-0.043
-106.991	-0.171	0.106	0.074
-105.976	457.559	0.064	-0.139
-104.962	800.000	-0.044	-0.131
-103.947	84.584	0.074	-0.080
-102.932	88.935	-0.142	0.156
-101.918	52.966	0.168	-0.158
-100.903	216.362	0.206	-0.321
-99.889	800.000	-0.087	0.250
-98.874	-116.569	0.338	-0.061
-97.859	-119.368	0.297	-0.051
-96.845	-200.000	-0.020	0.113
-95.830	16.462	-0.137	0.106
-94.816	26.793	0.117	-0.097
-93.801	-200.000	0.007	0.068
-92.786	249.550	-0.200	0.333
-91.772	-28.284	0.261	-0.148
-90.757	65.366	-0.265	0.263
-89.743	-3.442	-0.225	-0.154
-88.728	-157.437	0.254	-0.015
-87.713	-80.732	-0.162	0.053
-86.699	290.113	0.160	-0.286
-85.684	265.396	0.187	0.319
-84.670	-50.369	0.125	0.058
-83.655	-77.269	0.174	-0.059
-82.640	-55.494	0.169	-0.074
-81.626	-200.000	-0.090	0.465
-80.611	-200.000	0.032	-0.178
-79.597	-27.422	-0.198	-0.113
-78.582	-28.669	-0.029	0.017
-77.567	60.287	-0.206	-0.200
-76.553	125.684	0.199	-0.246
-75.538	-119.065	0.231	-0.040
-74.524	-200.000	-0.026	0.262
-73.509	238.830	-0.165	0.269
-72.494	143.331	0.258	-0.336
-71.480	-42.553	0.114	0.057
-70.465	-28.270	-0.104	0.059
-69.451	733.929	0.110	-0.290
-68.436	-200.000	-0.015	0.066
-67.422	170.180	0.257	-0.360
-66.407	427.292	-0.147	0.310
-65.392	69.949	0.086	0.087
-64.378	-65.618	0.069	-0.027
-63.363	77.276	-0.143	-0.149
-62.349	48.692	-0.122	0.112
-61.334	204.551	-0.858	-1.303
-60.319	429.365	0.275	0.582
-59.305	800.000	-0.303	-1.079
-58.290	287.389	0.585	1.036
-57.276	800.000	0.461	1.617
-56.261	-200.000	105.945	621.841
-55.246	523.464	1502.708	3460.200
-54.232	176.309	2702.062	3845.513
-53.217	105.252	2290.201	2648.980
-52.203	38.707	1898.003	1659.437
-51.188	32.670	1685.197	1427.758
-50.173	30.038	1641.998	1371.645
-49.159	49.259	1696.037	1561.939
-48.144	49.314	1710.844	1575.920
-47.130	32.225	1668.833	1410.332
-46.115	29.627	1653.819	1378.235
-45.100	29.490	1648.664	1372.866
-44.086	29.483	1645.773	1370.356
-43.071	29.344	1644.176	1367.941
-42.057	29.288	1641.545	1365.278
-41.042	29.437	1639.114	1364.310
-40.027	29.479	1637.533	1363.245
-39.013	29.387	1635.831	1361.094
-37.998	29.349	1634.213	1359.412
-36.984	29.406	1632.813	1358.614
-35.969	29.439	1631.432	1357.658
-34.954	29.486	1629.625	1356.448
-33.940	29.527	1627.736	1355.122
-32.925	29.569	1625.466	1353.484
-31.911	29.562	1623.947	1352.112
-30.896	29.540	1622.367	1350.587
-29.881	29.464	1621.229	1349.031
-28.867	29.463	1619.443	1347.481
-27.852	29.526	1618.102	1346.773
-26.838	29.412	1617.008	1344.975
-25.823	29.504	1615.033	1343.947
-24.809	29.565	1614.284	1343.719
-23.794	29.580	1612.947	1342.660
-22.779	29.477	1611.318	1340.506
-21.765	29.433	1609.732	1338.809
-20.750	29.487	1607.766	1337.510
-19.736	29.519	1606.187	1336.376
-18.721	29.510	1604.739	1335.054
-17.706	29.487	1603.441	1333.754
-16.692	29.485	1602.476	1332.885
-15.677	29.547	1600.965	1332.028
-14.663	29.620	1599.348	1331.153
-13.648	29.633	1598.098	1330.155
-12.633	29.519	1596.636	1328.063
-11.619	29.419	1595.211	1326.106
-10.604	29.566	1593.192	1325.427
-9.590	29.508	1592.105	1324.059
-8.575	29.609	1591.190	1323.970
-7.560	29.618	1590.058	1323.041
-6.546	29.509	1588.951	1321.282
-5.531	29.524	1587.550	1320.176
-4.517	29.480	1586.813	1319.196
-3.502	29.566	1585.284	1318.483
-2.487	29.614	1583.732	1317.481
-1.473	29.150	1572.163	1304.520
-0.458	26.230	1552.864	1267.995
0.556	20.599	1553.237	1237.133
1.571	18.367	1577.894	1240.511
2.586	18.036	1591.650	1248.800
3.600	16.354	1538.770	1195.310
4.615	8.713	1430.184	1060.428
5.629	1.181	1366.633	965.404
6.644	-0.232	1358.796	950.838
7.659	-0.331	1357.124	948.955
8.673	-0.324	1356.118	948.215
9.688	-0.333	1354.297	946.803
10.702	-0.548	1350.540	942.737
11.717	2.634	1357.200	967.408
12.731	11.540	1374.517	1036.389
13.746	19.036	1386.737	1093.324
14.761	20.850	1389.665	1107.078
15.775	21.141	1389.517	1108.708
16.790	21.169	1388.651	1108.097
17.804	21.182	1388.414	1107.891
18.819	21.441	1388.074	1109.169
19.834	21.624	1387.152	1109.490
20.848	21.566	1386.432	1108.452
21.863	21.595	1385.764	1107.998
22.877	21.579	1384.548	1106.827
23.892	21.671	1383.404	1106.401
24.907	21.581	1383.479	1105.790
25.921	21.598	1381.896	1104.539
26.936	21.605	1381.211	1103.936
27.950	21.594	1380.270	1103.016
28.965	21.655	1379.000	1102.284
29.980	21.625	1377.405	1100.725
30.994	21.544	1376.576	1099.460
32.009	21.578	1375.244	1098.512
33.023	21.509	1374.217	1097.162
34.038	21.493	1373.181	1096.137
35.053	21.578	1371.937	1095.579
36.067	21.577	1371.058	1094.770
37.082	21.453	1370.183	1093.202
38.096	21.622	1369.023	1093.233
39.111	21.523	1368.604	1092.185
40.126	21.478	1367.849	1091.204
41.140	21.503	1367.265	1090.801
42.155	21.615	1366.548	1090.827
43.169	21.596	1366.678	1090.720
44.184	21.517	1366.747	1090.185
45.199	21.490	1366.132	1089.428
46.213	21.563	1365.586	1089.353
47.228	21.700	1364.274	1089.060
48.242	21.665	1363.461	1088.098
49.257	21.614	1361.747	1086.318
50.271	21.549	1360.739	1085.012
51.286	21.612	1359.128	1084.023
52.301	21.568	1357.941	1082.707
53.315	21.602	1357.273	1082.291
54.330	21.546	1356.315	1081.081
55.344	21.632	1355.040	1080.503
56.359	21.608	1354.010	1079.440
57.374	21.565	1353.354	1078.553
58.388	21.554	1352.619	1077.807
59.403	21.575	1352.190	1077.496
60.417	21.590	1351.448	1076.900
61.432	21.522	1350.601	1075.713
62.447	21.546	1349.923	1075.230
63.461	21.696	1348.713	1075.088
64.476	21.587	1347.712	1073.527
65.490	21.649	1346.430	1072.794
66.505	21.565	1344.975	1071.021
67.520	21.601	1343.829	1070.234
68.534	21.648	1342.803	1069.608
69.549	21.547	1342.091	1068.334
70.563	21.610	1340.813	1067.603
71.578	21.585	1339.936	1066.660
72.593	21.641	1339.458	1066.529
73.607	21.579	1338.493	1065.287
74.622	21.601	1337.882	1064.837
75.636	21.649	1337.163	1064.462
76.651	21.648	1336.112	1063.525
77.666	21.524	1335.913	1062.523
78.680	21.574	1335.338	1062.275
79.695	21.712	1333.864	1061.847
80.709	21.776	1333.130	1061.551
81.724	21.563	1332.735	1059.856
82.739	21.562	1331.755	1058.979
83.753	21.623	1330.341	1058.124
84.768	21.628	1329.830	1057.655
85.782	21.719	1328.248	1056.855
86.797	21.756	1326.973	1055.967
87.812	21.679	1325.676	1054.380
88.826	21.614	1325.263	1053.569
89.841	21.696	1324.406	1053.283
90.855	21.633	1323.082	1051.760
91.870	21.726	1322.118	1051.459
92.884	21.715	1321.502	1050.808
93.899	21.708	1320.626	1049.982
94.914	21.801	1319.358	1049.437
95.928	21.655	1319.178	1048.324
96.943	21.720	1318.415	1048.013
97.957	21.709	1317.810	1047.374
98.972	21.734	1316.582	1046.456
99.987	21.760	1315.595	1045.733
101.001	21.673	1314.756	1044.454
102.016	21.713	1313.747	1043.801
103.030	21.641	1313.498	1043.079
104.045	21.701	1312.080	1042.222
105.060	21.711	1311.409	1041.651
106.074	21.775	1310.064	1040.873
107.089	21.747	1309.191	1039.922
108.103	21.778	1308.182	1039.214
109.118	21.704	1307.058	1037.789
110.133	21.761	1305.955	1037.159
111.147	21.817	1304.433	1036.190
112.162	21.813	1303.536	1035.361
113.176	21.750	1302.805	1034.319
114.191	21.659	1302.215	1033.221
115.206	21.790	1300.485	1032.530
116.220	21.759	1299.508	1031.480
117.235	21.682	1298.604	1030.216
118.249	21.779	1297.476	1029.800
119.264	21.854	1296.689	1029.525
120.279	21.728	1296.352	1028.426
121.293	21.856	1295.061	1028.062
122.308	21.762	1294.563	1027.026
123.322	21.852	1293.161	1026.348
124.337	21.910	1292.681	1026.218
125.352	21.788	1291.652	1024.598
126.366	21.776	1291.032	1023.946
127.381	21.776	1290.016	1023.048
128.395	21.902	1288.381	1022.393
129.410	21.774	1287.788	1021.087
130.424	21.902	1287.156	1021.242
131.439	21.846	1285.707	1019.673
132.454	21.732	1286.217	1019.325
133.468	21.784	1284.552	1018.218
134.483	21.724	1284.242	1017.535
135.497	21.733	1283.391	1016.823
136.512	21.785	1282.037	1015.959
137.527	21.744	1280.596	1014.490
138.541	21.759	1279.619	1013.714
139.556	21.733	1278.479	1012.575
140.570	21.678	1277.491	1011.382
141.585	21.705	1275.859	1010.155
142.600	21.718	1275.215	1009.634
143.614	21.820	1274.365	1009.456
144.629	21.791	1273.318	1008.371
145.643	21.652	1272.318	1006.692
146.658	21.805	1271.032	1006.463
147.673	21.684	1270.030	1004.888
148.687	21.710	1269.473	1004.509
149.702	21.729	1267.726	1003.144
150.716	21.791	1266.511	1002.447
151.731	21.808	1265.590	1001.725
152.746	21.753	1265.226	1001.038
153.760	21.837	1263.681	1000.205
154.775	21.766	1262.910	999.100
155.789	21.766	1262.191	998.446
156.804	21.819	1260.855	997.603
157.819	21.757	1260.080	996.546
158.833	21.861	1259.068	996.249
159.848	21.904	1258.075	995.621
160.862	21.961	1257.480	995.387
161.877	21.860	1256.733	994.129
162.892	21.856	1256.293	993.675
163.906	21.924	1255.142	993.059
164.921	21.905	1254.289	992.189
165.935	21.875	1253.565	991.357
166.950	21.959	1252.903	991.220
167.964	21.840	1252.539	990.177
168.979	21.941	1252.091	990.303
169.994	22.028	1251.234	990.030
171.008	21.983	1250.482	989.091
172.023	22.007	1249.622	988.460
173.037	21.984	1248.748	987.551
174.052	21.937	1248.630	987.104
175.067	21.905	1247.507	985.950
176.081	22.001	1246.343	985.481
177.096	22.018	1245.989	985.214
178.110	21.887	1245.090	983.676
179.125	21.928	1244.035	982.991
180.140	21.944	1242.945	982.129
181.154	21.946	1241.690	981.064
182.169	21.888	1241.091	980.177
183.183	21.998	1239.576	979.512
184.198	22.072	1238.510	978.990
185.213	21.937	1238.107	977.834
186.227	21.996	1237.012	977.210
187.242	22.081	1235.760	976.607
188.256	22.094	1235.266	976.205
189.271	22.111	1234.152	975.333
190.286	22.017	1233.350	974.091
191.300	22.054	1232.988	973.924
192.315	22.027	1232.452	973.262
193.329	22.009	1232.181	972.864
194.344	21.999	1231.988	972.572
195.359	22.124	1231.003	972.397
196.373	21.918	1231.051	971.213
197.388	21.932	1230.335	970.637
198.402	22.004	1229.848	970.567
199.417	22.000	1229.328	970.045
200.432	22.010	1228.836	969.629
201.446	21.991	1228.277	968.998
202.461	21.983	1227.360	968.141
203.475	21.991	1226.655	967.546
204.490	21.917	1225.694	966.297
205.504	21.929	1224.614	965.424
206.519	22.051	1223.733	965.316
207.534	22.050	1222.471	964.228
208.548	22.005	1221.926	963.467
209.563	22.152	1220.766	963.272
210.577	22.143	1220.115	962.624
211.592	22.068	1219.199	961.403
212.607	22.140	1218.730	961.344
213.621	22.037	1217.871	960.017
214.636	22.222	1216.887	960.169
215.650	22.204	1216.489	959.671
216.665	22.179	1215.708	958.835
217.680	22.124	1214.266	957.312
218.694	22.062	1213.765	956.495
219.709	22.189	1212.950	956.458
220.723	22.192	1212.350	955.916
221.738	22.077	1211.982	954.914
222.753	22.192	1210.782	954.513
223.767	22.125	1210.384	953.749
224.782	22.227	1209.495	953.516
225.796	22.292	1209.261	953.599
226.811	22.258	1208.669	952.866
227.826	22.263	1207.966	952.252
228.840	22.355	1207.208	952.071
229.855	22.194	1206.546	950.595
230.869	22.178	1206.119	950.086
231.884	22.243	1205.432	949.810
232.899	22.258	1204.642	949.186
233.913	22.208	1204.349	948.604
234.928	22.272	1203.605	948.276
235.942	22.391	1202.964	948.330
236.957	22.337	1202.176	947.333
237.972	22.197	1201.395	945.883
238.986	22.120	1200.826	944.937
240.001	22.354	1200.385	945.760
241.015	22.408	1199.346	945.151
242.030	22.386	1198.657	944.405
243.045	22.462	1197.822	944.074
244.059	22.331	1197.374	942.934
245.074	22.467	1196.446	942.846
246.088	22.377	1195.648	941.655
247.103	22.367	1194.913	940.936
248.117	22.383	1194.092	940.292
249.132	22.471	1192.997	939.815
250.147	22.387	1192.698	939.049
251.161	22.442	1191.875	938.612
252.176	22.464	1191.121	938.053
253.190	22.547	1190.534	937.949
254.205	22.457	1190.199	937.122
255.220	22.368	1189.677	936.155
256.234	22.479	1188.973	936.107
257.249	22.534	1187.977	935.533
258.263	22.426	1188.060	934.941
259.278	22.565	1187.175	934.901
260.293	22.456	1186.606	933.791
261.307	22.517	1186.245	933.748
262.322	22.666	1185.076	933.534
263.336	22.498	1184.583	932.178
264.351	22.631	1183.802	932.179
265.366	22.555	1183.492	931.455
266.380	22.587	1182.922	931.090
267.395	22.597	1182.033	930.362
268.409	22.532	1181.531	929.542
269.424	22.445	1181.271	928.797
270.439	22.604	1180.333	928.815
271.453	22.682	1179.458	928.454
272.468	22.637	1179.176	927.915
273.482	22.612	1178.282	926.994
274.497	22.621	1177.899	926.658
275.512	22.535	1177.185	925.565
276.526	22.777	1176.198	925.976
277.541	22.634	1175.529	924.620
278.555	22.732	1175.156	924.756
279.570	22.704	1174.537	924.043
280.585	22.762	1173.701	923.606
281.599	22.703	1172.866	922.560
282.614	22.667	1172.019	921.621
283.628	22.683	1171.007	920.830
284.643	22.763	1170.308	920.613
285.657	22.708	1169.594	919.686
286.672	22.716	1168.821	919.039
287.687	22.686	1167.909	918.084
288.701	22.738	1167.212	917.725
289.716	22.738	1166.502	917.082
290.730	22.841	1165.555	916.793
291.745	22.732	1165.227	915.888
292.760	22.800	1164.873	915.881
293.774	22.893	1163.954	915.559
294.789	22.740	1163.880	914.627
295.803	22.825	1163.009	914.303
296.818	22.965	1161.995	914.149
297.833	22.883	1161.386	913.164
298.847	22.974	1160.848	913.130
299.862	22.961	1160.214	912.484
300.876	22.735	1159.907	910.997
301.891	22.961	1158.637	911.082
302.906	22.866	1158.697	910.562
303.920	22.906	1157.623	909.842
304.935	23.025	1156.933	909.830
305.949	22.947	1156.147	908.733
306.964	22.884	1155.786	908.045
307.979	22.961	1155.323	907.997
308.993	23.083	1154.368	907.793
310.008	23.097	1153.527	907.120
311.022	22.939	1153.352	906.091
312.037	23.129	1152.099	906.003
313.052	23.069	1151.437	905.091
314.066	23.008	1150.542	903.997
315.081	22.918	1150.296	903.266
316.095	23.033	1149.386	903.056
317.110	23.031	1148.668	902.403
318.125	22.996	1148.066	901.671
319.139	23.084	1147.245	901.396
320.154	23.034	1146.788	900.700
321.168	22.949	1146.307	899.813
322.183	23.076	1145.795	899.976
323.197	23.038	1144.978	899.060
324.212	23.017	1144.663	898.628
325.227	23.044	1144.205	898.327
326.241	23.116	1143.325	897.923
327.256	23.126	1142.611	897.333
328.270	23.176	1141.914	896.958
329.285	23.097	1140.772	895.582
330.300	23.130	1140.505	895.459
331.314	23.192	1139.093	894.588
332.329	23.258	1138.628	894.476
333.343	23.160	1138.146	893.524
334.358	23.231	1137.141	893.014
335.373	23.230	1136.259	892.239
336.387	23.217	1136.106	891.970
337.402	23.174	1135.218	890.981
338.416	23.343	1134.345	891.063
339.431	23.286	1133.808	890.275
340.446	23.233	1133.511	889.698
341.460	23.452	1132.385	889.836
342.475	23.310	1131.721	888.525
343.489	23.350	1130.899	888.001
344.504	23.301	1130.256	887.172
345.519	23.349	1129.272	886.560
346.533	23.404	1128.369	886.048
347.548	23.331	1127.484	884.911
348.562	23.451	1126.761	884.864
349.577	23.418	1126.357	884.303
350.592	23.338	1125.726	883.328
351.606	23.357	1125.002	882.776
352.621	23.427	1124.613	882.746
353.635	23.438	1123.950	882.202
354.650	23.390	1123.526	881.553
355.665	23.430	1122.816	881.114
356.679	23.435	1122.108	880.507
357.694	23.450	1121.217	879.805
358.708	23.550	1120.498	879.657
359.723	23.377	1120.290	878.556
360.738	23.382	1119.308	877.735
361.752	23.526	1119.008	878.133
362.767	23.489	1118.535	877.502
363.781	23.643	1117.548	877.413
364.796	23.607	1117.347	876.998
365.810	23.558	1116.559	876.059
366.825	23.507	1116.248	875.489
367.840	23.558	1115.676	875.213
368.854	23.593	1115.278	874.996
369.869	23.677	1114.060	874.378
370.883	23.677	1113.350	873.742
371.898	23.755	1112.562	873.431
372.913	23.632	1111.978	872.288
373.927	23.758	1111.467	872.432
374.942	23.698	1111.037	871.719
375.956	23.752	1110.464	871.459
376.971	23.626	1109.988	870.390
377.986	23.776	1109.563	870.718
379.000	23.747	1108.941	870.008
380.015	23.819	1108.190	869.696
381.029	23.768	1107.540	868.860
382.044	23.723	1107.183	868.280
383.059	23.926	1106.537	868.689
384.073	23.813	1105.517	867.260
385.088	23.833	1104.725	866.660
386.102	23.851	1103.894	866.018
387.117	23.776	1103.062	864.925
388.132	23.759	1102.540	864.357
389.146	23.781	1101.698	863.726
390.161	23.838	1101.094	863.454
391.175	24.053	1099.956	863.526
392.190	24.018	1099.367	862.818
393.205	23.886	1098.847	861.697
394.219	23.793	1098.356	860.783
395.234	23.918	1097.175	860.387
396.248	24.015	1096.266	860.068
397.263	23.931	1095.662	859.112
398.278	23.979	1095.271	858.962
399.292	24.036	1094.751	858.749
400.307	23.908	1094.264	857.676
401.321	23.931	1093.711	857.280
402.336	23.966	1092.869	856.708
403.350	23.989	1091.821	855.925
404.365	24.076	1091.157	855.745
405.380	23.992	1090.924	855.085
406.394	24.093	1089.766	854.583
407.409	24.165	1088.657	853.986
408.423	24.234	1088.309	853.965
409.438	24.170	1087.664	853.076
410.453	24.067	1087.113	852.077
411.467	24.113	1086.515	851.756
412.482	24.103	1085.720	851.005
413.496	24.103	1085.085	850.435
414.511	24.118	1084.739	850.157
415.526	24.101	1084.080	849.489
416.540	24.065	1083.702	848.945
417.555	24.105	1082.932	848.453
418.569	24.267	1082.471	848.789
419.584	24.244	1082.435	848.579
420.599	24.302	1081.454	848.010
421.613	149.278	1400.709	1799.071
422.628	137.903	1447.201	1799.173
