DTS Sentinel unit serial number:	SN413079Multiplexer serial number:	ORYXHardware model number:	OX4-SRSoftware version number:	ORYX F/W v4.00 Oryx Data Collector v3.7.2.0data status	okinstallation	princeton_trtdifferential loss correction	single-endedforward channel	channel 2reverse channel	N/Adate	2019/09/19time	02:27:34forward acquisition time	60.00reverse acquisition time	0.00gamma	496.2192k internal	0.2353k external	0.2353temperature offset calibration	1.0016default loss term (dB/km)	0.3790temperature slope calibration	1.0000multiplexer offset coefficient	1.0000multiplexer slope coefficient	1.0000fibre end	0.00T internal ref (°C)	21.03T ext. ref 1 (°C)	0.67T ext. ref 2 (°C)	14.70length (m)	temperature (°C)	Stokes	anti-Stokes-747.200	257.299	0.059	-0.101
-746.185	-74.017	0.107	0.039
-745.171	-4.457	-0.014	-0.009
-744.156	88.433	-0.207	0.230
-743.142	-200.000	-0.040	-0.179
-742.127	-200.000	0.014	0.347
-741.112	-50.833	-0.162	-0.076
-740.098	43.595	-0.200	0.182
-739.083	-64.492	-0.216	0.087
-738.069	333.335	-0.145	0.279
-737.054	68.117	-0.129	0.132
-736.039	14.850	-0.231	0.180
-735.025	800.000	-0.139	0.403
-734.010	-182.074	0.112	-0.002
-732.996	192.946	-0.123	-0.185
-731.981	-166.432	0.223	0.009
-730.966	-97.945	0.319	-0.082
-729.952	84.315	-0.118	0.129
-728.937	-200.000	0.022	-0.248
-727.923	-33.973	0.369	-0.202
-726.908	-34.308	-0.147	-0.080
-725.894	800.000	0.068	-0.201
-724.879	-28.913	-0.069	0.040
-723.864	8.954	0.077	-0.058
-722.850	-200.000	0.023	-0.099
-721.835	-120.376	0.460	-0.078
-720.821	-33.467	-0.172	0.095
-719.806	-200.000	0.025	-0.224
-718.791	800.000	-0.043	0.120
-717.777	311.391	0.047	-0.088
-716.762	13.236	-0.030	-0.023
-715.748	65.566	0.144	0.145
-714.733	-133.602	0.362	-0.045
-713.718	58.418	-0.131	-0.128
-712.704	-69.893	-0.291	-0.111
-711.689	273.231	-0.066	-0.116
-710.675	-51.886	0.288	0.134
-709.660	-88.652	-0.376	0.111
-708.645	-16.539	0.159	0.100
-707.631	463.577	0.175	-0.389
-706.616	-200.000	-0.052	-0.422
-705.602	-122.140	0.124	0.020
-704.587	-133.223	-0.090	-0.011
-703.572	498.569	0.048	0.110
-702.558	-12.970	-0.088	0.057
-701.543	51.118	-0.091	-0.086
-700.529	233.823	0.097	-0.159
-699.514	-67.108	-0.193	0.076
-698.499	-113.011	-0.077	0.015
-697.485	86.113	0.076	0.083
-696.470	-200.000	-0.021	0.199
-695.456	-141.806	-0.053	0.005
-694.441	41.301	-0.229	0.206
-693.426	800.000	-0.046	-0.140
-692.412	20.052	-0.195	-0.157
-691.397	-200.000	-0.030	-0.533
-690.383	-76.481	-0.339	-0.118
-689.368	137.391	-0.066	-0.086
-688.354	-200.000	-0.018	-0.206
-687.339	-108.085	-0.046	-0.010
-686.324	-200.000	-0.001	0.084
-685.310	800.000	0.076	0.220
-684.295	-76.538	0.188	-0.066
-683.281	140.086	0.078	-0.102
-682.266	800.000	-0.110	-0.396
-681.251	-62.807	-0.230	-0.095
-680.237	-68.114	0.184	0.071
-679.222	-30.122	-0.169	-0.096
-678.208	124.080	0.098	-0.122
-677.193	800.000	-0.069	0.251
-676.178	800.000	-0.016	0.054
-675.164	18.980	0.146	0.116
-674.149	87.493	0.107	0.118
-673.135	800.000	0.091	-0.270
-672.120	105.037	-0.300	-0.352
-671.105	433.430	0.076	-0.163
-670.091	800.000	-0.054	-0.193
-669.076	128.727	-0.038	-0.048
-668.062	471.647	-0.098	0.219
-667.047	-46.526	-0.115	-0.056
-666.032	55.034	-0.053	0.051
-665.018	68.254	0.192	-0.196
-664.003	-200.000	-0.028	0.447
-662.989	-76.813	-0.130	0.045
-661.974	-181.530	-0.227	0.004
-660.959	67.199	-0.260	0.263
-659.945	96.264	-0.237	-0.270
-658.930	-149.535	-0.440	-0.035
-657.916	800.000	-0.076	0.312
-656.901	249.790	0.115	0.194
-655.886	81.028	-0.114	0.122
-654.872	-132.635	0.175	-0.022
-653.857	-200.000	-0.100	0.463
-652.843	124.614	-0.240	0.300
-651.828	108.277	0.195	-0.232
-650.814	-193.948	-0.343	-0.003
-649.799	-34.831	-0.182	0.099
-648.784	285.262	-0.051	0.091
-647.770	245.761	-0.085	0.143
-646.755	85.654	-0.105	-0.114
-645.741	84.114	-0.097	-0.105
-644.726	-111.417	0.130	0.026
-643.711	71.069	0.021	-0.022
-642.697	-107.410	0.135	0.029
-641.682	-48.498	0.264	-0.126
-640.668	-157.088	-0.204	-0.012
-639.653	111.145	-0.063	0.076
-638.638	-185.302	0.047	0.001
-637.624	-151.470	-0.040	0.003
-636.609	-91.487	0.400	0.113
-635.595	-60.586	0.105	0.044
-634.580	362.003	0.079	0.157
-633.565	-76.034	-0.340	-0.119
-632.551	2.393	0.147	0.106
-631.536	46.072	0.139	-0.128
-630.522	126.634	-0.190	-0.238
-629.507	-127.516	-0.235	0.034
-628.492	501.013	-0.055	-0.127
-627.478	195.787	0.010	-0.015
-626.463	-200.000	-0.039	-0.314
-625.449	-84.767	-0.287	-0.090
-624.434	506.264	-0.109	-0.251
-623.419	389.987	0.102	0.209
-622.405	296.636	0.069	0.125
-621.390	104.983	-0.018	-0.021
-620.376	65.792	-0.229	-0.230
-619.361	156.806	0.049	-0.068
-618.346	-200.000	0.015	0.097
-617.332	-119.195	0.186	-0.032
-616.317	-200.000	0.048	-0.350
-615.303	-48.616	-0.052	-0.025
-614.288	7.045	-0.336	-0.249
-613.273	96.524	0.090	0.103
-612.259	28.015	0.138	-0.116
-611.244	-200.000	-0.009	-0.111
-610.230	-30.233	-0.122	-0.069
-609.215	-200.000	0.018	0.584
-608.201	-52.852	-0.096	-0.044
-607.186	-59.773	-0.262	0.111
-606.171	800.000	-0.077	-0.262
-605.157	66.184	0.376	-0.379
-604.142	88.189	-0.319	0.351
-603.128	-157.004	-0.356	-0.022
-602.113	-50.531	-0.029	0.014
-601.098	7.797	0.210	0.156
-600.084	434.452	-0.074	0.159
-599.069	183.090	0.052	0.076
-598.055	800.000	0.033	-0.104
-597.040	-25.576	-0.225	-0.132
-596.025	389.073	-0.068	-0.140
-595.011	-200.000	-0.039	-0.190
-593.996	416.758	-0.154	0.325
-592.982	-153.527	0.297	-0.020
-591.967	24.909	0.243	-0.199
-590.952	-200.000	-0.001	-0.286
-589.938	-72.999	0.323	0.117
-588.923	-200.000	-0.002	0.069
-587.909	404.211	-0.099	-0.207
-586.894	496.840	-0.047	-0.107
-585.879	143.605	-0.048	0.064
-584.865	39.663	0.073	0.064
-583.850	294.161	0.157	-0.283
-582.836	800.000	-0.103	-0.292
-581.821	-21.644	0.229	-0.138
-580.806	284.622	-0.138	-0.246
-579.792	-116.550	0.277	-0.051
-578.777	10.470	-0.064	0.048
-577.763	-172.647	-0.172	-0.005
-576.748	-200.000	0.016	-0.257
-575.733	-88.078	0.259	0.077
-574.719	17.824	0.386	0.305
-573.704	-200.000	0.046	0.247
-572.690	-118.895	-0.221	0.039
-571.675	-200.000	-0.003	-0.163
-570.661	681.517	-0.071	-0.184
-569.646	-133.369	0.258	0.032
-568.631	-200.000	0.008	-0.082
-567.617	38.937	-0.281	0.249
-566.602	294.119	-0.171	-0.310
-565.588	-84.109	0.330	-0.104
-564.573	-158.716	0.189	-0.011
-563.558	-189.265	0.078	-0.001
-562.544	-200.000	-0.035	-0.421
-561.529	-74.878	-0.295	-0.105
-560.515	-200.000	0.024	-0.399
-559.500	80.367	0.173	-0.184
-558.485	307.756	-0.208	0.384
-557.471	83.934	-0.242	0.261
-556.456	-114.391	0.110	-0.021
-555.442	-7.147	-0.224	-0.151
-554.427	238.430	-0.267	-0.439
-553.412	-68.029	0.233	-0.090
-552.398	-125.954	0.282	-0.042
-551.383	-121.294	0.060	0.010
-550.369	-106.189	-0.272	-0.060
-549.354	-200.000	-0.017	-0.090
-548.339	-41.103	0.432	-0.221
-547.325	-200.000	0.047	0.344
-546.310	686.968	0.062	0.161
-545.296	-90.277	0.231	-0.066
-544.281	-83.304	-0.103	0.033
-543.266	22.838	0.156	-0.126
-542.252	-200.000	-0.034	-0.209
-541.237	120.057	-0.056	0.068
-540.223	-133.849	0.219	0.027
-539.208	-91.478	-0.510	0.144
-538.193	800.000	0.120	0.345
-537.179	800.000	0.046	0.142
-536.164	-200.000	0.001	0.360
-535.150	800.000	-0.056	0.170
-534.135	104.381	-0.184	0.214
-533.121	-147.618	-0.028	0.002
-532.106	494.184	0.035	0.080
-531.091	-200.000	-0.023	0.103
-530.077	242.797	0.044	-0.073
-529.062	-200.000	-0.003	-0.056
-528.048	-200.000	0.003	0.101
-527.033	791.757	-0.111	-0.302
-526.018	-11.282	-0.274	0.179
-525.004	800.000	-0.037	-0.117
-523.989	-108.704	-0.241	-0.051
-522.975	62.923	0.165	0.163
-521.960	800.000	-0.046	-0.130
-520.945	-91.385	0.192	0.054
-519.931	-30.898	-0.077	-0.043
-518.916	268.207	-0.184	-0.319
-517.902	150.311	-0.045	0.060
-516.887	-27.697	-0.055	0.031
-515.872	-200.000	0.046	0.309
-514.858	319.046	-0.126	-0.236
-513.843	-66.660	-0.301	0.118
-512.829	47.988	0.169	-0.156
-511.814	321.454	0.110	0.207
-510.799	-93.566	-0.311	-0.085
-509.785	-200.000	0.005	-0.400
-508.770	-67.665	0.337	-0.130
-507.756	532.493	-0.039	-0.091
-506.741	-98.676	-0.184	-0.046
-505.726	-181.894	0.184	-0.003
-504.712	-94.074	-0.303	0.082
-503.697	-16.253	0.157	0.098
-502.683	-32.368	-0.102	0.056
-501.668	-112.883	0.134	-0.026
-500.653	352.323	0.176	0.344
-499.639	-161.153	0.342	0.018
-498.624	285.955	-0.120	0.214
-497.610	-200.000	-0.028	-0.276
-496.595	800.000	0.033	0.117
-495.581	-51.899	0.295	0.135
-494.566	-87.878	0.146	-0.043
-493.551	-49.221	-0.346	0.163
-492.537	-200.000	-0.048	-0.251
-491.522	-200.000	-0.000	0.042
-490.508	-200.000	-0.017	-0.202
-489.493	69.016	-0.210	-0.213
-488.478	260.765	0.129	-0.221
-487.464	234.809	0.135	0.220
-486.449	-200.000	0.027	-0.158
-485.435	576.483	-0.014	0.035
-484.420	108.276	-0.203	0.239
-483.405	800.000	0.088	0.373
-482.391	77.128	-0.144	0.151
-481.376	8.361	-0.185	0.137
-480.362	-56.786	-0.225	-0.098
-479.347	-200.000	-0.035	-0.419
-478.332	-200.000	-0.012	-0.248
-477.318	-148.195	-0.033	-0.003
-476.303	-138.613	0.284	-0.031
-475.289	-52.554	-0.100	-0.045
-474.274	-200.000	0.001	0.023
-473.259	570.023	-0.079	0.190
-472.245	-200.000	0.086	-0.410
-471.230	-200.000	-0.043	0.189
-470.216	800.000	-0.044	0.145
-469.201	-148.222	0.194	-0.016
-468.186	-173.683	0.328	-0.010
-467.172	-42.516	-0.180	0.091
-466.157	448.713	0.093	0.202
-465.143	182.829	-0.102	-0.148
-464.128	101.402	-0.149	-0.171
-463.113	800.000	-0.039	0.159
-462.099	13.066	-0.062	0.048
-461.084	-182.415	0.136	0.002
-460.070	60.866	-0.008	-0.008
-459.055	-126.348	0.329	0.048
-458.040	628.418	0.057	0.142
-457.026	800.000	0.050	0.157
-456.011	-200.000	0.033	-0.258
-454.997	-97.159	0.125	0.032
-453.982	-200.000	0.002	-0.213
-452.968	28.714	-0.139	0.116
-451.953	-200.000	0.006	-0.213
-450.938	-115.103	0.225	-0.042
-449.924	-134.094	0.100	-0.012
-448.909	-21.315	-0.300	0.181
-447.895	426.889	0.109	0.232
-446.880	-86.984	0.278	-0.084
-445.865	48.648	0.076	0.070
-444.851	7.843	-0.277	0.205
-443.836	-200.000	-0.031	0.200
-442.822	226.006	-0.118	0.189
-441.807	-153.491	-0.063	0.004
-440.792	145.614	0.061	0.081
-439.778	-200.000	0.011	0.224
-438.763	-16.141	0.274	-0.171
-437.749	800.000	0.088	-0.332
-436.734	414.761	-0.186	-0.391
-435.719	-131.793	0.073	-0.009
-434.705	800.000	0.016	0.064
-433.690	127.526	0.159	0.199
-432.676	-55.969	0.273	-0.120
-431.661	338.899	-0.081	-0.156
-430.646	648.044	0.089	-0.225
-429.632	68.218	-0.116	-0.117
-428.617	-144.789	-0.396	-0.036
-427.603	150.390	-0.142	0.190
-426.588	800.000	-0.089	-0.248
-425.573	136.292	-0.063	0.081
-424.559	446.515	-0.161	0.350
-423.544	-200.000	-0.037	-0.194
-422.530	-23.353	0.192	0.114
-421.515	-40.801	-0.040	0.020
-420.500	520.064	0.143	0.330
-419.486	-180.911	0.223	0.004
-418.471	800.000	0.019	0.058
-417.457	59.182	0.047	0.046
-416.442	-200.000	-0.009	-0.180
-415.428	29.288	-0.128	0.107
-414.413	-131.758	0.293	0.038
-413.398	-64.691	0.324	0.129
-412.384	114.020	0.238	0.285
-411.369	174.630	-0.107	0.152
-410.355	-19.708	0.045	-0.028
-409.340	439.322	-0.106	0.227
-408.325	-32.570	-0.141	-0.077
-407.311	375.034	0.026	-0.051
-406.296	86.874	-0.059	-0.064
-405.282	574.159	-0.048	0.115
-404.267	705.901	0.050	-0.129
-403.252	553.496	-0.111	-0.263
-402.238	-200.000	-0.022	-0.183
-401.223	-106.320	0.160	0.035
-400.209	10.602	0.078	-0.059
-399.194	86.534	-0.204	-0.221
-398.179	-118.076	-0.186	-0.033
-397.165	-200.000	0.000	0.073
-396.150	-200.000	-0.093	0.527
-395.136	-108.997	0.063	0.013
-394.121	-200.000	0.007	-0.123
-393.106	-89.196	0.122	0.035
-392.092	800.000	0.044	-0.187
-391.077	-82.761	0.252	-0.080
-390.063	100.564	-0.153	0.175
-389.048	63.446	0.148	-0.146
-388.033	-200.000	-0.068	0.312
-387.019	297.044	-0.162	0.293
-386.004	-30.358	0.075	-0.042
-384.990	67.065	-0.265	0.265
-383.975	223.426	0.066	0.105
-382.960	-200.000	0.071	-0.454
-381.946	-84.281	0.198	-0.062
-380.931	-147.586	0.170	-0.014
-379.917	-113.829	-0.137	0.026
-378.902	-200.000	-0.017	0.325
-377.888	108.256	-0.167	-0.196
-376.873	-200.000	0.032	0.141
-375.858	-62.098	-0.135	0.055
-374.844	-19.018	-0.071	-0.044
-373.829	-200.000	0.061	-0.436
-372.815	-62.043	-0.232	0.095
-371.800	-93.035	0.423	-0.116
-370.785	-200.000	-0.018	-0.146
-369.771	-200.000	0.022	0.111
-368.756	800.000	0.078	-0.249
-367.742	188.549	0.166	0.244
-366.727	-30.637	-0.309	-0.172
-365.712	194.876	-0.216	-0.322
-364.698	800.000	-0.016	0.045
-363.683	135.873	0.093	0.119
-362.669	46.626	-0.108	-0.099
-361.654	-200.000	0.022	0.164
-360.639	362.648	-0.058	0.114
-359.625	51.695	-0.155	-0.144
-358.610	-67.113	-0.221	0.085
-357.596	-200.000	-0.060	-0.358
-356.581	-25.841	-0.220	-0.127
-355.566	-63.898	0.235	-0.094
-354.552	-117.772	0.066	0.012
-353.537	115.514	0.083	0.099
-352.523	419.918	-0.053	-0.111
-351.508	-140.557	0.126	0.013
-350.493	-56.713	-0.459	0.200
-349.479	-67.437	-0.237	0.091
-348.464	598.592	0.136	0.330
-347.450	-200.000	0.009	-0.085
-346.435	-49.635	0.224	-0.105
-345.420	-174.123	0.195	0.006
-344.406	-200.000	0.018	0.140
-343.391	-160.962	0.131	0.007
-342.377	532.829	0.045	0.105
-341.362	-120.945	-0.368	0.061
-340.348	-60.951	0.231	0.096
-339.333	12.393	0.283	0.214
-338.318	-15.501	0.068	-0.042
-337.304	800.000	-0.133	0.360
-336.289	800.000	0.060	0.182
-335.275	-56.056	-0.204	-0.089
-334.260	-200.000	-0.005	0.141
-333.245	800.000	0.043	0.154
-332.231	-152.643	0.184	0.013
-331.216	800.000	-0.056	-0.196
-330.202	-17.323	-0.256	0.158
-329.187	-113.239	-0.078	-0.015
-328.172	-19.994	-0.209	0.127
-327.158	-200.000	-0.024	-0.196
-326.143	800.000	0.041	-0.143
-325.129	800.000	-0.038	-0.105
-324.114	80.389	-0.013	-0.013
-323.099	-174.048	-0.179	0.005
-322.085	261.249	-0.053	0.090
-321.070	-200.000	0.047	-0.426
-320.056	-200.000	0.008	-0.087
-319.041	28.165	0.119	0.099
-318.026	12.024	-0.065	0.049
-317.012	31.071	-0.057	-0.048
-315.997	-117.186	-0.233	0.042
-314.983	25.764	-0.113	-0.092
-313.968	800.000	-0.110	0.309
-312.953	-200.000	0.008	-0.038
-311.939	-200.000	-0.045	-0.238
-310.924	-200.000	-0.016	-0.232
-309.910	-13.650	-0.197	-0.125
-308.895	22.919	0.544	0.437
-307.880	71.401	-0.100	-0.102
-306.866	-200.000	0.009	-0.111
-305.851	-112.815	-0.228	-0.044
-304.837	43.805	0.205	-0.184
-303.822	128.062	0.054	0.067
-302.807	800.000	0.095	0.289
-301.793	-23.391	-0.285	0.168
-300.778	-163.698	0.133	-0.006
-299.764	-200.000	0.004	0.233
-298.749	800.000	-0.092	0.299
-297.735	-13.118	0.180	-0.115
-296.720	-153.022	-0.132	-0.009
-295.705	-111.387	-0.155	0.031
-294.691	-200.000	0.056	0.253
-293.676	-200.000	-0.011	-0.269
-292.662	228.502	0.182	0.290
-291.647	-46.679	0.272	0.131
-290.632	40.827	-0.080	-0.070
-289.618	-119.138	0.327	0.056
-288.603	99.744	-0.085	0.096
-287.589	643.260	-0.123	-0.307
-286.574	330.389	0.142	-0.267
-285.559	-200.000	0.032	-0.259
-284.545	800.000	0.059	-0.212
-283.530	-111.796	0.092	-0.018
-282.516	-1.439	-0.037	-0.026
-281.501	800.000	0.098	0.340
-280.486	653.537	-0.083	0.207
-279.472	-27.155	0.049	0.028
-278.457	223.747	-0.071	0.112
-277.443	-87.985	-0.060	0.018
-276.428	-22.491	-0.225	-0.133
-275.413	-200.000	0.049	0.346
-274.399	138.676	-0.131	-0.169
-273.384	581.689	0.102	-0.244
-272.370	147.739	0.139	-0.183
-271.355	8.065	0.179	0.131
-270.340	112.271	-0.032	-0.038
-269.326	-50.663	0.244	-0.112
-268.311	800.000	-0.025	-0.099
-267.297	454.358	0.073	-0.159
-266.282	-200.000	0.014	-0.374
-265.267	343.481	0.115	-0.221
-264.253	800.000	0.054	-0.182
-263.238	-50.818	0.280	-0.129
-262.224	319.724	0.040	-0.075
-261.209	600.858	-0.100	-0.243
-260.195	800.000	-0.080	0.224
-259.180	800.000	-0.059	0.162
-258.165	-119.362	0.149	0.025
-257.151	77.585	0.152	-0.158
-256.136	-47.947	-0.101	-0.048
-255.122	-116.090	0.263	-0.048
-254.107	-128.449	0.380	-0.053
-253.092	800.000	-0.019	0.057
-252.078	397.903	-0.073	-0.149
-251.063	-34.203	0.363	-0.195
-250.049	-178.599	-0.294	0.007
-249.034	362.959	-0.222	-0.436
-248.019	-49.877	0.260	-0.121
-247.005	371.575	-0.144	0.285
-245.990	37.344	-0.359	0.312
-244.976	-41.891	-0.140	0.070
-243.961	411.863	0.110	0.228
-242.946	190.574	0.126	0.186
-241.932	-200.000	-0.017	0.276
-240.917	-175.475	0.068	-0.002
-239.903	-200.000	0.017	0.379
-238.888	-23.378	-0.189	0.111
-237.873	-125.139	0.261	0.039
-236.859	34.126	-0.131	-0.112
-235.844	-200.000	-0.005	0.196
-234.830	800.000	0.035	0.130
-233.815	-159.076	-0.352	-0.019
-232.800	-7.985	0.070	0.046
-231.786	-200.000	0.047	0.422
-230.771	-88.369	0.323	-0.094
-229.757	85.170	0.103	-0.111
-228.742	533.917	0.052	0.119
-227.727	-95.168	-0.317	-0.084
-226.713	185.769	-0.098	0.143
-225.698	-125.615	-0.055	0.008
-224.684	-67.575	-0.262	0.100
-223.669	219.291	-0.117	-0.183
-222.655	800.000	-0.129	0.467
-221.640	-76.729	0.354	0.121
-220.625	-155.137	0.174	-0.011
-219.611	36.441	0.095	-0.082
-218.596	-36.681	0.086	0.045
-217.582	389.508	-0.191	0.386
-216.567	715.988	0.048	0.125
-215.552	30.247	-0.073	-0.061
-214.538	-200.000	-0.050	0.304
-213.523	-100.884	-0.137	-0.033
-212.509	800.000	-0.032	0.117
-211.494	-12.924	0.198	-0.126
-210.479	-200.000	-0.050	-0.272
-209.465	-200.000	-0.031	0.422
-208.450	257.340	-0.079	-0.132
-207.436	-149.314	-0.083	-0.006
-206.421	-26.428	-0.206	0.118
-205.406	192.945	-0.100	0.147
-204.392	8.625	-0.157	0.115
-203.377	284.652	0.028	-0.049
-202.363	334.398	0.133	0.251
-201.348	118.828	-0.192	-0.232
-200.333	124.012	-0.235	-0.288
-199.319	-200.000	0.030	-0.246
-198.304	-200.000	0.041	0.181
-197.290	527.851	0.086	-0.197
-196.275	237.057	-0.037	0.060
-195.260	-61.963	-0.226	0.092
-194.246	-9.959	0.345	0.224
-193.231	800.000	0.155	-0.488
-192.217	0.905	-0.107	0.075
-191.202	208.999	-0.208	0.318
-190.187	-200.000	0.029	-0.499
-189.173	-93.796	0.017	0.005
-188.158	108.719	0.086	0.100
-187.144	-151.542	-0.281	0.020
-186.129	-78.111	-0.107	0.036
-185.114	-30.621	0.211	0.117
-184.100	800.000	0.084	0.262
-183.085	56.551	-0.318	-0.302
-182.071	69.590	0.100	0.101
-181.056	-200.000	-0.048	0.284
-180.042	44.539	-0.215	0.193
-179.027	-153.380	0.397	0.027
-178.012	762.617	0.070	-0.186
-176.998	-79.503	-0.231	-0.076
-175.983	0.769	0.319	-0.222
-174.969	8.478	0.233	0.171
-173.954	-126.799	-0.225	0.032
-172.939	44.089	0.189	-0.169
-171.925	109.745	-0.213	0.249
-170.910	-34.594	0.182	-0.097
-169.896	771.213	-0.140	0.373
-168.881	791.847	-0.109	0.291
-167.866	-77.488	0.273	0.092
-166.852	-200.000	0.034	-0.203
-165.837	258.051	0.100	0.167
-164.823	-200.000	0.025	0.129
-163.808	-25.387	0.204	-0.117
-162.793	-18.580	-0.154	-0.094
-161.779	29.370	0.025	-0.020
-160.764	-54.153	0.063	-0.028
-159.750	-200.000	-0.081	-0.370
-158.735	-200.000	-0.031	-0.370
-157.720	-139.538	-0.148	0.015
-156.706	97.592	-0.094	0.105
-155.691	-1.517	0.073	-0.050
-154.677	-79.294	0.249	0.082
-153.662	-161.536	0.187	-0.009
-152.647	-86.351	0.140	-0.042
-151.633	8.718	-0.069	-0.050
-150.618	800.000	-0.028	-0.098
-149.604	48.761	0.215	0.196
-148.589	212.229	0.179	0.275
-147.574	-132.276	-0.385	0.048
-146.560	114.988	-0.315	0.374
-145.545	-200.000	-0.023	-0.324
-144.531	800.000	-0.094	-0.332
-143.516	-133.324	-0.258	0.032
-142.502	271.841	0.227	0.390
-141.487	342.874	0.126	-0.240
-140.472	69.952	0.273	0.274
-139.458	716.291	0.080	-0.208
-138.443	17.721	0.238	-0.184
-137.429	-106.066	0.267	0.059
-136.414	578.705	0.142	0.339
-135.399	253.683	0.083	0.138
-134.385	-1.246	-0.174	0.120
-133.370	-200.000	0.059	-0.389
-132.356	-50.883	-0.254	0.116
-131.341	-200.000	0.006	0.171
-130.326	800.000	-0.061	-0.201
-129.312	117.695	0.265	0.317
-128.297	-57.710	0.340	-0.145
-127.283	323.082	-0.162	-0.300
-126.268	8.185	-0.134	0.098
-125.253	289.698	0.022	-0.038
-124.239	195.914	0.053	0.079
-123.224	54.610	-0.193	0.181
-122.210	-92.064	-0.394	-0.108
-121.195	-67.494	0.534	-0.204
-120.180	-121.708	0.239	0.039
-119.166	-51.031	0.263	0.120
-118.151	-144.881	-0.227	-0.020
-117.137	248.174	0.140	0.231
-116.122	-107.700	-0.277	-0.059
-115.107	12.694	-0.198	-0.149
-114.093	58.301	-0.163	-0.155
-113.078	-125.169	-0.440	-0.066
-112.064	-200.000	0.010	-0.331
-111.049	50.083	0.103	0.094
-110.034	-5.237	0.166	-0.111
-109.020	-72.725	0.116	0.042
-108.005	361.733	-0.052	-0.102
-106.991	-190.809	0.132	-0.001
-105.976	-171.339	0.338	-0.011
-104.962	60.649	-0.182	0.175
-103.947	129.647	0.138	0.171
-102.932	-102.940	-0.192	0.044
-101.918	124.031	0.070	0.086
-100.903	-88.361	-0.053	0.015
-99.889	119.688	0.024	0.028
-98.874	8.673	0.085	0.062
-97.859	416.844	-0.049	0.102
-96.845	-200.000	0.049	0.432
-95.830	302.741	0.142	-0.255
-94.816	800.000	0.083	0.278
-93.801	-101.584	-0.148	0.035
-92.786	-79.082	0.227	-0.075
-91.772	-7.696	-0.331	-0.217
-90.757	-200.000	-0.023	-0.103
-89.743	6.908	-0.152	-0.110
-88.728	-33.735	0.200	-0.107
-87.713	-84.944	0.214	-0.065
-86.699	800.000	0.017	0.055
-85.684	660.647	-0.025	0.063
-84.670	-67.353	0.168	0.064
-83.655	-119.778	0.201	-0.034
-82.640	-108.705	0.022	-0.005
-81.626	765.571	0.056	-0.148
-80.611	-123.147	0.124	0.019
-79.597	-139.911	0.189	0.019
-78.582	69.253	-0.310	0.310
-77.567	-200.000	-0.045	0.294
-76.553	45.001	0.360	-0.322
-75.538	-37.618	-0.196	-0.102
-74.524	-1.657	-0.176	-0.121
-73.509	20.082	-0.194	-0.152
-72.494	800.000	0.118	0.406
-71.480	-61.331	-0.610	0.249
-70.465	634.080	0.120	0.295
-69.451	66.550	-0.066	-0.065
-68.436	-113.055	0.207	0.040
-67.422	-126.734	-0.286	-0.041
-66.407	-200.000	0.008	0.094
-65.392	-1.783	0.341	0.233
-64.378	1.965	-0.131	0.091
-63.363	245.021	-0.177	0.289
-62.349	-54.743	0.110	-0.048
-61.334	1.939	-1.525	-1.068
-60.319	313.283	0.543	0.991
-59.305	291.921	-0.730	-1.290
-58.290	338.881	0.795	1.504
-57.276	169.807	0.809	1.123
-56.261	-200.000	136.189	686.452
-55.246	339.864	1681.373	3182.642
-54.232	134.017	2814.741	3538.471
-53.217	82.659	2311.877	2437.406
-52.203	29.833	1909.388	1578.479
-51.188	23.973	1705.232	1364.839
-50.173	22.067	1667.889	1320.584
-49.159	44.079	1742.143	1549.949
-48.144	41.120	1750.071	1534.184
-47.130	23.622	1701.582	1359.019
-46.115	21.104	1686.147	1327.507
-45.100	20.973	1680.728	1322.193
-44.086	20.873	1678.639	1319.737
-43.071	20.945	1675.448	1317.723
-42.057	20.862	1673.860	1315.793
-41.042	20.922	1671.768	1314.550
-40.027	20.890	1670.054	1312.912
-39.013	20.853	1668.155	1311.084
-37.998	20.804	1667.024	1309.776
-36.984	20.861	1665.634	1309.063
-35.969	21.033	1663.743	1308.814
-34.954	21.100	1661.927	1307.832
-33.940	20.876	1661.061	1305.423
-32.925	20.913	1658.994	1304.023
-31.911	20.990	1657.281	1303.198
-30.896	21.085	1655.039	1302.097
-29.881	21.048	1653.614	1300.644
-28.867	20.974	1652.972	1299.538
-27.852	21.055	1650.966	1298.511
-26.838	21.067	1649.423	1297.338
-25.823	20.971	1648.812	1296.089
-24.809	21.010	1647.200	1295.061
-23.794	21.029	1645.754	1294.019
-22.779	21.123	1643.771	1293.102
-21.765	21.074	1642.339	1291.563
-20.750	21.094	1641.038	1290.636
-19.736	21.040	1639.967	1289.341
-18.721	21.107	1638.007	1288.244
-17.706	21.098	1636.751	1287.139
-16.692	20.981	1635.633	1285.347
-15.677	21.128	1633.744	1284.893
-14.663	21.182	1632.780	1284.479
-13.648	21.063	1631.631	1282.649
-12.633	21.016	1630.044	1281.007
-11.619	21.067	1628.007	1279.730
-10.604	21.126	1626.549	1278.964
-9.590	21.071	1625.396	1277.606
-8.575	21.135	1624.089	1276.992
-7.560	21.159	1622.873	1276.165
-6.546	21.099	1621.839	1274.862
-5.531	21.068	1621.026	1273.948
-4.517	21.037	1619.812	1272.714
-3.502	21.152	1618.183	1272.223
-2.487	21.134	1616.961	1271.082
-1.473	20.641	1604.853	1257.949
-0.458	17.640	1584.801	1220.719
0.556	13.141	1587.517	1190.340
1.571	11.020	1611.418	1192.625
2.586	10.850	1624.038	1200.604
3.600	10.155	1569.713	1155.377
4.615	5.851	1464.214	1048.901
5.629	1.494	1407.880	980.402
6.644	0.619	1402.110	970.674
7.659	0.669	1400.571	969.842
8.673	0.675	1399.230	968.865
9.688	0.728	1396.864	967.483
10.702	0.404	1394.214	963.493
11.717	2.664	1396.493	979.434
12.731	8.782	1405.538	1024.929
13.746	14.833	1414.977	1070.593
14.761	17.135	1417.621	1087.253
15.775	16.585	1416.163	1082.524
16.790	15.658	1412.961	1074.056
17.804	14.867	1410.966	1067.399
18.819	14.556	1409.455	1064.174
19.834	14.326	1408.392	1061.813
20.848	14.085	1407.086	1059.198
21.863	13.843	1405.682	1056.508
22.877	13.726	1404.561	1054.828
23.892	13.612	1403.478	1053.199
24.907	13.578	1402.804	1052.383
25.921	13.659	1401.615	1051.914
26.936	13.598	1401.166	1051.095
27.950	13.707	1399.159	1050.185
28.965	13.735	1398.596	1049.849
29.980	13.881	1397.741	1050.037
30.994	13.798	1396.732	1048.659
32.009	13.794	1395.874	1047.900
33.023	13.907	1394.729	1047.663
34.038	13.917	1393.033	1046.359
35.053	13.753	1392.478	1044.812
36.067	13.903	1391.242	1044.736
37.082	13.751	1390.346	1043.018
38.096	13.782	1389.354	1042.378
39.111	13.789	1388.752	1041.877
40.126	13.796	1387.540	1040.919
41.140	13.706	1386.933	1039.808
42.155	13.673	1386.422	1039.126
43.169	13.607	1386.599	1038.749
44.184	13.678	1385.958	1038.622
45.199	13.580	1386.002	1037.952
46.213	13.666	1384.895	1037.565
47.228	13.652	1384.092	1036.786
48.242	13.758	1382.526	1036.183
49.257	13.690	1381.591	1034.967
50.271	13.603	1380.065	1033.192
51.286	13.789	1378.161	1032.833
52.301	13.712	1377.109	1031.471
53.315	13.745	1376.003	1030.757
54.330	13.624	1375.186	1029.306
55.344	13.610	1373.867	1028.136
56.359	13.733	1372.214	1027.574
57.374	13.581	1371.946	1026.343
58.388	13.636	1370.958	1025.849
59.403	13.717	1370.750	1026.106
60.417	13.610	1369.667	1024.543
61.432	13.549	1369.053	1023.614
62.447	13.579	1367.804	1022.773
63.461	13.534	1366.954	1021.772
64.476	13.552	1365.486	1020.696
65.490	13.566	1364.757	1020.146
66.505	13.570	1362.671	1018.522
67.520	13.544	1361.587	1017.458
68.534	13.578	1360.533	1016.794
69.549	13.587	1359.498	1015.986
70.563	13.602	1358.060	1014.911
71.578	13.547	1357.402	1013.995
72.593	13.646	1356.129	1013.556
73.607	13.557	1355.245	1012.262
74.622	13.551	1354.354	1011.473
75.636	13.504	1354.036	1010.857
76.651	13.565	1352.773	1010.200
77.666	13.576	1352.685	1010.110
78.680	13.489	1352.221	1009.142
79.695	13.568	1350.964	1008.597
80.709	13.533	1350.463	1007.921
81.724	13.637	1349.214	1007.530
82.739	13.704	1348.249	1007.128
83.753	13.671	1347.934	1006.602
84.768	13.706	1346.569	1005.706
85.782	13.830	1345.132	1005.298
86.797	13.740	1344.203	1003.967
87.812	13.634	1342.946	1002.301
88.826	13.664	1341.273	1001.146
89.841	13.673	1340.601	1000.610
90.855	13.722	1339.594	1000.064
91.870	13.845	1338.568	999.952
92.884	13.764	1337.521	998.591
93.899	13.769	1337.153	998.259
94.914	13.804	1336.068	997.573
95.928	13.839	1335.427	997.215
96.943	13.786	1334.687	996.256
97.957	13.851	1333.250	995.485
98.972	13.896	1332.426	995.050
99.987	13.746	1331.230	993.170
101.001	13.806	1329.959	992.492
102.016	13.832	1329.574	992.275
103.030	13.855	1328.625	991.616
104.045	13.897	1327.094	990.637
105.060	13.763	1326.210	989.089
106.074	13.720	1324.929	987.791
107.089	13.663	1323.735	986.477
108.103	13.621	1322.692	985.361
109.118	13.653	1321.189	984.343
110.133	13.717	1319.269	983.206
111.147	13.718	1318.072	982.233
112.162	13.750	1316.812	981.394
113.176	13.695	1316.233	980.555
114.191	13.721	1315.127	979.796
115.206	13.726	1313.836	978.779
116.220	13.699	1312.584	977.598
117.235	13.730	1311.628	976.979
118.249	13.749	1310.411	976.101
119.264	13.809	1309.649	975.801
120.279	13.759	1308.302	974.416
121.293	13.781	1307.286	973.701
122.308	13.777	1306.094	972.703
123.322	13.734	1305.211	971.711
124.337	13.581	1304.285	970.037
125.352	13.744	1302.961	969.920
126.366	13.696	1301.889	968.756
127.381	13.736	1300.739	968.047
128.395	13.649	1299.816	966.768
129.410	13.648	1298.767	965.896
130.424	13.661	1297.701	965.093
131.439	13.685	1296.884	964.542
132.454	13.735	1295.768	963.914
133.468	13.632	1295.209	962.820
134.483	13.673	1294.307	962.299
135.497	13.848	1292.779	962.090
136.512	13.740	1291.593	960.500
137.527	13.812	1290.158	959.765
138.541	13.807	1288.409	958.347
139.556	13.752	1287.481	957.257
140.570	13.821	1286.591	956.905
141.585	13.735	1285.320	955.382
142.600	13.964	1283.666	955.383
143.614	13.949	1283.249	954.904
144.629	13.919	1282.575	954.147
145.643	13.881	1281.007	952.680
146.658	13.903	1279.505	951.599
147.673	13.860	1278.108	950.233
148.687	13.759	1277.422	949.059
149.702	13.809	1275.920	948.146
150.716	13.795	1275.122	947.390
151.731	13.849	1273.899	946.708
152.746	13.873	1272.117	945.436
153.760	13.890	1271.314	944.849
154.775	14.040	1269.949	944.603
155.789	13.842	1269.327	942.935
156.804	13.995	1267.908	942.663
157.819	14.006	1266.810	941.828
158.833	13.973	1265.880	940.863
159.848	14.232	1264.514	941.234
160.862	14.018	1263.916	939.493
161.877	14.033	1262.824	938.681
162.892	14.032	1261.780	937.817
163.906	13.941	1260.623	936.365
164.921	14.013	1259.539	935.879
165.935	13.958	1259.315	935.324
166.950	14.054	1258.574	935.227
167.964	14.120	1257.619	934.806
168.979	14.107	1256.855	934.082
169.994	14.166	1255.525	933.342
171.008	14.134	1254.728	932.487
172.023	14.246	1253.888	932.408
173.037	14.187	1253.444	931.665
174.052	14.199	1252.737	931.124
175.067	14.159	1251.462	929.872
176.081	14.032	1250.856	928.629
177.096	14.248	1249.502	928.746
178.110	14.111	1248.683	927.291
179.125	14.186	1247.327	926.623
180.140	14.230	1245.796	925.648
181.154	14.193	1244.864	924.666
182.169	14.217	1243.085	923.398
183.183	14.362	1241.909	923.247
184.198	14.400	1241.165	922.822
185.213	14.316	1240.234	921.584
186.227	14.368	1238.719	920.665
187.242	14.319	1238.149	919.889
188.256	14.452	1236.636	919.416
189.271	14.469	1235.805	918.811
190.286	14.419	1234.540	917.511
191.300	14.259	1234.099	916.224
192.315	14.246	1233.475	915.605
193.329	14.241	1233.104	915.225
194.344	14.250	1232.388	914.663
195.359	14.361	1231.789	914.747
196.373	14.414	1230.987	914.357
197.388	14.411	1230.835	914.147
198.402	14.417	1230.180	913.613
199.417	14.585	1229.126	913.670
200.432	14.554	1228.508	912.961
201.446	14.580	1227.323	912.144
202.461	14.705	1226.352	912.021
203.475	14.678	1225.615	911.247
204.490	14.587	1224.170	909.593
205.504	14.682	1222.845	909.046
206.519	14.546	1222.463	907.943
207.534	14.479	1220.915	906.349
208.548	14.710	1219.999	906.841
209.563	14.665	1219.291	905.991
210.577	14.526	1218.795	904.790
211.592	14.682	1217.527	904.615
212.607	14.714	1216.510	903.949
213.621	14.689	1215.399	902.908
214.636	14.747	1214.311	902.334
215.650	14.714	1214.006	901.851
216.665	14.702	1212.669	900.711
217.680	14.825	1211.894	900.721
218.694	14.716	1211.344	899.646
219.709	14.787	1210.475	899.301
220.723	14.737	1209.710	898.383
221.738	14.835	1209.013	898.312
222.753	14.800	1208.137	897.398
223.767	14.841	1207.253	896.882
224.782	14.911	1206.619	896.703
225.796	14.944	1206.230	896.513
226.811	14.823	1205.499	895.245
227.826	14.971	1204.091	894.912
228.840	14.919	1203.694	894.256
229.855	14.887	1203.130	893.590
230.869	14.938	1202.286	893.154
231.884	14.860	1201.751	892.261
232.899	14.895	1200.808	891.669
233.913	14.955	1199.784	891.150
234.928	14.947	1199.449	890.781
235.942	14.921	1198.353	889.748
236.957	14.975	1197.357	889.218
237.972	15.012	1196.675	888.831
238.986	14.997	1196.098	888.240
240.001	14.979	1195.559	887.668
241.015	15.066	1194.079	886.951
242.030	15.057	1193.527	886.414
243.045	15.103	1192.886	886.104
244.059	15.213	1191.790	885.795
245.074	15.146	1191.221	884.935
246.088	15.084	1190.590	884.064
247.103	15.133	1189.684	883.571
248.117	15.182	1188.663	882.990
249.132	15.250	1188.070	882.834
250.147	15.308	1187.359	882.531
251.161	15.296	1186.526	881.770
252.176	15.395	1185.988	881.813
253.190	15.335	1185.389	880.976
254.205	15.398	1184.413	880.503
255.220	15.449	1183.962	880.354
256.234	15.465	1183.568	880.068
257.249	15.465	1182.722	879.361
258.263	15.522	1182.058	879.091
259.278	15.466	1181.188	878.073
260.293	15.448	1181.218	877.921
261.307	15.512	1180.245	877.458
262.322	15.590	1179.335	877.107
263.336	15.606	1178.704	876.644
264.351	15.570	1177.981	875.844
265.366	15.630	1177.631	875.818
266.380	15.675	1176.796	875.351
267.395	15.606	1175.853	874.215
268.409	15.570	1175.001	873.316
269.424	15.620	1174.860	873.394
270.439	15.630	1174.178	872.860
271.453	15.603	1173.281	871.977
272.468	15.619	1172.276	871.236
273.482	15.591	1171.461	870.411
274.497	15.715	1170.922	870.571
275.512	15.638	1170.033	869.439
276.526	15.644	1169.769	869.194
277.541	15.754	1168.704	868.894
278.555	15.599	1168.280	867.703
279.570	15.829	1167.017	867.876
280.585	15.873	1166.156	867.384
281.599	15.835	1165.574	866.681
282.614	15.752	1164.496	865.373
283.628	15.893	1162.997	864.905
284.643	15.824	1162.081	863.797
285.657	15.798	1161.626	863.249
286.672	15.822	1160.823	862.698
287.687	15.799	1159.798	861.742
288.701	15.894	1158.702	861.337
289.716	15.914	1158.131	860.939
290.730	15.987	1157.291	860.608
291.745	15.951	1157.064	860.181
292.760	15.961	1156.142	859.470
293.774	16.016	1155.591	859.267
294.789	15.970	1155.053	858.554
295.803	16.038	1154.340	858.296
296.818	15.996	1153.313	857.244
297.833	16.029	1152.693	856.876
298.847	16.037	1152.213	856.483
299.862	16.046	1150.921	855.491
300.876	16.139	1150.276	855.410
301.891	16.062	1149.808	854.595
302.906	16.089	1149.455	854.392
303.920	16.146	1148.690	854.038
304.935	16.197	1147.341	853.218
305.949	16.277	1146.823	853.159
306.964	16.268	1146.060	852.470
307.979	16.258	1145.344	851.814
308.993	16.231	1144.868	851.248
310.008	16.327	1143.591	850.706
311.022	16.204	1142.977	849.555
312.037	16.271	1142.129	849.185
313.052	16.292	1141.441	848.708
314.066	16.315	1140.025	847.693
315.081	16.231	1139.397	846.732
316.095	16.227	1138.902	846.267
317.110	16.311	1138.159	846.061
318.125	16.267	1137.191	845.046
319.139	16.220	1136.375	844.132
320.154	16.300	1135.683	843.943
321.168	16.081	1135.941	842.964
322.183	16.186	1134.729	842.513
323.197	16.319	1134.207	842.717
324.212	16.282	1133.779	842.136
325.227	16.383	1132.876	841.899
326.241	16.298	1132.759	841.309
327.256	16.387	1131.400	840.673
328.270	16.510	1130.073	840.220
329.285	16.525	1129.282	839.634
330.300	16.456	1128.440	838.592
331.314	16.411	1127.608	837.676
332.329	16.527	1126.883	837.638
333.343	16.379	1125.807	836.031
334.358	16.356	1125.028	835.263
335.373	16.529	1124.401	835.579
336.387	16.505	1123.411	834.651
337.402	16.489	1122.882	834.108
338.416	16.390	1122.449	833.225
339.431	16.653	1121.357	833.633
340.446	16.601	1120.959	833.009
341.460	16.601	1120.340	832.473
342.475	16.727	1119.300	832.249
343.489	16.725	1118.331	831.445
344.504	16.758	1117.710	831.068
345.519	16.822	1116.479	830.392
346.533	16.660	1115.993	829.164
347.548	16.747	1115.172	828.907
348.562	16.832	1114.110	828.462
349.577	16.797	1113.104	827.471
350.592	16.865	1112.420	827.221
351.606	16.851	1111.603	826.471
352.621	16.877	1110.997	826.072
353.635	16.742	1110.697	825.120
354.650	16.816	1109.441	824.475
355.665	16.835	1109.286	824.380
356.679	16.928	1108.703	824.323
357.694	16.906	1107.849	823.509
358.708	16.865	1107.554	823.017
359.723	16.944	1106.614	822.630
360.738	16.969	1106.097	822.296
361.752	16.973	1105.385	821.710
362.767	16.920	1104.920	821.035
363.781	16.928	1104.606	820.768
364.796	17.093	1103.837	820.924
365.810	17.066	1103.028	820.116
366.825	17.121	1102.540	819.948
367.840	17.196	1101.917	819.777
368.854	17.035	1101.572	818.670
369.869	17.164	1100.131	818.147
370.883	17.197	1099.640	817.867
371.898	17.078	1098.866	816.647
372.913	17.147	1098.225	816.430
373.927	17.110	1097.792	815.859
374.942	17.174	1097.397	815.800
375.956	17.328	1096.303	815.651
376.971	17.369	1095.678	815.314
377.986	17.296	1095.358	814.654
379.000	17.325	1094.997	814.452
380.015	17.272	1094.692	813.897
381.029	17.402	1093.372	813.468
382.044	17.290	1093.114	812.669
383.059	17.455	1092.082	812.617
384.073	17.419	1091.186	811.707
385.088	17.442	1090.263	811.055
386.102	17.430	1089.648	810.470
387.117	17.358	1088.936	809.529
388.132	17.447	1087.605	808.888
389.146	17.538	1086.859	808.693
390.161	17.415	1086.353	807.663
391.175	17.434	1085.753	807.237
392.190	17.570	1084.818	807.113
393.205	17.575	1083.865	806.358
394.219	17.640	1082.805	805.802
395.234	17.478	1082.634	804.841
396.248	17.469	1081.471	803.860
397.263	17.547	1080.150	803.177
398.278	17.604	1079.240	802.697
399.292	17.462	1079.012	801.785
400.307	17.570	1078.218	801.636
401.321	17.644	1077.558	801.418
402.336	17.578	1077.040	800.655
403.350	17.579	1076.230	799.986
404.365	17.601	1075.614	799.561
405.380	17.651	1074.628	798.991
406.394	17.617	1073.995	798.291
407.409	17.653	1073.771	798.224
408.423	17.738	1072.556	797.644
409.438	17.776	1071.781	797.177
410.453	17.822	1071.207	796.896
411.467	17.750	1070.434	795.913
412.482	17.893	1069.667	795.939
413.496	17.776	1069.759	795.391
414.511	17.859	1068.688	794.909
415.526	17.924	1068.021	794.649
416.540	17.945	1067.513	794.295
417.555	17.994	1067.036	794.097
418.569	17.954	1066.285	793.286
419.584	17.918	1065.745	792.645
420.599	17.920	1065.366	792.301
421.613	109.917	1332.591	1492.318
422.628	101.634	1371.478	1492.389
