DTS Sentinel unit serial number:	SN413079Multiplexer serial number:	ORYXHardware model number:	OX4-SRSoftware version number:	ORYX F/W v4.00 Oryx Data Collector v3.7.2.0data status	okinstallation	princeton_trtdifferential loss correction	single-endedforward channel	channel 2reverse channel	N/Adate	2019/09/16time	21:59:34forward acquisition time	60.00reverse acquisition time	0.00gamma	496.2192k internal	0.2328k external	0.2328temperature offset calibration	0.9968default loss term (dB/km)	0.3790temperature slope calibration	1.0000multiplexer offset coefficient	1.0000multiplexer slope coefficient	1.0000fibre end	0.00T internal ref (°C)	31.19T ext. ref 1 (°C)	0.07T ext. ref 2 (°C)	25.37length (m)	temperature (°C)	Stokes	anti-Stokes-747.200	275.688	-0.061	-0.109
-746.185	-200.000	-0.004	-0.057
-745.171	-7.246	0.377	0.258
-744.156	185.079	-0.115	0.171
-743.142	800.000	0.055	0.212
-742.127	56.873	-0.181	0.177
-741.112	254.385	0.113	-0.195
-740.098	44.319	-0.171	0.158
-739.083	605.523	0.037	-0.094
-738.069	-200.000	-0.051	0.383
-737.054	254.776	0.138	-0.237
-736.039	213.302	-0.139	0.221
-735.025	644.526	0.080	0.205
-734.010	-83.343	-0.334	-0.108
-732.996	-57.936	0.041	-0.018
-731.981	-77.096	0.429	0.151
-730.966	-83.734	-0.407	-0.131
-729.952	-68.888	0.576	-0.224
-728.937	-116.954	-0.380	-0.070
-727.923	-114.364	-0.481	0.093
-726.908	-20.163	-0.215	-0.133
-725.894	-200.000	0.019	-0.109
-724.879	-64.644	0.389	-0.159
-723.864	-130.953	-0.161	-0.022
-722.850	132.586	-0.140	-0.182
-721.835	7.981	-0.208	-0.157
-720.821	336.365	-0.149	0.292
-719.806	-102.421	-0.255	0.061
-718.791	108.652	-0.196	-0.236
-717.777	-200.000	0.006	-0.284
-716.762	259.731	0.214	-0.373
-715.748	195.751	-0.215	-0.329
-714.733	-7.545	-0.239	-0.163
-713.718	-200.000	-0.018	-0.121
-712.704	484.262	-0.107	-0.245
-711.689	106.096	-0.170	-0.202
-710.675	-179.702	0.267	-0.006
-709.660	-107.036	0.158	-0.035
-708.645	-74.972	-0.135	0.049
-707.631	-120.764	0.355	-0.060
-706.616	29.999	-0.176	-0.151
-705.602	50.298	-0.215	0.204
-704.587	800.000	-0.022	0.076
-703.572	-132.547	-0.330	0.043
-702.558	-122.096	0.337	0.056
-701.543	-54.597	-0.117	0.053
-700.529	18.863	0.266	-0.214
-699.514	199.759	0.078	-0.121
-698.499	162.255	-0.205	-0.290
-697.485	-83.436	-0.388	-0.125
-696.470	-200.000	-0.036	-0.184
-695.456	62.796	0.220	0.221
-694.441	237.507	-0.065	0.109
-693.426	245.116	0.115	0.194
-692.412	44.710	-0.234	-0.217
-691.397	-97.241	0.204	-0.054
-690.383	-56.254	-0.245	-0.109
-689.368	-174.393	0.294	-0.009
-688.354	-200.000	0.026	-0.393
-687.339	-37.216	0.254	-0.137
-686.324	-146.342	0.105	-0.009
-685.310	-33.732	0.208	-0.115
-684.295	43.337	-0.161	-0.148
-683.281	-84.574	-0.321	-0.102
-682.266	-113.036	0.207	0.041
-681.251	88.159	-0.074	0.083
-680.237	39.829	-0.119	-0.108
-679.222	2.139	-0.042	0.031
-678.208	534.823	0.097	-0.230
-677.193	490.099	0.120	0.275
-676.178	114.863	0.036	-0.044
-675.164	-200.000	0.036	-0.185
-674.149	-172.241	0.204	-0.007
-673.135	-200.000	-0.009	-0.188
-672.120	800.000	-0.034	0.100
-671.105	-145.249	-0.320	0.029
-670.091	645.733	-0.024	-0.060
-669.076	-16.885	0.110	-0.070
-668.062	800.000	-0.075	0.211
-667.047	479.433	-0.189	0.431
-666.032	182.924	-0.060	-0.089
-665.018	90.513	-0.419	-0.471
-664.003	-112.801	0.269	0.054
-662.989	464.570	-0.163	0.366
-661.974	101.124	0.158	0.185
-660.959	113.223	-0.020	-0.025
-659.945	-200.000	0.030	-0.144
-658.930	-200.000	-0.002	-0.145
-657.916	44.620	-0.376	-0.348
-656.901	669.063	0.129	-0.336
-655.886	800.000	-0.150	-0.443
-654.872	-41.136	0.225	0.117
-653.857	800.000	-0.067	0.252
-652.843	211.966	-0.190	0.301
-651.828	800.000	-0.090	0.369
-650.814	200.480	-0.143	-0.221
-649.799	-78.020	0.090	0.031
-648.784	-68.185	-0.185	-0.072
-647.770	-200.000	-0.001	0.119
-646.755	800.000	-0.042	-0.146
-645.741	-78.841	0.248	-0.085
-644.726	-128.285	-0.243	0.035
-643.711	498.494	0.086	0.200
-642.697	565.887	-0.037	-0.091
-641.682	-5.422	0.108	-0.074
-640.668	-130.285	0.043	-0.006
-639.653	-200.000	-0.035	-0.187
-638.638	19.285	-0.175	-0.141
-637.624	-153.336	-0.233	0.016
-636.609	77.724	0.209	-0.223
-635.595	538.812	0.086	0.204
-634.580	87.123	-0.271	0.301
-633.565	243.367	-0.033	0.056
-632.551	-81.120	0.084	0.028
-631.536	-180.367	0.115	-0.002
-630.522	715.469	-0.081	0.215
-629.507	60.830	0.105	0.105
-628.492	-95.430	0.142	-0.038
-627.478	-132.253	0.231	-0.030
-626.463	-78.043	-0.125	0.043
-625.449	-9.512	0.146	0.098
-624.434	111.104	-0.108	0.131
-623.419	-71.946	0.171	0.064
-622.405	125.892	-0.192	-0.243
-621.390	-200.000	0.051	-0.390
-620.376	298.279	0.147	-0.270
-619.361	800.000	0.061	-0.221
-618.346	5.534	0.089	0.066
-617.332	-200.000	-0.012	0.213
-616.317	44.622	-0.323	0.298
-615.303	-85.992	0.125	0.039
-614.288	-146.009	0.255	0.023
-613.273	-100.863	0.133	-0.033
-612.259	262.052	-0.053	-0.092
-611.244	142.225	0.137	-0.183
-610.230	-96.666	0.119	0.031
-609.215	-85.226	0.074	0.023
-608.201	124.128	-0.261	0.329
-607.186	470.549	-0.015	-0.034
-606.171	95.497	-0.116	0.132
-605.157	-200.000	-0.012	-0.296
-604.142	800.000	-0.060	-0.249
-603.128	-30.479	-0.127	0.072
-602.113	-80.973	0.152	-0.050
-601.098	-120.441	-0.305	0.052
-600.084	80.957	-0.271	-0.293
-599.069	-157.205	0.116	0.007
-598.055	-146.657	-0.450	-0.039
-597.040	-71.606	0.107	-0.040
-596.025	-90.465	-0.444	0.129
-595.011	-200.000	-0.028	0.164
-593.996	174.922	0.106	0.153
-592.982	322.557	0.153	-0.292
-591.967	-200.000	-0.012	0.121
-590.952	-200.000	-0.012	-0.167
-589.938	5.556	0.029	-0.021
-588.923	-29.270	0.109	0.062
-587.909	213.081	-0.219	-0.346
-586.894	155.835	-0.131	-0.181
-585.879	9.895	0.143	0.108
-584.865	317.388	-0.226	-0.427
-583.850	-35.077	-0.196	-0.107
-582.836	-90.988	-0.419	-0.121
-581.821	0.606	-0.176	-0.126
-580.806	-49.882	0.252	-0.120
-579.792	220.387	-0.126	-0.203
-578.777	-110.850	-0.446	0.092
-577.763	267.591	-0.070	0.122
-576.748	800.000	0.045	-0.178
-575.733	337.154	0.035	-0.069
-574.719	468.646	0.152	0.343
-573.704	-6.331	0.144	-0.099
-572.690	800.000	0.104	0.294
-571.675	318.599	0.093	-0.176
-570.661	800.000	-0.049	-0.175
-569.646	800.000	0.021	-0.070
-568.631	800.000	-0.118	0.434
-567.617	800.000	0.132	0.391
-566.602	98.718	-0.147	0.169
-565.588	-32.756	0.189	0.105
-564.573	-60.650	0.277	0.117
-563.558	11.140	-0.376	0.288
-562.544	-7.530	0.051	0.034
-561.529	593.550	0.050	0.124
-560.515	272.189	0.156	-0.275
-559.500	306.088	-0.070	-0.130
-558.485	-118.025	0.273	-0.049
-557.471	156.657	-0.141	-0.195
-556.456	-200.000	-0.024	0.151
-555.442	800.000	0.092	0.321
-554.427	-164.547	-0.201	0.009
-553.412	144.941	0.142	-0.190
-552.398	-1.115	0.050	-0.035
-551.383	-200.000	-0.012	0.161
-550.369	-12.469	0.168	-0.110
-549.354	10.758	-0.335	-0.255
-548.339	-105.346	0.272	0.062
-547.325	-168.869	0.223	0.008
-546.310	-91.915	-0.334	-0.095
-545.296	-200.000	-0.001	-0.152
-544.281	-34.734	-0.163	0.089
-543.266	35.959	-0.189	-0.167
-542.252	-123.813	0.173	0.027
-541.237	-85.515	0.136	-0.042
-540.223	81.008	-0.188	-0.203
-539.208	213.986	-0.174	0.275
-538.193	326.608	0.105	-0.202
-537.179	-22.723	0.316	-0.191
-536.164	-16.784	-0.229	0.145
-535.150	98.691	0.143	-0.165
-534.135	743.234	0.011	0.031
-533.121	-200.000	-0.007	0.087
-532.106	20.119	-0.182	0.147
-531.091	-161.584	-0.337	-0.017
-530.077	-200.000	0.023	0.116
-529.062	-72.626	0.221	0.082
-528.048	85.824	-0.101	-0.111
-527.033	97.250	-0.110	-0.126
-526.018	35.833	-0.030	-0.026
-525.004	-108.827	0.111	0.024
-523.989	-200.000	-0.048	0.244
-522.975	-19.359	-0.140	0.087
-521.960	-200.000	0.027	-0.322
-520.945	-123.871	-0.053	0.008
-519.931	239.069	-0.113	-0.187
-518.916	99.068	-0.079	0.091
-517.902	-200.000	-0.035	-0.280
-516.887	800.000	-0.041	0.121
-515.872	-5.620	0.178	0.122
-514.858	267.406	0.006	0.011
-513.843	-82.771	-0.445	0.144
-512.829	140.908	0.156	-0.206
-511.814	-1.969	0.230	0.161
-510.799	12.932	0.161	0.124
-509.785	130.860	-0.248	0.318
-508.770	-60.509	-0.185	-0.078
-507.756	521.929	0.086	-0.203
-506.741	-200.000	0.011	0.289
-505.726	-49.508	-0.429	0.204
-504.712	-200.000	-0.028	0.154
-503.697	-200.000	0.005	0.144
-502.683	681.438	0.093	0.242
-501.668	112.175	-0.224	0.271
-500.653	45.853	-0.099	0.091
-499.639	366.529	0.138	-0.277
-498.624	800.000	0.058	0.163
-497.610	-37.857	0.501	-0.266
-496.595	-30.791	0.155	0.088
-495.581	115.701	-0.077	0.094
-494.566	-200.000	-0.076	-0.378
-493.551	-17.134	0.142	0.089
-492.537	-31.705	0.063	-0.035
-491.522	-76.410	0.120	0.042
-490.508	-98.737	-0.262	0.067
-489.493	-200.000	-0.060	-0.285
-488.478	800.000	0.073	-0.304
-487.464	-17.964	-0.149	0.093
-486.449	-164.326	-0.216	0.010
-485.435	57.880	-0.314	0.306
-484.420	-200.000	0.065	0.339
-483.405	800.000	-0.037	0.130
-482.391	211.980	0.193	0.303
-481.376	-200.000	-0.007	-0.055
-480.362	-200.000	0.011	0.064
-479.347	-200.000	0.003	-0.106
-478.332	800.000	-0.072	-0.201
-477.318	286.138	0.022	-0.039
-476.303	-88.407	0.029	0.009
-475.289	-200.000	-0.006	-0.055
-474.274	91.491	0.250	0.280
-473.259	800.000	-0.024	-0.095
-472.245	46.772	0.334	-0.309
-471.230	-136.628	-0.212	0.024
-470.216	54.085	-0.131	-0.126
-469.201	92.593	0.233	-0.262
-468.186	368.021	0.151	0.305
-467.172	-37.081	-0.039	-0.021
-466.157	-82.083	-0.152	-0.049
-465.143	298.742	0.139	0.256
-464.128	209.032	-0.140	-0.218
-463.113	-63.176	-0.273	-0.112
-462.099	-70.127	0.215	0.082
-461.084	552.981	0.039	-0.093
-460.070	181.933	0.232	-0.340
-459.055	-26.858	-0.075	-0.044
-458.040	-42.910	-0.189	0.095
-457.026	-200.000	-0.010	-0.085
-456.011	60.730	0.046	-0.045
-454.997	-200.000	-0.010	0.161
-453.982	-92.527	-0.192	0.054
-452.968	338.646	0.137	-0.266
-451.953	1.939	-0.119	0.086
-450.938	-38.718	-0.155	0.081
-449.924	337.007	0.051	-0.098
-448.909	7.616	-0.208	0.155
-447.895	72.233	0.360	0.373
-446.880	227.347	-0.138	0.223
-445.865	-200.000	0.058	0.275
-444.851	-200.000	0.059	-0.267
-443.836	-18.933	-0.096	-0.060
-442.822	-141.240	-0.195	-0.020
-441.807	311.529	-0.020	-0.038
-440.792	800.000	0.045	0.171
-439.778	-200.000	0.002	0.239
-438.763	-131.662	0.345	0.045
-437.749	567.421	-0.126	0.305
-436.734	-200.000	-0.048	0.223
-435.719	-52.882	-0.107	-0.049
-434.705	-70.718	0.352	0.132
-433.690	800.000	0.073	0.270
-432.676	9.531	-0.442	-0.333
-431.661	422.976	-0.075	0.160
-430.646	-63.300	0.348	0.143
-429.632	319.868	-0.139	-0.263
-428.617	800.000	-0.051	-0.155
-427.603	-68.546	0.267	0.103
-426.588	10.241	-0.155	-0.117
-425.573	-108.925	0.097	-0.021
-424.559	-2.467	0.154	0.107
-423.544	-165.802	-0.275	-0.012
-422.530	-100.776	-0.043	-0.011
-421.515	-18.472	0.137	0.085
-420.500	-200.000	0.083	-0.384
-419.486	-148.612	0.081	0.007
-418.471	-200.000	0.033	-0.145
-417.457	417.344	0.091	0.194
-416.442	800.000	-0.079	0.229
-415.428	272.242	0.139	-0.243
-414.413	800.000	-0.072	0.216
-413.398	-200.000	-0.040	0.192
-412.384	-55.948	0.251	0.111
-411.369	72.172	-0.445	0.461
-410.355	-56.313	0.041	-0.018
-409.340	-200.000	0.059	-0.583
-408.325	-200.000	0.003	-0.180
-407.311	199.006	0.073	0.112
-406.296	-200.000	0.004	-0.034
-405.282	-200.000	-0.010	-0.075
-404.267	60.008	-0.119	0.117
-403.252	58.023	-0.030	-0.029
-402.238	11.424	-0.235	-0.179
-401.223	800.000	-0.043	-0.165
-400.209	-200.000	0.009	0.324
-399.194	-133.286	0.230	0.029
-398.179	211.344	-0.029	0.046
-397.165	-107.576	0.125	-0.027
-396.150	-137.272	-0.066	-0.007
-395.136	-157.269	-0.245	-0.015
-394.121	-200.000	-0.030	-0.654
-393.106	-200.000	0.019	-0.251
-392.092	800.000	0.040	-0.129
-391.077	-200.000	-0.002	0.261
-390.063	-78.507	-0.053	0.018
-389.048	-88.732	-0.255	-0.075
-388.033	68.135	0.055	0.056
-387.019	171.464	0.176	0.251
-386.004	-176.966	0.138	-0.003
-384.990	-154.015	0.152	-0.010
-383.975	-89.874	-0.020	-0.006
-382.960	-38.547	0.306	0.161
-381.946	26.142	-0.143	-0.119
-380.931	-30.748	0.211	-0.119
-379.917	-142.510	0.271	-0.026
-378.902	-81.961	0.207	0.067
-377.888	-200.000	0.016	-0.295
-376.873	498.313	0.043	-0.098
-375.858	685.370	0.101	0.262
-374.844	-194.648	-0.295	0.002
-373.829	-116.677	-0.321	-0.059
-372.815	-200.000	-0.013	0.196
-371.800	-15.827	-0.179	-0.113
-370.785	-127.375	-0.263	-0.038
-369.771	-107.787	0.261	0.057
-368.756	196.705	-0.212	0.322
-367.742	-200.000	-0.029	-0.327
-366.727	-8.745	-0.205	-0.136
-365.712	47.084	0.243	0.224
-364.698	-38.668	-0.068	-0.036
-363.683	800.000	0.086	-0.253
-362.669	-75.685	-0.231	-0.081
-361.654	-35.183	-0.333	-0.180
-360.639	-53.513	0.061	-0.028
-359.625	47.686	0.147	-0.136
-358.610	-46.266	0.090	-0.044
-357.596	-143.385	-0.292	0.028
-356.581	-110.091	0.158	0.033
-355.566	-11.303	-0.165	0.108
-354.552	304.506	0.156	-0.287
-353.537	-200.000	0.006	0.044
-352.523	-154.820	0.211	0.014
-351.508	-94.595	0.196	-0.053
-350.493	-154.532	-0.055	-0.004
-349.479	-200.000	-0.031	-0.145
-348.464	-121.572	0.472	-0.078
-347.450	31.261	-0.110	-0.093
-346.435	79.935	0.173	0.184
-345.420	-150.665	0.367	-0.028
-344.406	-10.730	0.074	0.049
-343.391	-200.000	-0.048	0.247
-342.377	-200.000	0.007	0.227
-341.362	35.236	0.283	-0.247
-340.348	-48.060	-0.209	-0.100
-339.333	-60.474	-0.084	0.036
-338.318	-200.000	-0.024	-0.166
-337.304	-14.739	0.207	0.132
-336.289	180.278	-0.239	0.347
-335.275	-159.078	-0.106	-0.006
-334.260	-6.735	0.170	-0.115
-333.245	-200.000	0.028	-0.225
-332.231	800.000	-0.072	0.292
-331.216	-200.000	-0.008	0.202
-330.202	-61.344	0.160	-0.067
-329.187	-46.683	0.196	0.095
-328.172	-99.769	0.252	-0.062
-327.158	24.091	-0.068	0.055
-326.143	-40.047	-0.040	-0.021
-325.129	800.000	-0.047	-0.174
-324.114	-200.000	-0.034	0.219
-323.099	-74.926	0.470	-0.167
-322.085	-44.103	-0.250	0.124
-321.070	-106.413	0.390	-0.086
-320.056	0.383	0.099	-0.070
-319.041	-59.056	-0.143	-0.061
-318.026	-52.265	0.210	0.096
-317.012	-172.820	-0.174	-0.005
-315.997	800.000	0.039	-0.112
-314.983	-148.463	0.219	0.018
-313.968	-16.038	0.197	0.124
-312.953	-26.601	0.185	0.107
-311.939	-12.393	0.065	-0.042
-310.924	-29.998	0.156	0.088
-309.910	17.602	-0.171	-0.135
-308.895	-200.000	0.130	0.000
-307.880	-115.434	0.334	0.062
-306.866	-29.112	0.119	0.067
-305.851	-168.126	0.433	0.017
-304.837	-16.418	-0.155	-0.098
-303.822	792.015	-0.040	-0.108
-302.807	-5.718	-0.360	0.244
-301.793	-62.327	-0.172	-0.071
-300.778	-148.789	0.256	0.021
-299.764	-174.380	0.272	-0.008
-298.749	800.000	-0.117	0.384
-297.735	-167.308	0.265	-0.011
-296.720	470.831	-0.247	-0.549
-295.705	-197.277	0.084	0.001
-294.691	-200.000	-0.036	-0.244
-293.676	292.051	-0.033	0.060
-292.662	-92.713	-0.266	0.074
-291.647	-108.141	-0.088	0.019
-290.632	-200.000	-0.011	0.098
-289.618	85.949	-0.144	0.157
-288.603	-200.000	-0.009	-0.137
-287.589	61.943	0.219	-0.216
-286.574	472.737	-0.221	0.493
-285.559	-67.383	-0.073	-0.029
-284.545	-132.524	0.047	-0.006
-283.530	362.445	-0.022	0.044
-282.516	266.950	0.147	-0.254
-281.501	-200.000	-0.025	-0.304
-280.486	-45.310	-0.179	-0.088
-279.472	107.165	-0.108	0.127
-278.457	-83.789	0.489	0.154
-277.443	800.000	0.169	-0.475
-276.428	-110.185	-0.228	0.047
-275.413	-67.404	0.072	-0.028
-274.399	19.468	0.163	0.130
-273.384	-200.000	-0.005	-0.045
-272.370	-163.113	0.349	-0.017
-271.355	-200.000	-0.033	-0.236
-270.340	-90.939	-0.390	0.111
-269.326	-109.409	-0.089	0.019
-268.311	763.469	0.109	0.293
-267.297	800.000	0.066	0.244
-266.282	-200.000	0.034	-0.213
-265.267	-12.377	0.280	-0.181
-264.253	20.724	-0.134	0.107
-263.238	800.000	-0.030	-0.115
-262.224	-200.000	-0.057	-0.375
-261.209	44.376	-0.144	-0.131
-260.195	-149.210	0.276	-0.022
-259.180	46.318	-0.082	0.075
-258.165	91.575	0.152	-0.168
-257.151	48.990	0.213	-0.198
-256.136	-200.000	-0.039	0.173
-255.122	279.208	0.045	-0.079
-254.107	321.101	-0.135	0.254
-253.092	-200.000	0.004	0.320
-252.078	540.208	0.113	0.267
-251.063	-200.000	0.010	0.276
-250.049	3.374	-0.257	0.185
-249.034	-200.000	0.008	-0.101
-248.019	87.731	0.077	0.084
-247.005	152.890	0.056	-0.076
-245.990	-109.756	-0.086	-0.018
-244.976	-124.142	-0.287	0.044
-243.961	-155.997	0.205	0.013
-242.946	108.567	0.065	0.077
-241.932	171.552	-0.078	-0.111
-240.917	115.579	-0.055	0.067
-239.903	-200.000	0.090	0.404
-238.888	-14.172	-0.101	0.064
-237.873	171.937	0.129	-0.183
-236.859	10.571	-0.455	0.342
-235.844	-200.000	-0.008	0.400
-234.830	-200.000	0.038	0.271
-233.815	-31.635	0.079	-0.044
-232.800	639.288	-0.018	-0.044
-231.786	20.701	0.157	0.126
-230.771	800.000	-0.148	-0.448
-229.757	97.065	-0.131	0.148
-228.742	-200.000	0.011	-0.312
-227.727	6.113	-0.151	-0.111
-226.713	280.559	-0.191	-0.337
-225.698	7.516	-0.253	-0.187
-224.684	-200.000	0.058	-0.556
-223.669	-200.000	-0.049	-0.260
-222.655	-200.000	-0.016	0.274
-221.640	-116.334	0.278	0.051
-220.625	-97.782	-0.345	0.088
-219.611	-10.853	-0.326	0.213
-218.596	-114.902	-0.267	-0.050
-217.582	268.548	-0.050	-0.087
-216.567	-200.000	-0.014	-0.097
-215.552	-200.000	-0.001	-0.172
-214.538	800.000	0.072	-0.234
-213.523	637.723	-0.095	-0.238
-212.509	-125.720	-0.249	-0.037
-211.494	-165.329	0.151	-0.007
-210.479	-200.000	0.032	0.177
-209.465	341.060	-0.120	-0.231
-208.450	-200.000	-0.026	-0.157
-207.436	-187.570	0.037	-0.000
-206.421	-82.705	0.283	-0.090
-205.406	235.554	0.158	0.257
-204.392	-163.607	-0.256	-0.012
-203.377	52.197	-0.298	0.280
-202.363	-129.709	0.044	0.006
-201.348	-85.771	-0.452	-0.138
-200.333	69.526	0.188	0.191
-199.319	-200.000	-0.016	-0.099
-198.304	25.234	-0.290	-0.238
-197.290	302.998	-0.062	0.114
-196.275	-200.000	0.034	-0.208
-195.260	-106.657	-0.432	0.095
-194.246	82.845	-0.114	-0.122
-193.231	-200.000	-0.027	0.138
-192.217	-200.000	0.000	-0.094
-191.202	-100.310	-0.226	0.055
-190.187	219.045	0.026	-0.041
-189.173	-92.909	0.020	-0.006
-188.158	-149.102	0.231	-0.018
-187.144	-146.366	0.181	-0.016
-186.129	800.000	0.107	-0.346
-185.114	-200.000	0.037	-0.494
-184.100	439.612	0.056	0.121
-183.085	-97.911	0.195	-0.050
-182.071	800.000	-0.047	0.203
-181.056	-103.668	0.229	0.053
-180.042	-41.111	0.278	-0.142
-179.027	-32.374	-0.302	-0.166
-178.012	-104.840	-0.207	0.047
-176.998	-58.148	-0.242	-0.104
-175.983	43.381	0.129	0.116
-174.969	477.370	-0.048	0.107
-173.954	800.000	-0.018	-0.065
-172.939	-200.000	-0.024	-0.136
-171.925	-165.309	0.368	0.016
-170.910	-80.438	0.388	0.127
-169.896	-154.016	0.132	0.009
-168.881	-148.553	-0.214	-0.017
-167.866	-24.296	0.470	0.276
-166.852	-200.000	0.025	0.401
-165.837	-69.726	-0.265	0.100
-164.823	-200.000	-0.005	0.325
-163.808	800.000	0.031	-0.130
-162.793	487.252	0.172	-0.387
-161.779	-85.130	0.388	0.120
-160.764	-28.576	-0.317	0.180
-159.750	-200.000	-0.005	0.132
-158.735	800.000	0.106	0.371
-157.720	-200.000	0.005	-0.097
-156.706	-45.929	0.300	0.146
-155.691	-72.241	-0.121	0.044
-154.677	-180.419	0.324	0.007
-153.662	305.116	-0.139	-0.255
-152.647	485.851	-0.167	0.375
-151.633	130.946	0.170	0.215
-150.618	-200.000	-0.029	0.132
-149.604	38.420	0.302	-0.265
-148.589	141.872	0.138	0.180
-147.574	-44.606	0.243	-0.120
-146.560	40.869	0.128	-0.113
-145.545	-66.598	0.405	-0.158
-144.531	-190.666	-0.187	-0.002
-143.516	168.684	0.205	0.288
-142.502	-200.000	0.051	0.251
-141.487	11.416	0.134	-0.101
-140.472	800.000	-0.095	-0.286
-139.458	145.960	-0.165	-0.218
-138.443	469.881	-0.023	0.050
-137.429	503.436	0.200	-0.456
-136.414	-98.063	0.191	0.048
-135.399	800.000	0.033	0.134
-134.385	540.158	0.215	0.503
-133.370	800.000	0.067	0.233
-132.356	433.868	-0.081	-0.173
-131.341	-97.069	0.271	-0.070
-130.326	-58.657	0.448	0.191
-129.312	153.103	0.157	0.211
-128.297	120.099	0.113	0.137
-127.283	-118.798	-0.153	-0.026
-126.268	-112.730	0.327	0.064
-125.253	70.770	-0.159	-0.162
-124.239	-28.041	0.118	-0.067
-123.224	-155.647	-0.245	-0.015
-122.210	-200.000	0.018	-0.232
-121.195	309.568	0.118	0.217
-120.180	-21.559	0.337	-0.202
-119.166	800.000	-0.064	-0.245
-118.151	70.035	0.208	-0.211
-117.137	-54.296	-0.094	0.042
-116.122	52.261	0.149	0.140
-115.107	-200.000	0.008	0.433
-114.093	800.000	0.140	0.386
-113.078	-170.170	0.253	-0.009
-112.064	800.000	-0.091	-0.258
-111.049	800.000	0.041	0.130
-110.034	82.248	0.101	-0.107
-109.020	227.732	-0.117	-0.188
-108.005	-109.748	-0.265	0.055
-106.991	-56.545	0.339	-0.148
-105.976	800.000	-0.060	0.232
-104.962	-83.328	-0.205	-0.065
-103.947	85.127	0.145	0.157
-102.932	105.158	0.110	0.127
-101.918	-9.969	0.250	0.163
-100.903	154.489	0.139	-0.188
-99.889	-145.079	-0.472	0.042
-98.874	-28.528	-0.058	-0.033
-97.859	478.015	-0.035	-0.078
-96.845	-41.291	-0.187	0.095
-95.830	-93.602	-0.156	-0.042
-94.816	308.522	0.062	0.113
-93.801	-200.000	0.043	0.364
-92.786	204.511	0.042	-0.064
-91.772	519.849	0.092	-0.211
-90.757	11.952	0.169	0.127
-89.743	189.771	0.344	0.506
-88.728	234.998	0.204	0.331
-87.713	-101.652	0.326	0.078
-86.699	-8.681	0.258	-0.170
-85.684	-200.000	-0.023	0.365
-84.670	293.910	-0.191	-0.343
-83.655	-200.000	-0.009	0.063
-82.640	516.836	0.041	0.094
-81.626	163.850	0.160	0.222
-80.611	800.000	-0.029	-0.082
-79.597	-155.478	-0.073	-0.005
-78.582	-157.527	0.094	-0.006
-77.567	-13.233	-0.040	-0.026
-76.553	-200.000	0.053	0.339
-75.538	643.726	-0.092	-0.231
-74.524	-189.345	0.328	0.004
-73.509	167.879	0.217	-0.303
-72.494	-28.376	0.235	-0.133
-71.480	-8.754	-0.106	-0.070
-70.465	135.764	0.175	-0.224
-69.451	31.264	0.125	-0.106
-68.436	731.981	-0.077	-0.202
-67.422	-46.858	0.107	0.051
-66.407	-200.000	0.016	0.479
-65.392	265.514	0.083	0.142
-64.378	62.997	-0.241	-0.237
-63.363	-200.000	0.003	-0.181
-62.349	-200.000	0.072	0.366
-61.334	43.250	-1.066	-0.955
-60.319	33.343	0.864	0.735
-59.305	549.616	-0.338	-0.795
-58.290	290.677	0.679	1.210
-57.276	574.985	0.704	1.686
-56.261	-200.000	99.671	582.816
-55.246	512.495	1404.772	3210.909
-54.232	157.779	2583.564	3511.019
-53.217	104.578	2269.511	2622.368
-52.203	40.353	1892.948	1671.096
-51.188	34.284	1684.307	1441.113
-50.173	31.773	1640.231	1384.816
-49.159	49.392	1689.457	1558.921
-48.144	51.146	1706.094	1587.357
-47.130	34.027	1665.550	1422.916
-46.115	31.357	1651.472	1390.986
-45.100	31.061	1647.010	1384.973
-44.086	31.071	1644.812	1383.145
-43.071	31.091	1641.727	1380.647
-42.057	31.086	1639.588	1378.755
-41.042	31.023	1636.927	1375.999
-40.027	31.132	1635.424	1375.484
-39.013	31.080	1633.463	1373.398
-37.998	31.074	1631.613	1371.744
-36.984	31.063	1630.491	1370.663
-35.969	31.188	1629.441	1370.644
-34.954	31.318	1627.326	1369.767
-33.940	31.182	1626.003	1367.602
-32.925	31.183	1624.238	1366.071
-31.911	31.131	1622.671	1364.320
-30.896	31.156	1620.904	1362.959
-29.881	31.210	1619.708	1362.297
-28.867	31.264	1617.610	1360.868
-27.852	31.093	1616.341	1358.503
-26.838	31.209	1614.942	1358.119
-25.823	31.114	1613.640	1356.276
-24.809	31.213	1612.491	1355.980
-23.794	31.289	1610.530	1354.827
-22.779	31.210	1609.574	1353.395
-21.765	31.222	1607.602	1351.769
-20.750	31.152	1605.872	1349.758
-19.736	31.157	1605.226	1349.195
-18.721	31.169	1603.410	1347.698
-17.706	31.241	1601.697	1346.730
-16.692	31.203	1600.328	1345.248
-15.677	31.176	1598.908	1343.805
-14.663	31.171	1597.753	1342.748
-13.648	31.262	1596.174	1342.024
-12.633	31.249	1594.694	1340.630
-11.619	31.173	1593.168	1338.747
-10.604	31.163	1592.015	1337.656
-9.590	31.262	1590.292	1336.861
-8.575	31.219	1589.142	1335.536
-7.560	31.258	1587.916	1334.731
-6.546	31.275	1586.387	1333.514
-5.531	31.278	1585.573	1332.801
-4.517	31.188	1584.974	1331.599
-3.502	31.252	1583.821	1331.039
-2.487	31.224	1582.397	1329.586
-1.473	30.979	1570.273	1317.615
-0.458	28.051	1551.514	1281.336
0.556	22.701	1551.846	1249.840
1.571	20.259	1576.181	1251.732
2.586	19.872	1588.850	1258.865
3.600	18.040	1536.698	1204.535
4.615	10.058	1427.124	1066.092
5.629	1.833	1361.332	964.936
6.644	0.268	1352.395	948.671
7.659	0.035	1351.926	946.786
8.673	-0.009	1350.615	945.512
9.688	-0.024	1348.791	944.055
10.702	-0.191	1346.376	941.235
11.717	3.622	1352.022	969.065
12.731	12.316	1365.870	1033.844
13.746	17.556	1372.422	1071.770
14.761	17.238	1370.862	1068.461
15.775	16.139	1368.018	1059.252
16.790	15.184	1365.015	1050.844
17.804	14.433	1362.767	1044.314
18.819	13.968	1362.015	1040.736
19.834	13.806	1360.396	1038.392
20.848	13.419	1359.207	1034.975
21.863	13.405	1357.418	1033.433
22.877	13.113	1356.983	1031.186
23.892	12.909	1356.108	1029.158
24.907	13.085	1354.724	1029.114
25.921	13.064	1354.369	1028.619
26.936	13.194	1353.026	1028.322
27.950	13.179	1352.185	1027.496
28.965	13.109	1351.608	1026.531
29.980	13.254	1350.314	1026.359
30.994	13.287	1349.422	1025.793
32.009	13.358	1348.689	1025.587
33.023	13.381	1347.085	1024.421
34.038	13.317	1346.069	1023.162
35.053	13.287	1344.996	1022.070
36.067	13.164	1344.457	1020.808
37.082	13.321	1342.930	1020.529
38.096	13.260	1342.463	1019.708
39.111	13.312	1341.555	1019.246
40.126	13.237	1340.535	1017.916
41.140	13.140	1340.008	1016.834
42.155	13.124	1339.294	1016.102
43.169	13.086	1339.413	1015.865
44.184	13.076	1338.900	1015.328
45.199	13.043	1338.992	1015.102
46.213	13.161	1337.736	1014.790
47.228	13.222	1336.980	1014.497
48.242	13.178	1336.047	1013.431
49.257	13.197	1334.036	1011.929
50.271	13.154	1332.859	1010.689
51.286	13.255	1331.693	1010.330
52.301	13.207	1330.224	1008.834
53.315	13.149	1329.255	1007.654
54.330	13.140	1328.666	1007.066
55.344	13.063	1327.249	1005.430
56.359	13.155	1326.202	1005.111
57.374	13.088	1325.635	1004.182
58.388	13.031	1324.673	1003.019
59.403	12.996	1324.416	1002.522
60.417	13.054	1323.544	1002.130
61.432	12.969	1322.887	1001.024
62.447	13.035	1321.677	1000.423
63.461	12.931	1320.526	998.834
64.476	13.034	1319.096	998.286
65.490	12.966	1318.033	996.981
66.505	13.040	1316.616	996.265
67.520	12.937	1315.876	994.999
68.534	13.147	1314.306	994.988
69.549	13.034	1313.738	993.790
70.563	13.013	1312.510	992.648
71.578	12.871	1311.461	990.910
72.593	12.957	1310.253	990.431
73.607	12.882	1309.449	989.280
74.622	12.899	1308.921	988.901
75.636	12.986	1308.006	988.638
76.651	12.930	1307.309	987.688
77.666	12.895	1306.918	987.096
78.680	12.795	1306.355	985.985
79.695	12.895	1305.323	985.722
80.709	12.999	1304.755	985.823
81.724	13.062	1303.945	985.502
82.739	13.010	1303.297	984.617
83.753	13.134	1301.603	983.986
84.768	13.150	1300.927	983.484
85.782	13.235	1299.471	982.801
86.797	13.247	1298.288	981.891
87.812	13.123	1297.450	980.432
88.826	13.199	1295.761	979.523
89.841	13.165	1294.964	978.629
90.855	13.233	1293.795	978.066
91.870	13.273	1292.879	977.520
92.884	13.260	1292.248	976.883
93.899	13.236	1291.760	976.285
94.914	13.404	1290.303	976.090
95.928	13.348	1289.827	975.313
96.943	13.364	1288.764	974.513
97.957	13.232	1288.251	973.264
98.972	13.289	1286.541	972.218
99.987	13.226	1286.047	971.393
101.001	13.212	1285.078	970.490
102.016	13.179	1284.204	969.550
103.030	13.205	1283.196	968.857
104.045	13.181	1282.637	968.210
105.060	13.220	1280.782	966.952
106.074	13.110	1279.797	965.479
107.089	13.080	1278.450	964.201
108.103	13.074	1277.194	963.132
109.118	13.098	1275.768	962.112
110.133	13.113	1274.423	961.100
111.147	13.159	1273.343	960.470
112.162	13.151	1271.902	959.254
113.176	13.167	1270.572	958.259
114.191	13.183	1270.421	958.150
115.206	13.264	1268.969	957.438
116.220	13.132	1267.898	955.785
117.235	13.133	1267.002	955.028
118.249	13.091	1266.331	954.194
119.264	13.052	1265.038	952.912
120.279	13.185	1263.770	952.636
121.293	13.012	1262.895	950.901
122.308	13.112	1261.613	950.425
123.322	13.124	1260.850	949.834
124.337	12.989	1259.899	948.258
125.352	13.012	1258.345	947.139
126.366	13.000	1257.459	946.316
127.381	13.083	1256.334	945.861
128.395	13.168	1255.094	945.334
129.410	13.051	1254.593	944.205
130.424	13.162	1253.475	943.910
131.439	13.155	1252.831	943.303
132.454	13.209	1251.588	942.590
133.468	13.217	1250.467	941.712
134.483	13.151	1250.261	941.097
135.497	13.231	1249.018	940.532
136.512	13.167	1247.965	939.290
137.527	13.163	1246.745	938.266
138.541	13.142	1245.543	937.163
139.556	13.161	1243.849	935.910
140.570	13.350	1242.773	936.085
141.585	13.241	1241.533	934.455
142.600	13.342	1240.250	933.979
143.614	13.285	1239.572	933.059
144.629	13.332	1238.533	932.463
145.643	13.369	1237.412	931.747
146.658	13.264	1236.222	930.177
147.673	13.248	1234.839	928.961
148.687	13.190	1233.706	927.701
149.702	13.212	1232.404	926.766
150.716	13.249	1230.940	925.787
151.731	13.230	1229.602	924.596
152.746	13.252	1228.697	923.952
153.760	13.326	1227.391	923.305
154.775	13.305	1226.634	922.534
155.789	13.395	1225.285	921.940
156.804	13.282	1225.090	921.085
157.819	13.477	1223.101	920.590
158.833	13.346	1223.154	919.820
159.848	13.537	1221.666	919.680
160.862	13.492	1220.725	918.640
161.877	13.385	1219.775	917.251
162.892	13.389	1218.536	916.265
163.906	13.361	1217.186	915.011
164.921	13.374	1216.355	914.374
165.935	13.431	1215.458	913.938
166.950	13.411	1214.955	913.369
167.964	13.453	1214.253	912.990
168.979	13.367	1213.604	911.949
169.994	13.357	1212.856	911.252
171.008	13.467	1211.943	911.090
172.023	13.510	1211.586	910.977
173.037	13.469	1210.791	910.071
174.052	13.590	1209.210	909.468
175.067	13.579	1208.191	908.560
176.081	13.587	1207.233	907.804
177.096	13.474	1206.952	906.893
178.110	13.544	1205.283	905.939
179.125	13.496	1204.748	905.197
180.140	13.605	1203.235	904.573
181.154	13.561	1202.118	903.414
182.169	13.592	1200.737	902.467
183.183	13.590	1199.911	901.754
184.198	13.711	1198.390	901.192
185.213	13.656	1197.633	900.240
186.227	13.797	1196.074	899.754
187.242	13.752	1195.142	898.730
188.256	13.777	1194.339	898.185
189.271	13.865	1193.246	897.756
190.286	13.651	1192.444	895.919
191.300	13.585	1191.822	895.014
192.315	13.555	1191.212	894.314
193.329	13.615	1190.443	893.981
194.344	13.555	1189.931	893.194
195.359	13.612	1189.410	893.031
196.373	13.708	1188.792	893.004
197.388	13.746	1188.222	892.705
198.402	13.867	1187.761	892.930
199.417	13.997	1186.664	892.722
200.432	13.892	1186.076	891.636
201.446	14.018	1185.202	891.578
202.461	14.065	1184.316	891.084
203.475	13.969	1183.354	889.770
204.490	14.004	1182.007	888.863
205.504	13.981	1180.462	887.499
206.519	13.986	1179.136	886.451
207.534	13.890	1178.019	885.021
208.548	14.021	1177.670	885.378
209.563	13.893	1177.047	884.151
210.577	13.876	1176.105	883.274
211.592	13.996	1175.502	883.382
212.607	14.244	1173.606	883.197
213.621	14.011	1173.519	881.816
214.636	13.987	1172.385	880.756
215.650	14.157	1171.221	880.706
216.665	14.155	1170.349	879.963
217.680	14.124	1169.666	879.205
218.694	14.182	1169.021	878.952
219.709	14.273	1168.111	878.668
220.723	14.159	1167.612	877.615
221.738	14.227	1166.490	877.054
222.753	14.161	1166.101	876.335
223.767	14.186	1165.353	875.827
224.782	14.198	1164.642	875.277
225.796	14.365	1163.844	875.478
226.811	14.245	1163.486	874.498
227.826	14.316	1162.866	874.331
228.840	14.345	1161.871	873.658
229.855	14.226	1161.668	872.804
230.869	14.222	1160.585	871.890
231.884	14.322	1159.398	871.445
232.899	14.180	1158.975	870.305
233.913	14.199	1158.138	869.701
234.928	14.254	1157.130	869.156
235.942	14.175	1157.167	868.693
236.957	14.229	1156.197	868.172
237.972	14.357	1155.041	867.890
238.986	14.283	1154.733	867.196
240.001	14.387	1153.932	867.060
241.015	14.270	1152.842	865.554
242.030	14.261	1152.351	865.066
243.045	14.391	1151.688	865.166
244.059	14.410	1150.384	864.207
245.074	14.420	1149.722	863.684
246.088	14.422	1149.193	863.220
247.103	14.512	1148.273	862.921
248.117	14.504	1147.643	862.330
249.132	14.611	1146.646	862.056
250.147	14.657	1146.164	861.857
251.161	14.635	1145.614	861.252
252.176	14.677	1145.338	861.184
253.190	14.727	1143.924	860.303
254.205	14.758	1143.426	860.012
255.220	14.839	1142.892	859.949
256.234	14.758	1142.226	858.959
257.249	14.846	1141.496	858.783
258.263	14.954	1140.656	858.633
259.278	14.718	1140.781	857.435
260.293	14.801	1139.903	857.128
261.307	14.925	1139.287	857.224
262.322	14.957	1139.029	857.118
263.336	15.015	1138.068	856.616
264.351	14.974	1137.273	855.734
265.366	15.017	1136.486	855.282
266.380	14.990	1135.896	854.626
267.395	14.988	1135.178	854.001
268.409	14.958	1134.431	853.208
269.424	14.927	1133.831	852.524
270.439	15.014	1133.649	852.757
271.453	14.936	1132.666	851.546
272.468	14.964	1131.469	850.712
273.482	14.956	1130.893	850.164
274.497	14.904	1130.504	849.528
275.512	15.047	1129.387	849.341
276.526	14.990	1129.046	848.720
277.541	14.990	1127.897	847.784
278.555	15.093	1127.284	847.769
279.570	15.151	1126.738	847.575
280.585	15.134	1125.902	846.786
281.599	15.114	1125.309	846.166
282.614	14.995	1124.377	844.786
283.628	15.051	1123.045	843.995
284.643	15.184	1121.631	843.526
285.657	15.247	1121.284	843.508
286.672	15.253	1120.235	842.676
287.687	15.172	1119.482	841.626
288.701	15.314	1118.686	841.666
289.716	15.246	1118.005	840.739
290.730	15.139	1117.819	839.987
291.745	15.217	1116.849	839.577
292.760	15.277	1115.874	839.070
293.774	15.320	1115.369	838.829
294.789	15.419	1114.876	838.880
295.803	15.396	1114.247	838.215
296.818	15.200	1113.886	836.891
297.833	15.273	1113.111	836.601
298.847	15.257	1112.375	835.896
299.862	15.282	1111.562	835.335
300.876	15.274	1110.882	834.711
301.891	15.463	1110.054	834.952
302.906	15.431	1109.277	834.133
303.920	15.539	1108.992	834.385
304.935	15.481	1108.433	833.603
305.949	15.555	1107.594	833.266
306.964	15.540	1106.860	832.563
307.979	15.656	1105.621	832.134
308.993	15.633	1105.356	831.745
310.008	15.582	1104.436	830.725
311.022	15.581	1103.592	830.014
312.037	15.759	1102.667	830.123
313.052	15.744	1101.819	829.337
314.066	15.545	1100.913	827.604
315.081	15.524	1100.458	827.083
316.095	15.450	1099.623	826.020
317.110	15.618	1098.968	826.282
318.125	15.608	1098.208	825.583
319.139	15.631	1097.135	824.819
320.154	15.549	1096.696	824.014
321.168	15.599	1096.060	823.710
322.183	15.505	1095.800	822.979
323.197	15.583	1095.112	822.772
324.212	15.694	1094.574	822.838
325.227	15.723	1093.821	822.339
326.241	15.692	1093.339	821.752
327.256	15.741	1092.140	821.020
328.270	15.556	1091.538	819.592
329.285	15.656	1090.590	819.294
330.300	15.728	1089.786	818.969
331.314	15.732	1088.994	818.320
332.329	15.731	1087.966	817.472
333.343	15.715	1087.178	816.731
334.358	15.792	1086.275	816.353
335.373	15.673	1085.818	815.360
336.387	15.938	1084.632	815.680
337.402	15.843	1084.088	814.739
338.416	15.792	1083.707	814.134
339.431	15.890	1083.143	814.113
340.446	15.965	1082.093	813.612
341.460	16.052	1081.613	813.598
342.475	15.928	1081.064	812.514
343.489	16.042	1080.227	812.366
344.504	16.170	1078.678	811.744
345.519	16.135	1078.285	811.208
346.533	16.150	1077.556	810.660
347.548	16.213	1076.942	810.430
348.562	16.165	1076.200	809.566
349.577	16.085	1075.394	808.509
350.592	16.079	1074.040	807.391
351.606	16.141	1073.465	807.183
352.621	16.142	1073.130	806.866
353.635	16.049	1072.269	805.699
354.650	16.112	1071.682	805.487
355.665	16.139	1071.331	805.281
356.679	16.162	1070.232	804.493
357.694	16.074	1069.910	803.759
358.708	16.269	1069.208	804.095
359.723	16.302	1068.297	803.493
360.738	16.284	1067.972	803.094
361.752	16.270	1067.209	802.382
362.767	16.330	1066.585	802.128
363.781	16.273	1066.189	801.486
364.796	16.275	1065.650	801.022
365.810	16.360	1064.883	800.774
366.825	16.520	1064.137	800.900
367.840	16.443	1064.245	800.547
368.854	16.565	1063.043	800.147
369.869	16.536	1062.255	799.348
370.883	16.439	1061.983	798.614
371.898	16.436	1061.186	797.928
372.913	16.448	1060.427	797.347
373.927	16.404	1060.172	796.877
374.942	16.525	1059.612	796.956
375.956	16.626	1058.998	796.900
376.971	16.577	1058.498	796.219
377.986	16.664	1057.253	795.625
379.000	16.634	1057.186	795.360
380.015	16.741	1056.523	795.296
381.029	16.720	1055.945	794.692
382.044	16.792	1055.228	794.417
383.059	16.821	1054.255	793.749
384.073	16.659	1053.904	792.657
385.088	16.642	1053.073	791.883
386.102	16.770	1051.840	791.482
387.117	16.681	1051.125	790.460
388.132	16.679	1049.975	789.518
389.146	16.714	1049.036	788.904
390.161	16.686	1048.491	788.292
391.175	16.822	1047.683	788.247
392.190	16.657	1047.232	787.070
393.205	16.754	1046.658	787.021
394.219	16.769	1046.178	786.663
395.234	16.768	1044.935	785.654
396.248	16.795	1044.267	785.203
397.263	16.595	1042.890	783.176
398.278	16.673	1042.499	783.173
399.292	16.661	1041.999	782.671
400.307	16.679	1041.307	782.165
401.321	16.853	1040.519	782.309
402.336	16.865	1039.596	781.603
403.350	16.812	1038.895	780.762
404.365	16.807	1038.393	780.290
405.380	16.923	1037.499	780.083
406.394	16.935	1037.036	779.725
407.409	16.958	1036.251	779.168
408.423	17.048	1035.420	778.887
409.438	17.052	1035.005	778.525
410.453	17.132	1034.158	778.185
411.467	17.210	1033.633	778.081
412.482	17.235	1032.836	777.523
413.496	17.247	1032.088	776.946
414.511	17.196	1031.730	776.378
415.526	17.216	1031.181	775.987
416.540	17.258	1031.055	776.015
417.555	17.214	1030.482	775.313
418.569	17.302	1029.766	775.110
419.584	17.185	1029.610	774.390
420.599	17.186	1029.314	774.103
421.613	102.425	1320.015	1463.023
422.628	93.705	1362.341	1463.124
