DTS Sentinel unit serial number:	SN413079Multiplexer serial number:	ORYXHardware model number:	OX4-SRSoftware version number:	ORYX F/W v4.00 Oryx Data Collector v3.7.2.0data status	okinstallation	princeton_trtdifferential loss correction	single-endedforward channel	channel 2reverse channel	N/Adate	2019/09/14time	20:55:35forward acquisition time	60.00reverse acquisition time	0.00gamma	496.2192k internal	0.2323k external	0.2323temperature offset calibration	1.0083default loss term (dB/km)	0.3790temperature slope calibration	1.0000multiplexer offset coefficient	1.0000multiplexer slope coefficient	1.0000fibre end	0.00T internal ref (°C)	33.20T ext. ref 1 (°C)	4.78T ext. ref 2 (°C)	27.93length (m)	temperature (°C)	Stokes	anti-Stokes-747.200	-200.000	0.004	0.036
-746.185	-0.438	0.081	0.058
-745.171	-134.594	-0.208	-0.026
-744.156	-52.880	-0.216	0.100
-743.142	-200.000	0.015	0.365
-742.127	37.452	-0.088	0.079
-741.112	800.000	0.060	0.256
-740.098	-37.701	0.091	-0.049
-739.083	-146.414	0.244	-0.022
-738.069	38.879	-0.185	0.167
-737.054	-102.462	0.159	0.038
-736.039	684.629	-0.059	-0.156
-735.025	-200.000	-0.054	0.356
-734.010	329.042	-0.143	0.278
-732.996	800.000	-0.026	0.100
-731.981	118.315	0.089	-0.111
-730.966	115.567	-0.043	-0.053
-729.952	426.439	-0.056	-0.122
-728.937	-200.000	-0.061	-0.619
-727.923	-200.000	0.009	-0.196
-726.908	366.761	-0.187	0.380
-725.894	53.540	0.017	-0.017
-724.879	-147.062	0.319	-0.028
-723.864	322.175	0.127	-0.244
-722.850	800.000	-0.079	-0.223
-721.835	682.911	0.109	-0.286
-720.821	-161.198	-0.277	-0.015
-719.806	-59.576	0.321	-0.139
-718.791	-29.199	0.075	-0.044
-717.777	201.050	-0.211	-0.327
-716.762	143.509	-0.154	0.207
-715.748	-200.000	-0.037	-0.277
-714.733	123.524	0.114	-0.144
-713.718	-200.000	0.091	0.405
-712.704	147.465	-0.100	-0.136
-711.689	-69.042	0.184	-0.071
-710.675	227.602	-0.174	-0.285
-709.660	-58.879	0.021	0.009
-708.645	112.366	-0.039	-0.047
-707.631	-94.319	-0.207	-0.057
-706.616	-25.394	0.335	0.200
-705.602	-99.205	0.162	-0.041
-704.587	29.329	0.094	0.080
-703.572	-7.452	-0.073	-0.050
-702.558	199.550	0.042	-0.066
-701.543	-36.819	0.319	0.173
-700.529	-126.386	-0.383	-0.058
-699.514	-86.128	0.306	0.095
-698.499	729.637	-0.113	0.305
-697.485	-71.885	-0.451	-0.169
-696.470	800.000	-0.011	-0.046
-695.456	800.000	-0.051	-0.167
-694.441	-4.722	-0.076	-0.053
-693.426	-121.616	0.272	-0.045
-692.412	66.262	-0.223	0.228
-691.397	-40.190	0.100	-0.052
-690.383	-200.000	-0.020	-0.184
-689.368	25.903	0.203	-0.171
-688.354	58.209	0.235	-0.232
-687.339	800.000	-0.034	-0.119
-686.324	-52.687	-0.225	-0.105
-685.310	44.486	0.257	-0.238
-684.295	-24.293	-0.232	-0.140
-683.281	480.424	-0.099	0.225
-682.266	-8.526	-0.043	0.029
-681.251	38.322	-0.140	-0.126
-680.237	-74.902	0.075	0.027
-679.222	800.000	0.047	0.156
-678.208	-78.074	-0.105	-0.036
-677.193	-200.000	0.024	-0.130
-676.178	-63.189	0.211	-0.088
-675.164	-29.431	-0.169	0.097
-674.149	-39.964	0.062	0.033
-673.135	-156.769	-0.091	0.006
-672.120	-28.476	-0.107	0.062
-671.105	183.506	-0.108	-0.161
-670.091	101.429	0.037	-0.044
-669.076	80.652	0.023	-0.025
-668.062	-151.393	-0.414	-0.031
-667.047	45.349	0.150	-0.139
-666.032	-200.000	0.014	0.066
-665.018	61.411	0.182	-0.182
-664.003	131.540	-0.100	0.130
-662.989	1.094	0.248	-0.179
-661.974	441.962	0.167	-0.367
-660.959	106.373	-0.153	-0.182
-659.945	228.682	0.137	0.225
-658.930	-16.867	0.269	0.171
-657.916	-51.042	-0.151	-0.071
-656.901	-145.746	0.301	-0.027
-655.886	-143.586	0.240	0.023
-654.872	-200.000	-0.027	-0.210
-653.857	-68.830	-0.060	-0.023
-652.843	-45.045	0.131	-0.065
-651.828	-112.099	0.298	0.060
-650.814	118.470	0.089	-0.111
-649.799	800.000	0.162	-0.471
-648.784	-150.715	-0.157	-0.012
-647.770	46.406	0.280	-0.261
-646.755	-200.000	0.002	-0.227
-645.741	63.485	0.149	-0.151
-644.726	-155.303	0.401	0.026
-643.711	414.719	-0.045	-0.096
-642.697	-120.403	-0.268	0.046
-641.682	45.672	-0.153	-0.142
-640.668	-200.000	-0.030	-0.153
-639.653	-6.414	-0.131	0.090
-638.638	-103.291	-0.206	-0.049
-637.624	73.365	-0.086	-0.091
-636.609	-87.168	0.245	0.075
-635.595	800.000	-0.029	-0.096
-634.580	658.468	0.040	-0.102
-633.565	245.389	0.206	0.348
-632.551	800.000	0.094	-0.357
-631.536	65.950	0.236	-0.241
-630.522	-76.160	-0.076	-0.027
-629.507	-118.874	-0.145	-0.026
-628.492	32.394	0.112	0.098
-627.478	48.226	0.134	0.126
-626.463	-200.000	-0.086	-0.462
-625.449	225.457	0.141	0.229
-624.434	788.675	-0.112	0.310
-623.419	-200.000	0.226	-0.001
-622.405	-186.984	-0.096	0.001
-621.390	-75.154	-0.064	-0.023
-620.376	800.000	-0.081	-0.326
-619.361	-47.681	0.187	-0.091
-618.346	-200.000	0.014	-0.161
-617.332	247.514	0.125	0.212
-616.317	-20.598	-0.107	0.066
-615.303	-75.039	-0.214	0.077
-614.288	-200.000	-0.011	-0.253
-613.273	-200.000	-0.021	-0.276
-612.259	-200.000	-0.029	0.206
-611.244	-66.464	0.127	0.051
-610.230	-130.705	0.094	-0.013
-609.215	800.000	0.086	0.299
-608.201	-78.083	-0.200	0.069
-607.186	-188.607	-0.108	-0.001
-606.171	-88.996	-0.236	0.070
-605.157	76.093	0.366	-0.389
-604.142	465.499	-0.210	-0.472
-603.128	-54.187	0.116	-0.053
-602.113	94.247	0.136	0.155
-601.098	-1.089	0.207	0.147
-600.084	4.268	0.358	0.263
-599.069	-155.861	0.280	0.018
-598.055	388.353	0.099	0.207
-597.040	-124.580	-0.266	0.042
-596.025	-22.763	-0.128	-0.078
-595.011	-152.695	-0.290	0.021
-593.996	-34.806	-0.192	0.105
-592.982	-17.261	0.125	-0.079
-591.967	-200.000	0.013	-0.210
-590.952	-200.000	-0.010	-0.198
-589.938	-200.000	0.051	-0.355
-588.923	15.082	0.327	0.257
-587.909	71.031	0.085	0.089
-586.894	400.390	-0.190	0.400
-585.879	-142.854	-0.072	-0.007
-584.865	46.801	0.120	-0.112
-583.850	-95.720	0.240	-0.064
-582.836	-48.158	0.214	-0.104
-581.821	-200.000	0.043	-0.298
-580.806	800.000	-0.033	-0.105
-579.792	76.569	0.126	-0.134
-578.777	-200.000	0.002	-0.377
-577.763	24.727	-0.071	0.059
-576.748	-200.000	-0.026	0.117
-575.733	800.000	0.043	-0.183
-574.719	800.000	0.006	0.020
-573.704	-77.589	-0.408	0.142
-572.690	12.423	-0.194	0.150
-571.675	312.242	-0.098	0.185
-570.661	362.160	0.140	0.282
-569.646	-60.804	0.291	-0.124
-568.631	-200.000	-0.017	-0.100
-567.617	-14.317	-0.190	0.122
-566.602	-200.000	0.025	0.176
-565.588	-97.897	0.340	0.088
-564.573	11.497	-0.238	0.183
-563.558	47.361	-0.285	-0.266
-562.544	-37.711	0.132	-0.071
-561.529	-123.097	0.246	0.040
-560.515	800.000	-0.044	0.159
-559.500	-97.132	0.153	0.040
-558.485	137.974	-0.095	0.125
-557.471	-162.849	0.194	-0.009
-556.456	-200.000	-0.010	-0.273
-555.442	-39.483	-0.193	-0.101
-554.427	-200.000	-0.005	-0.189
-553.412	-90.448	0.379	-0.110
-552.398	-23.166	-0.290	0.175
-551.383	360.240	0.104	-0.209
-550.369	2.202	0.031	-0.022
-549.354	-200.000	-0.005	-0.241
-548.339	1.758	-0.125	0.090
-547.325	261.834	0.146	0.253
-546.310	-110.690	-0.237	0.049
-545.296	800.000	0.011	0.032
-544.281	-119.033	0.316	-0.055
-543.266	251.678	-0.063	-0.108
-542.252	-200.000	-0.039	-0.446
-541.237	336.612	0.097	0.189
-540.223	-200.000	0.010	0.082
-539.208	710.556	0.110	0.292
-538.193	169.846	-0.133	-0.190
-537.179	-39.666	0.197	0.103
-536.164	50.430	0.074	0.070
-535.150	432.043	0.044	0.095
-534.135	94.516	-0.100	-0.114
-533.121	303.371	0.112	-0.207
-532.106	-124.816	-0.140	0.022
-531.091	30.921	-0.218	-0.187
-530.077	224.512	0.146	0.236
-529.062	-32.912	-0.438	0.243
-528.048	-141.765	-0.281	-0.028
-527.033	-2.296	-0.164	0.115
-526.018	-82.728	0.230	0.075
-525.004	-200.000	-0.061	0.401
-523.989	121.983	-0.207	0.259
-522.975	438.857	-0.189	-0.412
-521.960	-83.933	-0.093	0.030
-520.945	-83.562	0.154	0.049
-519.931	281.306	0.076	-0.136
-518.916	-54.446	0.067	0.030
-517.902	-175.830	-0.194	-0.005
-516.887	272.642	-0.152	-0.268
-515.872	76.213	0.108	0.114
-514.858	92.496	-0.040	0.045
-513.843	-101.569	0.106	-0.026
-512.829	7.370	-0.193	-0.144
-511.814	-92.123	-0.278	-0.079
-510.799	77.838	-0.220	0.235
-509.785	27.087	0.238	0.200
-508.770	-55.930	0.266	-0.119
-507.756	-200.000	0.044	-0.230
-506.741	64.307	-0.170	0.171
-505.726	800.000	0.041	-0.134
-504.712	-200.000	0.003	0.071
-503.697	800.000	0.024	-0.087
-502.683	296.948	-0.027	-0.049
-501.668	-126.873	0.431	-0.063
-500.653	140.549	-0.027	-0.036
-499.639	-76.403	-0.134	0.047
-498.624	148.911	-0.238	0.322
-497.610	-200.000	-0.009	0.086
-496.595	-200.000	-0.095	-0.418
-495.581	-30.277	0.080	-0.046
-494.566	-119.997	-0.200	-0.034
-493.551	284.758	0.077	0.138
-492.537	414.116	-0.074	0.158
-491.522	-59.785	-0.231	-0.099
-490.508	-103.421	0.239	-0.056
-489.493	94.937	-0.146	0.166
-488.478	-43.952	0.199	-0.100
-487.464	800.000	0.048	0.188
-486.449	67.263	-0.103	0.105
-485.435	800.000	0.014	0.055
-484.420	800.000	0.066	0.280
-483.405	429.814	0.085	0.184
-482.391	-45.094	-0.168	0.083
-481.376	-145.667	-0.709	0.063
-480.362	626.293	0.108	0.273
-479.347	471.910	-0.104	0.233
-478.332	7.570	-0.064	0.048
-477.318	694.245	-0.082	0.216
-476.303	81.905	0.141	0.152
-475.289	-57.797	0.263	-0.115
-474.274	-57.379	-0.094	0.041
-473.259	-148.442	-0.087	-0.007
-472.245	208.111	0.229	0.357
-471.230	800.000	0.101	0.293
-470.216	339.875	-0.059	-0.115
-469.201	-200.000	-0.013	0.336
-468.186	-129.498	0.565	-0.078
-467.172	0.277	0.172	0.122
-466.157	-49.284	0.200	0.095
-465.143	179.525	-0.261	0.382
-464.128	486.918	-0.046	-0.104
-463.113	-4.260	0.118	0.082
-462.099	82.424	0.120	0.130
-461.084	800.000	0.074	0.302
-460.070	123.144	-0.191	-0.239
-459.055	-114.214	-0.266	-0.051
-458.040	-161.324	0.263	0.014
-457.026	800.000	-0.120	-0.445
-456.011	800.000	0.074	0.234
-454.997	-200.000	0.005	0.066
-453.982	-80.079	0.036	0.012
-452.968	-31.987	0.325	0.182
-451.953	-7.856	-0.119	-0.080
-450.938	-97.420	0.361	0.094
-449.924	-23.010	-0.180	-0.108
-448.909	-82.734	0.246	0.079
-447.895	143.795	-0.122	-0.163
-446.880	-40.776	-0.076	0.039
-445.865	351.180	-0.063	-0.125
-444.851	800.000	-0.022	-0.079
-443.836	129.399	0.152	0.193
-442.822	-200.000	0.020	0.205
-441.807	9.126	-0.216	0.163
-440.792	164.492	-0.231	0.325
-439.778	131.203	-0.106	-0.136
-438.763	800.000	0.110	0.331
-437.749	-200.000	-0.338	-0.001
-436.734	800.000	0.091	-0.348
-435.719	-148.595	0.102	-0.008
-434.705	-200.000	0.002	0.023
-433.690	-101.908	0.354	0.085
-432.676	-56.851	0.093	0.041
-431.661	-200.000	-0.007	-0.041
-430.646	-200.000	0.010	-0.055
-429.632	344.794	0.158	0.309
-428.617	214.101	-0.025	-0.039
-427.603	-131.431	-0.243	-0.032
-426.588	800.000	-0.034	-0.121
-425.573	139.287	0.097	0.127
-424.559	-200.000	-0.003	-0.121
-423.544	-23.384	-0.242	-0.145
-422.530	-200.000	0.031	-0.138
-421.515	800.000	0.015	-0.052
-420.500	800.000	0.060	-0.186
-419.486	225.784	-0.107	-0.173
-418.471	62.805	-0.212	-0.211
-417.457	-27.267	-0.294	-0.171
-416.442	-160.228	-0.404	0.022
-415.428	-168.681	0.306	-0.012
-414.413	82.382	0.162	0.175
-413.398	-41.765	-0.197	-0.101
-412.384	-132.592	-0.148	-0.019
-411.369	227.660	0.069	0.112
-410.355	-141.544	0.367	-0.037
-409.340	-77.354	0.242	0.084
-408.325	-137.949	0.276	0.031
-407.311	-200.000	-0.019	0.160
-406.296	-101.175	-0.118	0.029
-405.282	-30.156	-0.311	0.176
-404.267	-188.214	0.234	0.003
-403.252	-4.644	0.097	-0.067
-402.238	351.566	0.094	-0.185
-401.223	11.800	0.064	0.049
-400.209	90.920	0.114	0.128
-399.194	203.566	-0.079	-0.121
-398.179	-77.218	-0.100	0.035
-397.165	-172.149	-0.504	0.016
-396.150	105.677	-0.096	0.113
-395.136	-32.976	-0.139	0.077
-394.121	-107.007	0.500	0.110
-393.106	53.195	0.290	-0.277
-392.092	-200.000	0.049	-0.252
-391.077	-49.008	0.189	0.090
-390.063	-69.118	0.095	0.036
-389.048	800.000	0.057	-0.234
-388.033	-134.328	-0.088	0.011
-387.019	17.601	-0.272	0.215
-386.004	725.789	-0.093	0.246
-384.990	-78.901	-0.126	-0.043
-383.975	7.967	-0.157	-0.117
-382.960	-200.000	0.058	-0.302
-381.946	800.000	-0.094	-0.291
-380.931	-200.000	-0.029	0.181
-379.917	-50.769	0.227	-0.106
-378.902	-90.442	-0.337	0.097
-377.888	217.281	0.095	0.151
-376.873	262.772	0.048	-0.082
-375.858	75.554	0.239	0.251
-374.844	-29.370	0.119	-0.068
-373.829	-38.632	-0.169	0.089
-372.815	-96.533	0.250	-0.066
-371.800	595.848	0.101	-0.250
-370.785	206.597	-0.123	-0.191
-369.771	-71.976	0.309	-0.114
-368.756	390.935	0.078	0.161
-367.742	96.003	0.122	-0.139
-366.727	0.870	0.051	0.036
-365.712	-115.431	-0.168	-0.031
-364.698	-99.438	-0.398	-0.100
-363.683	-200.000	-0.002	0.201
-362.669	-200.000	-0.022	0.421
-361.654	602.740	0.184	0.455
-360.639	-23.523	0.016	0.010
-359.625	211.247	-0.099	0.154
-358.610	103.959	-0.160	0.187
-357.596	569.281	0.119	-0.287
-356.581	-62.063	0.249	-0.103
-355.566	-200.000	0.028	0.167
-354.552	82.892	-0.190	0.206
-353.537	102.296	-0.134	0.156
-352.523	800.000	0.043	-0.163
-351.508	-200.000	0.022	-0.097
-350.493	-200.000	0.042	-0.304
-349.479	-16.498	-0.362	-0.228
-348.464	-15.720	-0.267	-0.169
-347.450	-117.643	-0.012	0.002
-346.435	468.465	0.100	0.224
-345.420	-200.000	0.014	-0.199
-344.406	-75.384	0.332	-0.118
-343.391	-136.932	0.190	-0.022
-342.377	-102.808	0.209	-0.049
-341.362	-25.136	-0.293	0.172
-340.348	-59.789	0.148	0.063
-339.333	82.698	0.260	0.281
-338.318	-97.091	-0.341	-0.089
-337.304	-105.954	-0.478	-0.107
-336.289	126.468	-0.118	-0.149
-335.275	653.788	0.068	-0.173
-334.260	680.416	-0.078	0.202
-333.245	11.388	-0.295	0.225
-332.231	304.221	0.026	-0.048
-331.216	-200.000	-0.058	-0.288
-330.202	107.633	0.166	0.197
-329.187	262.288	0.297	0.512
-328.172	230.209	-0.152	0.247
-327.158	-167.003	-0.325	-0.013
-326.143	-57.563	-0.322	0.140
-325.129	-0.975	-0.160	-0.113
-324.114	-99.434	0.220	0.055
-323.099	309.831	0.193	-0.358
-322.085	-51.907	-0.128	0.059
-321.070	800.000	0.069	0.266
-320.056	51.131	-0.019	0.018
-319.041	253.009	0.133	-0.225
-318.026	800.000	-0.039	0.135
-317.012	608.549	0.128	-0.317
-315.997	-200.000	-0.004	-0.080
-314.983	-78.958	-0.174	0.059
-313.968	86.360	-0.102	0.111
-312.953	118.703	0.146	0.179
-311.939	800.000	0.047	0.195
-310.924	265.636	0.061	0.106
-309.910	-106.875	0.105	0.023
-308.895	-22.810	-0.065	-0.039
-307.880	50.426	0.171	0.161
-306.866	125.652	-0.108	0.136
-305.851	124.285	-0.157	-0.196
-304.837	-65.274	0.092	-0.037
-303.822	737.080	-0.066	-0.175
-302.807	-107.502	0.109	0.024
-301.793	-200.000	-0.003	-0.157
-300.778	53.203	-0.125	0.119
-299.764	-55.048	0.411	-0.184
-298.749	-200.000	0.080	-0.490
-297.735	-200.000	-0.020	-0.329
-296.720	-110.862	0.152	0.031
-295.705	233.476	0.174	0.284
-294.691	-140.020	0.042	0.004
-293.676	-145.436	-0.073	-0.007
-292.662	-37.688	0.082	-0.043
-291.647	171.985	0.200	-0.285
-290.632	-200.000	0.009	-0.103
-289.618	426.173	0.210	0.448
-288.603	126.308	-0.090	-0.113
-287.589	-200.000	0.053	-0.464
-286.574	293.689	-0.033	-0.060
-285.559	694.067	-0.130	0.339
-284.545	-83.013	-0.328	0.105
-283.530	-145.571	0.157	0.014
-282.516	800.000	-0.039	0.146
-281.501	-200.000	0.098	-0.000
-280.486	304.729	-0.028	0.052
-279.472	59.373	-0.060	0.059
-278.457	160.055	-0.176	0.243
-277.443	446.931	0.117	0.256
-276.428	189.601	0.087	-0.130
-275.413	62.708	0.102	0.101
-274.399	-200.000	0.027	-0.208
-273.384	544.236	0.086	0.204
-272.370	-133.855	0.321	-0.040
-271.355	800.000	0.044	0.171
-270.340	90.236	-0.175	-0.194
-269.326	9.016	0.125	0.093
-268.311	-98.085	-0.181	0.046
-267.297	800.000	-0.132	0.368
-266.282	-0.731	-0.356	-0.250
-265.267	-129.625	0.184	0.025
-264.253	-53.481	-0.158	-0.071
-263.238	53.213	-0.092	0.087
-262.224	-99.725	-0.032	-0.008
-261.209	800.000	-0.052	-0.224
-260.195	41.051	0.119	-0.107
-259.180	-200.000	-0.043	0.255
-258.165	250.213	0.238	0.401
-257.151	800.000	-0.059	-0.235
-256.136	-60.705	-0.286	0.120
-255.122	19.233	-0.021	0.016
-254.107	-200.000	0.042	-0.309
-253.092	309.455	-0.103	-0.190
-252.078	-6.181	-0.090	-0.061
-251.063	521.770	-0.107	-0.248
-250.049	800.000	0.073	-0.314
-249.034	10.188	0.148	-0.111
-248.019	47.088	0.090	-0.083
-247.005	-130.196	0.418	0.056
-245.990	-200.000	0.014	0.120
-244.976	800.000	0.024	-0.066
-243.961	800.000	0.119	-0.434
-242.946	-21.788	-0.268	0.161
-241.932	-200.000	-0.032	0.198
-240.917	55.315	0.309	0.296
-239.903	-51.257	-0.062	-0.029
-238.888	27.766	-0.211	-0.176
-237.873	-200.000	0.044	-0.279
-236.859	-200.000	-0.059	0.292
-235.844	523.407	0.049	0.114
-234.830	800.000	0.054	-0.165
-233.815	117.573	-0.108	-0.131
-232.800	-32.973	-0.130	0.071
-231.786	-141.576	-0.178	0.018
-230.771	800.000	-0.035	-0.103
-229.757	39.471	0.328	-0.291
-228.742	-107.539	0.132	-0.029
-227.727	-93.151	0.358	-0.098
-226.713	-30.142	0.192	0.108
-225.698	-76.046	-0.070	0.025
-224.684	43.309	0.128	0.116
-223.669	-200.000	0.000	-0.161
-222.655	379.784	0.088	-0.179
-221.640	800.000	0.057	-0.187
-220.625	-200.000	0.007	-0.120
-219.611	-200.000	-0.056	0.356
-218.596	-14.930	0.187	-0.118
-217.582	179.766	-0.143	-0.207
-216.567	93.591	-0.127	-0.142
-215.552	189.285	0.211	-0.313
-214.538	800.000	-0.137	-0.454
-213.523	21.626	-0.045	0.036
-212.509	190.936	-0.186	-0.277
-211.494	-36.870	-0.279	0.148
-210.479	673.594	-0.027	-0.069
-209.465	432.921	0.143	0.307
-208.450	-52.271	-0.205	-0.094
-207.436	-91.041	-0.540	-0.153
-206.421	-124.069	0.348	-0.054
-205.406	622.692	0.064	0.159
-204.392	193.003	-0.222	0.332
-203.377	-60.691	0.333	-0.139
-202.363	124.716	0.056	0.070
-201.348	287.892	0.138	0.248
-200.333	-57.805	0.180	-0.078
-199.319	168.527	-0.123	0.173
-198.304	-78.688	0.326	-0.110
-197.290	110.614	-0.183	0.217
-196.275	89.777	-0.291	0.322
-195.260	800.000	-0.017	0.059
-194.246	115.890	-0.066	0.079
-193.231	-132.658	-0.176	-0.022
-192.217	455.715	-0.040	-0.087
-191.202	-200.000	-0.034	-0.166
-190.187	-73.014	0.250	-0.091
-189.173	-135.384	-0.126	0.015
-188.158	222.119	-0.055	-0.087
-187.144	-112.702	-0.282	-0.055
-186.129	-119.506	-0.177	0.030
-185.114	-37.299	-0.080	0.042
-184.100	800.000	0.059	-0.166
-183.085	-97.642	-0.166	-0.043
-182.071	11.535	0.205	0.155
-181.056	168.689	-0.208	-0.292
-180.042	66.265	-0.217	-0.218
-179.027	-200.000	-0.013	0.102
-178.012	-161.248	-0.153	-0.008
-176.998	-77.598	0.221	-0.076
-175.983	171.750	-0.159	0.225
-174.969	39.103	-0.165	-0.145
-173.954	148.641	0.088	-0.118
-172.939	652.153	0.061	0.153
-171.925	67.170	0.114	-0.115
-170.910	-200.000	-0.040	0.221
-169.896	-200.000	-0.030	0.157
-168.881	564.097	0.041	0.098
-167.866	-94.059	0.183	-0.050
-166.852	-200.000	-0.006	0.097
-165.837	-38.908	-0.106	-0.055
-164.823	67.322	-0.419	0.422
-163.808	-21.506	0.153	-0.092
-162.793	437.507	-0.058	-0.124
-161.779	800.000	-0.067	0.219
-160.764	115.119	0.059	0.071
-159.750	-141.966	0.012	0.001
-158.735	-200.000	0.014	-0.177
-157.720	-151.867	-0.234	0.017
-156.706	-89.949	-0.189	0.054
-155.691	-94.718	-0.195	-0.052
-154.677	-200.000	0.008	-0.244
-153.662	-200.000	0.046	0.378
-152.647	131.347	0.286	-0.362
-151.633	15.794	0.177	0.137
-150.618	-40.814	-0.030	0.015
-149.604	532.238	0.060	-0.139
-148.589	-200.000	-0.056	-0.407
-147.574	92.800	0.083	0.093
-146.560	800.000	-0.134	-0.461
-145.545	53.733	-0.060	-0.057
-144.531	-18.892	-0.162	-0.100
-143.516	800.000	0.059	-0.231
-142.502	-200.000	-0.007	-0.213
-141.487	-78.912	0.060	0.020
-140.472	108.918	-0.162	0.192
-139.458	76.145	0.149	0.156
-138.443	-10.520	0.232	0.152
-137.429	435.350	0.119	-0.255
-136.414	-108.248	0.143	0.030
-135.399	-200.000	-0.001	-0.058
-134.385	-145.007	0.327	-0.029
-133.370	800.000	-0.042	0.130
-132.356	322.214	0.180	-0.338
-131.341	-92.646	0.048	0.013
-130.326	800.000	-0.136	-0.510
-129.312	800.000	0.123	-0.412
-128.297	-109.499	-0.074	-0.015
-127.283	125.971	-0.092	-0.115
-126.268	-200.000	-0.015	-0.146
-125.253	237.694	-0.077	0.127
-124.239	137.277	-0.266	0.343
-123.224	315.118	-0.078	-0.144
-122.210	241.360	0.096	-0.157
-121.195	-13.188	0.304	-0.195
-120.180	-54.003	-0.281	0.126
-119.166	199.565	-0.111	-0.168
-118.151	-108.466	-0.412	0.087
-117.137	628.356	0.226	0.564
-116.122	-200.000	0.033	-0.252
-115.107	-200.000	0.013	-0.334
-114.093	800.000	-0.030	-0.087
-113.078	-200.000	0.042	0.269
-112.064	172.666	0.349	0.494
-111.049	-26.661	-0.226	-0.131
-110.034	-12.193	0.036	-0.023
-109.020	-47.330	0.140	-0.067
-108.005	-46.256	-0.247	0.120
-106.991	132.210	0.143	-0.181
-105.976	-119.081	0.185	0.032
-104.962	-72.850	0.221	0.080
-103.947	37.438	0.314	0.275
-102.932	800.000	0.034	0.101
-101.918	-58.707	0.312	-0.133
-100.903	7.839	0.171	0.126
-99.889	-200.000	0.001	0.066
-98.874	-54.783	0.094	0.042
-97.859	35.264	0.400	0.345
-96.845	800.000	-0.099	0.374
-95.830	-13.128	0.303	-0.194
-94.816	-95.440	-0.306	0.081
-93.801	110.181	0.070	-0.082
-92.786	-200.000	0.022	-0.151
-91.772	149.012	-0.113	-0.151
-90.757	-110.248	-0.158	-0.032
-89.743	-157.137	-0.441	-0.026
-88.728	-28.259	-0.114	0.065
-87.713	-103.858	-0.049	-0.011
-86.699	-104.292	0.054	-0.012
-85.684	-77.040	-0.070	0.024
-84.670	173.411	0.028	0.040
-83.655	439.955	0.033	0.070
-82.640	29.489	0.408	0.341
-81.626	-200.000	0.034	0.492
-80.611	429.697	0.338	-0.719
-79.597	-130.364	-0.114	0.015
-78.582	-66.653	0.380	0.148
-77.567	59.120	-0.092	0.089
-76.553	90.923	0.065	0.072
-75.538	-200.000	-0.013	-0.344
-74.524	-86.015	0.227	-0.069
-73.509	-32.829	-0.426	0.233
-72.494	-108.276	-0.182	-0.039
-71.480	193.877	0.182	0.271
-70.465	-64.813	0.519	0.207
-69.451	301.885	0.032	-0.058
-68.436	753.012	-0.043	0.114
-67.422	16.782	0.074	0.058
-66.407	-111.246	-0.180	0.036
-65.392	72.882	0.184	-0.188
-64.378	642.084	-0.035	0.089
-63.363	-114.737	-0.220	0.041
-62.349	216.754	0.278	0.434
-61.334	192.265	-0.610	-0.905
-60.319	35.836	0.393	0.340
-59.305	-200.000	-0.098	-0.877
-58.290	78.225	0.984	1.033
-57.276	754.735	0.480	1.277
-56.261	-200.000	95.049	567.579
-55.246	638.631	1381.708	3453.772
-54.232	195.974	2567.615	3840.330
-53.217	112.691	2273.695	2706.431
-52.203	42.521	1897.270	1696.766
-51.188	36.511	1687.872	1464.083
-50.173	33.750	1643.154	1404.833
-49.159	51.363	1688.939	1576.358
-48.144	53.000	1705.940	1604.436
-47.130	36.162	1665.433	1441.781
-46.115	33.315	1651.897	1408.846
-45.100	33.098	1646.702	1402.756
-44.086	33.112	1643.737	1400.271
-43.071	33.125	1641.516	1398.423
-42.057	33.107	1638.961	1396.055
-41.042	33.042	1637.089	1393.928
-40.027	33.073	1634.927	1392.261
-39.013	32.986	1633.246	1390.134
-37.998	33.058	1632.070	1389.606
-36.984	33.148	1630.324	1388.728
-35.969	33.182	1629.077	1387.858
-34.954	33.263	1627.207	1386.804
-33.940	33.188	1625.691	1384.908
-32.925	33.156	1624.072	1383.242
-31.911	33.165	1622.266	1381.713
-30.896	33.197	1620.063	1380.019
-29.881	33.147	1618.809	1378.524
-28.867	33.215	1616.891	1377.336
-27.852	33.260	1615.475	1376.405
-26.838	33.173	1614.375	1374.777
-25.823	33.233	1612.717	1373.745
-24.809	33.182	1611.531	1372.314
-23.794	33.202	1609.639	1370.788
-22.779	33.430	1607.567	1370.625
-21.765	33.227	1606.560	1368.239
-20.750	33.211	1604.590	1366.392
-19.736	33.157	1604.148	1365.576
-18.721	33.344	1601.781	1364.850
-17.706	33.303	1600.166	1363.123
-16.692	33.183	1599.169	1361.356
-15.677	33.245	1597.324	1360.182
-14.663	33.240	1596.769	1359.618
-13.648	33.136	1595.304	1357.568
-12.633	33.185	1593.627	1356.438
-11.619	33.211	1591.915	1355.112
-10.604	33.141	1590.916	1353.707
-9.590	33.264	1588.823	1352.753
-8.575	33.305	1587.812	1352.131
-7.560	33.327	1586.322	1350.967
-6.546	33.244	1585.219	1349.381
-5.531	33.245	1584.299	1348.554
-4.517	33.212	1583.318	1347.433
-3.502	33.171	1582.206	1346.137
-2.487	33.263	1580.233	1345.060
-1.473	32.949	1568.873	1333.124
-0.458	30.190	1548.902	1296.839
0.556	26.726	1548.592	1263.747
1.571	24.191	1572.491	1265.160
2.586	23.586	1585.048	1270.817
3.600	20.807	1531.914	1208.843
4.615	12.763	1423.439	1071.050
5.629	5.909	1359.864	980.429
6.644	4.876	1352.447	968.577
7.659	4.781	1350.812	966.728
8.673	4.665	1349.909	965.278
9.688	4.807	1347.933	964.660
10.702	4.710	1345.136	961.972
11.717	7.734	1351.234	985.005
12.731	15.392	1364.775	1042.540
13.746	20.154	1371.539	1077.276
14.761	19.758	1369.646	1073.235
15.775	18.693	1367.227	1064.647
16.790	17.672	1364.734	1056.283
17.804	16.867	1362.202	1049.252
18.819	16.503	1360.866	1045.877
19.834	16.136	1360.223	1043.021
20.848	16.054	1358.690	1041.249
21.863	15.743	1357.462	1038.298
22.877	15.594	1356.421	1036.491
23.892	15.562	1355.262	1035.315
24.907	15.597	1354.542	1034.887
25.921	15.576	1353.659	1033.995
26.936	15.520	1352.954	1033.018
27.950	15.577	1351.849	1032.432
28.965	15.690	1351.258	1032.585
29.980	15.840	1349.381	1031.977
30.994	15.878	1348.437	1031.397
32.009	15.882	1347.665	1030.741
33.023	15.963	1345.889	1029.784
34.038	15.933	1344.756	1028.644
35.053	15.660	1344.088	1026.376
36.067	15.776	1342.820	1026.025
37.082	15.713	1341.683	1024.680
38.096	15.864	1340.808	1024.841
39.111	15.788	1340.264	1023.874
40.126	15.669	1339.314	1022.334
41.140	15.471	1338.856	1020.687
42.155	15.479	1337.588	1019.684
43.169	15.408	1337.512	1019.100
44.184	15.468	1337.394	1019.286
45.199	15.484	1336.811	1018.845
46.213	15.471	1336.602	1018.517
47.228	15.630	1335.241	1018.359
48.242	15.682	1334.214	1017.799
49.257	15.684	1332.891	1016.714
50.271	15.718	1331.181	1015.522
51.286	15.735	1329.785	1014.467
52.301	15.842	1328.541	1014.076
53.315	15.624	1327.476	1011.862
54.330	15.550	1326.849	1010.845
55.344	15.569	1325.137	1009.567
56.359	15.527	1324.389	1008.654
57.374	15.567	1323.536	1008.155
58.388	15.443	1322.766	1006.736
59.403	15.452	1322.450	1006.461
60.417	15.521	1321.584	1006.128
61.432	15.450	1320.767	1004.992
62.447	15.421	1319.893	1004.062
63.461	15.346	1318.297	1002.313
64.476	15.303	1317.724	1001.533
65.490	15.307	1316.171	1000.288
66.505	15.327	1314.709	999.209
67.520	15.391	1313.404	998.510
68.534	15.391	1312.666	997.856
69.549	15.402	1311.167	996.694
70.563	15.346	1310.454	995.732
71.578	15.378	1309.066	994.782
72.593	15.230	1308.502	993.388
73.607	15.201	1307.742	992.547
74.622	15.096	1307.365	991.551
75.636	15.231	1306.680	991.746
76.651	15.388	1305.688	991.835
77.666	15.261	1305.089	990.537
78.680	15.316	1304.799	990.559
79.695	15.259	1303.945	989.484
80.709	15.338	1303.574	989.580
81.724	15.427	1302.276	989.032
82.739	15.559	1301.692	989.282
83.753	15.652	1300.781	989.046
84.768	15.757	1299.605	988.684
85.782	15.777	1298.584	987.934
86.797	15.691	1297.634	986.620
87.812	15.724	1296.090	985.552
88.826	15.602	1295.338	984.182
89.841	15.737	1294.065	983.913
90.855	15.744	1293.127	983.156
91.870	15.805	1292.156	982.684
92.884	15.809	1291.743	982.311
93.899	15.750	1290.951	981.275
94.914	15.817	1290.193	981.005
95.928	15.746	1289.380	979.886
96.943	15.676	1288.585	978.788
97.957	15.827	1286.970	978.348
98.972	15.764	1286.237	977.340
99.987	15.778	1285.080	976.458
101.001	15.711	1284.191	975.306
102.016	15.794	1283.451	975.139
103.030	15.748	1282.687	974.205
104.045	15.693	1281.870	973.180
105.060	15.736	1280.040	971.951
106.074	15.618	1278.986	970.384
107.089	15.472	1277.334	968.208
108.103	15.448	1276.089	967.039
109.118	15.419	1275.044	965.992
110.133	15.400	1273.705	964.786
111.147	15.426	1271.831	963.430
112.162	15.548	1270.851	963.303
113.176	15.490	1270.071	962.291
114.191	15.567	1268.906	961.766
115.206	15.577	1267.672	960.801
116.220	15.437	1266.578	959.087
117.235	15.503	1265.433	958.512
118.249	15.509	1264.310	957.610
119.264	15.482	1263.410	956.688
120.279	15.478	1262.062	955.564
121.293	15.427	1261.209	954.542
122.308	15.358	1260.412	953.461
123.322	15.322	1259.186	952.246
124.337	15.323	1258.138	951.374
125.352	15.454	1256.374	950.701
126.366	15.388	1255.349	949.463
127.381	15.376	1254.288	948.512
128.395	15.327	1253.757	947.752
129.410	15.387	1252.866	947.329
130.424	15.386	1252.293	946.807
131.439	15.481	1251.148	946.392
132.454	15.513	1250.044	945.655
133.468	15.455	1249.599	944.908
134.483	15.552	1248.477	944.525
135.497	15.602	1247.638	944.084
136.512	15.542	1246.559	942.845
137.527	15.545	1245.028	941.624
138.541	15.534	1243.544	940.357
139.556	15.599	1242.151	939.580
140.570	15.697	1241.870	939.833
141.585	15.687	1240.573	938.712
142.600	15.774	1239.431	938.252
143.614	15.808	1238.557	937.697
144.629	15.846	1237.229	936.821
145.643	15.744	1236.420	935.557
146.658	15.812	1234.469	934.376
147.673	15.662	1233.682	932.866
148.687	15.665	1232.269	931.732
149.702	15.664	1230.440	930.259
150.716	15.566	1229.697	929.072
151.731	15.439	1229.205	927.916
152.746	15.523	1228.048	927.428
153.760	15.684	1226.329	926.934
154.775	15.722	1225.629	926.535
155.789	15.805	1224.289	925.894
156.804	15.760	1223.662	925.091
157.819	15.887	1222.487	924.818
158.833	15.967	1221.364	924.328
159.848	16.068	1220.672	924.274
160.862	15.888	1219.899	922.624
161.877	15.908	1218.202	921.368
162.892	15.723	1217.355	919.633
163.906	15.748	1216.721	919.209
164.921	15.592	1215.731	917.527
165.935	15.768	1214.642	917.583
166.950	15.859	1213.863	917.410
167.964	15.823	1213.373	916.762
168.979	15.861	1212.760	916.426
169.994	15.857	1212.058	915.794
171.008	15.958	1210.915	915.393
172.023	15.877	1210.720	914.730
173.037	15.968	1209.920	914.537
174.052	16.002	1208.789	913.784
175.067	15.889	1207.867	912.394
176.081	15.852	1206.467	911.056
177.096	15.841	1205.591	910.255
178.110	15.823	1204.949	909.590
179.125	15.783	1203.834	908.453
180.140	15.969	1202.642	908.476
181.154	16.000	1201.407	907.629
182.169	16.000	1200.223	906.655
183.183	16.027	1198.930	905.745
184.198	16.117	1197.709	905.224
185.213	16.140	1196.622	904.447
186.227	16.132	1195.962	903.827
187.242	16.160	1195.201	903.320
188.256	16.224	1194.027	902.696
189.271	16.206	1193.520	902.136
190.286	16.101	1192.240	900.528
191.300	15.924	1191.058	898.612
192.315	15.784	1190.286	897.201
193.329	15.773	1190.096	896.922
194.344	15.904	1189.292	896.933
195.359	15.919	1188.896	896.635
196.373	16.120	1188.176	897.083
197.388	16.190	1187.526	896.883
198.402	16.292	1187.196	897.100
199.417	16.435	1186.620	897.344
200.432	16.338	1186.067	896.331
201.446	16.406	1185.428	896.128
202.461	16.522	1184.305	895.814
203.475	16.519	1183.220	894.899
204.490	16.303	1182.626	893.230
205.504	16.366	1180.631	891.976
206.519	16.318	1179.584	890.854
207.534	16.308	1178.561	889.948
208.548	16.321	1177.560	889.182
209.563	16.306	1176.783	888.434
210.577	16.287	1176.210	887.825
211.592	16.379	1175.256	887.512
212.607	16.527	1174.290	887.477
213.621	16.482	1173.261	886.387
214.636	16.489	1172.205	885.550
215.650	16.506	1171.635	885.128
216.665	16.500	1171.168	884.664
217.680	16.538	1170.139	884.008
218.694	16.522	1169.172	883.117
219.709	16.627	1168.183	882.839
220.723	16.687	1167.676	882.690
221.738	16.538	1166.927	881.269
222.753	16.619	1166.224	881.081
223.767	16.674	1165.341	880.624
224.782	16.629	1165.052	880.095
225.796	16.786	1164.530	880.440
226.811	16.693	1163.641	879.204
227.826	16.675	1162.802	878.397
228.840	16.708	1161.637	877.613
229.855	16.629	1161.498	877.019
230.869	16.579	1160.960	876.277
231.884	16.658	1159.711	875.663
232.899	16.643	1158.642	874.703
233.913	16.630	1158.116	874.160
234.928	16.507	1157.752	873.176
235.942	16.439	1156.871	872.084
236.957	16.561	1155.858	871.872
237.972	16.535	1154.732	870.811
238.986	16.584	1154.312	870.670
240.001	16.511	1154.306	870.209
241.015	16.571	1152.518	869.096
242.030	16.545	1151.976	868.473
243.045	16.755	1151.319	868.978
244.059	16.709	1150.749	868.235
245.074	16.776	1149.604	867.638
246.088	16.808	1149.104	867.349
247.103	16.899	1148.437	867.235
248.117	16.964	1147.067	866.458
249.132	17.007	1147.140	866.654
250.147	17.045	1146.635	866.389
251.161	17.222	1145.455	866.322
252.176	17.182	1145.132	865.800
253.190	17.306	1143.913	865.434
254.205	17.347	1143.545	865.287
255.220	17.287	1143.168	864.620
256.234	17.180	1143.094	863.943
257.249	17.369	1141.738	863.800
258.263	17.309	1141.325	863.106
259.278	17.281	1140.891	862.558
260.293	17.357	1139.784	862.030
261.307	17.382	1139.329	861.741
262.322	17.311	1139.151	861.167
263.336	17.296	1138.435	860.473
264.351	17.403	1137.375	860.141
265.366	17.458	1136.922	859.999
266.380	17.436	1136.037	859.143
267.395	17.407	1135.361	858.407
268.409	17.417	1134.472	857.711
269.424	17.404	1133.764	857.035
270.439	17.454	1132.877	856.538
271.453	17.362	1132.210	855.496
272.468	17.289	1131.699	854.666
273.482	17.172	1131.051	853.516
274.497	17.263	1130.639	853.585
275.512	17.344	1129.960	853.402
276.526	17.318	1129.273	852.680
277.541	17.449	1127.888	852.216
278.555	17.441	1127.232	851.600
279.570	17.540	1126.198	851.239
280.585	17.533	1125.750	850.790
281.599	17.630	1125.021	850.651
282.614	17.530	1124.162	849.426
283.628	17.457	1123.171	848.237
284.643	17.477	1121.988	847.367
285.657	17.449	1121.208	846.568
286.672	17.506	1120.281	846.077
287.687	17.530	1119.476	845.513
288.701	17.553	1118.555	844.856
289.716	17.640	1118.060	844.837
290.730	17.540	1116.997	843.464
291.745	17.599	1116.631	843.405
292.760	17.552	1116.081	842.683
293.774	17.654	1115.761	842.870
294.789	17.699	1115.197	842.595
295.803	17.762	1114.437	842.256
296.818	17.643	1113.437	840.835
297.833	17.710	1112.628	840.481
298.847	17.658	1112.101	839.754
299.862	17.773	1110.898	839.339
300.876	17.699	1110.753	838.789
301.891	17.783	1109.604	838.262
302.906	17.874	1109.199	838.327
303.920	17.813	1108.902	837.729
304.935	17.869	1107.691	837.013
305.949	17.958	1107.610	837.318
306.964	18.037	1106.768	836.992
307.979	17.858	1106.121	835.551
308.993	17.931	1105.250	835.179
310.008	17.956	1104.636	834.762
311.022	18.023	1103.548	834.195
312.037	18.020	1102.637	833.415
313.052	17.882	1101.923	832.131
314.066	17.765	1101.388	831.083
315.081	17.949	1099.606	830.560
316.095	17.977	1098.768	829.986
317.110	17.921	1098.747	829.626
318.125	17.768	1098.423	828.566
319.139	17.873	1097.291	828.147
320.154	17.922	1096.356	827.604
321.168	17.897	1095.723	826.935
322.183	17.905	1095.414	826.668
323.197	17.994	1094.875	826.616
324.212	17.964	1094.198	825.887
325.227	17.911	1093.977	825.392
326.241	17.906	1092.885	824.469
327.256	17.985	1092.067	824.160
328.270	17.959	1091.339	823.415
329.285	17.941	1090.451	822.586
330.300	17.958	1089.402	821.802
331.314	17.968	1088.468	821.076
332.329	17.934	1087.653	820.222
333.343	18.022	1086.673	819.833
334.358	18.189	1085.856	819.944
335.373	18.223	1085.345	819.648
336.387	18.165	1084.916	818.975
337.402	18.099	1084.466	818.248
338.416	18.225	1083.767	818.250
339.431	18.190	1082.973	817.412
340.446	18.356	1082.131	817.495
341.460	18.605	1081.240	817.940
342.475	18.529	1080.523	816.961
343.489	18.530	1079.735	816.300
344.504	18.567	1078.585	815.530
345.519	18.579	1077.868	814.975
346.533	18.663	1077.170	814.773
347.548	18.558	1076.636	813.799
348.562	18.649	1075.581	813.360
349.577	18.463	1074.882	811.879
350.592	18.410	1074.123	810.984
351.606	18.333	1073.361	809.972
352.621	18.306	1072.732	809.297
353.635	18.267	1072.339	808.746
354.650	18.440	1071.162	808.604
355.665	18.434	1070.792	808.223
356.679	18.523	1070.349	808.236
357.694	18.571	1069.415	807.689
358.708	18.524	1068.939	807.033
359.723	18.461	1068.727	806.506
360.738	18.663	1067.722	806.624
361.752	18.622	1066.835	805.691
362.767	18.655	1066.750	805.710
363.781	18.712	1065.705	805.121
364.796	18.636	1065.696	804.684
365.810	18.828	1065.106	805.068
366.825	18.782	1064.612	804.408
367.840	18.937	1064.134	804.701
368.854	18.999	1063.410	804.371
369.869	18.829	1062.961	803.168
370.883	18.905	1061.748	802.535
371.898	18.804	1061.161	801.549
372.913	18.818	1060.503	801.047
373.927	18.892	1059.762	800.757
374.942	18.931	1059.260	800.490
375.956	18.886	1059.030	800.036
376.971	19.108	1057.899	800.145
377.986	19.003	1057.505	799.284
379.000	19.094	1057.064	799.307
380.015	19.077	1056.595	798.801
381.029	19.153	1056.127	798.727
382.044	19.010	1055.586	797.584
383.059	19.030	1054.619	796.876
384.073	19.161	1053.581	796.631
385.088	19.243	1052.579	796.178
386.102	19.060	1052.092	794.894
387.117	19.060	1050.977	793.981
388.132	18.956	1050.167	792.821
389.146	18.983	1049.239	792.173
390.161	19.055	1048.084	791.562
391.175	19.053	1047.609	791.126
392.190	19.072	1047.234	790.858
393.205	19.191	1046.678	790.917
394.219	19.178	1045.928	790.222
395.234	19.047	1044.935	788.801
396.248	19.186	1043.817	788.521
397.263	19.064	1042.898	787.200
398.278	18.931	1042.439	786.175
399.292	18.976	1041.255	785.420
400.307	19.102	1040.190	785.121
401.321	18.964	1040.176	784.411
402.336	19.005	1039.493	784.013
403.350	18.922	1038.795	783.040
404.365	19.111	1038.110	783.314
405.380	19.123	1037.455	782.807
406.394	19.151	1036.747	782.330
407.409	19.266	1036.102	782.296
408.423	19.315	1035.615	782.079
409.438	19.445	1034.647	781.872
410.453	19.245	1034.301	780.633
411.467	19.366	1033.697	780.654
412.482	19.478	1032.721	780.356
413.496	19.456	1032.108	779.726
414.511	19.349	1032.223	779.257
415.526	19.700	1031.045	779.887
416.540	19.640	1030.756	779.329
417.555	19.565	1030.446	778.687
418.569	19.610	1029.639	778.208
419.584	19.562	1028.961	777.413
420.599	19.624	1028.553	777.313
421.613	151.909	1400.413	1793.359
422.628	138.574	1454.585	1793.456
