DTS Sentinel unit serial number:	SN413079Multiplexer serial number:	ORYXHardware model number:	OX4-SRSoftware version number:	ORYX F/W v4.00 Oryx Data Collector v3.7.2.0data status	okinstallation	princeton_trtdifferential loss correction	single-endedforward channel	channel 2reverse channel	N/Adate	2019/09/19time	06:19:34forward acquisition time	60.00reverse acquisition time	0.00gamma	496.2192k internal	0.2350k external	0.2350temperature offset calibration	1.0016default loss term (dB/km)	0.3790temperature slope calibration	1.0000multiplexer offset coefficient	1.0000multiplexer slope coefficient	1.0000fibre end	0.00T internal ref (°C)	19.06T ext. ref 1 (°C)	0.57T ext. ref 2 (°C)	12.72length (m)	temperature (°C)	Stokes	anti-Stokes-747.200	-200.000	-0.023	0.173
-746.185	-152.947	-0.216	0.015
-745.171	539.312	0.028	0.067
-744.156	800.000	-0.064	0.228
-743.142	-13.164	0.197	0.128
-742.127	-87.812	-0.250	-0.075
-741.112	263.814	0.155	0.268
-740.098	305.342	-0.165	0.306
-739.083	504.135	-0.100	0.232
-738.069	-72.298	0.230	0.085
-737.054	-200.000	-0.011	0.066
-736.039	-200.000	-0.005	0.109
-735.025	-200.000	0.006	0.429
-734.010	230.314	-0.148	0.242
-732.996	-120.764	-0.456	-0.077
-731.981	57.809	0.185	0.180
-730.966	-10.259	-0.139	0.092
-729.952	-66.028	-0.105	-0.042
-728.937	26.172	0.065	0.055
-727.923	4.746	0.158	0.116
-726.908	48.920	-0.219	0.205
-725.894	-89.147	0.265	0.078
-724.879	-4.654	-0.293	0.202
-723.864	-165.592	0.235	0.010
-722.850	-158.899	-0.193	0.011
-721.835	210.403	0.118	0.185
-720.821	758.770	-0.070	-0.189
-719.806	-79.264	-0.322	0.109
-718.791	44.881	-0.117	0.108
-717.777	-200.000	-0.013	-0.085
-716.762	66.129	-0.165	-0.167
-715.748	-21.554	-0.289	-0.176
-714.733	12.433	0.069	-0.053
-713.718	-152.399	0.071	-0.005
-712.704	691.930	0.048	0.126
-711.689	800.000	0.033	-0.132
-710.675	-96.410	0.154	0.041
-709.660	-169.168	0.258	-0.010
-708.645	-99.173	0.160	-0.040
-707.631	-53.597	0.123	-0.056
-706.616	-67.910	0.231	-0.090
-705.602	110.630	-0.188	0.225
-704.587	40.204	0.174	0.156
-703.572	-88.644	0.256	-0.076
-702.558	-69.692	-0.127	-0.049
-701.543	27.229	-0.204	0.171
-700.529	231.645	0.083	-0.136
-699.514	-82.054	0.133	0.043
-698.499	-174.340	-0.334	0.010
-697.485	136.933	0.148	-0.193
-696.470	-37.286	0.136	-0.072
-695.456	-152.543	0.219	-0.016
-694.441	800.000	0.035	-0.105
-693.426	26.534	-0.177	0.147
-692.412	-8.140	0.146	0.098
-691.397	-55.400	-0.439	-0.196
-690.383	-200.000	0.022	-0.145
-689.368	-85.115	0.306	-0.095
-688.354	-147.082	0.243	0.021
-687.339	-22.798	0.182	0.110
-686.324	303.779	0.129	0.238
-685.310	-70.383	-0.401	-0.152
-684.295	367.506	-0.154	-0.310
-683.281	-200.000	0.015	-0.396
-682.266	108.217	-0.161	0.191
-681.251	-151.827	-0.196	0.014
-680.237	-200.000	-0.021	-0.233
-679.222	698.634	0.102	0.268
-678.208	-200.000	-0.012	0.252
-677.193	-200.000	0.004	0.065
-676.178	38.075	-0.244	0.216
-675.164	-131.478	0.199	0.026
-674.149	32.534	-0.215	0.185
-673.135	-120.037	0.117	-0.020
-672.120	-105.602	0.045	0.010
-671.105	-115.111	-0.202	-0.038
-670.091	250.684	0.082	-0.138
-669.076	-75.763	0.032	-0.011
-668.062	423.484	-0.099	-0.212
-667.047	122.041	-0.145	0.180
-666.032	160.800	0.114	-0.158
-665.018	601.008	-0.173	-0.427
-664.003	800.000	0.074	0.239
-662.989	800.000	-0.038	0.124
-661.974	-200.000	0.059	0.344
-660.959	800.000	-0.140	-0.438
-659.945	800.000	-0.093	-0.373
-658.930	38.370	-0.436	-0.387
-657.916	142.456	0.091	-0.120
-656.901	-200.000	0.033	-0.256
-655.886	126.573	0.118	-0.149
-654.872	106.207	-0.148	0.175
-653.857	-164.058	-0.136	-0.006
-652.843	-32.201	0.127	-0.070
-651.828	-48.469	-0.057	-0.027
-650.814	-27.767	0.180	0.104
-649.799	-137.961	-0.366	-0.041
-648.784	-200.000	-0.001	0.158
-647.770	-76.113	-0.265	-0.093
-646.755	-53.238	0.171	-0.078
-645.741	-127.887	-0.168	0.024
-644.726	-68.615	0.352	0.135
-643.711	-137.396	-0.464	0.052
-642.697	412.092	0.016	-0.034
-641.682	-200.000	0.035	-0.276
-640.668	144.344	-0.129	-0.172
-639.653	133.953	-0.122	-0.157
-638.638	-134.900	0.270	-0.033
-637.624	-134.293	-0.107	-0.013
-636.609	800.000	-0.121	-0.427
-635.595	-31.597	0.087	0.048
-634.580	-200.000	-0.035	-0.249
-633.565	155.539	0.118	-0.161
-632.551	135.263	0.071	0.091
-631.536	-169.366	-0.443	-0.016
-630.522	35.513	-0.175	-0.153
-629.507	800.000	0.049	-0.144
-628.492	79.739	0.256	-0.273
-627.478	422.945	-0.079	-0.169
-626.463	-200.000	0.038	0.311
-625.449	-200.000	-0.004	-0.089
-624.434	45.871	0.128	-0.118
-623.419	502.152	-0.148	-0.340
-622.405	-23.706	-0.153	-0.091
-621.390	-80.855	-0.344	-0.113
-620.376	20.959	-0.226	0.182
-619.361	698.921	-0.041	-0.108
-618.346	800.000	0.110	0.363
-617.332	-44.036	0.344	-0.172
-616.317	28.863	-0.203	-0.171
-615.303	-200.000	-0.074	-0.407
-614.288	800.000	0.026	0.078
-613.273	-200.000	0.001	-0.334
-612.259	-60.821	-0.084	-0.035
-611.244	-200.000	-0.006	0.360
-610.230	-112.953	-0.246	0.048
-609.215	-137.158	-0.410	0.046
-608.201	520.850	-0.125	-0.290
-607.186	6.339	0.071	-0.053
-606.171	800.000	0.069	-0.275
-605.157	-200.000	-0.006	-0.061
-604.142	800.000	0.030	0.107
-603.128	-19.084	0.397	0.245
-602.113	800.000	0.038	-0.164
-601.098	-93.581	0.004	0.001
-600.084	-80.751	0.018	0.006
-599.069	45.122	-0.050	0.046
-598.055	-150.697	0.289	-0.022
-597.040	-200.000	-0.006	0.073
-596.025	-11.107	-0.279	-0.183
-595.011	-200.000	0.012	-0.101
-593.996	122.509	-0.089	0.111
-592.982	289.664	0.057	-0.103
-591.967	28.404	0.054	0.045
-590.952	-143.093	0.128	0.012
-589.938	-4.494	-0.137	0.094
-588.923	111.176	-0.096	-0.115
-587.909	228.869	0.154	0.249
-586.894	308.370	-0.093	-0.173
-585.879	-44.788	-0.164	-0.081
-584.865	77.945	-0.167	0.177
-583.850	680.519	-0.109	0.281
-582.836	84.576	-0.315	-0.342
-581.821	-0.586	0.039	0.028
-580.806	800.000	-0.050	-0.215
-579.792	-176.609	0.033	0.001
-578.777	171.932	0.139	-0.199
-577.763	6.148	0.185	0.136
-576.748	-4.047	-0.081	0.056
-575.733	21.420	0.158	0.127
-574.719	-35.591	-0.272	0.146
-573.704	463.526	0.082	-0.181
-572.690	79.520	-0.041	-0.043
-571.675	416.381	-0.010	0.021
-570.661	-92.913	0.102	0.028
-569.646	212.713	-0.058	0.091
-568.631	-20.249	0.145	-0.089
-567.617	42.918	0.050	0.045
-566.602	-31.562	0.178	-0.099
-565.588	174.424	0.183	-0.262
-564.573	-137.175	0.301	-0.034
-563.558	23.781	-0.018	-0.015
-562.544	-200.000	0.017	0.141
-561.529	-101.697	0.091	0.022
-560.515	151.713	-0.145	-0.196
-559.500	-41.615	0.455	-0.232
-558.485	15.108	-0.075	0.058
-557.471	341.314	0.032	-0.063
-556.456	241.895	0.087	-0.144
-555.442	133.680	0.146	0.188
-554.427	-66.524	0.067	-0.026
-553.412	99.589	0.148	-0.169
-552.398	112.280	0.069	-0.082
-551.383	82.372	-0.149	-0.160
-550.369	-120.135	0.115	0.020
-549.354	-88.293	-0.373	-0.111
-548.339	-146.644	-0.058	0.005
-547.325	493.107	0.059	0.133
-546.310	-55.436	-0.091	-0.040
-545.296	-157.772	-0.264	0.016
-544.281	73.888	0.205	-0.213
-543.266	-97.418	0.150	-0.039
-542.252	-45.712	-0.182	-0.089
-541.237	-64.264	-0.378	0.153
-540.223	-99.860	-0.356	0.088
-539.208	10.480	-0.204	0.154
-538.193	635.107	0.029	-0.072
-537.179	-45.156	0.081	-0.040
-536.164	-124.193	-0.138	-0.021
-535.150	337.465	0.039	0.075
-534.135	170.143	0.126	-0.179
-533.121	140.123	-0.277	-0.361
-532.106	733.714	-0.045	-0.119
-531.091	65.355	-0.253	0.253
-530.077	-19.461	-0.257	-0.158
-529.062	-72.774	-0.247	0.090
-528.048	-25.891	-0.267	0.156
-527.033	394.837	-0.144	0.297
-526.018	-139.669	-0.169	-0.018
-525.004	705.721	-0.070	0.182
-523.989	-13.166	0.167	-0.107
-522.975	730.094	-0.050	0.133
-521.960	138.717	-0.158	-0.205
-520.945	-122.815	-0.332	-0.053
-519.931	-10.604	0.242	0.158
-518.916	-200.000	-0.003	-0.143
-517.902	204.955	0.107	-0.165
-516.887	-139.639	0.462	0.049
-515.872	97.563	-0.151	-0.172
-514.858	-200.000	0.086	-0.414
-513.843	130.153	0.024	0.031
-512.829	-55.953	-0.403	0.178
-511.814	-200.000	0.006	-0.062
-510.799	36.501	0.149	0.130
-509.785	-103.925	0.146	0.034
-508.770	-200.000	-0.082	0.400
-507.756	168.359	-0.164	0.231
-506.741	-68.025	-0.058	0.022
-505.726	-69.420	0.122	0.046
-504.712	209.481	-0.014	0.022
-503.697	354.311	0.084	-0.166
-502.683	-81.677	-0.236	-0.077
-501.668	-120.692	-0.192	0.032
-500.653	362.234	0.111	0.220
-499.639	377.860	-0.106	0.215
-498.624	-69.845	0.426	0.161
-497.610	257.563	-0.043	-0.073
-496.595	-110.495	0.306	0.063
-495.581	53.307	0.176	-0.167
-494.566	-200.000	0.065	0.363
-493.551	800.000	-0.104	0.321
-492.537	-166.720	-0.270	-0.011
-491.522	-13.630	-0.556	0.356
-490.508	-90.958	-0.184	-0.052
-489.493	-40.483	0.318	0.163
-488.478	800.000	0.055	-0.198
-487.464	-82.355	-0.079	0.025
-486.449	227.814	0.067	-0.107
-485.435	-111.059	0.197	-0.040
-484.420	-200.000	-0.261	0.000
-483.405	800.000	0.132	0.393
-482.391	-21.786	0.306	-0.184
-481.376	-34.395	-0.165	0.089
-480.362	-0.319	0.252	-0.177
-479.347	-59.461	-0.259	0.110
-478.332	25.835	-0.293	0.241
-477.318	649.636	0.080	-0.203
-476.303	213.085	-0.008	0.013
-475.289	-64.816	0.348	-0.139
-474.274	41.250	-0.334	-0.298
-473.259	-200.000	0.017	-0.112
-472.245	160.673	-0.020	0.027
-471.230	111.046	0.196	0.233
-470.216	-200.000	0.030	-0.259
-469.201	-115.413	0.391	-0.073
-468.186	64.858	0.136	-0.135
-467.172	5.927	0.114	-0.083
-466.157	-55.649	0.267	0.118
-465.143	-115.023	-0.266	-0.050
-464.128	-200.000	0.010	-0.355
-463.113	800.000	0.066	-0.216
-462.099	-200.000	-0.002	0.022
-461.084	5.657	-0.123	-0.089
-460.070	-200.000	0.004	-0.422
-459.055	-10.204	-0.236	-0.154
-458.040	121.604	0.176	-0.216
-457.026	109.366	-0.112	-0.132
-456.011	-37.024	-0.243	-0.129
-454.997	-106.014	-0.082	-0.018
-453.982	-171.111	0.610	-0.020
-452.968	-200.000	-0.043	0.263
-451.953	-70.628	-0.146	0.055
-450.938	1.673	-0.190	-0.135
-449.924	-125.573	0.150	-0.022
-448.909	441.869	-0.055	-0.118
-447.895	-71.436	-0.166	-0.061
-446.880	-200.000	0.012	-0.148
-445.865	-200.000	-0.006	-0.245
-444.851	360.780	0.109	0.215
-443.836	-38.813	0.108	-0.056
-442.822	75.391	0.161	-0.168
-441.807	-26.233	-0.137	-0.079
-440.792	55.208	0.149	-0.142
-439.778	-141.593	-0.282	-0.028
-438.763	-88.936	0.218	-0.064
-437.749	-156.830	0.092	0.006
-436.734	528.205	0.053	-0.124
-435.719	378.049	-0.170	0.343
-434.705	172.909	0.191	0.271
-433.690	-37.773	-0.367	0.193
-432.676	96.985	-0.181	-0.205
-431.661	-132.820	0.399	-0.050
-430.646	-72.800	-0.261	-0.095
-429.632	-200.000	0.012	-0.278
-428.617	1.806	-0.272	-0.193
-427.603	-51.820	0.111	-0.051
-426.588	563.008	0.015	0.036
-425.573	-149.971	-0.103	-0.008
-424.559	-200.000	0.025	0.286
-423.544	800.000	-0.078	-0.321
-422.530	800.000	0.131	-0.363
-421.515	89.561	-0.120	0.132
-420.500	-200.000	0.021	0.238
-419.486	-119.013	-0.165	-0.029
-418.471	800.000	-0.067	0.252
-417.457	1.765	0.071	-0.050
-416.442	58.077	0.274	0.264
-415.428	54.372	0.028	-0.027
-414.413	-23.735	-0.208	-0.123
-413.398	-88.463	0.074	-0.022
-412.384	-79.250	0.195	-0.065
-411.369	-200.000	0.053	-0.435
-410.355	-30.414	-0.289	0.161
-409.340	464.301	0.081	-0.179
-408.325	343.628	0.104	0.201
-407.311	800.000	-0.093	0.360
-406.296	-200.000	0.026	0.128
-405.282	-200.000	-0.001	-0.147
-404.267	-35.364	0.368	0.197
-403.252	-74.709	-0.090	0.032
-402.238	-42.031	0.136	-0.068
-401.223	-200.000	-0.031	-0.245
-400.209	257.130	-0.186	0.315
-399.194	376.831	0.171	0.345
-398.179	-66.809	0.186	-0.073
-397.165	66.953	-0.170	0.171
-396.150	-62.272	-0.202	0.083
-395.136	-81.965	0.210	0.068
-394.121	25.919	-0.151	-0.124
-393.106	105.103	0.167	-0.194
-392.092	-30.529	0.160	0.089
-391.077	54.171	-0.297	0.282
-390.063	-77.047	0.126	-0.043
-389.048	632.166	-0.136	0.338
-388.033	138.479	-0.127	-0.164
-387.019	172.784	0.090	-0.127
-386.004	-200.000	-0.022	0.441
-384.990	434.331	-0.107	-0.229
-383.975	-61.729	-0.254	0.105
-382.960	441.365	0.057	0.123
-381.946	-63.005	-0.247	0.101
-380.931	-200.000	0.011	0.382
-379.917	-200.000	-0.024	0.120
-378.902	-22.138	-0.227	0.135
-377.888	103.826	-0.054	0.063
-376.873	-162.408	0.138	-0.007
-375.858	89.149	-0.238	0.261
-374.844	-7.815	0.325	0.216
-373.829	12.417	-0.197	0.149
-372.815	-64.781	0.279	-0.111
-371.800	-10.252	-0.197	0.129
-370.785	-200.000	-0.026	0.130
-369.771	-2.695	0.337	0.232
-368.756	-101.271	0.079	0.019
-367.742	75.307	0.072	0.075
-366.727	800.000	0.077	0.296
-365.712	-200.000	0.010	-0.321
-364.698	683.756	-0.034	-0.087
-363.683	-200.000	-0.021	0.135
-362.669	-200.000	-0.065	-0.280
-361.654	-38.242	0.233	-0.122
-360.639	800.000	-0.091	-0.308
-359.625	51.275	-0.223	0.208
-358.610	800.000	-0.074	-0.313
-357.596	-127.180	0.367	-0.053
-356.581	800.000	0.042	-0.117
-355.566	-12.250	-0.361	-0.232
-354.552	58.663	-0.105	0.101
-353.537	-200.000	-0.223	-0.001
-352.523	141.476	0.018	-0.023
-351.508	8.479	-0.167	0.124
-350.493	272.096	-0.045	-0.079
-349.479	297.331	0.157	-0.283
-348.464	-20.412	-0.159	-0.096
-347.450	31.041	0.131	0.110
-346.435	82.269	0.200	0.214
-345.420	85.390	0.074	0.079
-344.406	-59.219	-0.220	0.093
-343.391	76.821	0.140	-0.146
-342.377	800.000	-0.014	-0.049
-341.362	508.089	0.054	-0.124
-340.348	-200.000	0.075	0.333
-339.333	800.000	-0.045	0.138
-338.318	-70.514	0.033	0.012
-337.304	174.810	0.194	-0.277
-336.289	-60.388	-0.202	0.084
-335.275	142.756	-0.229	0.298
-334.260	-112.749	0.370	0.072
-333.245	-151.051	0.092	0.007
-332.231	-200.000	-0.027	-0.200
-331.216	-73.046	0.354	-0.128
-330.202	74.361	0.171	-0.177
-329.187	-51.931	0.064	-0.029
-328.172	276.222	-0.121	0.211
-327.158	322.838	0.140	0.262
-326.143	17.379	0.201	0.156
-325.129	20.634	0.075	-0.059
-324.114	15.527	0.203	0.156
-323.099	686.532	0.026	0.067
-322.085	-33.249	-0.052	-0.028
-321.070	145.801	0.118	0.155
-320.056	-99.888	0.111	-0.027
-319.041	-130.229	0.409	-0.055
-318.026	-101.403	0.168	0.040
-317.012	-200.000	-0.341	0.001
-315.997	800.000	0.035	-0.106
-314.983	800.000	-0.040	0.121
-313.968	-200.000	0.009	0.424
-312.953	800.000	0.042	-0.142
-311.939	-41.695	0.137	-0.069
-310.924	-88.242	0.403	0.118
-309.910	-157.392	0.334	-0.020
-308.895	142.257	-0.344	0.448
-307.880	-44.994	-0.148	0.072
-306.866	-200.000	-0.038	-0.253
-305.851	269.609	-0.070	-0.121
-304.837	623.804	0.019	-0.047
-303.822	-200.000	-0.010	-0.212
-302.807	245.689	-0.169	-0.280
-301.793	-117.743	0.155	0.027
-300.778	-60.573	0.235	0.098
-299.764	800.000	-0.065	0.276
-298.749	177.030	0.070	-0.100
-297.735	108.711	-0.109	0.128
-296.720	-70.014	0.314	0.117
-295.705	-200.000	-0.038	-0.434
-294.691	148.991	0.086	-0.114
-293.676	-84.757	-0.117	-0.036
-292.662	129.526	0.220	-0.276
-291.647	571.267	0.083	0.198
-290.632	800.000	0.023	0.068
-289.618	104.056	0.073	-0.084
-288.603	-200.000	0.011	0.144
-287.589	19.740	-0.044	0.035
-286.574	47.569	-0.277	0.254
-285.559	169.391	-0.138	0.194
-284.545	800.000	-0.067	0.218
-283.530	707.481	-0.060	0.155
-282.516	282.759	0.057	0.100
-281.501	268.262	0.149	0.256
-280.486	800.000	0.088	0.318
-279.472	-33.737	-0.271	0.146
-278.457	303.425	-0.122	0.221
-277.443	-128.361	-0.230	-0.032
-276.428	800.000	0.039	0.158
-275.413	-177.910	0.135	-0.003
-274.399	110.839	0.236	0.278
-273.384	678.295	-0.068	-0.173
-272.370	800.000	0.075	-0.310
-271.355	316.490	0.098	-0.182
-270.340	501.700	0.162	0.367
-269.326	-142.348	-0.202	-0.019
-268.311	-199.259	-0.251	0.001
-267.297	-32.836	0.267	-0.145
-266.282	-80.195	0.169	0.056
-265.267	-200.000	0.032	-0.358
-264.253	261.790	0.144	-0.244
-263.238	13.880	-0.172	0.131
-262.224	-49.111	0.057	-0.027
-261.209	-110.667	0.131	0.026
-260.195	-200.000	0.024	-0.478
-259.180	-60.983	-0.166	-0.069
-258.165	784.558	0.069	0.185
-257.151	-45.702	0.175	0.085
-256.136	73.434	0.145	-0.148
-255.122	-45.743	0.063	-0.030
-254.107	-61.558	-0.207	-0.085
-253.092	800.000	-0.091	-0.280
-252.078	-176.171	0.209	-0.005
-251.063	-93.881	-0.186	-0.050
-250.049	-29.249	0.033	0.019
-249.034	-200.000	0.010	-0.153
-248.019	-109.206	0.470	0.098
-247.005	800.000	0.133	0.482
-245.990	-91.890	0.262	0.073
-244.976	-139.558	0.265	0.028
-243.961	-34.390	0.247	-0.133
-242.946	-200.000	0.015	-0.068
-241.932	241.255	0.059	0.096
-240.917	-200.000	-0.015	-0.297
-239.903	372.708	0.066	-0.132
-238.888	-35.227	0.030	0.016
-237.873	-113.128	-0.445	0.086
-236.859	800.000	-0.050	-0.183
-235.844	58.500	0.260	-0.250
-234.830	445.488	-0.124	0.266
-233.815	-137.605	0.251	0.028
-232.800	405.630	0.077	0.159
-231.786	800.000	-0.094	0.319
-230.771	-5.278	0.274	0.184
-229.757	482.705	0.081	0.180
-228.742	800.000	0.047	0.188
-227.727	75.449	-0.348	-0.359
-226.713	45.819	0.150	0.136
-225.698	437.118	0.067	0.144
-224.684	70.822	0.322	-0.326
-223.669	238.112	-0.103	0.168
-222.655	-113.489	0.218	0.042
-221.640	-169.810	-0.119	-0.004
-220.625	-40.912	0.082	-0.042
-219.611	-200.000	0.009	0.099
-218.596	-72.675	0.078	-0.028
-217.582	-79.314	0.438	0.145
-216.567	-21.441	-0.155	-0.093
-215.552	800.000	-0.054	0.203
-214.538	-35.059	-0.338	-0.180
-213.523	114.068	0.147	0.175
-212.509	-56.058	-0.139	-0.060
-211.494	103.920	-0.259	-0.298
-210.479	-0.832	0.104	0.072
-209.465	725.493	0.098	-0.256
-208.450	-92.765	-0.290	0.079
-207.436	200.478	-0.052	-0.078
-206.421	-152.866	0.320	-0.022
-205.406	-41.289	-0.035	-0.018
-204.392	-129.485	-0.173	0.023
-203.377	51.062	0.064	0.060
-202.363	-97.548	-0.239	-0.061
-201.348	100.449	-0.300	-0.341
-200.333	-58.107	-0.369	-0.157
-199.319	6.611	-0.058	0.042
-198.304	-178.843	0.116	-0.003
-197.290	36.846	0.278	0.240
-196.275	-108.898	-0.190	-0.040
-195.260	800.000	0.046	0.130
-194.246	800.000	0.011	-0.031
-193.231	4.789	0.182	0.131
-192.217	-200.000	0.029	0.279
-191.202	800.000	-0.037	0.121
-190.187	-136.512	0.202	-0.023
-189.173	-111.047	-0.032	0.006
-188.158	94.697	0.155	0.172
-187.144	-40.510	-0.143	-0.073
-186.129	-6.433	-0.125	-0.084
-185.114	100.209	0.007	-0.008
-184.100	-200.000	-0.042	0.232
-183.085	-89.913	0.403	-0.115
-182.071	-200.000	0.107	-0.460
-181.056	-91.809	-0.353	-0.098
-180.042	-148.892	0.380	-0.030
-179.027	-200.000	0.017	0.168
-178.012	-139.451	0.049	0.005
-176.998	-200.000	0.006	0.141
-175.983	-200.000	0.058	0.291
-174.969	-200.000	-0.004	0.043
-173.954	608.235	0.076	0.186
-172.939	-200.000	0.027	0.200
-171.925	84.874	0.049	-0.053
-170.910	-62.723	0.529	-0.214
-169.896	-200.000	0.001	0.462
-168.881	-85.247	-0.197	-0.060
-167.866	6.114	-0.258	0.187
-166.852	800.000	-0.126	0.409
-165.837	-7.768	-0.193	0.127
-164.823	110.905	-0.127	0.150
-163.808	42.181	0.207	0.184
-162.793	147.701	-0.124	-0.164
-161.779	-180.257	-0.244	0.005
-160.764	-200.000	0.004	-0.037
-159.750	-24.531	0.214	-0.124
-158.735	22.573	-0.220	-0.175
-157.720	-57.446	-0.409	-0.175
-156.706	37.684	0.087	-0.075
-155.691	122.233	-0.179	0.218
-154.677	800.000	0.024	0.086
-153.662	-118.515	-0.387	-0.067
-152.647	-200.000	0.038	0.177
-151.633	-171.025	0.176	-0.006
-150.618	-83.439	-0.083	-0.026
-149.604	20.382	0.128	-0.101
-148.589	106.921	-0.132	-0.153
-147.574	-70.651	-0.141	0.052
-146.560	57.061	0.123	0.117
-145.545	-200.000	0.000	-0.045
-144.531	800.000	-0.091	0.257
-143.516	-200.000	-0.004	0.303
-142.502	121.696	0.084	-0.102
-141.487	783.112	0.089	0.237
-140.472	-175.529	-0.273	0.007
-139.458	184.835	0.197	0.285
-138.443	-40.992	0.204	-0.103
-137.429	-77.897	0.095	-0.032
-136.414	469.465	-0.082	0.179
-135.399	363.812	-0.086	0.169
-134.385	439.149	0.085	0.182
-133.370	-35.324	-0.065	0.034
-132.356	-12.405	0.328	-0.209
-131.341	800.000	-0.055	-0.228
-130.326	800.000	-0.130	-0.354
-129.312	-136.603	0.081	-0.009
-128.297	-136.317	0.227	0.026
-127.283	118.935	-0.055	-0.067
-126.268	25.623	0.224	-0.182
-125.253	518.338	0.058	-0.131
-124.239	-200.000	0.035	-0.190
-123.224	684.075	-0.077	-0.196
-122.210	142.910	0.140	0.182
-121.195	-128.502	0.394	0.055
-120.180	-80.486	-0.488	-0.159
-119.166	307.012	-0.050	0.090
-118.151	-200.000	-0.026	0.168
-117.137	97.081	0.274	-0.307
-116.122	625.507	-0.131	0.321
-115.107	800.000	-0.038	0.163
-114.093	71.396	0.224	-0.227
-113.078	-104.064	-0.039	0.009
-112.064	-75.327	-0.189	0.066
-111.049	-19.621	0.185	-0.112
-110.034	-200.000	0.002	-0.067
-109.020	-47.913	0.329	0.155
-108.005	316.601	-0.126	0.232
-106.991	558.834	0.071	-0.167
-105.976	-200.000	0.029	-0.129
-104.962	64.482	-0.097	0.095
-103.947	-200.000	0.018	0.250
-102.932	-200.000	0.186	0.000
-101.918	-39.471	0.050	-0.025
-100.903	-200.000	-0.044	-0.224
-99.889	-114.522	-0.285	0.053
-98.874	100.416	-0.114	0.129
-97.859	-67.416	-0.173	-0.066
-96.845	-40.971	-0.203	-0.102
-95.830	-39.555	-0.031	0.016
-94.816	-200.000	0.025	-0.209
-93.801	-70.824	-0.054	0.020
-92.786	69.163	-0.095	-0.095
-91.772	116.209	-0.100	0.120
-90.757	-23.255	-0.061	-0.035
-89.743	-58.166	0.305	-0.129
-88.728	437.737	-0.044	0.093
-87.713	-200.000	-0.010	0.074
-86.699	800.000	-0.041	0.166
-85.684	-35.257	0.080	-0.042
-84.670	12.775	0.223	-0.167
-83.655	-200.000	-0.055	0.234
-82.640	-200.000	-0.021	0.448
-81.626	-131.306	-0.306	0.039
-80.611	171.054	-0.135	-0.188
-79.597	-200.000	-0.070	0.400
-78.582	449.219	-0.045	-0.096
-77.567	264.381	0.114	-0.193
-76.553	-135.753	-0.253	-0.029
-75.538	124.311	0.061	-0.075
-74.524	-200.000	0.034	-0.157
-73.509	448.010	-0.091	-0.195
-72.494	-84.799	0.328	-0.100
-71.480	116.280	-0.061	0.072
-70.465	-137.785	-0.057	0.006
-69.451	-134.179	0.109	0.013
-68.436	139.061	0.138	0.177
-67.422	68.612	0.154	0.153
-66.407	-200.000	0.001	-0.032
-65.392	212.200	0.210	0.322
-64.378	116.231	0.049	0.058
-63.363	-97.940	0.188	-0.047
-62.349	-114.536	-0.294	0.055
-61.334	60.169	-1.060	-1.019
-60.319	217.918	0.714	1.107
-59.305	45.116	-1.163	-1.042
-58.290	138.514	1.016	1.297
-57.276	-200.000	0.321	1.395
-56.261	-200.000	135.502	625.995
-55.246	346.056	1631.994	3118.411
-54.232	137.849	2778.409	3537.391
-53.217	76.283	2299.289	2366.355
-52.203	27.354	1906.098	1556.672
-51.188	21.834	1702.862	1348.323
-50.173	20.163	1665.980	1306.484
-49.159	41.395	1739.563	1529.160
-48.144	37.517	1748.856	1507.294
-47.130	21.340	1701.074	1342.896
-46.115	19.201	1685.425	1314.193
-45.100	18.961	1680.553	1308.511
-44.086	18.940	1678.203	1306.469
-43.071	18.965	1675.069	1304.167
-42.057	18.852	1672.993	1301.643
-41.042	18.943	1671.184	1300.876
-40.027	18.937	1669.144	1299.189
-39.013	18.851	1667.190	1296.969
-37.998	18.890	1665.606	1295.980
-36.984	18.933	1664.195	1295.155
-35.969	19.145	1662.106	1295.071
-34.954	19.059	1661.191	1293.663
-33.940	19.061	1659.263	1292.120
-32.925	19.040	1657.965	1290.900
-31.911	18.971	1656.213	1288.973
-30.896	19.011	1654.589	1287.957
-29.881	19.039	1653.524	1287.284
-28.867	19.017	1651.809	1285.733
-27.852	19.070	1650.352	1284.942
-26.838	18.997	1649.293	1283.524
-25.823	19.089	1647.329	1282.631
-24.809	19.050	1646.200	1281.413
-23.794	19.103	1644.463	1280.404
-22.779	19.032	1643.422	1279.013
-21.765	19.142	1641.186	1278.037
-20.750	19.057	1640.033	1276.462
-19.736	19.111	1638.978	1275.987
-18.721	19.174	1637.058	1274.907
-17.706	19.098	1635.946	1273.431
-16.692	19.106	1634.405	1272.241
-15.677	19.112	1632.941	1271.096
-14.663	19.116	1631.687	1270.098
-13.648	19.182	1630.111	1269.304
-12.633	19.130	1628.570	1267.672
-11.619	19.111	1626.912	1266.195
-10.604	19.073	1625.609	1264.848
-9.590	19.129	1624.589	1264.418
-8.575	19.095	1623.063	1262.928
-7.560	19.080	1622.734	1262.510
-6.546	19.122	1620.915	1261.355
-5.531	19.147	1619.983	1260.762
-4.517	19.141	1618.571	1259.568
-3.502	19.101	1618.053	1258.827
-2.487	19.135	1616.065	1257.475
-1.473	18.636	1604.068	1244.475
-0.458	15.722	1584.193	1208.100
0.556	11.257	1586.975	1177.959
1.571	9.106	1611.187	1180.031
2.586	8.990	1622.814	1187.581
3.600	8.526	1567.876	1143.951
4.615	4.994	1463.515	1044.098
5.629	1.241	1409.138	980.981
6.644	0.603	1403.106	972.586
7.659	0.625	1402.018	971.890
8.673	0.579	1401.257	970.981
9.688	0.493	1398.877	968.694
10.702	0.486	1395.093	965.943
11.717	2.244	1396.864	978.341
12.731	7.806	1404.672	1019.448
13.746	13.989	1415.309	1066.893
14.761	16.917	1419.231	1088.578
15.775	16.536	1417.563	1084.756
16.790	15.633	1414.404	1076.462
17.804	14.827	1412.406	1069.692
18.819	14.437	1410.894	1065.958
19.834	14.247	1409.797	1063.822
20.848	14.074	1408.591	1061.709
21.863	13.754	1407.363	1058.650
22.877	13.637	1406.116	1056.873
23.892	13.647	1404.816	1055.865
24.907	13.553	1404.232	1054.732
25.921	13.597	1403.441	1054.325
26.936	13.538	1402.222	1052.945
27.950	13.689	1401.650	1053.378
28.965	13.636	1400.576	1052.140
29.980	13.682	1399.119	1051.250
30.994	13.805	1398.215	1051.251
32.009	13.857	1397.483	1050.937
33.023	13.803	1396.245	1049.577
34.038	13.793	1394.329	1047.975
35.053	13.755	1393.742	1047.203
36.067	13.714	1392.782	1046.134
37.082	13.771	1391.790	1045.653
38.096	13.800	1390.931	1045.099
39.111	13.751	1390.223	1044.163
40.126	13.696	1389.692	1043.330
41.140	13.547	1388.679	1041.539
42.155	13.587	1387.884	1041.102
43.169	13.550	1388.017	1040.880
44.184	13.572	1387.539	1040.562
45.199	13.599	1386.611	1039.943
46.213	13.580	1386.374	1039.559
47.228	13.734	1384.955	1039.365
48.242	13.641	1384.029	1037.994
49.257	13.618	1382.768	1036.817
50.271	13.646	1381.196	1035.720
51.286	13.626	1380.467	1034.953
52.301	13.550	1379.124	1033.385
53.315	13.667	1377.702	1032.954
54.330	13.671	1376.379	1031.894
55.344	13.623	1375.362	1030.745
56.359	13.670	1373.849	1029.811
57.374	13.655	1373.257	1029.186
58.388	13.499	1372.739	1027.737
59.403	13.599	1372.126	1027.809
60.417	13.564	1371.015	1026.665
61.432	13.610	1370.032	1026.127
62.447	13.450	1369.493	1024.643
63.461	13.514	1368.033	1023.851
64.476	13.461	1367.252	1022.848
65.490	13.587	1365.572	1022.279
66.505	13.520	1364.439	1020.928
67.520	13.535	1362.811	1019.713
68.534	13.581	1361.283	1018.765
69.549	13.584	1360.680	1018.238
70.563	13.685	1359.541	1017.915
71.578	13.518	1358.388	1015.941
72.593	13.532	1357.604	1015.350
73.607	13.414	1356.839	1013.965
74.622	13.391	1356.224	1013.274
75.636	13.507	1355.382	1013.267
76.651	13.492	1354.200	1012.200
77.666	13.355	1354.384	1011.407
78.680	13.507	1352.920	1011.155
79.695	13.381	1352.415	1009.921
80.709	13.556	1351.421	1010.155
81.724	13.594	1350.236	1009.410
82.739	13.585	1349.459	1008.686
83.753	13.684	1348.244	1008.292
84.768	13.702	1347.783	1007.964
85.782	13.636	1346.463	1006.490
86.797	13.745	1344.397	1005.514
87.812	13.590	1343.857	1004.083
88.826	13.643	1342.176	1003.062
89.841	13.632	1341.797	1002.620
90.855	13.642	1340.200	1001.400
91.870	13.698	1339.272	1000.955
92.884	13.709	1338.926	1000.674
93.899	13.763	1337.787	1000.064
94.914	13.729	1336.914	999.117
95.928	13.789	1336.372	998.982
96.943	13.784	1335.341	998.094
97.957	13.793	1334.286	997.271
98.972	13.789	1333.256	996.387
99.987	13.705	1331.914	994.791
101.001	13.669	1331.160	993.929
102.016	13.670	1330.053	993.019
103.030	13.634	1329.315	992.164
104.045	13.703	1328.486	991.872
105.060	13.742	1326.509	990.542
106.074	13.599	1325.779	989.052
107.089	13.632	1323.919	987.774
108.103	13.632	1322.649	986.742
109.118	13.503	1321.423	984.971
110.133	13.604	1319.912	984.360
111.147	13.600	1318.734	983.367
112.162	13.622	1317.699	982.640
113.176	13.649	1316.411	981.750
114.191	13.640	1315.392	980.849
115.206	13.652	1314.239	979.974
116.220	13.658	1313.204	979.154
117.235	13.654	1312.254	978.333
118.249	13.657	1310.763	977.156
119.264	13.531	1309.816	975.619
120.279	13.587	1308.516	974.897
121.293	13.723	1307.223	974.644
122.308	13.658	1306.658	973.757
123.322	13.677	1305.103	972.622
124.337	13.606	1304.483	971.656
125.352	13.700	1302.737	970.824
126.366	13.717	1301.851	970.172
127.381	13.549	1301.226	968.639
128.395	13.611	1299.542	967.663
129.410	13.616	1298.842	967.083
130.424	13.726	1297.730	966.813
131.439	13.580	1297.068	965.387
132.454	13.574	1295.721	964.263
133.468	13.566	1295.020	963.610
134.483	13.635	1294.200	963.314
135.497	13.610	1293.177	962.320
136.512	13.698	1291.648	961.607
137.527	13.543	1290.393	959.690
138.541	13.585	1288.709	958.595
139.556	13.655	1287.402	957.943
140.570	13.656	1286.588	957.260
141.585	13.860	1285.007	957.176
142.600	13.767	1284.060	955.848
143.614	13.815	1283.148	955.361
144.629	13.839	1281.747	954.371
145.643	13.896	1280.595	953.761
146.658	13.772	1279.147	951.887
147.673	13.881	1278.323	951.809
148.687	13.826	1276.901	950.354
149.702	13.706	1275.907	948.846
150.716	13.731	1274.425	947.798
151.731	13.866	1272.963	947.397
152.746	13.885	1272.196	946.855
153.760	13.918	1270.473	945.673
154.775	13.864	1269.509	944.565
155.789	13.871	1268.487	943.764
156.804	13.923	1267.287	943.080
157.819	13.979	1266.426	942.678
158.833	13.949	1265.460	941.703
159.848	13.924	1265.154	941.248
160.862	14.037	1263.326	940.446
161.877	13.885	1262.615	938.975
162.892	13.951	1261.391	938.356
163.906	13.863	1260.728	937.282
164.921	13.949	1259.709	936.923
165.935	13.970	1258.565	936.108
166.950	13.880	1257.958	935.068
167.964	14.030	1256.989	935.112
168.979	13.901	1257.031	934.333
169.994	14.034	1255.723	934.025
171.008	14.005	1254.871	933.146
172.023	14.023	1254.447	932.846
173.037	14.108	1253.618	932.627
174.052	14.112	1252.361	931.633
175.067	14.046	1251.409	930.470
176.081	14.077	1250.364	929.782
177.096	14.044	1249.645	928.985
178.110	14.080	1248.366	928.153
179.125	14.110	1246.945	927.178
180.140	13.999	1246.033	925.801
181.154	14.115	1244.666	925.352
182.169	14.199	1243.358	924.761
183.183	14.079	1242.276	923.207
184.198	14.190	1240.769	922.622
185.213	14.199	1239.492	921.639
186.227	14.250	1238.487	921.096
187.242	14.316	1237.183	920.411
188.256	14.253	1236.596	919.542
189.271	14.242	1235.567	918.637
190.286	14.302	1234.033	917.742
191.300	14.136	1233.813	916.586
192.315	14.164	1233.038	916.082
193.329	14.235	1232.796	916.213
194.344	14.171	1231.729	914.988
195.359	14.342	1230.947	915.266
196.373	14.244	1230.612	914.394
197.388	14.370	1230.479	914.906
198.402	14.425	1229.546	914.436
199.417	14.295	1229.031	913.259
200.432	14.464	1227.866	913.236
201.446	14.441	1226.784	912.228
202.461	14.596	1226.055	912.448
203.475	14.593	1224.819	911.435
204.490	14.411	1223.937	909.702
205.504	14.453	1223.020	909.171
206.519	14.450	1221.839	908.195
207.534	14.502	1220.430	907.353
208.548	14.379	1219.333	905.785
209.563	14.529	1218.599	905.976
210.577	14.518	1217.675	905.152
211.592	14.616	1216.619	904.817
212.607	14.584	1215.675	903.862
213.621	14.763	1214.790	904.092
214.636	14.648	1214.131	902.899
215.650	14.585	1213.066	901.686
216.665	14.718	1211.565	901.206
217.680	14.622	1211.592	900.633
218.694	14.693	1210.313	899.985
219.709	14.603	1209.912	899.123
220.723	14.794	1208.874	899.297
221.738	14.840	1208.369	899.087
222.753	14.774	1207.253	897.826
223.767	14.787	1206.712	897.412
224.782	14.913	1205.714	897.266
225.796	14.880	1205.263	896.675
226.811	14.813	1204.993	896.036
227.826	14.803	1203.618	894.879
228.840	14.839	1203.421	894.846
229.855	14.818	1202.542	894.002
230.869	14.893	1201.171	893.305
231.884	14.791	1200.489	892.174
232.899	14.755	1199.956	891.509
233.913	14.884	1199.435	891.732
234.928	14.865	1198.552	890.892
235.942	14.846	1197.637	890.036
236.957	14.857	1196.702	889.318
237.972	14.888	1196.442	889.213
238.986	14.921	1195.315	888.468
240.001	14.938	1194.774	888.079
241.015	14.992	1194.074	887.767
242.030	14.892	1193.024	886.379
243.045	14.961	1192.512	886.285
244.059	14.863	1191.724	885.103
245.074	14.978	1191.075	885.149
246.088	15.109	1189.836	884.841
247.103	15.014	1189.605	884.089
248.117	15.050	1188.913	883.691
249.132	15.198	1187.517	883.354
250.147	15.274	1186.938	883.245
251.161	15.328	1185.860	882.649
252.176	15.158	1185.800	881.628
253.190	15.301	1185.169	881.835
254.205	15.274	1184.252	880.935
255.220	15.209	1184.364	880.597
256.234	15.264	1183.178	879.925
257.249	15.314	1182.325	879.477
258.263	15.260	1181.790	878.716
259.278	15.420	1181.034	878.918
260.293	15.466	1180.566	878.731
261.307	15.430	1180.301	878.266
262.322	15.429	1179.560	877.635
263.336	15.526	1178.789	877.489
264.351	15.450	1177.932	876.375
265.366	15.567	1177.096	876.289
266.380	15.519	1176.430	875.462
267.395	15.534	1175.720	874.935
268.409	15.556	1175.188	874.576
269.424	15.543	1174.478	873.901
270.439	15.601	1173.753	873.590
271.453	15.521	1173.066	872.586
272.468	15.545	1171.885	871.750
273.482	15.578	1171.629	871.658
274.497	15.451	1170.991	870.445
275.512	15.505	1170.272	870.117
276.526	15.615	1169.223	869.825
277.541	15.584	1168.537	869.077
278.555	15.572	1167.594	868.239
279.570	15.659	1166.771	868.001
280.585	15.719	1166.235	867.831
281.599	15.715	1165.055	866.860
282.614	15.821	1164.172	866.669
283.628	15.676	1162.963	864.948
284.643	15.725	1162.334	864.654
285.657	15.787	1161.423	864.218
286.672	15.766	1160.461	863.320
287.687	15.832	1159.198	862.642
288.701	15.661	1159.088	861.606
289.716	15.775	1157.916	861.243
290.730	15.823	1157.494	861.100
291.745	15.805	1156.285	860.031
292.760	15.901	1155.822	860.099
293.774	15.903	1155.300	859.646
294.789	15.926	1154.991	859.456
295.803	15.915	1154.052	858.630
296.818	15.841	1153.310	857.625
297.833	16.028	1152.134	857.621
298.847	15.910	1151.801	856.698
299.862	15.980	1151.109	856.467
300.876	15.963	1150.350	855.737
301.891	15.951	1149.627	855.064
302.906	16.013	1149.017	854.848
303.920	16.094	1148.218	854.589
304.935	16.095	1147.586	854.047
305.949	16.192	1146.698	853.800
306.964	16.187	1145.874	853.086
307.979	16.100	1145.753	852.483
308.993	16.092	1144.887	851.723
310.008	16.108	1143.978	851.052
311.022	16.189	1143.192	850.801
312.037	16.195	1142.123	849.959
313.052	16.250	1141.131	849.425
314.066	16.156	1140.437	848.359
315.081	16.205	1139.417	847.774
316.095	16.180	1138.612	846.973
317.110	16.145	1138.362	846.534
318.125	16.257	1137.139	846.111
319.139	16.191	1136.486	845.218
320.154	16.215	1136.176	845.037
321.168	16.116	1135.477	843.947
322.183	16.211	1134.608	843.700
323.197	16.162	1134.156	843.045
324.212	16.227	1133.353	842.697
325.227	16.333	1132.523	842.532
326.241	16.217	1132.508	841.868
327.256	16.281	1131.250	841.179
328.270	16.347	1130.281	840.713
329.285	16.297	1129.288	839.654
330.300	16.376	1128.180	839.144
331.314	16.322	1127.658	838.415
332.329	16.316	1126.673	837.581
333.343	16.357	1125.750	837.022
334.358	16.371	1125.043	836.490
335.373	16.421	1124.200	836.036
336.387	16.551	1122.982	835.700
337.402	16.595	1122.633	835.586
338.416	16.456	1121.939	834.310
339.431	16.541	1121.550	834.364
340.446	16.533	1120.215	833.258
341.460	16.554	1120.035	833.153
342.475	16.585	1119.087	832.525
343.489	16.585	1118.230	831.817
344.504	16.565	1117.373	831.008
345.519	16.647	1116.282	830.524
346.533	16.625	1115.892	830.054
347.548	16.728	1114.772	829.651
348.562	16.727	1113.944	828.956
349.577	16.718	1113.033	828.161
350.592	16.737	1112.541	827.815
351.606	16.694	1111.664	826.878
352.621	16.719	1111.089	826.501
353.635	16.733	1110.575	826.112
354.650	16.729	1109.691	825.364
355.665	16.628	1109.359	824.548
356.679	16.637	1108.884	824.169
357.694	16.840	1107.915	824.361
358.708	16.768	1107.231	823.432
359.723	16.867	1106.585	823.359
360.738	16.881	1105.643	822.653
361.752	16.818	1105.526	822.186
362.767	16.838	1104.846	821.704
363.781	16.832	1103.919	820.915
364.796	16.890	1103.303	820.662
365.810	17.029	1102.825	820.910
366.825	16.925	1102.298	819.940
367.840	17.005	1101.518	819.676
368.854	17.026	1100.915	819.253
369.869	17.111	1100.177	819.042
370.883	17.017	1099.205	817.794
371.898	16.976	1098.952	817.334
372.913	16.965	1098.451	816.840
373.927	17.012	1097.742	816.464
374.942	17.215	1096.622	816.537
375.956	17.228	1096.035	816.090
376.971	17.077	1096.173	815.391
377.986	17.223	1095.330	815.397
379.000	17.153	1094.774	814.573
380.015	17.250	1094.018	814.405
381.029	17.279	1093.306	813.942
382.044	17.296	1092.628	813.446
383.059	17.348	1091.692	812.926
384.073	17.417	1091.037	812.694
385.088	17.270	1090.346	811.405
386.102	17.365	1089.252	810.971
387.117	17.396	1088.414	810.425
388.132	17.248	1087.468	808.947
389.146	17.176	1086.733	807.983
390.161	17.326	1086.086	808.142
391.175	17.256	1085.199	807.081
392.190	17.367	1084.584	807.078
393.205	17.480	1083.636	806.836
394.219	17.295	1083.307	805.642
395.234	17.351	1082.309	805.096
396.248	17.408	1081.055	804.362
397.263	17.464	1079.880	803.680
398.278	17.479	1079.161	803.143
399.292	17.544	1078.331	802.760
400.307	17.489	1077.687	801.954
401.321	17.423	1077.033	801.083
402.336	17.455	1076.623	800.860
403.350	17.474	1076.018	800.426
404.365	17.478	1075.598	800.065
405.380	17.532	1074.431	799.378
406.394	17.432	1073.994	798.510
407.409	17.472	1073.487	798.254
408.423	17.556	1072.403	797.768
409.438	17.665	1071.656	797.652
410.453	17.688	1071.065	797.253
411.467	17.662	1070.569	796.689
412.482	17.708	1069.439	795.995
413.496	17.634	1069.293	795.470
414.511	17.740	1068.492	795.297
415.526	17.783	1067.985	795.050
416.540	17.793	1067.314	794.526
417.555	17.786	1066.904	794.118
418.569	17.827	1066.454	793.903
419.584	17.891	1065.788	793.634
420.599	17.970	1064.903	793.274
421.613	109.741	1333.316	1494.280
422.628	101.441	1372.345	1494.351
