DTS Sentinel unit serial number:	SN413079Multiplexer serial number:	ORYXHardware model number:	OX4-SRSoftware version number:	ORYX F/W v4.00 Oryx Data Collector v3.7.2.0data status	okinstallation	princeton_trtdifferential loss correction	single-endedforward channel	channel 2reverse channel	N/Adate	2019/09/19time	09:55:35forward acquisition time	60.00reverse acquisition time	0.00gamma	496.2192k internal	0.2347k external	0.2347temperature offset calibration	1.0005default loss term (dB/km)	0.3790temperature slope calibration	1.0000multiplexer offset coefficient	1.0000multiplexer slope coefficient	1.0000fibre end	0.00T internal ref (°C)	23.62T ext. ref 1 (°C)	0.66T ext. ref 2 (°C)	19.40length (m)	temperature (°C)	Stokes	anti-Stokes-747.200	800.000	0.043	0.186
-746.185	226.952	-0.202	0.328
-745.171	180.321	0.333	0.489
-744.156	268.821	0.124	0.217
-743.142	5.287	0.097	0.072
-742.127	210.094	-0.044	0.068
-741.112	-163.591	-0.282	0.013
-740.098	251.434	-0.162	0.276
-739.083	-122.571	0.216	0.035
-738.069	-25.948	-0.233	-0.137
-737.054	-109.134	-0.310	-0.066
-736.039	489.509	-0.163	-0.372
-735.025	800.000	-0.042	0.162
-734.010	151.435	-0.149	0.203
-732.996	-25.314	0.061	0.036
-731.981	-200.000	-0.005	-0.180
-730.966	372.375	-0.081	-0.165
-729.952	261.857	-0.136	-0.235
-728.937	-79.105	-0.480	0.163
-727.923	-200.000	0.031	0.202
-726.908	-200.000	-0.003	-0.171
-725.894	-102.565	-0.499	0.119
-724.879	419.615	0.132	-0.282
-723.864	-150.752	0.061	-0.005
-722.850	-200.000	-0.024	0.209
-721.835	-60.377	0.289	0.123
-720.821	800.000	0.046	-0.158
-719.806	-66.896	0.115	0.045
-718.791	-84.313	-0.268	-0.085
-717.777	-92.522	-0.337	-0.095
-716.762	-24.179	0.272	0.162
-715.748	435.065	0.010	-0.022
-714.733	10.346	-0.366	-0.278
-713.718	550.273	0.101	-0.241
-712.704	143.990	0.234	0.312
-711.689	-200.000	-0.009	0.076
-710.675	-200.000	0.049	-0.331
-709.660	216.520	0.115	0.182
-708.645	-13.073	-0.105	-0.068
-707.631	193.108	0.146	-0.220
-706.616	-127.513	0.221	-0.032
-705.602	-22.621	-0.181	0.109
-704.587	12.738	0.060	0.047
-703.572	22.768	-0.384	0.314
-702.558	-37.955	-0.138	-0.073
-701.543	43.930	-0.064	-0.058
-700.529	-124.172	0.400	0.063
-699.514	268.083	0.075	0.131
-698.499	80.762	-0.108	-0.116
-697.485	218.952	-0.211	-0.336
-696.470	-200.000	-0.007	0.360
-695.456	800.000	-0.042	0.151
-694.441	-95.715	-0.353	0.094
-693.426	330.244	0.075	-0.144
-692.412	-74.346	0.218	-0.079
-691.397	-107.564	-0.048	0.010
-690.383	10.460	-0.046	0.035
-689.368	-12.695	0.105	0.068
-688.354	-200.000	-0.005	0.054
-687.339	800.000	0.060	0.240
-686.324	156.549	-0.233	0.321
-685.310	-156.890	-0.350	-0.021
-684.295	800.000	0.120	-0.380
-683.281	800.000	0.064	-0.257
-682.266	-146.359	-0.201	-0.018
-681.251	203.457	-0.058	0.090
-680.237	372.119	0.016	0.033
-679.222	-58.619	-0.108	0.047
-678.208	-168.947	0.357	0.013
-677.193	-94.953	0.208	-0.056
-676.178	66.299	0.091	0.092
-675.164	-112.306	0.315	-0.063
-674.149	170.083	-0.076	0.108
-673.135	-6.904	0.125	0.085
-672.120	-16.467	0.119	-0.075
-671.105	-133.946	0.028	0.003
-670.091	-71.869	-0.282	-0.105
-669.076	-23.243	0.104	0.062
-668.062	305.397	0.112	-0.208
-667.047	277.569	-0.106	-0.189
-666.032	170.975	-0.107	0.152
-665.018	244.256	-0.114	-0.191
-664.003	259.189	-0.151	0.260
-662.989	31.459	0.090	-0.077
-661.974	32.634	0.161	0.139
-660.959	450.197	-0.067	0.146
-659.945	-200.000	0.023	0.240
-658.930	502.803	-0.142	-0.327
-657.916	-200.000	-0.013	-0.306
-656.901	-110.127	-0.236	-0.049
-655.886	39.708	-0.135	-0.121
-654.872	-200.000	-0.016	-0.465
-653.857	70.990	0.255	-0.263
-652.843	800.000	0.087	-0.368
-651.828	254.871	-0.184	-0.314
-650.814	113.200	0.294	0.355
-649.799	17.929	0.173	0.138
-648.784	-66.563	-0.246	0.097
-647.770	-200.000	0.050	-0.443
-646.755	-46.397	0.437	-0.214
-645.741	800.000	-0.084	-0.267
-644.726	800.000	0.122	0.445
-643.711	550.908	0.064	-0.153
-642.697	126.312	0.201	-0.254
-641.682	19.820	-0.253	0.203
-640.668	-200.000	0.010	0.263
-639.653	124.767	0.124	-0.155
-638.638	272.984	-0.069	0.121
-637.624	-200.000	-0.007	-0.106
-636.609	800.000	0.027	-0.088
-635.595	-9.080	-0.246	0.164
-634.580	-79.030	0.083	-0.028
-633.565	-127.011	0.161	0.024
-632.551	-200.000	-0.042	-0.184
-631.536	94.697	-0.094	-0.106
-630.522	88.452	0.106	-0.118
-629.507	-200.000	0.019	-0.187
-628.492	-69.804	0.147	0.056
-627.478	-200.000	0.023	0.315
-626.463	-65.959	0.091	0.036
-625.449	285.767	-0.120	-0.215
-624.434	-119.475	-0.113	-0.019
-623.419	-200.000	0.006	0.118
-622.405	5.657	0.140	-0.103
-621.390	-34.991	-0.157	-0.085
-620.376	291.165	-0.098	-0.178
-619.361	113.712	-0.178	-0.215
-618.346	-84.553	0.077	-0.024
-617.332	234.539	0.263	-0.431
-616.317	-149.875	-0.518	0.040
-615.303	800.000	-0.067	-0.284
-614.288	-200.000	-0.004	0.130
-613.273	800.000	0.053	-0.189
-612.259	136.062	-0.172	0.222
-611.244	3.401	-0.208	0.151
-610.230	-200.000	0.018	-0.272
-609.215	-146.201	-0.509	0.044
-608.201	196.557	-0.110	-0.166
-607.186	-200.000	0.043	0.449
-606.171	-200.000	-0.019	-0.292
-605.157	-157.531	0.279	-0.017
-604.142	-91.941	0.307	-0.087
-603.128	-200.000	-0.072	-0.564
-602.113	64.018	0.265	-0.265
-601.098	-102.722	-0.235	0.056
-600.084	-139.014	0.039	-0.004
-599.069	-200.000	-0.051	0.227
-598.055	317.820	-0.148	0.279
-597.040	-200.000	0.000	0.229
-596.025	60.286	-0.078	-0.077
-595.011	-82.622	-0.185	-0.060
-593.996	-159.901	-0.080	-0.004
-592.982	187.056	0.050	0.073
-591.967	58.171	0.261	0.255
-590.952	37.090	-0.234	0.206
-589.938	-93.529	-0.183	-0.050
-588.923	-77.096	0.425	-0.147
-587.909	800.000	-0.072	0.227
-586.894	173.390	-0.101	-0.145
-585.879	72.123	-0.179	0.185
-584.865	-45.161	-0.137	0.067
-583.850	-200.000	0.018	-0.113
-582.836	-200.000	0.000	0.287
-581.821	56.210	-0.176	0.169
-580.806	-19.903	0.361	-0.221
-579.792	-200.000	-0.002	0.255
-578.777	-128.681	0.226	-0.032
-577.763	766.202	-0.020	0.055
-576.748	18.381	0.217	-0.172
-575.733	47.647	0.128	-0.118
-574.719	154.941	0.069	-0.094
-573.704	631.652	-0.034	-0.085
-572.690	-200.000	-0.019	-0.136
-571.675	19.293	0.212	-0.169
-570.661	42.760	0.251	-0.227
-569.646	219.343	-0.046	0.074
-568.631	-102.662	0.319	-0.076
-567.617	491.717	-0.089	0.202
-566.602	736.316	0.081	0.216
-565.588	-13.356	0.203	0.131
-564.573	136.816	-0.154	0.200
-563.558	-25.743	0.043	0.025
-562.544	125.804	0.183	-0.229
-561.529	256.409	-0.117	-0.199
-560.515	800.000	-0.086	-0.334
-559.500	358.396	0.082	0.163
-558.485	-9.875	-0.170	0.112
-557.471	-87.742	-0.107	-0.032
-556.456	55.449	0.157	-0.151
-555.442	-128.061	0.160	-0.023
-554.427	-200.000	0.083	-0.383
-553.412	-90.682	-0.239	-0.068
-552.398	-131.425	0.037	0.005
-551.383	-41.196	0.013	-0.007
-550.369	-109.535	-0.295	0.062
-549.354	-193.142	0.209	-0.002
-548.339	-79.155	-0.344	-0.116
-547.325	-84.763	-0.193	-0.060
-546.310	-18.212	-0.248	0.154
-545.296	255.493	-0.090	0.152
-544.281	48.734	-0.174	-0.162
-543.266	89.442	-0.275	-0.304
-542.252	73.895	0.241	-0.251
-541.237	800.000	0.034	0.141
-540.223	800.000	0.065	-0.242
-539.208	-200.000	0.020	-0.246
-538.193	-149.250	-0.434	0.034
-537.179	312.912	0.218	0.406
-536.164	-200.000	-0.030	0.345
-535.150	-200.000	0.005	-0.189
-534.135	0.806	-0.353	0.250
-533.121	106.656	0.194	-0.228
-532.106	-31.382	-0.101	-0.056
-531.091	-5.166	-0.142	-0.097
-530.077	800.000	-0.073	0.281
-529.062	-200.000	0.032	-0.396
-528.048	-75.327	-0.244	-0.086
-527.033	-35.787	0.422	-0.227
-526.018	-109.861	-0.306	-0.064
-525.004	-75.866	-0.270	-0.095
-523.989	245.108	-0.112	-0.187
-522.975	83.972	-0.089	0.096
-521.960	800.000	-0.030	-0.095
-520.945	30.497	0.071	0.060
-519.931	350.333	-0.012	0.023
-518.916	-200.000	-0.010	-0.126
-517.902	-200.000	0.028	-0.209
-516.887	-102.497	-0.300	0.071
-515.872	-142.530	0.266	-0.026
-514.858	800.000	0.024	-0.070
-513.843	800.000	0.041	0.148
-512.829	-200.000	-0.010	0.293
-511.814	31.043	-0.121	0.103
-510.799	-72.556	0.074	-0.027
-509.785	-29.280	-0.126	0.072
-508.770	679.147	0.097	0.250
-507.756	-200.000	-0.010	0.072
-506.741	-15.231	0.348	0.221
-505.726	-200.000	0.044	0.205
-504.712	-200.000	-0.015	-0.175
-503.697	-200.000	-0.042	0.263
-502.683	-158.123	-0.050	0.003
-501.668	139.324	0.121	0.158
-500.653	-200.000	0.080	-0.485
-499.639	-132.492	0.282	-0.036
-498.624	-78.300	0.227	0.077
-497.610	300.189	0.093	-0.171
-496.595	-74.691	0.085	0.030
-495.581	-200.000	-0.005	-0.056
-494.566	-113.971	-0.199	0.038
-493.551	-66.425	0.187	-0.073
-492.537	-47.815	-0.131	0.063
-491.522	-125.245	0.098	0.015
-490.508	-156.831	-0.223	0.014
-489.493	-200.000	0.053	0.436
-488.478	-200.000	0.020	0.166
-487.464	-23.175	-0.103	-0.061
-486.449	-200.000	-0.444	0.002
-485.435	800.000	0.036	0.147
-484.420	114.168	-0.167	0.201
-483.405	-200.000	-0.061	-0.342
-482.391	122.150	-0.229	0.283
-481.376	800.000	-0.069	0.263
-480.362	47.861	-0.101	0.093
-479.347	187.378	0.174	0.256
-478.332	22.885	-0.110	0.090
-477.318	-25.831	-0.248	0.145
-476.303	30.219	0.164	0.139
-475.289	-4.139	0.246	0.169
-474.274	-200.000	-0.013	-0.383
-473.259	-34.281	0.234	-0.127
-472.245	30.874	-0.085	-0.072
-471.230	-28.864	0.293	-0.167
-470.216	800.000	0.148	0.478
-469.201	-14.759	-0.054	0.034
-468.186	418.586	0.042	0.088
-467.172	-199.186	0.259	-0.001
-466.157	800.000	0.159	-0.452
-465.143	800.000	-0.027	0.074
-464.128	358.491	0.030	-0.059
-463.113	-180.996	0.069	-0.001
-462.099	177.757	-0.177	0.255
-461.084	-200.000	0.018	-0.091
-460.070	-131.124	0.024	-0.003
-459.055	-17.766	-0.327	0.203
-458.040	-4.394	-0.113	-0.078
-457.026	-184.444	0.256	0.004
-456.011	-129.052	-0.067	0.009
-454.997	580.165	0.106	0.257
-453.982	-138.505	0.428	-0.047
-452.968	-114.806	0.172	-0.032
-451.953	422.174	0.109	0.231
-450.938	-186.600	0.167	0.002
-449.924	9.107	0.234	-0.175
-448.909	-200.000	0.029	0.364
-447.895	188.156	0.175	0.259
-446.880	-200.000	0.001	-0.170
-445.865	-200.000	-0.003	-0.225
-444.851	4.814	-0.103	-0.075
-443.836	-148.713	0.241	-0.019
-442.822	-92.266	-0.142	0.039
-441.807	-25.240	-0.145	-0.085
-440.792	97.542	0.160	0.182
-439.778	-140.722	-0.373	0.038
-438.763	-200.000	0.016	0.160
-437.749	-49.850	-0.358	-0.168
-436.734	137.396	0.092	-0.119
-435.719	361.485	-0.098	-0.193
-434.705	-200.000	-0.009	0.135
-433.690	134.692	0.096	-0.123
-432.676	-200.000	0.009	0.154
-431.661	-57.487	-0.057	-0.025
-430.646	-70.160	-0.168	-0.063
-429.632	-117.861	-0.264	0.047
-428.617	800.000	0.031	-0.088
-427.603	89.077	-0.163	0.179
-426.588	-30.433	-0.118	-0.066
-425.573	-89.937	-0.300	-0.086
-424.559	800.000	0.047	0.132
-423.544	-74.703	0.087	0.031
-422.530	800.000	-0.052	0.144
-421.515	800.000	-0.071	-0.240
-420.500	638.561	-0.103	-0.259
-419.486	299.208	-0.161	0.292
-418.471	-200.000	0.020	-0.272
-417.457	-120.078	-0.105	0.018
-416.442	-200.000	-0.010	-0.225
-415.428	-110.718	0.191	-0.039
-414.413	202.406	0.088	-0.134
-413.398	439.897	-0.086	-0.184
-412.384	12.041	-0.142	0.108
-411.369	-11.124	-0.253	0.165
-410.355	-118.742	0.171	0.030
-409.340	-80.577	-0.311	0.102
-408.325	-24.619	0.264	0.155
-407.311	-122.863	0.178	-0.028
-406.296	-185.657	0.187	0.003
-405.282	-200.000	0.055	-0.292
-404.267	-47.414	0.427	0.205
-403.252	-200.000	0.009	0.054
-402.238	-181.875	0.156	0.003
-401.223	-65.115	0.188	-0.075
-400.209	-110.831	-0.139	-0.028
-399.194	33.467	-0.183	0.157
-398.179	-162.485	-0.106	0.005
-397.165	800.000	-0.059	0.176
-396.150	73.259	0.119	-0.122
-395.136	800.000	0.049	-0.174
-394.121	53.496	0.199	-0.188
-393.106	41.878	0.163	-0.146
-392.092	-50.555	0.227	0.106
-391.077	160.762	0.122	-0.168
-390.063	-88.838	0.144	-0.042
-389.048	72.093	-0.187	-0.192
-388.033	800.000	0.069	-0.209
-387.019	41.012	0.149	0.132
-386.004	-79.929	0.685	0.227
-384.990	-147.168	-0.061	-0.005
-383.975	-66.020	0.311	0.122
-382.960	-142.364	-0.155	0.015
-381.946	-72.147	-0.068	0.025
-380.931	-10.258	-0.171	0.112
-379.917	-3.001	-0.259	-0.178
-378.902	-47.709	-0.358	-0.171
-377.888	-200.000	0.030	0.175
-376.873	-200.000	-0.001	-0.015
-375.858	31.958	-0.303	-0.258
-374.844	-158.399	0.264	0.015
-373.829	40.507	-0.190	0.169
-372.815	-155.415	-0.122	0.008
-371.800	-105.554	-0.153	-0.034
-370.785	440.148	0.088	-0.190
-369.771	-88.733	-0.274	0.080
-368.756	76.524	0.451	-0.471
-367.742	303.929	-0.162	-0.295
-366.727	-3.483	0.076	-0.052
-365.712	-69.568	-0.107	0.040
-364.698	800.000	-0.099	-0.337
-363.683	-200.000	0.023	0.113
-362.669	-200.000	-0.028	-0.222
-361.654	-132.233	-0.154	0.020
-360.639	-96.510	-0.161	-0.042
-359.625	236.838	-0.008	0.013
-358.610	386.599	0.053	0.108
-357.596	160.851	-0.073	-0.100
-356.581	-39.978	0.093	-0.048
-355.566	125.255	-0.225	-0.279
-354.552	103.371	0.225	-0.260
-353.537	800.000	-0.036	-0.108
-352.523	-200.000	-0.015	-0.160
-351.508	-99.000	0.320	0.080
-350.493	-109.970	0.123	-0.025
-349.479	66.902	0.231	0.232
-348.464	85.155	0.253	-0.273
-347.450	-178.248	-0.210	0.005
-346.435	73.598	-0.093	0.095
-345.420	44.636	0.259	0.235
-344.406	155.100	-0.042	-0.057
-343.391	-15.893	0.078	-0.049
-342.377	138.529	0.110	0.142
-341.362	800.000	-0.039	0.144
-340.348	-38.338	0.237	-0.123
-339.333	-24.773	-0.243	-0.142
-338.318	800.000	0.017	0.059
-337.304	-52.241	0.040	0.018
-336.289	800.000	-0.059	0.168
-335.275	154.471	-0.186	-0.252
-334.260	800.000	-0.016	0.059
-333.245	407.357	-0.096	0.199
-332.231	-174.855	0.185	-0.005
-331.216	-65.473	-0.179	0.071
-330.202	-170.500	-0.314	0.011
-329.187	201.191	-0.093	-0.140
-328.172	-170.683	-0.094	-0.003
-327.158	222.701	-0.089	-0.142
-326.143	-200.000	0.012	-0.090
-325.129	218.885	-0.103	-0.162
-324.114	-116.385	0.221	-0.040
-323.099	800.000	-0.069	0.276
-322.085	-87.948	-0.050	0.015
-321.070	-79.555	-0.197	-0.065
-320.056	-65.856	0.319	0.126
-319.041	-117.167	0.086	0.015
-318.026	-46.020	-0.025	0.012
-317.012	70.772	0.174	0.177
-315.997	-200.000	0.051	0.221
-314.983	-200.000	0.051	-0.367
-313.968	-111.936	0.140	0.028
-312.953	88.233	0.147	-0.160
-311.939	238.377	-0.159	0.259
-310.924	-14.909	-0.094	0.059
-309.910	-43.022	0.389	-0.194
-308.895	240.142	0.069	-0.113
-307.880	-200.000	0.047	-0.353
-306.866	-97.411	0.065	0.017
-305.851	800.000	0.062	-0.170
-304.837	-200.000	0.018	0.162
-303.822	-200.000	-0.009	0.246
-302.807	-200.000	-0.000	0.087
-301.793	-200.000	0.004	0.025
-300.778	96.832	-0.135	0.152
-299.764	546.603	0.106	0.249
-298.749	388.649	-0.052	0.106
-297.735	90.169	0.027	-0.029
-296.720	-171.152	-0.368	-0.012
-295.705	633.995	-0.065	0.161
-294.691	138.300	0.041	0.052
-293.676	159.644	-0.156	-0.213
-292.662	-200.000	0.065	-0.357
-291.647	526.726	0.006	0.014
-290.632	-9.330	-0.231	0.151
-289.618	519.142	-0.176	0.406
-288.603	147.633	-0.220	-0.291
-287.589	-137.043	-0.242	-0.027
-286.574	-200.000	-0.075	-0.358
-285.559	-24.059	0.283	0.166
-284.545	8.454	0.101	0.074
-283.530	90.816	0.091	0.101
-282.516	57.897	0.149	0.143
-281.501	198.050	0.185	-0.277
-280.486	-200.000	0.037	0.241
-279.472	800.000	-0.079	0.262
-278.457	97.094	-0.328	-0.369
-277.443	-200.000	0.045	0.228
-276.428	-61.451	0.247	-0.102
-275.413	48.213	0.064	0.059
-274.399	-101.839	0.239	-0.057
-273.384	395.399	-0.220	-0.450
-272.370	-46.095	-0.123	-0.060
-271.355	-200.000	0.032	-0.208
-270.340	-112.833	0.198	-0.039
-269.326	-136.931	0.092	-0.010
-268.311	348.128	0.038	-0.073
-267.297	23.415	-0.292	-0.235
-266.282	800.000	-0.121	0.495
-265.267	-200.000	-0.092	0.449
-264.253	119.833	-0.292	0.355
-263.238	45.501	0.145	-0.132
-262.224	242.244	0.048	0.079
-261.209	143.668	-0.031	0.040
-260.195	-61.398	0.191	-0.079
-259.180	92.233	-0.112	-0.123
-258.165	106.198	0.191	0.222
-257.151	114.305	-0.113	0.135
-256.136	-115.271	0.173	0.032
-255.122	24.669	0.325	0.264
-254.107	593.269	0.028	-0.067
-253.092	-32.168	0.258	0.141
-252.078	-13.578	-0.213	-0.135
-251.063	-200.000	0.025	0.231
-250.049	455.340	-0.025	-0.054
-249.034	-134.270	-0.344	0.041
-248.019	-103.217	0.349	-0.081
-247.005	-200.000	-0.030	-0.208
-245.990	-130.788	-0.084	-0.011
-244.976	212.592	-0.165	0.255
-243.961	800.000	0.094	0.290
-242.946	10.225	-0.126	-0.094
-241.932	-200.000	-0.047	0.326
-240.917	63.670	-0.120	0.118
-239.903	-173.038	0.068	0.002
-238.888	5.942	0.307	-0.223
-237.873	90.413	-0.066	0.072
-236.859	574.605	0.132	0.316
-235.844	37.553	-0.115	-0.100
-234.830	-200.000	-0.019	-0.108
-233.815	109.355	-0.183	-0.215
-232.800	-114.550	0.181	-0.034
-231.786	-72.552	0.195	0.071
-230.771	-89.247	0.157	-0.045
-229.757	-161.650	-0.233	0.012
-228.742	7.434	0.139	-0.102
-227.727	800.000	0.075	0.222
-226.713	382.329	-0.122	0.247
-225.698	-105.256	0.388	0.087
-224.684	-55.476	-0.304	-0.134
-223.669	127.418	0.120	0.149
-222.655	-200.000	0.020	0.110
-221.640	131.153	0.250	0.314
-220.625	-121.252	0.132	-0.022
-219.611	512.396	-0.084	-0.193
-218.596	-200.000	0.006	0.148
-217.582	-38.029	0.296	0.154
-216.567	-101.419	0.329	0.079
-215.552	1.942	0.236	0.167
-214.538	81.251	-0.165	0.175
-213.523	75.243	-0.234	-0.241
-212.509	-33.190	0.258	0.140
-211.494	-109.215	-0.337	0.070
-210.479	158.167	-0.132	0.179
-209.465	217.174	0.072	-0.112
-208.450	-27.015	-0.256	0.146
-207.436	34.421	-0.124	0.106
-206.421	239.823	0.149	0.243
-205.406	-200.000	-0.031	-0.203
-204.392	-200.000	-0.003	0.113
-203.377	-81.287	-0.383	0.124
-202.363	21.538	-0.070	0.056
-201.348	-58.446	-0.263	0.112
-200.333	-166.280	-0.163	-0.007
-199.319	-116.909	-0.211	-0.038
-198.304	-16.703	0.055	0.034
-197.290	-91.909	-0.237	-0.066
-196.275	-200.000	0.041	0.203
-195.260	-200.000	0.073	0.372
-194.246	190.890	-0.036	-0.053
-193.231	-200.000	0.024	-0.169
-192.217	58.809	0.208	0.200
-191.202	-139.875	-0.253	-0.026
-190.187	60.391	-0.265	-0.257
-189.173	-67.910	0.200	0.076
-188.158	37.518	-0.095	-0.083
-187.144	-54.247	0.245	0.109
-186.129	-119.088	0.206	0.035
-185.114	30.593	-0.128	0.107
-184.100	-200.000	-0.017	-0.176
-183.085	-200.000	0.068	0.425
-182.071	800.000	-0.101	-0.411
-181.056	681.754	0.168	-0.428
-180.042	534.358	-0.063	0.146
-179.027	-200.000	-0.031	-0.212
-178.012	-59.498	0.155	0.065
-176.998	56.777	0.019	0.018
-175.983	-72.320	-0.301	-0.109
-174.969	134.518	0.083	-0.105
-173.954	-34.570	-0.191	-0.102
-172.939	800.000	0.113	0.330
-171.925	603.114	0.020	0.049
-170.910	3.619	0.093	-0.067
-169.896	800.000	0.111	0.301
-168.881	-141.185	-0.251	0.025
-167.866	157.370	0.059	0.080
-166.852	-78.866	0.103	0.034
-165.837	-146.421	0.100	0.009
-164.823	-75.637	0.112	0.039
-163.808	66.787	0.088	0.087
-162.793	-70.897	0.146	-0.054
-161.779	314.933	0.020	-0.036
-160.764	-35.905	-0.412	-0.218
-159.750	-200.000	0.007	-0.167
-158.735	-77.468	-0.310	-0.105
-157.720	312.128	-0.045	-0.082
-156.706	-200.000	-0.017	0.115
-155.691	-25.663	-0.162	0.093
-154.677	-24.167	0.242	-0.141
-153.662	-19.106	-0.214	0.130
-152.647	-128.805	0.342	0.047
-151.633	19.941	0.378	-0.298
-150.618	800.000	-0.056	0.219
-149.604	85.427	0.139	-0.149
-148.589	-6.005	0.152	-0.102
-147.574	-80.037	-0.291	0.095
-146.560	-196.732	0.201	0.001
-145.545	-200.000	-0.029	-0.229
-144.531	-15.418	-0.056	-0.035
-143.516	800.000	0.082	-0.320
-142.502	215.177	0.257	-0.398
-141.487	47.462	0.124	-0.113
-140.472	-129.475	-0.153	-0.021
-139.458	-98.126	0.160	-0.040
-138.443	-60.914	0.057	0.024
-137.429	-13.937	0.283	-0.179
-136.414	-136.144	-0.056	-0.006
-135.399	-23.785	-0.110	-0.064
-134.385	55.799	0.348	0.330
-133.370	321.982	-0.114	0.211
-132.356	-200.000	0.007	0.095
-131.341	482.222	-0.153	-0.339
-130.326	-200.000	0.027	-0.132
-129.312	-200.000	-0.017	0.169
-128.297	502.435	0.073	0.164
-127.283	-40.750	-0.080	0.040
-126.268	800.000	0.102	-0.360
-125.253	184.500	0.184	-0.266
-124.239	-200.000	-0.028	0.345
-123.224	-59.127	0.274	0.115
-122.210	203.391	-0.251	0.379
-121.195	128.918	-0.013	0.016
-120.180	34.408	0.168	0.143
-119.166	163.209	0.151	0.207
-118.151	-97.972	-0.401	-0.101
-117.137	-200.000	0.013	0.062
-116.122	91.985	-0.126	-0.138
-115.107	800.000	-0.074	-0.227
-114.093	221.592	0.191	0.299
-113.078	563.333	0.077	0.182
-112.064	663.082	0.081	0.203
-111.049	-83.953	0.159	-0.049
-110.034	800.000	0.081	0.223
-109.020	-49.676	0.174	-0.081
-108.005	62.034	0.172	0.167
-106.991	222.297	0.070	-0.110
-105.976	124.714	-0.194	0.238
-104.962	-111.204	-0.356	-0.071
-103.947	-158.735	-0.301	-0.017
-102.932	162.068	0.183	0.250
-101.918	-200.000	-0.001	-0.034
-100.903	-69.707	0.358	-0.133
-99.889	120.300	0.079	0.096
-98.874	150.226	0.065	-0.086
-97.859	-137.357	0.400	0.044
-96.845	-59.386	-0.159	-0.067
-95.830	-53.582	0.083	0.037
-94.816	-200.000	0.051	-0.272
-93.801	125.670	-0.088	-0.108
-92.786	107.177	-0.142	-0.164
-91.772	-78.398	-0.156	0.052
-90.757	52.159	-0.062	-0.058
-89.743	-121.249	-0.296	0.048
-88.728	356.139	-0.185	-0.358
-87.713	800.000	-0.111	0.395
-86.699	11.692	0.188	-0.141
-85.684	-200.000	-0.022	0.179
-84.670	-14.128	-0.149	-0.094
-83.655	-200.000	-0.042	0.199
-82.640	57.887	0.134	0.128
-81.626	263.851	-0.167	0.283
-80.611	567.357	0.106	0.250
-79.597	-29.312	0.262	0.146
-78.582	800.000	0.031	0.105
-77.567	-114.369	-0.116	-0.022
-76.553	-11.267	-0.144	-0.093
-75.538	-66.553	0.089	-0.034
-74.524	110.001	-0.188	-0.220
-73.509	-200.000	0.062	-0.475
-72.494	-200.000	0.011	-0.068
-71.480	-141.524	-0.282	0.028
-70.465	-112.439	0.058	-0.011
-69.451	-186.294	0.250	0.004
-68.436	-200.000	0.018	0.102
-67.422	121.112	-0.081	0.098
-66.407	800.000	0.061	-0.254
-65.392	97.459	0.265	0.296
-64.378	-144.937	0.419	-0.037
-63.363	800.000	0.055	0.153
-62.349	-136.620	0.135	-0.015
-61.334	89.606	-1.119	-1.215
-60.319	50.571	0.497	0.457
-59.305	-200.000	-0.253	-1.430
-58.290	111.059	1.060	1.242
-57.276	389.971	0.756	1.526
-56.261	-200.000	121.980	617.607
-55.246	393.135	1566.197	3170.972
-54.232	140.435	2751.279	3533.786
-53.217	88.414	2328.000	2515.948
-52.203	32.824	1930.081	1625.505
-51.188	26.602	1722.454	1402.567
-50.173	24.446	1682.591	1353.717
-49.159	44.825	1749.694	1566.411
-48.144	42.923	1761.635	1562.292
-47.130	26.109	1713.679	1391.400
-46.115	23.643	1698.286	1359.974
-45.100	23.571	1693.088	1355.210
-44.086	23.522	1690.638	1352.825
-43.071	23.460	1688.851	1350.870
-42.057	23.554	1685.855	1349.132
-41.042	23.485	1683.966	1347.044
-40.027	23.464	1682.149	1345.380
-39.013	23.425	1680.022	1343.329
-37.998	23.508	1678.430	1342.631
-36.984	23.630	1676.845	1342.227
-35.969	23.642	1675.466	1341.160
-34.954	23.691	1673.390	1339.815
-33.940	23.580	1672.558	1338.264
-32.925	23.600	1670.464	1336.683
-31.911	23.582	1668.844	1335.196
-30.896	23.550	1667.795	1334.062
-29.881	23.622	1665.595	1332.795
-28.867	23.592	1663.744	1331.031
-27.852	23.628	1662.395	1330.173
-26.838	23.623	1660.976	1328.944
-25.823	23.722	1659.313	1328.305
-24.809	23.655	1658.708	1327.268
-23.794	23.680	1656.970	1326.009
-22.779	23.602	1655.358	1324.087
-21.765	23.707	1653.422	1323.264
-20.750	23.635	1651.869	1321.434
-19.736	23.674	1650.487	1320.566
-18.721	23.711	1649.187	1319.746
-17.706	23.647	1647.748	1318.070
-16.692	23.675	1646.159	1316.953
-15.677	23.583	1645.040	1315.328
-14.663	23.746	1643.152	1314.974
-13.648	23.737	1642.038	1313.962
-12.633	23.633	1640.699	1312.063
-11.619	23.637	1639.248	1310.886
-10.604	23.657	1637.123	1309.283
-9.590	23.625	1636.083	1308.160
-8.575	23.594	1634.845	1306.891
-7.560	23.660	1633.460	1306.217
-6.546	23.609	1632.917	1305.352
-5.531	23.628	1631.500	1304.313
-4.517	23.575	1630.411	1303.003
-3.502	23.721	1628.921	1302.830
-2.487	23.761	1627.412	1301.864
-1.473	23.471	1616.166	1290.707
-0.458	20.938	1597.074	1257.160
0.556	16.502	1599.619	1228.290
1.571	14.389	1624.392	1231.597
2.586	14.086	1636.328	1238.283
3.600	12.993	1581.551	1188.849
4.615	7.475	1472.930	1069.987
5.629	1.789	1413.282	989.707
6.644	0.734	1406.392	977.970
7.659	0.704	1404.996	976.716
8.673	0.604	1404.546	975.676
9.688	0.598	1402.242	973.949
10.702	0.435	1398.836	970.447
11.717	3.199	1403.258	991.247
12.731	10.147	1412.651	1042.718
13.746	15.421	1420.903	1082.833
14.761	17.048	1422.167	1094.198
15.775	16.671	1420.333	1090.266
16.790	15.553	1418.082	1081.247
17.804	14.852	1415.395	1074.596
18.819	14.518	1414.383	1071.585
19.834	14.213	1412.698	1068.257
20.848	13.987	1411.609	1065.888
21.863	13.663	1410.320	1062.749
22.877	13.631	1408.788	1061.291
23.892	13.499	1407.850	1059.650
24.907	13.444	1407.263	1058.759
25.921	13.444	1406.190	1057.862
26.936	13.486	1405.513	1057.527
27.950	13.518	1404.573	1056.928
28.965	13.614	1403.381	1056.551
29.980	13.630	1402.389	1055.809
30.994	13.706	1401.390	1055.448
32.009	13.653	1400.623	1054.441
33.023	13.700	1399.448	1053.765
34.038	13.644	1398.140	1052.328
35.053	13.729	1397.085	1051.978
36.067	13.531	1396.422	1050.135
37.082	13.651	1394.842	1049.610
38.096	13.656	1394.205	1049.074
39.111	13.709	1392.878	1048.314
40.126	13.613	1392.416	1047.266
41.140	13.458	1391.941	1045.840
42.155	13.616	1390.690	1045.801
43.169	13.493	1390.949	1045.127
44.184	13.484	1390.228	1044.437
45.199	13.540	1390.147	1044.638
46.213	13.537	1389.573	1044.094
47.228	13.686	1388.030	1043.780
48.242	13.538	1387.279	1042.191
49.257	13.542	1385.658	1040.910
50.271	13.592	1383.798	1039.733
51.286	13.494	1382.892	1038.347
52.301	13.523	1381.339	1037.271
53.315	13.593	1380.786	1037.198
54.330	13.579	1379.183	1035.816
55.344	13.467	1378.268	1034.339
56.359	13.531	1376.900	1033.618
57.374	13.477	1376.385	1032.807
58.388	13.442	1375.512	1031.840
59.403	13.465	1374.574	1031.191
60.417	13.442	1373.993	1030.517
61.432	13.460	1372.747	1029.607
62.447	13.419	1372.242	1028.878
63.461	13.501	1371.041	1028.398
64.476	13.382	1369.683	1026.549
65.490	13.445	1368.380	1025.870
66.505	13.467	1367.107	1024.963
67.520	13.393	1365.884	1023.501
68.534	13.453	1364.464	1022.713
69.549	13.548	1363.001	1022.113
70.563	13.506	1362.318	1021.251
71.578	13.467	1361.195	1020.080
72.593	13.316	1360.731	1018.714
73.607	13.343	1359.929	1018.188
74.622	13.395	1358.915	1017.657
75.636	13.320	1358.411	1016.729
76.651	13.456	1357.027	1016.441
77.666	13.287	1357.208	1015.447
78.680	13.467	1356.322	1015.801
79.695	13.414	1355.106	1014.475
80.709	13.471	1354.657	1014.397
81.724	13.477	1353.735	1013.651
82.739	13.536	1352.636	1013.099
83.753	13.523	1351.695	1012.225
84.768	13.564	1350.592	1011.563
85.782	13.646	1349.174	1010.914
86.797	13.681	1347.868	1010.054
87.812	13.651	1346.598	1008.833
88.826	13.567	1345.784	1007.624
89.841	13.617	1344.885	1007.166
90.855	13.598	1343.760	1006.117
91.870	13.703	1342.665	1005.846
92.884	13.678	1341.779	1004.941
93.899	13.616	1341.374	1004.172
94.914	13.736	1340.400	1004.081
95.928	13.794	1339.299	1003.517
96.943	13.730	1338.447	1002.408
97.957	13.648	1337.524	1001.133
98.972	13.581	1336.469	999.846
99.987	13.504	1335.633	998.672
101.001	13.557	1334.510	998.061
102.016	13.531	1333.379	996.970
103.030	13.647	1332.592	996.989
104.045	13.603	1331.912	996.127
105.060	13.561	1330.463	994.704
106.074	13.615	1328.913	993.783
107.089	13.514	1327.405	991.960
108.103	13.398	1326.592	990.575
109.118	13.522	1324.464	989.636
110.133	13.488	1323.537	988.656
111.147	13.597	1321.941	988.022
112.162	13.455	1320.741	986.192
113.176	13.643	1319.413	986.232
114.191	13.575	1318.984	985.421
115.206	13.626	1317.408	984.458
116.220	13.630	1315.773	983.174
117.235	13.662	1314.937	982.652
118.249	13.584	1313.704	981.181
119.264	13.556	1313.027	980.425
120.279	13.578	1312.117	979.788
121.293	13.523	1310.978	978.525
122.308	13.408	1310.305	977.255
123.322	13.588	1309.090	977.325
124.337	13.426	1308.114	975.556
125.352	13.574	1306.840	975.393
126.366	13.567	1305.298	974.115
127.381	13.575	1304.194	973.253
128.395	13.608	1303.041	972.497
129.410	13.492	1302.562	971.374
130.424	13.541	1301.193	970.553
131.439	13.557	1300.580	970.105
132.454	13.475	1299.766	968.929
133.468	13.513	1298.721	968.289
134.483	13.602	1297.475	967.797
135.497	13.622	1296.161	966.843
136.512	13.513	1294.961	965.229
137.527	13.504	1294.045	964.410
138.541	13.531	1292.716	963.492
139.556	13.665	1290.882	962.813
140.570	13.498	1290.828	961.720
141.585	13.725	1289.077	961.649
142.600	13.711	1287.733	960.479
143.614	13.699	1287.016	959.786
144.629	13.710	1285.955	958.977
145.643	13.883	1284.045	958.468
146.658	13.710	1283.352	956.865
147.673	13.673	1282.277	955.767
148.687	13.695	1280.738	954.661
149.702	13.648	1279.822	953.625
150.716	13.671	1278.697	952.836
151.731	13.716	1277.092	951.814
152.746	13.692	1276.088	950.842
153.760	13.724	1274.839	950.009
154.775	13.894	1273.836	950.149
155.789	13.729	1272.848	948.389
156.804	13.869	1271.434	948.049
157.819	13.847	1270.187	946.909
158.833	13.899	1269.181	946.374
159.848	13.908	1268.424	945.776
160.862	13.874	1267.106	944.518
161.877	13.787	1266.187	943.255
162.892	13.954	1264.708	943.017
163.906	13.795	1264.320	941.744
164.921	13.768	1263.540	940.923
165.935	13.876	1262.144	940.411
166.950	13.901	1261.525	940.007
167.964	13.938	1261.069	939.796
168.979	13.883	1260.361	938.873
169.994	13.899	1259.572	938.295
171.008	13.969	1258.416	937.747
172.023	13.931	1258.006	937.141
173.037	13.928	1257.111	936.377
174.052	13.949	1256.055	935.621
175.067	13.900	1254.986	934.471
176.081	13.940	1253.828	933.750
177.096	13.976	1252.617	932.966
178.110	14.082	1251.657	932.763
179.125	14.019	1250.547	931.500
180.140	14.030	1249.333	930.576
181.154	13.977	1247.853	929.094
182.169	14.108	1246.826	928.980
183.183	14.066	1246.047	928.083
184.198	14.127	1244.805	927.415
185.213	14.137	1243.472	926.395
186.227	14.138	1242.454	925.563
187.242	14.071	1241.660	924.514
188.256	14.255	1240.248	924.403
189.271	14.200	1239.268	923.286
190.286	14.183	1238.146	922.276
191.300	14.043	1237.446	920.895
192.315	13.959	1237.300	920.239
193.329	14.020	1236.398	919.828
194.344	14.104	1235.754	919.728
195.359	14.138	1234.809	919.136
196.373	14.305	1234.316	919.611
197.388	14.234	1233.838	918.781
198.402	14.298	1233.200	918.576
199.417	14.343	1232.935	918.544
200.432	14.382	1231.586	917.671
201.446	14.487	1230.578	917.421
202.461	14.447	1229.880	916.598
203.475	14.470	1228.886	915.902
204.490	14.425	1227.870	914.814
205.504	14.453	1226.508	913.876
206.519	14.371	1225.159	912.341
207.534	14.419	1224.125	911.751
208.548	14.411	1223.009	910.794
209.563	14.406	1222.198	910.082
210.577	14.451	1221.196	909.501
211.592	14.527	1220.250	909.134
212.607	14.561	1219.293	908.524
213.621	14.581	1218.595	908.033
214.636	14.528	1217.729	907.016
215.650	14.525	1216.926	906.326
216.665	14.555	1215.747	905.529
217.680	14.546	1215.030	904.863
218.694	14.615	1214.298	904.617
219.709	14.589	1213.544	903.831
220.723	14.636	1212.647	903.335
221.738	14.674	1211.620	902.695
222.753	14.732	1210.824	902.339
223.767	14.714	1210.219	901.710
224.782	14.745	1209.821	901.503
225.796	14.707	1209.109	900.688
226.811	14.739	1208.358	900.222
227.826	14.747	1207.742	899.722
228.840	14.677	1206.945	898.673
229.855	14.759	1206.115	898.420
230.869	14.761	1205.321	897.759
231.884	14.717	1204.530	896.851
232.899	14.749	1203.467	896.153
233.913	14.745	1202.657	895.451
234.928	14.770	1202.157	895.130
235.942	14.707	1201.571	894.279
236.957	14.685	1200.574	893.342
237.972	14.733	1199.903	893.018
238.986	14.777	1199.151	892.614
240.001	14.680	1198.682	891.668
241.015	14.760	1197.499	891.135
242.030	14.797	1196.577	890.569
243.045	14.733	1195.951	889.685
244.059	14.791	1195.358	889.472
245.074	14.828	1194.347	888.840
246.088	14.828	1193.416	888.065
247.103	14.998	1192.504	888.210
248.117	15.053	1191.747	887.859
249.132	14.919	1191.142	886.622
250.147	15.025	1189.875	886.159
251.161	15.053	1189.934	886.273
252.176	15.103	1188.930	885.715
253.190	15.096	1188.481	885.264
254.205	15.139	1187.789	884.898
255.220	15.177	1187.182	884.566
256.234	15.277	1186.269	884.337
257.249	15.229	1185.407	883.361
258.263	15.280	1184.824	883.116
259.278	15.276	1184.282	882.615
260.293	15.237	1183.928	882.069
261.307	15.281	1183.222	881.697
262.322	15.164	1182.319	880.332
263.336	15.266	1181.633	880.273
264.351	15.467	1180.772	880.614
265.366	15.371	1180.497	879.825
266.380	15.385	1179.631	879.174
267.395	15.350	1179.131	878.541
268.409	15.415	1178.004	877.962
269.424	15.432	1177.293	877.445
270.439	15.324	1177.397	876.882
271.453	15.486	1176.096	876.678
272.468	15.352	1175.536	875.484
273.482	15.379	1174.653	874.889
274.497	15.349	1174.138	874.275
275.512	15.378	1173.364	873.774
276.526	15.407	1172.511	873.211
277.541	15.501	1171.463	872.840
278.555	15.474	1171.292	872.495
279.570	15.648	1170.049	872.395
280.585	15.594	1169.444	871.586
281.599	15.611	1168.561	870.937
282.614	15.611	1167.305	869.930
283.628	15.608	1166.065	868.909
284.643	15.412	1165.370	867.303
285.657	15.631	1164.437	867.662
286.672	15.625	1163.710	867.014
287.687	15.747	1162.608	866.742
288.701	15.631	1161.912	865.550
289.716	15.665	1161.186	865.111
290.730	15.717	1160.518	864.802
291.745	15.633	1159.979	863.890
292.760	15.717	1158.879	863.428
293.774	15.733	1158.327	863.020
294.789	15.809	1157.865	862.992
295.803	15.785	1157.245	862.329
296.818	15.817	1156.285	861.702
297.833	15.839	1155.109	860.861
298.847	15.785	1154.770	860.255
299.862	15.887	1153.827	860.001
300.876	15.840	1153.094	859.135
301.891	15.809	1152.474	858.442
302.906	15.937	1151.635	858.390
303.920	15.966	1151.183	858.129
304.935	16.046	1150.528	857.969
305.949	15.909	1149.743	856.610
306.964	16.046	1149.034	856.706
307.979	15.908	1148.169	855.283
308.993	15.989	1147.368	855.024
310.008	16.069	1146.558	854.747
311.022	16.026	1145.877	853.948
312.037	16.127	1144.962	853.700
313.052	16.027	1143.934	852.351
314.066	16.064	1142.795	851.616
315.081	16.153	1142.036	851.425
316.095	16.111	1141.056	850.404
317.110	15.970	1140.943	849.534
318.125	15.995	1139.947	848.843
319.139	15.896	1139.398	847.863
320.154	16.044	1138.926	848.184
321.168	16.102	1138.108	847.787
322.183	16.004	1137.974	847.122
323.197	16.150	1136.822	846.923
324.212	16.082	1136.236	846.068
325.227	16.085	1135.934	845.784
326.241	16.171	1134.771	845.272
327.256	16.084	1134.105	844.266
328.270	16.148	1133.261	843.883
329.285	16.212	1132.201	843.340
330.300	16.169	1131.363	842.425
331.314	16.271	1130.593	842.290
332.329	16.244	1129.756	841.458
333.343	16.246	1128.556	840.498
334.358	16.345	1127.658	840.247
335.373	16.229	1127.222	839.273
336.387	16.383	1125.858	838.945
337.402	16.366	1125.308	838.376
338.416	16.293	1125.274	837.917
339.431	16.422	1123.850	837.421
340.446	16.340	1123.627	836.776
341.460	16.377	1123.031	836.441
342.475	16.492	1121.709	835.952
343.489	16.480	1121.061	835.331
344.504	16.441	1120.578	834.707
345.519	16.634	1118.867	834.313
346.533	16.638	1118.438	833.934
347.548	16.520	1117.485	832.572
348.562	16.634	1116.845	832.582
349.577	16.516	1116.278	831.502
350.592	16.596	1115.103	830.948
351.606	16.573	1114.722	830.480
352.621	16.441	1113.831	829.094
353.635	16.623	1113.510	829.672
354.650	16.535	1112.636	828.520
355.665	16.447	1112.210	827.695
356.679	16.607	1110.968	827.481
357.694	16.583	1110.593	827.014
358.708	16.636	1109.896	826.678
359.723	16.611	1109.676	826.318
360.738	16.694	1108.456	825.744
361.752	16.819	1108.133	826.039
362.767	16.788	1107.362	825.238
363.781	16.717	1106.849	824.438
364.796	16.795	1106.423	824.425
365.810	16.702	1105.678	823.350
366.825	16.829	1104.969	823.362
367.840	16.770	1104.422	822.596
368.854	16.897	1103.836	822.702
369.869	17.047	1103.116	822.821
370.883	16.981	1102.122	821.688
371.898	16.939	1101.419	820.887
372.913	16.848	1100.963	820.033
373.927	16.928	1100.446	819.966
374.942	16.968	1099.990	819.744
375.956	16.971	1099.510	819.327
376.971	16.978	1098.911	818.844
377.986	17.049	1098.607	818.886
379.000	17.181	1097.560	818.671
380.015	17.171	1096.684	817.899
381.029	17.159	1095.977	817.237
382.044	17.181	1095.341	816.798
383.059	17.131	1095.135	816.334
384.073	17.123	1094.299	815.597
385.088	17.203	1093.267	815.139
386.102	17.242	1091.893	814.231
387.117	17.136	1091.516	813.371
388.132	17.182	1090.339	812.643
389.146	17.212	1089.325	811.957
390.161	17.009	1088.854	810.567
391.175	17.151	1087.961	810.507
392.190	17.213	1087.131	810.111
393.205	17.309	1086.835	810.277
394.219	17.233	1086.293	809.438
395.234	17.138	1085.376	808.231
396.248	17.323	1083.980	808.000
397.263	17.220	1082.886	806.622
398.278	17.164	1082.308	805.857
399.292	17.365	1081.195	805.908
400.307	17.306	1080.609	805.123
401.321	17.255	1080.250	804.543
402.336	17.271	1079.310	803.848
403.350	17.308	1078.940	803.675
404.365	17.451	1077.953	803.546
405.380	17.428	1077.116	802.739
406.394	17.370	1076.714	802.095
407.409	17.511	1075.503	801.789
408.423	17.492	1074.748	801.065
409.438	17.595	1073.950	800.881
410.453	17.540	1073.546	800.252
411.467	17.602	1073.032	800.087
412.482	17.502	1072.228	798.948
413.496	17.659	1071.139	798.801
414.511	17.634	1070.604	798.216
415.526	17.571	1070.536	797.801
416.540	17.619	1070.219	797.720
417.555	17.778	1069.134	797.582
418.569	17.722	1068.754	796.968
419.584	17.801	1068.270	796.905
420.599	17.844	1067.281	796.295
421.613	107.940	1331.560	1486.636
422.628	99.823	1370.016	1486.702
