DTS Sentinel unit serial number:	SN413079Multiplexer serial number:	ORYXHardware model number:	OX4-SRSoftware version number:	ORYX F/W v4.00 Oryx Data Collector v3.7.2.0data status	okinstallation	princeton_trtdifferential loss correction	single-endedforward channel	channel 2reverse channel	N/Adate	2019/09/17time	16:31:35forward acquisition time	60.00reverse acquisition time	0.00gamma	496.2192k internal	0.2293k external	0.2293temperature offset calibration	0.9985default loss term (dB/km)	0.3790temperature slope calibration	1.0000multiplexer offset coefficient	1.0000multiplexer slope coefficient	1.0000fibre end	0.00T internal ref (°C)	41.62T ext. ref 1 (°C)	0.36T ext. ref 2 (°C)	38.29length (m)	temperature (°C)	Stokes	anti-Stokes-747.200	270.223	0.163	0.293
-746.185	-200.000	0.032	0.270
-745.171	107.639	-0.220	-0.268
-744.156	-50.763	-0.120	0.058
-743.142	-74.118	0.212	-0.079
-742.127	55.155	0.168	0.166
-741.112	-62.336	0.201	-0.085
-740.098	19.584	-0.352	0.290
-739.083	-42.587	0.066	-0.034
-738.069	97.356	-0.496	0.583
-737.054	-47.587	-0.035	0.017
-736.039	-147.754	0.058	-0.005
-735.025	800.000	-0.036	0.112
-734.010	147.376	-0.199	-0.274
-732.996	-143.995	-0.378	-0.036
-731.981	25.945	-0.206	0.176
-730.966	800.000	-0.122	0.363
-729.952	47.343	0.017	0.017
-728.937	800.000	-0.065	-0.278
-727.923	107.479	-0.243	-0.296
-726.908	153.023	0.205	-0.287
-725.894	-170.968	-0.283	-0.010
-724.879	102.575	0.224	0.268
-723.864	-145.316	-0.192	-0.018
-722.850	14.650	-0.303	0.242
-721.835	-52.455	-0.090	-0.043
-720.821	-130.714	0.207	-0.029
-719.806	-200.000	0.000	0.171
-718.791	128.511	-0.196	-0.255
-717.777	-57.971	0.203	0.091
-716.762	544.317	0.037	-0.090
-715.748	-40.820	-0.257	0.136
-714.733	262.390	0.047	0.083
-713.718	786.421	-0.154	0.433
-712.704	-200.000	-0.010	0.279
-711.689	-200.000	0.017	-0.087
-710.675	39.066	-0.071	-0.065
-709.660	-46.348	-0.378	-0.190
-708.645	-58.421	0.181	-0.080
-707.631	800.000	-0.046	-0.132
-706.616	572.214	-0.034	-0.084
-705.602	112.232	-0.043	0.053
-704.587	-15.493	0.139	0.091
-703.572	207.548	0.187	0.298
-702.558	-200.000	0.095	0.000
-701.543	186.460	0.144	-0.219
-700.529	-200.000	0.044	-0.233
-699.514	800.000	-0.021	-0.088
-698.499	141.107	0.387	-0.522
-697.485	-5.394	0.092	0.064
-696.470	800.000	-0.041	0.152
-695.456	56.988	-0.114	0.113
-694.441	-89.903	0.162	0.048
-693.426	800.000	-0.027	-0.116
-692.412	-44.748	-0.109	-0.056
-691.397	-148.948	0.311	-0.026
-690.383	-82.081	0.255	0.085
-689.368	3.575	0.152	0.113
-688.354	5.855	0.169	-0.128
-687.339	77.177	-0.142	0.154
-686.324	54.144	-0.120	0.118
-685.310	199.365	-0.034	0.054
-684.295	800.000	-0.071	0.235
-683.281	-177.988	-0.034	0.001
-682.266	-200.000	-0.028	-0.249
-681.251	0.142	0.297	-0.216
-680.237	-176.629	0.420	-0.011
-679.222	-200.000	-0.036	0.369
-678.208	-126.057	-0.124	-0.019
-677.193	-200.000	0.032	-0.272
-676.178	-80.114	0.209	-0.071
-675.164	-130.292	-0.330	0.046
-674.149	-0.465	0.096	0.070
-673.135	-120.495	-0.412	0.071
-672.120	-47.143	-0.152	-0.075
-671.105	299.361	-0.122	0.229
-670.091	800.000	0.030	-0.090
-669.076	577.092	0.124	-0.310
-668.062	-200.000	0.082	-0.402
-667.047	178.755	-0.064	0.096
-666.032	168.875	-0.104	-0.151
-665.018	11.717	0.221	0.173
-664.003	-116.212	0.195	0.037
-662.989	164.392	0.035	0.050
-661.974	332.991	-0.049	0.097
-660.959	46.932	-0.070	-0.067
-659.945	116.128	0.371	-0.464
-658.930	146.066	-0.133	0.182
-657.916	114.306	-0.157	0.195
-656.901	-200.000	-0.020	-0.295
-655.886	595.017	-0.057	0.143
-654.872	-200.000	0.006	-0.175
-653.857	-88.631	-0.169	-0.051
-652.843	-200.000	0.038	-0.244
-651.828	800.000	-0.017	0.069
-650.814	-200.000	-0.080	-0.360
-649.799	113.561	-0.033	-0.041
-648.784	24.001	-0.088	0.074
-647.770	70.009	-0.022	0.023
-646.755	435.501	-0.049	0.108
-645.741	-78.366	0.151	-0.053
-644.726	-200.000	-0.002	-0.201
-643.711	-20.321	0.232	0.145
-642.697	-127.743	-0.131	-0.019
-641.682	-142.581	0.138	0.014
-640.668	-200.000	-0.006	-0.160
-639.653	-103.821	-0.262	-0.062
-638.638	-97.531	-0.121	0.032
-637.624	-75.618	0.165	0.060
-636.609	5.561	0.126	-0.095
-635.595	-30.627	-0.140	0.081
-634.580	-87.073	0.268	-0.083
-633.565	-112.149	0.375	-0.077
-632.551	-175.447	0.238	-0.007
-631.536	-200.000	-0.029	0.267
-630.522	-80.185	-0.373	-0.127
-629.507	-103.209	-0.171	-0.041
-628.492	-24.095	0.259	-0.157
-627.478	0.851	-0.198	0.144
-626.463	-200.000	0.014	-0.118
-625.449	15.052	0.075	0.060
-624.434	-200.000	-0.026	0.424
-623.419	800.000	0.070	0.199
-622.405	-63.898	-0.211	0.088
-621.390	-200.000	-0.003	0.129
-620.376	-52.327	-0.191	-0.090
-619.361	-59.792	0.203	0.088
-618.346	123.124	0.125	-0.160
-617.332	-20.803	0.109	-0.068
-616.317	74.092	-0.219	0.234
-615.303	751.400	0.072	0.197
-614.288	10.401	0.087	0.067
-613.273	33.735	0.161	-0.143
-612.259	-60.323	0.122	0.053
-611.244	-200.000	-0.003	0.020
-610.230	-200.000	0.039	0.304
-609.215	-89.564	-0.275	-0.082
-608.201	21.314	0.101	0.083
-607.186	449.336	-0.104	0.232
-606.171	800.000	-0.028	-0.125
-605.157	-26.980	-0.048	0.028
-604.142	9.531	0.111	-0.086
-603.128	304.963	0.058	0.109
-602.113	-135.856	0.087	-0.010
-601.098	192.537	0.093	0.143
-600.084	-26.689	0.119	0.071
-599.069	-48.768	-0.254	-0.124
-598.055	1.598	-0.112	-0.082
-597.040	133.213	0.139	0.182
-596.025	91.159	0.239	-0.273
-595.011	204.757	0.168	0.266
-593.996	102.037	-0.044	-0.052
-592.982	290.217	-0.105	-0.194
-591.967	-69.905	-0.131	-0.051
-590.952	555.454	-0.066	0.161
-589.938	-17.003	-0.175	0.112
-588.923	18.634	0.209	-0.170
-587.909	-200.000	0.078	-0.387
-586.894	-85.154	0.137	0.044
-585.879	-200.000	0.011	0.080
-584.865	165.178	0.203	-0.291
-583.850	-200.000	-0.004	0.118
-582.836	17.496	-0.181	-0.146
-581.821	800.000	0.056	0.159
-580.806	125.142	0.078	0.100
-579.792	-200.000	-0.018	0.124
-578.777	-110.962	-0.420	0.088
-577.763	-105.334	-0.201	0.047
-576.748	308.422	0.069	-0.130
-575.733	-200.000	0.045	-0.280
-574.719	-64.419	-0.364	-0.150
-573.704	-200.000	-0.049	0.372
-572.690	58.212	-0.199	-0.198
-571.675	-54.107	0.090	-0.042
-570.661	44.729	0.259	0.242
-569.646	-75.586	-0.226	-0.082
-568.631	65.174	-0.196	-0.201
-567.617	800.000	0.076	0.268
-566.602	800.000	0.071	0.220
-565.588	800.000	0.109	0.328
-564.573	-18.970	0.214	0.135
-563.558	-97.842	-0.112	-0.029
-562.544	38.807	-0.275	-0.250
-561.529	800.000	-0.029	0.085
-560.515	-42.304	-0.352	-0.183
-559.500	800.000	0.016	0.065
-558.485	1.247	-0.192	0.140
-557.471	-67.804	0.069	-0.027
-556.456	38.863	-0.147	-0.134
-555.442	-135.263	0.207	0.025
-554.427	-200.000	0.056	-0.256
-553.412	149.916	0.006	-0.008
-552.398	-35.679	-0.234	0.129
-551.383	580.843	-0.012	-0.031
-550.369	-200.000	-0.023	0.358
-549.354	-68.241	0.093	0.037
-548.339	222.878	0.065	-0.107
-547.325	-200.000	0.017	0.251
-546.310	7.800	-0.228	0.173
-545.296	15.227	0.253	0.201
-544.281	-136.708	0.021	0.002
-543.266	41.961	-0.163	-0.150
-542.252	361.147	-0.080	-0.164
-541.237	111.432	-0.280	-0.343
-540.223	116.406	-0.136	-0.169
-539.208	438.774	-0.112	0.248
-538.193	800.000	0.049	-0.201
-537.179	4.388	0.245	0.182
-536.164	-39.947	0.074	-0.039
-535.150	9.984	0.193	0.148
-534.135	-63.983	-0.445	0.185
-533.121	684.908	0.005	0.013
-532.106	800.000	-0.021	0.081
-531.091	-51.685	-0.413	-0.195
-530.077	800.000	-0.067	-0.246
-529.062	800.000	-0.056	0.240
-528.048	79.253	-0.026	0.029
-527.033	-71.967	-0.222	-0.084
-526.018	144.484	-0.258	0.350
-525.004	-31.086	-0.089	-0.051
-523.989	-94.539	-0.158	0.044
-522.975	-27.459	-0.299	0.176
-521.960	29.622	0.183	-0.158
-520.945	126.551	-0.078	-0.100
-519.931	57.037	-0.192	0.190
-518.916	800.000	0.098	0.357
-517.902	-200.000	0.021	-0.206
-516.887	-131.997	-0.120	0.016
-515.872	800.000	-0.068	-0.192
-514.858	-115.968	0.116	0.022
-513.843	-52.334	0.144	0.068
-512.829	354.545	0.062	-0.125
-511.814	800.000	-0.106	-0.394
-510.799	-88.065	0.217	-0.066
-509.785	192.223	0.117	0.178
-508.770	800.000	0.074	0.260
-507.756	-200.000	0.033	-0.235
-506.741	-139.639	0.109	0.012
-505.726	206.706	0.114	0.181
-504.712	800.000	0.030	0.087
-503.697	-106.815	-0.305	-0.069
-502.683	-176.746	0.135	-0.003
-501.668	-200.000	-0.021	0.098
-500.653	-200.000	-0.004	0.141
-499.639	59.512	0.109	-0.109
-498.624	-49.585	-0.186	0.090
-497.610	800.000	-0.060	-0.174
-496.595	-0.175	-0.093	-0.067
-495.581	-86.576	0.376	0.117
-494.566	800.000	0.034	0.097
-493.551	-84.534	0.376	0.120
-492.537	-200.000	-0.019	-0.208
-491.522	-200.000	0.042	0.436
-490.508	-149.927	0.280	-0.022
-489.493	-85.090	-0.183	0.058
-488.478	83.574	0.131	0.145
-487.464	70.291	-0.350	-0.366
-486.449	-200.000	-0.017	-0.181
-485.435	47.263	0.177	-0.167
-484.420	-14.533	0.227	-0.148
-483.405	135.769	-0.111	-0.146
-482.391	-86.046	-0.175	-0.055
-481.376	800.000	0.065	-0.229
-480.362	-200.000	0.043	0.306
-479.347	0.374	0.108	0.078
-478.332	305.448	0.166	0.312
-477.318	80.182	0.050	0.054
-476.303	48.429	0.122	0.116
-475.289	-200.000	0.037	-0.174
-474.274	117.081	-0.060	-0.075
-473.259	79.172	0.112	0.122
-472.245	-41.348	-0.234	0.122
-471.230	544.948	0.098	0.236
-470.216	316.588	0.153	0.293
-469.201	-33.094	0.042	0.024
-468.186	-36.530	0.176	-0.096
-467.172	33.209	0.325	-0.286
-466.157	475.442	-0.037	-0.084
-465.143	69.140	0.250	-0.260
-464.128	175.155	0.302	0.443
-463.113	-50.171	0.295	-0.141
-462.099	-46.916	-0.137	-0.068
-461.084	800.000	-0.034	-0.098
-460.070	-200.000	-0.007	0.092
-459.055	-64.296	0.162	0.067
-458.040	-33.115	-0.072	-0.040
-457.026	13.260	-0.150	-0.118
-456.011	170.227	-0.030	0.043
-454.997	-96.781	-0.203	-0.054
-453.982	800.000	0.053	0.229
-452.968	-200.000	-0.026	0.364
-451.953	175.236	0.100	-0.146
-450.938	-200.000	0.035	0.160
-449.924	368.352	0.143	0.293
-448.909	-118.181	-0.294	0.053
-447.895	118.391	0.038	-0.047
-446.880	-200.000	-0.054	-0.371
-445.865	800.000	0.068	0.203
-444.851	236.445	0.184	-0.308
-443.836	719.151	0.100	0.270
-442.822	673.449	0.118	0.309
-441.807	119.105	0.208	0.260
-440.792	660.726	0.104	0.272
-439.778	-6.598	0.193	0.133
-438.763	107.382	0.054	0.065
-437.749	-200.000	-0.046	-0.432
-436.734	107.739	0.205	-0.247
-435.719	159.949	-0.130	-0.183
-434.705	-200.000	0.037	-0.314
-433.690	17.541	-0.089	0.072
-432.676	-62.075	0.160	0.067
-431.661	-66.009	0.161	0.065
-430.646	-84.469	-0.118	0.038
-429.632	-3.744	0.145	0.102
-428.617	1.840	-0.039	0.028
-427.603	278.694	-0.059	-0.107
-426.588	-200.000	0.012	0.090
-425.573	-5.753	0.204	-0.141
-424.559	22.485	-0.127	-0.105
-423.544	800.000	0.040	-0.163
-422.530	32.068	-0.173	0.151
-421.515	239.707	0.111	-0.187
-420.500	-148.301	0.300	-0.025
-419.486	-1.189	-0.175	0.125
-418.471	-200.000	-0.004	0.209
-417.457	-112.672	0.163	0.033
-416.442	-83.471	0.238	0.077
-415.428	-71.127	-0.089	0.034
-414.413	-200.000	0.245	-0.001
-413.398	-29.504	0.097	-0.056
-412.384	-43.482	-0.113	0.058
-411.369	-112.028	0.211	-0.043
-410.355	169.261	-0.182	0.262
-409.340	-120.524	0.210	-0.036
-408.325	-200.000	-0.021	-0.177
-407.311	800.000	-0.014	-0.049
-406.296	781.512	-0.013	-0.036
-405.282	-109.097	0.292	0.063
-404.267	409.103	0.128	0.275
-403.252	-140.623	-0.067	-0.007
-402.238	-95.262	0.047	0.013
-401.223	-200.000	0.017	-0.193
-400.209	349.214	-0.078	0.155
-399.194	800.000	0.050	-0.178
-398.179	91.044	-0.152	-0.172
-397.165	123.341	-0.182	0.230
-396.150	-200.000	-0.002	0.250
-395.136	-106.172	0.272	-0.061
-394.121	800.000	0.022	0.076
-393.106	-200.000	-0.035	-0.204
-392.092	327.272	-0.060	-0.117
-391.077	-151.663	-0.162	0.012
-390.063	102.147	0.200	-0.235
-389.048	-49.809	-0.155	0.074
-388.033	-27.890	-0.192	0.112
-387.019	800.000	0.040	-0.120
-386.004	86.774	-0.087	-0.097
-384.990	97.483	-0.205	0.237
-383.975	44.865	0.072	-0.067
-382.960	-110.567	-0.265	0.055
-381.946	-66.949	0.137	0.055
-380.931	-88.980	0.393	-0.117
-379.917	-67.575	0.103	-0.041
-378.902	530.730	0.135	-0.321
-377.888	-154.631	-0.170	0.011
-376.873	-119.656	0.268	-0.047
-375.858	68.687	-0.041	0.042
-374.844	311.747	-0.241	-0.456
-373.829	52.122	-0.108	0.104
-372.815	-200.000	0.006	0.167
-371.800	-20.773	0.107	0.066
-370.785	677.692	-0.139	0.364
-369.771	-121.416	0.353	-0.059
-368.756	-61.096	0.103	-0.044
-367.742	88.077	-0.123	-0.137
-366.727	14.163	0.150	-0.118
-365.712	364.715	0.159	0.322
-364.698	59.691	-0.323	0.321
-363.683	800.000	-0.024	-0.070
-362.669	-17.661	-0.203	0.128
-361.654	45.047	-0.375	-0.348
-360.639	-200.000	0.009	-0.110
-359.625	-6.656	0.053	-0.037
-358.610	800.000	-0.094	-0.328
-357.596	74.026	-0.192	0.203
-356.581	-23.024	0.179	-0.109
-355.566	800.000	-0.032	0.129
-354.552	-121.921	-0.033	-0.005
-353.537	-76.752	0.388	0.137
-352.523	15.764	-0.122	0.097
-351.508	213.712	0.120	0.190
-350.493	-14.190	-0.185	-0.120
-349.479	438.951	-0.064	0.141
-348.464	301.719	0.135	-0.252
-347.450	-200.000	-0.007	0.051
-346.435	-127.771	-0.408	0.059
-345.420	-159.671	-0.301	0.017
-344.406	174.541	-0.088	-0.128
-343.391	188.287	-0.083	-0.125
-342.377	319.299	0.169	-0.323
-341.362	800.000	0.087	-0.263
-340.348	800.000	-0.110	-0.473
-339.333	800.000	0.022	-0.081
-338.318	-200.000	-0.014	0.232
-337.304	103.300	0.057	0.067
-336.289	-43.028	0.234	0.120
-335.275	-38.766	-0.261	0.138
-334.260	42.484	-0.193	-0.177
-333.245	-200.000	-0.008	-0.515
-332.231	555.759	-0.143	-0.348
-331.216	800.000	0.043	-0.162
-330.202	39.248	-0.146	-0.132
-329.187	587.444	-0.054	-0.135
-328.172	-163.808	0.304	-0.014
-327.158	51.955	-0.149	0.142
-326.143	-69.935	-0.161	-0.062
-325.129	-65.866	-0.412	0.166
-324.114	-182.466	0.028	-0.001
-323.099	-95.444	-0.057	0.015
-322.085	0.110	0.261	0.187
-321.070	800.000	0.077	-0.225
-320.056	-182.861	0.086	0.002
-319.041	103.669	0.089	-0.105
-318.026	88.746	-0.047	-0.052
-317.012	185.632	-0.045	0.067
-315.997	104.562	-0.135	-0.160
-314.983	8.010	-0.182	0.137
-313.968	79.505	0.133	0.144
-312.953	-93.550	-0.162	-0.045
-311.939	-75.716	0.147	-0.052
-310.924	209.735	-0.019	-0.030
-309.910	-43.393	0.280	-0.142
-308.895	-102.591	0.271	-0.065
-307.880	-200.000	0.055	-0.266
-306.866	-154.112	-0.543	0.037
-305.851	800.000	-0.020	0.056
-304.837	367.910	-0.052	0.106
-303.822	800.000	-0.045	0.132
-302.807	-200.000	0.060	0.449
-301.793	234.429	0.327	0.542
-300.778	-200.000	0.022	0.135
-299.764	95.013	-0.097	-0.111
-298.749	-3.080	0.214	0.150
-297.735	3.362	-0.140	-0.102
-296.720	-99.398	-0.311	0.079
-295.705	5.860	-0.299	0.223
-294.691	94.702	0.213	0.244
-293.676	800.000	-0.046	0.157
-292.662	-70.629	0.162	-0.061
-291.647	-23.739	-0.157	-0.094
-290.632	-37.921	-0.193	-0.103
-289.618	-200.000	-0.006	-0.382
-288.603	-65.818	0.357	0.144
-287.589	-200.000	0.040	-0.269
-286.574	-125.873	0.366	-0.056
-285.559	185.645	-0.206	0.307
-284.545	-37.693	-0.137	-0.073
-283.530	-9.944	-0.159	0.107
-282.516	171.195	0.174	0.251
-281.501	-27.283	-0.222	-0.130
-280.486	371.990	-0.168	-0.343
-279.472	-106.892	-0.023	0.005
-278.457	92.628	-0.195	0.221
-277.443	354.846	-0.093	0.186
-276.428	-200.000	-0.031	-0.218
-275.413	-200.000	0.001	0.103
-274.399	-200.000	-0.019	0.389
-273.384	-79.168	-0.368	-0.125
-272.370	46.780	0.021	-0.020
-271.355	-200.000	0.047	-0.343
-270.340	188.560	0.061	-0.092
-269.326	-200.000	-0.003	-0.179
-268.311	-200.000	0.043	-0.416
-267.297	-200.000	0.088	-0.491
-266.282	-84.278	0.189	-0.060
-265.267	124.933	-0.153	0.193
-264.253	40.805	-0.057	-0.052
-263.238	-23.366	-0.310	-0.187
-262.224	-81.759	-0.235	0.077
-261.209	-200.000	-0.007	-0.387
-260.195	-71.527	0.605	0.227
-259.180	-104.610	-0.272	-0.063
-258.165	-109.021	-0.295	0.063
-257.151	800.000	0.042	-0.141
-256.136	5.109	0.110	-0.081
-255.122	800.000	-0.029	0.121
-254.107	-90.833	-0.315	0.091
-253.092	52.590	-0.009	0.009
-252.078	-200.000	-0.002	-0.150
-251.063	800.000	0.030	0.113
-250.049	218.347	-0.098	-0.157
-249.034	196.016	-0.216	0.330
-248.019	29.689	0.272	-0.233
-247.005	28.165	-0.043	0.037
-245.990	800.000	0.132	0.377
-244.976	15.961	-0.204	0.161
-243.961	-59.648	-0.202	0.087
-242.946	331.703	0.126	0.243
-241.932	-155.573	-0.147	-0.010
-240.917	-200.000	0.044	0.459
-239.903	62.987	0.047	-0.047
-238.888	-168.220	-0.273	0.011
-237.873	800.000	-0.070	-0.225
-236.859	-41.831	0.128	0.066
-235.844	-99.798	0.030	-0.008
-234.830	49.712	-0.339	-0.321
-233.815	-200.000	0.048	0.221
-232.800	-200.000	0.041	0.336
-231.786	16.907	-0.155	-0.123
-230.771	-196.707	-0.145	-0.001
-229.757	-200.000	-0.014	-0.099
-228.742	151.051	0.034	-0.047
-227.727	-89.842	0.030	-0.009
-226.713	-159.445	-0.208	-0.012
-225.698	-117.034	-0.236	-0.043
-224.684	176.001	0.093	-0.136
-223.669	800.000	0.083	0.238
-222.655	-121.486	0.143	0.024
-221.640	456.280	-0.010	0.023
-220.625	-91.549	0.133	0.038
-219.611	96.325	0.183	0.210
-218.596	-200.000	0.051	-0.297
-217.582	-200.000	0.022	-0.142
-216.567	-200.000	0.028	-0.269
-215.552	-112.516	0.169	-0.034
-214.538	202.538	-0.136	-0.211
-213.523	-124.835	-0.407	-0.063
-212.509	80.577	0.099	-0.107
-211.494	-34.412	-0.170	0.094
-210.479	-40.424	0.208	0.108
-209.465	57.207	0.097	-0.095
-208.450	-200.000	0.002	-0.030
-207.436	-200.000	-0.080	-0.366
-206.421	17.325	0.107	0.085
-205.406	-85.120	0.136	-0.043
-204.392	-26.241	-0.126	0.074
-203.377	800.000	-0.105	0.319
-202.363	-64.647	0.200	0.081
-201.348	101.922	-0.242	-0.283
-200.333	-91.757	0.172	0.049
-199.319	-200.000	0.020	0.145
-198.304	8.840	-0.106	-0.080
-197.290	-200.000	0.012	-0.120
-196.275	164.051	0.226	-0.318
-195.260	-126.886	0.209	0.031
-194.246	-200.000	-0.010	0.295
-193.231	800.000	-0.052	0.177
-192.217	-48.071	-0.267	-0.129
-191.202	-173.344	-0.172	-0.005
-190.187	-200.000	0.028	0.210
-189.173	-200.000	-0.002	-0.296
-188.158	-54.135	-0.240	0.109
-187.144	189.632	0.133	0.199
-186.129	136.818	-0.128	-0.167
-185.114	-87.155	0.112	0.034
-184.100	800.000	0.065	-0.240
-183.085	-123.490	0.267	-0.042
-182.071	-121.867	-0.030	0.005
-181.056	362.303	-0.079	-0.160
-180.042	-55.991	0.170	-0.076
-179.027	40.136	0.217	0.196
-178.012	-20.837	-0.117	0.072
-176.998	-127.033	0.375	0.055
-175.983	786.744	-0.065	-0.178
-174.969	-143.661	0.081	0.008
-173.954	144.266	0.258	0.344
-172.939	22.810	0.310	0.255
-171.925	-200.000	0.024	-0.136
-170.910	800.000	-0.072	-0.298
-169.896	-153.132	-0.179	-0.013
-168.881	-200.000	0.023	-0.180
-167.866	-88.331	0.083	0.025
-166.852	-93.364	-0.078	-0.022
-165.837	-175.255	0.455	0.013
-164.823	-28.611	-0.380	0.219
-163.808	-101.782	0.315	-0.076
-162.793	800.000	-0.053	-0.190
-161.779	144.721	0.111	0.149
-160.764	57.594	0.162	-0.159
-159.750	70.232	-0.115	-0.119
-158.735	369.538	0.064	-0.130
-157.720	203.839	-0.066	0.102
-156.706	-83.543	0.422	-0.135
-155.691	-165.523	-0.291	-0.013
-154.677	677.759	0.053	-0.138
-153.662	-49.929	0.154	-0.073
-152.647	-200.000	-0.003	0.056
-151.633	-74.783	-0.151	-0.054
-150.618	800.000	-0.111	0.321
-149.604	-118.889	-0.213	0.037
-148.589	59.505	0.112	0.110
-147.574	740.531	-0.104	0.278
-146.560	-101.022	0.126	0.031
-145.545	-200.000	-0.032	-0.425
-144.531	5.741	-0.188	-0.139
-143.516	-34.545	-0.246	-0.135
-142.502	-121.762	0.548	0.090
-141.487	-135.427	0.140	0.017
-140.472	-200.000	0.005	-0.045
-139.458	246.279	-0.043	0.073
-138.443	-200.000	0.056	-0.299
-137.429	-49.722	0.069	-0.033
-136.414	9.666	0.101	0.077
-135.399	-200.000	0.036	0.214
-134.385	-95.631	0.118	0.032
-133.370	508.952	0.068	0.157
-132.356	-137.340	-0.481	0.055
-131.341	307.178	0.103	-0.193
-130.326	502.231	0.092	0.212
-129.312	7.902	-0.287	-0.215
-128.297	-25.731	-0.334	0.197
-127.283	352.531	0.109	0.216
-126.268	20.797	-0.237	0.191
-125.253	-109.124	-0.230	-0.049
-124.239	-200.000	-0.030	-0.162
-123.224	-4.274	0.251	-0.174
-122.210	149.640	0.106	0.144
-121.195	4.566	-0.189	0.138
-120.180	4.099	0.345	-0.252
-119.166	-200.000	-0.005	-0.101
-118.151	-200.000	-0.047	0.215
-117.137	-200.000	-0.018	0.165
-116.122	-89.732	0.160	-0.047
-115.107	-73.255	-0.101	-0.037
-114.093	313.654	0.104	-0.195
-113.078	-37.900	0.237	-0.126
-112.064	613.004	0.107	0.267
-111.049	83.640	0.200	0.218
-110.034	-103.374	0.099	0.023
-109.020	-200.000	-0.013	0.377
-108.005	774.456	-0.134	0.365
-106.991	204.479	-0.196	0.303
-105.976	-13.096	-0.144	-0.093
-104.962	23.818	0.136	-0.112
-103.947	800.000	-0.066	0.193
-102.932	-135.064	0.250	0.030
-101.918	-77.236	-0.256	0.089
-100.903	-136.050	0.230	0.027
-99.889	-155.502	0.150	-0.010
-98.874	-20.574	-0.091	0.056
-97.859	-200.000	-0.037	0.251
-96.845	-200.000	-0.047	-0.361
-95.830	-0.458	-0.096	0.068
-94.816	6.069	-0.223	-0.165
-93.801	-32.212	-0.205	0.114
-92.786	19.828	-0.285	0.229
-91.772	-200.000	0.030	0.132
-90.757	71.592	-0.097	-0.100
-89.743	148.597	-0.110	-0.148
-88.728	111.527	-0.235	0.283
-87.713	761.538	-0.208	0.562
-86.699	126.072	0.148	-0.186
-85.684	-200.000	-0.037	0.203
-84.670	474.761	0.137	0.309
-83.655	38.572	0.135	0.120
-82.640	-160.127	-0.212	0.011
-81.626	-104.790	0.223	0.051
-80.611	-86.500	0.387	0.118
-79.597	-133.903	-0.168	-0.021
-78.582	100.538	-0.102	0.118
-77.567	-99.520	-0.225	0.056
-76.553	-137.852	-0.172	-0.019
-75.538	98.418	-0.137	0.158
-74.524	98.050	0.106	-0.122
-73.509	-200.000	-0.012	-0.152
-72.494	-68.071	0.086	0.034
-71.480	-51.134	-0.178	0.083
-70.465	84.316	-0.113	0.124
-69.451	-181.296	0.421	0.008
-68.436	745.796	-0.086	-0.232
-67.422	-65.692	-0.120	-0.048
-66.407	278.432	-0.102	0.182
-65.392	685.939	-0.054	-0.141
-64.378	769.735	-0.162	-0.441
-63.363	-194.590	0.229	-0.002
-62.349	-81.192	-0.123	0.041
-61.334	-81.318	-0.784	-0.258
-60.319	-135.577	0.113	0.013
-59.305	-200.000	-0.105	-0.771
-58.290	-200.000	0.064	0.553
-57.276	257.698	0.722	1.238
-56.261	-200.000	76.395	534.311
-55.246	506.196	1358.179	3135.823
-54.232	135.327	2622.791	3396.879
-53.217	109.902	2390.227	2855.749
-52.203	50.959	1995.933	1884.052
-51.188	44.956	1782.208	1634.333
-50.173	42.035	1736.764	1569.738
-49.159	56.212	1771.148	1712.996
-48.144	62.133	1789.252	1777.090
-47.130	45.024	1752.380	1607.264
-46.115	41.692	1738.578	1568.438
-45.100	41.469	1734.132	1562.619
-44.086	41.607	1730.762	1560.601
-43.071	41.624	1728.021	1558.196
-42.057	41.468	1725.983	1555.083
-41.042	41.523	1723.726	1553.414
-40.027	41.533	1721.689	1551.598
-39.013	41.468	1719.807	1549.331
-37.998	41.486	1718.231	1547.992
-36.984	41.587	1716.725	1547.357
-35.969	41.692	1715.006	1546.556
-34.954	41.812	1713.003	1545.618
-33.940	41.669	1711.244	1542.869
-32.925	41.650	1709.432	1541.027
-31.911	41.664	1707.904	1539.695
-30.896	41.574	1706.402	1537.585
-29.881	41.655	1704.005	1535.985
-28.867	41.603	1702.659	1534.312
-27.852	41.584	1700.789	1532.422
-26.838	41.619	1699.306	1531.290
-25.823	41.643	1697.975	1530.216
-24.809	41.662	1696.507	1528.981
-23.794	41.683	1694.792	1527.535
-22.779	41.608	1693.635	1525.858
-21.765	41.675	1691.541	1524.417
-20.750	41.617	1690.030	1522.558
-19.736	41.680	1688.685	1521.767
-18.721	41.617	1687.101	1519.796
-17.706	41.718	1685.538	1519.093
-16.692	41.596	1683.861	1516.595
-15.677	41.615	1682.255	1515.238
-14.663	41.609	1680.883	1513.896
-13.648	41.646	1679.542	1512.906
-12.633	41.605	1678.308	1511.425
-11.619	41.550	1676.375	1509.209
-10.604	41.622	1674.695	1508.182
-9.590	41.703	1673.250	1507.426
-8.575	41.705	1671.866	1506.137
-7.560	41.590	1670.989	1504.418
-6.546	41.684	1669.499	1503.724
-5.531	41.623	1668.649	1502.442
-4.517	41.609	1667.631	1501.365
-3.502	41.627	1666.318	1500.252
-2.487	41.745	1664.805	1499.715
-1.473	41.953	1653.365	1490.907
-0.458	39.874	1634.506	1458.502
0.556	33.768	1631.380	1414.820
1.571	29.510	1651.978	1400.336
2.586	27.589	1664.557	1396.178
3.600	24.180	1610.483	1325.387
4.615	13.502	1489.657	1151.957
5.629	2.994	1413.219	1023.087
6.644	0.601	1402.180	999.186
7.659	0.316	1401.030	996.397
8.673	0.299	1399.234	994.916
9.688	0.235	1398.053	993.564
10.702	0.076	1394.974	990.248
11.717	4.027	1402.353	1021.501
12.731	13.402	1417.624	1094.814
13.746	18.265	1423.448	1131.443
14.761	17.496	1420.288	1123.760
15.775	16.493	1417.624	1114.938
16.790	15.506	1414.870	1106.179
17.804	14.582	1412.758	1098.346
18.819	14.282	1410.764	1094.724
19.834	13.899	1409.458	1091.099
20.848	13.687	1407.929	1088.431
21.863	13.399	1407.074	1085.783
22.877	13.267	1405.924	1083.934
23.892	13.117	1404.981	1082.127
24.907	13.180	1404.356	1081.960
25.921	13.226	1403.028	1081.144
26.936	13.279	1402.108	1080.690
27.950	13.143	1401.607	1079.318
28.965	13.274	1400.152	1078.954
29.980	13.339	1399.370	1078.679
30.994	13.394	1398.741	1078.460
32.009	13.487	1397.155	1077.750
33.023	13.548	1396.261	1077.360
34.038	13.471	1394.605	1075.485
35.053	13.450	1393.173	1074.149
36.067	13.353	1392.619	1073.001
37.082	13.347	1391.438	1071.957
38.096	13.394	1390.895	1071.744
39.111	13.456	1390.061	1071.408
40.126	13.433	1389.009	1070.354
41.140	13.262	1388.051	1068.415
42.155	13.098	1388.167	1067.353
43.169	13.237	1387.245	1067.446
44.184	13.192	1387.502	1067.257
45.199	13.208	1386.738	1066.683
46.213	13.278	1386.366	1066.750
47.228	13.302	1384.894	1065.680
48.242	13.353	1383.831	1065.096
49.257	13.354	1382.168	1063.726
50.271	13.334	1380.943	1062.564
51.286	13.299	1379.774	1061.347
52.301	13.311	1378.229	1060.140
53.315	13.300	1377.056	1059.070
54.330	13.219	1376.679	1058.170
55.344	13.294	1375.107	1057.347
56.359	13.218	1374.029	1055.936
57.374	13.279	1372.971	1055.422
58.388	13.213	1372.325	1054.409
59.403	13.165	1372.036	1053.790
60.417	13.147	1371.419	1053.107
61.432	13.131	1370.323	1052.068
62.447	13.168	1369.176	1051.331
63.461	13.075	1367.903	1049.668
64.476	13.019	1366.831	1048.402
65.490	13.232	1365.408	1048.568
66.505	13.182	1363.655	1046.812
67.520	13.202	1362.671	1046.089
68.534	13.220	1361.174	1044.961
69.549	13.160	1360.288	1043.807
70.563	13.229	1358.795	1043.009
71.578	13.066	1358.513	1041.671
72.593	13.026	1357.175	1040.301
73.607	13.067	1356.238	1039.749
74.622	13.070	1355.638	1039.215
75.636	13.062	1354.703	1038.358
76.651	12.992	1354.117	1037.377
77.666	12.997	1353.624	1036.939
78.680	12.993	1353.081	1036.406
79.695	13.121	1351.967	1036.263
80.709	13.150	1350.730	1035.402
81.724	13.056	1350.249	1034.357
82.739	13.109	1349.674	1034.157
83.753	13.293	1347.887	1033.841
84.768	13.303	1347.313	1033.377
85.782	13.408	1345.340	1032.424
86.797	13.372	1344.138	1031.185
87.812	13.266	1343.165	1029.687
88.826	13.267	1342.142	1028.818
89.841	13.229	1341.504	1028.005
90.855	13.314	1340.029	1027.311
91.870	13.347	1338.982	1026.625
92.884	13.292	1338.277	1025.652
93.899	13.376	1337.559	1025.529
94.914	13.436	1336.622	1025.091
95.928	13.372	1335.908	1024.055
96.943	13.398	1335.137	1023.538
97.957	13.294	1334.234	1022.113
98.972	13.334	1332.893	1021.241
99.987	13.304	1332.274	1020.492
101.001	13.342	1330.916	1019.596
102.016	13.294	1330.267	1018.708
103.030	13.403	1328.987	1018.313
104.045	13.378	1327.964	1017.283
105.060	13.319	1326.618	1015.804
106.074	13.304	1325.562	1014.809
107.089	13.212	1324.389	1013.257
108.103	13.241	1322.829	1012.155
109.118	13.211	1321.605	1010.945
110.133	13.158	1320.530	1009.706
111.147	13.276	1318.819	1009.032
112.162	13.283	1317.443	1007.932
113.176	13.237	1316.736	1007.019
114.191	13.238	1315.618	1006.081
115.206	13.284	1314.293	1005.259
116.220	13.275	1313.243	1004.310
117.235	13.169	1312.173	1002.764
118.249	13.369	1310.914	1002.923
119.264	13.353	1310.014	1002.047
120.279	13.347	1308.468	1000.742
121.293	13.187	1307.789	999.167
122.308	13.211	1307.182	998.762
123.322	13.167	1305.856	997.395
124.337	13.201	1304.602	996.553
125.352	13.226	1303.549	995.812
126.366	13.187	1301.974	994.282
127.381	13.236	1301.140	993.854
128.395	13.237	1300.121	992.996
129.410	13.285	1299.177	992.474
130.424	13.180	1298.547	991.274
131.439	13.186	1297.302	990.272
132.454	13.278	1296.432	990.073
133.468	13.314	1295.784	989.705
134.483	13.376	1294.606	989.089
135.497	13.279	1293.897	987.879
136.512	13.285	1292.818	987.006
137.527	13.273	1291.367	985.735
138.541	13.260	1289.781	984.362
139.556	13.328	1288.573	983.758
140.570	13.415	1287.149	983.103
141.585	13.395	1285.921	981.953
142.600	13.500	1284.936	981.739
143.614	13.514	1284.229	981.194
144.629	13.489	1282.767	979.841
145.643	13.456	1281.626	978.690
146.658	13.473	1280.083	977.528
147.673	13.359	1278.949	975.903
148.687	13.499	1277.404	975.460
149.702	13.424	1276.119	973.951
150.716	13.390	1274.908	972.742
151.731	13.331	1273.539	971.267
152.746	13.433	1272.214	970.765
153.760	13.452	1270.943	969.822
154.775	13.584	1269.400	969.331
155.789	13.467	1268.895	968.176
156.804	13.496	1267.795	967.419
157.819	13.482	1266.735	966.445
158.833	13.451	1265.762	965.437
159.848	13.573	1264.943	965.436
160.862	13.558	1264.169	964.673
161.877	13.375	1263.114	962.716
162.892	13.421	1261.756	961.864
163.906	13.467	1261.107	961.553
164.921	13.565	1259.921	961.131
165.935	13.490	1259.076	959.966
166.950	13.600	1258.175	959.830
167.964	13.606	1257.151	958.998
168.979	13.492	1257.091	958.208
169.994	13.568	1255.972	957.711
171.008	13.620	1255.071	957.243
172.023	13.583	1254.548	956.541
173.037	13.667	1253.426	956.089
174.052	13.637	1252.334	954.995
175.067	13.586	1251.766	954.184
176.081	13.555	1250.694	953.107
177.096	13.574	1250.004	952.606
178.110	13.568	1248.828	951.590
179.125	13.586	1247.549	950.634
180.140	13.680	1245.672	949.658
181.154	13.648	1244.431	948.448
182.169	13.689	1243.293	947.726
183.183	13.719	1242.874	947.495
184.198	13.763	1241.497	946.612
185.213	13.708	1240.434	945.409
186.227	13.779	1239.090	944.703
187.242	13.868	1237.904	944.222
188.256	13.798	1237.246	943.238
189.271	13.919	1235.839	942.770
190.286	13.785	1234.885	941.195
191.300	13.663	1233.766	939.572
192.315	13.577	1233.376	938.701
193.329	13.661	1232.711	938.591
194.344	13.741	1232.193	938.562
195.359	13.791	1231.456	938.203
196.373	13.862	1230.965	938.146
197.388	13.941	1230.594	938.227
198.402	13.945	1230.190	937.859
199.417	14.010	1229.555	937.660
200.432	14.024	1228.505	936.854
201.446	14.122	1227.300	936.402
202.461	14.126	1226.044	935.382
203.475	14.119	1225.392	934.765
204.490	14.136	1224.149	933.831
205.504	14.054	1222.824	932.276
206.519	14.064	1222.120	931.716
207.534	14.000	1220.460	930.008
208.548	14.025	1219.461	929.307
209.563	13.966	1218.744	928.347
210.577	14.076	1217.976	928.294
211.592	14.121	1216.704	927.490
212.607	14.108	1216.571	927.234
213.621	13.997	1215.453	925.684
214.636	14.097	1214.320	925.292
215.650	14.223	1213.144	925.016
216.665	14.171	1212.346	924.038
217.680	14.268	1210.996	923.468
218.694	14.288	1210.724	923.287
219.709	14.250	1209.712	922.223
220.723	14.123	1209.125	920.989
221.738	14.145	1208.673	920.687
222.753	14.283	1207.766	920.680
223.767	14.333	1206.664	920.032
224.782	14.313	1206.039	919.363
225.796	14.434	1205.344	919.420
226.811	14.428	1204.888	918.956
227.826	14.469	1203.882	918.336
228.840	14.204	1203.634	916.608
229.855	14.311	1202.941	916.585
230.869	14.366	1201.941	916.046
231.884	14.385	1200.708	915.131
232.899	14.342	1200.012	914.281
233.913	14.227	1199.930	913.507
234.928	14.324	1198.585	912.932
235.942	14.404	1197.249	912.272
236.957	14.365	1196.798	911.636
237.972	14.213	1196.608	910.578
238.986	14.339	1195.512	910.350
240.001	14.356	1195.050	910.013
241.015	14.334	1194.104	909.091
242.030	14.480	1193.015	908.981
243.045	14.476	1192.414	908.421
244.059	14.497	1191.541	907.788
245.074	14.501	1190.487	906.925
246.088	14.631	1189.611	906.884
247.103	14.525	1189.015	905.775
248.117	14.603	1188.119	905.435
249.132	14.717	1187.154	905.237
250.147	14.654	1187.040	904.728
251.161	14.772	1186.116	904.582
252.176	14.837	1185.241	904.187
253.190	14.867	1184.605	903.784
254.205	14.869	1184.123	903.346
255.220	14.795	1183.543	902.427
256.234	14.857	1182.849	902.153
257.249	14.927	1182.221	901.972
258.263	14.798	1181.659	900.766
259.278	14.767	1181.542	900.428
260.293	14.912	1180.502	900.340
261.307	14.931	1179.914	899.914
262.322	14.891	1179.378	899.211
263.336	15.045	1178.373	899.189
264.351	15.026	1177.643	898.454
265.366	15.074	1177.013	898.151
266.380	15.026	1176.243	897.226
267.395	15.036	1175.509	896.641
268.409	14.931	1174.656	895.350
269.424	14.963	1174.220	895.108
270.439	15.014	1173.686	894.894
271.453	15.046	1172.298	893.927
272.468	15.030	1171.239	892.956
273.482	15.021	1170.942	892.601
274.497	15.069	1170.244	892.246
275.512	15.061	1169.628	891.656
276.526	15.078	1168.744	890.996
277.541	15.092	1168.096	890.496
278.555	15.052	1167.532	889.773
279.570	15.180	1166.457	889.553
280.585	15.247	1165.701	889.256
281.599	15.171	1165.124	888.336
282.614	15.275	1163.727	887.739
283.628	15.290	1162.572	886.860
284.643	15.191	1161.738	885.620
285.657	15.210	1161.083	885.145
286.672	15.212	1160.119	884.344
287.687	15.279	1159.072	883.821
288.701	15.325	1158.489	883.537
289.716	15.362	1157.381	882.809
290.730	15.251	1157.070	881.912
291.745	15.393	1156.301	881.996
292.760	15.299	1155.406	880.741
293.774	15.407	1154.892	880.839
294.789	15.396	1154.294	880.245
295.803	15.450	1153.569	879.899
296.818	15.301	1153.051	878.645
297.833	15.320	1152.189	878.010
298.847	15.401	1151.058	877.492
299.862	15.439	1150.470	877.163
300.876	15.444	1149.728	876.547
301.891	15.458	1149.306	876.220
302.906	15.457	1148.217	875.309
303.920	15.609	1147.465	875.450
304.935	15.721	1146.581	875.283
305.949	15.665	1146.385	874.764
306.964	15.645	1145.927	874.229
307.979	15.634	1144.767	873.210
308.993	15.563	1143.982	872.167
310.008	15.645	1143.146	871.876
311.022	15.711	1142.321	871.512
312.037	15.737	1141.616	871.032
313.052	15.604	1140.810	869.653
314.066	15.660	1139.585	868.930
315.081	15.653	1138.757	868.185
316.095	15.577	1138.511	867.530
317.110	15.615	1137.747	867.067
318.125	15.631	1136.729	866.299
319.139	15.577	1136.063	865.436
320.154	15.599	1135.553	865.082
321.168	15.622	1135.019	864.720
322.183	15.792	1133.997	864.739
323.197	15.682	1133.638	863.820
324.212	15.713	1132.798	863.267
325.227	15.781	1131.906	862.857
326.241	15.690	1131.664	862.132
327.256	15.775	1130.734	861.782
328.270	15.737	1129.533	860.596
329.285	15.739	1128.860	860.014
330.300	15.802	1128.036	859.636
331.314	15.784	1126.649	858.411
332.329	15.851	1125.883	858.089
333.343	15.764	1125.272	857.107
334.358	15.933	1124.065	856.972
335.373	15.819	1123.505	855.887
336.387	15.940	1122.633	855.766
337.402	15.964	1122.110	855.409
338.416	15.848	1121.339	854.160
339.431	16.050	1121.029	854.870
340.446	15.946	1120.270	853.692
341.460	16.037	1119.283	853.323
342.475	16.019	1118.682	852.700
343.489	16.009	1117.435	851.619
344.504	16.074	1116.257	850.979
345.519	16.134	1115.781	850.841
346.533	16.192	1115.108	850.548
347.548	16.218	1113.903	849.684
348.562	16.241	1113.443	849.371
349.577	16.179	1112.671	848.397
350.592	16.074	1111.965	847.254
351.606	16.109	1110.879	846.527
352.621	16.057	1110.579	845.961
353.635	16.076	1110.045	845.576
354.650	16.177	1108.969	845.187
355.665	16.136	1108.279	844.384
356.679	16.145	1107.599	843.836
357.694	16.318	1107.037	844.199
358.708	16.269	1106.598	843.545
359.723	16.239	1106.004	842.866
360.738	16.293	1105.078	842.356
361.752	16.387	1104.387	842.220
362.767	16.275	1103.978	841.278
363.781	16.360	1103.556	841.306
364.796	16.294	1102.806	840.329
365.810	16.346	1102.289	840.122
366.825	16.437	1101.576	839.956
367.840	16.546	1100.668	839.727
368.854	16.530	1100.185	839.205
369.869	16.476	1099.291	838.182
370.883	16.577	1098.469	837.983
371.898	16.642	1097.464	837.464
372.913	16.491	1097.472	836.648
373.927	16.574	1096.573	836.300
374.942	16.620	1096.074	836.070
375.956	16.629	1095.523	835.622
376.971	16.487	1095.339	834.704
377.986	16.652	1094.447	834.769
379.000	16.622	1094.462	834.554
380.015	16.730	1093.237	834.081
381.029	16.689	1092.688	833.384
382.044	16.675	1091.686	832.479
383.059	16.684	1091.516	832.320
384.073	16.751	1090.529	831.824
385.088	16.808	1089.316	831.104
386.102	16.846	1088.308	830.447
387.117	16.770	1087.426	829.328
388.132	16.745	1086.425	828.368
389.146	16.715	1085.849	827.713
390.161	16.641	1085.096	826.703
391.175	16.723	1084.473	826.554
392.190	16.835	1083.626	826.381
393.205	16.832	1083.192	825.962
394.219	16.963	1081.733	825.413
395.234	16.843	1081.118	824.288
396.248	16.803	1080.035	823.196
397.263	16.941	1078.776	822.833
398.278	16.814	1078.588	822.003
399.292	16.779	1077.905	821.238
400.307	16.905	1076.781	820.918
401.321	16.829	1076.454	820.228
402.336	16.842	1075.644	819.601
403.350	16.887	1074.572	818.929
404.365	16.822	1074.270	818.314
405.380	16.868	1073.701	818.033
406.394	16.968	1072.817	817.769
407.409	16.953	1072.303	817.232
408.423	17.038	1071.436	816.908
409.438	17.124	1070.250	816.343
410.453	17.125	1070.056	816.129
411.467	17.216	1069.330	815.938
412.482	17.188	1068.411	815.031
413.496	17.174	1067.663	814.324
414.511	17.276	1067.478	814.597
415.526	17.170	1067.034	813.677
416.540	17.283	1066.011	813.366
417.555	17.258	1065.715	812.949
418.569	17.357	1065.275	813.014
419.584	17.232	1064.912	812.070
420.599	17.317	1064.055	811.748
421.613	82.777	1291.388	1348.738
422.628	76.479	1324.497	1348.887
