DTS Sentinel unit serial number:	SN413079Multiplexer serial number:	ORYXHardware model number:	OX4-SRSoftware version number:	ORYX F/W v4.00 Oryx Data Collector v3.7.2.0data status	okinstallation	princeton_trtdifferential loss correction	single-endedforward channel	channel 2reverse channel	N/Adate	2019/09/12time	19:07:49forward acquisition time	15.00reverse acquisition time	0.00gamma	496.2192k internal	0.2324k external	0.2324temperature offset calibration	1.0150default loss term (dB/km)	0.3790temperature slope calibration	1.0000multiplexer offset coefficient	1.0000multiplexer slope coefficient	1.0000fibre end	0.00T internal ref (°C)	32.62T ext. ref 1 (°C)	3.18T ext. ref 2 (°C)	27.27length (m)	temperature (°C)	Stokes	anti-Stokes-747.200	800.000	0.139	0.451
-746.185	-5.833	0.697	0.482
-745.171	149.625	0.385	-0.527
-744.156	800.000	-0.227	-0.956
-743.142	147.749	0.375	-0.510
-742.127	8.679	-0.638	0.485
-741.112	-130.514	0.745	-0.102
-740.098	128.222	-0.133	0.171
-739.083	59.628	-0.507	0.505
-738.069	53.452	-0.506	-0.490
-737.054	-200.000	0.005	0.196
-736.039	-1.506	-0.642	0.457
-735.025	0.338	0.194	-0.140
-734.010	184.599	-0.513	-0.766
-732.996	-200.000	-0.086	1.413
-731.981	240.052	-0.444	-0.746
-730.966	38.159	-0.695	-0.624
-729.952	-6.830	-0.572	-0.392
-728.937	-200.000	0.018	-0.930
-727.923	224.845	0.413	-0.675
-726.908	57.552	-0.625	-0.616
-725.894	800.000	0.157	-0.579
-724.879	-200.000	0.120	-0.534
-723.864	-101.961	0.331	-0.080
-722.850	-115.822	-0.214	0.040
-721.835	69.574	0.556	0.577
-720.821	-152.384	-0.161	0.012
-719.806	118.449	0.091	0.113
-718.791	800.000	0.076	0.317
-717.777	-86.782	-0.346	0.107
-716.762	-89.143	0.339	-0.101
-715.748	-200.000	-0.067	-0.701
-714.733	-200.000	0.041	-0.182
-713.718	269.716	-0.267	0.472
-712.704	-59.235	-0.309	0.134
-711.689	-121.618	0.115	-0.019
-710.675	176.055	-0.265	0.387
-709.660	38.513	-0.340	0.306
-708.645	-14.075	0.646	-0.420
-707.631	800.000	0.063	0.192
-706.616	-64.123	0.468	-0.192
-705.602	-114.682	-0.468	-0.090
-704.587	341.114	0.351	-0.691
-703.572	-200.000	0.045	0.547
-702.558	-62.454	1.109	0.464
-701.543	-112.054	0.432	0.088
-700.529	87.686	-0.220	0.245
-699.514	-121.809	-1.075	0.179
-698.499	575.626	0.186	0.457
-697.485	-48.864	-1.192	-0.576
-696.470	-158.988	-0.173	0.010
-695.456	310.140	-0.136	-0.256
-694.441	33.789	0.815	-0.714
-693.426	-200.000	0.014	0.212
-692.412	6.913	-0.805	-0.604
-691.397	-101.030	-0.747	-0.185
-690.383	-200.000	0.041	0.570
-689.368	-87.767	0.488	-0.148
-688.354	610.883	0.353	-0.890
-687.339	-168.327	-0.933	-0.036
-686.324	480.683	0.061	-0.139
-685.310	-28.989	-0.535	0.309
-684.295	110.419	0.229	-0.277
-683.281	57.424	0.267	-0.262
-682.266	-200.000	0.131	0.600
-681.251	7.543	0.416	-0.313
-680.237	-98.493	-0.301	-0.077
-679.222	386.476	0.225	-0.467
-678.208	-79.386	0.490	0.167
-677.193	-169.030	1.008	-0.038
-676.178	-103.843	-0.150	0.035
-675.164	-71.222	0.111	-0.042
-674.149	-170.349	0.847	-0.030
-673.135	-144.570	0.661	-0.061
-672.120	-8.055	-0.338	-0.230
-671.105	72.115	-0.225	0.236
-670.091	371.459	0.308	-0.629
-669.076	338.880	0.208	0.409
-668.062	800.000	-0.062	0.226
-667.047	56.102	0.664	-0.649
-666.032	5.558	0.509	-0.378
-665.018	-200.000	0.018	0.355
-664.003	800.000	0.158	-0.667
-662.989	118.277	-0.319	0.396
-661.974	279.683	-0.481	0.865
-660.959	-200.000	0.084	-0.902
-659.945	259.869	-0.630	-1.095
-658.930	-99.630	-0.865	-0.218
-657.916	-200.000	0.096	-0.916
-656.901	-130.690	-1.076	0.146
-655.886	-66.149	-0.638	0.256
-654.872	5.423	-0.351	0.261
-653.857	339.023	0.279	0.546
-652.843	129.155	-0.394	0.505
-651.828	249.532	0.261	0.445
-650.814	105.294	-0.305	0.362
-649.799	405.718	-0.118	0.251
-648.784	-40.469	0.580	0.303
-647.770	-150.112	0.997	-0.078
-646.755	-27.565	0.712	0.416
-645.741	217.728	-0.397	0.636
-644.726	-147.065	0.839	0.072
-643.711	69.883	0.325	0.337
-642.697	-73.118	-0.650	-0.239
-641.682	-134.854	-0.465	0.057
-640.668	18.656	-0.195	0.157
-639.653	-18.710	-0.344	-0.216
-638.638	-200.000	0.071	0.576
-637.624	-25.743	0.679	-0.402
-636.609	24.062	0.085	-0.071
-635.595	-105.208	-0.611	-0.140
-634.580	-200.000	0.148	0.689
-633.565	-200.000	-0.041	-0.462
-632.551	694.287	-0.196	-0.516
-631.536	-200.000	0.038	-0.371
-630.522	-7.539	-0.672	0.457
-629.507	547.828	0.132	-0.318
-628.492	522.252	-0.486	-1.146
-627.478	-99.850	0.786	0.197
-626.463	-67.790	-0.483	0.190
-625.449	622.468	-0.216	-0.546
-624.434	158.072	0.371	0.517
-623.419	-185.574	-0.512	-0.008
-622.405	800.000	-0.269	0.789
-621.390	240.854	0.035	0.058
-620.376	60.668	0.353	0.351
-619.361	119.420	0.592	-0.736
-618.346	-145.911	0.719	0.064
-617.332	-21.882	0.151	0.092
-616.317	-200.000	-0.378	-0.001
-615.303	77.532	-0.433	-0.463
-614.288	-37.453	0.593	-0.318
-613.273	192.989	0.272	-0.412
-612.259	564.416	0.120	0.291
-611.244	-119.473	0.594	0.103
-610.230	-200.000	0.029	-0.661
-609.215	32.135	0.330	-0.285
-608.201	-132.915	0.938	-0.120
-607.186	101.267	0.402	-0.470
-606.171	-20.818	0.203	0.125
-605.157	-109.679	-0.056	-0.012
-604.142	512.408	0.096	0.225
-603.128	-130.132	0.488	-0.067
-602.113	53.678	-0.810	-0.780
-601.098	-200.000	-0.047	-0.554
-600.084	-36.403	0.348	0.188
-599.069	3.733	0.800	0.586
-598.055	-136.208	-0.587	-0.069
-597.040	-92.307	0.059	-0.017
-596.025	-95.845	-0.403	0.108
-595.011	-37.362	0.257	0.138
-593.996	-55.116	-0.601	0.271
-592.982	-162.681	0.266	0.013
-591.967	-200.000	-0.088	0.473
-590.952	171.942	-0.167	0.241
-589.938	148.886	-0.771	-1.046
-588.923	256.065	-0.086	-0.148
-587.909	445.109	0.389	0.858
-586.894	-200.000	0.087	0.776
-585.879	-34.382	-0.048	-0.026
-584.865	-44.825	0.329	-0.165
-583.850	-200.000	-0.079	0.435
-582.836	-139.648	-0.411	0.044
-581.821	107.009	-0.571	-0.681
-580.806	628.560	-0.096	-0.243
-579.792	28.917	0.252	-0.214
-578.777	-200.000	-0.001	-0.878
-577.763	800.000	0.091	-0.383
-576.748	18.071	-0.377	-0.301
-575.733	-135.777	-0.907	-0.108
-574.719	36.889	-0.251	-0.222
-573.704	553.388	-0.119	0.288
-572.690	800.000	0.174	0.675
-571.675	-74.924	-0.482	-0.173
-570.661	-72.954	0.326	0.120
-569.646	113.833	0.144	0.176
-568.631	800.000	-0.256	0.710
-567.617	-200.000	0.120	0.939
-566.602	45.010	0.306	-0.283
-565.588	238.171	0.185	-0.308
-564.573	-81.685	-0.326	0.107
-563.558	-18.810	-0.810	0.505
-562.544	28.924	0.868	0.737
-561.529	203.536	-0.285	0.442
-560.515	-157.716	0.366	0.022
-559.500	-200.000	-0.145	-0.800
-558.485	63.080	0.413	-0.414
-557.471	-95.373	0.602	0.162
-556.456	-153.188	1.122	0.079
-555.442	800.000	0.145	-0.544
-554.427	-200.000	0.010	-0.158
-553.412	-87.755	0.422	-0.127
-552.398	631.675	0.198	0.502
-551.383	536.939	0.055	0.130
-550.369	-132.030	-0.319	0.042
-549.354	-175.340	0.196	0.005
-548.339	97.986	0.149	-0.172
-547.325	-162.804	0.275	-0.013
-546.310	-50.679	-0.805	0.380
-545.296	-200.000	-0.091	0.638
-544.281	-128.869	-0.471	0.066
-543.266	-200.000	-0.051	-0.250
-542.252	6.761	0.535	-0.399
-541.237	3.489	0.767	0.560
-540.223	-83.620	0.682	-0.218
-539.208	201.954	-0.491	-0.758
-538.193	-11.721	-0.525	-0.345
-537.179	-145.667	-0.459	-0.041
-536.164	-55.331	0.226	0.102
-535.150	-149.569	-0.388	0.031
-534.135	754.382	-0.185	0.499
-533.121	6.094	-0.733	0.544
-532.106	-44.065	0.383	-0.193
-531.091	-161.504	0.590	0.030
-530.077	485.875	0.089	0.202
-529.062	-99.140	-0.204	-0.052
-528.048	214.911	-0.161	-0.255
-527.033	-31.513	-0.407	0.229
-526.018	120.000	-0.273	0.339
-525.004	-34.566	-0.318	-0.174
-523.989	-86.243	-0.425	-0.131
-522.975	53.799	0.346	0.333
-521.960	-98.368	-0.711	-0.182
-520.945	-200.000	-0.036	0.167
-519.931	41.694	0.058	-0.052
-518.916	-66.160	0.065	0.026
-517.902	23.236	-0.233	0.191
-516.887	-200.000	-0.015	0.299
-515.872	-59.908	0.701	0.300
-514.858	-98.990	-0.810	0.206
-513.843	-166.517	-1.027	0.043
-512.829	-159.689	0.338	0.019
-511.814	-82.401	0.904	0.294
-510.799	800.000	0.125	-0.382
-509.785	554.991	0.214	-0.515
-508.770	-35.295	-0.297	-0.161
-507.756	64.995	-0.394	-0.398
-506.741	202.827	-0.207	-0.319
-505.726	-74.731	-0.607	-0.218
-504.712	-200.000	-0.020	0.780
-503.697	47.264	0.147	0.137
-502.683	-200.000	-0.113	-1.058
-501.668	6.128	-0.590	-0.437
-500.653	-200.000	-0.086	-1.014
-499.639	94.031	0.109	0.123
-498.624	-200.000	-0.131	0.668
-497.610	232.814	0.376	-0.617
-496.595	613.358	-0.135	0.338
-495.581	-200.000	0.044	-0.326
-494.566	-69.977	0.622	0.237
-493.551	272.052	-0.246	0.434
-492.537	226.341	-0.496	0.805
-491.522	-12.982	0.371	0.241
-490.508	-43.295	-0.509	-0.257
-489.493	27.461	0.186	-0.156
-488.478	275.396	0.029	0.052
-487.464	-98.620	0.571	0.146
-486.449	682.248	0.102	-0.267
-485.435	-65.832	0.148	-0.059
-484.420	-103.078	0.385	-0.091
-483.405	14.724	0.549	0.429
-482.391	-200.000	-0.040	-0.671
-481.376	717.823	0.352	0.933
-480.362	85.213	-0.429	-0.470
-479.347	52.476	0.047	0.045
-478.332	171.065	-0.120	-0.172
-477.318	800.000	0.188	-0.562
-476.303	800.000	0.019	-0.069
-475.289	-200.000	-0.104	0.485
-474.274	86.621	0.715	0.788
-473.259	116.001	0.082	0.101
-472.245	33.913	0.624	0.542
-471.230	73.493	0.281	0.293
-470.216	741.650	0.018	-0.049
-469.201	669.255	-0.241	0.623
-468.186	-46.934	-0.688	-0.336
-467.172	225.549	0.115	0.186
-466.157	-200.000	-0.030	-0.491
-465.143	-163.777	-0.228	0.011
-464.128	572.888	0.152	0.371
-463.113	-66.430	0.680	-0.270
-462.099	-200.000	0.035	-0.654
-461.084	2.616	0.749	0.542
-460.070	407.412	-0.070	-0.148
-459.055	-200.000	-0.002	0.348
-458.040	209.180	-0.361	-0.565
-457.026	-200.000	-0.026	0.424
-456.011	41.729	0.316	-0.286
-454.997	-16.029	1.071	-0.680
-453.982	-49.237	-0.601	-0.286
-452.968	-198.591	-0.599	-0.003
-451.953	88.206	-0.149	-0.165
-450.938	-47.352	-1.027	0.499
-449.924	6.076	-0.278	0.206
-448.909	800.000	-0.136	-0.462
-447.895	58.631	0.146	0.143
-446.880	192.550	-0.232	0.349
-445.865	-164.618	0.842	0.038
-444.851	800.000	0.277	0.915
-443.836	-200.000	-0.046	0.252
-442.822	-118.151	-0.475	0.084
-441.807	-4.383	0.636	-0.439
-440.792	-200.000	0.022	-0.639
-439.778	112.859	-0.394	-0.477
-438.763	800.000	-0.168	-0.483
-437.749	-84.584	-0.298	0.094
-436.734	3.600	0.264	-0.192
-435.719	183.126	-0.122	0.179
-434.705	216.378	-0.301	-0.477
-433.690	-12.970	-0.266	-0.172
-432.676	98.778	0.496	0.571
-431.661	-95.728	-1.180	0.315
-430.646	800.000	0.082	-0.274
-429.632	-76.367	-1.070	0.376
-428.617	-200.000	0.143	0.705
-427.603	188.009	-0.230	-0.343
-426.588	-200.000	-0.015	-0.691
-425.573	800.000	0.047	0.140
-424.559	146.888	-0.534	-0.716
-423.544	69.268	0.557	0.571
-422.530	800.000	0.171	-0.530
-421.515	320.651	-0.306	0.578
-420.500	262.704	-0.139	0.241
-419.486	28.031	-0.588	0.494
-418.471	-148.844	0.503	0.041
-417.457	-11.790	-0.174	0.114
-416.442	103.871	0.879	-1.029
-415.428	-83.723	-0.469	-0.149
-414.413	98.080	-0.321	-0.368
-413.398	-200.000	-0.008	0.043
-412.384	-43.054	-0.259	0.131
-411.369	-51.040	0.727	-0.340
-410.355	-42.903	0.321	-0.162
-409.340	-200.000	0.014	0.163
-408.325	333.423	-0.153	0.294
-407.311	800.000	0.331	-0.939
-406.296	-97.020	-0.386	0.101
-405.282	-95.168	-0.321	-0.086
-404.267	45.701	-0.199	0.183
-403.252	-137.661	-0.493	0.055
-402.238	65.244	-0.490	0.494
-401.223	0.594	-0.453	-0.323
-400.209	132.477	-0.317	0.408
-399.194	-86.659	0.347	0.106
-398.179	-200.000	-0.224	1.072
-397.165	81.896	-0.443	-0.478
-396.150	231.409	0.197	0.321
-395.136	-135.807	0.549	-0.065
-394.121	195.639	-0.112	-0.169
-393.106	279.493	0.326	-0.579
-392.092	182.004	-0.307	-0.450
-391.077	273.848	0.325	0.572
-390.063	170.472	0.127	0.180
-389.048	-47.587	-0.367	-0.177
-388.033	-200.000	-0.164	1.159
-387.019	13.832	0.269	0.209
-386.004	-154.657	-0.135	-0.009
-384.990	-6.320	0.226	0.154
-383.975	800.000	-0.060	-0.203
-382.960	-79.815	0.354	0.118
-381.946	-74.548	-0.320	-0.115
-380.931	-200.000	-0.009	-0.186
-379.917	376.849	-0.103	-0.209
-378.902	-102.130	1.227	-0.294
-377.888	105.933	0.156	0.184
-376.873	127.302	-0.283	-0.358
-375.858	-11.903	0.316	0.206
-374.844	190.921	0.246	-0.368
-373.829	103.193	0.062	-0.073
-372.815	-197.415	0.753	-0.005
-371.800	117.272	-0.767	-0.938
-370.785	-87.792	0.349	0.105
-369.771	283.397	0.185	0.331
-368.756	-30.215	0.261	0.148
-367.742	138.801	0.151	0.198
-366.727	-62.593	-0.249	0.103
-365.712	-163.373	0.640	0.030
-364.698	-50.840	-0.385	0.180
-363.683	111.164	0.088	0.105
-362.669	-62.265	0.605	0.250
-361.654	108.052	-0.407	-0.482
-360.639	-62.051	-0.116	-0.048
-359.625	235.869	0.281	0.461
-358.610	-39.584	0.035	0.018
-357.596	-19.865	-0.447	0.275
-356.581	-200.000	-0.021	0.604
-355.566	-168.992	-0.115	-0.004
-354.552	231.709	0.221	0.361
-353.537	236.608	-0.121	-0.199
-352.523	-152.712	-1.305	0.092
-351.508	395.669	0.314	-0.651
-350.493	23.281	-0.315	0.257
-349.479	82.977	0.242	0.262
-348.464	699.757	-0.046	0.121
-347.450	159.491	0.295	-0.407
-346.435	800.000	0.190	-0.572
-345.420	-200.000	-0.128	-0.883
-344.406	800.000	-0.202	-0.750
-343.391	71.079	-0.254	0.262
-342.377	343.980	-0.044	-0.086
-341.362	94.826	-0.591	0.668
-340.348	73.524	0.165	0.172
-339.333	-35.986	0.372	0.200
-338.318	159.790	-0.252	-0.349
-337.304	-11.982	-0.944	-0.615
-336.289	-66.810	-0.454	-0.178
-335.275	750.967	0.298	0.798
-334.260	-200.000	0.060	-0.740
-333.245	-35.248	-0.690	0.373
-332.231	713.243	-0.242	0.637
-331.216	46.050	-0.496	0.456
-330.202	66.410	0.107	-0.108
-329.187	-21.827	-0.413	-0.250
-328.172	-99.935	0.632	0.157
-327.158	-164.803	0.150	0.007
-326.143	-131.874	-0.223	0.029
-325.129	-42.184	-0.265	-0.134
-324.114	9.371	-0.391	0.293
-323.099	-200.000	0.134	-0.677
-322.085	55.393	0.466	-0.448
-321.070	269.073	0.374	-0.651
-320.056	96.066	0.157	0.179
-319.041	800.000	0.187	0.579
-318.026	4.772	-0.237	0.173
-317.012	-30.373	-0.260	0.146
-315.997	-47.980	-0.442	0.212
-314.983	23.316	-0.085	-0.070
-313.968	-9.124	0.254	-0.169
-312.953	800.000	-0.345	1.393
-311.939	-200.000	0.174	0.756
-310.924	-115.655	0.466	0.087
-309.910	638.731	0.187	-0.472
-308.895	242.585	-0.171	0.284
-307.880	-148.002	0.424	-0.035
-306.866	-127.123	-0.162	-0.024
-305.851	146.281	0.289	0.385
-304.837	-200.000	-0.024	0.713
-303.822	94.392	0.605	-0.681
-302.807	705.798	0.092	-0.240
-301.793	-200.000	0.071	-0.488
-300.778	-71.946	-0.500	0.184
-299.764	-149.727	0.760	0.059
-298.749	42.301	0.457	-0.412
-297.735	800.000	0.149	0.479
-296.720	-3.714	-0.575	-0.396
-295.705	-123.501	0.785	0.124
-294.691	-13.248	0.494	-0.318
-293.676	684.332	0.072	0.187
-292.662	77.008	-0.205	0.216
-291.647	116.592	0.364	0.443
-290.632	329.375	-0.265	-0.505
-289.618	552.568	0.243	-0.579
-288.603	697.329	-0.249	-0.650
-287.589	80.744	-0.509	-0.544
-286.574	-95.589	-0.663	0.176
-285.559	721.649	-0.113	-0.299
-284.545	-36.296	0.365	-0.195
-283.530	-59.048	0.231	0.099
-282.516	449.278	-0.143	-0.312
-281.501	130.809	0.017	-0.021
-280.486	266.028	0.444	0.768
-279.472	96.964	0.441	0.501
-278.457	800.000	0.060	-0.249
-277.443	-8.293	0.162	0.108
-276.428	-1.990	-0.228	-0.159
-275.413	635.900	0.198	-0.497
-274.399	-122.180	0.957	0.155
-273.384	800.000	-0.080	-0.295
-272.370	-67.188	0.169	0.066
-271.355	-21.407	0.165	-0.100
-270.340	104.886	0.247	0.289
-269.326	707.163	0.105	0.274
-268.311	-64.465	0.519	-0.209
-267.297	565.416	-0.159	-0.382
-266.282	-92.750	-1.193	0.331
-265.267	-200.000	0.021	0.404
-264.253	-61.162	-0.352	0.147
-263.238	-200.000	0.094	0.494
-262.224	161.564	0.444	-0.615
-261.209	-200.000	-0.154	-0.678
-260.195	-110.846	-0.280	0.057
-259.180	241.235	0.544	0.899
-258.165	-200.000	-0.107	-0.667
-257.151	-83.636	0.661	0.209
-256.136	527.083	0.226	-0.528
-255.122	60.396	0.189	-0.185
-254.107	-200.000	-0.051	0.292
-253.092	-115.366	-0.571	0.107
-252.078	539.502	-0.238	0.560
-251.063	-172.918	-0.359	0.011
-250.049	800.000	-0.229	-0.629
-249.034	-200.000	-0.001	-0.431
-248.019	239.708	0.236	0.389
-247.005	738.454	0.321	-0.852
-245.990	188.473	-0.268	0.397
-244.976	-93.840	0.746	-0.203
-243.961	-72.189	-0.765	0.281
-242.946	-51.789	-0.536	0.247
-241.932	20.344	0.431	0.345
-240.917	14.981	-0.370	-0.287
-239.903	-200.000	-0.081	-0.760
-238.888	147.919	-0.148	0.197
-237.873	-59.761	-0.474	-0.201
-236.859	263.725	0.136	-0.235
-235.844	288.924	0.143	-0.257
-234.830	-200.000	-0.005	0.081
-233.815	44.764	0.155	-0.141
-232.800	544.058	-0.361	-0.854
-231.786	-200.000	0.057	0.373
-230.771	-200.000	-0.036	0.220
-229.757	-129.765	-0.543	0.074
-228.742	41.568	0.381	-0.341
-227.727	90.312	0.357	-0.395
-226.713	12.196	0.846	-0.644
-225.698	190.786	0.207	0.307
-224.684	299.835	-0.051	0.094
-223.669	471.479	-0.287	0.638
-222.655	-41.595	-0.246	0.125
-221.640	148.372	0.208	0.278
-220.625	63.508	0.440	0.437
-219.611	-31.678	0.191	0.106
-218.596	-101.038	-0.519	0.126
-217.582	12.198	-0.662	0.504
-216.567	243.938	-0.282	-0.467
-215.552	800.000	0.184	-0.635
-214.538	-118.375	-0.051	-0.009
-213.523	-79.883	-1.041	-0.346
-212.509	331.085	0.216	0.412
-211.494	117.527	0.192	-0.233
-210.479	111.866	-0.473	-0.565
-209.465	658.854	0.052	0.132
-208.450	-200.000	-0.074	-0.368
-207.436	-200.000	0.038	0.198
-206.421	-37.172	-0.475	-0.251
-205.406	-59.975	-0.480	-0.203
-204.392	119.551	0.543	0.664
-203.377	-102.368	-0.406	-0.096
-202.363	-113.932	0.174	0.033
-201.348	164.479	-0.359	-0.500
-200.333	-96.583	0.116	0.030
-199.319	83.837	-0.270	0.291
-198.304	-21.037	-0.611	-0.370
-197.290	-70.732	-0.163	-0.061
-196.275	97.973	0.630	0.716
-195.260	-139.010	-0.545	0.058
-194.246	-107.383	0.452	-0.098
-193.231	-159.380	0.822	-0.045
-192.217	800.000	-0.068	0.195
-191.202	216.110	-0.333	-0.523
-190.187	241.026	-0.423	-0.697
-189.173	651.041	0.074	0.187
-188.158	-143.248	0.357	-0.034
-187.144	136.917	0.288	-0.372
-186.129	48.122	-0.834	0.770
-185.114	408.644	0.095	0.199
-184.100	800.000	-0.141	0.608
-183.085	-72.432	-0.345	0.126
-182.071	-78.664	0.516	-0.174
-181.056	-82.044	-0.568	-0.183
-180.042	800.000	0.161	0.564
-179.027	596.870	0.113	-0.277
-178.012	-200.000	0.060	-0.551
-176.998	99.768	0.109	-0.125
-175.983	310.268	-0.562	1.039
-174.969	9.359	-0.400	0.299
-173.954	174.317	0.403	0.574
-172.939	-200.000	-0.001	-0.185
-171.925	-74.365	0.945	0.337
-170.910	-7.801	0.716	0.477
-169.896	-34.565	0.289	-0.156
-168.881	10.232	-0.402	0.302
-167.866	214.532	-0.507	-0.792
-166.852	800.000	-0.160	0.513
-165.837	36.679	0.324	0.282
-164.823	83.508	-0.469	-0.504
-163.808	-96.923	-0.139	0.036
-162.793	1.052	-0.588	-0.416
-161.779	800.000	0.293	0.889
-160.764	-28.379	0.615	0.350
-159.750	19.598	0.282	-0.224
-158.735	-81.168	0.659	-0.215
-157.720	-148.670	-0.706	-0.057
-156.706	418.235	0.125	0.263
-155.691	-51.615	-0.224	-0.103
-154.677	-86.484	0.531	0.161
-153.662	800.000	-0.065	0.178
-152.647	-119.390	0.859	-0.147
-151.633	426.015	-0.234	-0.497
-150.618	6.238	0.717	0.524
-149.604	800.000	0.194	-0.542
-148.589	-33.252	0.294	-0.161
-147.574	67.503	0.329	-0.331
-146.560	800.000	0.073	-0.278
-145.545	144.623	-0.458	0.603
-144.531	105.100	-0.369	0.429
-143.516	-169.160	0.389	0.014
-142.502	-1.452	-0.678	0.472
-141.487	-128.868	0.479	-0.066
-140.472	125.641	0.481	0.598
-139.458	71.310	0.472	-0.483
-138.443	-200.000	-0.037	-0.550
-137.429	-42.089	0.948	-0.478
-136.414	343.696	0.340	0.657
-135.399	-88.800	-0.180	0.053
-134.385	79.176	0.656	0.693
-133.370	-58.986	0.581	-0.247
-132.356	-62.681	0.711	0.291
-131.341	-70.002	0.441	-0.166
-130.326	800.000	0.262	-0.714
-129.312	-200.000	0.098	0.517
-128.297	-136.148	-1.067	-0.123
-127.283	393.770	-0.359	-0.736
-126.268	-22.795	-0.322	-0.192
-125.253	-118.996	-0.927	0.160
-124.239	32.300	-0.451	-0.384
-123.224	800.000	0.114	0.321
-122.210	34.781	-0.059	-0.051
-121.195	393.283	-0.166	0.340
-120.180	-200.000	-0.042	-0.214
-119.166	-103.676	0.334	0.077
-118.151	-159.886	0.778	0.042
-117.137	549.892	-0.065	0.154
-116.122	800.000	0.017	0.047
-115.107	-99.717	-0.279	-0.069
-114.093	492.730	-0.229	-0.516
-113.078	-200.000	0.080	-0.463
-112.064	-128.261	0.497	-0.070
-111.049	-74.546	0.387	0.137
-110.034	-113.742	0.195	-0.037
-109.020	70.892	-0.299	0.305
-108.005	8.564	0.463	-0.343
-106.991	-100.241	0.062	-0.015
-105.976	190.128	0.363	-0.537
-104.962	278.988	-0.091	0.159
-103.947	-59.707	0.336	-0.142
-102.932	-200.000	0.035	0.324
-101.918	-4.791	0.414	0.281
-100.903	-9.777	0.628	-0.412
-99.889	-200.000	0.245	1.167
-98.874	532.168	-0.465	1.083
-97.859	-34.734	-0.289	0.155
-96.845	279.425	-0.217	0.382
-95.830	-72.548	0.396	0.144
-94.816	94.706	0.256	-0.286
-93.801	-57.692	0.488	-0.210
-92.786	-131.861	0.186	0.024
-91.772	-200.000	0.097	-0.854
-90.757	-118.257	-0.157	-0.027
-89.743	452.994	0.436	-0.949
-88.728	800.000	-0.080	0.282
-87.713	-200.000	0.170	-0.774
-86.699	-37.075	-0.193	-0.101
-85.684	-200.000	0.055	0.639
-84.670	800.000	0.208	0.620
-83.655	128.027	0.269	-0.337
-82.640	73.933	-0.379	0.391
-81.626	-70.313	0.065	-0.024
-80.611	109.388	0.347	-0.408
-79.597	-64.552	0.994	-0.397
-78.582	-100.122	0.939	0.230
-77.567	240.501	0.545	-0.893
-76.553	-200.000	-0.042	-0.761
-75.538	45.089	-0.744	0.674
-74.524	457.669	-0.266	-0.580
-73.509	173.916	0.288	0.408
-72.494	-200.000	-0.146	0.890
-71.480	321.914	-0.100	-0.186
-70.465	43.786	0.744	0.670
-69.451	800.000	0.059	-0.205
-68.436	-54.818	0.378	0.168
-67.422	-27.219	0.171	-0.098
-66.407	42.225	0.313	-0.280
-65.392	179.995	0.214	0.308
-64.378	-200.000	0.053	0.545
-63.363	800.000	-0.133	-0.470
-62.349	69.746	0.541	0.548
-61.334	209.160	-0.649	-0.999
-60.319	306.273	0.338	0.619
-59.305	-200.000	0.209	-1.173
-58.290	172.554	0.689	0.974
-57.276	-200.000	0.066	1.779
-56.261	-200.000	95.051	586.276
-55.246	679.455	1354.282	3462.774
-54.232	203.520	2525.883	3839.131
-53.217	113.124	2246.802	2676.487
-52.203	42.018	1881.688	1677.486
-51.188	35.740	1672.796	1444.240
-50.173	33.616	1627.975	1389.938
-49.159	51.791	1676.817	1567.151
-48.144	52.463	1693.910	1588.062
-47.130	35.486	1655.136	1426.882
-46.115	32.806	1640.447	1394.385
-45.100	32.554	1636.254	1388.903
-44.086	32.716	1633.021	1387.300
-43.071	32.570	1630.498	1384.026
-42.057	32.487	1626.969	1380.372
-41.042	32.500	1625.653	1379.293
-40.027	32.524	1623.918	1377.943
-39.013	32.397	1622.097	1375.411
-37.998	32.157	1621.609	1373.188
-36.984	32.639	1618.433	1373.965
-35.969	32.768	1618.038	1374.513
-34.954	32.549	1616.607	1371.648
-33.940	32.737	1614.208	1370.926
-32.925	32.568	1613.731	1369.236
-31.911	32.975	1609.686	1368.699
-30.896	32.561	1609.033	1365.094
-29.881	32.551	1608.067	1364.146
-28.867	32.741	1605.812	1363.549
-27.852	32.717	1604.392	1362.119
-26.838	32.785	1603.129	1361.485
-25.823	32.727	1601.946	1360.007
-24.809	32.642	1600.330	1357.971
-23.794	32.685	1598.571	1356.733
-22.779	32.572	1597.917	1355.309
-21.765	32.629	1595.839	1353.901
-20.750	32.537	1594.568	1352.109
-19.736	32.557	1592.656	1350.580
-18.721	32.517	1592.554	1350.150
-17.706	32.789	1590.038	1349.915
-16.692	32.728	1589.218	1348.729
-15.677	32.575	1587.761	1346.340
-14.663	32.612	1585.542	1344.670
-13.648	32.839	1583.776	1344.741
-12.633	32.635	1583.043	1342.609
-11.619	32.433	1581.945	1340.185
-10.604	32.526	1579.610	1338.818
-9.590	32.741	1577.656	1338.634
-8.575	32.573	1577.464	1337.225
-7.560	32.839	1575.240	1337.173
-6.546	32.628	1575.816	1336.112
-5.531	32.575	1573.713	1333.898
-4.517	32.680	1573.089	1334.060
-3.502	32.646	1570.663	1331.709
-2.487	32.907	1568.601	1331.751
-1.473	32.293	1558.292	1318.643
-0.458	29.428	1539.573	1282.866
0.556	27.337	1539.353	1251.220
1.571	24.724	1562.682	1251.810
2.586	24.036	1574.835	1256.576
3.600	21.475	1521.115	1196.118
4.615	12.614	1413.256	1054.660
5.629	4.894	1349.082	959.299
6.644	3.455	1342.244	945.533
7.659	2.932	1340.606	941.092
8.673	3.209	1339.280	941.767
9.688	3.125	1337.479	939.905
10.702	3.043	1334.737	937.395
11.717	6.783	1340.613	964.309
12.731	15.960	1357.716	1033.051
13.746	23.316	1370.450	1088.008
14.761	25.134	1370.820	1099.366
15.775	25.078	1371.979	1099.851
16.790	24.957	1370.077	1097.491
17.804	24.867	1368.840	1095.850
18.819	24.830	1369.487	1096.044
19.834	24.842	1367.784	1094.657
20.848	25.230	1366.329	1095.768
21.863	24.916	1367.728	1094.873
22.877	25.217	1364.769	1094.242
23.892	25.193	1364.754	1093.986
24.907	24.934	1364.284	1091.935
25.921	25.053	1363.329	1091.801
26.936	24.915	1363.324	1090.857
27.950	25.014	1361.146	1089.622
28.965	25.063	1359.407	1088.432
29.980	25.080	1359.095	1088.189
30.994	25.060	1358.959	1087.859
32.009	25.175	1357.301	1087.137
33.023	25.233	1356.671	1086.881
34.038	25.058	1355.929	1085.136
35.053	25.140	1353.726	1083.771
36.067	25.066	1352.815	1082.501
37.082	25.111	1352.003	1082.028
38.096	24.955	1352.798	1081.624
39.111	25.181	1350.920	1081.392
40.126	25.172	1349.366	1079.993
41.140	25.108	1348.711	1078.988
42.155	24.717	1348.259	1076.181
43.169	24.495	1349.228	1075.522
44.184	24.927	1347.475	1076.624
45.199	25.070	1347.202	1077.173
46.213	25.134	1346.885	1077.206
47.228	24.853	1346.797	1075.354
48.242	24.800	1347.305	1075.347
49.257	25.195	1343.388	1074.491
50.271	25.330	1341.910	1074.019
51.286	25.024	1341.539	1071.797
52.301	24.991	1341.888	1071.784
53.315	25.199	1339.541	1071.058
54.330	25.057	1338.599	1069.362
55.344	25.098	1337.116	1068.330
56.359	25.027	1337.229	1067.900
57.374	25.220	1335.448	1067.531
58.388	25.167	1334.691	1066.518
59.403	25.016	1336.141	1066.687
60.417	24.663	1335.219	1063.750
61.432	24.745	1333.234	1062.564
62.447	24.863	1332.396	1062.502
63.461	25.082	1331.071	1062.652
64.476	24.642	1331.263	1060.100
65.490	24.807	1328.320	1058.642
66.505	24.766	1327.381	1057.554
67.520	24.791	1326.245	1056.704
68.534	24.733	1325.630	1055.779
69.549	24.781	1324.224	1054.852
70.563	24.877	1323.692	1054.899
71.578	24.823	1322.202	1053.300
72.593	24.876	1320.611	1052.250
73.607	24.496	1322.171	1051.164
74.622	24.643	1320.236	1050.394
75.636	24.903	1319.209	1051.012
76.651	24.975	1318.119	1050.472
77.666	24.747	1319.054	1049.790
78.680	24.565	1319.155	1048.706
79.695	24.701	1317.537	1048.127
80.709	24.803	1316.217	1047.577
81.724	25.086	1316.214	1049.143
82.739	24.955	1315.959	1048.078
83.753	25.217	1313.903	1047.877
84.768	25.129	1314.183	1047.493
85.782	25.213	1313.080	1047.015
86.797	25.205	1311.771	1045.829
87.812	25.194	1310.478	1044.642
88.826	25.005	1310.073	1043.127
89.841	24.919	1309.228	1041.860
90.855	25.187	1307.370	1041.849
91.870	25.464	1306.715	1042.840
92.884	25.463	1306.448	1042.527
93.899	25.368	1305.369	1041.026
94.914	25.166	1305.398	1039.783
95.928	25.263	1303.556	1038.787
96.943	25.577	1302.955	1040.032
97.957	25.158	1303.648	1038.071
98.972	25.188	1301.648	1036.557
99.987	25.233	1300.211	1035.580
101.001	25.086	1299.169	1033.814
102.016	25.397	1298.203	1034.746
103.030	24.976	1298.363	1032.354
104.045	25.066	1297.356	1031.979
105.060	25.173	1296.162	1031.554
106.074	24.965	1295.197	1029.504
107.089	24.898	1293.997	1028.069
108.103	24.470	1293.411	1025.056
109.118	24.726	1291.317	1024.774
110.133	24.525	1289.867	1022.381
111.147	24.901	1288.512	1023.366
112.162	24.906	1288.254	1023.099
113.176	24.984	1287.321	1022.717
114.191	24.906	1286.551	1021.566
115.206	24.709	1285.668	1019.655
116.220	25.019	1284.416	1020.337
117.235	24.897	1283.404	1018.748
118.249	24.837	1281.358	1016.691
119.264	24.823	1282.012	1017.040
120.279	25.081	1279.698	1016.580
121.293	24.826	1279.221	1014.662
122.308	24.622	1279.041	1013.276
123.322	24.565	1278.183	1012.183
124.337	24.443	1278.126	1011.357
125.352	24.705	1276.594	1011.538
126.366	24.912	1274.840	1011.230
127.381	24.809	1273.426	1009.438
128.395	24.664	1273.458	1008.553
129.410	24.598	1272.401	1007.258
130.424	24.818	1271.249	1007.496
131.439	24.583	1270.791	1005.716
132.454	24.937	1270.547	1007.430
133.468	24.836	1270.087	1006.405
134.483	24.958	1269.603	1006.616
135.497	24.937	1267.729	1004.926
136.512	24.844	1266.355	1003.226
137.527	24.786	1265.726	1002.315
138.541	24.829	1264.669	1001.630
139.556	24.704	1264.575	1000.770
140.570	25.038	1262.960	1001.266
141.585	25.209	1261.702	1001.134
142.600	25.363	1262.151	1002.261
143.614	25.637	1260.288	1002.221
144.629	25.221	1260.756	1000.184
145.643	25.315	1259.333	999.495
146.658	25.193	1257.586	997.341
147.673	25.004	1256.686	995.487
148.687	25.376	1255.953	996.884
149.702	24.696	1254.361	991.760
150.716	24.562	1253.252	990.054
151.731	24.400	1252.334	988.345
152.746	24.642	1250.136	987.861
153.760	24.633	1251.218	988.578
154.775	25.411	1249.138	991.142
155.789	25.372	1248.440	990.285
156.804	25.041	1247.703	987.785
157.819	24.990	1246.531	986.491
158.833	24.966	1246.769	986.463
159.848	25.242	1246.379	987.582
160.862	25.283	1244.503	986.234
161.877	24.953	1243.229	983.328
162.892	24.868	1242.337	982.069
163.906	24.570	1241.729	979.869
164.921	24.593	1240.552	978.978
165.935	24.972	1239.632	980.237
166.950	24.939	1239.690	980.018
167.964	25.055	1239.150	980.136
168.979	24.970	1238.369	978.970
169.994	24.732	1238.190	977.442
171.008	24.872	1237.164	977.311
172.023	25.035	1235.704	976.958
173.037	25.380	1234.698	977.956
174.052	25.055	1234.581	976.006
175.067	24.984	1233.682	974.820
176.081	24.920	1231.419	972.602
177.096	24.912	1231.011	972.145
178.110	24.795	1230.514	971.033
179.125	24.793	1229.365	970.031
180.140	24.860	1228.312	969.478
181.154	24.961	1227.601	969.379
182.169	24.881	1226.632	968.096
183.183	25.155	1224.718	967.977
184.198	25.138	1224.891	967.936
185.213	25.348	1224.154	968.400
186.227	25.292	1223.210	967.266
187.242	25.210	1222.541	966.212
188.256	25.112	1221.556	964.817
189.271	25.471	1219.761	965.247
190.286	25.322	1218.440	963.312
191.300	24.760	1219.195	960.810
192.315	24.976	1217.825	960.800
193.329	25.059	1217.873	961.203
194.344	24.892	1217.434	959.873
195.359	24.655	1216.936	958.124
196.373	24.402	1215.899	955.868
197.388	24.402	1214.977	955.057
198.402	24.984	1214.729	957.895
199.417	25.106	1215.302	958.911
200.432	25.169	1214.409	958.459
201.446	25.075	1214.280	957.774
202.461	25.304	1212.624	957.600
203.475	25.382	1212.008	957.450
204.490	25.141	1209.584	954.167
205.504	24.957	1209.833	953.297
206.519	24.950	1207.858	951.618
207.534	24.841	1206.016	949.509
208.548	24.764	1206.260	949.206
209.563	24.757	1205.368	948.385
210.577	24.774	1204.706	947.868
211.592	24.868	1203.172	947.076
212.607	25.445	1202.875	949.810
213.621	25.328	1202.835	949.076
214.636	24.923	1202.125	946.289
215.650	24.806	1200.864	944.596
216.665	25.322	1199.254	945.964
217.680	25.551	1199.082	946.954
218.694	25.355	1198.721	945.551
219.709	24.924	1198.188	942.778
220.723	25.049	1197.087	942.486
221.738	24.898	1197.153	941.658
222.753	24.973	1195.672	940.806
223.767	25.070	1193.927	939.857
224.782	25.108	1194.312	940.278
225.796	25.324	1194.621	941.570
226.811	25.517	1192.781	941.050
227.826	25.214	1191.803	938.610
228.840	24.901	1191.429	936.594
229.855	25.118	1190.336	936.786
230.869	24.923	1190.160	935.542
231.884	24.878	1189.383	934.617
232.899	24.866	1188.245	933.578
233.913	24.737	1187.655	932.358
234.928	24.796	1187.576	932.524
235.942	25.102	1186.087	932.864
236.957	24.679	1185.396	930.034
237.972	24.455	1184.717	928.256
238.986	24.589	1184.098	928.386
240.001	24.977	1183.363	929.742
241.015	24.685	1181.980	927.059
242.030	24.994	1181.542	928.232
243.045	24.733	1182.102	927.239
244.059	24.991	1180.586	927.306
245.074	25.230	1180.706	928.551
246.088	25.250	1180.053	928.058
247.103	25.007	1179.268	926.107
248.117	25.304	1178.224	926.735
249.132	25.421	1178.237	927.268
250.147	25.810	1176.943	928.174
251.161	25.703	1176.559	927.240
252.176	25.899	1174.650	926.660
253.190	25.842	1176.280	927.570
254.205	25.814	1175.386	926.636
255.220	25.918	1175.039	926.819
256.234	25.971	1174.284	926.414
257.249	25.883	1173.130	924.969
258.263	25.427	1173.709	923.000
259.278	25.471	1173.049	922.625
260.293	25.925	1170.688	923.012
261.307	25.811	1170.453	922.160
262.322	25.802	1169.930	921.621
263.336	25.569	1170.426	920.737
264.351	25.743	1168.885	920.334
265.366	25.843	1167.698	919.829
266.380	25.996	1167.204	920.137
267.395	26.022	1166.720	919.808
268.409	25.905	1164.892	917.690
269.424	25.545	1165.306	916.100
270.439	25.681	1165.210	916.638
271.453	25.640	1163.481	914.988
272.468	25.702	1162.927	914.789
273.482	25.350	1161.950	912.147
274.497	25.452	1161.167	911.970
275.512	25.445	1161.010	911.732
276.526	25.692	1160.093	912.185
277.541	25.403	1159.677	910.310
278.555	25.692	1158.565	910.823
279.570	25.948	1158.086	911.658
280.585	25.667	1158.298	910.321
281.599	25.794	1157.270	910.074
282.614	25.569	1155.491	907.462
283.628	25.589	1154.741	906.891
284.643	25.240	1154.450	904.824
285.657	25.328	1153.740	904.632
286.672	25.519	1152.384	904.450
287.687	25.510	1151.199	903.397
288.701	25.605	1151.641	904.137
289.716	25.584	1150.668	903.189
290.730	25.687	1149.108	902.399
291.745	25.524	1149.054	901.461
292.760	25.759	1148.132	901.835
293.774	25.779	1147.582	901.423
294.789	25.772	1147.871	901.535
295.803	25.779	1146.713	900.581
296.818	25.608	1146.310	899.331
297.833	25.742	1145.161	899.021
298.847	25.610	1145.108	898.236
299.862	25.695	1143.262	897.133
300.876	25.701	1142.541	896.520
301.891	25.963	1142.381	897.621
302.906	25.766	1142.930	896.990
303.920	25.987	1141.793	897.118
304.935	26.190	1141.207	897.585
305.949	25.766	1141.595	895.706
306.964	26.095	1140.282	896.231
307.979	25.971	1139.232	894.711
308.993	26.089	1137.880	894.155
310.008	25.910	1137.372	892.791
311.022	26.163	1136.622	893.371
312.037	25.702	1136.704	891.078
313.052	25.896	1134.533	890.255
314.066	25.938	1133.795	889.802
315.081	25.452	1133.062	886.750
316.095	25.592	1131.708	886.303
317.110	25.577	1131.176	885.733
318.125	25.645	1130.651	885.580
319.139	25.327	1129.994	883.424
320.154	25.433	1130.311	884.116
321.168	25.351	1129.089	882.676
322.183	25.770	1127.518	883.430
323.197	25.499	1127.640	882.114
324.212	25.638	1127.662	882.738
325.227	25.671	1127.068	882.356
326.241	25.553	1127.132	881.750
327.256	25.695	1125.710	881.254
328.270	25.546	1124.171	879.239
329.285	25.473	1122.950	877.850
330.300	25.638	1123.243	878.811
331.314	25.359	1122.124	876.493
332.329	25.446	1121.666	876.482
333.343	25.617	1121.262	876.926
334.358	25.840	1119.764	876.760
335.373	25.762	1120.070	876.542
336.387	25.999	1119.482	877.157
337.402	26.457	1117.874	878.043
338.416	25.877	1116.983	874.451
339.431	26.021	1116.804	874.935
340.446	26.147	1116.582	875.296
341.460	26.324	1115.767	875.433
342.475	26.494	1116.039	876.396
343.489	26.328	1114.604	874.386
344.504	26.072	1114.030	872.619
345.519	26.414	1112.557	873.042
346.533	26.599	1111.263	872.842
347.548	26.585	1111.230	872.672
348.562	26.306	1110.818	870.927
349.577	26.042	1109.553	868.586
350.592	26.050	1108.362	867.616
351.606	25.824	1107.031	865.411
352.621	25.807	1106.887	865.137
353.635	25.705	1106.586	864.339
354.650	25.789	1105.662	863.944
355.665	25.786	1105.079	863.394
356.679	25.808	1104.299	862.814
357.694	25.965	1103.889	863.171
358.708	26.044	1103.924	863.499
359.723	26.056	1103.295	862.987
360.738	25.864	1102.922	861.703
361.752	25.914	1101.514	860.763
362.767	26.053	1101.192	861.101
363.781	25.924	1100.367	859.762
364.796	26.163	1099.608	860.237
365.810	26.278	1100.247	861.208
366.825	26.444	1099.940	861.678
367.840	26.746	1098.301	861.758
368.854	26.378	1098.795	860.318
369.869	26.714	1097.051	860.469
370.883	26.447	1096.347	858.576
371.898	26.461	1095.129	857.614
372.913	26.406	1094.626	856.882
373.927	26.347	1094.769	856.638
374.942	26.368	1094.683	856.596
375.956	26.489	1094.526	856.971
376.971	26.402	1093.636	855.786
377.986	26.365	1092.856	854.925
379.000	26.646	1092.162	855.631
380.015	26.740	1091.879	855.780
381.029	26.630	1091.345	854.764
382.044	26.569	1090.885	854.042
383.059	26.482	1090.079	852.925
384.073	26.498	1088.181	851.438
385.088	26.594	1087.223	851.068
386.102	26.347	1087.753	850.245
387.117	26.493	1086.620	849.968
388.132	26.055	1085.154	846.691
389.146	26.121	1084.325	846.282
390.161	26.240	1083.280	845.948
391.175	26.041	1082.550	844.371
392.190	26.457	1082.093	845.884
393.205	26.412	1083.025	846.328
394.219	26.517	1081.023	845.179
395.234	26.432	1080.168	844.042
396.248	26.283	1078.515	841.980
397.263	25.983	1078.024	840.123
398.278	26.193	1076.827	840.093
399.292	26.400	1075.389	839.858
400.307	26.381	1076.133	840.278
401.321	26.139	1075.995	838.971
402.336	26.043	1074.432	837.234
403.350	26.237	1072.967	836.916
404.365	26.190	1072.962	836.620
405.380	26.587	1072.289	837.858
406.394	26.499	1071.313	836.616
407.409	26.407	1072.195	836.802
408.423	26.739	1071.025	837.350
409.438	26.895	1070.650	837.706
410.453	26.551	1069.825	835.397
411.467	26.855	1069.072	836.137
412.482	26.860	1068.031	835.272
413.496	26.597	1068.338	834.225
414.511	27.088	1067.154	835.489
415.526	26.540	1067.309	833.013
416.540	26.967	1066.013	833.890
417.555	26.825	1065.577	832.823
418.569	26.674	1065.320	831.855
419.584	26.652	1065.882	832.117
420.599	26.630	1064.670	830.999
421.613	153.360	1404.580	1792.652
422.628	141.074	1454.058	1792.694
