DTS Sentinel unit serial number:	SN413079Multiplexer serial number:	ORYXHardware model number:	OX4-SRSoftware version number:	ORYX F/W v4.00 Oryx Data Collector v3.7.2.0data status	okinstallation	princeton_trtdifferential loss correction	single-endedforward channel	channel 2reverse channel	N/Adate	2019/09/17time	07:07:34forward acquisition time	60.00reverse acquisition time	0.00gamma	496.2192k internal	0.2334k external	0.2334temperature offset calibration	0.9979default loss term (dB/km)	0.3790temperature slope calibration	1.0000multiplexer offset coefficient	1.0000multiplexer slope coefficient	1.0000fibre end	0.00T internal ref (°C)	27.37T ext. ref 1 (°C)	0.12T ext. ref 2 (°C)	21.16length (m)	temperature (°C)	Stokes	anti-Stokes-747.200	54.577	0.098	0.095
-746.185	38.267	0.108	0.097
-745.171	-115.488	0.021	0.004
-744.156	-200.000	0.011	0.407
-743.142	-18.634	-0.170	-0.107
-742.127	800.000	0.081	0.323
-741.112	-200.000	0.054	0.361
-740.098	-200.000	0.042	0.234
-739.083	-66.053	-0.326	0.131
-738.069	5.894	-0.249	0.185
-737.054	-200.000	0.014	-0.061
-736.039	-122.922	-0.121	-0.020
-735.025	118.458	0.176	0.219
-734.010	800.000	-0.100	0.289
-732.996	-200.000	-0.042	-0.287
-731.981	-132.517	-0.334	-0.043
-730.966	464.509	0.106	0.237
-729.952	-23.219	-0.153	0.093
-728.937	-115.387	-0.191	0.036
-727.923	749.689	-0.043	0.117
-726.908	-106.972	-0.217	-0.048
-725.894	532.200	0.020	-0.047
-724.879	-29.224	-0.079	-0.046
-723.864	-81.824	-0.281	0.092
-722.850	-170.435	0.145	-0.005
-721.835	94.875	0.190	-0.217
-720.821	800.000	-0.028	-0.087
-719.806	32.876	-0.294	-0.255
-718.791	-52.252	0.317	0.148
-717.777	-200.000	0.012	-0.187
-716.762	-200.000	0.009	0.143
-715.748	-11.628	-0.219	0.144
-714.733	-200.000	0.010	0.398
-713.718	12.733	0.134	-0.104
-712.704	97.083	-0.064	0.074
-711.689	-84.240	-0.448	-0.143
-710.675	800.000	0.122	0.416
-709.660	-74.123	0.471	0.171
-708.645	-164.194	-0.277	-0.013
-707.631	67.488	0.123	-0.126
-706.616	9.259	0.107	0.081
-705.602	-152.105	-0.495	0.036
-704.587	-200.000	-0.003	0.093
-703.572	3.638	-0.303	-0.221
-702.558	-103.571	0.206	0.048
-701.543	800.000	-0.039	0.160
-700.529	-43.788	0.088	0.045
-699.514	-62.082	-0.123	0.051
-698.499	2.251	-0.339	-0.246
-697.485	88.066	0.078	-0.087
-696.470	-200.000	0.021	0.184
-695.456	800.000	-0.057	0.158
-694.441	800.000	0.134	-0.432
-693.426	800.000	0.019	0.080
-692.412	-200.000	0.066	0.314
-691.397	-200.000	-0.017	0.101
-690.383	64.914	0.270	-0.274
-689.368	-2.463	-0.178	0.125
-688.354	157.515	0.041	0.057
-687.339	385.899	0.184	-0.380
-686.324	81.907	-0.181	-0.197
-685.310	58.457	0.136	0.134
-684.295	-200.000	-0.004	0.150
-683.281	-76.419	0.050	-0.018
-682.266	109.750	-0.011	0.013
-681.251	-200.000	-0.002	-0.087
-680.237	800.000	0.073	-0.228
-679.222	-186.480	-0.420	-0.006
-678.208	57.757	-0.074	-0.072
-677.193	-19.234	-0.108	0.067
-676.178	191.297	-0.061	0.093
-675.164	-145.138	0.255	0.023
-674.149	-91.016	0.253	-0.073
-673.135	-67.784	-0.178	0.070
-672.120	9.362	0.221	0.168
-671.105	-45.663	0.192	-0.095
-670.091	800.000	-0.025	0.073
-669.076	671.336	0.051	0.132
-668.062	88.910	0.183	-0.204
-667.047	361.684	0.193	-0.387
-666.032	89.760	-0.148	0.166
-665.018	14.592	0.342	-0.267
-664.003	800.000	-0.097	0.313
-662.989	105.704	-0.101	0.120
-661.974	-93.402	-0.301	0.084
-660.959	94.973	-0.370	0.422
-659.945	-20.815	-0.237	-0.146
-658.930	-29.780	0.166	0.095
-657.916	319.503	0.216	0.411
-656.901	-79.789	0.271	0.091
-655.886	-97.542	0.196	0.051
-654.872	-162.217	-0.236	-0.012
-653.857	-161.167	-0.246	0.013
-652.843	-69.510	-0.276	0.106
-651.828	675.861	0.088	0.228
-650.814	-200.000	-0.051	-0.351
-649.799	-200.000	-0.049	0.227
-648.784	166.259	-0.296	0.419
-647.770	143.766	-0.202	-0.270
-646.755	-70.676	0.181	-0.068
-645.741	-65.102	-0.198	-0.080
-644.726	-18.571	0.035	-0.022
-643.711	291.468	0.120	-0.218
-642.697	800.000	-0.023	-0.097
-641.682	-200.000	-0.048	-0.211
-640.668	-200.000	0.016	0.087
-639.653	37.306	0.134	-0.119
-638.638	181.537	-0.176	-0.259
-637.624	-153.422	0.282	-0.020
-636.609	13.403	0.028	0.021
-635.595	121.043	-0.152	-0.190
-634.580	-126.716	0.332	-0.049
-633.565	-87.443	-0.160	-0.049
-632.551	-134.958	-0.183	-0.022
-631.536	-104.790	-0.049	0.011
-630.522	83.502	-0.143	0.156
-629.507	-164.745	-0.202	-0.009
-628.492	800.000	-0.065	-0.270
-627.478	284.422	0.054	-0.097
-626.463	800.000	-0.110	0.335
-625.449	408.960	-0.022	0.047
-624.434	-19.459	-0.146	0.090
-623.419	-144.219	0.106	0.010
-622.405	133.347	0.211	-0.273
-621.390	47.711	0.178	-0.166
-620.376	72.913	0.219	0.229
-619.361	431.191	0.177	0.383
-618.346	-94.496	0.221	0.060
-617.332	-154.909	-0.331	-0.022
-616.317	-163.692	0.301	-0.014
-615.303	-26.840	0.280	0.164
-614.288	800.000	0.078	-0.334
-613.273	-200.000	0.005	-0.090
-612.259	-51.327	-0.160	0.075
-611.244	-132.937	0.021	0.003
-610.230	800.000	-0.032	0.102
-609.215	-200.000	0.001	0.054
-608.201	159.805	0.061	0.085
-607.186	-200.000	0.014	0.350
-606.171	146.008	0.241	0.323
-605.157	74.159	-0.127	-0.133
-604.142	18.842	-0.097	0.078
-603.128	-48.635	0.096	-0.046
-602.113	-175.420	0.116	0.003
-601.098	800.000	0.027	-0.086
-600.084	-58.755	0.035	-0.015
-599.069	179.575	0.187	0.273
-598.055	111.955	-0.087	0.105
-597.040	-95.708	0.235	-0.063
-596.025	66.143	0.088	-0.089
-595.011	-103.779	-0.262	0.061
-593.996	-83.858	-0.173	0.055
-592.982	82.750	0.128	-0.139
-591.967	800.000	0.094	-0.291
-590.952	-77.343	-0.185	0.064
-589.938	-90.207	0.208	0.060
-588.923	800.000	-0.082	0.251
-587.909	184.802	-0.183	0.271
-586.894	363.209	0.025	-0.050
-585.879	-43.591	-0.153	-0.077
-584.865	471.328	-0.117	0.262
-583.850	-200.000	-0.004	0.176
-582.836	13.894	-0.035	-0.027
-581.821	-200.000	-0.058	-0.406
-580.806	6.550	-0.149	-0.111
-579.792	-57.239	0.170	-0.075
-578.777	-114.328	0.255	-0.049
-577.763	195.123	0.263	0.399
-576.748	94.545	0.150	0.170
-575.733	41.308	-0.281	0.253
-574.719	-200.000	0.029	0.198
-573.704	-200.000	-0.040	-0.178
-572.690	539.956	-0.082	-0.194
-571.675	321.234	-0.094	0.179
-570.661	-140.905	0.347	-0.036
-569.646	-56.607	0.191	-0.085
-568.631	412.679	-0.030	0.064
-567.617	35.824	-0.228	0.200
-566.602	-200.000	0.001	0.043
-565.588	800.000	-0.060	0.166
-564.573	-200.000	0.009	0.107
-563.558	-61.003	0.093	0.039
-562.544	-95.279	-0.251	-0.067
-561.529	-200.000	-0.008	0.043
-560.515	-200.000	-0.005	-0.149
-559.500	-72.898	-0.036	0.013
-558.485	61.544	-0.149	0.148
-557.471	-118.096	-0.190	0.034
-556.456	-200.000	-0.001	-0.197
-555.442	-1.647	-0.127	0.089
-554.427	12.303	-0.192	-0.148
-553.412	6.779	-0.031	0.023
-552.398	23.042	0.077	0.063
-551.383	52.363	0.112	-0.107
-550.369	-5.891	-0.102	-0.069
-549.354	-110.898	0.083	-0.017
-548.339	60.249	0.086	-0.085
-547.325	-55.435	-0.061	0.027
-546.310	-118.194	-0.427	0.076
-545.296	-200.000	-0.025	0.121
-544.281	-40.310	-0.196	0.102
-543.266	800.000	-0.056	0.163
-542.252	66.052	0.253	-0.256
-541.237	564.272	-0.071	-0.172
-540.223	-37.622	0.336	0.179
-539.208	177.573	0.179	0.260
-538.193	429.801	0.153	-0.331
-537.179	238.015	-0.143	-0.237
-536.164	63.018	0.069	-0.069
-535.150	3.786	-0.239	-0.174
-534.135	15.642	0.157	-0.123
-533.121	252.762	0.115	0.195
-532.106	800.000	0.092	-0.275
-531.091	-200.000	-0.042	0.234
-530.077	-64.732	-0.112	-0.045
-529.062	800.000	-0.040	-0.141
-528.048	100.359	-0.246	-0.285
-527.033	81.020	0.118	-0.127
-526.018	240.534	0.026	-0.043
-525.004	-200.000	-0.005	0.198
-523.989	-103.344	0.111	-0.026
-522.975	-171.885	-0.308	-0.010
-521.960	-124.748	-0.565	-0.087
-520.945	194.442	0.028	-0.042
-519.931	-200.000	-0.023	-0.261
-518.916	-200.000	0.018	-0.388
-517.902	144.526	-0.072	-0.096
-516.887	437.829	0.022	0.047
-515.872	90.133	-0.142	0.158
-514.858	-47.202	-0.349	0.169
-513.843	800.000	-0.052	-0.186
-512.829	800.000	-0.032	-0.137
-511.814	-200.000	-0.021	0.178
-510.799	0.046	-0.185	-0.131
-509.785	-200.000	-0.012	0.089
-508.770	-130.806	-0.094	-0.013
-507.756	414.268	-0.117	0.248
-506.741	-200.000	-0.005	-0.245
-505.726	34.295	0.348	0.303
-504.712	-90.616	0.217	-0.062
-503.697	18.199	-0.181	-0.144
-502.683	-48.673	-0.191	-0.091
-501.668	-112.991	0.186	-0.037
-500.653	-134.962	-0.257	-0.031
-499.639	-31.349	0.352	0.197
-498.624	117.418	-0.023	0.029
-497.610	-87.253	-0.112	-0.034
-496.595	61.208	0.262	0.259
-495.581	-200.000	0.078	-0.000
-494.566	100.431	-0.123	-0.142
-493.551	74.168	0.172	-0.180
-492.537	56.667	0.182	-0.177
-491.522	800.000	0.016	-0.055
-490.508	79.957	-0.131	-0.140
-489.493	-200.000	0.019	-0.103
-488.478	373.865	0.038	-0.077
-487.464	-200.000	-0.058	0.285
-486.449	-178.177	0.168	-0.004
-485.435	-200.000	0.034	0.186
-484.420	-3.133	-0.093	0.064
-483.405	800.000	0.130	-0.423
-482.391	151.239	-0.046	0.063
-481.376	15.178	-0.175	0.137
-480.362	-46.262	0.334	0.163
-479.347	-48.092	-0.220	-0.106
-478.332	55.493	-0.283	0.272
-477.318	75.464	0.100	0.105
-476.303	800.000	-0.081	0.306
-475.289	-63.394	0.059	0.024
-474.274	-200.000	-0.000	0.137
-473.259	54.404	0.440	-0.422
-472.245	-120.759	0.147	-0.025
-471.230	-104.818	-0.196	0.045
-470.216	548.876	0.130	-0.309
-469.201	14.131	-0.251	-0.194
-468.186	800.000	0.081	-0.296
-467.172	-93.860	0.237	-0.065
-466.157	57.326	0.140	0.135
-465.143	230.674	0.130	-0.212
-464.128	-173.763	0.138	-0.004
-463.113	74.370	0.161	0.169
-462.099	-200.000	0.059	-0.410
-461.084	1.637	0.120	-0.086
-460.070	20.204	-0.108	-0.087
-459.055	-11.093	0.100	-0.065
-458.040	-115.982	0.157	0.029
-457.026	-200.000	0.071	-0.000
-456.011	-200.000	-0.035	0.252
-454.997	-200.000	-0.011	-0.158
-453.982	-67.124	0.200	0.078
-452.968	-66.224	0.393	-0.156
-451.953	-142.786	-0.485	-0.047
-450.938	-144.983	-0.186	0.017
-449.924	65.346	-0.358	0.360
-448.909	-30.626	-0.157	-0.088
-447.895	98.370	-0.113	0.129
-446.880	27.707	0.131	-0.110
-445.865	211.326	0.081	0.126
-444.851	703.468	-0.060	-0.156
-443.836	-45.434	0.068	-0.033
-442.822	-82.907	0.137	-0.044
-441.807	636.582	0.137	-0.346
-440.792	800.000	0.070	-0.295
-439.778	-200.000	-0.016	0.112
-438.763	484.101	-0.029	-0.065
-437.749	15.531	-0.067	-0.052
-436.734	112.467	-0.186	0.223
-435.719	200.530	0.098	-0.150
-434.705	-66.956	-0.229	-0.090
-433.690	-107.400	0.079	0.017
-432.676	-200.000	-0.041	-0.279
-431.661	225.681	-0.103	0.166
-430.646	739.262	-0.043	0.113
-429.632	156.713	-0.125	0.171
-428.617	-82.100	0.269	0.087
-427.603	-56.573	0.133	-0.059
-426.588	-135.562	-0.239	0.028
-425.573	-200.000	-0.000	-0.111
-424.559	-200.000	-0.023	0.178
-423.544	315.038	-0.064	0.119
-422.530	-175.907	-0.234	0.006
-421.515	-131.590	0.341	-0.045
-420.500	-83.140	0.430	0.137
-419.486	32.818	-0.267	-0.229
-418.471	800.000	0.058	0.174
-417.457	2.296	0.276	0.198
-416.442	800.000	-0.103	0.336
-415.428	14.842	0.054	-0.042
-414.413	-200.000	-0.016	0.076
-413.398	-200.000	-0.052	-0.229
-412.384	-200.000	0.016	0.275
-411.369	33.321	0.095	0.081
-410.355	-50.258	-0.167	0.079
-409.340	35.139	-0.133	-0.116
-408.325	382.350	0.134	-0.273
-407.311	-200.000	-0.048	0.226
-406.296	-102.006	-0.127	-0.030
-405.282	-37.111	-0.012	-0.007
-404.267	-78.472	-0.349	0.119
-403.252	-200.000	0.003	-0.018
-402.238	74.179	0.073	-0.076
-401.223	-146.936	0.208	0.018
-400.209	563.749	0.061	0.147
-399.194	-3.767	-0.237	-0.164
-398.179	-28.390	0.278	-0.159
-397.165	-200.000	-0.028	0.158
-396.150	-83.083	-0.256	0.082
-395.136	38.500	0.159	-0.141
-394.121	-127.534	-0.046	-0.007
-393.106	232.106	0.129	-0.210
-392.092	-101.008	0.341	0.083
-391.077	-142.895	0.246	-0.024
-390.063	-84.977	0.397	-0.123
-389.048	115.764	0.180	0.218
-388.033	-142.517	-0.187	0.018
-387.019	-46.741	-0.366	-0.178
-386.004	-200.000	0.012	-0.126
-384.990	-70.020	0.216	-0.082
-383.975	-140.434	-0.245	0.025
-382.960	-34.852	0.157	-0.085
-381.946	-200.000	-0.007	-0.164
-380.931	426.799	0.035	-0.075
-379.917	146.097	0.106	-0.141
-378.902	83.979	0.120	0.130
-377.888	-142.006	-0.196	0.019
-376.873	-200.000	0.026	-0.205
-375.858	32.884	0.187	-0.160
-374.844	-200.000	0.010	-0.112
-373.829	604.809	-0.050	0.123
-372.815	144.676	-0.168	0.222
-371.800	263.760	-0.076	-0.131
-370.785	-146.316	-0.312	-0.027
-369.771	800.000	-0.136	-0.429
-368.756	-200.000	-0.033	-0.149
-367.742	800.000	0.110	0.335
-366.727	-191.185	0.198	-0.002
-365.712	242.018	0.106	0.175
-364.698	11.462	-0.245	-0.186
-363.683	-13.783	0.223	-0.143
-362.669	153.205	0.063	-0.085
-361.654	221.780	-0.161	-0.256
-360.639	-200.000	0.021	-0.406
-359.625	-131.683	0.157	-0.020
-358.610	-26.634	-0.361	-0.209
-357.596	-28.169	-0.151	-0.087
-356.581	75.969	-0.118	0.123
-355.566	-125.151	-0.098	-0.015
-354.552	52.088	0.119	0.113
-353.537	-109.740	-0.169	0.035
-352.523	-200.000	-0.031	-0.463
-351.508	54.688	0.093	0.089
-350.493	266.841	-0.110	-0.190
-349.479	-200.000	0.024	0.257
-348.464	-77.379	0.065	-0.022
-347.450	-67.433	-0.145	0.056
-346.435	800.000	0.050	0.148
-345.420	-33.205	-0.081	-0.044
-344.406	-57.690	0.320	-0.139
-343.391	85.582	-0.154	0.168
-342.377	-129.063	0.257	0.036
-341.362	-166.405	0.030	-0.001
-340.348	-20.340	0.245	0.149
-339.333	-200.000	-0.024	0.230
-338.318	26.332	0.116	0.096
-337.304	-200.000	0.009	0.303
-336.289	-102.915	-0.077	0.018
-335.275	67.620	-0.152	0.154
-334.260	39.314	-0.194	0.172
-333.245	19.698	0.099	-0.079
-332.231	67.665	0.176	-0.178
-331.216	-70.640	0.237	0.088
-330.202	-73.623	-0.197	-0.071
-329.187	-107.763	0.294	0.063
-328.172	-200.000	-0.002	0.267
-327.158	-84.908	-0.267	0.083
-326.143	-200.000	-0.031	0.255
-325.129	-200.000	-0.013	-0.097
-324.114	43.663	0.127	-0.115
-323.099	-200.000	-0.026	0.330
-322.085	18.053	-0.053	-0.042
-321.070	514.191	0.077	-0.178
-320.056	199.542	-0.156	-0.237
-319.041	80.238	-0.140	-0.149
-318.026	-168.084	0.299	-0.012
-317.012	175.118	0.050	-0.071
-315.997	3.697	0.092	-0.066
-314.983	-77.743	-0.223	0.076
-313.968	-200.000	-0.003	0.198
-312.953	-200.000	0.061	-0.360
-311.939	800.000	-0.024	-0.100
-310.924	-26.580	0.163	0.094
-309.910	308.010	-0.081	-0.149
-308.895	-91.506	0.371	-0.105
-307.880	-67.697	-0.151	0.058
-306.866	-80.170	-0.223	0.074
-305.851	800.000	-0.034	0.094
-304.837	0.478	0.156	0.110
-303.822	800.000	-0.018	-0.071
-302.807	37.881	-0.128	0.112
-301.793	800.000	-0.067	-0.234
-300.778	193.001	-0.078	0.117
-299.764	268.092	-0.110	0.191
-298.749	-70.505	-0.060	0.022
-297.735	86.368	-0.153	-0.167
-296.720	-200.000	0.026	-0.203
-295.705	-56.215	0.264	-0.116
-294.691	32.945	-0.187	0.160
-293.676	673.131	0.019	0.048
-292.662	-200.000	0.053	0.301
-291.647	32.713	0.113	-0.097
-290.632	220.158	-0.084	-0.134
-289.618	27.405	0.198	0.164
-288.603	631.641	0.158	-0.395
-287.589	154.849	-0.109	0.148
-286.574	-93.810	0.132	-0.036
-285.559	-104.357	-0.166	0.038
-284.545	235.782	0.027	0.044
-283.530	-50.079	-0.081	0.038
-282.516	60.778	-0.081	-0.080
-281.501	130.748	-0.085	0.108
-280.486	43.510	-0.038	0.035
-279.472	800.000	0.066	0.278
-278.457	-137.436	-0.318	0.036
-277.443	800.000	0.046	-0.161
-276.428	-200.000	-0.086	0.414
-275.413	-32.570	-0.078	-0.043
-274.399	800.000	0.045	0.137
-273.384	17.208	-0.187	-0.146
-272.370	121.613	0.075	-0.092
-271.355	-145.806	0.298	0.026
-270.340	251.975	-0.079	-0.133
-269.326	210.100	0.110	-0.171
-268.311	679.441	-0.048	0.123
-267.297	-106.714	-0.226	-0.050
-266.282	-160.953	0.299	0.016
-265.267	39.955	-0.070	0.062
-264.253	-47.200	0.304	0.146
-263.238	-39.798	-0.225	0.116
-262.224	800.000	-0.040	0.153
-261.209	-66.395	0.086	0.034
-260.195	-67.434	0.100	0.039
-259.180	567.667	0.071	-0.171
-258.165	-50.538	-0.260	-0.121
-257.151	-14.305	-0.032	-0.020
-256.136	4.769	0.233	-0.169
-255.122	106.982	0.082	0.096
-254.107	430.508	0.124	-0.264
-253.092	800.000	0.063	0.175
-252.078	-30.377	-0.130	0.073
-251.063	-98.079	-0.142	0.036
-250.049	800.000	-0.065	0.227
-249.034	-6.697	0.181	-0.122
-248.019	-99.726	-0.527	-0.130
-247.005	428.577	-0.161	-0.342
-245.990	535.347	0.128	-0.300
-244.976	-200.000	-0.069	0.335
-243.961	361.534	0.134	0.264
-242.946	-56.395	-0.229	0.100
-241.932	-200.000	0.026	0.180
-240.917	8.861	-0.322	0.239
-239.903	-200.000	0.002	-0.105
-238.888	800.000	0.061	-0.185
-237.873	800.000	-0.073	0.216
-236.859	521.531	-0.182	0.420
-235.844	-74.466	0.103	-0.037
-234.830	-121.043	-0.122	0.020
-233.815	-118.557	-0.411	0.072
-232.800	29.238	0.116	-0.097
-231.786	37.934	-0.220	0.193
-230.771	-200.000	-0.000	0.043
-229.757	-200.000	0.015	-0.250
-228.742	15.626	0.284	0.220
-227.727	-79.783	-0.230	-0.076
-226.713	-173.232	-0.347	0.010
-225.698	-200.000	0.002	0.137
-224.684	170.455	0.143	0.202
-223.669	182.605	-0.073	-0.105
-222.655	-102.481	-0.320	-0.075
-221.640	187.304	-0.148	-0.218
-220.625	-200.000	-0.046	-0.241
-219.611	-118.658	-0.208	-0.036
-218.596	155.338	0.164	-0.222
-217.582	-54.228	0.332	-0.149
-216.567	800.000	-0.031	0.087
-215.552	-80.621	-0.267	-0.087
-214.538	69.956	0.109	-0.110
-213.523	715.902	-0.092	0.240
-212.509	-72.298	0.097	0.035
-211.494	-200.000	-0.051	0.291
-210.479	503.593	0.036	0.082
-209.465	12.329	0.236	0.179
-208.450	-200.000	-0.021	0.153
-207.436	-200.000	0.013	0.185
-206.421	640.681	0.065	-0.163
-205.406	355.681	-0.110	-0.216
-204.392	208.876	-0.226	-0.349
-203.377	-149.010	0.175	0.014
-202.363	-103.168	0.239	0.056
-201.348	-200.000	0.062	0.295
-200.333	535.168	0.072	-0.168
-199.319	116.124	0.210	0.253
-198.304	-12.359	0.187	-0.120
-197.290	144.360	-0.067	-0.088
-196.275	512.442	0.053	0.121
-195.260	211.545	0.100	-0.155
-194.246	305.199	0.106	-0.194
-193.231	-93.859	-0.138	-0.037
-192.217	268.422	-0.117	-0.201
-191.202	-200.000	0.040	-0.405
-190.187	466.895	-0.142	0.313
-189.173	662.825	0.092	0.233
-188.158	-200.000	0.005	-0.047
-187.144	36.088	-0.087	-0.075
-186.129	369.415	-0.118	-0.235
-185.114	-200.000	-0.060	-0.320
-184.100	-22.274	0.217	0.129
-183.085	538.072	0.199	0.466
-182.071	-178.393	-0.088	-0.002
-181.056	190.019	-0.071	-0.105
-180.042	493.539	0.090	-0.202
-179.027	256.497	0.023	0.038
-178.012	316.537	0.061	-0.113
-176.998	-36.130	0.469	-0.249
-175.983	-12.626	-0.184	0.118
-174.969	800.000	0.107	0.385
-173.954	-200.000	-0.050	0.371
-172.939	-200.000	-0.046	0.435
-171.925	-109.588	0.203	-0.042
-170.910	-200.000	-0.024	0.156
-169.896	-200.000	0.004	0.033
-168.881	87.793	-0.210	-0.229
-167.866	-3.730	0.058	-0.039
-166.852	133.384	0.086	0.109
-165.837	-43.646	0.053	0.026
-164.823	64.255	-0.184	0.182
-163.808	146.891	0.203	0.269
-162.793	800.000	-0.083	0.229
-161.779	-72.883	0.027	0.010
-160.764	-200.000	0.019	0.374
-159.750	603.933	0.077	0.189
-158.735	160.359	-0.102	0.140
-157.720	800.000	0.086	0.270
-156.706	800.000	0.050	-0.178
-155.691	-200.000	-0.008	-0.038
-154.677	130.669	0.331	-0.417
-153.662	-169.098	0.294	0.011
-152.647	-12.609	0.092	-0.059
-151.633	37.464	-0.222	-0.194
-150.618	-72.131	0.152	-0.055
-149.604	174.110	-0.032	-0.045
-148.589	441.592	-0.084	0.181
-147.574	297.108	0.172	0.311
-146.560	800.000	0.055	-0.237
-145.545	-129.629	0.279	0.038
-144.531	730.088	0.060	0.158
-143.516	-200.000	0.009	0.220
-142.502	-200.000	0.017	-0.149
-141.487	-200.000	0.005	-0.205
-140.472	800.000	-0.052	0.218
-139.458	-91.789	0.228	0.064
-138.443	-18.348	0.185	-0.114
-137.429	-200.000	0.080	-0.355
-136.414	31.268	0.177	-0.149
-135.399	-137.115	0.208	0.023
-134.385	-46.576	-0.184	0.089
-133.370	-200.000	0.041	-0.377
-132.356	3.389	0.191	-0.136
-131.341	-55.877	-0.115	0.050
-130.326	-200.000	0.016	-0.240
-129.312	116.773	0.196	-0.236
-128.297	-109.384	0.098	0.020
-127.283	792.574	-0.110	-0.298
-126.268	-67.182	0.279	-0.108
-125.253	158.762	0.167	0.227
-124.239	-6.815	0.105	0.070
-123.224	-53.700	0.033	-0.015
-122.210	800.000	0.142	0.397
-121.195	-174.461	0.376	0.011
-120.180	-200.000	0.007	-0.320
-119.166	-200.000	0.025	0.171
-118.151	-52.051	0.253	-0.115
-117.137	-80.605	0.273	-0.089
-116.122	784.771	-0.044	0.119
-115.107	-45.636	-0.338	0.164
-114.093	-75.237	-0.218	0.076
-113.078	232.615	-0.162	0.261
-112.064	-200.000	0.056	-0.245
-111.049	-42.833	0.163	-0.081
-110.034	-121.032	0.313	-0.052
-109.020	-25.418	-0.114	-0.066
-108.005	-129.256	0.165	-0.023
-106.991	377.896	0.048	-0.095
-105.976	-21.369	0.160	0.096
-104.962	125.796	-0.051	0.064
-103.947	-200.000	-0.006	0.050
-102.932	55.694	0.140	-0.133
-101.918	-200.000	0.012	-0.079
-100.903	2.325	-0.152	0.108
-99.889	800.000	0.129	0.413
-98.874	-200.000	-0.101	0.486
-97.859	10.134	0.100	0.074
-96.845	-200.000	0.001	-0.042
-95.830	30.904	0.269	0.226
-94.816	-127.569	-0.329	0.047
-93.801	65.704	-0.054	-0.054
-92.786	-118.155	0.234	-0.041
-91.772	103.682	0.136	0.156
-90.757	-200.000	0.065	0.364
-89.743	154.882	0.162	0.218
-88.728	-69.399	0.171	0.064
-87.713	-78.830	0.157	0.052
-86.699	-200.000	0.004	0.090
-85.684	-80.240	0.188	-0.062
-84.670	42.837	-0.539	-0.481
-83.655	800.000	-0.046	0.195
-82.640	800.000	-0.057	0.178
-81.626	771.992	-0.146	-0.390
-80.611	-171.144	0.186	-0.006
-79.597	67.435	0.151	0.150
-78.582	800.000	-0.047	-0.151
-77.567	14.384	-0.174	-0.133
-76.553	153.264	-0.170	0.228
-75.538	800.000	-0.179	0.489
-74.524	-131.032	0.215	-0.028
-73.509	38.678	0.206	0.180
-72.494	40.705	-0.191	-0.169
-71.480	-95.525	0.242	0.063
-70.465	-9.422	0.194	-0.127
-69.451	64.725	0.136	0.135
-68.436	-30.135	-0.116	0.065
-67.422	-66.720	-0.020	0.008
-66.407	800.000	0.009	-0.032
-65.392	800.000	0.030	0.085
-64.378	-200.000	0.023	0.123
-63.363	-37.170	-0.180	0.094
-62.349	82.399	-0.120	0.128
-61.334	86.102	-1.032	-1.112
-60.319	78.802	0.771	0.807
-59.305	800.000	-0.304	-0.992
-58.290	173.260	0.825	1.164
-57.276	611.123	0.763	1.867
-56.261	-200.000	114.470	644.973
-55.246	470.911	1508.147	3318.868
-54.232	147.097	2677.823	3524.830
-53.217	96.716	2285.083	2560.887
-52.203	36.392	1896.854	1636.651
-51.188	30.528	1688.239	1412.197
-50.173	28.050	1646.589	1358.905
-49.159	49.535	1701.178	1566.667
-48.144	48.351	1716.018	1571.348
-47.130	30.072	1674.831	1397.322
-46.115	27.476	1660.065	1365.507
-45.100	27.372	1655.041	1360.549
-44.086	27.320	1652.685	1358.166
-43.071	27.294	1650.111	1355.807
-42.057	27.173	1648.171	1353.257
-41.042	27.289	1645.734	1352.061
-40.027	27.334	1643.814	1350.764
-39.013	27.199	1642.455	1348.596
-37.998	27.245	1640.284	1347.100
-36.984	27.193	1639.383	1345.921
-35.969	27.406	1637.264	1345.700
-34.954	27.357	1636.145	1344.371
-33.940	27.340	1634.173	1342.570
-32.925	27.319	1632.418	1340.919
-31.911	27.354	1630.698	1339.707
-30.896	27.352	1629.359	1338.546
-29.881	27.342	1627.977	1337.277
-28.867	27.364	1625.727	1335.538
-27.852	27.372	1623.981	1334.112
-26.838	27.344	1623.059	1333.094
-25.823	27.327	1621.671	1331.781
-24.809	27.443	1620.332	1331.478
-23.794	27.396	1619.082	1330.049
-22.779	27.331	1617.491	1328.218
-21.765	27.347	1615.947	1327.017
-20.750	27.371	1614.487	1325.935
-19.736	27.426	1612.887	1324.970
-18.721	27.501	1611.736	1324.517
-17.706	27.326	1609.919	1321.701
-16.692	27.408	1608.503	1321.083
-15.677	27.470	1607.227	1320.431
-14.663	27.511	1605.490	1319.250
-13.648	27.454	1604.571	1318.031
-12.633	27.547	1602.631	1317.051
-11.619	27.370	1601.596	1314.875
-10.604	27.398	1599.924	1313.652
-9.590	27.428	1598.506	1312.646
-8.575	27.371	1597.725	1311.544
-7.560	27.456	1596.197	1310.848
-6.546	27.458	1595.445	1310.193
-5.531	27.475	1593.731	1308.861
-4.517	27.420	1592.686	1307.550
-3.502	27.327	1592.152	1306.395
-2.487	27.471	1590.159	1305.740
-1.473	27.029	1578.098	1292.641
-0.458	24.084	1557.788	1255.225
0.556	18.474	1559.053	1220.908
1.571	15.875	1582.003	1219.956
2.586	15.564	1593.674	1226.578
3.600	14.300	1541.652	1177.501
4.615	8.017	1434.158	1053.857
5.629	1.574	1372.803	967.783
6.644	0.231	1365.435	954.002
7.659	0.061	1364.238	952.004
8.673	0.128	1362.663	951.245
9.688	0.050	1361.154	949.613
10.702	-0.080	1357.680	946.287
11.717	3.111	1362.474	969.686
12.731	10.782	1374.651	1026.913
13.746	16.329	1382.227	1067.643
14.761	17.181	1382.085	1072.821
15.775	16.269	1379.842	1065.235
16.790	15.234	1377.237	1056.606
17.804	14.488	1374.860	1049.990
18.819	14.071	1373.968	1046.594
19.834	13.889	1372.461	1044.206
20.848	13.588	1371.640	1041.597
21.863	13.376	1369.802	1038.779
22.877	13.276	1368.936	1037.403
23.892	13.233	1367.693	1036.099
24.907	13.108	1367.296	1034.925
25.921	13.245	1365.740	1034.510
26.936	13.217	1365.116	1033.774
27.950	13.275	1364.131	1033.299
28.965	13.366	1363.587	1033.365
29.980	13.477	1362.340	1033.019
30.994	13.431	1361.275	1031.834
32.009	13.378	1360.978	1031.189
33.023	13.444	1359.076	1030.064
34.038	13.552	1357.716	1029.615
35.053	13.383	1357.351	1028.197
36.067	13.411	1356.330	1027.508
37.082	13.406	1355.608	1026.841
38.096	13.397	1354.428	1025.797
39.111	13.326	1353.888	1024.859
40.126	13.332	1352.923	1024.071
41.140	13.387	1351.346	1023.132
42.155	13.171	1351.354	1021.708
43.169	13.237	1351.214	1021.919
44.184	13.220	1350.754	1021.378
45.199	13.277	1350.788	1021.666
46.213	13.114	1350.168	1020.099
47.228	13.343	1348.502	1020.160
48.242	13.265	1348.105	1019.291
49.257	13.341	1345.931	1018.024
50.271	13.309	1344.845	1016.916
51.286	13.193	1343.930	1015.421
52.301	13.229	1342.332	1014.346
53.315	13.187	1341.173	1013.123
54.330	13.189	1339.937	1012.113
55.344	13.141	1339.762	1011.597
56.359	13.264	1338.049	1010.965
57.374	13.172	1337.364	1009.794
58.388	13.067	1336.909	1008.722
59.403	13.159	1336.328	1008.756
60.417	13.156	1335.131	1007.742
61.432	13.171	1334.583	1007.336
62.447	13.054	1333.673	1005.842
63.461	13.032	1332.555	1004.777
64.476	13.081	1331.017	1003.829
65.490	13.077	1329.854	1002.839
66.505	13.092	1328.144	1001.549
67.520	13.183	1326.638	1000.877
68.534	13.082	1326.238	999.877
69.549	13.108	1325.373	999.292
70.563	13.179	1323.697	998.369
71.578	13.063	1323.249	997.240
72.593	12.924	1322.378	995.657
73.607	12.979	1321.389	995.154
74.622	12.968	1320.710	994.491
75.636	12.930	1320.165	993.764
76.651	13.073	1319.048	993.699
77.666	13.128	1317.961	993.123
78.680	13.059	1317.914	992.580
79.695	13.050	1316.763	991.574
80.709	13.079	1316.326	991.330
81.724	13.173	1315.005	990.814
82.739	13.201	1314.056	990.175
83.753	13.265	1313.262	989.876
84.768	13.227	1312.440	988.942
85.782	13.383	1310.923	988.643
86.797	13.300	1309.911	987.297
87.812	13.286	1308.148	985.798
88.826	13.359	1307.327	985.523
89.841	13.284	1306.985	984.733
90.855	13.381	1305.735	984.283
91.870	13.404	1304.594	983.470
92.884	13.280	1304.159	982.319
93.899	13.338	1303.220	981.867
94.914	13.488	1302.506	982.134
95.928	13.595	1301.221	981.713
96.943	13.433	1300.719	980.290
97.957	13.358	1300.019	979.230
98.972	13.277	1299.214	978.058
99.987	13.333	1297.887	977.301
101.001	13.414	1296.420	976.587
102.016	13.324	1295.761	975.473
103.030	13.394	1294.811	975.088
104.045	13.356	1293.878	974.074
105.060	13.404	1292.368	973.136
106.074	13.258	1291.342	971.414
107.089	13.179	1290.718	970.399
108.103	13.145	1289.307	969.049
109.118	13.223	1287.618	968.152
110.133	13.150	1286.672	966.927
111.147	13.163	1285.157	965.780
112.162	13.237	1283.919	965.194
113.176	13.318	1282.275	964.347
114.191	13.315	1281.984	964.024
115.206	13.264	1280.902	962.830
116.220	13.312	1279.406	961.902
117.235	13.198	1278.725	960.641
118.249	13.211	1277.897	960.008
119.264	13.228	1276.486	958.965
120.279	13.246	1275.024	957.884
121.293	13.187	1274.535	957.087
122.308	13.123	1273.760	956.055
123.322	13.080	1273.021	955.166
124.337	13.164	1271.743	954.607
125.352	13.186	1270.974	954.071
126.366	13.214	1269.465	953.014
127.381	13.202	1268.255	951.956
128.395	13.215	1267.647	951.490
129.410	13.279	1266.132	950.638
130.424	13.300	1265.709	950.356
131.439	13.260	1264.668	949.259
132.454	13.313	1263.951	948.939
133.468	13.264	1263.147	947.969
134.483	13.276	1262.101	947.170
135.497	13.241	1261.471	946.416
136.512	13.272	1259.777	945.237
137.527	13.277	1258.360	944.121
138.541	13.294	1257.086	943.175
139.556	13.310	1255.530	942.020
140.570	13.331	1254.720	941.449
141.585	13.435	1253.622	941.131
142.600	13.354	1252.406	939.672
143.614	13.550	1251.253	939.836
144.629	13.469	1250.447	938.688
145.643	13.404	1249.638	937.631
146.658	13.468	1248.100	936.756
147.673	13.412	1246.704	935.312
148.687	13.435	1245.487	934.442
149.702	13.359	1244.198	932.967
150.716	13.364	1242.973	931.992
151.731	13.408	1241.925	931.372
152.746	13.321	1241.034	930.133
153.760	13.329	1239.684	929.082
154.775	13.429	1238.124	928.390
155.789	13.613	1237.166	928.624
156.804	13.541	1236.158	927.384
157.819	13.592	1235.244	926.897
158.833	13.639	1233.748	925.959
159.848	13.602	1233.734	925.658
160.862	13.609	1232.679	924.824
161.877	13.564	1231.285	923.443
162.892	13.610	1230.081	922.716
163.906	13.529	1229.543	921.782
164.921	13.476	1228.647	920.734
165.935	13.497	1227.866	920.182
166.950	13.467	1227.154	919.401
167.964	13.641	1226.265	919.618
168.979	13.563	1225.383	918.441
169.994	13.624	1224.395	917.957
171.008	13.631	1224.093	917.691
172.023	13.676	1223.232	917.215
173.037	13.655	1222.543	916.499
174.052	13.675	1221.459	915.714
175.067	13.522	1220.198	913.844
176.081	13.635	1219.555	913.908
177.096	13.635	1218.394	912.953
178.110	13.666	1216.929	911.949
179.125	13.779	1215.475	911.396
180.140	13.629	1215.136	910.240
181.154	13.665	1213.647	909.242
182.169	13.696	1212.647	908.582
183.183	13.698	1211.341	907.532
184.198	13.748	1210.582	907.156
185.213	13.726	1209.273	905.974
186.227	13.805	1208.024	905.389
187.242	13.826	1207.264	904.857
188.256	13.847	1206.134	904.046
189.271	13.900	1205.014	903.411
190.286	13.686	1203.949	901.369
191.300	13.702	1203.223	900.833
192.315	13.683	1202.440	900.064
193.329	13.668	1201.871	899.479
194.344	13.646	1201.545	899.035
195.359	13.919	1200.471	899.631
196.373	13.847	1200.138	898.910
197.388	14.028	1199.203	899.110
198.402	13.995	1198.939	898.653
199.417	14.145	1198.049	898.720
200.432	13.980	1197.519	897.351
201.446	14.112	1196.742	897.402
202.461	14.138	1196.176	897.040
203.475	14.255	1194.547	896.367
204.490	14.141	1193.368	894.791
205.504	14.101	1192.396	893.765
206.519	14.107	1190.748	892.483
207.534	14.079	1189.913	891.633
208.548	14.045	1189.191	890.830
209.563	14.146	1188.185	890.537
210.577	14.106	1187.481	889.717
211.592	14.182	1186.369	889.209
212.607	14.214	1185.683	888.788
213.621	14.208	1185.106	888.243
214.636	14.123	1184.021	886.901
215.650	14.184	1183.004	886.385
216.665	14.235	1182.211	885.983
217.680	14.303	1181.310	885.590
218.694	14.349	1180.275	884.984
219.709	14.315	1179.702	884.295
220.723	14.277	1178.791	883.331
221.738	14.251	1178.595	882.967
222.753	14.287	1177.372	882.162
223.767	14.234	1177.087	881.590
224.782	14.416	1176.193	881.809
225.796	14.473	1175.863	881.782
226.811	14.390	1174.896	880.542
227.826	14.368	1174.021	879.689
228.840	14.377	1173.775	879.477
229.855	14.335	1172.794	878.444
230.869	14.394	1171.589	877.772
231.884	14.352	1170.998	877.034
232.899	14.366	1170.335	876.531
233.913	14.368	1169.480	875.825
234.928	14.341	1168.829	875.115
235.942	14.317	1167.957	874.263
236.957	14.400	1166.910	873.836
237.972	14.391	1166.537	873.433
238.986	14.415	1165.696	872.852
240.001	14.404	1165.194	872.340
241.015	14.493	1164.124	871.928
242.030	14.466	1163.375	871.149
243.045	14.506	1162.576	870.680
244.059	14.423	1162.158	869.857
245.074	14.521	1160.703	869.201
246.088	14.602	1160.004	869.024
247.103	14.576	1159.382	868.347
248.117	14.700	1158.445	868.213
249.132	14.691	1158.107	867.835
250.147	14.816	1157.317	867.815
251.161	14.703	1156.759	866.733
252.176	14.837	1155.808	866.639
253.190	14.921	1155.305	866.618
254.205	14.902	1154.942	866.171
255.220	14.876	1154.336	865.507
256.234	14.884	1153.588	864.913
257.249	15.005	1152.567	864.693
258.263	14.944	1152.131	863.977
259.278	14.993	1151.094	863.377
260.293	14.957	1151.054	863.082
261.307	15.046	1150.396	862.972
262.322	15.032	1149.475	862.131
263.336	14.993	1149.200	861.651
264.351	15.036	1148.916	861.583
265.366	15.106	1147.856	861.072
266.380	15.008	1147.240	860.029
267.395	15.102	1146.245	859.688
268.409	15.147	1145.611	859.368
269.424	15.148	1145.200	858.989
270.439	15.146	1144.187	858.145
271.453	15.084	1143.395	857.157
272.468	15.102	1142.890	856.792
273.482	15.060	1142.404	856.138
274.497	15.158	1141.361	855.780
275.512	15.208	1140.807	855.544
276.526	15.024	1140.241	854.106
277.541	15.088	1139.487	853.793
278.555	15.236	1138.335	853.610
279.570	15.281	1137.536	853.161
280.585	15.229	1136.977	852.403
281.599	15.240	1135.895	851.570
282.614	15.289	1134.712	850.860
283.628	15.403	1133.633	850.550
284.643	15.301	1132.475	849.092
285.657	15.273	1132.561	848.937
286.672	15.280	1130.994	847.722
287.687	15.175	1131.028	847.144
288.701	15.302	1129.845	846.825
289.716	15.351	1128.862	846.262
290.730	15.285	1128.423	845.524
291.745	15.307	1127.631	844.967
292.760	15.401	1126.622	844.606
293.774	15.422	1126.166	844.299
294.789	15.509	1125.665	844.285
295.803	15.472	1125.348	843.787
296.818	15.491	1124.263	842.991
297.833	15.531	1123.112	842.257
298.847	15.474	1122.662	841.557
299.862	15.444	1121.619	840.553
300.876	15.484	1121.196	840.359
301.891	15.466	1120.595	839.747
302.906	15.634	1119.989	840.057
303.920	15.574	1119.255	839.133
304.935	15.540	1118.733	838.497
305.949	15.722	1118.074	838.838
306.964	15.799	1116.960	838.311
307.979	15.633	1116.577	837.122
308.993	15.743	1115.667	836.914
310.008	15.644	1115.030	835.870
311.022	15.832	1113.925	835.901
312.037	15.818	1113.019	835.078
313.052	15.784	1112.403	834.374
314.066	15.727	1111.861	833.608
315.081	15.730	1110.493	832.526
316.095	15.733	1109.993	832.090
317.110	15.666	1109.164	831.064
318.125	15.702	1108.297	830.521
319.139	15.683	1107.555	829.798
320.154	15.722	1107.233	829.673
321.168	15.740	1106.331	829.016
322.183	15.594	1105.770	827.802
323.197	15.691	1105.475	827.986
324.212	15.703	1104.665	827.365
325.227	15.808	1104.278	827.517
326.241	15.932	1103.345	827.356
327.256	15.876	1102.436	826.325
328.270	15.683	1101.582	824.665
329.285	15.849	1100.669	824.720
330.300	15.870	1099.858	824.145
331.314	15.866	1098.987	823.400
332.329	15.922	1098.136	822.961
333.343	15.888	1097.113	821.955
334.358	15.844	1096.563	821.255
335.373	16.034	1095.661	821.433
336.387	15.996	1095.053	820.718
337.402	16.047	1094.300	820.331
338.416	15.979	1093.714	819.491
339.431	16.053	1093.148	819.351
340.446	16.148	1092.380	819.167
341.460	16.134	1091.711	818.525
342.475	16.164	1091.046	818.099
343.489	16.128	1090.003	817.069
344.504	16.150	1089.382	816.639
345.519	16.197	1088.209	815.913
346.533	16.267	1087.611	815.732
347.548	16.235	1087.098	815.118
348.562	16.318	1086.144	814.731
349.577	16.209	1085.322	813.517
350.592	16.094	1084.618	812.367
351.606	16.164	1083.768	811.996
352.621	16.190	1083.015	811.483
353.635	16.228	1082.628	811.303
354.650	16.199	1081.874	810.526
355.665	16.262	1081.179	810.238
356.679	16.357	1080.307	809.970
357.694	16.359	1079.658	809.418
358.708	16.335	1079.220	808.904
359.723	16.227	1078.643	807.884
360.738	16.435	1078.241	808.506
361.752	16.374	1077.695	807.732
362.767	16.420	1076.932	807.308
363.781	16.497	1075.858	806.802
364.796	16.438	1075.617	806.266
365.810	16.480	1074.841	805.813
366.825	16.435	1074.684	805.411
367.840	16.619	1074.026	805.721
368.854	16.528	1073.093	804.518
369.869	16.590	1072.572	804.352
370.883	16.554	1071.886	803.594
371.898	16.656	1070.850	803.231
372.913	16.571	1070.105	802.197
373.927	16.607	1069.710	802.001
374.942	16.691	1069.154	801.912
375.956	16.697	1068.940	801.708
376.971	16.597	1068.394	800.756
377.986	16.732	1067.586	800.718
379.000	16.725	1067.119	800.263
380.015	16.778	1066.626	800.073
381.029	16.885	1065.608	799.744
382.044	16.800	1065.002	798.817
383.059	16.675	1064.495	797.775
384.073	17.046	1063.087	798.398
385.088	16.802	1062.566	796.786
386.102	16.899	1061.460	796.343
387.117	16.782	1060.543	795.038
388.132	16.840	1059.902	794.759
389.146	16.675	1059.471	793.591
390.161	16.877	1058.450	793.703
391.175	16.745	1057.757	792.491
392.190	16.914	1057.262	792.844
393.205	16.919	1056.421	792.166
394.219	16.914	1055.874	791.663
395.234	16.900	1054.899	790.793
396.248	16.942	1053.931	790.196
397.263	16.875	1052.769	788.940
398.278	16.878	1052.244	788.495
399.292	16.985	1051.515	788.372
400.307	16.878	1050.559	787.092
401.321	16.851	1050.201	786.630
402.336	16.885	1049.561	786.234
403.350	16.907	1049.049	785.884
404.365	16.928	1048.214	785.288
405.380	16.994	1047.479	784.974
406.394	17.107	1046.527	784.714
407.409	17.097	1045.682	783.963
408.423	17.038	1045.059	783.156
409.438	17.122	1044.436	783.003
410.453	17.251	1043.584	782.892
411.467	17.232	1043.203	782.450
412.482	17.269	1042.358	781.914
413.496	17.252	1041.949	781.464
414.511	17.270	1041.082	780.824
415.526	17.431	1040.648	781.172
416.540	17.394	1040.282	780.655
417.555	17.369	1040.023	780.276
418.569	17.316	1039.580	779.632
419.584	17.386	1038.888	779.365
420.599	17.531	1038.250	779.481
421.613	105.063	1325.471	1477.127
422.628	96.365	1367.253	1477.221
