DTS Sentinel unit serial number:	SN413079Multiplexer serial number:	ORYXHardware model number:	OX4-SRSoftware version number:	ORYX F/W v4.00 Oryx Data Collector v3.7.2.0data status	okinstallation	princeton_trtdifferential loss correction	single-endedforward channel	channel 2reverse channel	N/Adate	2019/09/15time	07:19:35forward acquisition time	60.00reverse acquisition time	0.00gamma	496.2192k internal	0.2325k external	0.2325temperature offset calibration	1.0030default loss term (dB/km)	0.3790temperature slope calibration	1.0000multiplexer offset coefficient	1.0000multiplexer slope coefficient	1.0000fibre end	0.00T internal ref (°C)	30.55T ext. ref 1 (°C)	4.86T ext. ref 2 (°C)	25.83length (m)	temperature (°C)	Stokes	anti-Stokes-747.200	-50.857	0.286	-0.136
-746.185	800.000	0.176	0.495
-745.171	-37.405	0.092	-0.049
-744.156	-59.755	0.317	0.137
-743.142	-82.628	-0.138	-0.045
-742.127	-200.000	-0.006	0.158
-741.112	770.729	0.052	0.142
-740.098	563.013	0.044	-0.106
-739.083	800.000	0.048	-0.151
-738.069	-200.000	-0.006	0.231
-737.054	524.081	0.091	0.215
-736.039	385.368	-0.085	-0.177
-735.025	139.852	0.265	0.352
-734.010	-177.656	-0.126	0.003
-732.996	-118.176	-0.148	-0.027
-731.981	-96.924	0.270	-0.071
-730.966	45.074	0.292	0.271
-729.952	12.347	0.256	-0.199
-728.937	68.509	0.243	-0.251
-727.923	32.542	0.019	0.016
-726.908	24.243	-0.307	-0.256
-725.894	-200.000	0.017	-0.328
-724.879	-118.516	-0.266	0.048
-723.864	800.000	-0.072	0.314
-722.850	159.232	-0.097	-0.136
-721.835	367.507	-0.091	-0.185
-720.821	75.333	-0.121	-0.129
-719.806	-55.495	0.185	0.084
-718.791	14.051	0.093	-0.073
-717.777	800.000	0.024	0.094
-716.762	31.863	-0.066	0.057
-715.748	476.516	0.181	-0.413
-714.733	800.000	0.028	0.092
-713.718	-62.490	-0.107	-0.045
-712.704	18.211	-0.317	-0.255
-711.689	4.611	0.206	-0.152
-710.675	-94.035	-0.087	-0.024
-709.660	-14.738	-0.043	0.028
-708.645	25.837	0.222	-0.186
-707.631	272.837	-0.089	0.158
-706.616	315.569	0.016	0.031
-705.602	118.548	-0.183	0.228
-704.587	-84.534	0.257	-0.082
-703.572	136.181	-0.134	0.176
-702.558	-200.000	0.003	-0.183
-701.543	7.234	-0.084	0.063
-700.529	28.609	-0.073	0.062
-699.514	-156.071	-0.322	-0.021
-698.499	-112.955	-0.124	-0.025
-697.485	-200.000	0.015	0.240
-696.470	137.824	-0.138	-0.182
-695.456	111.058	-0.150	-0.182
-694.441	-200.000	-0.021	-0.145
-693.426	-133.221	-0.428	-0.054
-692.412	-138.610	0.202	-0.022
-691.397	-92.011	0.342	0.098
-690.383	-7.312	-0.204	-0.139
-689.368	107.913	0.138	-0.165
-688.354	431.643	-0.028	-0.060
-687.339	447.790	0.123	-0.273
-686.324	20.736	-0.089	0.072
-685.310	56.351	-0.061	-0.060
-684.295	-200.000	0.020	0.283
-683.281	-137.386	0.116	-0.013
-682.266	-39.287	0.306	-0.162
-681.251	800.000	-0.045	-0.150
-680.237	796.712	0.071	-0.197
-679.222	-125.731	0.107	0.016
-678.208	76.124	0.042	0.044
-677.193	800.000	0.132	-0.416
-676.178	-200.000	-0.024	0.306
-675.164	-200.000	-0.005	-0.200
-674.149	-200.000	0.078	0.516
-673.135	373.871	-0.173	0.354
-672.120	-51.224	-0.121	0.057
-671.105	-164.752	-0.277	0.013
-670.091	508.635	-0.010	0.022
-669.076	-38.472	-0.225	0.120
-668.062	-99.954	-0.210	-0.053
-667.047	-71.567	0.238	-0.089
-666.032	71.749	-0.110	-0.115
-665.018	-98.363	0.183	0.047
-664.003	-85.637	-0.211	-0.066
-662.989	-200.000	0.027	-0.436
-661.974	27.573	-0.199	-0.168
-660.959	-200.000	0.011	-0.225
-659.945	-57.996	-0.234	0.103
-658.930	-200.000	0.003	-0.220
-657.916	75.804	-0.157	0.167
-656.901	165.222	-0.181	-0.257
-655.886	218.468	0.077	-0.124
-654.872	-200.000	-0.053	-0.247
-653.857	666.014	0.105	-0.272
-652.843	-200.000	0.012	0.441
-651.828	205.049	-0.073	0.114
-650.814	-13.103	0.274	-0.179
-649.799	-187.977	0.222	0.003
-648.784	47.436	-0.097	0.091
-647.770	83.139	0.139	0.153
-646.755	285.246	-0.078	0.142
-645.741	-5.262	0.033	-0.023
-644.726	6.575	-0.187	0.140
-643.711	436.702	0.057	0.124
-642.697	800.000	-0.106	0.329
-641.682	-89.270	-0.120	-0.036
-640.668	-111.166	-0.054	0.011
-639.653	-97.502	-0.134	0.035
-638.638	197.136	-0.172	0.264
-637.624	-75.920	-0.024	-0.009
-636.609	-6.936	0.088	-0.060
-635.595	295.397	-0.036	-0.066
-634.580	-200.000	-0.008	0.212
-633.565	-200.000	0.004	-0.191
-632.551	-56.150	0.275	0.123
-631.536	-89.534	0.165	-0.049
-630.522	7.215	-0.330	0.247
-629.507	-200.000	0.040	-0.232
-628.492	-4.605	-0.095	-0.066
-627.478	-200.000	0.029	-0.358
-626.463	174.518	-0.091	0.132
-625.449	-143.952	0.142	-0.013
-624.434	110.766	-0.135	-0.164
-623.419	35.446	-0.158	0.139
-622.405	724.061	0.097	0.259
-621.390	-68.614	0.152	0.059
-620.376	-44.369	0.232	-0.117
-619.361	-107.947	-0.036	-0.008
-618.346	800.000	-0.057	-0.224
-617.332	800.000	-0.049	0.196
-616.317	-95.056	0.176	-0.048
-615.303	51.609	0.119	0.114
-614.288	587.627	-0.045	-0.112
-613.273	-169.157	-0.205	0.008
-612.259	-85.827	-0.211	-0.066
-611.244	800.000	-0.074	-0.205
-610.230	-21.129	0.096	-0.059
-609.215	-85.668	-0.083	-0.026
-608.201	-95.890	-0.192	-0.051
-607.186	-107.377	-0.085	0.019
-606.171	-96.779	0.100	0.026
-605.157	-22.017	-0.494	-0.301
-604.142	-20.327	0.204	-0.126
-603.128	598.730	-0.108	-0.268
-602.113	800.000	-0.062	0.180
-601.098	-10.462	-0.085	0.056
-600.084	175.468	0.172	-0.249
-599.069	-147.190	0.266	0.023
-598.055	86.427	-0.175	0.193
-597.040	-35.725	-0.235	0.128
-596.025	-200.000	0.002	-0.051
-595.011	800.000	0.062	0.256
-593.996	42.037	-0.164	0.150
-592.982	96.513	-0.134	-0.154
-591.967	800.000	0.059	-0.257
-590.952	-66.379	-0.121	0.048
-589.938	-200.000	0.015	-0.369
-588.923	226.640	-0.080	-0.130
-587.909	94.853	0.147	-0.168
-586.894	-8.004	0.230	0.156
-585.879	-133.079	-0.066	0.008
-584.865	200.211	-0.105	0.161
-583.850	-200.000	0.003	-0.329
-582.836	-200.000	-0.002	0.050
-581.821	-141.286	0.080	0.008
-580.806	75.596	-0.123	-0.130
-579.792	-124.515	0.287	-0.045
-578.777	94.025	0.066	-0.076
-577.763	318.582	0.011	-0.020
-576.748	-63.415	0.284	0.117
-575.733	97.547	-0.106	-0.122
-574.719	-200.000	-0.054	0.310
-573.704	313.945	0.052	-0.099
-572.690	-32.628	-0.110	-0.062
-571.675	-53.547	0.351	-0.161
-570.661	-200.000	-0.010	0.321
-569.646	271.917	-0.124	0.219
-568.631	144.018	0.066	-0.088
-567.617	201.239	-0.052	0.080
-566.602	-200.000	-0.049	-0.229
-565.588	-200.000	0.013	0.196
-564.573	-200.000	0.000	0.080
-563.558	-124.993	-0.086	0.013
-562.544	-83.409	-0.187	0.060
-561.529	-200.000	-0.011	-0.118
-560.515	-83.750	0.163	-0.052
-559.500	-109.566	0.204	0.043
-558.485	-108.851	-0.387	0.083
-557.471	63.704	0.024	0.024
-556.456	-125.593	0.125	0.019
-555.442	191.508	-0.035	-0.052
-554.427	-17.670	0.310	-0.195
-553.412	318.089	0.078	0.148
-552.398	-92.127	-0.312	0.088
-551.383	498.317	0.109	-0.252
-550.369	-98.506	0.236	-0.060
-549.354	-9.739	-0.097	-0.065
-548.339	14.222	0.293	0.229
-547.325	-13.623	-0.117	-0.076
-546.310	133.003	-0.149	-0.193
-545.296	17.375	-0.201	-0.160
-544.281	77.035	0.097	-0.103
-543.266	800.000	0.060	0.232
-542.252	295.842	-0.193	0.355
-541.237	73.647	0.078	-0.082
-540.223	-120.072	-0.467	0.080
-539.208	-200.000	-0.048	-0.238
-538.193	-185.942	-0.635	0.009
-537.179	-200.000	-0.033	0.226
-536.164	-110.303	0.124	-0.026
-535.150	-147.455	0.475	0.040
-534.135	-41.869	-0.200	0.103
-533.121	52.266	0.240	0.229
-532.106	-160.505	0.140	0.007
-531.091	-35.209	0.081	-0.044
-530.077	-138.726	-0.200	-0.022
-529.062	39.592	0.203	0.182
-528.048	800.000	-0.016	-0.069
-527.033	-200.000	-0.007	-0.066
-526.018	-103.855	0.380	0.089
-525.004	-200.000	-0.005	0.045
-523.989	-200.000	0.023	0.108
-522.975	-87.221	-0.138	0.042
-521.960	127.201	0.075	0.095
-520.945	-165.922	0.351	-0.015
-519.931	-106.130	0.523	0.117
-518.916	-123.217	-0.171	-0.027
-517.902	-77.815	0.035	-0.012
-516.887	-122.757	-0.297	0.048
-515.872	-66.432	0.251	0.100
-514.858	295.729	0.142	-0.260
-513.843	-28.042	-0.145	-0.084
-512.829	283.484	-0.156	0.281
-511.814	-200.000	0.017	0.262
-510.799	49.886	-0.215	-0.202
-509.785	72.036	0.100	0.104
-508.770	20.432	-0.110	0.089
-507.756	-19.017	0.209	0.130
-506.741	-0.703	0.139	-0.099
-505.726	-48.445	-0.268	-0.129
-504.712	-103.641	0.440	-0.103
-503.697	15.259	0.105	0.082
-502.683	-37.144	-0.158	-0.085
-501.668	-200.000	-0.058	-0.291
-500.653	41.126	-0.113	-0.102
-499.639	800.000	0.045	-0.131
-498.624	532.802	-0.016	-0.037
-497.610	800.000	0.159	-0.500
-496.595	79.200	0.104	-0.111
-495.581	276.615	-0.079	-0.139
-494.566	-116.494	0.320	-0.059
-493.551	-111.510	-0.078	0.016
-492.537	-200.000	-0.022	0.106
-491.522	-4.980	0.237	-0.163
-490.508	-62.106	-0.144	0.060
-489.493	800.000	0.068	0.282
-488.478	-40.142	0.229	0.119
-487.464	-200.000	0.005	0.104
-486.449	-92.408	0.111	-0.031
-485.435	-88.313	0.219	0.065
-484.420	-112.908	-0.142	0.028
-483.405	800.000	-0.042	-0.129
-482.391	-150.533	0.257	-0.020
-481.376	172.676	0.228	0.327
-480.362	347.042	-0.042	0.083
-479.347	744.814	-0.105	-0.281
-478.332	-10.824	0.165	-0.109
-477.318	-45.412	-0.206	-0.102
-476.303	37.950	0.157	0.139
-475.289	-3.837	0.153	-0.106
-474.274	-200.000	-0.038	-0.377
-473.259	18.768	-0.245	0.196
-472.245	183.532	0.030	0.044
-471.230	-140.041	-0.287	0.030
-470.216	-100.929	-0.232	-0.057
-469.201	148.228	0.235	-0.316
-468.186	18.672	0.437	0.349
-467.172	-200.000	-0.008	0.246
-466.157	18.643	-0.167	0.133
-465.143	407.965	-0.050	-0.105
-464.128	-200.000	-0.048	0.699
-463.113	-200.000	0.009	0.344
-462.099	-163.591	-0.046	0.002
-461.084	674.031	-0.067	-0.175
-460.070	120.064	-0.248	-0.307
-459.055	-75.557	0.307	-0.109
-458.040	580.465	0.048	-0.118
-457.026	-92.157	-0.272	0.077
-456.011	192.312	-0.097	0.146
-454.997	800.000	-0.062	-0.183
-453.982	97.431	0.323	-0.369
-452.968	-140.893	0.163	0.017
-451.953	13.176	-0.191	-0.147
-450.938	-200.000	-0.009	0.328
-449.924	-0.742	0.189	0.133
-448.909	161.375	-0.127	0.177
-447.895	35.931	-0.204	0.179
-446.880	-128.193	0.278	0.040
-445.865	-22.853	0.125	0.075
-444.851	-94.038	0.124	-0.034
-443.836	-200.000	0.010	0.223
-442.822	1.991	0.120	0.087
-441.807	58.571	-0.164	0.161
-440.792	-37.189	0.275	0.147
-439.778	800.000	-0.108	-0.312
-438.763	-200.000	-0.011	-0.230
-437.749	-200.000	-0.013	0.278
-436.734	800.000	0.019	0.053
-435.719	-65.468	-0.186	-0.074
-434.705	318.277	0.183	-0.345
-433.690	-200.000	0.246	0.000
-432.676	-200.000	-0.536	0.002
-431.661	-152.462	0.339	0.024
-430.646	-158.890	-0.171	-0.010
-429.632	-36.353	0.197	-0.106
-428.617	800.000	-0.049	-0.157
-427.603	-23.606	-0.108	-0.065
-426.588	-179.680	-0.107	-0.002
-425.573	314.757	0.084	-0.157
-424.559	178.478	0.121	-0.176
-423.544	-73.052	-0.307	-0.112
-422.530	685.181	0.061	0.159
-421.515	-200.000	0.019	0.387
-420.500	-29.422	0.345	0.196
-419.486	140.986	0.104	-0.136
-418.471	178.443	-0.193	-0.281
-417.457	-200.000	0.007	-0.049
-416.442	104.721	-0.127	-0.149
-415.428	800.000	-0.108	-0.310
-414.413	10.631	0.404	0.307
-413.398	-96.706	-0.177	-0.046
-412.384	-96.008	-0.170	0.045
-411.369	52.190	0.331	0.314
-410.355	471.129	0.170	0.381
-409.340	-147.187	0.543	0.046
-408.325	-96.596	-0.297	-0.078
-407.311	218.729	0.077	-0.122
-406.296	-16.310	0.165	-0.104
-405.282	-200.000	-0.007	-0.179
-404.267	800.000	0.065	0.241
-403.252	78.383	0.056	0.060
-402.238	-154.046	-0.371	0.025
-401.223	130.955	-0.036	-0.046
-400.209	-138.096	-0.137	-0.015
-399.194	360.059	0.088	0.176
-398.179	444.652	-0.046	0.100
-397.165	81.967	0.179	-0.193
-396.150	-20.203	-0.079	-0.049
-395.136	-147.493	-0.148	0.012
-394.121	-71.563	-0.013	-0.005
-393.106	-98.627	0.106	0.027
-392.092	-52.353	0.013	-0.006
-391.077	800.000	0.045	-0.147
-390.063	92.488	0.021	-0.024
-389.048	191.217	-0.033	-0.050
-388.033	2.673	0.158	0.114
-387.019	-62.317	-0.063	0.026
-386.004	-200.000	-0.029	0.133
-384.990	-200.000	0.022	0.218
-383.975	800.000	0.038	-0.146
-382.960	321.579	0.140	0.265
-381.946	587.298	-0.112	0.274
-380.931	-85.026	0.146	-0.046
-379.917	160.399	-0.200	-0.278
-378.902	642.180	-0.031	-0.079
-377.888	15.212	-0.177	-0.138
-376.873	629.497	0.104	0.262
-375.858	-14.381	0.213	-0.137
-374.844	495.978	0.086	-0.195
-373.829	252.937	-0.127	-0.216
-372.815	-200.000	-0.004	0.192
-371.800	-79.363	-0.222	0.075
-370.785	-125.607	-0.239	0.036
-369.771	-49.517	-0.193	-0.092
-368.756	131.765	0.170	-0.218
-367.742	800.000	0.078	0.337
-366.727	-125.623	-0.380	-0.057
-365.712	-50.625	-0.264	-0.124
-364.698	-52.648	-0.209	0.096
-363.683	-200.000	0.034	0.171
-362.669	-75.903	0.145	0.051
-361.654	800.000	-0.046	-0.134
-360.639	-12.547	-0.210	-0.136
-359.625	-51.616	0.078	-0.036
-358.610	-200.000	-0.026	0.140
-357.596	219.796	-0.004	0.007
-356.581	-32.706	0.026	0.014
-355.566	-9.992	-0.327	-0.216
-354.552	93.610	0.128	0.144
-353.537	400.587	-0.223	-0.465
-352.523	-75.533	-0.271	0.096
-351.508	-27.529	0.164	0.095
-350.493	64.339	-0.143	0.143
-349.479	41.139	0.142	0.127
-348.464	-200.000	0.005	-0.413
-347.450	483.884	0.124	-0.280
-346.435	-200.000	0.019	-0.144
-345.420	164.313	-0.317	-0.444
-344.406	-200.000	0.009	0.329
-343.391	-200.000	0.003	-0.103
-342.377	11.521	-0.193	-0.147
-341.362	800.000	-0.084	0.270
-340.348	303.200	0.065	-0.119
-339.333	-97.363	-0.126	-0.033
-338.318	38.635	0.092	-0.081
-337.304	-156.086	0.316	-0.020
-336.289	102.268	-0.233	-0.271
-335.275	-24.768	-0.246	-0.145
-334.260	36.286	0.140	-0.122
-333.245	226.190	-0.180	0.291
-332.231	800.000	0.038	-0.137
-331.216	144.477	-0.077	0.102
-330.202	52.929	0.131	-0.124
-329.187	73.533	0.125	-0.130
-328.172	-168.822	0.388	0.014
-327.158	-200.000	0.008	-0.090
-326.143	-61.614	-0.097	0.041
-325.129	25.913	0.221	-0.183
-324.114	800.000	-0.041	0.143
-323.099	-95.741	-0.196	-0.052
-322.085	22.154	-0.205	-0.166
-321.070	-142.417	0.165	-0.016
-320.056	-144.415	-0.281	0.026
-319.041	63.594	0.099	-0.098
-318.026	-80.910	-0.130	-0.043
-317.012	415.308	-0.057	-0.120
-315.997	741.100	0.096	0.256
-314.983	-134.187	-0.233	0.029
-313.968	-26.873	-0.141	0.082
-312.953	751.217	-0.063	-0.169
-311.939	93.760	0.230	0.258
-310.924	74.135	0.105	0.110
-309.910	-40.761	0.290	-0.149
-308.895	-35.122	0.022	0.012
-307.880	-200.000	-0.000	-0.107
-306.866	-77.547	-0.050	0.017
-305.851	156.481	-0.079	-0.108
-304.837	-24.459	-0.117	0.069
-303.822	44.829	-0.116	0.106
-302.807	-101.145	-0.420	-0.102
-301.793	-195.601	-0.211	-0.002
-300.778	800.000	0.044	0.168
-299.764	204.346	0.111	0.171
-298.749	800.000	-0.082	0.240
-297.735	193.758	0.104	0.156
-296.720	-88.026	-0.153	0.046
-295.705	-170.943	-0.356	-0.012
-294.691	-102.753	0.375	0.088
-293.676	-200.000	0.048	0.492
-292.662	-82.546	0.204	0.065
-291.647	20.571	-0.203	-0.163
-290.632	38.748	0.097	-0.086
-289.618	800.000	0.031	0.085
-288.603	386.788	-0.037	0.076
-287.589	-28.682	-0.141	0.081
-286.574	-41.664	0.146	0.074
-285.559	-85.646	-0.045	-0.014
-284.545	-200.000	-0.015	-0.205
-283.530	-131.096	-0.375	0.049
-282.516	262.264	-0.139	-0.239
-281.501	-200.000	-0.009	0.327
-280.486	651.027	0.059	0.151
-279.472	-200.000	-0.005	0.220
-278.457	-87.257	0.093	-0.028
-277.443	10.240	0.335	0.252
-276.428	-154.237	0.196	-0.013
-275.413	178.005	0.058	0.083
-274.399	95.647	-0.166	0.188
-273.384	-176.725	0.257	0.006
-272.370	-69.665	0.240	-0.091
-271.355	-137.480	-0.205	0.023
-270.340	-128.498	0.039	-0.005
-269.326	50.657	0.118	0.111
-268.311	311.937	-0.075	-0.140
-267.297	-200.000	-0.023	-0.171
-266.282	-93.151	0.139	0.038
-265.267	-71.454	-0.282	-0.105
-264.253	-200.000	-0.033	0.176
-263.238	-121.864	0.282	-0.046
-262.224	-147.303	0.115	0.010
-261.209	-200.000	0.045	-0.388
-260.195	66.364	0.189	-0.190
-259.180	441.861	-0.095	-0.206
-258.165	-151.114	0.352	0.026
-257.151	-83.035	-0.346	0.110
-256.136	85.848	-0.088	0.096
-255.122	-35.403	0.101	-0.054
-254.107	-142.849	-0.252	-0.024
-253.092	-115.252	0.352	0.066
-252.078	-108.547	0.098	0.021
-251.063	800.000	-0.069	-0.222
-250.049	545.275	0.117	0.277
-249.034	800.000	0.040	-0.171
-248.019	3.055	0.206	-0.148
-247.005	-4.306	-0.026	-0.018
-245.990	-13.401	-0.084	0.054
-244.976	-51.454	-0.170	-0.079
-243.961	-200.000	-0.022	-0.376
-242.946	-200.000	-0.031	-0.136
-241.932	-200.000	0.008	0.384
-240.917	-146.852	-0.150	-0.013
-239.903	65.856	0.068	0.068
-238.888	305.845	-0.127	-0.233
-237.873	78.210	-0.044	0.047
-236.859	171.756	-0.115	-0.163
-235.844	-200.000	-0.066	-0.303
-234.830	56.002	0.165	0.159
-233.815	800.000	0.045	-0.184
-232.800	26.128	0.102	0.084
-231.786	-200.000	-0.019	0.085
-230.771	-200.000	0.005	0.137
-229.757	-93.686	-0.063	0.017
-228.742	131.827	-0.117	-0.148
-227.727	-141.384	-0.038	0.004
-226.713	-37.724	-0.220	0.116
-225.698	-118.233	-0.304	0.053
-224.684	116.155	-0.124	0.150
-223.669	-111.290	-0.245	-0.049
-222.655	267.529	-0.162	-0.279
-221.640	35.962	-0.171	0.149
-220.625	-200.000	0.008	-0.442
-219.611	44.925	0.294	0.268
-218.596	-2.137	-0.186	0.129
-217.582	-111.468	-0.308	0.062
-216.567	57.661	0.094	-0.091
-215.552	-76.869	0.321	-0.111
-214.538	-108.797	-0.456	0.097
-213.523	-59.664	0.242	0.103
-212.509	220.339	0.114	-0.181
-211.494	45.717	-0.277	0.253
-210.479	-34.530	-0.208	-0.113
-209.465	424.596	0.127	0.271
-208.450	-135.237	0.120	0.014
-207.436	-141.927	0.467	-0.046
-206.421	-200.000	-0.029	-0.290
-205.406	800.000	-0.072	-0.298
-204.392	-33.369	0.252	-0.138
-203.377	-200.000	0.019	-0.252
-202.363	6.619	-0.314	-0.230
-201.348	160.911	0.147	0.203
-200.333	800.000	-0.015	-0.064
-199.319	366.743	0.077	-0.153
-198.304	-122.737	0.433	-0.069
-197.290	-113.151	0.277	0.054
-196.275	429.589	0.116	0.248
-195.260	42.233	-0.152	-0.136
-194.246	-200.000	-0.003	0.375
-193.231	-200.000	-0.009	-0.083
-192.217	800.000	0.050	-0.147
-191.202	-105.917	0.036	0.008
-190.187	44.480	0.205	-0.186
-189.173	222.113	0.043	0.069
-188.158	-120.448	-0.070	0.012
-187.144	-20.235	0.221	0.134
-186.129	-145.085	-0.279	0.025
-185.114	-154.147	0.429	0.029
-184.100	-42.535	-0.211	0.106
-183.085	97.780	0.219	-0.249
-182.071	-39.425	0.008	-0.004
-181.056	-86.115	-0.078	0.024
-180.042	-83.757	-0.257	-0.081
-179.027	-14.619	0.295	0.187
-178.012	-167.752	0.189	0.007
-176.998	-79.348	-0.254	-0.085
-175.983	30.902	-0.186	0.157
-174.969	-44.455	-0.129	0.064
-173.954	800.000	0.100	0.298
-172.939	-200.000	-0.035	-0.163
-171.925	-200.000	-0.057	0.261
-170.910	800.000	0.048	-0.144
-169.896	-130.882	-0.245	-0.032
-168.881	-91.497	-0.063	-0.018
-167.866	800.000	0.103	-0.353
-166.852	39.354	0.175	-0.154
-165.837	800.000	0.057	0.158
-164.823	-200.000	0.021	0.163
-163.808	800.000	0.065	0.215
-162.793	-20.796	-0.193	-0.117
-161.779	-105.937	-0.006	-0.001
-160.764	287.616	0.065	0.116
-159.750	-64.449	0.030	-0.012
-158.735	800.000	0.033	0.094
-157.720	800.000	0.072	-0.252
-156.706	-47.563	-0.132	-0.063
-155.691	90.286	-0.099	0.109
-154.677	-169.393	-0.055	0.002
-153.662	-48.835	0.203	0.096
-152.647	800.000	-0.133	0.511
-151.633	458.294	0.113	0.248
-150.618	163.928	-0.253	-0.351
-149.604	220.574	0.117	0.184
-148.589	-48.286	0.192	-0.091
-147.574	800.000	-0.095	-0.263
-146.560	260.602	-0.077	-0.131
-145.545	-200.000	0.008	-0.148
-144.531	-61.485	-0.275	-0.114
-143.516	-81.044	-0.208	0.068
-142.502	321.735	0.063	-0.117
-141.487	800.000	-0.061	0.167
-140.472	800.000	-0.128	0.362
-139.458	800.000	0.153	0.518
-138.443	-138.380	-0.512	-0.056
-137.429	174.877	0.067	-0.096
-136.414	78.567	0.155	-0.163
-135.399	-131.914	-0.106	0.014
-134.385	13.122	0.095	0.072
-133.370	-77.342	0.137	-0.047
-132.356	-200.000	0.030	-0.298
-131.341	106.380	-0.258	-0.301
-130.326	58.548	0.123	-0.119
-129.312	-75.927	0.374	0.130
-128.297	20.228	-0.134	0.107
-127.283	-99.739	-0.070	-0.017
-126.268	56.890	-0.104	0.099
-125.253	33.703	-0.296	0.253
-124.239	-78.243	0.142	0.048
-123.224	-99.465	0.216	-0.053
-122.210	46.837	-0.152	0.139
-121.195	29.087	0.335	-0.279
-120.180	-11.107	0.234	0.152
-119.166	-54.799	-0.136	-0.060
-118.151	324.010	-0.077	-0.145
-117.137	610.538	-0.144	0.355
-116.122	-55.409	0.139	0.061
-115.107	-123.088	0.340	-0.054
-114.093	-50.142	-0.191	-0.089
-113.078	-126.093	-0.087	-0.013
-112.064	213.597	-0.116	-0.181
-111.049	-122.053	0.288	-0.047
-110.034	136.431	-0.202	0.259
-109.020	49.421	-0.130	-0.120
-108.005	226.384	-0.160	0.255
-106.991	800.000	0.027	0.080
-105.976	-143.437	-0.395	0.037
-104.962	-39.081	0.334	-0.173
-103.947	131.627	-0.102	-0.129
-102.932	-98.161	0.280	-0.071
-101.918	-200.000	0.017	0.188
-100.903	-200.000	-0.012	-0.095
-99.889	-52.078	-0.114	-0.052
-98.874	1.381	-0.267	0.189
-97.859	-7.140	0.294	0.196
-96.845	34.248	0.221	-0.189
-95.830	-13.033	-0.180	0.115
-94.816	-200.000	0.024	-0.113
-93.801	-130.451	0.424	0.056
-92.786	1.696	0.188	0.133
-91.772	-51.954	-0.187	0.085
-90.757	518.715	0.089	0.204
-89.743	40.850	0.219	0.194
-88.728	-17.682	-0.218	-0.134
-87.713	-142.531	-0.267	0.026
-86.699	-59.179	-0.152	0.065
-85.684	-133.167	0.175	-0.022
-84.670	247.216	-0.276	0.458
-83.655	-27.331	-0.176	-0.101
-82.640	-95.880	0.315	0.083
-81.626	82.172	-0.240	0.256
-80.611	-123.200	-0.061	0.010
-79.597	734.409	-0.061	-0.161
-78.582	278.072	-0.132	0.231
-77.567	800.000	-0.089	-0.333
-76.553	-108.722	0.500	0.105
-75.538	-89.761	0.195	-0.056
-74.524	-82.150	-0.328	-0.105
-73.509	-48.093	0.119	0.056
-72.494	-200.000	0.095	0.454
-71.480	-200.000	-0.044	0.275
-70.465	401.487	0.178	0.368
-69.451	-129.892	0.455	0.061
-68.436	-134.877	-0.437	-0.052
-67.422	696.781	0.099	-0.256
-66.407	-200.000	0.021	0.123
-65.392	-110.870	-0.331	0.067
-64.378	23.901	0.169	0.137
-63.363	800.000	-0.058	0.185
-62.349	-200.000	0.009	-0.049
-61.334	225.301	-0.759	-1.207
-60.319	567.840	0.158	0.376
-59.305	416.092	-0.295	-0.618
-58.290	134.764	0.750	0.956
-57.276	389.637	0.776	1.579
-56.261	-200.000	103.073	598.402
-55.246	562.009	1436.229	3411.493
-54.232	185.475	2635.023	3842.687
-53.217	110.543	2283.147	2695.256
-52.203	39.928	1898.856	1674.396
-51.188	33.627	1687.294	1440.131
-50.173	31.149	1643.396	1384.252
-49.159	49.655	1694.757	1567.345
-48.144	50.608	1710.601	1589.103
-47.130	33.404	1668.940	1422.566
-46.115	30.685	1654.950	1390.301
-45.100	30.512	1650.013	1384.808
-44.086	30.434	1647.793	1382.310
-43.071	30.453	1644.790	1379.872
-42.057	30.391	1642.655	1377.569
-41.042	30.509	1640.498	1376.583
-40.027	30.470	1638.432	1374.500
-39.013	30.384	1636.566	1372.245
-37.998	30.411	1635.434	1371.444
-36.984	30.466	1634.203	1370.758
-35.969	30.537	1632.794	1370.048
-34.954	30.684	1630.450	1369.112
-33.940	30.537	1629.227	1366.944
-32.925	30.552	1627.432	1365.494
-31.911	30.579	1625.809	1364.282
-30.896	30.484	1623.796	1361.838
-29.881	30.514	1622.611	1361.014
-28.867	30.395	1621.044	1358.773
-27.852	30.540	1618.957	1358.029
-26.838	30.594	1617.265	1356.950
-25.823	30.465	1616.397	1355.225
-24.809	30.533	1615.028	1354.520
-23.794	30.556	1614.181	1353.921
-22.779	30.667	1612.097	1352.927
-21.765	30.558	1610.753	1350.957
-20.750	30.603	1608.737	1349.537
-19.736	30.557	1607.900	1348.451
-18.721	30.583	1606.177	1347.138
-17.706	30.604	1604.584	1345.901
-16.692	30.551	1603.117	1344.233
-15.677	30.565	1601.589	1343.003
-14.663	30.588	1600.641	1342.321
-13.648	30.613	1598.977	1341.053
-12.633	30.521	1597.482	1339.082
-11.619	30.680	1595.586	1338.581
-10.604	30.566	1594.423	1336.732
-9.590	30.586	1593.319	1335.901
-8.575	30.591	1592.308	1335.033
-7.560	30.653	1590.757	1334.128
-6.546	30.575	1589.841	1332.745
-5.531	30.540	1589.139	1331.855
-4.517	30.453	1587.624	1329.906
-3.502	30.554	1586.705	1329.807
-2.487	30.620	1584.525	1328.399
-1.473	30.373	1573.298	1317.182
-0.458	27.748	1554.004	1282.556
0.556	23.658	1555.097	1252.729
1.571	21.235	1580.354	1255.563
2.586	20.700	1593.455	1261.980
3.600	18.513	1539.419	1203.741
4.615	11.527	1432.841	1074.491
5.629	5.712	1372.878	992.686
6.644	4.985	1365.298	982.538
7.659	4.763	1364.052	980.157
8.673	4.850	1362.659	979.619
9.688	4.832	1360.849	978.119
10.702	4.757	1358.072	975.566
11.717	7.420	1363.002	995.755
12.731	14.220	1375.672	1047.869
13.746	18.723	1382.516	1081.418
14.761	18.789	1380.873	1080.451
15.775	17.715	1378.376	1071.653
16.790	16.577	1376.204	1062.725
17.804	15.835	1373.282	1055.724
18.819	15.399	1372.012	1051.918
19.834	15.156	1370.760	1049.345
20.848	14.995	1369.472	1047.257
21.863	14.577	1368.468	1043.784
22.877	14.576	1367.240	1042.750
23.892	14.441	1366.422	1041.186
24.907	14.430	1365.462	1040.297
25.921	14.469	1364.912	1040.031
26.936	14.552	1363.836	1039.633
27.950	14.537	1362.782	1038.646
28.965	14.721	1361.806	1038.956
29.980	14.832	1359.823	1038.038
30.994	14.751	1359.667	1037.324
32.009	14.844	1358.459	1036.890
33.023	14.875	1356.573	1035.548
34.038	14.737	1355.888	1034.079
35.053	14.776	1354.554	1033.212
36.067	14.693	1353.404	1031.733
37.082	14.673	1352.177	1030.584
38.096	14.710	1351.630	1030.300
39.111	14.798	1350.501	1029.892
40.126	14.595	1350.165	1028.295
41.140	14.470	1349.403	1026.855
42.155	14.468	1348.964	1026.418
43.169	14.400	1348.798	1025.781
44.184	14.437	1347.837	1025.184
45.199	14.544	1347.192	1025.264
46.213	14.501	1346.815	1024.621
47.228	14.578	1345.967	1024.359
48.242	14.689	1344.806	1024.062
49.257	14.678	1343.518	1022.923
50.271	14.616	1342.005	1021.305
51.286	14.556	1340.770	1019.910
52.301	14.656	1339.096	1019.156
53.315	14.547	1338.688	1018.086
54.330	14.559	1337.413	1017.103
55.344	14.580	1335.921	1016.002
56.359	14.557	1335.242	1015.259
57.374	14.510	1334.435	1014.266
58.388	14.474	1333.496	1013.247
59.403	14.495	1333.100	1012.984
60.417	14.444	1332.335	1012.004
61.432	14.472	1331.647	1011.558
62.447	14.304	1330.926	1009.907
63.461	14.379	1329.245	1008.995
64.476	14.334	1328.431	1008.017
65.490	14.297	1327.274	1006.823
66.505	14.360	1325.498	1005.771
67.520	14.424	1323.910	1004.860
68.534	14.360	1323.247	1003.882
69.549	14.366	1322.337	1003.137
70.563	14.353	1321.145	1002.069
71.578	14.332	1320.177	1001.117
72.593	14.238	1318.764	999.396
73.607	14.250	1317.864	998.695
74.622	14.222	1317.554	998.205
75.636	14.230	1317.048	997.783
76.651	14.315	1316.008	997.411
77.666	14.244	1315.889	996.808
78.680	14.296	1315.448	996.697
79.695	14.357	1314.271	996.083
80.709	14.408	1313.576	995.774
81.724	14.290	1313.389	994.838
82.739	14.510	1311.839	994.893
83.753	14.645	1310.909	994.898
84.768	14.742	1310.144	994.808
85.782	14.669	1308.999	993.418
86.797	14.648	1307.974	992.426
87.812	14.572	1306.562	990.820
88.826	14.599	1305.669	990.212
89.841	14.593	1304.521	989.218
90.855	14.688	1303.360	988.815
91.870	14.615	1302.781	987.857
92.884	14.720	1301.684	987.559
93.899	14.699	1301.334	987.079
94.914	14.773	1300.429	986.741
95.928	14.754	1299.800	986.063
96.943	14.718	1298.821	985.025
97.957	14.793	1297.183	984.137
98.972	14.693	1296.786	983.158
99.987	14.624	1295.893	981.988
101.001	14.702	1294.748	981.491
102.016	14.699	1293.569	980.497
103.030	14.806	1292.403	980.149
104.045	14.697	1292.069	979.175
105.060	14.601	1290.463	977.305
106.074	14.506	1289.151	975.669
107.089	14.489	1287.440	974.193
108.103	14.408	1286.584	972.985
109.118	14.431	1284.934	971.786
110.133	14.493	1283.446	970.936
111.147	14.435	1282.619	969.883
112.162	14.489	1281.600	969.343
113.176	14.544	1280.342	968.626
114.191	14.550	1279.384	967.851
115.206	14.553	1277.884	966.647
116.220	14.471	1277.211	965.574
117.235	14.563	1275.711	964.892
118.249	14.609	1274.807	964.386
119.264	14.515	1273.586	962.836
120.279	14.398	1272.877	961.535
121.293	14.511	1272.111	961.524
122.308	14.366	1270.778	959.597
123.322	14.438	1269.616	959.052
124.337	14.349	1269.209	958.146
125.352	14.369	1267.896	957.184
126.366	14.363	1266.795	956.233
127.381	14.368	1265.497	955.200
128.395	14.362	1264.705	954.485
129.410	14.415	1263.601	953.866
130.424	14.462	1262.934	953.547
131.439	14.583	1261.851	953.338
132.454	14.498	1261.035	952.153
133.468	14.606	1259.820	951.765
134.483	14.600	1259.037	951.058
135.497	14.566	1258.135	950.095
136.512	14.659	1256.669	949.436
137.527	14.499	1255.183	947.319
138.541	14.605	1254.005	946.948
139.556	14.544	1253.393	946.058
140.570	14.716	1252.410	946.202
141.585	14.681	1250.646	944.589
142.600	14.781	1249.615	944.296
143.614	14.893	1248.316	943.863
144.629	14.845	1247.606	942.969
145.643	14.882	1246.312	942.114
146.658	14.759	1245.322	940.593
147.673	14.702	1243.846	939.076
148.687	14.659	1242.590	937.803
149.702	14.641	1241.306	936.648
150.716	14.652	1239.663	935.386
151.731	14.630	1238.851	934.568
152.746	14.559	1237.960	933.418
153.760	14.644	1236.636	932.812
154.775	14.687	1235.854	932.380
155.789	14.785	1234.674	931.952
156.804	14.837	1233.011	930.903
157.819	14.761	1232.931	930.339
158.833	14.844	1232.200	930.166
159.848	15.081	1230.680	930.253
160.862	14.923	1230.062	928.829
161.877	14.742	1228.908	926.870
162.892	14.706	1227.645	925.635
163.906	14.655	1226.900	924.710
164.921	14.680	1225.727	923.879
165.935	14.731	1225.013	923.546
166.950	14.733	1224.470	923.062
167.964	14.799	1223.406	922.544
168.979	14.844	1222.909	922.336
169.994	14.794	1222.302	921.523
171.008	14.843	1221.105	920.806
172.023	14.922	1220.429	920.652
173.037	14.938	1220.090	920.404
174.052	14.917	1218.995	919.379
175.067	14.933	1217.741	918.439
176.081	14.736	1216.572	916.393
177.096	14.740	1216.221	916.073
178.110	14.863	1214.689	915.509
179.125	14.898	1213.626	914.818
180.140	14.912	1212.367	913.867
181.154	14.939	1211.012	912.910
182.169	14.923	1210.115	912.068
183.183	15.133	1208.549	911.948
184.198	15.048	1207.787	910.833
185.213	15.020	1207.010	910.014
186.227	15.047	1205.757	909.136
187.242	15.121	1204.681	908.647
188.256	15.204	1203.711	908.283
189.271	15.195	1202.601	907.314
190.286	15.135	1201.368	905.983
191.300	14.839	1200.529	903.667
192.315	14.976	1199.522	903.570
193.329	14.879	1199.203	902.723
194.344	14.884	1198.967	902.493
195.359	14.909	1198.223	901.988
196.373	15.102	1197.991	902.775
197.388	15.070	1197.728	902.323
198.402	15.200	1197.101	902.476
199.417	15.218	1196.516	902.050
200.432	15.399	1195.308	902.030
201.446	15.447	1194.423	901.541
202.461	15.540	1193.541	901.297
203.475	15.446	1192.460	899.893
204.490	15.330	1191.306	898.323
205.504	15.355	1189.801	897.242
206.519	15.363	1188.645	896.335
207.534	15.220	1188.162	895.127
208.548	15.407	1187.039	895.201
209.563	15.350	1186.212	894.196
210.577	15.274	1185.300	893.022
211.592	15.409	1184.518	893.072
212.607	15.505	1183.467	892.709
213.621	15.465	1182.734	891.865
214.636	15.393	1181.525	890.492
215.650	15.462	1180.766	890.212
216.665	15.534	1179.781	889.769
217.680	15.573	1179.210	889.468
218.694	15.631	1178.695	889.306
219.709	15.577	1177.603	888.118
220.723	15.658	1176.882	887.923
221.738	15.578	1176.260	886.952
222.753	15.606	1175.243	886.256
223.767	15.607	1174.670	885.748
224.782	15.765	1173.975	885.978
225.796	15.772	1173.418	885.518
226.811	15.729	1172.585	884.584
227.826	15.759	1172.031	884.248
228.840	15.614	1171.077	882.689
229.855	15.679	1170.064	882.188
230.869	15.664	1169.369	881.506
231.884	15.618	1168.894	880.828
232.899	15.634	1168.007	880.168
233.913	15.585	1167.419	879.387
234.928	15.514	1166.585	878.310
235.942	15.519	1166.124	877.911
236.957	15.586	1164.904	877.266
237.972	15.602	1164.273	876.797
238.986	15.711	1163.428	876.651
240.001	15.567	1163.357	875.768
241.015	15.586	1162.215	874.930
242.030	15.677	1161.598	874.864
243.045	15.728	1160.032	873.870
244.059	15.840	1159.592	874.044
245.074	15.735	1159.355	873.242
246.088	15.897	1158.120	873.077
247.103	15.764	1157.880	872.130
248.117	15.912	1156.736	871.958
249.132	16.058	1155.734	871.877
250.147	16.152	1155.283	871.948
251.161	16.172	1154.610	871.464
252.176	16.114	1154.279	870.838
253.190	16.178	1153.691	870.646
254.205	16.209	1153.245	870.396
255.220	16.289	1152.730	870.340
256.234	16.295	1151.386	869.283
257.249	16.209	1151.306	868.700
258.263	16.207	1150.375	867.913
259.278	16.235	1150.058	867.737
260.293	16.356	1149.193	867.632
261.307	16.345	1148.791	867.194
262.322	16.298	1147.984	866.270
263.336	16.430	1147.208	866.280
264.351	16.391	1146.679	865.607
265.366	16.433	1145.738	865.036
266.380	16.483	1145.195	864.802
267.395	16.431	1144.041	863.590
268.409	16.354	1143.485	862.702
269.424	16.343	1143.088	862.271
270.439	16.296	1142.692	861.651
271.453	16.404	1141.911	861.540
272.468	16.246	1141.041	859.999
273.482	16.320	1139.858	859.409
274.497	16.247	1139.810	858.926
275.512	16.318	1139.141	858.704
276.526	16.227	1138.082	857.371
277.541	16.358	1136.970	857.124
278.555	16.470	1136.504	857.261
279.570	16.525	1135.828	856.954
280.585	16.468	1135.423	856.284
281.599	16.572	1134.211	855.822
282.614	16.559	1132.925	854.709
283.628	16.466	1132.155	853.586
284.643	16.484	1131.106	852.811
285.657	16.505	1130.539	852.410
286.672	16.470	1129.750	851.563
287.687	16.605	1128.511	851.235
288.701	16.543	1128.183	850.602
289.716	16.610	1127.101	850.044
290.730	16.642	1126.134	849.402
291.745	16.631	1125.639	848.900
292.760	16.651	1124.747	848.253
293.774	16.749	1124.726	848.651
294.789	16.667	1124.739	848.173
295.803	16.687	1123.497	847.264
296.818	16.733	1122.466	846.640
297.833	16.694	1121.814	845.878
298.847	16.754	1121.280	845.700
299.862	16.703	1120.286	844.622
300.876	16.765	1119.337	844.143
301.891	16.760	1119.310	844.021
302.906	16.833	1118.672	843.829
303.920	16.778	1117.623	842.687
304.935	16.936	1117.278	843.141
305.949	17.061	1116.538	843.128
306.964	17.102	1115.815	842.711
307.979	17.024	1115.179	841.772
308.993	16.957	1114.262	840.670
310.008	17.098	1113.201	840.495
311.022	17.155	1112.736	840.351
312.037	17.136	1111.404	839.176
313.052	16.929	1111.143	837.883
314.066	17.001	1109.690	837.069
315.081	17.039	1108.754	836.476
316.095	16.975	1108.152	835.634
317.110	16.925	1107.765	835.021
318.125	16.882	1107.148	834.269
319.139	16.928	1106.278	833.766
320.154	16.853	1105.978	833.098
321.168	16.885	1105.262	832.643
322.183	16.950	1104.822	832.555
323.197	16.918	1104.502	832.086
324.212	17.025	1103.196	831.550
325.227	17.080	1102.890	831.516
326.241	17.093	1102.206	830.992
327.256	16.928	1101.564	829.623
328.270	17.082	1100.112	829.210
329.285	16.937	1099.781	828.180
330.300	17.117	1098.644	828.130
331.314	17.046	1097.791	827.064
332.329	17.089	1096.982	826.595
333.343	17.109	1096.136	825.979
334.358	17.163	1095.397	825.614
335.373	17.203	1094.544	825.090
336.387	17.192	1093.476	824.158
337.402	17.168	1093.016	823.622
338.416	17.367	1092.187	823.889
339.431	17.289	1092.033	823.320
340.446	17.383	1091.433	823.254
341.460	17.491	1090.683	823.135
342.475	17.452	1089.905	822.285
343.489	17.453	1088.975	821.516
344.504	17.609	1087.981	821.449
345.519	17.577	1087.009	820.485
346.533	17.602	1086.404	820.076
347.548	17.632	1085.783	819.683
348.562	17.605	1084.918	818.827
349.577	17.584	1084.298	818.185
350.592	17.459	1083.267	816.732
351.606	17.498	1082.765	816.470
352.621	17.399	1081.993	815.340
353.635	17.357	1081.109	814.403
354.650	17.487	1080.264	814.314
355.665	17.351	1080.090	813.462
356.679	17.458	1079.433	813.404
357.694	17.571	1078.617	813.259
358.708	17.664	1077.968	813.141
359.723	17.440	1077.709	811.808
360.738	17.650	1077.010	812.210
361.752	17.656	1076.219	811.570
362.767	17.539	1075.687	810.539
363.781	17.526	1075.561	810.309
364.796	17.782	1074.408	810.585
365.810	17.715	1074.235	810.065
366.825	17.756	1073.391	809.553
367.840	17.825	1072.936	809.463
368.854	17.918	1072.280	809.339
369.869	18.045	1071.054	808.942
370.883	17.938	1070.573	808.001
371.898	17.911	1069.846	807.253
372.913	18.003	1068.845	806.864
373.927	17.918	1069.080	806.565
374.942	17.896	1068.246	805.761
375.956	17.992	1067.743	805.762
376.971	17.889	1067.315	804.885
377.986	18.016	1066.637	804.901
379.000	17.982	1066.312	804.422
380.015	18.105	1065.529	804.343
381.029	18.070	1064.892	803.626
382.044	18.063	1064.487	803.217
383.059	18.083	1063.618	802.580
384.073	18.133	1062.930	802.224
385.088	18.088	1062.028	801.262
386.102	18.215	1060.789	800.854
387.117	18.031	1059.861	799.221
388.132	18.117	1058.973	798.881
389.146	18.167	1057.901	798.236
390.161	18.071	1057.449	797.378
391.175	18.277	1056.731	797.722
392.190	18.111	1056.325	796.572
393.205	18.204	1055.336	796.189
394.219	18.194	1055.028	795.840
395.234	18.232	1053.587	794.859
396.248	18.179	1052.644	793.834
397.263	18.014	1052.095	792.584
398.278	18.263	1051.081	792.901
399.292	18.105	1050.135	791.389
400.307	17.987	1049.710	790.450
401.321	18.185	1049.009	790.768
402.336	18.026	1048.599	789.657
403.350	18.061	1047.864	789.194
404.365	18.176	1046.936	788.957
405.380	18.187	1046.385	788.521
406.394	18.144	1045.705	787.740
407.409	18.325	1044.892	787.890
408.423	18.437	1044.140	787.770
409.438	18.422	1043.355	787.040
410.453	18.497	1042.770	786.871
411.467	18.509	1042.091	786.347
412.482	18.493	1041.141	785.486
413.496	18.546	1041.046	785.586
414.511	18.542	1040.632	785.188
415.526	18.635	1040.109	785.150
416.540	18.646	1039.736	784.846
417.555	18.661	1039.196	784.438
418.569	18.585	1038.405	783.428
419.584	18.669	1037.769	783.261
420.599	18.599	1037.600	782.743
421.613	150.473	1401.681	1795.345
422.628	137.499	1454.727	1795.434
