DTS Sentinel unit serial number:	SN413079Multiplexer serial number:	ORYXHardware model number:	OX4-SRSoftware version number:	ORYX F/W v4.00 Oryx Data Collector v3.7.2.0data status	okinstallation	princeton_trtdifferential loss correction	single-endedforward channel	channel 2reverse channel	N/Adate	2019/09/11time	00:49:10forward acquisition time	60.00reverse acquisition time	0.00gamma	496.2192k internal	0.2332k external	0.2332temperature offset calibration	0.9940default loss term (dB/km)	0.3790temperature slope calibration	1.0000multiplexer offset coefficient	1.0000multiplexer slope coefficient	1.0000fibre end	0.00T internal ref (°C)	29.19T ext. ref 1 (°C)	-0.31T ext. ref 2 (°C)	22.86length (m)	temperature (°C)	Stokes	anti-Stokes-747.200	-200.000	-0.056	-0.495
-746.185	-127.460	-0.219	0.032
-745.171	-11.210	0.066	0.044
-744.156	333.768	-0.156	-0.304
-743.142	-54.655	0.154	0.070
-742.127	-78.630	-0.330	0.113
-741.112	40.415	0.219	-0.198
-740.098	-200.000	-0.052	0.350
-739.083	-84.328	-0.173	-0.055
-738.069	-122.265	-0.111	-0.018
-737.054	96.917	-0.142	-0.163
-736.039	22.778	-0.080	-0.066
-735.025	-129.585	0.292	-0.041
-734.010	800.000	-0.166	-0.532
-732.996	-147.459	-0.192	-0.016
-731.981	800.000	0.039	-0.130
-730.966	800.000	0.095	0.336
-729.952	52.830	-0.030	0.029
-728.937	434.142	-0.122	-0.267
-727.923	800.000	0.050	-0.138
-726.908	-106.569	-0.195	0.044
-725.894	500.963	0.115	0.267
-724.879	251.180	-0.056	0.095
-723.864	-79.711	0.306	0.104
-722.850	463.306	-0.079	-0.178
-721.835	103.895	-0.053	-0.062
-720.821	189.096	-0.209	-0.315
-719.806	800.000	0.031	-0.107
-718.791	217.137	0.199	-0.318
-717.777	800.000	-0.068	0.267
-716.762	-145.990	-0.198	0.018
-715.748	568.046	0.125	0.306
-714.733	112.310	-0.168	0.204
-713.718	81.414	-0.215	-0.233
-712.704	-88.374	0.161	-0.048
-711.689	-35.537	-0.324	0.176
-710.675	64.239	-0.261	-0.264
-709.660	-146.175	0.073	0.006
-708.645	-133.727	0.380	-0.048
-707.631	800.000	0.108	-0.461
-706.616	-44.615	0.349	-0.175
-705.602	-102.052	0.109	0.026
-704.587	305.311	-0.074	-0.137
-703.572	-200.000	-0.024	-0.182
-702.558	116.612	-0.122	-0.150
-701.543	-61.431	0.150	0.063
-700.529	-200.000	-0.018	0.266
-699.514	-1.275	-0.245	0.174
-698.499	144.901	0.014	0.019
-697.485	-200.000	-0.016	-0.202
-696.470	-200.000	-0.110	-0.699
-695.456	193.731	-0.047	-0.071
-694.441	83.916	-0.188	0.206
-693.426	-200.000	0.001	0.234
-692.412	145.460	-0.290	0.389
-691.397	-133.508	-0.331	-0.042
-690.383	724.733	0.119	-0.317
-689.368	-85.208	-0.273	-0.086
-688.354	-57.707	0.311	0.137
-687.339	-15.414	-0.165	-0.106
-686.324	-200.000	0.007	0.210
-685.310	503.441	-0.066	0.153
-684.295	-85.337	0.299	0.094
-683.281	708.466	-0.117	0.309
-682.266	-115.034	0.201	0.038
-681.251	86.285	0.098	0.108
-680.237	800.000	0.069	0.300
-679.222	-198.679	0.270	-0.002
-678.208	185.078	0.148	-0.220
-677.193	-71.818	-0.144	-0.054
-676.178	800.000	0.076	-0.287
-675.164	32.922	0.090	0.078
-674.149	146.427	-0.085	-0.114
-673.135	138.499	-0.140	0.184
-672.120	-17.621	0.110	-0.069
-671.105	-200.000	0.001	0.197
-670.091	-200.000	-0.055	-0.285
-669.076	252.649	-0.164	-0.280
-668.062	-200.000	0.004	0.377
-667.047	-64.150	0.235	-0.096
-666.032	-200.000	0.017	0.200
-665.018	15.864	-0.148	0.117
-664.003	544.064	-0.041	0.098
-662.989	-200.000	-0.006	0.081
-661.974	11.482	-0.200	-0.154
-660.959	1.590	-0.162	0.117
-659.945	302.404	0.188	0.348
-658.930	-143.563	-0.080	-0.008
-657.916	-59.873	-0.242	0.104
-656.901	-62.852	-0.210	0.087
-655.886	-62.613	0.255	0.106
-654.872	-200.000	-0.053	0.239
-653.857	26.339	-0.122	0.102
-652.843	-58.101	0.337	-0.147
-651.828	580.353	0.118	0.290
-650.814	80.466	0.146	-0.157
-649.799	-200.000	-0.092	-0.475
-648.784	-200.000	0.048	-0.325
-647.770	81.357	0.224	-0.243
-646.755	-142.633	-0.180	0.018
-645.741	75.598	-0.086	-0.091
-644.726	-79.190	-0.080	0.027
-643.711	-43.247	0.332	0.169
-642.697	5.425	0.240	0.178
-641.682	-53.748	0.105	-0.048
-640.668	399.837	0.055	0.116
-639.653	3.731	-0.151	-0.110
-638.638	89.737	0.073	0.082
-637.624	-20.380	0.133	0.082
-636.609	-72.250	-0.258	-0.096
-635.595	-41.701	-0.057	-0.030
-634.580	120.456	-0.144	-0.180
-633.565	283.066	0.044	-0.078
-632.551	800.000	-0.057	-0.177
-631.536	-112.286	-0.277	0.056
-630.522	800.000	-0.057	-0.160
-629.507	-46.053	-0.227	-0.112
-628.492	355.192	0.081	-0.160
-627.478	800.000	-0.088	-0.317
-626.463	-61.526	0.113	0.047
-625.449	800.000	-0.088	0.355
-624.434	66.541	0.251	0.256
-623.419	125.827	-0.059	-0.074
-622.405	-200.000	-0.005	0.260
-621.390	-200.000	0.047	-0.548
-620.376	-45.764	-0.282	-0.140
-619.361	-200.000	0.050	-0.301
-618.346	35.469	-0.184	-0.161
-617.332	423.478	0.106	-0.227
-616.317	-16.825	-0.095	0.060
-615.303	-200.000	-0.184	-0.000
-614.288	-66.858	0.120	-0.047
-613.273	293.318	-0.079	-0.144
-612.259	800.000	0.031	-0.112
-611.244	-51.315	0.169	-0.079
-610.230	-200.000	0.021	0.339
-609.215	800.000	-0.055	0.213
-608.201	191.349	-0.087	-0.131
-607.186	708.371	0.084	0.223
-606.171	-39.800	-0.205	0.107
-605.157	800.000	-0.093	0.393
-604.142	151.438	0.156	0.212
-603.128	31.195	0.206	0.177
-602.113	-129.880	-0.172	0.024
-601.098	20.770	0.223	-0.181
-600.084	-70.326	0.254	-0.096
-599.069	110.913	-0.123	0.148
-598.055	-200.000	0.031	0.244
-597.040	378.586	0.065	0.133
-596.025	129.023	0.034	0.043
-595.011	-119.137	-0.235	-0.041
-593.996	242.484	-0.098	0.163
-592.982	800.000	-0.142	-0.397
-591.967	-200.000	0.027	-0.124
-590.952	287.988	-0.108	-0.196
-589.938	-5.964	-0.291	-0.199
-588.923	-200.000	0.021	-0.179
-587.909	-108.666	-0.304	0.065
-586.894	-125.663	0.260	-0.039
-585.879	-200.000	-0.007	0.279
-584.865	-94.582	0.199	0.054
-583.850	800.000	-0.054	-0.155
-582.836	-36.510	-0.338	-0.182
-581.821	75.108	-0.176	-0.186
-580.806	-200.000	0.001	-0.585
-579.792	-200.000	-0.031	0.252
-578.777	-31.911	-0.279	-0.156
-577.763	800.000	-0.086	0.335
-576.748	512.025	-0.138	-0.320
-575.733	-11.757	0.111	-0.073
-574.719	-200.000	-0.006	0.099
-573.704	-97.545	-0.302	-0.078
-572.690	402.175	-0.045	0.094
-571.675	-200.000	-0.013	0.100
-570.661	-200.000	-0.073	-0.338
-569.646	-144.408	-0.212	0.020
-568.631	-22.836	-0.153	-0.092
-567.617	-108.460	-0.325	0.070
-566.602	15.807	-0.316	-0.248
-565.588	-13.711	-0.093	0.060
-564.573	-200.000	-0.040	0.293
-563.558	-100.378	-0.308	-0.076
-562.544	-119.049	0.034	0.006
-561.529	800.000	0.008	0.032
-560.515	-200.000	0.006	-0.026
-559.500	-14.419	-0.087	-0.056
-558.485	-159.444	0.168	-0.009
-557.471	-129.940	-0.155	-0.021
-556.456	-103.380	0.130	0.031
-555.442	-129.575	-0.146	0.020
-554.427	-200.000	-0.016	-0.179
-553.412	-200.000	-0.005	-0.181
-552.398	-80.525	-0.152	-0.051
-551.383	-200.000	-0.011	-0.505
-550.369	152.623	0.207	0.282
-549.354	-173.557	-0.419	0.013
-548.339	-85.275	0.092	0.029
-547.325	-200.000	0.014	-0.162
-546.310	-65.112	-0.263	0.106
-545.296	-194.193	0.277	-0.002
-544.281	165.697	-0.130	0.184
-543.266	-200.000	0.025	0.481
-542.252	800.000	-0.034	0.137
-541.237	528.357	0.078	-0.185
-540.223	497.585	0.094	-0.216
-539.208	103.582	-0.096	0.113
-538.193	-12.525	0.058	-0.038
-537.179	132.446	-0.090	0.115
-536.164	65.583	0.088	0.089
-535.150	201.544	-0.077	-0.119
-534.135	-167.956	-0.217	-0.008
-533.121	-84.306	-0.079	-0.025
-532.106	148.816	0.067	0.090
-531.091	390.600	0.050	-0.104
-530.077	13.100	-0.293	-0.226
-529.062	99.171	0.178	0.205
-528.048	-200.000	0.001	-0.024
-527.033	189.489	0.159	0.238
-526.018	-150.132	0.018	-0.001
-525.004	800.000	0.026	-0.076
-523.989	2.149	0.293	0.211
-522.975	-69.275	0.367	-0.141
-521.960	800.000	0.064	0.240
-520.945	-107.470	0.395	0.086
-519.931	183.103	0.168	0.248
-518.916	-141.622	0.132	-0.013
-517.902	456.518	-0.133	-0.295
-516.887	-200.000	-0.028	0.167
-515.872	-71.028	-0.210	0.079
-514.858	216.507	-0.056	-0.089
-513.843	353.258	0.180	0.356
-512.829	-200.000	0.029	0.655
-511.814	-165.504	0.071	0.003
-510.799	293.641	-0.037	0.068
-509.785	-153.855	-0.395	0.027
-508.770	-200.000	0.004	0.119
-507.756	-92.477	-0.195	-0.055
-506.741	-160.706	-0.205	-0.011
-505.726	-107.429	0.422	-0.092
-504.712	-103.125	0.022	-0.005
-503.697	764.289	0.027	-0.074
-502.683	-128.569	-0.111	0.016
-501.668	-85.611	0.207	-0.064
-500.653	75.514	0.200	-0.210
-499.639	-200.000	0.038	-0.191
-498.624	-129.522	0.325	0.045
-497.610	-200.000	-0.003	-0.227
-496.595	-68.662	-0.285	0.110
-495.581	800.000	0.019	-0.075
-494.566	20.145	-0.204	-0.164
-493.551	49.459	0.064	0.060
-492.537	800.000	0.036	-0.136
-491.522	320.345	-0.056	0.105
-490.508	-15.291	-0.215	0.137
-489.493	-71.383	0.092	0.034
-488.478	-62.701	-0.472	-0.195
-487.464	42.999	-0.129	-0.117
-486.449	95.096	0.017	0.019
-485.435	-200.000	-0.005	-0.329
-484.420	56.422	-0.104	-0.101
-483.405	-56.345	-0.272	0.120
-482.391	304.772	-0.043	0.079
-481.376	-117.838	-0.198	0.035
-480.362	-150.824	-0.079	-0.006
-479.347	-150.056	-0.335	-0.026
-478.332	139.691	0.095	-0.125
-477.318	35.016	0.075	-0.065
-476.303	49.937	-0.103	-0.097
-475.289	-176.731	0.241	-0.006
-474.274	389.600	-0.123	-0.253
-473.259	-61.096	-0.123	-0.052
-472.245	-48.900	0.222	0.106
-471.230	-144.554	0.029	-0.003
-470.216	-84.443	0.139	0.044
-469.201	800.000	0.049	-0.184
-468.186	209.037	-0.194	-0.302
-467.172	-200.000	0.019	-0.134
-466.157	28.616	0.096	-0.081
-465.143	60.734	-0.131	-0.129
-464.128	207.180	-0.175	-0.271
-463.113	-19.020	0.217	0.134
-462.099	-37.554	0.246	0.131
-461.084	-200.000	-0.043	0.221
-460.070	115.355	0.072	-0.088
-459.055	453.290	-0.066	0.145
-458.040	303.110	-0.023	0.043
-457.026	-200.000	0.011	-0.104
-456.011	-95.647	-0.195	-0.052
-454.997	266.881	-0.082	-0.143
-453.982	108.715	0.139	-0.165
-452.968	-200.000	-0.007	0.170
-451.953	-81.478	0.244	0.080
-450.938	-70.430	0.217	-0.082
-449.924	46.435	-0.045	-0.041
-448.909	240.499	-0.127	0.211
-447.895	754.528	-0.070	-0.188
-446.880	415.660	-0.137	-0.291
-445.865	655.338	-0.121	0.309
-444.851	-64.782	-0.109	0.044
-443.836	-35.757	0.037	-0.020
-442.822	-82.106	0.039	-0.013
-441.807	-97.701	-0.298	-0.077
-440.792	800.000	-0.065	-0.223
-439.778	-200.000	-0.011	0.255
-438.763	800.000	-0.020	0.062
-437.749	81.879	0.083	-0.090
-436.734	23.061	0.058	0.047
-435.719	313.810	0.051	-0.095
-434.705	800.000	0.069	-0.296
-433.690	314.761	-0.180	-0.337
-432.676	780.214	-0.033	0.089
-431.661	-200.000	-0.004	0.273
-430.646	-31.837	-0.384	-0.214
-429.632	-40.149	-0.245	0.127
-428.617	-200.000	-0.019	-0.112
-427.603	-142.188	0.217	0.021
-426.588	-200.000	0.006	-0.294
-425.573	-68.214	-0.062	-0.024
-424.559	-200.000	0.009	0.185
-423.544	261.532	0.125	0.215
-422.530	-60.169	-0.156	0.066
-421.515	-175.974	-0.241	0.006
-420.500	-99.136	-0.277	0.070
-419.486	-59.746	-0.165	0.070
-418.471	-125.931	0.082	0.012
-417.457	-8.014	-0.123	-0.082
-416.442	-30.266	0.208	0.117
-415.428	261.503	-0.143	-0.246
-414.413	-61.816	0.264	-0.110
-413.398	-97.209	-0.138	0.036
-412.384	439.017	0.059	-0.128
-411.369	-200.000	0.026	-0.238
-410.355	-56.493	-0.055	-0.024
-409.340	-91.657	-0.200	0.056
-408.325	-111.916	-0.360	0.072
-407.311	-200.000	0.017	0.230
-406.296	-11.472	0.137	0.090
-405.282	635.403	0.186	-0.469
-404.267	66.894	-0.109	-0.110
-403.252	-80.777	0.310	-0.102
-402.238	5.706	0.044	-0.033
-401.223	-78.562	0.386	-0.131
-400.209	-200.000	-0.032	0.269
-399.194	800.000	0.056	-0.236
-398.179	18.166	-0.328	-0.260
-397.165	-200.000	-0.043	0.227
-396.150	142.575	0.152	0.200
-395.136	-145.945	0.356	-0.031
-394.121	-149.317	-0.071	0.006
-393.106	394.007	0.062	-0.127
-392.092	800.000	-0.027	-0.080
-391.077	270.299	-0.069	0.121
-390.063	-25.878	-0.194	-0.114
-389.048	-58.019	-0.110	-0.047
-388.033	116.362	0.210	0.255
-387.019	800.000	-0.081	0.254
-386.004	-81.046	-0.225	0.074
-384.990	29.794	0.310	-0.261
-383.975	-74.300	0.334	-0.120
-382.960	19.138	-0.162	-0.129
-381.946	-200.000	0.069	0.320
-380.931	-200.000	0.015	0.385
-379.917	0.051	-0.332	-0.234
-378.902	-200.000	0.024	0.147
-377.888	-200.000	0.009	0.159
-376.873	-166.090	0.091	0.004
-375.858	35.592	0.060	0.052
-374.844	177.478	0.070	0.101
-373.829	-200.000	0.046	0.412
-372.815	-200.000	0.010	-0.158
-371.800	2.763	0.391	0.281
-370.785	-200.000	-0.017	0.238
-369.771	-200.000	-0.007	0.094
-368.756	800.000	0.124	0.405
-367.742	-88.957	0.368	0.108
-366.727	29.412	-0.044	-0.037
-365.712	-145.424	0.191	0.017
-364.698	-70.430	0.143	0.054
-363.683	-200.000	0.005	0.167
-362.669	-114.688	-0.161	-0.030
-361.654	55.162	-0.216	0.207
-360.639	-60.798	0.364	-0.153
-359.625	-18.057	0.145	0.090
-358.610	-180.552	-0.202	0.004
-357.596	-14.842	0.146	0.093
-356.581	-200.000	0.059	0.301
-355.566	-33.030	0.079	0.043
-354.552	-200.000	0.003	-0.082
-353.537	309.036	0.138	0.255
-352.523	36.553	0.146	0.128
-351.508	-149.353	-0.067	0.005
-350.493	-200.000	0.005	0.031
-349.479	141.579	-0.086	0.113
-348.464	-79.921	0.429	-0.143
-347.450	-6.610	0.128	0.086
-346.435	800.000	-0.032	0.140
-345.420	-54.388	0.099	-0.045
-344.406	-71.132	0.356	-0.133
-343.391	-40.140	0.098	0.051
-342.377	-200.000	0.008	0.323
-341.362	-72.912	-0.218	0.079
-340.348	-186.467	0.396	0.006
-339.333	-200.000	-0.018	0.130
-338.318	-105.774	0.199	0.045
-337.304	62.786	-0.130	0.128
-336.289	-125.586	-0.277	0.042
-335.275	-91.341	0.223	0.063
-334.260	-19.484	-0.230	-0.141
-333.245	-134.490	0.170	-0.021
-332.231	199.801	-0.144	0.218
-331.216	800.000	-0.057	0.192
-330.202	193.441	-0.171	0.255
-329.187	800.000	0.042	0.134
-328.172	-153.625	-0.262	0.018
-327.158	175.065	-0.161	0.231
-326.143	-16.467	0.376	0.236
-325.129	-200.000	0.004	-0.182
-324.114	-37.815	0.245	0.129
-323.099	443.606	-0.125	-0.271
-322.085	119.289	-0.184	-0.225
-321.070	-82.661	-0.232	0.074
-320.056	-200.000	-0.010	-0.307
-319.041	800.000	0.043	0.181
-318.026	320.112	0.297	-0.558
-317.012	800.000	0.083	-0.291
-315.997	450.814	-0.176	-0.384
-314.983	-122.639	0.398	0.064
-313.968	207.396	0.095	0.147
-312.953	113.091	0.130	-0.156
-311.939	1.795	0.187	0.133
-310.924	-77.222	-0.123	0.042
-309.910	-56.801	0.097	-0.042
-308.895	-153.967	0.042	-0.003
-307.880	-200.000	-0.003	0.261
-306.866	-95.286	-0.198	-0.053
-305.851	-200.000	0.046	-0.301
-304.837	581.998	0.118	-0.286
-303.822	-25.818	0.237	-0.138
-302.807	-44.239	-0.155	-0.077
-301.793	61.786	0.213	-0.209
-300.778	-135.564	0.323	0.038
-299.764	-200.000	0.022	-0.123
-298.749	331.424	-0.175	0.334
-297.735	124.066	-0.038	-0.048
-296.720	590.145	0.022	0.055
-295.705	-51.972	-0.130	-0.060
-294.691	7.668	0.103	-0.077
-293.676	288.191	-0.135	-0.242
-292.662	437.108	-0.105	0.226
-291.647	-30.568	0.138	0.077
-290.632	-200.000	-0.005	-0.033
-289.618	634.360	-0.039	0.099
-288.603	-6.098	0.179	0.121
-287.589	4.263	-0.401	0.290
-286.574	-74.668	-0.488	0.173
-285.559	765.669	-0.130	0.348
-284.545	377.862	0.095	-0.191
-283.530	34.386	0.274	0.236
-282.516	-79.506	0.096	-0.032
-281.501	128.865	-0.132	-0.167
-280.486	800.000	0.032	0.125
-279.472	-44.644	-0.225	0.111
-278.457	-200.000	-0.020	-0.314
-277.443	-52.121	0.495	-0.227
-276.428	-200.000	-0.041	-0.226
-275.413	800.000	0.108	-0.439
-274.399	-99.223	0.283	0.071
-273.384	335.974	0.150	0.287
-272.370	-130.649	-0.221	0.029
-271.355	-59.312	0.332	-0.141
-270.340	-200.000	-0.019	0.127
-269.326	515.931	0.154	-0.355
-268.311	156.616	0.155	-0.212
-267.297	607.220	0.080	0.198
-266.282	609.729	0.167	0.412
-265.267	205.281	-0.059	0.091
-264.253	-21.348	-0.212	-0.128
-263.238	139.083	0.194	0.252
-262.224	-62.360	-0.218	0.090
-261.209	-200.000	-0.014	-0.142
-260.195	271.471	0.046	0.080
-259.180	-96.687	0.130	-0.034
-258.165	-200.000	-0.034	0.258
-257.151	800.000	0.042	-0.154
-256.136	-44.428	0.209	0.103
-255.122	-67.618	-0.323	-0.125
-254.107	205.097	0.026	-0.040
-253.092	94.120	0.209	0.234
-252.078	37.728	-0.069	0.060
-251.063	452.240	-0.177	-0.385
-250.049	275.414	0.068	0.120
-249.034	256.103	-0.088	-0.149
-248.019	-103.898	-0.196	-0.045
-247.005	380.224	0.109	-0.220
-245.990	-3.393	-0.243	0.167
-244.976	800.000	-0.002	-0.007
-243.961	-127.708	0.166	-0.024
-242.946	-115.408	-0.162	0.030
-241.932	2.505	-0.113	-0.081
-240.917	135.765	-0.089	0.114
-239.903	-106.519	-0.132	0.029
-238.888	88.575	0.096	-0.105
-237.873	-181.730	0.288	0.005
-236.859	-53.012	0.177	-0.080
-235.844	-196.642	0.491	0.003
-234.830	500.330	0.162	-0.369
-233.815	104.505	-0.241	0.280
-232.800	-200.000	0.003	-0.310
-231.786	56.885	-0.229	-0.220
-230.771	170.205	0.030	-0.043
-229.757	-113.376	0.276	0.053
-228.742	-92.727	-0.335	-0.092
-227.727	90.874	0.222	0.245
-226.713	800.000	0.068	0.195
-225.698	-184.599	0.375	-0.006
-224.684	-117.480	-0.209	0.037
-223.669	-151.194	0.171	-0.013
-222.655	4.684	0.333	0.241
-221.640	185.834	-0.123	0.180
-220.625	335.904	0.041	-0.079
-219.611	-200.000	-0.000	-0.129
-218.596	800.000	0.111	0.407
-217.582	-89.432	0.510	0.148
-216.567	367.237	-0.209	-0.416
-215.552	-119.990	-0.128	0.022
-214.538	-109.784	0.210	-0.043
-213.523	653.298	0.124	-0.314
-212.509	691.384	-0.020	0.050
-211.494	118.898	-0.120	0.146
-210.479	173.740	-0.106	-0.151
-209.465	-149.510	0.306	0.024
-208.450	-61.821	0.178	0.073
-207.436	-89.861	0.079	0.023
-206.421	198.027	-0.157	0.236
-205.406	303.810	0.061	0.111
-204.392	800.000	-0.087	0.339
-203.377	-200.000	0.016	0.302
-202.363	188.875	0.179	-0.265
-201.348	50.262	0.176	-0.163
-200.333	31.146	-0.037	-0.031
-199.319	62.441	0.205	0.202
-198.304	63.740	-0.148	0.146
-197.290	-200.000	-0.034	-0.207
-196.275	800.000	0.084	0.284
-195.260	-65.558	-0.234	0.093
-194.246	183.379	-0.048	-0.070
-193.231	-184.826	-0.046	0.001
-192.217	119.418	-0.163	0.199
-191.202	-31.377	0.279	-0.154
-190.187	-200.000	-0.021	0.136
-189.173	-50.243	0.086	0.040
-188.158	-58.460	-0.069	-0.029
-187.144	-200.000	-0.003	-0.034
-186.129	-82.521	-0.067	-0.021
-185.114	800.000	-0.076	0.268
-184.100	-200.000	-0.041	0.344
-183.085	-80.265	-0.197	-0.065
-182.071	2.259	0.061	-0.043
-181.056	42.126	0.230	0.205
-180.042	-200.000	-0.015	0.388
-179.027	83.817	-0.139	-0.149
-178.012	-200.000	0.049	-0.245
-176.998	-200.000	0.013	-0.379
-175.983	-77.826	0.362	-0.123
-174.969	800.000	0.059	-0.201
-173.954	-104.072	0.356	-0.082
-172.939	667.038	0.064	-0.163
-171.925	-190.573	0.171	-0.002
-170.910	146.864	-0.066	-0.087
-169.896	64.731	0.163	0.162
-168.881	434.018	-0.073	0.156
-167.866	-105.903	0.092	-0.020
-166.852	-112.841	-0.282	-0.055
-165.837	368.793	-0.192	-0.381
-164.823	-200.000	0.005	0.206
-163.808	150.356	-0.082	0.109
-162.793	75.550	0.076	-0.078
-161.779	202.242	0.089	-0.136
-160.764	-80.269	-0.075	0.025
-159.750	-46.131	-0.127	0.061
-158.735	242.754	-0.061	0.100
-157.720	-200.000	0.018	0.308
-156.706	800.000	0.076	0.258
-155.691	-184.638	-0.199	-0.003
-154.677	20.033	-0.404	-0.320
-153.662	-89.891	-0.087	0.025
-152.647	241.526	-0.093	0.152
-151.633	57.544	-0.262	0.251
-150.618	-26.442	0.234	0.135
-149.604	270.876	-0.183	0.316
-148.589	-36.478	0.104	-0.055
-147.574	-23.022	0.216	-0.128
-146.560	-42.628	0.290	0.145
-145.545	-32.861	-0.309	-0.169
-144.531	-9.409	0.319	0.209
-143.516	-200.000	0.014	0.164
-142.502	-92.399	0.314	0.087
-141.487	-200.000	-0.037	-0.179
-140.472	24.103	-0.178	0.144
-139.458	-200.000	0.032	0.199
-138.443	-124.194	0.127	0.020
-137.429	-2.618	-0.198	-0.136
-136.414	105.142	0.200	-0.232
-135.399	122.039	0.044	0.054
-134.385	496.956	-0.141	0.319
-133.370	-14.031	-0.303	0.192
-132.356	-57.392	-0.297	0.128
-131.341	-157.267	0.324	0.019
-130.326	48.535	-0.121	0.112
-129.312	-122.160	0.311	-0.050
-128.297	40.700	-0.050	0.044
-127.283	-200.000	-0.023	-0.464
-126.268	-29.271	-0.276	-0.155
-125.253	226.039	-0.191	-0.304
-124.239	-48.900	0.131	0.062
-123.224	800.000	0.096	-0.282
-122.210	800.000	-0.043	-0.159
-121.195	-163.713	0.214	0.010
-120.180	134.089	-0.191	0.243
-119.166	-175.806	0.461	0.012
-118.151	108.334	0.114	0.133
-117.137	120.630	0.168	0.205
-116.122	-172.113	-0.097	0.003
-115.107	528.746	-0.070	0.161
-114.093	-37.824	0.131	0.068
-113.078	-39.698	-0.044	0.023
-112.064	22.526	0.183	-0.147
-111.049	247.255	0.206	0.341
-110.034	-83.734	-0.212	-0.066
-109.020	28.832	0.146	0.121
-108.005	-53.115	-0.331	0.149
-106.991	33.382	-0.191	-0.162
-105.976	-14.042	0.067	0.042
-104.962	-97.022	0.096	0.025
-103.947	72.762	0.062	0.064
-102.932	-83.029	-0.081	0.026
-101.918	-20.147	0.378	-0.228
-100.903	-131.526	0.373	-0.048
-99.889	-122.915	-0.190	-0.030
-98.874	-121.354	0.317	0.052
-97.859	257.979	-0.174	-0.294
-96.845	-200.000	-0.036	-0.352
-95.830	-200.000	0.033	0.218
-94.816	-142.366	0.365	0.035
-93.801	-79.698	0.262	-0.086
-92.786	800.000	0.005	-0.015
-91.772	-18.791	0.287	0.175
-90.757	224.911	0.095	0.151
-89.743	-200.000	-0.039	0.188
-88.728	33.738	0.253	-0.216
-87.713	-200.000	-0.012	0.083
-86.699	-43.747	-0.122	0.060
-85.684	-84.894	-0.300	0.092
-84.670	21.761	0.102	0.081
-83.655	-200.000	0.026	-0.147
-82.640	800.000	-0.044	0.129
-81.626	17.122	-0.174	0.135
-80.611	280.235	-0.130	-0.227
-79.597	-200.000	-0.047	0.209
-78.582	-72.575	0.326	-0.118
-77.567	-200.000	-0.263	-0.001
-76.553	39.162	0.131	-0.115
-75.538	-200.000	-0.056	0.299
-74.524	-58.861	-0.254	0.108
-73.509	-45.259	-0.428	0.208
-72.494	-93.182	-0.030	-0.008
-71.480	-23.910	0.100	0.058
-70.465	-10.851	-0.288	-0.187
-69.451	185.668	0.251	0.365
-68.436	-200.000	0.023	-0.174
-67.422	-118.391	0.207	0.036
-66.407	-200.000	-0.009	-0.396
-65.392	-147.486	0.145	0.012
-64.378	-40.384	-0.235	-0.120
-63.363	-73.108	0.103	0.037
-62.349	800.000	0.095	0.264
-61.334	69.973	-0.893	-0.902
-60.319	22.282	0.548	0.439
-59.305	501.324	-0.475	-1.075
-58.290	452.988	0.515	1.116
-57.276	800.000	0.321	1.244
-56.261	-200.000	106.878	625.696
-55.246	524.986	1511.844	3483.170
-54.232	175.144	2710.596	3844.170
-53.217	104.996	2294.440	2649.852
-52.203	38.583	1898.799	1658.025
-51.188	32.494	1685.683	1425.931
-50.173	29.732	1643.164	1369.483
-49.159	48.697	1696.995	1557.636
-48.144	48.897	1712.055	1572.904
-47.130	31.941	1669.008	1407.459
-46.115	29.359	1654.481	1375.915
-45.100	29.095	1650.514	1370.601
-44.086	28.970	1647.386	1367.020
-43.071	29.120	1644.465	1365.652
-42.057	28.907	1642.745	1362.589
-41.042	29.140	1639.803	1361.817
-40.027	29.097	1637.974	1359.927
-39.013	28.964	1636.678	1357.820
-37.998	29.092	1634.690	1357.058
-36.984	29.146	1633.162	1356.134
-35.969	29.225	1631.615	1355.375
-34.954	29.247	1629.907	1354.065
-33.940	29.204	1628.639	1352.645
-32.925	29.183	1626.881	1350.978
-31.911	29.205	1624.895	1349.433
-30.896	29.142	1623.006	1347.349
-29.881	29.128	1622.213	1346.532
-28.867	29.157	1620.072	1344.916
-27.852	29.147	1618.719	1343.668
-26.838	29.153	1617.473	1342.622
-25.823	29.143	1616.164	1341.408
-24.809	29.300	1614.241	1340.903
-23.794	29.289	1612.850	1339.617
-22.779	29.236	1611.328	1337.913
-21.765	29.166	1610.003	1336.252
-20.750	29.118	1608.310	1334.442
-19.736	29.264	1606.539	1333.977
-18.721	29.245	1605.474	1332.907
-17.706	29.184	1604.155	1331.315
-16.692	29.197	1602.442	1329.933
-15.677	29.228	1601.594	1329.401
-14.663	29.271	1599.913	1328.262
-13.648	29.217	1598.230	1326.426
-12.633	29.279	1596.872	1325.693
-11.619	29.193	1595.427	1323.824
-10.604	29.195	1594.005	1322.604
-9.590	29.230	1592.461	1321.523
-8.575	29.239	1591.590	1320.813
-7.560	29.224	1590.533	1319.771
-6.546	29.235	1589.371	1318.838
-5.531	29.161	1588.356	1317.415
-4.517	29.166	1587.117	1316.369
-3.502	29.229	1585.752	1315.632
-2.487	29.305	1584.202	1314.837
-1.473	28.999	1572.060	1302.542
-0.458	26.293	1553.178	1267.888
0.556	20.452	1554.381	1236.943
1.571	18.351	1579.244	1241.400
2.586	18.066	1592.876	1249.922
3.600	16.425	1540.671	1197.231
4.615	8.772	1431.489	1061.736
5.629	1.230	1367.101	966.006
6.644	-0.196	1359.461	951.489
7.659	-0.308	1358.254	949.851
8.673	-0.326	1357.223	948.929
9.688	-0.410	1355.681	947.237
10.702	-0.589	1352.468	943.782
11.717	2.468	1358.277	967.085
12.731	11.737	1375.738	1038.511
13.746	19.190	1388.558	1095.692
14.761	21.003	1390.936	1109.012
15.775	21.349	1391.069	1111.221
16.790	21.355	1390.516	1110.715
17.804	21.468	1389.784	1110.752
18.819	21.659	1389.792	1111.870
19.834	21.790	1389.032	1111.998
20.848	21.809	1388.129	1111.296
21.863	21.737	1387.812	1110.490
22.877	21.802	1386.702	1109.910
23.892	21.857	1385.410	1109.126
24.907	21.716	1384.696	1107.564
25.921	21.838	1383.922	1107.621
26.936	21.832	1382.687	1106.498
27.950	21.746	1381.621	1105.004
28.965	21.826	1380.391	1104.423
29.980	21.830	1379.138	1103.353
30.994	21.777	1378.241	1102.203
32.009	21.803	1377.008	1101.284
33.023	21.837	1375.812	1100.440
34.038	21.791	1374.817	1099.257
35.053	21.781	1373.331	1097.909
36.067	21.788	1372.620	1097.288
37.082	21.751	1371.870	1096.359
38.096	21.898	1370.641	1096.200
39.111	21.801	1370.087	1095.058
40.126	21.755	1369.867	1094.491
41.140	21.774	1369.111	1093.911
42.155	21.773	1368.498	1093.323
43.169	21.825	1368.834	1093.813
44.184	21.741	1368.510	1092.937
45.199	21.845	1367.426	1092.623
46.213	21.813	1367.371	1092.285
47.228	21.812	1366.170	1091.220
48.242	21.808	1364.928	1090.103
49.257	21.743	1363.618	1088.561
50.271	21.899	1361.949	1088.096
51.286	21.800	1361.007	1086.634
52.301	21.794	1359.561	1085.348
53.315	21.820	1358.785	1084.793
54.330	21.900	1357.548	1084.207
55.344	21.822	1356.575	1082.850
56.359	21.816	1355.734	1082.044
57.374	21.811	1355.135	1081.440
58.388	21.797	1354.946	1081.110
59.403	21.833	1354.021	1080.497
60.417	21.694	1353.634	1079.235
61.432	21.832	1352.585	1079.155
62.447	21.884	1351.429	1078.457
63.461	21.840	1350.585	1077.416
64.476	21.858	1349.239	1076.358
65.490	21.826	1348.589	1075.545
66.505	21.860	1347.114	1074.484
67.520	21.863	1345.601	1073.198
68.534	21.826	1344.678	1072.146
69.549	21.812	1343.827	1071.286
70.563	21.765	1342.697	1070.003
71.578	21.829	1341.399	1069.264
72.593	21.838	1340.202	1068.268
73.607	21.845	1339.734	1067.847
74.622	21.806	1339.488	1067.319
75.636	21.830	1338.671	1066.714
76.651	21.743	1338.407	1065.884
77.666	21.859	1337.492	1065.763
78.680	21.874	1336.524	1064.989
79.695	21.840	1335.863	1064.161
80.709	21.811	1335.190	1063.358
81.724	21.743	1334.407	1062.226
82.739	21.981	1333.002	1062.453
83.753	21.780	1332.387	1060.654
84.768	21.922	1330.936	1060.264
85.782	21.824	1330.148	1058.953
86.797	21.832	1328.844	1057.870
87.812	21.963	1327.544	1057.526
88.826	21.872	1326.822	1056.311
89.841	21.840	1325.599	1055.053
90.855	21.910	1324.946	1054.862
91.870	21.743	1324.288	1053.238
92.884	21.933	1322.881	1053.168
93.899	21.901	1322.306	1052.425
94.914	21.809	1321.813	1051.387
95.928	21.783	1321.162	1050.622
96.943	21.951	1319.960	1050.576
97.957	21.842	1319.375	1049.366
98.972	21.919	1317.984	1048.626
99.987	21.794	1317.785	1047.628
101.001	21.930	1316.328	1047.191
102.016	21.873	1315.619	1046.193
103.030	21.882	1314.681	1045.411
104.045	21.892	1313.687	1044.583
105.060	21.934	1312.435	1043.746
106.074	21.846	1311.693	1042.540
107.089	21.902	1310.646	1041.952
108.103	21.907	1309.582	1041.040
109.118	22.000	1308.411	1040.570
110.133	22.114	1307.032	1040.056
111.147	21.860	1306.226	1037.817
112.162	21.851	1305.200	1036.860
113.176	21.892	1304.069	1036.112
114.191	21.931	1303.109	1035.486
115.206	21.891	1302.072	1034.338
116.220	22.014	1300.905	1034.042
117.235	21.968	1299.626	1032.661
118.249	21.901	1298.958	1031.646
119.264	21.954	1297.812	1030.957
120.279	21.983	1297.530	1030.813
121.293	22.042	1296.637	1030.356
122.308	21.997	1295.449	1029.061
123.322	21.993	1294.172	1027.932
124.337	22.003	1293.315	1027.217
125.352	22.078	1292.353	1026.798
126.366	22.107	1291.897	1026.513
127.381	21.998	1290.977	1025.059
128.395	22.055	1289.891	1024.438
129.410	21.934	1289.226	1023.114
130.424	21.997	1288.192	1022.570
131.439	22.031	1287.347	1022.004
132.454	22.077	1286.754	1021.710
133.468	21.963	1286.081	1020.425
134.483	22.013	1285.289	1019.994
135.497	21.972	1284.408	1018.968
136.512	22.024	1283.227	1018.244
137.527	21.935	1282.080	1016.729
138.541	22.030	1280.497	1015.935
139.556	21.989	1279.226	1014.595
140.570	21.932	1278.496	1013.601
141.585	22.008	1276.957	1012.725
142.600	21.940	1275.933	1011.435
143.614	21.936	1275.377	1010.880
144.629	22.034	1274.144	1010.377
145.643	21.862	1273.804	1009.027
146.658	21.842	1272.757	1007.995
147.673	22.043	1270.995	1007.664
148.687	21.998	1270.087	1006.598
149.702	21.844	1269.228	1004.945
150.716	21.942	1268.096	1004.519
151.731	22.099	1266.789	1004.293
152.746	21.977	1265.861	1002.770
153.760	22.049	1264.888	1002.326
154.775	22.012	1263.911	1001.251
155.789	22.060	1263.013	1000.722
156.804	21.952	1262.201	999.377
157.819	21.995	1261.322	998.840
158.833	22.047	1260.517	998.409
159.848	22.077	1259.890	997.992
160.862	21.977	1259.028	996.651
161.877	21.997	1258.357	996.150
162.892	22.097	1257.288	995.782
163.906	22.175	1256.342	995.388
164.921	22.091	1255.875	994.449
165.935	22.084	1255.290	993.862
166.950	22.026	1254.716	992.989
167.964	22.116	1253.872	992.744
168.979	22.065	1252.976	991.659
169.994	22.073	1252.694	991.392
171.008	22.074	1251.728	990.545
172.023	22.140	1250.985	990.242
173.037	22.177	1250.176	989.724
174.052	22.225	1249.510	989.376
175.067	22.062	1248.949	987.926
176.081	22.176	1248.016	987.743
177.096	22.080	1247.334	986.579
178.110	22.162	1246.082	985.957
179.125	22.069	1245.340	984.764
180.140	22.242	1244.233	984.771
181.154	22.179	1242.953	983.317
182.169	22.137	1241.916	982.179
183.183	22.046	1240.974	980.833
184.198	22.206	1240.196	981.027
185.213	22.195	1239.204	980.095
186.227	22.112	1238.431	978.933
187.242	22.198	1237.524	978.608
188.256	22.224	1236.450	977.816
189.271	22.191	1235.362	976.686
190.286	22.250	1235.144	976.758
191.300	22.216	1234.531	975.997
192.315	22.151	1234.326	975.387
193.329	22.230	1233.521	975.100
194.344	22.297	1232.858	974.866
195.359	22.243	1232.329	974.059
196.373	22.249	1231.758	973.556
197.388	22.133	1231.673	972.758
198.402	22.224	1231.200	972.804
199.417	22.171	1230.477	971.852
200.432	22.201	1230.113	971.647
201.446	22.293	1228.985	971.178
202.461	22.193	1228.654	970.280
203.475	22.235	1227.630	969.613
204.490	22.249	1226.770	968.929
205.504	22.270	1225.642	968.063
206.519	22.404	1224.571	967.870
207.534	22.249	1224.002	966.482
208.548	22.284	1222.992	965.791
209.563	22.208	1222.520	964.919
210.577	22.339	1221.284	964.573
211.592	22.274	1220.838	963.782
212.607	22.204	1220.182	962.794
213.621	22.346	1219.240	962.741
214.636	22.324	1218.499	961.951
215.650	22.221	1217.772	960.730
216.665	22.324	1216.439	960.156
217.680	22.374	1215.732	959.786
218.694	22.435	1214.736	959.247
219.709	22.360	1214.284	958.398
220.723	22.473	1213.230	958.093
221.738	22.321	1213.032	957.026
222.753	22.346	1212.253	956.463
223.767	22.383	1211.402	955.910
224.782	22.487	1210.578	955.736
225.796	22.514	1210.411	955.667
226.811	22.409	1209.643	954.410
227.826	22.358	1209.321	953.791
228.840	22.488	1208.556	953.809
229.855	22.468	1207.448	952.742
230.869	22.418	1207.348	952.308
231.884	22.472	1206.654	951.970
232.899	22.423	1205.615	950.799
233.913	22.360	1204.880	949.795
234.928	22.539	1204.735	950.563
235.942	22.437	1204.334	949.616
236.957	22.567	1203.265	949.387
237.972	22.476	1202.688	948.357
238.986	22.495	1201.646	947.557
240.001	22.492	1201.577	947.402
241.015	22.571	1200.734	947.077
242.030	22.530	1199.812	946.044
243.045	22.704	1199.108	946.339
244.059	22.622	1197.854	944.828
245.074	22.667	1197.659	944.828
246.088	22.609	1196.956	943.884
247.103	22.651	1196.144	943.383
248.117	22.618	1195.265	942.428
249.132	22.682	1194.667	942.215
250.147	22.550	1193.887	940.813
251.161	22.653	1192.838	940.453
252.176	22.759	1192.154	940.394
253.190	22.648	1191.835	939.468
254.205	22.663	1190.781	938.636
255.220	22.692	1190.858	938.766
256.234	22.807	1190.235	938.805
257.249	22.764	1189.337	937.782
258.263	22.640	1188.705	936.546
259.278	22.752	1188.216	936.669
260.293	22.727	1187.714	936.060
261.307	22.675	1187.358	935.423
262.322	22.738	1186.609	935.082
263.336	22.742	1185.867	934.438
264.351	22.718	1185.219	933.714
265.366	22.692	1184.772	933.144
266.380	22.794	1183.907	932.919
267.395	22.790	1183.283	932.325
268.409	22.734	1182.595	931.405
269.424	22.762	1182.310	931.246
270.439	22.810	1181.550	930.814
271.453	22.799	1181.057	930.288
272.468	22.649	1180.587	929.046
273.482	22.785	1179.368	928.718
274.497	22.709	1179.493	928.336
275.512	22.827	1178.349	927.970
276.526	22.814	1177.683	927.297
277.541	22.825	1177.092	926.808
278.555	22.742	1176.925	926.156
279.570	22.771	1175.796	925.340
280.585	22.851	1175.006	925.056
281.599	22.773	1174.577	924.230
282.614	22.882	1173.221	923.649
283.628	22.877	1172.389	922.888
284.643	22.872	1171.524	922.099
285.657	23.008	1170.394	921.838
286.672	22.859	1169.911	920.597
287.687	22.897	1169.240	920.185
288.701	22.874	1168.878	919.698
289.716	23.034	1167.412	919.297
290.730	22.957	1166.802	918.336
291.745	22.940	1166.338	917.800
292.760	22.949	1165.930	917.443
293.774	23.047	1164.960	917.109
294.789	22.927	1164.964	916.405
295.803	23.078	1164.120	916.447
296.818	23.069	1163.736	916.014
297.833	23.002	1162.837	914.880
298.847	23.083	1162.324	914.813
299.862	23.104	1161.158	913.922
300.876	23.123	1160.310	913.272
301.891	23.168	1159.938	913.134
302.906	23.052	1159.574	912.169
303.920	23.164	1159.087	912.278
304.935	23.112	1158.403	911.394
305.949	23.017	1157.760	910.315
306.964	23.258	1156.388	910.395
307.979	23.160	1156.352	909.786
308.993	23.071	1155.800	908.813
310.008	23.215	1154.641	908.559
311.022	23.185	1154.077	907.883
312.037	23.211	1153.146	907.204
313.052	23.240	1152.003	906.370
314.066	23.273	1151.379	905.969
315.081	23.261	1151.070	905.585
316.095	23.095	1150.796	904.441
317.110	23.398	1149.294	904.726
318.125	23.360	1148.644	903.940
319.139	23.254	1148.324	903.068
320.154	23.253	1147.614	902.425
321.168	23.221	1147.368	901.991
322.183	23.186	1146.758	901.251
323.197	23.290	1146.101	901.185
324.212	23.237	1145.298	900.202
325.227	23.252	1145.151	900.084
326.241	23.424	1144.245	900.164
327.256	23.182	1143.768	898.486
328.270	23.225	1143.242	898.211
329.285	23.306	1142.366	897.854
330.300	23.280	1141.370	896.856
331.314	23.351	1139.970	896.039
332.329	23.371	1139.208	895.461
333.343	23.467	1138.690	895.459
334.358	23.532	1138.024	895.186
335.373	23.477	1137.549	894.452
336.387	23.467	1136.841	893.765
337.402	23.459	1136.033	893.014
338.416	23.572	1135.283	892.914
339.431	23.564	1135.111	892.657
340.446	23.429	1134.404	891.343
341.460	23.542	1133.733	891.307
342.475	23.614	1132.859	890.902
343.489	23.466	1131.899	889.327
344.504	23.561	1130.773	888.837
345.519	23.487	1130.324	888.034
346.533	23.628	1129.261	887.826
347.548	23.594	1128.867	887.271
348.562	23.599	1128.098	886.613
349.577	23.584	1127.271	885.807
350.592	23.441	1126.610	884.495
351.606	23.478	1125.875	884.029
352.621	23.625	1125.677	884.526
353.635	23.671	1124.819	884.000
354.650	23.627	1123.970	883.038
355.665	23.679	1123.550	882.889
356.679	23.642	1122.772	882.015
357.694	23.600	1122.532	881.539
358.708	23.716	1121.560	881.275
359.723	23.532	1121.278	880.061
360.738	23.713	1120.327	880.132
361.752	23.627	1119.813	879.228
362.767	23.728	1119.299	879.244
363.781	23.684	1118.743	878.513
364.796	23.758	1118.298	878.451
365.810	23.721	1117.840	877.831
366.825	23.769	1117.362	877.616
367.840	23.787	1116.824	877.202
368.854	23.809	1115.989	876.580
369.869	23.711	1115.380	875.540
370.883	23.873	1114.495	875.563
371.898	23.941	1113.876	875.338
372.913	23.901	1113.002	874.373
373.927	23.838	1112.771	873.805
374.942	23.897	1112.401	873.730
375.956	23.831	1111.966	872.985
376.971	23.813	1111.331	872.320
377.986	23.877	1110.579	871.966
379.000	23.916	1110.312	871.875
380.015	23.957	1109.526	871.377
381.029	23.834	1108.753	870.092
382.044	23.874	1108.078	869.679
383.059	23.903	1107.980	869.671
384.073	23.940	1107.032	869.031
385.088	24.081	1105.785	868.663
386.102	23.991	1104.918	867.467
387.117	23.985	1104.398	866.951
388.132	23.996	1103.459	866.190
389.146	23.993	1102.737	865.534
390.161	23.969	1102.496	865.149
391.175	24.054	1101.288	864.538
392.190	24.124	1100.643	864.297
393.205	24.183	1099.876	863.904
394.219	24.072	1099.608	863.079
395.234	24.131	1098.593	862.492
396.248	24.126	1097.661	861.659
397.263	24.239	1096.332	861.082
398.278	24.212	1096.394	860.925
399.292	24.337	1095.506	860.757
400.307	24.197	1094.963	859.580
401.321	24.091	1094.821	858.881
402.336	24.154	1093.919	858.397
403.350	24.130	1093.412	857.808
404.365	24.129	1092.887	857.315
405.380	24.223	1091.607	856.691
406.394	24.223	1091.289	856.366
407.409	24.231	1090.335	855.579
408.423	24.268	1089.929	855.361
409.438	24.278	1089.037	854.633
410.453	24.438	1088.226	854.687
411.467	24.368	1087.429	853.652
412.482	24.331	1086.673	852.805
413.496	24.353	1085.852	852.193
414.511	24.330	1085.556	851.774
415.526	24.459	1085.273	852.091
416.540	24.492	1084.634	851.669
417.555	24.452	1084.005	850.912
418.569	24.356	1083.763	850.189
419.584	24.242	1083.476	849.347
420.599	24.422	1082.723	849.538
421.613	148.685	1401.967	1797.630
422.628	137.349	1448.451	1797.715
