DTS Sentinel unit serial number:	SN413079Multiplexer serial number:	ORYXHardware model number:	OX4-SRSoftware version number:	ORYX F/W v4.00 Oryx Data Collector v3.7.2.0data status	okinstallation	princeton_trtdifferential loss correction	single-endedforward channel	channel 2reverse channel	N/Adate	2019/09/16time	10:03:35forward acquisition time	60.00reverse acquisition time	0.00gamma	496.2192k internal	0.2320k external	0.2320temperature offset calibration	0.9961default loss term (dB/km)	0.3790temperature slope calibration	1.0000multiplexer offset coefficient	1.0000multiplexer slope coefficient	1.0000fibre end	0.00T internal ref (°C)	33.64T ext. ref 1 (°C)	12.40T ext. ref 2 (°C)	32.15length (m)	temperature (°C)	Stokes	anti-Stokes-747.200	117.559	0.141	0.176
-746.185	-51.696	0.181	0.085
-745.171	-107.920	-0.426	-0.094
-744.156	-4.927	0.204	0.142
-743.142	654.089	0.024	0.061
-742.127	-135.957	-0.217	-0.026
-741.112	800.000	-0.026	0.112
-740.098	163.634	-0.209	0.297
-739.083	515.426	0.042	-0.099
-738.069	-134.700	0.216	0.027
-737.054	-200.000	0.020	0.151
-736.039	-10.269	-0.266	-0.179
-735.025	-7.931	0.133	-0.091
-734.010	-103.975	-0.131	-0.031
-732.996	-200.000	-0.020	0.296
-731.981	430.306	-0.029	0.064
-730.966	419.512	0.093	-0.201
-729.952	791.493	0.104	-0.288
-728.937	149.096	-0.030	-0.041
-727.923	163.599	-0.055	-0.079
-726.908	-190.729	0.049	0.001
-725.894	101.979	-0.176	-0.208
-724.879	83.367	-0.126	-0.139
-723.864	-156.797	-0.248	0.015
-722.850	-72.622	0.099	0.037
-721.835	-200.000	-0.018	0.080
-720.821	-200.000	-0.113	-0.657
-719.806	73.310	-0.153	-0.161
-718.791	214.168	-0.078	0.125
-717.777	141.715	0.192	-0.257
-716.762	-200.000	-0.038	0.444
-715.748	87.070	-0.117	0.131
-714.733	40.759	-0.187	-0.170
-713.718	5.987	0.198	-0.148
-712.704	-200.000	0.049	-0.298
-711.689	-176.363	-0.367	-0.010
-710.675	-86.260	0.291	-0.091
-709.660	-72.243	0.122	-0.046
-708.645	-114.308	-0.336	0.065
-707.631	-103.652	0.359	-0.085
-706.616	-94.744	-0.204	0.056
-705.602	-200.000	-0.024	-0.276
-704.587	21.174	-0.133	-0.109
-703.572	-113.796	-0.124	-0.024
-702.558	-22.715	-0.416	0.253
-701.543	-200.000	-0.085	-0.388
-700.529	714.089	0.092	0.246
-699.514	-138.837	0.007	-0.001
-698.499	128.802	0.231	0.297
-697.485	800.000	-0.105	-0.414
-696.470	-5.945	0.107	0.074
-695.456	-127.912	-0.104	-0.015
-694.441	32.441	-0.079	0.069
-693.426	750.842	-0.108	0.293
-692.412	12.598	0.267	0.208
-691.397	-200.000	-0.005	0.196
-690.383	800.000	-0.043	0.181
-689.368	13.937	-0.216	0.170
-688.354	800.000	-0.096	-0.392
-687.339	-200.000	-0.009	-0.188
-686.324	-24.607	-0.438	0.263
-685.310	-200.000	0.047	0.484
-684.295	800.000	-0.057	0.252
-683.281	-19.311	-0.197	0.123
-682.266	180.338	0.038	-0.056
-681.251	17.073	-0.281	-0.225
-680.237	-200.000	-0.031	0.162
-679.222	192.182	-0.092	0.139
-678.208	494.973	-0.053	0.122
-677.193	-113.697	-0.095	-0.019
-676.178	-92.219	-0.067	0.019
-675.164	187.147	-0.054	0.081
-674.149	195.722	0.033	-0.050
-673.135	-104.222	0.189	0.044
-672.120	-9.250	0.080	0.054
-671.105	-183.658	0.137	-0.002
-670.091	83.963	0.087	-0.095
-669.076	-94.013	0.130	-0.036
-668.062	509.336	0.146	-0.343
-667.047	-170.630	-0.365	0.013
-666.032	-64.408	-0.095	-0.039
-665.018	-200.000	-0.102	-0.468
-664.003	61.761	0.153	-0.153
-662.989	800.000	0.062	0.233
-661.974	-200.000	-0.004	-0.243
-660.959	-36.636	-0.323	0.175
-659.945	298.171	-0.092	0.170
-658.930	-200.000	0.026	-0.172
-657.916	-18.182	-0.188	-0.119
-656.901	654.495	-0.054	0.140
-655.886	-22.184	-0.268	-0.164
-654.872	-82.455	0.385	-0.126
-653.857	127.167	0.285	-0.365
-652.843	293.233	0.167	-0.307
-651.828	-141.040	-0.254	0.026
-650.814	80.228	-0.211	0.229
-649.799	-28.912	0.175	0.101
-648.784	-88.311	0.125	0.038
-647.770	291.721	-0.054	0.099
-646.755	690.052	0.105	-0.276
-645.741	-112.089	0.125	0.025
-644.726	-60.996	-0.188	-0.080
-643.711	-100.447	-0.057	-0.014
-642.697	-13.335	-0.028	-0.019
-641.682	800.000	-0.020	-0.079
-640.668	304.167	-0.130	-0.243
-639.653	560.206	0.054	-0.132
-638.638	-200.000	-0.052	-0.445
-637.624	-200.000	-0.035	-0.302
-636.609	369.890	-0.022	0.044
-635.595	-100.774	-0.158	0.039
-634.580	800.000	-0.112	-0.380
-633.565	95.279	0.116	-0.133
-632.551	-110.359	-0.377	-0.079
-631.536	-118.785	-0.154	0.027
-630.522	28.251	-0.032	-0.027
-629.507	78.085	-0.156	-0.167
-628.492	-200.000	-0.062	0.371
-627.478	172.961	0.188	0.273
-626.463	-10.360	0.306	0.204
-625.449	-129.238	0.316	-0.044
-624.434	93.770	-0.163	0.186
-623.419	-200.000	0.027	0.122
-622.405	-8.990	-0.107	0.072
-621.390	-156.479	-0.231	0.014
-620.376	800.000	0.083	-0.282
-619.361	121.846	-0.014	0.017
-618.346	-200.000	0.032	-0.326
-617.332	173.794	-0.157	0.228
-616.317	-28.667	-0.075	-0.044
-615.303	-76.542	0.168	-0.059
-614.288	27.555	-0.334	-0.282
-613.273	-200.000	-0.014	0.302
-612.259	-85.651	-0.350	0.109
-611.244	-76.337	-0.351	-0.124
-610.230	-181.349	-0.142	-0.003
-609.215	-67.423	-0.109	-0.043
-608.201	-146.926	-0.213	-0.018
-607.186	-149.768	-0.288	-0.023
-606.171	-123.812	-0.356	0.057
-605.157	4.694	0.068	-0.050
-604.142	-27.761	0.195	0.114
-603.128	-52.710	0.186	-0.087
-602.113	-88.017	0.304	0.092
-601.098	430.794	-0.127	0.277
-600.084	101.589	-0.123	-0.144
-599.069	-200.000	-0.051	-0.268
-598.055	-165.679	-0.626	-0.027
-597.040	-200.000	-0.023	0.321
-596.025	323.476	0.037	0.072
-595.011	51.172	0.148	0.141
-593.996	-200.000	-0.035	-0.170
-592.982	-86.312	0.366	-0.113
-591.967	800.000	0.025	0.094
-590.952	-182.982	-0.384	-0.007
-589.938	306.699	-0.031	0.059
-588.923	551.022	-0.050	-0.121
-587.909	-102.969	0.080	0.019
-586.894	-200.000	0.024	-0.157
-585.879	791.594	0.071	0.195
-584.865	-74.146	-0.090	-0.033
-583.850	-76.743	0.330	-0.116
-582.836	280.808	0.081	0.145
-581.821	-200.000	-0.013	-0.172
-580.806	-94.442	-0.123	0.034
-579.792	-46.751	0.320	-0.157
-578.777	-0.212	0.223	0.159
-577.763	800.000	-0.080	0.242
-576.748	-81.640	0.232	-0.077
-575.733	579.252	-0.060	0.147
-574.719	-88.432	0.287	-0.086
-573.704	165.558	0.055	0.079
-572.690	-114.028	-0.364	-0.071
-571.675	227.546	0.196	0.320
-570.661	55.812	0.146	0.143
-569.646	-131.999	-0.169	-0.022
-568.631	-82.123	0.241	0.079
-567.617	9.086	-0.190	0.144
-566.602	-147.273	-0.279	-0.024
-565.588	238.184	-0.136	-0.227
-564.573	-200.000	0.002	0.340
-563.558	428.844	0.208	-0.452
-562.544	61.923	0.230	-0.230
-561.529	141.208	0.129	-0.171
-560.515	800.000	0.069	0.268
-559.500	-46.974	0.140	-0.068
-558.485	-42.220	0.235	-0.121
-557.471	-48.382	0.177	-0.086
-556.456	55.831	-0.174	-0.169
-555.442	213.691	0.126	0.200
-554.427	19.744	0.192	0.155
-553.412	94.032	0.108	0.123
-552.398	-173.824	-0.077	0.002
-551.383	130.296	-0.136	0.175
-550.369	669.224	-0.121	-0.315
-549.354	-105.797	-0.250	0.057
-548.339	-94.586	0.139	0.038
-547.325	-50.837	0.108	-0.051
-546.310	-200.000	-0.010	-0.119
-545.296	320.714	-0.097	-0.186
-544.281	-11.101	-0.057	0.038
-543.266	405.040	0.071	0.151
-542.252	156.018	-0.074	-0.102
-541.237	112.124	-0.067	0.081
-540.223	124.652	0.170	-0.215
-539.208	-47.594	0.453	0.220
-538.193	351.488	-0.063	-0.124
-537.179	-90.751	-0.127	0.037
-536.164	118.852	-0.153	-0.190
-535.150	383.136	-0.237	-0.489
-534.135	424.763	-0.067	-0.144
-533.121	-200.000	-0.020	0.108
-532.106	-23.003	0.405	-0.245
-531.091	-5.399	0.108	-0.074
-530.077	-128.703	-0.408	0.058
-529.062	-153.777	-0.250	-0.017
-528.048	-105.990	-0.147	0.033
-527.033	43.206	-0.058	0.053
-526.018	-51.463	-0.112	0.052
-525.004	59.825	0.027	0.026
-523.989	-108.483	-0.093	-0.020
-522.975	800.000	0.086	-0.281
-521.960	478.960	-0.063	0.142
-520.945	-126.253	-0.333	0.050
-519.931	342.527	0.181	-0.355
-518.916	655.320	-0.125	-0.323
-517.902	800.000	0.073	-0.292
-516.887	226.598	-0.106	0.172
-515.872	35.687	0.106	-0.093
-514.858	-41.635	0.282	-0.145
-513.843	16.834	0.309	-0.245
-512.829	72.975	-0.292	-0.306
-511.814	-200.000	0.109	-0.542
-510.799	-135.512	-0.386	-0.046
-509.785	56.237	0.027	-0.027
-508.770	-188.193	-0.104	-0.001
-507.756	-85.310	-0.066	-0.021
-506.741	171.059	0.106	-0.153
-505.726	20.446	-0.151	-0.122
-504.712	-163.399	0.432	0.021
-503.697	-200.000	-0.015	-0.196
-502.683	45.597	0.099	0.092
-501.668	48.689	-0.115	-0.108
-500.653	-68.270	0.293	0.114
-499.639	-200.000	0.088	0.509
-498.624	-68.116	0.150	0.058
-497.610	-87.839	-0.304	-0.092
-496.595	142.966	0.217	-0.289
-495.581	-127.504	0.442	-0.064
-494.566	0.072	0.076	0.054
-493.551	441.790	0.121	0.265
-492.537	-75.265	0.085	0.030
-491.522	-19.171	0.334	0.208
-490.508	800.000	0.003	-0.009
-489.493	-5.332	-0.382	0.263
-488.478	800.000	-0.034	-0.115
-487.464	800.000	-0.049	0.143
-486.449	800.000	0.028	-0.091
-485.435	211.090	-0.088	-0.138
-484.420	200.023	0.195	-0.299
-483.405	-200.000	-0.003	0.116
-482.391	-106.626	0.156	-0.035
-481.376	255.346	-0.151	0.260
-480.362	74.543	-0.141	0.148
-479.347	118.649	0.153	-0.190
-478.332	9.801	-0.178	-0.135
-477.318	29.934	0.197	-0.168
-476.303	38.898	-0.207	-0.185
-475.289	348.680	0.065	0.127
-474.274	-6.065	0.205	-0.140
-473.259	445.682	-0.014	-0.030
-472.245	312.792	0.127	0.238
-471.230	-200.000	-0.001	-0.092
-470.216	800.000	0.058	0.228
-469.201	-200.000	0.056	0.432
-468.186	-27.292	0.248	0.145
-467.172	56.375	-0.065	0.063
-466.157	-67.364	0.239	-0.094
-465.143	-47.154	-0.276	0.135
-464.128	492.992	0.086	0.196
-463.113	403.867	-0.170	-0.357
-462.099	-76.287	-0.180	-0.064
-461.084	-50.952	-0.325	0.153
-460.070	800.000	0.036	0.132
-459.055	-17.452	-0.185	-0.117
-458.040	-49.906	0.307	-0.146
-457.026	67.353	-0.050	-0.051
-456.011	451.696	-0.044	-0.096
-454.997	-8.313	-0.258	-0.173
-453.982	-200.000	-0.009	-0.124
-452.968	32.734	0.388	0.335
-451.953	-23.666	0.303	0.182
-450.938	226.495	0.084	-0.136
-449.924	-133.899	0.074	-0.009
-448.909	-115.257	0.151	0.029
-447.895	608.951	0.061	-0.152
-446.880	-118.420	0.077	0.014
-445.865	-2.944	0.175	0.122
-444.851	-165.267	0.015	0.001
-443.836	367.803	-0.112	-0.227
-442.822	121.576	-0.253	-0.315
-441.807	-91.939	0.447	-0.127
-440.792	-92.746	0.157	0.044
-439.778	154.487	-0.133	0.183
-438.763	44.527	-0.113	0.103
-437.749	-200.000	0.009	0.243
-436.734	800.000	-0.079	0.312
-435.719	800.000	0.053	-0.175
-434.705	-54.302	0.240	-0.109
-433.690	128.593	0.106	0.135
-432.676	80.781	0.067	-0.072
-431.661	98.835	-0.120	0.138
-430.646	58.547	0.213	0.209
-429.632	467.477	0.061	0.136
-428.617	15.931	0.197	0.155
-427.603	-157.855	-0.178	-0.011
-426.588	781.477	-0.078	0.214
-425.573	13.524	-0.065	0.050
-424.559	65.713	-0.123	0.125
-423.544	95.719	-0.083	0.094
-422.530	165.762	0.089	-0.126
-421.515	-13.455	-0.183	0.118
-420.500	136.481	0.077	-0.100
-419.486	273.074	-0.034	-0.060
-418.471	471.804	-0.076	-0.170
-417.457	-200.000	-0.022	-0.351
-416.442	-103.741	0.224	-0.052
-415.428	775.785	-0.053	-0.145
-414.413	-59.694	-0.189	0.081
-413.398	800.000	0.111	0.312
-412.384	-62.457	0.107	0.044
-411.369	34.456	-0.180	-0.157
-410.355	-12.298	-0.134	-0.088
-409.340	20.681	-0.063	-0.051
-408.325	231.711	-0.067	0.109
-407.311	800.000	-0.097	-0.281
-406.296	-143.913	0.248	-0.023
-405.282	-12.436	0.114	-0.074
-404.267	-44.306	-0.205	-0.103
-403.252	425.651	-0.077	0.166
-402.238	0.416	-0.247	0.176
-401.223	-200.000	-0.014	0.191
-400.209	-188.254	-0.134	-0.002
-399.194	-122.671	-0.249	-0.040
-398.179	-168.706	-0.120	0.005
-397.165	-200.000	0.017	-0.226
-396.150	800.000	-0.028	0.124
-395.136	-200.000	0.000	0.023
-394.121	-134.702	0.516	-0.063
-393.106	-123.142	0.285	0.046
-392.092	-16.346	-0.141	-0.089
-391.077	-200.000	0.018	-0.284
-390.063	58.782	0.238	-0.233
-389.048	-43.656	0.103	-0.052
-388.033	-150.550	0.049	-0.004
-387.019	800.000	-0.040	0.121
-386.004	362.612	0.120	-0.240
-384.990	-103.126	0.224	0.053
-383.975	-200.000	-0.045	0.211
-382.960	-38.371	-0.200	0.105
-381.946	5.826	-0.041	0.030
-380.931	-200.000	0.017	-0.102
-379.917	800.000	0.098	0.323
-378.902	57.089	-0.075	0.073
-377.888	210.393	0.114	0.179
-376.873	-200.000	-0.035	0.233
-375.858	-9.963	-0.196	-0.130
-374.844	350.357	-0.133	-0.263
-373.829	-18.467	-0.177	0.110
-372.815	61.398	-0.365	-0.361
-371.800	131.934	-0.068	0.087
-370.785	-72.294	0.375	-0.138
-369.771	-111.452	-0.236	-0.048
-368.756	-200.000	-0.024	0.107
-367.742	66.162	-0.227	-0.230
-366.727	-103.125	0.226	-0.053
-365.712	-82.761	0.284	0.092
-364.698	-200.000	0.008	0.259
-363.683	118.752	-0.112	0.138
-362.669	413.402	0.027	0.056
-361.654	800.000	-0.038	-0.122
-360.639	239.674	0.148	-0.246
-359.625	-8.235	-0.259	-0.174
-358.610	-12.483	-0.090	-0.059
-357.596	-192.121	-0.302	-0.003
-356.581	-16.953	0.098	-0.061
-355.566	728.705	-0.017	0.044
-354.552	800.000	-0.034	-0.100
-353.537	239.774	-0.023	-0.039
-352.523	721.644	0.045	-0.120
-351.508	-181.998	-0.209	0.004
-350.493	661.036	-0.155	-0.399
-349.479	800.000	0.120	-0.331
-348.464	-200.000	0.038	-0.197
-347.450	-20.083	0.124	-0.076
-346.435	-16.671	0.141	0.089
-345.420	800.000	0.090	0.354
-344.406	-104.835	-0.325	-0.074
-343.391	160.471	0.091	-0.127
-342.377	526.080	-0.039	-0.091
-341.362	101.455	-0.145	-0.168
-340.348	77.886	0.209	0.222
-339.333	5.277	-0.239	0.175
-338.318	-200.000	-0.014	0.166
-337.304	-200.000	-0.043	0.431
-336.289	-17.052	-0.154	0.097
-335.275	-117.393	0.158	-0.029
-334.260	246.535	0.008	0.013
-333.245	-64.658	-0.046	0.018
-332.231	173.529	0.155	0.223
-331.216	-126.087	-0.142	-0.021
-330.202	42.371	-0.268	0.242
-329.187	-200.000	0.038	-0.170
-328.172	-200.000	-0.082	0.527
-327.158	-6.527	-0.142	0.096
-326.143	-134.461	-0.234	-0.028
-325.129	88.303	-0.160	0.177
-324.114	394.129	0.187	-0.388
-323.099	195.242	0.085	-0.129
-322.085	-106.646	-0.050	0.011
-321.070	-200.000	0.013	-0.192
-320.056	800.000	-0.076	0.253
-319.041	289.422	0.124	-0.223
-318.026	800.000	0.040	0.121
-317.012	27.841	0.251	0.210
-315.997	435.540	0.055	-0.118
-314.983	-200.000	-0.021	0.165
-313.968	-99.938	-0.323	-0.080
-312.953	145.266	-0.191	-0.255
-311.939	5.445	-0.225	-0.165
-310.924	-87.498	0.210	-0.063
-309.910	353.077	0.150	-0.297
-308.895	-147.547	0.275	-0.023
-307.880	-200.000	0.048	0.295
-306.866	101.112	0.045	-0.053
-305.851	-57.594	-0.050	-0.022
-304.837	262.096	-0.067	-0.115
-303.822	37.099	-0.149	0.132
-302.807	-153.876	0.267	0.018
-301.793	-121.678	-0.262	-0.043
-300.778	-72.616	-0.259	-0.095
-299.764	-108.286	0.193	-0.042
-298.749	343.515	0.230	0.448
-297.735	305.697	-0.137	0.252
-296.720	-110.193	-0.093	-0.019
-295.705	-25.612	-0.201	0.118
-294.691	-200.000	-0.012	0.056
-293.676	-65.227	0.230	0.092
-292.662	-9.513	0.201	-0.134
-291.647	-200.000	-0.004	0.338
-290.632	-200.000	-0.013	-0.155
-289.618	-43.074	0.268	0.135
-288.603	110.118	-0.083	-0.099
-287.589	-65.156	0.154	-0.062
-286.574	113.518	0.062	-0.075
-285.559	-90.845	0.123	0.035
-284.545	33.188	0.228	0.196
-283.530	800.000	0.035	0.112
-282.516	-115.921	-0.196	0.036
-281.501	-200.000	0.060	0.632
-280.486	58.806	0.141	0.138
-279.472	-63.278	0.179	-0.073
-278.457	261.671	-0.038	0.065
-277.443	105.683	0.041	-0.048
-276.428	367.227	-0.102	0.205
-275.413	73.891	-0.293	-0.305
-274.399	1.131	0.161	-0.115
-273.384	-3.610	-0.197	0.136
-272.370	255.243	-0.181	0.308
-271.355	-113.807	0.134	0.026
-270.340	-47.179	-0.197	-0.096
-269.326	-174.477	-0.037	0.001
-268.311	-10.977	0.258	0.169
-267.297	-10.979	-0.305	0.200
-266.282	427.922	-0.088	-0.189
-265.267	22.875	-0.079	-0.064
-264.253	-151.529	0.179	0.013
-263.238	-200.000	0.010	0.067
-262.224	800.000	0.021	-0.091
-261.209	-200.000	-0.009	0.182
-260.195	45.893	0.159	-0.146
-259.180	-94.290	0.218	-0.059
-258.165	135.901	-0.212	0.274
-257.151	694.794	-0.043	0.112
-256.136	-136.244	-0.094	-0.011
-255.122	-101.419	0.462	-0.112
-254.107	-106.749	-0.434	-0.096
-253.092	-200.000	0.090	0.419
-252.078	306.449	0.052	-0.095
-251.063	-50.881	0.136	-0.063
-250.049	84.306	0.233	-0.253
-249.034	89.954	-0.214	0.237
-248.019	800.000	-0.069	-0.228
-247.005	44.959	-0.060	-0.055
-245.990	133.685	-0.051	-0.065
-244.976	633.238	-0.241	-0.606
-243.961	-200.000	-0.047	0.291
-242.946	-76.832	0.230	0.080
-241.932	334.781	-0.032	-0.061
-240.917	26.410	0.260	0.216
-239.903	-200.000	-0.002	-0.151
-238.888	35.908	-0.249	0.217
-237.873	37.038	-0.134	-0.118
-236.859	129.783	-0.280	-0.355
-235.844	-173.577	0.162	-0.005
-234.830	240.691	0.052	-0.086
-233.815	-41.824	-0.116	-0.059
-232.800	2.327	-0.167	0.120
-231.786	-200.000	-0.043	-0.229
-230.771	49.719	-0.047	0.044
-229.757	-19.043	-0.031	0.019
-228.742	90.393	0.094	0.104
-227.727	-95.091	0.271	-0.072
-226.713	-162.818	0.147	0.007
-225.698	-200.000	0.006	-0.197
-224.684	163.076	-0.122	-0.170
-223.669	60.004	-0.114	0.112
-222.655	-133.015	0.232	-0.029
-221.640	412.230	-0.164	-0.346
-220.625	-183.714	0.157	-0.003
-219.611	-147.546	0.363	-0.030
-218.596	122.728	-0.165	-0.205
-217.582	-146.979	0.452	-0.038
-216.567	219.714	-0.071	-0.113
-215.552	1.116	0.136	-0.097
-214.538	57.159	0.176	-0.170
-213.523	-129.958	-0.128	-0.017
-212.509	800.000	-0.118	0.377
-211.494	800.000	0.041	-0.135
-210.479	-105.878	0.285	-0.064
-209.465	-200.000	0.019	0.094
-208.450	-200.000	0.013	0.526
-207.436	-200.000	-0.002	0.020
-206.421	-200.000	-0.060	0.309
-205.406	-30.460	0.261	-0.146
-204.392	-17.319	0.115	0.071
-203.377	-60.615	0.231	0.097
-202.363	312.327	-0.109	-0.202
-201.348	50.258	0.139	0.130
-200.333	-42.076	-0.179	0.091
-199.319	246.498	0.085	0.142
-198.304	5.769	-0.124	-0.091
-197.290	-169.945	0.119	-0.004
-196.275	108.808	0.105	-0.124
-195.260	-122.554	-0.121	-0.019
-194.246	-47.433	0.147	-0.071
-193.231	800.000	0.099	0.312
-192.217	19.829	0.132	0.105
-191.202	-107.614	-0.194	0.042
-190.187	-95.192	0.138	0.037
-189.173	-39.469	-0.223	-0.116
-188.158	20.525	-0.161	0.129
-187.144	-151.905	0.337	0.024
-186.129	-145.189	-0.460	0.041
-185.114	32.926	-0.310	0.266
-184.100	39.236	0.226	0.200
-183.085	47.361	-0.091	0.084
-182.071	-56.921	-0.057	-0.025
-181.056	-127.848	-0.030	-0.004
-180.042	800.000	-0.064	-0.211
-179.027	-38.295	-0.366	0.192
-178.012	-164.066	0.029	-0.001
-176.998	149.098	0.160	-0.214
-175.983	-129.957	0.300	-0.041
-174.969	800.000	0.051	-0.176
-173.954	136.329	-0.319	0.412
-172.939	-200.000	-0.014	0.192
-171.925	-127.243	0.242	0.035
-170.910	216.424	0.217	0.341
-169.896	-200.000	0.078	0.503
-168.881	375.479	0.154	0.311
-167.866	22.380	-0.242	-0.196
-166.852	-99.365	-0.122	0.030
-165.837	800.000	0.024	-0.102
-164.823	-121.843	-0.526	0.086
-163.808	65.143	0.146	0.146
-162.793	-22.712	0.079	0.047
-161.779	-154.214	0.089	0.006
-160.764	-200.000	0.025	0.217
-159.750	194.570	0.159	-0.238
-158.735	-105.999	-0.293	0.065
-157.720	-82.718	0.079	0.025
-156.706	-200.000	0.055	0.347
-155.691	75.148	-0.184	0.192
-154.677	-0.469	-0.266	-0.187
-153.662	61.770	-0.020	-0.020
-152.647	-124.494	0.291	0.045
-151.633	115.831	0.119	-0.144
-150.618	151.646	-0.210	0.283
-149.604	-2.919	-0.016	-0.011
-148.589	5.296	0.074	0.054
-147.574	800.000	-0.038	-0.159
-146.560	-200.000	-0.015	0.187
-145.545	-67.293	0.365	0.142
-144.531	-135.160	-0.208	0.025
-143.516	800.000	0.070	-0.194
-142.502	-76.532	-0.253	-0.088
-141.487	-28.048	0.168	0.096
-140.472	-55.148	-0.302	0.134
-139.458	-139.310	0.088	0.009
-138.443	77.324	-0.185	0.194
-137.429	-200.000	0.037	0.272
-136.414	17.287	-0.174	0.136
-135.399	114.905	-0.109	-0.131
-134.385	351.252	0.102	-0.200
-133.370	-126.079	0.403	-0.060
-132.356	-110.286	0.111	-0.023
-131.341	-200.000	0.257	0.000
-130.326	-200.000	-0.086	0.423
-129.312	-145.536	0.343	0.030
-128.297	-157.013	0.205	-0.012
-127.283	-7.504	-0.127	-0.085
-126.268	-37.163	0.319	-0.169
-125.253	-4.877	-0.219	-0.149
-124.239	-114.285	-0.182	-0.035
-123.224	-28.455	-0.087	0.049
-122.210	-60.431	0.202	-0.085
-121.195	114.009	-0.118	0.141
-120.180	-104.855	0.149	-0.034
-119.166	-104.328	0.122	-0.028
-118.151	235.190	-0.126	0.205
-117.137	-114.391	-0.370	-0.070
-116.122	174.445	-0.078	-0.111
-115.107	-27.335	0.300	-0.172
-114.093	-69.419	-0.307	0.116
-113.078	-200.000	0.001	0.051
-112.064	800.000	0.074	-0.239
-111.049	-62.096	-0.445	0.183
-110.034	-3.800	-0.055	0.038
-109.020	-72.633	-0.058	0.021
-108.005	-169.997	0.040	-0.001
-106.991	4.626	-0.155	-0.112
-105.976	-200.000	-0.042	-0.619
-104.962	46.164	0.215	-0.196
-103.947	-14.253	-0.153	0.097
-102.932	-115.149	0.341	-0.064
-101.918	195.623	0.119	0.178
-100.903	-91.540	0.286	0.080
-99.889	92.981	0.105	0.117
-98.874	-20.318	0.228	-0.138
-97.859	-200.000	0.047	0.508
-96.845	58.828	-0.096	0.093
-95.830	-200.000	0.019	-0.379
-94.816	34.844	-0.166	0.143
-93.801	-80.713	-0.330	0.108
-92.786	-44.821	0.210	0.103
-91.772	-121.863	0.118	-0.019
-90.757	-31.450	0.167	0.092
-89.743	-136.285	-0.140	0.016
-88.728	-79.263	-0.230	-0.077
-87.713	652.636	-0.016	0.041
-86.699	-176.505	-0.274	0.007
-85.684	78.364	-0.042	0.044
-84.670	-200.000	-0.011	0.203
-83.655	22.711	0.011	-0.009
-82.640	-200.000	0.010	-0.355
-81.626	-85.479	0.201	0.062
-80.611	-128.067	-0.099	0.014
-79.597	-71.418	-0.250	0.092
-78.582	800.000	0.080	0.218
-77.567	-200.000	0.059	-0.281
-76.553	-200.000	-0.058	0.338
-75.538	-109.932	-0.090	-0.019
-74.524	-102.415	0.271	-0.064
-73.509	245.646	0.108	-0.179
-72.494	578.454	0.029	-0.071
-71.480	-112.666	0.342	-0.067
-70.465	-127.876	0.148	0.021
-69.451	306.128	0.242	0.443
-68.436	-89.232	0.366	0.106
-67.422	-200.000	-0.012	0.341
-66.407	-98.829	0.144	-0.036
-65.392	-200.000	0.024	0.198
-64.378	-8.552	0.105	-0.069
-63.363	85.694	0.050	-0.055
-62.349	360.150	0.152	-0.300
-61.334	56.596	-1.008	-0.966
-60.319	-200.000	-0.003	0.429
-59.305	-200.000	-0.152	-1.049
-58.290	256.795	0.524	0.887
-57.276	800.000	0.546	1.774
-56.261	-200.000	96.580	556.083
-55.246	508.761	1423.471	3255.147
-54.232	145.983	2648.171	3496.190
-53.217	103.619	2341.822	2706.281
-52.203	42.707	1948.966	1747.029
-51.188	36.791	1734.814	1509.067
-50.173	34.022	1690.214	1449.148
-49.159	50.535	1738.804	1618.811
-48.144	52.897	1755.843	1652.865
-47.130	36.478	1712.522	1487.032
-46.115	33.761	1696.910	1452.661
-45.100	33.630	1692.070	1447.458
-44.086	33.454	1689.793	1444.110
-43.071	33.517	1686.728	1441.915
-42.057	33.451	1684.525	1439.475
-41.042	33.587	1682.005	1438.295
-40.027	33.510	1680.472	1436.345
-39.013	33.508	1678.182	1434.311
-37.998	33.653	1676.017	1433.500
-36.984	33.596	1675.529	1432.596
-35.969	33.673	1673.618	1431.488
-34.954	33.737	1671.790	1430.349
-33.940	33.565	1670.694	1428.059
-32.925	33.615	1668.481	1426.488
-31.911	33.654	1666.600	1425.113
-30.896	33.614	1664.879	1423.287
-29.881	33.665	1663.206	1422.185
-28.867	33.587	1661.399	1420.000
-27.852	33.615	1659.740	1418.730
-26.838	33.658	1658.026	1417.530
-25.823	33.625	1657.137	1416.472
-24.809	33.741	1655.410	1415.803
-23.794	33.666	1654.126	1414.089
-22.779	33.648	1652.568	1412.567
-21.765	33.643	1650.998	1411.128
-20.750	33.611	1649.113	1409.228
-19.736	33.697	1647.408	1408.354
-18.721	33.773	1645.806	1407.493
-17.706	33.722	1644.350	1405.814
-16.692	33.633	1642.993	1403.941
-15.677	33.658	1641.464	1402.759
-14.663	33.679	1639.959	1401.576
-13.648	33.622	1638.904	1400.194
-12.633	33.581	1637.766	1398.868
-11.619	33.628	1635.903	1397.567
-10.604	33.623	1633.734	1395.618
-9.590	33.702	1633.006	1395.520
-8.575	33.694	1631.528	1394.144
-7.560	33.648	1630.378	1392.770
-6.546	33.654	1629.410	1391.932
-5.531	33.641	1627.947	1390.531
-4.517	33.740	1626.553	1390.011
-3.502	33.658	1625.900	1388.800
-2.487	33.700	1624.240	1387.634
-1.473	33.860	1613.081	1379.205
-0.458	32.012	1594.442	1349.933
0.556	26.980	1596.263	1322.264
1.571	24.847	1621.575	1327.311
2.586	24.338	1634.765	1334.181
3.600	22.688	1583.711	1280.431
4.615	17.710	1478.831	1161.701
5.629	13.413	1417.345	1085.182
6.644	12.431	1409.416	1072.607
7.659	12.445	1407.864	1071.426
8.673	12.388	1406.979	1070.280
9.688	12.356	1404.438	1068.050
10.702	12.152	1402.437	1065.109
11.717	14.410	1406.022	1082.418
12.731	18.442	1413.209	1114.125
13.746	19.327	1413.073	1119.672
14.761	17.678	1409.503	1106.047
15.775	16.599	1406.122	1096.310
16.790	15.485	1403.139	1086.685
17.804	14.561	1400.925	1078.899
18.819	14.186	1399.133	1075.000
19.834	13.837	1397.925	1071.723
20.848	13.630	1396.730	1069.380
21.863	13.355	1395.231	1066.364
22.877	13.267	1394.041	1064.795
23.892	13.207	1393.267	1063.719
24.907	13.289	1391.977	1063.166
25.921	13.151	1391.407	1061.751
26.936	13.200	1390.369	1061.183
27.950	13.253	1389.758	1060.964
28.965	13.261	1388.280	1059.788
29.980	13.326	1386.963	1059.108
30.994	13.364	1386.094	1058.595
32.009	13.417	1384.801	1057.853
33.023	13.395	1383.845	1056.884
34.038	13.306	1382.460	1055.164
35.053	13.369	1380.714	1054.140
36.067	13.325	1379.808	1053.080
37.082	13.293	1379.024	1052.180
38.096	13.364	1377.952	1051.723
39.111	13.378	1376.846	1050.877
40.126	13.274	1376.340	1049.735
41.140	13.131	1375.683	1048.233
42.155	13.114	1374.990	1047.505
43.169	13.063	1374.990	1047.089
44.184	13.142	1374.549	1047.161
45.199	13.056	1374.230	1046.281
46.213	13.213	1373.297	1046.472
47.228	13.197	1372.579	1045.729
48.242	13.367	1370.854	1045.397
49.257	13.274	1369.370	1043.587
50.271	13.231	1367.919	1042.114
51.286	13.247	1366.415	1040.978
52.301	13.342	1365.477	1040.773
53.315	13.178	1364.740	1039.083
54.330	13.208	1363.366	1038.136
55.344	13.176	1361.918	1036.739
56.359	13.197	1361.178	1036.221
57.374	13.036	1360.265	1034.423
58.388	13.189	1359.004	1034.329
59.403	13.094	1359.232	1033.818
60.417	13.089	1358.082	1032.817
61.432	13.037	1357.210	1031.742
62.447	12.986	1356.465	1030.763
63.461	13.059	1354.896	1029.936
64.476	12.983	1354.319	1028.932
65.490	12.971	1352.694	1027.534
66.505	12.970	1350.994	1026.144
67.520	12.997	1349.811	1025.321
68.534	13.074	1348.549	1024.753
69.549	13.000	1348.277	1023.991
70.563	12.981	1347.165	1022.942
71.578	12.979	1345.865	1021.850
72.593	12.934	1344.805	1020.678
73.607	12.932	1344.142	1020.069
74.622	12.972	1343.137	1019.467
75.636	12.951	1342.771	1018.968
76.651	12.967	1341.610	1018.096
77.666	12.965	1341.200	1017.679
78.680	12.925	1340.981	1017.179
79.695	12.983	1340.184	1016.845
80.709	13.022	1339.285	1016.312
81.724	12.976	1338.418	1015.280
82.739	13.135	1337.295	1015.314
83.753	13.214	1336.423	1015.048
84.768	13.364	1335.548	1015.217
85.782	13.241	1334.470	1013.552
86.797	13.261	1333.276	1012.674
87.812	13.293	1331.754	1011.626
88.826	13.231	1330.764	1010.407
89.841	13.211	1329.775	1009.445
90.855	13.238	1328.699	1008.704
91.870	13.397	1327.534	1008.697
92.884	13.314	1327.160	1007.820
93.899	13.279	1326.193	1006.784
94.914	13.362	1325.297	1006.519
95.928	13.404	1324.103	1005.780
96.943	13.340	1323.188	1004.607
97.957	13.356	1322.274	1003.918
98.972	13.390	1321.338	1003.323
99.987	13.316	1320.164	1001.898
101.001	13.420	1318.833	1001.426
102.016	13.295	1318.286	1000.169
103.030	13.390	1317.360	999.951
104.045	13.434	1316.377	999.379
105.060	13.248	1314.990	997.116
106.074	13.280	1313.445	996.053
107.089	13.113	1312.245	994.050
108.103	13.117	1310.796	992.886
109.118	13.173	1309.651	992.271
110.133	13.125	1308.457	990.990
111.147	13.197	1306.813	990.089
112.162	13.187	1305.614	989.034
113.176	13.193	1304.897	988.435
114.191	13.200	1303.759	987.527
115.206	13.165	1302.379	986.187
116.220	13.231	1301.133	985.549
117.235	13.182	1300.432	984.641
118.249	13.182	1299.099	983.545
119.264	13.123	1298.110	982.359
120.279	13.121	1296.868	981.319
121.293	13.201	1295.875	980.957
122.308	13.154	1294.354	979.437
123.322	13.051	1293.834	978.349
124.337	13.075	1292.986	977.764
125.352	13.066	1291.520	976.516
126.366	13.116	1290.261	975.772
127.381	13.178	1289.181	975.233
128.395	13.134	1288.190	974.140
129.410	13.033	1287.222	972.727
130.424	13.210	1285.927	972.700
131.439	13.187	1285.171	971.907
132.454	13.112	1284.774	971.079
133.468	13.256	1283.558	970.924
134.483	13.159	1282.978	969.826
135.497	13.216	1281.909	969.270
136.512	13.255	1280.745	968.529
137.527	13.267	1279.283	967.413
138.541	13.226	1277.840	965.994
139.556	13.260	1276.132	964.815
140.570	13.243	1276.057	964.574
141.585	13.436	1274.106	964.140
142.600	13.408	1272.987	963.044
143.614	13.356	1272.341	962.167
144.629	13.338	1271.415	961.276
145.643	13.366	1269.712	960.065
146.658	13.363	1268.546	959.085
147.673	13.383	1267.376	958.227
148.687	13.225	1266.371	956.474
149.702	13.129	1265.165	954.921
150.716	13.237	1263.340	954.084
151.731	13.244	1262.345	953.283
152.746	13.234	1261.408	952.438
153.760	13.350	1260.058	951.998
154.775	13.364	1258.987	951.191
155.789	13.442	1257.606	950.507
156.804	13.421	1256.892	949.766
157.819	13.506	1255.826	949.362
158.833	13.512	1254.950	948.652
159.848	13.518	1253.968	947.859
160.862	13.475	1252.465	946.395
161.877	13.369	1251.725	945.144
162.892	13.317	1250.753	944.027
163.906	13.294	1249.580	942.927
164.921	13.403	1248.647	942.762
165.935	13.455	1247.719	942.273
166.950	13.565	1246.245	941.702
167.964	13.506	1246.295	941.326
168.979	13.384	1245.715	940.109
169.994	13.449	1244.614	939.566
171.008	13.506	1243.905	939.268
172.023	13.517	1243.123	938.659
173.037	13.544	1242.289	938.099
174.052	13.624	1241.086	937.559
175.067	13.446	1240.261	935.848
176.081	13.459	1239.229	935.058
177.096	13.412	1238.473	934.138
178.110	13.538	1237.220	933.821
179.125	13.543	1235.706	932.626
180.140	13.601	1234.812	932.195
181.154	13.514	1233.629	930.728
182.169	13.632	1232.328	930.329
183.183	13.631	1231.172	929.367
184.198	13.718	1229.899	928.809
185.213	13.690	1229.033	927.921
186.227	13.654	1227.862	926.751
187.242	13.789	1226.825	926.639
188.256	13.757	1226.038	925.784
189.271	13.929	1224.860	925.774
190.286	13.712	1224.065	923.881
191.300	13.549	1222.933	922.036
192.315	13.562	1222.516	921.717
193.329	13.594	1221.696	921.194
194.344	13.564	1221.050	920.455
195.359	13.621	1220.707	920.431
196.373	13.635	1220.019	919.909
197.388	13.744	1219.585	920.106
198.402	13.804	1219.371	920.198
199.417	13.992	1218.327	920.370
200.432	13.905	1217.374	919.087
201.446	14.027	1216.275	918.851
202.461	14.041	1215.748	918.449
203.475	14.087	1214.603	917.756
204.490	13.953	1213.346	915.988
205.504	13.886	1212.208	914.677
206.519	13.965	1210.690	913.887
207.534	13.911	1209.557	912.654
208.548	13.946	1208.602	912.040
209.563	13.968	1208.054	911.668
210.577	14.002	1206.777	910.811
211.592	14.015	1206.242	910.398
212.607	14.117	1205.663	910.437
213.621	14.111	1204.286	909.287
214.636	14.040	1203.499	908.222
215.650	14.090	1202.351	907.548
216.665	14.088	1201.485	906.805
217.680	14.191	1200.696	906.692
218.694	14.241	1199.951	906.322
219.709	14.209	1199.215	905.510
220.723	14.236	1198.340	904.915
221.738	14.178	1197.903	904.190
222.753	14.097	1197.501	903.365
223.767	14.172	1196.294	902.781
224.782	14.384	1195.484	903.243
225.796	14.254	1195.348	902.356
226.811	14.373	1193.963	901.875
227.826	14.371	1193.214	901.215
228.840	14.241	1192.913	900.206
229.855	14.226	1191.904	899.283
230.869	14.258	1191.224	898.862
231.884	14.353	1189.842	898.255
232.899	14.309	1189.409	897.613
233.913	14.276	1188.893	896.965
234.928	14.242	1188.077	896.086
235.942	14.230	1186.985	895.121
236.957	14.233	1186.479	894.673
237.972	14.154	1186.036	893.837
238.986	14.311	1184.821	893.687
240.001	14.301	1184.027	892.951
241.015	14.369	1182.704	892.239
242.030	14.362	1182.414	891.906
243.045	14.412	1181.956	891.746
244.059	14.364	1180.912	890.623
245.074	14.406	1180.226	890.250
246.088	14.514	1178.991	889.818
247.103	14.548	1178.280	889.384
248.117	14.658	1177.577	889.362
249.132	14.539	1177.233	888.391
250.147	14.554	1176.664	887.960
251.161	14.681	1176.269	888.262
252.176	14.700	1175.328	887.572
253.190	14.637	1174.672	886.665
254.205	14.769	1173.909	886.712
255.220	14.883	1173.407	886.858
256.234	14.822	1172.693	885.917
257.249	14.804	1172.043	885.248
258.263	14.748	1171.655	884.581
259.278	14.875	1170.637	884.406
260.293	14.900	1170.235	884.157
261.307	15.003	1169.302	883.919
262.322	14.892	1168.966	883.002
263.336	14.949	1167.974	882.474
264.351	14.985	1167.492	882.219
265.366	15.050	1166.689	881.878
266.380	14.974	1166.289	881.097
267.395	14.985	1165.359	880.374
268.409	14.942	1164.226	879.217
269.424	14.889	1163.550	878.351
270.439	14.855	1163.513	878.064
271.453	14.927	1162.412	877.532
272.468	14.971	1161.253	876.815
273.482	14.972	1160.529	876.191
274.497	14.994	1159.950	875.796
275.512	14.957	1159.791	875.404
276.526	14.928	1158.675	874.331
277.541	15.139	1157.567	874.520
278.555	15.117	1157.104	873.976
279.570	15.164	1156.243	873.495
280.585	15.159	1155.451	872.791
281.599	15.198	1154.842	872.460
282.614	15.120	1153.794	871.186
283.628	15.077	1152.524	869.924
284.643	15.140	1151.742	869.582
285.657	15.233	1150.855	869.323
286.672	15.236	1149.670	868.366
287.687	15.193	1148.966	867.533
288.701	15.183	1148.205	866.828
289.716	15.260	1147.602	866.697
290.730	15.168	1146.731	865.486
291.745	15.211	1146.240	865.260
292.760	15.301	1145.387	865.005
293.774	15.325	1145.094	864.831
294.789	15.268	1144.719	864.176
295.803	15.438	1143.574	864.111
296.818	15.315	1142.963	862.943
297.833	15.303	1142.125	862.169
298.847	15.353	1141.259	861.699
299.862	15.382	1140.671	861.326
300.876	15.415	1139.653	860.649
301.891	15.419	1139.045	860.133
302.906	15.448	1138.498	859.796
303.920	15.440	1137.843	859.180
304.935	15.502	1136.784	858.623
305.949	15.548	1136.395	858.491
306.964	15.580	1135.754	858.093
307.979	15.559	1134.944	857.296
308.993	15.579	1134.592	857.057
310.008	15.655	1133.474	856.522
311.022	15.786	1132.342	856.262
312.037	15.657	1131.659	855.010
313.052	15.587	1130.871	853.984
314.066	15.543	1129.706	852.807
315.081	15.490	1129.084	851.993
316.095	15.555	1128.460	851.775
317.110	15.510	1127.684	850.887
318.125	15.422	1126.954	849.817
319.139	15.604	1125.874	849.844
320.154	15.507	1125.622	849.088
321.168	15.601	1124.792	848.866
322.183	15.545	1124.378	848.193
323.197	15.638	1123.385	847.839
324.212	15.638	1122.913	847.407
325.227	15.590	1122.649	846.891
326.241	15.752	1121.559	846.809
327.256	15.726	1120.550	845.844
328.270	15.712	1119.875	845.188
329.285	15.562	1119.263	843.895
330.300	15.757	1117.922	843.789
331.314	15.703	1117.015	842.759
332.329	15.698	1116.294	842.115
333.343	15.741	1115.675	841.791
334.358	15.776	1114.540	841.036
335.373	15.695	1113.835	840.024
336.387	15.925	1113.143	840.573
337.402	15.914	1112.254	839.776
338.416	15.855	1111.936	839.165
339.431	15.874	1111.359	838.752
340.446	15.935	1110.692	838.477
341.460	15.891	1110.065	837.711
342.475	16.028	1109.131	837.614
343.489	16.042	1108.026	836.772
344.504	16.153	1107.291	836.695
345.519	16.128	1106.443	835.854
346.533	16.109	1105.374	834.880
347.548	16.160	1104.762	834.597
348.562	16.228	1103.730	834.080
349.577	16.122	1103.419	833.247
350.592	16.011	1102.634	832.033
351.606	16.079	1101.878	831.725
352.621	16.088	1101.001	831.032
353.635	16.115	1100.007	830.340
354.650	16.029	1099.889	829.757
355.665	16.099	1099.077	829.414
356.679	16.184	1098.176	829.080
357.694	16.231	1097.376	828.634
358.708	16.219	1096.966	828.188
359.723	16.150	1096.328	827.298
360.738	16.297	1095.265	827.144
361.752	16.320	1094.768	826.806
362.767	16.221	1094.557	826.087
363.781	16.142	1094.125	825.303
364.796	16.255	1093.301	825.160
365.810	16.375	1092.463	825.041
366.825	16.340	1092.047	824.482
367.840	16.481	1091.747	824.870
368.854	16.501	1091.074	824.390
369.869	16.532	1090.242	823.839
370.883	16.395	1089.429	822.485
371.898	16.261	1088.874	821.341
372.913	16.441	1088.158	821.602
373.927	16.507	1087.378	821.262
374.942	16.527	1087.013	821.011
375.956	16.527	1086.809	820.785
376.971	16.547	1085.785	820.034
377.986	16.528	1085.304	819.505
379.000	16.632	1084.750	819.521
380.015	16.694	1083.856	819.072
381.029	16.679	1083.188	818.423
382.044	16.715	1082.514	818.013
383.059	16.758	1081.788	817.598
384.073	16.572	1081.539	816.443
385.088	16.645	1080.431	815.883
386.102	16.686	1079.626	815.401
387.117	16.702	1078.562	814.606
388.132	16.631	1077.410	813.320
389.146	16.685	1076.944	813.157
390.161	16.647	1076.069	812.241
391.175	16.627	1075.146	811.379
392.190	16.778	1074.525	811.561
393.205	16.811	1073.966	811.222
394.219	16.884	1072.952	810.735
395.234	16.700	1072.347	809.326
396.248	16.770	1071.365	808.850
397.263	16.807	1070.231	808.099
398.278	16.746	1069.486	807.170
399.292	16.711	1068.721	806.355
400.307	16.731	1067.839	805.713
401.321	16.679	1067.487	805.132
402.336	16.807	1066.731	805.100
403.350	16.710	1066.401	804.316
404.365	16.742	1065.466	803.692
405.380	16.759	1064.369	802.877
406.394	16.888	1063.454	802.726
407.409	16.944	1063.035	802.599
408.423	16.973	1062.744	802.446
409.438	17.075	1061.692	802.064
410.453	17.163	1061.050	801.922
411.467	17.073	1060.621	801.103
412.482	16.976	1059.839	799.987
413.496	17.041	1058.896	799.509
414.511	17.188	1058.413	799.766
415.526	17.160	1057.913	799.187
416.540	17.280	1057.601	799.444
417.555	17.170	1057.072	798.457
418.569	17.339	1056.082	798.431
419.584	17.186	1055.889	797.496
420.599	17.293	1055.346	797.517
421.613	98.959	1317.259	1448.172
422.628	91.202	1355.399	1448.263
