DTS Sentinel unit serial number:	SN413079Multiplexer serial number:	ORYXHardware model number:	OX4-SRSoftware version number:	ORYX F/W v4.00 Oryx Data Collector v3.7.2.0data status	okinstallation	princeton_trtdifferential loss correction	single-endedforward channel	channel 2reverse channel	N/Adate	2019/09/16time	17:55:34forward acquisition time	60.00reverse acquisition time	0.00gamma	496.2192k internal	0.2315k external	0.2315temperature offset calibration	0.9946default loss term (dB/km)	0.3790temperature slope calibration	1.0000multiplexer offset coefficient	1.0000multiplexer slope coefficient	1.0000fibre end	0.00T internal ref (°C)	37.78T ext. ref 1 (°C)	15.63T ext. ref 2 (°C)	31.56length (m)	temperature (°C)	Stokes	anti-Stokes-747.200	-43.419	0.069	0.035
-746.185	800.000	0.097	0.293
-745.171	-200.000	0.020	0.229
-744.156	-51.239	0.204	0.097
-743.142	168.419	0.300	-0.434
-742.127	219.597	-0.109	0.177
-741.112	182.726	0.277	-0.414
-740.098	-200.000	-0.013	0.110
-739.083	-200.000	0.050	0.400
-738.069	2.941	0.069	0.050
-737.054	39.179	-0.049	-0.045
-736.039	401.663	-0.148	0.315
-735.025	211.783	-0.124	0.198
-734.010	5.092	0.251	-0.187
-732.996	257.749	-0.101	-0.176
-731.981	-32.686	-0.114	0.064
-730.966	-128.474	-0.449	-0.065
-729.952	800.000	-0.025	-0.107
-728.937	-155.172	0.298	-0.020
-727.923	136.092	-0.182	0.240
-726.908	-200.000	0.041	0.283
-725.894	267.659	0.055	-0.097
-724.879	357.483	-0.131	-0.264
-723.864	78.721	0.353	0.382
-722.850	800.000	-0.066	0.204
-721.835	84.477	0.233	-0.258
-720.821	-200.000	0.024	0.118
-719.806	197.932	0.037	0.057
-718.791	-95.572	0.114	0.031
-717.777	-200.000	0.058	-0.314
-716.762	-46.072	0.110	0.055
-715.748	161.092	-0.054	0.077
-714.733	32.322	-0.205	-0.179
-713.718	-54.568	0.206	-0.094
-712.704	-169.819	0.313	-0.011
-711.689	-147.735	0.099	-0.008
-710.675	-17.300	-0.376	-0.240
-709.660	-3.851	-0.193	-0.135
-708.645	800.000	0.100	-0.286
-707.631	496.876	0.130	-0.303
-706.616	-43.574	-0.115	0.059
-705.602	-28.916	-0.278	0.162
-704.587	-5.458	0.447	-0.310
-703.572	181.763	0.013	-0.019
-702.558	-23.765	0.203	-0.123
-701.543	-200.000	0.069	-0.324
-700.529	514.645	-0.051	-0.120
-699.514	69.107	0.048	0.050
-698.499	-200.000	0.016	0.099
-697.485	-66.380	0.291	-0.117
-696.470	-139.944	-0.458	0.049
-695.456	41.539	-0.082	0.075
-694.441	30.401	0.149	-0.129
-693.426	-200.000	-0.015	-0.204
-692.412	139.235	-0.200	-0.267
-691.397	-73.624	0.152	0.056
-690.383	-200.000	-0.007	0.104
-689.368	-60.366	-0.150	0.065
-688.354	-75.273	0.151	0.055
-687.339	-79.186	0.275	0.094
-686.324	333.959	-0.158	-0.309
-685.310	-125.524	-0.196	0.030
-684.295	129.784	-0.167	0.216
-683.281	-200.000	0.028	-0.235
-682.266	-200.000	0.021	-0.239
-681.251	-200.000	-0.017	-0.315
-680.237	-77.891	-0.123	0.043
-679.222	-31.470	-0.123	0.070
-678.208	-118.499	-0.318	-0.057
-677.193	-128.357	-0.155	0.022
-676.178	388.926	0.133	0.279
-675.164	-123.597	-0.057	-0.009
-674.149	800.000	0.123	-0.346
-673.135	-7.642	-0.116	-0.079
-672.120	166.563	-0.119	0.171
-671.105	-64.979	0.262	0.107
-670.091	800.000	0.080	-0.232
-669.076	-200.000	-0.068	-0.310
-668.062	62.073	-0.113	-0.114
-667.047	1.484	-0.285	0.207
-666.032	380.430	0.188	-0.390
-665.018	-58.234	-0.172	0.076
-664.003	-87.402	-0.379	-0.116
-662.989	-192.653	-0.164	0.002
-661.974	10.421	-0.104	-0.080
-660.959	142.864	0.115	0.154
-659.945	-87.025	0.237	0.073
-658.930	15.578	0.141	-0.112
-657.916	295.568	0.031	0.057
-656.901	-69.061	0.126	0.049
-655.886	65.426	-0.123	0.126
-654.872	263.522	0.069	0.121
-653.857	-200.000	-0.034	0.170
-652.843	-91.954	-0.182	-0.052
-651.828	79.800	0.096	0.105
-650.814	-103.852	0.240	0.057
-649.799	800.000	0.063	0.233
-648.784	-200.000	0.016	0.144
-647.770	83.152	-0.200	0.219
-646.755	238.711	0.086	0.144
-645.741	41.957	0.188	-0.172
-644.726	-107.384	0.168	-0.037
-643.711	-197.345	-0.415	-0.003
-642.697	-200.000	0.024	0.234
-641.682	-172.385	0.317	-0.010
-640.668	-98.117	0.288	-0.075
-639.653	800.000	0.015	0.058
-638.638	-122.791	-0.130	0.021
-637.624	333.930	-0.112	0.219
-636.609	-32.864	0.159	-0.089
-635.595	-40.179	0.155	-0.082
-634.580	-200.000	0.019	0.216
-633.565	251.318	-0.091	0.156
-632.551	-200.000	0.296	-0.001
-631.536	-8.106	0.209	-0.142
-630.522	-97.601	-0.134	0.035
-629.507	149.441	0.131	-0.180
-628.492	800.000	0.085	-0.375
-627.478	-33.982	-0.114	-0.063
-626.463	800.000	0.070	-0.263
-625.449	-12.214	-0.188	0.124
-624.434	-35.017	-0.127	-0.070
-623.419	469.064	-0.085	0.193
-622.405	302.115	0.158	0.295
-621.390	-28.629	0.351	0.204
-620.376	-200.000	0.026	-0.395
-619.361	-143.337	-0.043	0.004
-618.346	800.000	-0.065	-0.249
-617.332	30.058	-0.273	-0.235
-616.317	-200.000	0.025	-0.294
-615.303	204.176	0.056	0.087
-614.288	-200.000	0.005	-0.122
-613.273	800.000	0.069	-0.241
-612.259	-94.081	0.187	0.052
-611.244	-67.963	-0.451	0.177
-610.230	124.605	0.045	-0.057
-609.215	130.968	0.163	0.211
-608.201	153.288	-0.126	0.174
-607.186	-142.159	-0.139	-0.014
-606.171	-200.000	0.001	0.199
-605.157	257.369	-0.092	-0.160
-604.142	255.033	0.064	-0.110
-603.128	-159.850	0.074	-0.004
-602.113	-145.063	-0.035	-0.003
-601.098	-111.118	-0.131	-0.027
-600.084	278.502	-0.178	0.320
-599.069	314.935	-0.159	-0.302
-598.055	-95.626	-0.299	0.081
-597.040	26.454	0.031	0.026
-596.025	191.080	0.138	-0.210
-595.011	-85.998	-0.259	-0.081
-593.996	52.318	-0.087	-0.084
-592.982	-11.062	-0.082	0.054
-591.967	478.002	-0.050	0.113
-590.952	-46.118	0.128	-0.063
-589.938	152.052	0.085	-0.117
-588.923	-182.203	-0.195	-0.004
-587.909	149.128	0.212	0.289
-586.894	-200.000	0.039	-0.188
-585.879	-200.000	-0.015	0.216
-584.865	-200.000	0.004	-0.029
-583.850	-131.595	0.165	-0.022
-582.836	-78.559	0.278	-0.096
-581.821	-158.449	-0.098	-0.006
-580.806	800.000	-0.004	-0.017
-579.792	399.267	-0.067	-0.141
-578.777	-200.000	-0.012	0.064
-577.763	-200.000	0.077	-0.411
-576.748	-24.158	-0.135	-0.081
-575.733	31.726	0.345	-0.299
-574.719	-66.027	0.042	-0.017
-573.704	-27.973	0.290	0.169
-572.690	-67.790	0.062	0.024
-571.675	-73.481	-0.183	-0.067
-570.661	41.045	0.100	-0.091
-569.646	496.416	-0.184	0.426
-568.631	-200.000	0.013	0.089
-567.617	-154.925	-0.063	0.004
-566.602	-71.006	0.108	-0.041
-565.588	-41.413	0.013	0.007
-564.573	188.608	0.082	-0.123
-563.558	-135.268	0.211	-0.025
-562.544	800.000	0.061	0.177
-561.529	506.333	-0.049	0.113
-560.515	-18.567	0.173	-0.109
-559.500	-41.761	0.227	0.117
-558.485	179.594	-0.043	0.063
-557.471	-61.075	-0.132	0.056
-556.456	-48.857	0.303	0.146
-555.442	-86.068	-0.085	0.026
-554.427	800.000	-0.059	0.166
-553.412	-200.000	-0.022	-0.096
-552.398	-82.812	-0.291	-0.095
-551.383	-97.524	0.116	-0.030
-550.369	-106.681	-0.137	0.031
-549.354	30.794	-0.348	-0.300
-548.339	-200.000	-0.071	-0.463
-547.325	-200.000	-0.028	-0.284
-546.310	-169.748	0.097	-0.004
-545.296	-144.396	0.246	-0.023
-544.281	-142.849	-0.133	-0.013
-543.266	-128.300	0.440	-0.063
-542.252	-140.616	-0.249	0.026
-541.237	333.382	-0.169	-0.328
-540.223	126.892	0.157	0.200
-539.208	346.630	0.042	-0.083
-538.193	133.801	-0.126	0.163
-537.179	165.509	-0.096	0.137
-536.164	-200.000	0.035	-0.254
-535.150	371.267	-0.121	0.246
-534.135	733.777	0.085	-0.228
-533.121	800.000	0.060	-0.218
-532.106	383.190	-0.111	-0.230
-531.091	30.922	-0.222	-0.191
-530.077	545.654	-0.097	-0.232
-529.062	51.145	-0.286	-0.273
-528.048	-43.193	0.294	-0.150
-527.033	-74.851	-0.159	-0.057
-526.018	-200.000	-0.029	-0.224
-525.004	-104.389	-0.263	-0.061
-523.989	-120.361	-0.199	-0.034
-522.975	321.213	0.106	-0.203
-521.960	110.302	0.124	-0.150
-520.945	-34.978	-0.057	-0.031
-519.931	800.000	-0.051	-0.160
-518.916	-137.232	0.277	-0.032
-517.902	160.981	-0.031	0.043
-516.887	27.668	-0.228	-0.193
-515.872	-47.841	-0.168	0.082
-514.858	21.684	-0.082	0.067
-513.843	-28.646	0.092	-0.053
-512.829	-65.528	0.043	-0.017
-511.814	800.000	0.044	-0.171
-510.799	-31.614	-0.079	-0.044
-509.785	0.455	0.013	0.009
-508.770	329.053	0.102	-0.198
-507.756	-51.659	-0.150	-0.070
-506.741	311.140	0.104	-0.197
-505.726	-90.652	-0.138	-0.040
-504.712	-200.000	-0.015	0.085
-503.697	176.742	0.082	0.119
-502.683	708.050	0.056	0.148
-501.668	-200.000	-0.008	0.218
-500.653	-23.648	-0.099	-0.059
-499.639	-190.714	0.274	-0.003
-498.624	-200.000	-0.019	0.105
-497.610	-200.000	0.124	-0.000
-496.595	800.000	-0.080	0.263
-495.581	-7.227	-0.141	-0.096
-494.566	800.000	0.034	-0.125
-493.551	-200.000	0.008	0.152
-492.537	-126.090	0.226	-0.034
-491.522	-200.000	-0.029	-0.216
-490.508	172.951	0.180	0.260
-489.493	-91.849	-0.075	-0.021
-488.478	-200.000	-0.072	-0.594
-487.464	-200.000	0.019	0.102
-486.449	-114.842	-0.185	0.035
-485.435	-172.957	-0.292	0.009
-484.420	-113.284	0.465	0.092
-483.405	800.000	-0.045	0.168
-482.391	-200.000	0.075	-0.365
-481.376	-33.119	-0.254	0.141
-480.362	-98.098	-0.386	-0.100
-479.347	336.124	-0.046	0.090
-478.332	203.037	0.095	-0.147
-477.318	-24.325	-0.348	-0.208
-476.303	-109.544	-0.187	0.040
-475.289	-41.039	-0.059	0.031
-474.274	-200.000	-0.034	-0.464
-473.259	800.000	-0.015	-0.060
-472.245	-137.635	0.084	-0.009
-471.230	-26.532	0.224	-0.132
-470.216	16.574	-0.194	0.154
-469.201	-200.000	0.026	-0.351
-468.186	800.000	-0.080	-0.243
-467.172	-139.532	0.274	-0.029
-466.157	29.668	-0.141	-0.121
-465.143	-86.006	-0.256	0.079
-464.128	487.743	-0.235	-0.537
-463.113	234.747	-0.042	-0.069
-462.099	133.181	-0.015	0.019
-461.084	15.691	0.111	-0.087
-460.070	123.962	0.095	-0.120
-459.055	-38.879	0.072	-0.038
-458.040	-65.003	-0.211	-0.085
-457.026	-200.000	-0.018	0.267
-456.011	800.000	0.070	0.218
-454.997	763.097	-0.065	0.177
-453.982	-20.220	-0.268	0.165
-452.968	530.090	0.084	0.200
-451.953	-44.757	-0.064	0.032
-450.938	-33.877	0.123	0.068
-449.924	48.324	-0.268	0.251
-448.909	-200.000	0.031	0.224
-447.895	-200.000	0.022	0.178
-446.880	64.830	0.201	0.203
-445.865	394.219	0.125	0.262
-444.851	-168.768	0.158	0.006
-443.836	-200.000	-0.030	0.328
-442.822	-200.000	-0.003	0.111
-441.807	185.191	0.131	-0.195
-440.792	-38.576	0.197	-0.104
-439.778	-200.000	0.009	-0.200
-438.763	800.000	0.045	0.169
-437.749	800.000	0.098	0.334
-436.734	-200.000	-0.009	-0.165
-435.719	71.658	-0.043	0.045
-434.705	121.340	0.102	0.127
-433.690	33.181	0.133	0.116
-432.676	474.482	-0.148	0.335
-431.661	141.282	0.057	0.076
-430.646	-200.000	-0.001	0.003
-429.632	800.000	0.017	-0.066
-428.617	-200.000	0.040	-0.199
-427.603	63.252	-0.202	0.202
-426.588	800.000	0.063	0.179
-425.573	-167.143	0.297	0.012
-424.559	9.415	0.156	0.118
-423.544	-70.358	0.230	-0.087
-422.530	394.485	-0.133	-0.278
-421.515	23.695	0.098	0.081
-420.500	-45.624	-0.288	0.143
-419.486	-200.000	-0.047	0.250
-418.471	104.717	-0.284	-0.334
-417.457	-46.791	-0.043	0.021
-416.442	-19.777	0.083	0.051
-415.428	22.690	0.238	-0.195
-414.413	-165.470	0.169	-0.007
-413.398	13.414	-0.107	-0.083
-412.384	-49.862	0.159	0.076
-411.369	-191.897	-0.445	0.004
-410.355	15.185	-0.061	-0.048
-409.340	637.465	0.098	-0.250
-408.325	-55.521	0.067	0.030
-407.311	426.185	0.090	0.194
-406.296	-13.510	-0.084	-0.055
-405.282	181.941	-0.099	0.146
-404.267	-200.000	-0.074	0.340
-403.252	301.989	0.068	-0.126
-402.238	-54.120	0.122	0.056
-401.223	-161.088	0.069	0.004
-400.209	2.750	0.331	-0.240
-399.194	-126.929	-0.253	-0.037
-398.179	-200.000	-0.001	-0.057
-397.165	-131.039	0.297	-0.040
-396.150	-32.783	-0.025	-0.014
-395.136	-162.870	0.069	-0.003
-394.121	-34.663	0.475	-0.260
-393.106	-200.000	0.022	-0.378
-392.092	800.000	-0.102	0.444
-391.077	-50.421	-0.202	-0.095
-390.063	28.157	0.126	-0.106
-389.048	-185.840	0.087	-0.001
-388.033	193.545	-0.160	0.241
-387.019	-200.000	-0.048	-0.273
-386.004	800.000	0.039	0.155
-384.990	550.310	-0.048	0.115
-383.975	-200.000	0.040	-0.394
-382.960	-200.000	0.012	0.146
-381.946	-200.000	-0.037	-0.198
-380.931	127.625	-0.156	-0.199
-379.917	619.729	0.166	0.418
-378.902	-121.405	0.056	0.009
-377.888	-80.709	0.197	0.065
-376.873	-200.000	-0.044	0.225
-375.858	-102.254	0.197	0.047
-374.844	90.580	-0.125	0.139
-373.829	101.576	-0.435	0.507
-372.815	101.875	-0.044	-0.051
-371.800	269.346	-0.144	-0.253
-370.785	357.618	0.158	0.314
-369.771	279.539	0.062	-0.110
-368.756	-200.000	0.060	0.360
-367.742	-165.918	0.245	-0.010
-366.727	-200.000	-0.013	-0.156
-365.712	458.668	0.140	-0.311
-364.698	-37.292	0.099	0.053
-363.683	-200.000	-0.004	0.094
-362.669	-200.000	0.001	0.097
-361.654	800.000	0.075	-0.294
-360.639	-200.000	0.014	-0.321
-359.625	-200.000	-0.054	-0.247
-358.610	-200.000	-0.065	-0.357
-357.596	75.515	-0.206	-0.217
-356.581	-150.518	-0.296	-0.023
-355.566	-166.095	-0.237	-0.010
-354.552	-71.023	0.135	0.051
-353.537	481.185	-0.034	-0.076
-352.523	0.057	-0.119	0.085
-351.508	-175.480	0.198	0.005
-350.493	-14.957	0.072	-0.046
-349.479	-200.000	0.011	-0.057
-348.464	-200.000	-0.018	0.097
-347.450	-200.000	0.034	-0.176
-346.435	78.303	-0.109	-0.116
-345.420	-73.601	-0.330	0.120
-344.406	53.595	-0.081	0.078
-343.391	-140.604	-0.316	-0.033
-342.377	-28.065	-0.206	-0.119
-341.362	-200.000	-0.110	-0.537
-340.348	-200.000	0.023	0.144
-339.333	-63.527	0.111	-0.046
-338.318	-119.337	0.046	-0.008
-337.304	745.849	0.091	-0.245
-336.289	-95.699	-0.229	0.061
-335.275	373.438	0.088	0.178
-334.260	-148.563	0.162	-0.013
-333.245	111.542	0.089	-0.107
-332.231	4.958	0.039	0.029
-331.216	-37.443	-0.217	0.115
-330.202	-87.393	-0.163	-0.049
-329.187	-43.232	-0.134	-0.067
-328.172	-111.177	0.180	0.037
-327.158	-183.983	0.113	-0.002
-326.143	58.772	0.122	-0.120
-325.129	-84.039	-0.264	0.084
-324.114	-200.000	0.014	-0.203
-323.099	-63.089	-0.268	0.110
-322.085	155.273	-0.117	-0.160
-321.070	70.937	0.239	-0.246
-320.056	-200.000	0.052	0.442
-319.041	84.552	0.124	0.135
-318.026	242.674	0.186	0.310
-317.012	-200.000	-0.012	0.165
-315.997	-8.297	-0.094	0.063
-314.983	34.096	0.119	-0.103
-313.968	-200.000	-0.040	0.315
-312.953	-111.771	0.223	0.045
-311.939	163.691	0.128	0.179
-310.924	-186.562	0.270	-0.004
-309.910	800.000	-0.065	-0.261
-308.895	-17.692	-0.248	-0.155
-307.880	-200.000	-0.001	-0.105
-306.866	30.636	-0.234	0.199
-305.851	99.474	0.088	0.102
-304.837	800.000	0.131	-0.438
-303.822	-40.096	-0.282	0.147
-302.807	-167.500	0.223	-0.009
-301.793	-37.876	-0.057	-0.030
-300.778	800.000	0.082	0.314
-299.764	-28.623	0.120	0.069
-298.749	-63.450	0.074	-0.030
-297.735	-200.000	-0.047	0.225
-296.720	-8.543	-0.309	0.207
-295.705	267.327	-0.097	0.169
-294.691	-200.000	-0.018	0.124
-293.676	101.813	-0.050	-0.058
-292.662	11.184	-0.385	-0.293
-291.647	195.338	0.054	0.082
-290.632	-34.177	0.138	0.075
-289.618	-114.768	-0.332	0.063
-288.603	59.745	-0.197	-0.194
-287.589	-158.710	-0.220	-0.013
-286.574	483.323	0.208	-0.470
-285.559	136.607	0.116	-0.151
-284.545	-194.739	-0.320	-0.002
-283.530	800.000	-0.045	0.167
-282.516	-200.000	-0.020	-0.175
-281.501	800.000	0.053	0.184
-280.486	89.530	-0.241	-0.267
-279.472	415.707	0.138	-0.294
-278.457	165.530	-0.036	-0.051
-277.443	-200.000	0.081	0.465
-276.428	112.587	0.144	0.173
-275.413	-163.214	-0.098	-0.005
-274.399	-68.571	-0.207	0.080
-273.384	-144.706	0.080	0.007
-272.370	-107.155	-0.470	-0.103
-271.355	800.000	0.055	-0.233
-270.340	-120.125	0.114	-0.019
-269.326	7.831	-0.195	0.145
-268.311	-88.063	0.471	0.141
-267.297	-92.009	0.180	0.051
-266.282	73.978	-0.348	0.363
-265.267	-26.676	0.295	0.171
-264.253	-200.000	-0.003	-0.233
-263.238	-80.343	-0.225	-0.075
-262.224	-83.324	0.211	0.067
-261.209	-56.493	-0.360	0.159
-260.195	516.489	0.102	0.238
-259.180	-45.184	0.115	-0.057
-258.165	-42.712	-0.211	-0.107
-257.151	110.481	0.081	0.097
-256.136	-111.505	0.127	-0.026
-255.122	800.000	-0.078	-0.234
-254.107	562.635	0.120	-0.289
-253.092	234.863	-0.083	0.136
-252.078	-120.725	-0.108	-0.018
-251.063	346.120	-0.082	0.160
-250.049	800.000	-0.116	0.388
-249.034	310.409	0.046	0.086
-248.019	266.890	0.133	0.232
-247.005	-151.270	0.270	0.020
-245.990	-6.867	0.050	-0.034
-244.976	-90.180	-0.230	0.067
-243.961	-28.598	-0.297	0.170
-242.946	-43.274	0.387	0.194
-241.932	75.342	0.117	0.122
-240.917	-82.720	-0.174	-0.056
-239.903	92.606	0.196	0.220
-238.888	-200.000	-0.005	0.142
-237.873	-63.131	-0.137	-0.056
-236.859	93.065	0.281	0.315
-235.844	704.400	-0.073	0.190
-234.830	655.683	0.080	-0.203
-233.815	-88.777	0.310	-0.091
-232.800	-33.411	-0.165	-0.091
-231.786	-200.000	0.018	0.200
-230.771	800.000	-0.043	0.154
-229.757	-66.397	0.128	-0.051
-228.742	-33.857	-0.020	0.011
-227.727	-105.048	0.310	0.070
-226.713	-124.610	0.244	0.038
-225.698	52.991	-0.102	-0.097
-224.684	-38.497	-0.292	0.153
-223.669	550.509	0.187	0.444
-222.655	79.246	0.214	0.228
-221.640	498.317	-0.083	0.190
-220.625	800.000	-0.056	0.180
-219.611	-200.000	-0.004	0.028
-218.596	-147.980	-0.230	0.019
-217.582	-200.000	-0.011	0.380
-216.567	79.491	0.226	-0.241
-215.552	183.941	-0.087	-0.127
-214.538	-163.974	0.349	-0.016
-213.523	6.607	0.320	-0.236
-212.509	-75.436	0.258	-0.091
-211.494	152.682	0.280	-0.379
-210.479	120.999	-0.156	-0.193
-209.465	247.504	0.171	0.286
-208.450	11.295	0.019	0.014
-207.436	-68.649	-0.231	-0.089
-206.421	-200.000	-0.000	-0.116
-205.406	-47.225	-0.114	-0.055
-204.392	-200.000	0.006	0.239
-203.377	17.221	0.351	0.276
-202.363	-200.000	-0.016	0.344
-201.348	-200.000	-0.035	-0.222
-200.333	-51.946	-0.133	-0.061
-199.319	445.152	0.155	0.338
-198.304	800.000	-0.108	0.326
-197.290	20.436	0.086	0.069
-196.275	800.000	0.087	0.355
-195.260	-65.991	0.110	-0.044
-194.246	317.256	-0.108	0.203
-193.231	-200.000	-0.038	-0.342
-192.217	-200.000	-0.263	0.001
-191.202	-200.000	-0.052	0.437
-190.187	753.897	0.020	0.053
-189.173	642.936	0.129	0.325
-188.158	479.255	-0.224	-0.504
-187.144	536.752	-0.060	-0.142
-186.129	115.584	-0.045	-0.055
-185.114	-200.000	-0.020	0.121
-184.100	409.269	0.104	-0.218
-183.085	738.005	0.086	0.228
-182.071	523.015	0.115	0.268
-181.056	72.248	-0.137	0.142
-180.042	-124.102	0.190	-0.030
-179.027	55.642	0.177	-0.170
-178.012	-76.811	-0.241	0.084
-176.998	-32.350	0.377	-0.208
-175.983	800.000	0.082	-0.253
-174.969	1.056	0.065	0.046
-173.954	-200.000	-0.019	-0.169
-172.939	-200.000	0.056	-0.408
-171.925	90.989	0.080	-0.089
-170.910	25.863	0.106	0.088
-169.896	254.830	0.033	-0.056
-168.881	-200.000	-0.001	0.053
-167.866	191.158	0.134	-0.200
-166.852	39.584	0.022	-0.019
-165.837	74.814	0.141	0.147
-164.823	-89.664	-0.070	0.020
-163.808	190.852	-0.061	0.091
-162.793	-200.000	-0.026	0.130
-161.779	4.894	0.192	-0.140
-160.764	-174.560	-0.098	-0.003
-159.750	14.955	0.123	-0.096
-158.735	108.741	-0.152	-0.180
-157.720	-45.797	-0.197	-0.096
-156.706	-82.394	-0.387	0.125
-155.691	144.915	0.186	0.246
-154.677	39.169	-0.437	0.387
-153.662	-171.440	0.208	0.007
-152.647	-107.542	0.194	0.042
-151.633	-131.029	-0.340	-0.045
-150.618	-139.415	0.137	-0.015
-149.604	226.974	-0.193	-0.310
-148.589	64.881	0.126	-0.126
-147.574	87.884	-0.114	-0.125
-146.560	800.000	-0.113	0.357
-145.545	-200.000	-0.009	0.170
-144.531	-200.000	-0.030	0.339
-143.516	5.230	0.139	0.101
-142.502	-200.000	0.000	0.134
-141.487	-167.546	-0.121	0.005
-140.472	-200.000	0.001	-0.344
-139.458	-7.401	-0.121	-0.081
-138.443	159.923	-0.066	-0.091
-137.429	-142.695	-0.069	0.007
-136.414	243.390	-0.069	-0.115
-135.399	23.540	-0.085	-0.070
-134.385	-93.309	-0.219	0.060
-133.370	-132.844	0.408	0.052
-132.356	56.368	-0.160	-0.154
-131.341	800.000	-0.172	0.501
-130.326	-52.928	0.059	-0.027
-129.312	71.950	-0.104	0.108
-128.297	-82.617	-0.339	0.109
-127.283	-111.656	-0.123	-0.025
-126.268	-87.325	0.224	-0.067
-125.253	-40.444	0.165	-0.085
-124.239	-100.731	0.091	0.022
-123.224	-82.459	0.365	-0.117
-122.210	48.388	0.332	-0.308
-121.195	800.000	-0.041	0.156
-120.180	-200.000	0.006	0.212
-119.166	-66.535	-0.086	-0.034
-118.151	30.994	-0.138	0.117
-117.137	-26.409	-0.103	-0.060
-116.122	-24.730	0.126	-0.074
-115.107	-44.865	-0.201	-0.099
-114.093	74.783	0.082	-0.086
-113.078	598.017	-0.061	0.151
-112.064	5.560	0.323	0.236
-111.049	800.000	-0.036	-0.135
-110.034	183.605	-0.041	-0.060
-109.020	-200.000	0.046	-0.206
-108.005	142.064	0.164	0.216
-106.991	0.436	0.242	0.171
-105.976	104.359	0.158	-0.184
-104.962	444.612	-0.104	-0.227
-103.947	104.066	0.176	0.205
-102.932	-1.356	0.117	-0.081
-101.918	-103.443	-0.188	0.044
-100.903	-77.620	0.318	-0.109
-99.889	-200.000	-0.016	0.070
-98.874	204.667	0.168	0.257
-97.859	109.404	0.301	0.357
-96.845	-200.000	0.020	-0.219
-95.830	581.632	-0.045	-0.110
-94.816	-200.000	0.010	0.131
-93.801	800.000	-0.076	0.225
-92.786	342.559	0.122	0.236
-91.772	-45.124	-0.342	-0.168
-90.757	55.768	0.158	0.151
-89.743	6.117	-0.049	-0.036
-88.728	-90.967	0.101	0.029
-87.713	800.000	0.007	-0.025
-86.699	-90.064	0.312	0.090
-85.684	-102.167	0.385	0.091
-84.670	136.501	0.170	0.219
-83.655	576.579	0.048	0.116
-82.640	-99.005	-0.126	0.031
-81.626	-113.112	-0.102	0.020
-80.611	20.246	0.175	0.140
-79.597	20.444	0.184	-0.147
-78.582	611.287	0.032	0.079
-77.567	-9.702	0.162	-0.107
-76.553	800.000	0.060	0.212
-75.538	182.234	0.125	-0.182
-74.524	228.180	-0.044	-0.071
-73.509	-200.000	0.021	-0.204
-72.494	48.847	0.216	0.200
-71.480	-131.059	0.084	-0.011
-70.465	109.412	-0.087	-0.103
-69.451	-88.744	-0.296	-0.087
-68.436	-200.000	-0.059	0.387
-67.422	664.026	0.041	-0.105
-66.407	-200.000	0.022	-0.345
-65.392	-70.094	-0.348	0.131
-64.378	-168.143	0.458	0.018
-63.363	800.000	-0.036	-0.150
-62.349	-200.000	0.009	0.309
-61.334	-20.832	-0.972	-0.588
-60.319	-30.337	0.433	0.242
-59.305	777.973	-0.208	-0.560
-58.290	100.854	0.944	1.083
-57.276	492.687	0.743	1.681
-56.261	-200.000	88.345	517.433
-55.246	495.692	1375.435	3118.357
-54.232	150.598	2585.382	3465.151
-53.217	108.940	2322.017	2739.037
-52.203	47.060	1936.900	1777.575
-51.188	40.994	1728.676	1539.650
-50.173	38.109	1684.911	1478.797
-49.159	53.255	1728.528	1633.499
-48.144	57.199	1746.816	1680.951
-47.130	40.818	1705.656	1517.554
-46.115	37.830	1690.897	1481.694
-45.100	37.661	1685.860	1475.940
-44.086	37.710	1682.811	1473.585
-43.071	37.616	1680.542	1470.826
-42.057	37.584	1678.296	1468.564
-41.042	37.676	1676.616	1467.727
-40.027	37.740	1673.838	1465.721
-39.013	37.634	1672.585	1463.765
-37.998	37.608	1671.326	1462.414
-36.984	37.700	1669.254	1461.228
-35.969	37.860	1667.611	1460.934
-34.954	37.841	1666.242	1459.532
-33.940	37.814	1664.159	1457.449
-32.925	37.819	1662.287	1455.792
-31.911	37.899	1660.464	1454.735
-30.896	37.653	1659.753	1452.215
-29.881	37.796	1657.214	1451.000
-28.867	37.744	1655.868	1449.378
-27.852	37.762	1654.132	1447.937
-26.838	37.783	1652.941	1446.991
-25.823	37.787	1651.759	1445.931
-24.809	37.875	1650.022	1445.005
-23.794	37.805	1648.804	1443.362
-22.779	37.714	1647.505	1441.491
-21.765	37.780	1645.723	1440.369
-20.750	37.726	1644.140	1438.522
-19.736	37.834	1642.527	1437.850
-18.721	37.743	1641.335	1436.078
-17.706	37.815	1639.677	1435.101
-16.692	37.760	1638.561	1433.667
-15.677	37.812	1637.052	1432.671
-14.663	37.853	1635.630	1431.670
-13.648	37.833	1634.161	1430.178
-12.633	37.822	1632.806	1428.861
-11.619	37.739	1631.529	1427.077
-10.604	37.840	1629.433	1425.928
-9.590	37.959	1627.721	1425.241
-8.575	37.825	1626.880	1423.466
-7.560	37.857	1625.679	1422.593
-6.546	37.777	1624.605	1421.014
-5.531	37.748	1623.816	1420.058
-4.517	37.774	1622.254	1418.825
-3.502	37.774	1620.976	1417.647
-2.487	37.903	1619.623	1417.350
-1.473	37.433	1607.886	1403.629
-0.458	34.151	1587.063	1361.956
0.556	27.700	1585.093	1323.046
1.571	24.944	1608.233	1321.926
2.586	24.056	1621.767	1326.321
3.600	23.018	1574.317	1279.892
4.615	19.919	1474.336	1177.455
5.629	16.459	1414.620	1107.040
6.644	15.654	1405.960	1094.926
7.659	15.699	1404.646	1094.096
8.673	15.578	1404.076	1092.771
9.688	15.579	1401.923	1091.001
10.702	15.419	1399.262	1087.802
11.717	16.916	1401.615	1099.243
12.731	19.589	1405.605	1119.626
13.746	19.454	1404.659	1117.902
14.761	17.585	1399.034	1101.256
15.775	16.319	1395.907	1090.527
16.790	15.113	1393.772	1080.981
17.804	14.280	1391.272	1073.574
18.819	13.853	1389.231	1069.155
19.834	13.465	1387.926	1065.558
20.848	13.201	1386.445	1062.633
21.863	13.039	1384.936	1060.343
22.877	12.848	1383.972	1058.286
23.892	12.841	1382.878	1057.310
24.907	12.750	1382.060	1056.005
25.921	12.798	1381.083	1055.476
26.936	12.812	1380.598	1055.096
27.950	12.964	1379.360	1055.029
28.965	13.008	1377.977	1054.160
29.980	12.981	1376.781	1052.983
30.994	13.016	1376.203	1052.669
32.009	13.046	1374.322	1051.325
33.023	12.960	1373.600	1050.135
34.038	13.032	1372.018	1049.291
35.053	12.955	1370.477	1047.532
36.067	12.921	1369.533	1046.501
37.082	12.966	1368.300	1045.749
38.096	13.043	1367.262	1045.350
39.111	13.005	1366.552	1044.477
40.126	12.890	1365.711	1043.013
41.140	12.817	1364.573	1041.590
42.155	12.727	1364.791	1041.100
43.169	12.633	1364.428	1040.135
44.184	12.850	1363.748	1040.895
45.199	12.729	1363.543	1039.880
46.213	12.801	1363.043	1039.863
47.228	12.860	1361.796	1039.190
48.242	12.949	1360.430	1038.616
49.257	12.876	1358.965	1036.947
50.271	12.865	1357.840	1035.927
51.286	12.864	1356.593	1034.878
52.301	12.799	1355.356	1033.439
53.315	12.816	1354.345	1032.677
54.330	12.870	1352.992	1031.893
55.344	12.775	1351.789	1030.293
56.359	12.837	1350.425	1029.550
57.374	12.767	1349.713	1028.476
58.388	12.800	1348.610	1027.751
59.403	12.716	1348.237	1026.854
60.417	12.761	1347.577	1026.539
61.432	12.729	1346.865	1025.708
62.447	12.709	1345.567	1024.506
63.461	12.580	1344.545	1022.836
64.476	12.570	1343.420	1021.828
65.490	12.617	1342.429	1021.273
66.505	12.680	1340.774	1020.317
67.520	12.758	1339.439	1019.693
68.534	12.684	1338.480	1018.412
69.549	12.644	1337.059	1016.993
70.563	12.723	1335.991	1016.581
71.578	12.693	1334.954	1015.515
72.593	12.632	1334.212	1014.487
73.607	12.605	1332.995	1013.303
74.622	12.569	1332.532	1012.643
75.636	12.641	1331.809	1012.441
76.651	12.570	1331.257	1011.498
77.666	12.518	1330.831	1010.764
78.680	12.588	1329.867	1010.374
79.695	12.572	1329.464	1009.883
80.709	12.729	1328.279	1009.856
81.724	12.734	1327.359	1009.097
82.739	12.740	1326.497	1008.387
83.753	12.853	1325.631	1008.328
84.768	12.853	1324.687	1007.526
85.782	12.882	1323.449	1006.670
86.797	12.860	1322.601	1005.800
87.812	12.857	1321.085	1004.541
88.826	12.863	1319.790	1003.503
89.841	12.761	1318.948	1002.155
90.855	12.930	1317.878	1002.280
91.870	12.920	1317.010	1001.472
92.884	12.931	1316.220	1000.846
93.899	12.880	1316.041	1000.314
94.914	12.997	1314.508	999.770
95.928	13.012	1313.528	999.025
96.943	12.969	1312.780	998.107
97.957	13.010	1311.831	997.548
98.972	12.910	1310.751	996.034
99.987	12.893	1309.310	994.746
101.001	12.918	1308.332	994.069
102.016	12.947	1307.748	993.713
103.030	12.916	1306.410	992.417
104.045	12.887	1305.808	991.701
105.060	12.883	1304.328	990.464
106.074	12.853	1303.064	989.239
107.089	12.755	1301.537	987.403
108.103	12.774	1299.968	986.240
109.118	12.705	1298.817	984.867
110.133	12.834	1297.398	984.476
111.147	12.731	1296.320	982.955
112.162	12.756	1294.877	981.920
113.176	12.719	1293.956	980.914
114.191	12.849	1292.936	980.827
115.206	12.940	1291.525	980.214
116.220	12.883	1290.162	978.755
117.235	12.771	1289.466	977.474
118.249	12.798	1288.565	976.862
119.264	12.760	1287.422	975.684
120.279	12.744	1286.597	974.883
121.293	12.743	1285.309	973.813
122.308	12.754	1284.212	972.960
123.322	12.696	1283.300	971.839
124.337	12.808	1282.011	971.439
125.352	12.791	1280.920	970.425
126.366	12.697	1280.003	969.090
127.381	12.754	1278.721	968.370
128.395	12.737	1277.858	967.533
129.410	12.747	1276.806	966.707
130.424	12.796	1275.880	966.209
131.439	12.731	1274.957	965.043
132.454	12.961	1273.903	965.509
133.468	12.818	1273.429	964.224
134.483	12.846	1272.395	963.522
135.497	12.794	1271.395	962.373
136.512	12.897	1269.835	961.707
137.527	12.948	1268.174	960.663
138.541	12.864	1267.344	959.464
139.556	12.982	1265.835	958.918
140.570	12.945	1265.195	958.137
141.585	12.956	1263.854	957.100
142.600	13.044	1262.364	956.393
143.614	13.033	1261.454	955.559
144.629	13.173	1260.182	955.321
145.643	12.953	1259.476	953.430
146.658	12.993	1258.197	952.605
147.673	12.948	1256.749	951.168
148.687	13.022	1255.391	950.479
149.702	12.897	1254.283	948.839
150.716	12.962	1252.617	947.866
151.731	12.999	1251.324	947.021
152.746	12.931	1250.378	945.826
153.760	12.912	1249.135	944.696
154.775	12.934	1248.148	943.991
155.789	12.970	1247.128	943.345
156.804	13.105	1245.841	943.059
157.819	13.108	1244.824	942.220
158.833	12.984	1244.292	941.026
159.848	13.128	1243.457	941.136
160.862	13.100	1242.490	940.159
161.877	13.079	1240.621	938.540
162.892	13.045	1239.695	937.568
163.906	12.973	1238.803	936.400
164.921	13.019	1237.987	935.958
165.935	12.872	1237.338	934.553
166.950	13.046	1236.368	934.723
167.964	13.047	1235.501	933.993
168.979	13.027	1235.205	933.570
169.994	13.031	1234.532	933.003
171.008	13.103	1233.434	932.495
172.023	13.227	1232.375	932.312
173.037	13.315	1231.868	932.342
174.052	13.161	1230.679	930.492
175.067	13.094	1229.872	929.426
176.081	13.107	1228.648	928.492
177.096	13.050	1228.065	927.648
178.110	13.123	1226.920	927.108
179.125	13.162	1225.594	926.243
180.140	13.104	1224.765	925.209
181.154	13.212	1223.372	924.680
182.169	13.217	1222.184	923.729
183.183	13.292	1221.033	923.198
184.198	13.278	1220.211	922.413
185.213	13.249	1218.739	921.059
186.227	13.267	1217.827	920.391
187.242	13.370	1216.830	920.126
188.256	13.525	1215.666	920.025
189.271	13.369	1215.036	918.602
190.286	13.375	1213.490	917.388
191.300	13.204	1212.932	915.934
192.315	13.197	1212.361	915.383
193.329	13.119	1211.503	914.224
194.344	13.205	1211.026	914.258
195.359	13.298	1210.336	914.172
196.373	13.343	1209.779	913.919
197.388	13.345	1209.823	913.879
198.402	13.525	1208.848	914.058
199.417	13.530	1208.455	913.709
200.432	13.600	1207.277	913.120
201.446	13.684	1206.097	912.609
202.461	13.699	1204.853	911.669
203.475	13.579	1204.857	910.935
204.490	13.544	1203.362	909.530
205.504	13.569	1201.971	908.534
206.519	13.602	1200.666	907.652
207.534	13.529	1199.401	906.211
208.548	13.666	1198.738	906.382
209.563	13.522	1197.980	904.943
210.577	13.552	1197.103	904.363
211.592	13.655	1196.314	904.251
212.607	13.639	1195.487	903.459
213.621	13.768	1194.331	903.206
214.636	13.643	1193.718	901.980
215.650	13.715	1192.663	901.495
216.665	13.757	1191.921	901.081
217.680	13.752	1190.934	900.231
218.694	13.730	1190.470	899.680
219.709	13.763	1189.708	899.202
220.723	13.811	1188.670	898.597
221.738	13.837	1187.946	898.114
222.753	13.824	1186.953	897.211
223.767	13.904	1186.202	896.996
224.782	13.984	1185.501	896.823
225.796	13.876	1185.286	895.998
226.811	13.920	1184.635	895.660
227.826	13.905	1183.511	894.649
228.840	13.864	1183.267	894.167
229.855	14.005	1181.782	893.724
230.869	13.972	1181.368	893.156
231.884	13.954	1180.815	892.563
232.899	13.901	1179.553	891.244
233.913	13.775	1179.279	890.280
234.928	13.942	1178.073	890.187
235.942	13.861	1177.593	889.312
236.957	13.895	1176.844	888.851
237.972	13.868	1176.355	888.256
238.986	13.955	1175.215	887.784
240.001	13.963	1174.465	887.178
241.015	13.956	1173.500	886.338
242.030	13.971	1172.636	885.683
243.045	13.929	1172.536	885.309
244.059	14.036	1171.820	885.260
245.074	13.989	1170.830	884.184
246.088	14.114	1169.587	883.828
247.103	14.049	1168.953	882.929
248.117	14.201	1168.046	882.973
249.132	14.198	1167.443	882.420
250.147	14.274	1166.901	882.333
251.161	14.300	1166.121	881.806
252.176	14.271	1165.723	881.270
253.190	14.351	1164.752	880.882
254.205	14.390	1164.260	880.640
255.220	14.348	1163.788	879.984
256.234	14.439	1162.793	879.631
257.249	14.460	1161.971	879.043
258.263	14.508	1161.410	878.793
259.278	14.447	1160.905	878.014
260.293	14.446	1160.778	877.834
261.307	14.464	1160.208	877.421
262.322	14.504	1159.390	876.935
263.336	14.625	1158.413	876.753
264.351	14.539	1158.046	875.949
265.366	14.603	1156.985	875.403
266.380	14.746	1156.025	875.347
267.395	14.474	1155.739	873.631
268.409	14.475	1155.438	873.328
269.424	14.603	1154.454	873.175
270.439	14.659	1153.675	872.806
271.453	14.575	1153.057	871.818
272.468	14.523	1151.850	870.560
273.482	14.625	1150.794	870.216
274.497	14.571	1150.828	869.885
275.512	14.658	1150.382	869.923
276.526	14.646	1149.206	868.891
277.541	14.608	1148.810	868.318
278.555	14.635	1147.882	867.681
279.570	14.672	1147.239	867.313
280.585	14.760	1146.451	867.098
281.599	14.733	1145.211	865.944
282.614	14.772	1144.339	865.406
283.628	14.719	1143.285	864.258
284.643	14.869	1142.166	864.114
285.657	14.817	1141.634	863.366
286.672	14.810	1140.137	862.119
287.687	14.808	1139.550	861.588
288.701	14.782	1139.254	861.155
289.716	14.751	1138.421	860.291
290.730	14.936	1137.486	860.459
291.745	14.959	1136.673	859.884
292.760	14.899	1135.915	858.928
293.774	14.950	1135.453	858.766
294.789	14.900	1135.125	858.184
295.803	14.880	1134.432	857.482
296.818	14.881	1133.842	856.963
297.833	14.911	1132.902	856.333
298.847	15.002	1132.040	856.073
299.862	14.945	1130.874	854.820
300.876	15.021	1130.449	854.812
301.891	14.996	1130.075	854.328
302.906	15.108	1129.463	854.361
303.920	15.056	1128.544	853.326
304.935	15.073	1127.969	852.903
305.949	15.212	1127.066	852.850
306.964	15.196	1126.417	852.201
307.979	15.276	1125.391	851.757
308.993	15.226	1124.784	850.969
310.008	15.187	1124.132	850.201
311.022	15.214	1123.754	849.979
312.037	15.136	1122.614	848.643
313.052	15.179	1121.688	848.089
314.066	15.153	1120.555	847.024
315.081	15.146	1119.950	846.460
316.095	15.128	1119.211	845.735
317.110	15.151	1118.525	845.257
318.125	15.175	1117.899	844.828
319.139	15.200	1116.909	844.134
320.154	15.233	1116.038	843.564
321.168	15.127	1115.916	842.867
322.183	15.212	1115.432	842.851
323.197	15.260	1114.551	842.352
324.212	15.207	1114.008	841.601
325.227	15.218	1113.281	841.031
326.241	15.335	1112.673	841.084
327.256	15.271	1111.904	840.108
328.270	15.302	1110.797	839.356
329.285	15.233	1110.103	838.408
330.300	15.296	1109.130	837.914
331.314	15.365	1107.688	837.096
332.329	15.196	1107.595	836.110
333.343	15.284	1106.538	835.678
334.358	15.346	1105.684	835.264
335.373	15.336	1105.073	834.681
336.387	15.421	1104.307	834.452
337.402	15.426	1103.351	833.681
338.416	15.500	1102.765	833.529
339.431	15.445	1102.071	832.658
340.446	15.580	1101.149	832.561
341.460	15.592	1100.629	832.151
342.475	15.534	1100.016	831.324
343.489	15.710	1098.904	831.282
344.504	15.583	1098.128	829.994
345.519	15.716	1096.861	829.621
346.533	15.720	1096.391	829.209
347.548	15.737	1095.545	828.584
348.562	15.825	1094.714	828.315
349.577	15.736	1094.060	827.306
350.592	15.759	1093.094	826.615
351.606	15.652	1092.737	825.748
352.621	15.635	1091.950	824.997
353.635	15.650	1091.366	824.558
354.650	15.670	1090.515	823.940
355.665	15.673	1089.766	823.316
356.679	15.696	1089.411	823.083
357.694	15.751	1088.432	822.540
358.708	15.789	1088.104	822.409
359.723	15.771	1087.548	821.825
360.738	15.826	1086.642	821.338
361.752	15.847	1085.898	820.804
362.767	15.907	1085.355	820.613
363.781	15.888	1085.083	820.244
364.796	15.980	1084.352	820.066
365.810	15.918	1083.857	819.319
366.825	16.028	1083.247	819.320
367.840	16.106	1082.238	818.861
368.854	16.114	1081.913	818.582
369.869	16.009	1081.476	817.667
370.883	16.067	1080.375	817.043
371.898	16.071	1079.758	816.526
372.913	16.096	1079.188	816.143
373.927	15.986	1078.575	815.075
374.942	16.176	1078.199	815.641
375.956	16.284	1077.304	815.411
376.971	16.088	1077.123	814.257
377.986	16.191	1076.344	814.093
379.000	16.239	1075.897	813.915
380.015	16.294	1075.008	813.433
381.029	16.253	1074.994	813.154
382.044	16.373	1073.843	812.788
383.059	16.316	1073.448	812.141
384.073	16.272	1072.592	811.210
385.088	16.382	1071.256	810.660
386.102	16.278	1070.618	809.603
387.117	16.266	1069.693	808.778
388.132	16.224	1069.038	808.010
389.146	16.290	1067.876	807.375
390.161	16.135	1067.463	806.250
391.175	16.382	1066.481	806.614
392.190	16.310	1066.103	805.914
393.205	16.478	1065.243	805.995
394.219	16.400	1064.462	804.963
395.234	16.394	1063.393	804.052
396.248	16.327	1062.240	802.790
397.263	16.411	1061.124	802.277
398.278	16.324	1060.966	801.671
399.292	16.324	1060.166	800.998
400.307	16.292	1059.451	800.232
401.321	16.260	1058.517	799.308
402.336	16.388	1057.672	799.202
403.350	16.387	1057.365	798.896
404.365	16.374	1056.658	798.231
405.380	16.431	1056.084	797.993
406.394	16.546	1055.004	797.649
407.409	16.502	1054.364	796.888
408.423	16.586	1053.747	796.745
409.438	16.700	1052.781	796.484
410.453	16.686	1052.343	796.017
411.467	16.718	1051.523	795.473
412.482	16.747	1051.158	795.263
413.496	16.681	1050.577	794.442
414.511	16.797	1049.688	794.243
415.526	16.875	1049.436	794.348
416.540	16.798	1049.021	793.605
417.555	16.812	1048.476	793.190
418.569	16.935	1047.822	793.199
419.584	16.760	1047.595	792.138
420.599	16.811	1046.821	791.720
421.613	93.703	1309.057	1417.094
422.628	86.111	1347.268	1417.234
