DTS Sentinel unit serial number:	SN413079Multiplexer serial number:	ORYXHardware model number:	OX4-SRSoftware version number:	ORYX F/W v4.00 Oryx Data Collector v3.7.2.0data status	okinstallation	princeton_trtdifferential loss correction	single-endedforward channel	channel 2reverse channel	N/Adate	2019/09/16time	19:35:35forward acquisition time	60.00reverse acquisition time	0.00gamma	496.2192k internal	0.2323k external	0.2323temperature offset calibration	0.9971default loss term (dB/km)	0.3790temperature slope calibration	1.0000multiplexer offset coefficient	1.0000multiplexer slope coefficient	1.0000fibre end	0.00T internal ref (°C)	34.28T ext. ref 1 (°C)	0.10T ext. ref 2 (°C)	27.22length (m)	temperature (°C)	Stokes	anti-Stokes-747.200	270.914	0.106	0.188
-746.185	-200.000	0.170	0.000
-745.171	-132.736	-0.067	0.009
-744.156	55.918	-0.150	0.147
-743.142	-35.423	0.109	0.060
-742.127	800.000	-0.145	0.494
-741.112	35.655	-0.212	-0.188
-740.098	-11.803	0.385	0.255
-739.083	-17.707	-0.132	0.084
-738.069	788.587	-0.180	0.499
-737.054	-126.326	0.322	-0.048
-736.039	639.116	-0.036	-0.091
-735.025	148.217	0.178	0.243
-734.010	708.411	-0.112	-0.300
-732.996	-145.487	-0.304	-0.028
-731.981	-77.056	-0.574	-0.202
-730.966	-200.000	0.023	-0.273
-729.952	-71.241	-0.218	-0.083
-728.937	800.000	-0.080	0.224
-727.923	-200.000	0.030	-0.133
-726.908	228.697	0.148	-0.243
-725.894	-116.363	-0.029	-0.005
-724.879	88.132	0.166	0.186
-723.864	16.539	-0.239	0.191
-722.850	40.372	-0.175	-0.159
-721.835	-65.087	0.133	-0.054
-720.821	-84.221	0.365	0.117
-719.806	296.767	-0.127	0.236
-718.791	-107.374	0.118	0.026
-717.777	800.000	-0.082	0.322
-716.762	-99.488	-0.221	-0.056
-715.748	700.191	-0.032	0.086
-714.733	574.355	-0.080	-0.196
-713.718	-53.397	0.166	-0.077
-712.704	-200.000	0.044	-0.277
-711.689	-6.532	0.116	-0.080
-710.675	225.031	0.062	-0.102
-709.660	800.000	-0.072	-0.205
-708.645	410.898	0.126	-0.269
-707.631	-200.000	0.012	0.290
-706.616	-71.241	0.216	0.082
-705.602	-10.809	0.188	0.126
-704.587	348.196	0.066	0.131
-703.572	-38.438	0.285	0.152
-702.558	49.044	0.061	-0.058
-701.543	-2.608	0.153	-0.108
-700.529	-200.000	0.008	-0.257
-699.514	-193.101	-0.125	0.001
-698.499	-79.974	-0.183	-0.062
-697.485	285.133	-0.132	0.240
-696.470	-32.751	0.088	-0.049
-695.456	800.000	-0.069	-0.294
-694.441	-137.479	0.174	0.020
-693.426	-200.000	-0.022	-0.195
-692.412	-68.586	-0.042	-0.016
-691.397	-133.473	-0.312	-0.039
-690.383	75.552	-0.213	-0.227
-689.368	-95.762	0.226	-0.061
-688.354	99.172	0.168	-0.196
-687.339	-80.666	-0.348	0.117
-686.324	157.970	0.130	-0.182
-685.310	-200.000	0.015	-0.069
-684.295	111.680	-0.024	0.029
-683.281	800.000	0.104	0.312
-682.266	-31.408	-0.263	0.149
-681.251	25.664	0.342	0.287
-680.237	-0.080	-0.223	0.160
-679.222	555.287	-0.022	-0.054
-678.208	-55.564	-0.316	0.142
-677.193	-200.000	0.091	-0.516
-676.178	57.609	-0.325	-0.320
-675.164	-64.126	-0.229	0.094
-674.149	-3.458	0.079	0.055
-673.135	-61.545	-0.322	-0.136
-672.120	550.404	0.028	-0.068
-671.105	-200.000	-0.011	-0.083
-670.091	50.037	0.191	0.181
-669.076	710.268	-0.035	-0.093
-668.062	-92.361	-0.193	0.055
-667.047	800.000	0.069	0.200
-666.032	800.000	0.031	-0.109
-665.018	-200.000	0.064	-0.352
-664.003	-200.000	-0.110	-0.001
-662.989	43.390	-0.196	0.180
-661.974	214.921	-0.285	-0.455
-660.959	-200.000	0.005	0.157
-659.945	800.000	0.197	-0.580
-658.930	241.890	0.129	-0.217
-657.916	-111.720	0.086	-0.017
-656.901	412.779	0.135	0.288
-655.886	105.333	0.389	0.462
-654.872	-99.265	0.176	0.045
-653.857	5.857	0.219	0.163
-652.843	-42.779	-0.101	0.052
-651.828	253.575	-0.122	0.210
-650.814	22.066	-0.026	-0.021
-649.799	293.297	0.045	-0.082
-648.784	87.536	0.180	0.200
-647.770	800.000	-0.043	0.162
-646.755	-77.882	-0.407	0.141
-645.741	-157.111	-0.275	0.017
-644.726	-97.662	0.416	-0.108
-643.711	800.000	0.114	-0.461
-642.697	-47.850	-0.249	0.122
-641.682	406.645	0.081	0.172
-640.668	9.413	-0.076	-0.058
-639.653	-3.052	-0.300	0.210
-638.638	82.833	-0.121	0.133
-637.624	-200.000	-0.027	-0.161
-636.609	94.877	-0.225	0.257
-635.595	-200.000	-0.021	0.438
-634.580	-161.699	-0.094	-0.005
-633.565	-106.408	-0.214	0.048
-632.551	-63.221	-0.293	0.121
-631.536	-138.532	0.057	0.006
-630.522	-55.442	-0.147	0.066
-629.507	-8.733	0.239	0.161
-628.492	-200.000	-0.022	-0.212
-627.478	59.635	-0.160	-0.158
-626.463	416.338	0.023	-0.049
-625.449	-50.144	-0.054	0.026
-624.434	800.000	0.042	-0.179
-623.419	127.004	0.116	-0.148
-622.405	-200.000	-0.037	-0.319
-621.390	97.041	0.029	-0.034
-620.376	237.503	0.156	0.259
-619.361	-73.824	0.267	-0.097
-618.346	800.000	0.147	0.476
-617.332	135.103	-0.090	0.117
-616.317	800.000	-0.056	-0.170
-615.303	-130.731	0.277	-0.037
-614.288	800.000	-0.051	-0.164
-613.273	800.000	-0.096	-0.273
-612.259	800.000	0.108	0.360
-611.244	-69.684	-0.089	-0.034
-610.230	-82.972	-0.231	-0.075
-609.215	-200.000	-0.002	0.027
-608.201	-200.000	-0.013	0.083
-607.186	2.385	0.199	0.145
-606.171	371.417	-0.160	0.325
-605.157	129.368	-0.082	-0.105
-604.142	-43.116	-0.280	0.142
-603.128	800.000	-0.057	-0.197
-602.113	800.000	0.032	-0.109
-601.098	34.000	0.255	-0.223
-600.084	-183.262	0.215	0.004
-599.069	-81.215	0.397	-0.132
-598.055	-34.505	0.192	-0.105
-597.040	566.785	0.125	-0.304
-596.025	800.000	-0.064	-0.257
-595.011	181.681	0.123	-0.182
-593.996	-47.898	-0.156	-0.076
-592.982	293.304	0.188	-0.345
-591.967	-150.740	0.192	0.015
-590.952	477.775	-0.125	0.285
-589.938	-200.000	-0.022	0.198
-588.923	-104.347	-0.159	-0.037
-587.909	71.066	-0.189	0.196
-586.894	-123.720	-0.341	-0.054
-585.879	800.000	0.145	-0.517
-584.865	557.607	0.063	0.153
-583.850	43.490	-0.162	-0.148
-582.836	-200.000	-0.001	0.158
-581.821	-111.071	-0.481	0.099
-580.806	238.710	0.026	-0.044
-579.792	-200.000	-0.038	0.399
-578.777	3.835	-0.145	-0.106
-577.763	377.449	-0.082	0.169
-576.748	704.011	-0.047	0.126
-575.733	-2.119	0.225	-0.158
-574.719	-9.071	0.366	-0.246
-573.704	121.400	0.151	0.189
-572.690	-16.442	0.085	0.054
-571.675	62.050	-0.176	-0.176
-570.661	-200.000	0.024	0.153
-569.646	181.032	-0.090	0.133
-568.631	2.673	0.033	-0.024
-567.617	-200.000	-0.034	0.167
-566.602	-1.983	0.068	0.048
-565.588	-2.591	0.012	0.008
-564.573	225.047	0.154	0.251
-563.558	550.541	0.033	-0.078
-562.544	264.082	-0.076	0.132
-561.529	237.915	-0.127	-0.211
-560.515	-182.967	0.245	-0.004
-559.500	113.407	-0.057	-0.069
-558.485	360.138	-0.122	-0.245
-557.471	-101.785	0.202	0.049
-556.456	-200.000	-0.023	0.263
-555.442	-8.606	-0.369	-0.248
-554.427	92.830	0.162	0.183
-553.412	-200.000	0.045	-0.230
-552.398	-115.564	0.076	-0.014
-551.383	-83.485	-0.091	-0.029
-550.369	-200.000	-0.001	-0.211
-549.354	201.094	0.042	0.065
-548.339	16.679	-0.402	0.318
-547.325	-200.000	-0.035	-0.314
-546.310	-155.085	-0.062	-0.004
-545.296	549.931	0.089	-0.214
-544.281	-172.487	0.105	0.003
-543.266	146.763	0.121	-0.162
-542.252	-113.694	-0.183	0.036
-541.237	765.535	0.010	-0.029
-540.223	365.016	-0.072	0.145
-539.208	-16.999	-0.217	-0.137
-538.193	-66.415	-0.115	-0.046
-537.179	-10.072	0.128	0.085
-536.164	603.759	-0.115	-0.286
-535.150	800.000	-0.144	0.426
-534.135	-59.560	0.127	0.054
-533.121	800.000	-0.075	-0.242
-532.106	232.297	0.058	-0.096
-531.091	19.031	-0.389	-0.312
-530.077	-13.912	-0.138	0.090
-529.062	-85.765	-0.098	-0.030
-528.048	122.942	-0.128	-0.160
-527.033	237.930	0.021	-0.034
-526.018	-34.996	0.149	0.081
-525.004	-57.414	-0.284	-0.125
-523.989	-24.264	0.409	-0.244
-522.975	463.152	-0.084	-0.188
-521.960	-181.604	-0.234	-0.005
-520.945	-200.000	-0.007	-0.358
-519.931	-41.691	0.414	0.213
-518.916	-200.000	-0.036	0.456
-517.902	-44.255	-0.095	0.048
-516.887	30.876	-0.139	0.119
-515.872	175.778	-0.114	0.166
-514.858	-27.959	0.391	-0.227
-513.843	181.508	-0.171	0.252
-512.829	-9.242	-0.060	-0.040
-511.814	800.000	-0.037	0.156
-510.799	-200.000	-0.022	0.439
-509.785	-62.360	-0.289	0.120
-508.770	-200.000	-0.043	-0.248
-507.756	26.932	0.193	0.162
-506.741	-63.007	0.259	-0.107
-505.726	470.403	-0.016	0.037
-504.712	-116.574	-0.139	0.026
-503.697	-51.909	0.234	0.109
-502.683	-21.607	0.096	-0.059
-501.668	-129.194	-0.163	0.023
-500.653	-200.000	0.074	-0.373
-499.639	116.382	-0.107	0.131
-498.624	-200.000	0.007	-0.146
-497.610	311.377	-0.111	-0.209
-496.595	377.835	0.143	-0.292
-495.581	58.580	0.245	0.240
-494.566	87.818	-0.065	0.072
-493.551	-135.544	0.087	-0.010
-492.537	88.011	-0.139	-0.154
-491.522	0.489	-0.066	-0.047
-490.508	-29.207	0.287	-0.164
-489.493	117.518	-0.108	0.133
-488.478	-117.081	-0.161	-0.029
-487.464	-79.756	-0.253	-0.085
-486.449	-72.369	-0.150	0.056
-485.435	-200.000	-0.046	-0.239
-484.420	-136.667	0.122	0.014
-483.405	69.725	0.138	-0.142
-482.391	-57.563	0.116	0.051
-481.376	800.000	0.062	-0.198
-480.362	800.000	-0.047	0.168
-479.347	800.000	0.040	-0.155
-478.332	-200.000	0.001	0.013
-477.318	-90.075	0.182	0.053
-476.303	-15.701	-0.045	0.029
-475.289	-75.092	0.137	0.049
-474.274	-88.373	0.158	-0.047
-473.259	-200.000	-0.061	-0.266
-472.245	-200.000	-0.019	-0.192
-471.230	147.365	-0.131	-0.176
-470.216	-200.000	0.032	0.349
-469.201	-200.000	-0.031	0.187
-468.186	-1.281	0.162	0.114
-467.172	-30.398	-0.170	0.097
-466.157	-11.912	-0.237	0.156
-465.143	-80.969	-0.340	0.112
-464.128	192.409	0.088	-0.133
-463.113	214.187	0.101	-0.159
-462.099	130.653	-0.131	-0.168
-461.084	457.872	-0.017	-0.038
-460.070	800.000	-0.074	-0.209
-459.055	-135.739	-0.182	-0.021
-458.040	144.402	0.144	0.192
-457.026	-114.073	0.168	-0.032
-456.011	-35.141	-0.187	0.102
-454.997	177.073	-0.082	0.119
-453.982	-172.717	0.107	0.003
-452.968	52.202	0.234	-0.223
-451.953	-118.450	-0.246	-0.044
-450.938	59.344	-0.135	-0.133
-449.924	-200.000	-0.000	-0.326
-448.909	594.596	0.046	0.114
-447.895	14.308	0.183	-0.142
-446.880	-200.000	-0.019	0.137
-445.865	-200.000	-0.030	0.258
-444.851	-45.035	-0.060	0.030
-443.836	-173.340	0.502	0.015
-442.822	5.974	-0.261	-0.193
-441.807	-200.000	0.031	-0.174
-440.792	-100.733	-0.260	-0.064
-439.778	-42.929	0.196	0.099
-438.763	-113.907	-0.095	-0.018
-437.749	268.789	-0.055	0.097
-436.734	-57.808	0.107	-0.047
-435.719	-53.692	-0.217	0.099
-434.705	800.000	0.110	-0.341
-433.690	-200.000	-0.003	0.168
-432.676	-140.560	0.141	-0.015
-431.661	-55.822	0.154	0.069
-430.646	10.602	-0.218	-0.165
-429.632	-200.000	-0.012	0.065
-428.617	-68.870	0.157	0.060
-427.603	93.935	0.103	0.116
-426.588	-138.164	-0.128	0.014
-425.573	13.131	0.070	0.054
-424.559	-142.733	-0.164	0.016
-423.544	366.812	0.158	0.318
-422.530	72.026	-0.094	-0.098
-421.515	-200.000	-0.002	-0.012
-420.500	-57.448	-0.280	0.123
-419.486	22.262	0.107	0.087
-418.471	62.430	-0.182	0.181
-417.457	-200.000	0.000	0.018
-416.442	-86.417	-0.435	-0.133
-415.428	-45.113	-0.179	0.089
-414.413	-83.031	-0.078	0.025
-413.398	800.000	0.074	0.233
-412.384	-200.000	-0.004	0.257
-411.369	477.899	0.044	0.100
-410.355	800.000	0.032	-0.120
-409.340	800.000	-0.090	-0.343
-408.325	-200.000	-0.010	0.144
-407.311	-200.000	0.007	-0.140
-406.296	317.083	0.179	0.338
-405.282	55.409	0.113	-0.109
-404.267	-145.085	0.327	0.030
-403.252	800.000	0.068	-0.190
-402.238	71.542	-0.191	0.198
-401.223	-165.542	-0.211	0.009
-400.209	83.293	-0.215	-0.233
-399.194	18.675	-0.274	-0.219
-398.179	-200.000	-0.009	0.377
-397.165	-200.000	-0.025	-0.116
-396.150	-199.641	-0.365	-0.002
-395.136	-102.342	0.300	0.072
-394.121	-148.241	-0.201	0.017
-393.106	800.000	-0.015	-0.047
-392.092	-69.453	0.106	0.040
-391.077	36.415	0.110	-0.097
-390.063	800.000	-0.048	0.209
-389.048	135.728	0.198	0.257
-388.033	-47.326	-0.340	0.165
-387.019	372.839	-0.067	-0.135
-386.004	57.233	-0.205	-0.199
-384.990	800.000	0.037	-0.151
-383.975	187.985	-0.164	-0.243
-382.960	45.529	0.201	-0.185
-381.946	135.985	0.054	-0.069
-380.931	-200.000	0.037	0.164
-379.917	-200.000	0.051	0.266
-378.902	800.000	0.031	0.125
-377.888	366.882	-0.154	0.310
-376.873	93.924	0.093	-0.105
-375.858	245.763	-0.070	0.117
-374.844	384.140	-0.181	0.371
-373.829	-200.000	-0.009	-0.122
-372.815	800.000	-0.041	0.141
-371.800	121.823	-0.127	0.158
-370.785	96.221	-0.217	-0.246
-369.771	-75.259	0.205	0.073
-368.756	-157.516	0.056	0.003
-367.742	311.270	-0.073	-0.137
-366.727	-200.000	0.008	0.254
-365.712	171.180	-0.276	-0.393
-364.698	220.330	0.160	-0.255
-363.683	-81.544	-0.129	0.042
-362.669	281.855	0.052	-0.093
-361.654	-103.066	-0.075	0.018
-360.639	-200.000	0.002	0.056
-359.625	800.000	-0.043	0.157
-358.610	161.534	-0.193	0.269
-357.596	-95.113	-0.246	0.066
-356.581	-5.605	-0.119	0.081
-355.566	-11.170	0.241	0.158
-354.552	-200.000	0.016	0.116
-353.537	-108.897	0.172	0.036
-352.523	-98.457	0.220	0.056
-351.508	-200.000	-0.010	-0.051
-350.493	-200.000	-0.005	0.280
-349.479	378.379	-0.162	-0.329
-348.464	269.488	-0.150	-0.261
-347.450	-200.000	-0.026	0.238
-346.435	800.000	-0.059	0.173
-345.420	-51.574	0.145	0.067
-344.406	800.000	-0.040	-0.147
-343.391	-151.905	0.254	0.018
-342.377	595.158	-0.080	0.197
-341.362	-118.340	0.165	0.029
-340.348	-23.923	0.089	-0.053
-339.333	374.958	-0.137	-0.277
-338.318	-129.141	0.475	0.066
-337.304	786.876	0.131	-0.358
-336.289	-200.000	0.004	-0.232
-335.275	-200.000	0.003	0.083
-334.260	-200.000	0.018	0.216
-333.245	45.090	0.363	0.332
-332.231	121.472	0.103	-0.127
-331.216	111.341	-0.125	0.149
-330.202	385.988	0.082	0.169
-329.187	-63.716	0.395	0.161
-328.172	-123.589	-0.031	0.005
-327.158	-48.052	0.403	0.194
-326.143	800.000	-0.092	0.271
-325.129	-200.000	-0.065	0.559
-324.114	289.447	-0.064	0.116
-323.099	-200.000	0.019	-0.200
-322.085	156.457	-0.115	-0.158
-321.070	-200.000	0.031	-0.197
-320.056	6.885	-0.059	-0.043
-319.041	-99.366	-0.121	0.030
-318.026	-200.000	0.058	-0.487
-317.012	249.281	0.085	0.142
-315.997	-39.457	-0.205	0.107
-314.983	647.230	-0.104	-0.265
-313.968	-184.831	0.174	-0.003
-312.953	800.000	-0.050	-0.201
-311.939	87.265	-0.097	-0.107
-310.924	266.176	-0.130	0.225
-309.910	250.728	0.136	0.229
-308.895	118.662	0.143	0.175
-307.880	11.065	-0.309	-0.235
-306.866	57.435	0.126	-0.122
-305.851	499.972	-0.129	0.295
-304.837	-68.975	0.342	-0.131
-303.822	-51.290	-0.324	-0.150
-302.807	-200.000	0.012	0.132
-301.793	-93.672	-0.404	-0.111
-300.778	800.000	-0.043	-0.174
-299.764	421.752	-0.123	0.262
-298.749	130.230	0.155	0.196
-297.735	-25.665	-0.212	-0.124
-296.720	349.153	0.192	0.377
-295.705	-145.546	0.139	-0.012
-294.691	-12.630	0.196	-0.127
-293.676	181.282	-0.072	0.105
-292.662	5.671	0.101	0.074
-291.647	176.741	-0.158	0.228
-290.632	-200.000	-0.023	-0.105
-289.618	121.459	0.084	0.103
-288.603	-119.679	-0.188	-0.032
-287.589	-119.700	0.292	0.050
-286.574	221.063	0.097	-0.154
-285.559	-33.103	0.265	0.146
-284.545	-45.175	0.037	0.018
-283.530	-85.854	0.264	-0.081
-282.516	800.000	0.088	-0.365
-281.501	159.564	0.112	0.155
-280.486	287.102	-0.158	0.282
-279.472	150.755	-0.192	-0.259
-278.457	-137.568	0.109	0.012
-277.443	724.914	-0.062	-0.164
-276.428	800.000	-0.041	0.172
-275.413	-8.287	-0.086	0.057
-274.399	-200.000	0.003	-0.133
-273.384	232.545	0.080	0.130
-272.370	-139.243	-0.037	-0.004
-271.355	-41.974	-0.102	-0.052
-270.340	750.170	0.064	-0.172
-269.326	12.493	-0.174	-0.133
-268.311	451.434	-0.089	-0.194
-267.297	800.000	-0.067	0.217
-266.282	800.000	-0.018	-0.062
-265.267	4.587	0.277	-0.202
-264.253	-46.206	-0.136	-0.066
-263.238	42.361	0.278	-0.250
-262.224	-57.113	-0.202	0.088
-261.209	-169.584	0.035	-0.001
-260.195	-81.634	0.105	-0.034
-259.180	128.817	-0.156	-0.197
-258.165	-200.000	-0.009	-0.119
-257.151	-200.000	-0.001	-0.245
-256.136	-200.000	-0.042	-0.392
-255.122	800.000	0.080	-0.303
-254.107	-68.994	0.421	-0.161
-253.092	456.995	0.082	-0.180
-252.078	-17.227	-0.203	-0.127
-251.063	-148.262	0.185	0.015
-250.049	-56.687	-0.138	0.061
-249.034	-200.000	0.016	0.144
-248.019	-150.877	-0.122	0.009
-247.005	-145.523	0.173	0.015
-245.990	376.735	0.044	0.089
-244.976	-200.000	-0.012	0.139
-243.961	142.955	-0.044	0.059
-242.946	-200.000	0.004	0.126
-241.932	80.178	-0.116	-0.124
-240.917	318.418	0.109	-0.205
-239.903	-23.142	0.253	0.151
-238.888	99.245	0.263	0.301
-237.873	9.184	-0.133	-0.099
-236.859	628.043	-0.159	0.398
-235.844	569.193	-0.126	0.302
-234.830	-56.310	-0.097	0.043
-233.815	-22.695	-0.179	0.107
-232.800	543.646	-0.094	0.222
-231.786	-41.078	0.216	0.110
-230.771	-37.017	0.136	0.072
-229.757	44.935	0.104	-0.094
-228.742	-200.000	-0.005	0.058
-227.727	800.000	-0.010	0.027
-226.713	9.574	-0.224	-0.168
-225.698	-49.722	-0.207	-0.098
-224.684	-200.000	0.038	-0.376
-223.669	-172.116	0.174	0.006
-222.655	-87.219	0.308	0.093
-221.640	-149.063	0.141	-0.011
-220.625	800.000	-0.047	0.136
-219.611	3.768	0.155	0.112
-218.596	800.000	0.073	-0.207
-217.582	800.000	-0.092	0.285
-216.567	-200.000	-0.036	0.183
-215.552	103.324	0.166	0.193
-214.538	-124.333	0.278	0.043
-213.523	-7.196	-0.102	-0.069
-212.509	-51.457	-0.211	-0.097
-211.494	-108.026	0.270	-0.058
-210.479	-124.845	0.176	0.027
-209.465	-56.000	-0.194	0.086
-208.450	16.140	-0.312	0.243
-207.436	-11.809	0.029	0.019
-206.421	154.608	0.167	0.227
-205.406	173.875	0.142	-0.203
-204.392	-83.597	0.055	0.017
-203.377	-37.299	0.592	-0.313
-202.363	9.063	-0.249	-0.186
-201.348	-112.370	0.243	-0.048
-200.333	-65.491	-0.105	-0.042
-199.319	800.000	-0.057	-0.241
-198.304	61.765	0.115	0.114
-197.290	-200.000	-0.007	0.233
-196.275	171.506	0.039	-0.055
-195.260	747.236	-0.013	-0.035
-194.246	-13.007	0.302	-0.194
-193.231	-75.529	0.290	0.102
-192.217	-137.761	-0.160	0.018
-191.202	80.555	-0.112	0.119
-190.187	800.000	0.071	0.269
-189.173	78.073	0.143	-0.151
-188.158	66.694	-0.062	0.062
-187.144	-70.344	-0.037	-0.014
-186.129	310.483	-0.127	-0.235
-185.114	122.504	0.095	-0.117
-184.100	-104.853	-0.142	-0.032
-183.085	310.933	0.163	0.301
-182.071	800.000	-0.044	0.159
-181.056	-1.070	-0.228	-0.159
-180.042	800.000	0.049	-0.209
-179.027	-200.000	-0.023	0.218
-178.012	181.283	-0.089	-0.129
-176.998	-146.854	-0.203	-0.017
-175.983	242.454	0.033	-0.054
-174.969	-16.983	0.147	0.092
-173.954	-43.541	0.223	0.111
-172.939	-200.000	-0.004	-0.111
-171.925	-200.000	0.090	-0.483
-170.910	270.180	0.108	0.188
-169.896	-200.000	0.000	-0.014
-168.881	27.879	-0.407	-0.339
-167.866	194.480	-0.259	-0.388
-166.852	696.402	-0.128	-0.331
-165.837	-164.823	0.501	-0.022
-164.823	-200.000	-0.051	-0.252
-163.808	-200.000	-0.017	0.208
-162.793	-200.000	-0.031	-0.135
-161.779	-200.000	-0.020	0.341
-160.764	193.908	-0.097	0.145
-159.750	-200.000	-0.027	-0.270
-158.735	3.987	0.316	0.228
-157.720	98.914	0.207	0.236
-156.706	41.745	0.240	0.215
-155.691	276.473	0.148	0.260
-154.677	754.850	0.094	-0.252
-153.662	-12.753	0.209	0.135
-152.647	65.275	-0.208	-0.208
-151.633	-17.096	0.330	0.205
-150.618	764.156	0.150	0.402
-149.604	186.713	-0.068	0.100
-148.589	-145.039	0.161	0.014
-147.574	62.589	0.118	0.117
-146.560	-200.000	-0.015	0.226
-145.545	21.822	-0.248	0.199
-144.531	800.000	0.073	0.287
-143.516	-134.445	-0.202	0.024
-142.502	-127.352	0.139	0.020
-141.487	-40.948	0.225	-0.115
-140.472	-45.368	0.218	0.107
-139.458	-98.030	-0.333	0.085
-138.443	800.000	0.079	0.288
-137.429	90.362	0.168	0.185
-136.414	205.215	0.170	-0.261
-135.399	-44.320	0.320	0.158
-134.385	639.724	-0.076	0.191
-133.370	-47.720	-0.296	0.142
-132.356	-54.749	0.311	-0.138
-131.341	188.273	0.190	0.280
-130.326	800.000	-0.054	-0.162
-129.312	-78.071	0.339	-0.115
-128.297	-63.651	0.081	-0.033
-127.283	131.989	-0.045	-0.058
-126.268	-200.000	0.006	-0.228
-125.253	-46.578	-0.375	0.181
-124.239	-106.532	-0.565	-0.124
-123.224	-200.000	-0.002	-0.028
-122.210	174.126	-0.156	0.222
-121.195	-200.000	0.006	0.291
-120.180	-122.652	-0.124	0.020
-119.166	-164.278	0.244	-0.011
-118.151	-91.979	-0.238	-0.066
-117.137	430.738	0.075	-0.159
-116.122	-200.000	0.023	-0.188
-115.107	131.817	0.180	-0.228
-114.093	-36.569	0.088	0.047
-113.078	162.638	-0.078	-0.107
-112.064	-28.383	0.147	0.084
-111.049	800.000	-0.128	0.386
-110.034	-52.718	0.257	0.117
-109.020	-32.288	-0.130	0.072
-108.005	16.580	0.174	-0.136
-106.991	-85.702	-0.197	-0.060
-105.976	-61.813	0.234	-0.097
-104.962	-96.711	-0.224	-0.058
-103.947	-33.704	0.255	0.138
-102.932	323.269	0.169	-0.317
-101.918	-200.000	0.027	0.253
-100.903	800.000	-0.062	0.210
-99.889	-30.617	0.263	0.147
-98.874	-200.000	-0.011	-0.123
-97.859	-50.674	0.076	-0.035
-96.845	-200.000	-0.023	0.269
-95.830	800.000	-0.085	0.277
-94.816	-200.000	0.039	-0.220
-93.801	106.249	0.096	0.112
-92.786	-51.395	0.190	0.087
-91.772	14.654	0.201	-0.155
-90.757	800.000	-0.118	-0.380
-89.743	315.960	0.140	-0.260
-88.728	-45.746	-0.343	-0.167
-87.713	-167.668	0.302	0.012
-86.699	-137.713	0.199	0.022
-85.684	-92.730	-0.394	-0.109
-84.670	-101.492	0.210	0.050
-83.655	35.743	0.156	0.135
-82.640	75.735	-0.053	-0.055
-81.626	-116.506	0.036	0.006
-80.611	-35.100	0.019	0.010
-79.597	32.391	-0.165	-0.140
-78.582	-68.447	-0.135	0.052
-77.567	-24.009	0.362	0.213
-76.553	-129.756	-0.368	-0.050
-75.538	275.913	0.109	-0.190
-74.524	-24.214	-0.309	-0.181
-73.509	-32.199	0.200	-0.110
-72.494	-61.238	-0.086	0.036
-71.480	30.334	0.129	0.108
-70.465	495.552	-0.139	0.315
-69.451	-28.123	0.225	0.128
-68.436	-200.000	0.047	0.203
-67.422	-200.000	0.006	0.036
-66.407	346.231	-0.063	-0.122
-65.392	135.033	-0.025	-0.031
-64.378	800.000	0.182	-0.544
-63.363	-124.945	-0.105	0.016
-62.349	-102.260	0.361	0.085
-61.334	189.963	-0.834	-1.230
-60.319	20.035	0.424	0.336
-59.305	114.518	-0.650	-0.779
-58.290	96.971	0.893	1.007
-57.276	267.294	0.793	1.364
-56.261	-200.000	94.206	556.293
-55.246	548.446	1369.749	3225.014
-54.232	158.475	2561.874	3494.976
-53.217	106.186	2283.390	2658.432
-52.203	43.286	1906.070	1710.959
-51.188	37.540	1697.075	1479.752
-50.173	34.791	1653.134	1420.975
-49.159	52.203	1698.070	1590.997
-48.144	54.555	1715.372	1624.833
-47.130	37.183	1674.783	1457.401
-46.115	34.397	1660.617	1424.237
-45.100	34.158	1656.145	1418.567
-44.086	34.113	1653.265	1415.709
-43.071	34.184	1650.743	1414.020
-42.057	34.092	1648.593	1411.437
-41.042	34.102	1646.541	1409.697
-40.027	34.169	1644.288	1408.210
-39.013	34.142	1642.510	1406.431
-37.998	34.112	1640.859	1404.742
-36.984	34.129	1639.897	1403.987
-35.969	34.327	1637.833	1403.622
-34.954	34.343	1636.193	1402.280
-33.940	34.299	1634.349	1400.324
-32.925	34.274	1633.046	1398.968
-31.911	34.210	1631.615	1397.218
-30.896	34.224	1629.898	1395.789
-29.881	34.245	1627.852	1394.140
-28.867	34.306	1626.099	1393.024
-27.852	34.273	1624.983	1391.778
-26.838	34.309	1623.416	1390.639
-25.823	34.311	1621.918	1389.314
-24.809	34.313	1620.593	1388.144
-23.794	34.290	1618.951	1386.512
-22.779	34.360	1617.489	1385.715
-21.765	34.313	1616.194	1384.205
-20.750	34.264	1614.649	1382.472
-19.736	34.249	1613.298	1381.152
-18.721	34.418	1611.283	1380.601
-17.706	34.391	1609.987	1379.239
-16.692	34.350	1608.608	1377.703
-15.677	34.271	1607.359	1376.011
-14.663	34.318	1605.953	1375.087
-13.648	34.285	1604.454	1373.517
-12.633	34.287	1602.978	1372.212
-11.619	34.301	1601.589	1371.066
-10.604	34.262	1599.743	1369.154
-9.590	34.224	1598.911	1368.110
-8.575	34.432	1597.360	1368.224
-7.560	34.359	1596.210	1366.661
-6.546	34.337	1595.133	1365.525
-5.531	34.286	1594.163	1364.276
-4.517	34.316	1592.917	1363.375
-3.502	34.311	1591.916	1362.424
-2.487	34.458	1589.996	1361.778
-1.473	33.908	1577.471	1347.104
-0.458	30.488	1557.421	1305.937
0.556	24.491	1555.994	1268.049
1.571	21.855	1578.373	1267.152
2.586	21.149	1591.072	1272.088
3.600	19.091	1539.442	1216.173
4.615	10.852	1428.933	1074.517
5.629	2.175	1360.699	968.301
6.644	0.332	1351.226	949.869
7.659	0.078	1350.196	947.461
8.673	-0.022	1349.503	946.263
9.688	0.032	1347.982	945.451
10.702	-0.207	1344.975	941.757
11.717	3.760	1351.380	971.125
12.731	12.714	1365.964	1038.189
13.746	17.889	1372.037	1075.397
14.761	17.409	1369.526	1070.315
15.775	16.320	1366.575	1061.072
16.790	15.211	1363.536	1051.664
17.804	14.419	1361.892	1045.337
18.819	14.052	1360.776	1042.088
19.834	13.751	1359.069	1038.801
20.848	13.508	1357.857	1036.263
21.863	13.372	1356.227	1034.079
22.877	13.140	1355.703	1032.137
23.892	13.108	1354.884	1031.226
24.907	13.155	1353.437	1030.325
25.921	13.115	1353.093	1029.720
26.936	13.185	1351.751	1029.049
27.950	13.236	1351.136	1028.805
28.965	13.255	1350.033	1027.990
29.980	13.306	1349.119	1027.523
30.994	13.371	1348.200	1027.136
32.009	13.403	1347.175	1026.460
33.023	13.292	1346.435	1025.119
34.038	13.394	1345.271	1024.775
35.053	13.321	1344.085	1023.326
36.067	13.296	1342.592	1021.947
37.082	13.271	1342.262	1021.447
38.096	13.328	1341.217	1020.918
39.111	13.361	1340.454	1020.447
40.126	13.354	1339.337	1019.464
41.140	13.232	1338.941	1018.322
42.155	13.184	1338.779	1017.815
43.169	13.002	1339.063	1016.818
44.184	13.054	1337.579	1015.918
45.199	13.035	1337.571	1015.706
46.213	13.147	1336.955	1015.836
47.228	13.303	1335.609	1015.683
48.242	13.269	1334.677	1014.673
49.257	13.266	1333.020	1013.308
50.271	13.165	1332.110	1011.908
51.286	13.213	1330.556	1010.931
52.301	13.215	1329.352	1009.939
53.315	13.256	1328.353	1009.345
54.330	13.176	1327.199	1007.888
55.344	13.193	1325.816	1006.854
56.359	13.187	1324.917	1006.041
57.374	13.142	1324.131	1005.084
58.388	13.169	1323.070	1004.352
59.403	13.084	1322.699	1003.470
60.417	13.115	1321.933	1002.988
61.432	13.086	1320.806	1001.864
62.447	12.987	1319.923	1000.508
63.461	12.991	1318.998	999.744
64.476	12.951	1317.844	998.538
65.490	12.942	1316.542	997.407
66.505	12.978	1315.001	996.367
67.520	13.119	1313.256	995.810
68.534	13.028	1312.892	994.897
69.549	13.058	1311.604	994.014
70.563	13.069	1310.903	993.462
71.578	12.953	1309.644	991.721
72.593	12.997	1308.744	991.218
73.607	12.964	1307.483	989.977
74.622	12.911	1307.112	989.291
75.636	12.904	1305.967	988.289
76.651	13.052	1304.871	988.264
77.666	12.997	1304.688	987.708
78.680	12.981	1304.701	987.532
79.695	12.970	1303.268	986.296
80.709	12.887	1303.063	985.554
81.724	13.078	1301.979	985.792
82.739	13.182	1300.903	985.509
83.753	13.228	1300.035	985.037
84.768	13.190	1299.265	984.143
85.782	13.241	1298.153	983.514
86.797	13.287	1296.548	982.485
87.812	13.299	1295.132	981.396
88.826	13.176	1294.246	979.909
89.841	13.214	1293.350	979.372
90.855	13.317	1292.391	979.165
91.870	13.277	1291.256	977.985
92.884	13.379	1290.515	977.937
93.899	13.196	1290.184	976.521
94.914	13.289	1288.880	975.992
95.928	13.375	1288.157	975.869
96.943	13.243	1287.724	974.675
97.957	13.333	1286.562	974.242
98.972	13.302	1285.348	973.051
99.987	13.245	1284.247	971.799
101.001	13.204	1283.433	970.854
102.016	13.264	1282.626	970.511
103.030	13.475	1281.117	970.523
104.045	13.296	1280.646	969.026
105.060	13.259	1279.729	968.031
106.074	13.231	1278.541	966.886
107.089	13.180	1277.200	965.488
108.103	13.101	1276.026	964.051
109.118	13.049	1274.885	962.805
110.133	13.088	1273.409	961.830
111.147	13.131	1272.237	961.110
112.162	13.121	1270.867	959.933
113.176	13.175	1269.875	959.408
114.191	13.139	1269.091	958.526
115.206	13.239	1267.733	957.991
116.220	13.193	1266.296	956.555
117.235	13.201	1265.248	955.728
118.249	13.042	1265.031	954.556
119.264	13.126	1263.409	953.736
120.279	13.254	1262.018	953.338
121.293	13.167	1261.017	951.998
122.308	13.050	1260.241	950.653
123.322	13.121	1259.663	950.542
124.337	13.112	1258.479	949.512
125.352	13.070	1257.527	948.471
126.366	13.053	1256.210	947.296
127.381	13.056	1255.289	946.535
128.395	13.117	1254.081	945.885
129.410	13.126	1253.338	945.294
130.424	13.153	1252.973	945.092
131.439	13.139	1251.707	943.971
132.454	13.211	1250.714	943.553
133.468	13.184	1250.425	943.097
134.483	13.287	1249.336	942.777
135.497	13.245	1248.255	941.641
136.512	13.298	1247.208	941.071
137.527	13.138	1246.312	939.400
138.541	13.197	1244.359	938.181
139.556	13.239	1242.814	937.166
140.570	13.302	1242.115	936.915
141.585	13.292	1240.729	935.733
142.600	13.465	1239.583	935.760
143.614	13.369	1238.446	934.280
144.629	13.423	1237.198	933.557
145.643	13.351	1236.398	932.466
146.658	13.306	1234.930	931.023
147.673	13.284	1234.039	930.146
148.687	13.224	1232.863	928.838
149.702	13.250	1230.982	927.486
150.716	13.244	1229.887	926.548
151.731	13.294	1228.837	925.954
152.746	13.282	1227.750	924.983
153.760	13.365	1226.402	924.353
154.775	13.422	1225.194	923.676
155.789	13.474	1223.664	922.732
156.804	13.521	1222.922	922.351
157.819	13.510	1221.990	921.506
158.833	13.550	1221.396	921.199
159.848	13.633	1220.028	920.546
160.862	13.475	1219.672	919.321
161.877	13.408	1218.548	918.019
162.892	13.467	1217.249	917.289
163.906	13.375	1216.426	916.076
164.921	13.462	1215.120	915.492
165.935	13.490	1214.688	915.241
166.950	13.485	1213.913	914.548
167.964	13.481	1213.277	913.966
168.979	13.395	1212.394	912.744
169.994	13.528	1211.804	912.956
171.008	13.523	1210.861	912.135
172.023	13.573	1210.160	911.804
173.037	13.567	1209.306	911.045
174.052	13.611	1208.265	910.424
175.067	13.542	1207.396	909.307
176.081	13.515	1206.337	908.280
177.096	13.471	1205.353	907.222
178.110	13.439	1204.487	906.313
179.125	13.642	1203.238	906.401
180.140	13.581	1202.363	905.329
181.154	13.617	1200.827	904.290
182.169	13.576	1199.904	903.289
183.183	13.636	1198.675	902.614
184.198	13.656	1197.441	901.711
185.213	13.767	1196.226	901.320
186.227	13.748	1195.465	900.564
187.242	13.883	1194.380	900.400
188.256	13.877	1193.190	899.391
189.271	13.877	1192.443	898.746
190.286	13.734	1191.233	896.985
191.300	13.588	1190.531	895.584
192.315	13.594	1189.829	895.012
193.329	13.609	1189.322	894.630
194.344	13.579	1188.466	893.747
195.359	13.617	1188.020	893.538
196.373	13.749	1187.726	893.951
197.388	13.724	1187.289	893.408
198.402	13.931	1186.136	893.571
199.417	14.027	1185.856	893.801
200.432	14.008	1185.388	893.265
201.446	13.985	1184.097	892.089
202.461	13.989	1183.610	891.668
203.475	14.049	1182.593	891.142
204.490	13.913	1181.245	889.321
205.504	13.928	1179.860	888.279
206.519	13.987	1178.262	887.311
207.534	14.004	1177.463	886.720
208.548	13.880	1176.988	885.624
209.563	14.071	1176.040	885.849
210.577	13.982	1174.954	884.479
211.592	14.041	1174.193	884.140
212.607	14.191	1173.488	884.330
213.621	14.133	1172.351	883.089
214.636	14.118	1171.518	882.305
215.650	14.133	1170.757	881.731
216.665	14.181	1169.617	881.050
217.680	14.196	1168.569	880.261
218.694	14.167	1168.403	879.906
219.709	14.126	1167.617	879.020
220.723	14.180	1166.742	878.566
221.738	14.172	1166.357	878.157
222.753	14.227	1165.380	877.635
223.767	14.222	1164.917	877.183
224.782	14.312	1163.973	876.868
225.796	14.277	1163.513	876.257
226.811	14.290	1163.007	875.866
227.826	14.361	1162.262	875.601
228.840	14.356	1161.328	874.794
229.855	14.190	1160.672	873.355
230.869	14.384	1159.649	873.523
231.884	14.272	1159.038	872.400
232.899	14.231	1158.677	871.836
233.913	14.351	1157.354	871.389
234.928	14.251	1156.915	870.460
235.942	14.292	1155.451	869.493
236.957	14.197	1155.174	868.714
237.972	14.224	1154.235	868.074
238.986	14.295	1154.037	868.215
240.001	14.329	1153.171	867.667
241.015	14.364	1151.999	866.886
242.030	14.279	1151.467	865.972
243.045	14.360	1150.726	865.755
244.059	14.460	1149.376	865.181
245.074	14.456	1149.060	864.847
246.088	14.443	1148.503	864.286
247.103	14.512	1148.190	864.328
248.117	14.579	1146.967	863.679
249.132	14.609	1146.203	863.184
250.147	14.640	1145.770	862.943
251.161	14.814	1144.501	862.809
252.176	14.787	1143.837	862.091
253.190	14.727	1143.851	861.714
254.205	14.709	1143.160	861.026
255.220	14.791	1142.757	861.071
256.234	14.882	1141.548	860.549
257.249	14.808	1141.279	859.890
258.263	14.895	1140.027	859.319
259.278	14.888	1139.357	858.701
260.293	14.773	1139.636	858.245
261.307	14.865	1138.525	857.804
262.322	14.984	1137.911	857.875
263.336	14.933	1137.282	857.065
264.351	14.967	1136.492	856.570
265.366	14.919	1136.081	855.934
266.380	15.035	1134.966	855.614
267.395	14.933	1134.384	854.579
268.409	14.888	1133.615	853.692
269.424	14.919	1133.011	853.321
270.439	15.001	1132.613	853.365
271.453	14.834	1132.166	852.102
272.468	14.963	1130.636	851.529
273.482	14.997	1130.035	851.175
274.497	14.856	1130.073	850.409
275.512	14.991	1128.829	850.083
276.526	15.055	1128.141	849.815
277.541	15.021	1127.492	849.081
278.555	15.128	1126.443	848.760
279.570	15.136	1126.527	848.786
280.585	15.205	1125.063	847.959
281.599	15.111	1124.559	847.027
282.614	15.170	1123.411	846.387
283.628	15.113	1122.382	845.249
284.643	15.167	1121.293	844.626
285.657	15.139	1120.665	843.939
286.672	15.178	1119.776	843.389
287.687	15.166	1119.228	842.840
288.701	15.170	1118.441	842.195
289.716	15.142	1117.677	841.402
290.730	15.270	1116.753	841.274
291.745	15.221	1116.353	840.655
292.760	15.304	1115.536	840.379
293.774	15.298	1115.063	839.919
294.789	15.308	1114.709	839.630
295.803	15.363	1113.741	839.099
296.818	15.401	1112.768	838.481
297.833	15.383	1112.037	837.771
298.847	15.292	1111.414	836.771
299.862	15.332	1110.865	836.485
300.876	15.373	1110.137	836.064
301.891	15.399	1109.739	835.821
302.906	15.489	1108.688	835.405
303.920	15.622	1108.145	835.580
304.935	15.490	1107.850	834.627
305.949	15.618	1106.933	834.498
306.964	15.610	1106.279	833.893
307.979	15.582	1105.506	833.100
308.993	15.614	1104.364	832.324
310.008	15.691	1103.923	832.297
311.022	15.585	1103.042	831.038
312.037	15.692	1101.838	830.582
313.052	15.596	1101.353	829.671
314.066	15.529	1100.366	828.525
315.081	15.468	1099.430	827.443
316.095	15.550	1099.024	827.467
317.110	15.571	1098.172	826.860
318.125	15.552	1097.384	826.100
319.139	15.566	1096.928	825.748
320.154	15.453	1096.316	824.662
321.168	15.632	1095.400	824.777
322.183	15.645	1095.039	824.497
323.197	15.662	1094.297	823.951
324.212	15.654	1094.251	823.799
325.227	15.630	1093.107	822.749
326.241	15.649	1092.681	822.450
327.256	15.690	1091.913	821.998
328.270	15.749	1090.763	821.351
329.285	15.760	1090.091	820.825
330.300	15.702	1089.311	819.881
331.314	15.703	1088.464	819.177
332.329	15.678	1087.316	818.117
333.343	15.731	1086.312	817.547
334.358	15.727	1085.688	816.984
335.373	15.847	1084.655	816.719
336.387	15.878	1083.565	815.976
337.402	15.845	1083.114	815.405
338.416	15.833	1083.000	815.187
339.431	15.976	1081.902	814.983
340.446	15.921	1081.722	814.509
341.460	15.929	1081.178	814.068
342.475	16.083	1079.866	813.747
343.489	16.063	1079.101	813.002
344.504	16.082	1077.986	812.182
345.519	16.109	1077.298	811.724
346.533	16.290	1076.297	811.768
347.548	16.258	1075.708	811.097
348.562	16.290	1074.967	810.619
349.577	16.318	1074.101	810.032
350.592	16.040	1073.935	808.498
351.606	16.131	1073.169	808.286
352.621	16.111	1072.548	807.652
353.635	16.092	1071.769	806.903
354.650	16.037	1070.941	805.948
355.665	16.149	1070.116	805.787
356.679	16.119	1069.624	805.206
357.694	16.163	1068.852	804.762
358.708	16.300	1068.195	804.849
359.723	16.230	1067.580	803.979
360.738	16.353	1066.716	803.845
361.752	16.348	1066.407	803.517
362.767	16.194	1066.473	802.763
363.781	16.254	1065.156	801.986
364.796	16.339	1064.865	802.099
365.810	16.276	1064.538	801.481
366.825	16.326	1063.673	800.996
367.840	16.454	1063.414	801.336
368.854	16.382	1062.800	800.463
369.869	16.386	1061.685	799.574
370.883	16.434	1060.814	799.072
371.898	16.437	1060.154	798.518
372.913	16.473	1059.785	798.338
373.927	16.547	1059.037	798.055
374.942	16.498	1058.621	797.439
375.956	16.565	1057.889	797.135
376.971	16.469	1057.538	796.344
377.986	16.495	1057.008	795.999
379.000	16.575	1056.266	795.748
380.015	16.643	1056.036	795.823
381.029	16.672	1055.233	795.282
382.044	16.546	1054.864	794.344
383.059	16.760	1054.134	794.726
384.073	16.708	1053.383	793.848
385.088	16.879	1051.672	793.288
386.102	16.685	1051.278	792.012
387.117	16.662	1049.988	790.862
388.132	16.705	1049.610	790.709
389.146	16.696	1048.688	789.900
390.161	16.588	1047.789	788.653
391.175	16.806	1047.464	789.353
392.190	16.844	1046.739	788.914
393.205	16.917	1045.730	788.423
394.219	16.829	1045.086	787.461
395.234	16.862	1044.138	786.829
396.248	16.754	1043.531	785.802
397.263	16.805	1042.425	785.133
398.278	16.800	1041.500	784.347
399.292	16.763	1041.315	783.967
400.307	16.741	1040.154	782.922
401.321	16.784	1039.465	782.529
402.336	16.785	1039.065	782.166
403.350	16.835	1038.359	781.795
404.365	16.776	1037.955	781.151
405.380	16.889	1037.134	780.985
406.394	16.847	1036.503	780.246
407.409	17.060	1035.127	780.122
408.423	16.994	1034.869	779.551
409.438	17.020	1034.225	779.118
410.453	16.972	1033.545	778.317
411.467	17.086	1033.294	778.580
412.482	17.246	1032.025	778.292
413.496	17.184	1031.448	777.501
414.511	17.099	1030.927	776.651
415.526	17.289	1030.143	776.861
416.540	17.324	1030.018	776.858
417.555	17.218	1029.752	776.106
418.569	17.121	1029.131	775.124
419.584	17.251	1028.385	775.088
420.599	17.276	1027.983	774.828
421.613	99.824	1315.415	1447.018
422.628	91.292	1357.250	1447.125
