DTS Sentinel unit serial number:	SN413079Multiplexer serial number:	ORYXHardware model number:	OX4-SRSoftware version number:	ORYX F/W v4.00 Oryx Data Collector v3.7.2.0data status	okinstallation	princeton_trtdifferential loss correction	single-endedforward channel	channel 2reverse channel	N/Adate	2019/09/11time	16:13:11forward acquisition time	60.00reverse acquisition time	0.00gamma	496.2192k internal	0.2286k external	0.2286temperature offset calibration	1.0016default loss term (dB/km)	0.3790temperature slope calibration	1.0000multiplexer offset coefficient	1.0000multiplexer slope coefficient	1.0000fibre end	0.00T internal ref (°C)	43.31T ext. ref 1 (°C)	1.06T ext. ref 2 (°C)	39.69length (m)	temperature (°C)	Stokes	anti-Stokes-747.200	-200.000	-0.016	0.175
-746.185	800.000	0.103	0.339
-745.171	-157.758	0.379	-0.023
-744.156	185.458	-0.194	-0.295
-743.142	-102.012	0.185	-0.046
-742.127	-38.545	0.247	-0.134
-741.112	-45.394	-0.196	0.100
-740.098	-200.000	0.053	0.366
-739.083	77.475	0.090	-0.098
-738.069	4.419	0.240	0.180
-737.054	14.567	0.245	0.196
-736.039	239.139	-0.098	-0.167
-735.025	-106.728	0.432	0.098
-734.010	202.204	0.204	-0.322
-732.996	-150.966	-0.150	0.012
-731.981	245.931	-0.183	-0.317
-730.966	437.444	-0.179	-0.399
-729.952	-111.014	-0.147	0.031
-728.937	-56.316	-0.400	-0.182
-727.923	640.554	0.078	-0.203
-726.908	-200.000	0.047	0.241
-725.894	2.005	-0.170	0.126
-724.879	-200.000	0.040	0.202
-723.864	46.411	0.075	-0.071
-722.850	-200.000	-0.019	-0.106
-721.835	-200.000	-0.077	0.422
-720.821	-56.923	-0.228	0.103
-719.806	-48.583	0.138	-0.068
-718.791	-70.942	-0.185	0.071
-717.777	-200.000	-0.011	0.555
-716.762	-200.000	-0.014	-0.141
-715.748	-9.525	0.214	0.146
-714.733	800.000	-0.150	0.554
-713.718	422.576	-0.092	-0.202
-712.704	-200.000	-0.046	0.223
-711.689	-200.000	-0.010	0.126
-710.675	175.004	-0.141	-0.209
-709.660	93.420	0.091	-0.106
-708.645	112.826	-0.195	-0.242
-707.631	-43.259	-0.306	-0.158
-706.616	-173.520	-0.198	0.006
-705.602	800.000	0.129	-0.476
-704.587	-157.278	-0.208	-0.013
-703.572	52.160	-0.197	0.192
-702.558	136.398	0.185	-0.247
-701.543	-200.000	0.033	0.152
-700.529	-200.000	0.004	-0.138
-699.514	64.781	-0.105	0.108
-698.499	-200.000	0.014	0.184
-697.485	-80.060	0.161	0.055
-696.470	-200.000	-0.022	-0.199
-695.456	-101.753	-0.345	-0.085
-694.441	70.300	-0.197	0.209
-693.426	139.513	0.075	-0.101
-692.412	5.172	-0.133	-0.100
-691.397	-200.000	-0.064	-0.304
-690.383	-17.729	0.031	0.020
-689.368	-61.089	0.126	0.054
-688.354	88.059	0.188	-0.213
-687.339	69.644	0.258	-0.272
-686.324	-33.396	0.109	0.062
-685.310	-53.209	-0.292	0.137
-684.295	-200.000	-0.093	-0.465
-683.281	-200.000	0.001	-0.158
-682.266	123.627	0.117	0.150
-681.251	-151.086	-0.450	-0.035
-680.237	26.251	-0.115	-0.099
-679.222	353.780	0.092	0.186
-678.208	-99.103	-0.084	0.022
-677.193	-200.000	-0.009	-0.132
-676.178	225.937	-0.102	-0.169
-675.164	279.987	-0.076	-0.139
-674.149	-200.000	-0.034	-0.214
-673.135	545.530	0.096	-0.234
-672.120	-54.498	0.196	0.091
-671.105	-114.852	-0.044	0.009
-670.091	-102.872	-0.372	-0.090
-669.076	147.325	0.050	-0.069
-668.062	485.813	-0.101	-0.235
-667.047	-75.266	-0.252	-0.092
-666.032	-78.114	0.052	-0.018
-665.018	-68.647	0.154	-0.061
-664.003	-88.460	-0.166	0.051
-662.989	34.653	0.179	-0.160
-661.974	800.000	0.090	-0.312
-660.959	261.660	0.090	-0.159
-659.945	725.116	0.060	-0.163
-658.930	-200.000	-0.014	0.126
-657.916	117.868	0.167	-0.210
-656.901	-56.181	0.037	-0.017
-655.886	17.512	-0.108	0.088
-654.872	-87.061	0.072	0.022
-653.857	-157.769	-0.217	0.013
-652.843	-200.000	0.006	-0.133
-651.828	273.315	0.112	0.203
-650.814	10.645	0.153	-0.119
-649.799	800.000	0.082	-0.235
-648.784	-79.249	0.188	-0.065
-647.770	-1.479	-0.213	0.154
-646.755	-114.674	0.248	0.048
-645.741	337.626	-0.045	-0.090
-644.726	-120.910	-0.076	-0.013
-643.711	39.042	0.177	0.162
-642.697	800.000	0.035	-0.151
-641.682	800.000	-0.047	-0.182
-640.668	501.174	-0.033	0.079
-639.653	-130.135	0.172	0.024
-638.638	360.529	0.083	-0.171
-637.624	479.439	0.030	0.068
-636.609	-118.940	-0.177	-0.032
-635.595	-98.399	0.182	-0.048
-634.580	278.135	-0.095	0.174
-633.565	195.392	-0.042	0.065
-632.551	-200.000	-0.016	0.111
-631.536	-28.450	-0.148	0.087
-630.522	244.372	0.136	0.233
-629.507	25.207	-0.078	0.066
-628.492	-3.040	0.093	0.066
-627.478	-50.073	-0.026	0.013
-626.463	-200.000	-0.074	-0.000
-625.449	-200.000	0.003	0.277
-624.434	-150.261	0.343	-0.027
-623.419	472.988	-0.040	-0.093
-622.405	-116.417	-0.220	-0.042
-621.390	127.826	0.177	0.229
-620.376	-141.413	0.100	0.010
-619.361	12.644	-0.166	-0.131
-618.346	-36.921	0.046	-0.025
-617.332	800.000	0.024	0.072
-616.317	352.723	0.163	-0.330
-615.303	800.000	-0.010	-0.033
-614.288	-200.000	0.067	-0.367
-613.273	-46.823	-0.303	0.152
-612.259	12.792	-0.148	0.117
-611.244	-21.487	-0.088	-0.055
-610.230	59.998	-0.119	-0.120
-609.215	-103.574	-0.340	-0.081
-608.201	-200.000	-0.037	-0.422
-607.186	-200.000	-0.012	-0.419
-606.171	-16.614	0.245	-0.158
-605.157	265.016	-0.063	0.113
-604.142	-10.259	-0.274	-0.186
-603.128	-200.000	0.007	-0.256
-602.113	-61.372	-0.333	0.143
-601.098	218.618	-0.138	0.226
-600.084	-29.954	-0.243	0.141
-599.069	-71.738	-0.133	-0.051
-598.055	-200.000	0.021	0.390
-597.040	-47.602	0.350	-0.173
-596.025	-90.784	0.148	-0.044
-595.011	181.364	0.177	-0.265
-593.996	-148.904	0.165	-0.014
-592.982	-73.867	-0.224	0.083
-591.967	-69.563	-0.122	-0.048
-590.952	364.486	0.141	-0.289
-589.938	148.864	0.107	0.147
-588.923	17.575	-0.253	0.205
-587.909	-66.361	0.017	-0.007
-586.894	-64.838	-0.020	-0.008
-585.879	-200.000	0.015	-0.182
-584.865	-80.390	0.264	0.090
-583.850	-85.672	0.403	0.128
-582.836	-87.026	-0.199	0.062
-581.821	-54.185	0.138	-0.064
-580.806	-68.098	-0.121	-0.048
-579.792	9.049	0.257	0.198
-578.777	-200.000	-0.030	-0.142
-577.763	198.383	0.077	0.121
-576.748	-59.840	-0.105	-0.046
-575.733	82.134	0.198	0.219
-574.719	-200.000	0.004	0.031
-573.704	-200.000	-0.007	-0.147
-572.690	-174.816	-0.315	0.009
-571.675	117.455	-0.178	0.223
-570.661	682.911	-0.044	-0.117
-569.646	-200.000	-0.005	0.327
-568.631	267.273	0.017	-0.030
-567.617	-124.638	-0.127	-0.020
-566.602	-132.253	-0.314	0.041
-565.588	717.749	0.071	0.191
-564.573	666.228	-0.054	0.143
-563.558	-31.560	0.363	0.208
-562.544	-2.046	0.069	0.050
-561.529	549.310	-0.022	-0.054
-560.515	-200.000	-0.026	-0.137
-559.500	114.837	-0.190	-0.236
-558.485	233.830	0.136	-0.228
-557.471	75.925	0.137	0.147
-556.456	-200.000	-0.008	-0.280
-555.442	-148.301	-0.187	-0.016
-554.427	-200.000	0.056	0.261
-553.412	243.264	-0.101	0.173
-552.398	148.634	0.123	-0.169
-551.383	54.736	0.259	-0.254
-550.369	-7.518	0.142	0.098
-549.354	-200.000	0.022	0.236
-548.339	72.569	0.031	0.033
-547.325	-200.000	0.041	-0.285
-546.310	-200.000	0.041	0.324
-545.296	800.000	0.050	-0.166
-544.281	343.798	0.111	0.221
-543.266	128.813	-0.129	0.168
-542.252	-152.497	-0.154	-0.011
-541.237	232.351	0.203	0.339
-540.223	-145.528	0.234	-0.021
-539.208	-200.000	0.022	-0.107
-538.193	-3.399	-0.234	0.166
-537.179	-11.715	-0.156	-0.104
-536.164	485.679	0.143	0.331
-535.150	800.000	-0.095	-0.373
-534.135	-47.094	-0.171	-0.085
-533.121	-110.521	0.218	0.046
-532.106	-4.788	0.180	0.127
-531.091	-136.219	-0.112	-0.013
-530.077	-103.566	0.279	0.067
-529.062	-200.000	-0.017	-0.158
-528.048	20.400	0.204	-0.168
-527.033	5.716	0.038	-0.029
-526.018	-84.201	0.347	0.112
-525.004	99.339	0.199	-0.235
-523.989	-81.287	-0.420	0.141
-522.975	-21.917	-0.119	-0.073
-521.960	26.564	-0.130	-0.111
-520.945	-200.000	0.015	0.326
-519.931	273.091	-0.130	-0.233
-518.916	-39.384	0.125	0.067
-517.902	-200.000	-0.020	-0.121
-516.887	192.801	0.135	0.208
-515.872	-19.799	-0.220	-0.138
-514.858	-200.000	-0.033	-0.399
-513.843	32.204	-0.017	-0.015
-512.829	123.675	-0.090	-0.114
-511.814	-86.290	0.101	-0.032
-510.799	-124.733	0.309	0.049
-509.785	117.332	-0.043	0.054
-508.770	800.000	0.047	0.143
-507.756	534.554	0.148	0.356
-506.741	-89.420	0.271	0.081
-505.726	-35.572	-0.234	-0.129
-504.712	-60.815	0.345	-0.149
-503.697	154.155	0.162	-0.226
-502.683	226.603	-0.163	-0.269
-501.668	-200.000	-0.011	-0.173
-500.653	-142.325	0.290	0.029
-499.639	-16.353	-0.100	-0.064
-498.624	-112.241	0.115	0.023
-497.610	-127.404	-0.144	-0.021
-496.595	181.342	0.091	0.135
-495.581	-80.644	-0.306	-0.103
-494.566	140.730	-0.086	-0.116
-493.551	54.951	0.136	-0.133
-492.537	-19.467	-0.111	0.070
-491.522	-23.833	0.114	0.070
-490.508	800.000	-0.081	-0.235
-489.493	114.834	-0.193	-0.239
-488.478	-128.523	-0.166	-0.024
-487.464	-1.862	-0.187	-0.133
-486.449	561.782	-0.168	0.413
-485.435	-19.371	-0.087	-0.055
-484.420	63.021	-0.077	-0.078
-483.405	-58.433	0.320	-0.141
-482.391	-62.451	-0.392	-0.166
-481.376	460.381	0.046	0.103
-480.362	-39.846	0.133	-0.071
-479.347	-133.946	0.269	0.034
-478.332	800.000	0.101	0.284
-477.318	394.600	-0.093	-0.198
-476.303	-68.559	0.350	-0.138
-475.289	-161.005	0.334	0.018
-474.274	-7.081	-0.175	-0.120
-473.259	-129.453	-0.107	-0.015
-472.245	-44.538	0.203	-0.103
-471.230	173.622	0.127	0.186
-470.216	42.235	-0.119	-0.109
-469.201	178.908	0.006	0.008
-468.186	-56.966	-0.067	0.030
-467.172	-40.802	-0.522	-0.275
-466.157	636.311	-0.142	-0.366
-465.143	761.441	0.041	-0.113
-464.128	-53.629	0.452	0.209
-463.113	119.554	0.157	-0.198
-462.099	-77.693	-0.297	-0.104
-461.084	-97.038	-0.324	-0.086
-460.070	-97.778	-0.332	0.087
-459.055	-200.000	0.015	0.471
-458.040	-53.602	-0.346	-0.160
-457.026	-44.076	-0.244	0.124
-456.011	-140.005	-0.074	0.008
-454.997	800.000	-0.098	0.293
-453.982	-152.973	0.098	0.007
-452.968	-23.576	-0.126	0.077
-451.953	800.000	0.058	0.178
-450.938	-168.949	0.409	-0.016
-449.924	-8.755	0.097	0.066
-448.909	-106.601	0.374	-0.084
-447.895	-78.999	-0.181	0.062
-446.880	800.000	0.100	0.389
-445.865	-84.779	-0.056	0.018
-444.851	800.000	0.073	-0.241
-443.836	800.000	0.124	-0.349
-442.822	-200.000	-0.065	-0.347
-441.807	-22.836	0.162	0.099
-440.792	204.581	-0.138	0.217
-439.778	-133.777	-0.214	0.027
-438.763	159.656	-0.170	0.241
-437.749	-200.000	0.015	-0.083
-436.734	-200.000	0.065	0.371
-435.719	-131.380	-0.097	-0.013
-434.705	61.570	-0.142	0.143
-433.690	-181.011	-0.164	0.003
-432.676	-160.138	-0.153	-0.008
-431.661	-53.881	-0.181	0.084
-430.646	43.915	0.073	-0.068
-429.632	800.000	-0.022	-0.092
-428.617	-50.421	0.187	-0.090
-427.603	-142.067	-0.107	-0.011
-426.588	-112.341	-0.323	-0.066
-425.573	-200.000	0.007	0.057
-424.559	-108.608	0.215	-0.047
-423.544	324.981	-0.173	-0.335
-422.530	8.302	-0.168	-0.128
-421.515	-101.569	0.159	-0.039
-420.500	-14.883	0.369	-0.240
-419.486	-76.426	-0.229	0.082
-418.471	-123.869	-0.356	-0.057
-417.457	57.971	-0.148	-0.147
-416.442	274.866	-0.041	0.073
-415.428	133.131	-0.012	-0.016
-414.413	-200.000	0.081	-0.458
-413.398	800.000	-0.074	-0.239
-412.384	77.710	-0.199	-0.215
-411.369	-53.955	-0.161	0.074
-410.355	-73.512	-0.125	0.046
-409.340	726.493	-0.153	0.414
-408.325	-122.431	0.208	-0.034
-407.311	-200.000	-0.018	0.171
-406.296	328.959	-0.096	-0.186
-405.282	40.093	0.057	0.052
-404.267	-193.137	-0.134	0.001
-403.252	-150.422	0.098	-0.008
-402.238	31.590	-0.283	-0.246
-401.223	335.531	0.105	-0.205
-400.209	14.772	-0.295	0.234
-399.194	-200.000	-0.065	-0.299
-398.179	-135.596	0.249	0.030
-397.165	-41.336	0.475	-0.248
-396.150	-7.182	-0.085	-0.058
-395.136	6.739	0.142	-0.107
-394.121	-16.943	-0.127	0.081
-393.106	78.814	-0.087	0.095
-392.092	-80.985	0.195	-0.065
-391.077	-60.185	-0.255	0.110
-390.063	800.000	-0.233	0.695
-389.048	800.000	0.033	-0.116
-388.033	174.094	0.069	-0.101
-387.019	800.000	0.018	-0.058
-386.004	-200.000	0.012	-0.168
-384.990	-23.863	-0.253	0.153
-383.975	194.764	0.122	0.188
-382.960	-200.000	-0.032	0.295
-381.946	273.639	0.161	0.289
-380.931	-179.442	-0.264	-0.006
-379.917	-138.677	0.269	0.030
-378.902	113.676	-0.262	0.322
-377.888	20.422	0.113	-0.093
-376.873	800.000	-0.099	0.346
-375.858	-200.000	0.015	-0.121
-374.844	14.033	-0.303	-0.239
-373.829	-185.862	-0.088	-0.001
-372.815	-200.000	0.037	0.366
-371.800	120.524	0.070	0.088
-370.785	-134.105	-0.189	0.024
-369.771	-141.754	0.161	0.016
-368.756	-74.691	-0.121	-0.044
-367.742	800.000	0.045	-0.142
-366.727	-71.518	-0.127	-0.048
-365.712	800.000	-0.057	0.224
-364.698	-135.530	-0.161	-0.019
-363.683	551.026	-0.138	-0.334
-362.669	-131.572	0.064	-0.009
-361.654	79.774	-0.257	0.279
-360.639	91.449	0.092	-0.105
-359.625	426.467	0.108	0.236
-358.610	135.403	0.083	-0.109
-357.596	738.628	0.049	0.132
-356.581	95.590	0.089	-0.103
-355.566	736.004	-0.141	-0.381
-354.552	-66.450	-0.194	-0.078
-353.537	800.000	-0.005	0.015
-352.523	346.003	0.078	-0.154
-351.508	-192.618	-0.157	-0.001
-350.493	51.393	-0.118	-0.113
-349.479	-107.790	0.332	0.073
-348.464	800.000	0.023	-0.099
-347.450	336.501	-0.041	0.080
-346.435	699.898	-0.176	0.468
-345.420	800.000	0.080	0.334
-344.406	24.022	-0.207	0.172
-343.391	360.748	0.113	-0.228
-342.377	458.748	-0.017	0.038
-341.362	184.019	-0.162	0.242
-340.348	-70.483	-0.072	-0.028
-339.333	461.486	-0.085	-0.191
-338.318	-200.000	0.021	-0.113
-337.304	-92.769	-0.058	-0.016
-336.289	-200.000	-0.005	-0.024
-335.275	288.931	-0.144	-0.263
-334.260	-200.000	0.039	-0.287
-333.245	-81.024	-0.244	-0.082
-332.231	-89.377	0.165	-0.049
-331.216	-200.000	0.017	0.238
-330.202	247.454	-0.080	-0.137
-329.187	-9.243	0.128	0.086
-328.172	31.490	0.104	0.090
-327.158	328.449	0.020	0.038
-326.143	-200.000	-0.005	-0.280
-325.129	-200.000	0.004	-0.019
-324.114	-67.823	-0.260	-0.103
-323.099	-130.411	-0.203	-0.028
-322.085	26.955	0.177	0.150
-321.070	325.320	0.055	0.107
-320.056	-52.242	0.252	-0.118
-319.041	-21.337	0.093	0.057
-318.026	-80.536	0.105	-0.035
-317.012	-200.000	0.035	-0.304
-315.997	800.000	0.029	-0.107
-314.983	-105.222	-0.093	0.021
-313.968	88.198	0.186	0.208
-312.953	-31.915	0.297	-0.168
-311.939	-153.260	-0.298	-0.021
-310.924	-116.568	0.479	0.089
-309.910	187.467	-0.129	-0.195
-308.895	10.947	-0.264	0.203
-307.880	-200.000	0.069	0.323
-306.866	-153.541	-0.219	-0.015
-305.851	-200.000	-0.002	-0.032
-304.837	-200.000	-0.036	-0.377
-303.822	4.776	0.257	0.190
-302.807	46.140	0.362	0.338
-301.793	-170.307	-0.186	-0.007
-300.778	10.503	0.049	0.037
-299.764	41.007	-0.103	-0.094
-298.749	-124.240	-0.165	-0.026
-297.735	-30.550	-0.192	0.110
-296.720	133.687	0.087	0.113
-295.705	-103.910	-0.395	-0.093
-294.691	490.671	0.100	0.232
-293.676	-136.269	0.225	0.026
-292.662	-139.657	0.224	-0.024
-291.647	-77.406	0.334	-0.117
-290.632	235.266	0.237	0.395
-289.618	800.000	0.021	0.061
-288.603	418.034	-0.047	-0.102
-287.589	800.000	0.070	0.272
-286.574	11.235	0.043	0.034
-285.559	123.884	0.059	-0.075
-284.545	433.558	0.075	-0.163
-283.530	-33.750	0.256	-0.142
-282.516	89.226	0.319	0.358
-281.501	-139.503	0.276	0.030
-280.486	-148.494	-0.284	0.023
-279.472	-200.000	0.073	-0.445
-278.457	-200.000	0.039	0.199
-277.443	-200.000	-0.041	0.352
-276.428	-200.000	-0.020	0.113
-275.413	123.762	0.091	0.115
-274.399	-49.185	-0.115	0.055
-273.384	-200.000	0.040	0.178
-272.370	-11.163	0.094	0.063
-271.355	-45.902	-0.273	-0.136
-270.340	-200.000	-0.044	0.349
-269.326	-13.851	0.184	-0.120
-268.311	800.000	0.124	-0.394
-267.297	-200.000	0.039	0.194
-266.282	82.795	0.122	-0.133
-265.267	-42.279	0.066	-0.034
-264.253	-11.740	-0.196	-0.129
-263.238	800.000	0.072	0.211
-262.224	92.413	-0.115	0.131
-261.209	70.695	0.153	-0.159
-260.195	-133.112	0.167	-0.021
-259.180	800.000	-0.040	0.178
-258.165	-200.000	-0.012	-0.089
-257.151	-108.646	-0.179	0.039
-256.136	800.000	-0.074	0.207
-255.122	-11.761	0.069	0.045
-254.107	102.220	0.045	0.053
-253.092	369.857	0.119	-0.243
-252.078	-46.303	-0.210	0.104
-251.063	800.000	0.002	0.009
-250.049	55.465	0.191	-0.186
-249.034	735.378	-0.035	0.094
-248.019	318.632	0.110	0.209
-247.005	-1.242	-0.114	0.081
-245.990	31.040	0.211	0.182
-244.976	800.000	0.030	0.122
-243.961	190.500	-0.004	0.006
-242.946	-28.011	-0.320	-0.186
-241.932	-30.847	0.126	-0.072
-240.917	-79.231	-0.080	0.027
-239.903	-80.176	0.155	0.052
-238.888	172.062	-0.142	-0.205
-237.873	800.000	0.117	-0.456
-236.859	-35.362	0.423	-0.232
-235.844	-158.414	0.237	0.014
-234.830	-47.297	0.234	0.115
-233.815	479.914	0.023	-0.051
-232.800	241.777	-0.153	0.257
-231.786	267.994	-0.034	-0.060
-230.771	-116.274	0.191	0.036
-229.757	-23.222	0.282	0.170
-228.742	161.625	0.222	-0.313
-227.727	291.948	-0.093	0.170
-226.713	-32.446	0.233	-0.131
-225.698	80.595	0.327	-0.354
-224.684	-200.000	-0.004	0.301
-223.669	503.510	-0.017	0.040
-222.655	-45.881	-0.350	-0.174
-221.640	402.766	-0.060	0.128
-220.625	-155.965	-0.231	0.015
-219.611	800.000	0.017	0.051
-218.596	-76.976	-0.229	-0.080
-217.582	-15.229	-0.269	-0.173
-216.567	500.381	0.053	0.123
-215.552	275.150	-0.089	0.158
-214.538	-36.825	-0.232	0.125
-213.523	-120.295	-0.251	0.043
-212.509	55.334	0.063	0.061
-211.494	-105.673	0.205	-0.047
-210.479	-119.919	0.353	0.061
-209.465	168.558	0.123	-0.176
-208.450	-76.777	0.150	0.053
-207.436	800.000	-0.051	-0.172
-206.421	-18.240	0.007	0.004
-205.406	-17.734	-0.371	-0.234
-204.392	-200.000	0.051	-0.240
-203.377	-200.000	0.000	0.050
-202.363	187.584	-0.207	0.311
-201.348	-21.022	-0.061	-0.038
-200.333	382.431	0.055	0.113
-199.319	-200.000	-0.058	-0.310
-198.304	143.066	-0.030	0.041
-197.290	-124.254	0.239	0.038
-196.275	-200.000	-0.006	0.049
-195.260	-92.238	0.247	-0.070
-194.246	190.352	0.055	-0.082
-193.231	192.633	-0.097	-0.146
-192.217	-200.000	-0.013	0.145
-191.202	-14.748	0.192	0.124
-190.187	-71.418	-0.326	0.122
-189.173	15.666	0.177	-0.140
-188.158	-200.000	0.356	0.002
-187.144	-0.193	0.264	0.189
-186.129	-200.000	0.011	0.065
-185.114	-13.504	-0.158	0.103
-184.100	789.521	-0.097	-0.267
-183.085	-12.517	-0.269	-0.176
-182.071	54.225	-0.237	0.229
-181.056	91.030	0.246	0.277
-180.042	105.788	-0.148	0.176
-179.027	-181.566	-0.069	0.001
-178.012	-200.000	0.071	-0.338
-176.998	625.174	0.060	-0.152
-175.983	298.748	0.122	0.225
-174.969	74.987	0.028	0.030
-173.954	14.365	0.138	0.108
-172.939	27.525	0.124	-0.105
-171.925	20.256	-0.080	0.065
-170.910	89.739	0.167	-0.187
-169.896	213.399	0.079	0.125
-168.881	-100.874	0.141	0.035
-167.866	-87.479	0.048	0.015
-166.852	-17.286	0.024	0.015
-165.837	74.058	0.153	-0.161
-164.823	-46.117	-0.268	0.133
-163.808	-200.000	0.028	0.136
-162.793	-200.000	-0.021	0.459
-161.779	20.417	-0.252	0.205
-160.764	219.909	0.129	-0.208
-159.750	96.019	0.042	0.048
-158.735	134.397	-0.135	-0.175
-157.720	484.399	0.061	-0.140
-156.706	114.483	0.141	0.172
-155.691	800.000	0.094	0.295
-154.677	-145.254	-0.294	0.027
-153.662	800.000	-0.082	-0.349
-152.647	-116.368	-0.317	-0.059
-151.633	-200.000	-0.003	-0.016
-150.618	302.360	-0.073	0.136
-149.604	55.322	0.121	-0.117
-148.589	-107.409	0.106	-0.023
-147.574	-67.991	0.187	0.073
-146.560	-199.798	0.179	0.001
-145.545	-72.309	0.120	-0.045
-144.531	-62.868	-0.020	0.008
-143.516	517.885	0.057	-0.133
-142.502	-200.000	-0.002	-0.344
-141.487	-133.831	-0.131	-0.016
-140.472	-200.000	-0.044	-0.239
-139.458	-200.000	0.012	0.201
-138.443	86.844	-0.057	-0.063
-137.429	800.000	0.020	0.070
-136.414	84.215	0.128	0.140
-135.399	-165.368	0.032	0.001
-134.385	-200.000	0.021	0.485
-133.370	206.057	0.077	0.120
-132.356	10.919	-0.173	-0.132
-131.341	-92.831	0.133	0.037
-130.326	800.000	0.023	-0.076
-129.312	-67.422	0.287	-0.113
-128.297	127.634	0.128	0.163
-127.283	27.553	-0.163	-0.138
-126.268	-124.158	-0.162	0.025
-125.253	-22.732	0.075	0.045
-124.239	40.464	0.196	0.177
-123.224	85.682	-0.176	0.194
-122.210	-152.852	-0.282	0.020
-121.195	-200.000	0.025	-0.115
-120.180	36.517	0.142	-0.125
-119.166	-97.426	0.369	0.096
-118.151	-200.000	0.004	0.235
-117.137	115.280	-0.130	0.159
-116.122	-45.381	-0.144	0.071
-115.107	103.171	-0.037	-0.044
-114.093	-115.850	-0.194	-0.036
-113.078	-200.000	0.068	0.409
-112.064	800.000	0.086	0.258
-111.049	-200.000	-0.008	-0.223
-110.034	126.446	-0.156	0.198
-109.020	800.000	-0.096	-0.327
-108.005	196.715	0.127	-0.194
-106.991	-200.000	-0.044	-0.297
-105.976	394.629	-0.137	-0.286
-104.962	-200.000	0.015	-0.124
-103.947	26.717	-0.084	-0.071
-102.932	-162.698	0.143	0.007
-101.918	-79.636	0.185	-0.062
-100.903	-56.623	0.071	-0.031
-99.889	-27.070	-0.125	-0.073
-98.874	-148.704	0.322	0.026
-97.859	800.000	-0.063	-0.180
-96.845	-77.095	-0.354	-0.123
-95.830	-200.000	-0.027	0.254
-94.816	164.079	0.293	0.413
-93.801	-30.589	0.231	-0.131
-92.786	-168.347	0.113	0.004
-91.772	309.778	0.035	-0.065
-90.757	158.991	-0.191	-0.265
-89.743	-200.000	0.020	-0.157
-88.728	768.122	0.116	-0.316
-87.713	212.284	-0.102	-0.161
-86.699	657.552	0.022	-0.055
-85.684	-85.731	-0.346	0.108
-84.670	-41.904	-0.156	0.080
-83.655	135.503	0.073	0.096
-82.640	-200.000	-0.064	0.290
-81.626	25.422	0.209	0.174
-80.611	249.086	0.209	-0.354
-79.597	428.211	0.053	-0.114
-78.582	31.386	0.154	0.132
-77.567	162.044	-0.138	0.194
-76.553	299.644	0.078	0.143
-75.538	-21.934	-0.309	-0.188
-74.524	-65.847	-0.016	0.006
-73.509	13.735	-0.191	-0.148
-72.494	-200.000	0.027	-0.441
-71.480	-16.392	-0.038	0.024
-70.465	-200.000	0.028	-0.123
-69.451	800.000	-0.053	-0.187
-68.436	-200.000	-0.022	0.218
-67.422	-117.231	-0.126	-0.023
-66.407	-78.997	0.091	0.031
-65.392	-168.157	0.107	-0.004
-64.378	800.000	0.024	-0.085
-63.363	224.855	-0.109	0.176
-62.349	381.009	0.080	-0.163
-61.334	-37.352	-0.762	-0.407
-60.319	119.580	0.231	0.286
-59.305	-200.000	0.105	-1.025
-58.290	505.389	0.366	0.847
-57.276	407.584	0.816	1.723
-56.261	-200.000	72.447	527.732
-55.246	591.324	1284.042	3165.153
-54.232	146.689	2507.703	3365.580
-53.217	115.036	2341.799	2854.049
-52.203	53.203	1959.269	1874.151
-51.188	46.856	1746.764	1621.178
-50.173	43.864	1698.975	1553.853
-49.159	57.539	1730.883	1688.823
-48.144	64.133	1749.425	1757.662
-47.130	46.688	1714.222	1589.426
-46.115	43.241	1700.914	1550.592
-45.100	43.184	1695.914	1545.532
-44.086	43.162	1693.087	1542.732
-43.071	43.144	1690.923	1540.556
-42.057	43.085	1687.701	1537.113
-41.042	43.131	1685.951	1535.804
-40.027	43.111	1683.991	1533.811
-39.013	43.160	1682.364	1532.637
-37.998	43.227	1680.213	1531.125
-36.984	43.215	1679.195	1530.045
-35.969	43.304	1677.707	1529.309
-34.954	43.324	1675.974	1527.817
-33.940	43.372	1674.131	1526.440
-32.925	43.393	1672.181	1524.755
-31.911	43.337	1670.381	1522.637
-30.896	43.351	1668.715	1521.160
-29.881	43.234	1667.219	1518.857
-28.867	43.236	1665.559	1517.301
-27.852	43.233	1664.601	1516.344
-26.838	43.384	1662.176	1515.211
-25.823	43.242	1661.377	1513.354
-24.809	43.388	1659.429	1512.609
-23.794	43.315	1658.345	1511.017
-22.779	43.250	1656.895	1509.148
-21.765	43.310	1655.061	1507.871
-20.750	43.339	1653.335	1506.456
-19.736	43.333	1651.896	1505.038
-18.721	43.403	1649.965	1503.738
-17.706	43.373	1648.689	1502.294
-16.692	43.327	1647.206	1500.539
-15.677	43.373	1645.379	1499.161
-14.663	43.309	1644.728	1498.031
-13.648	43.316	1642.955	1496.411
-12.633	43.394	1641.313	1495.434
-11.619	43.336	1640.173	1493.903
-10.604	43.322	1638.302	1492.038
-9.590	43.295	1637.490	1491.037
-8.575	43.458	1635.634	1490.490
-7.560	43.393	1634.205	1488.650
-6.546	43.304	1633.552	1487.342
-5.531	43.329	1632.055	1486.104
-4.517	43.217	1630.997	1484.256
-3.502	43.312	1629.775	1483.785
-2.487	43.427	1628.025	1482.978
-1.473	43.420	1617.942	1473.685
-0.458	41.283	1598.571	1440.555
0.556	36.662	1596.561	1405.153
1.571	33.692	1620.107	1403.815
2.586	32.685	1634.563	1408.698
3.600	28.442	1580.406	1331.167
4.615	15.546	1458.932	1141.672
5.629	3.541	1381.712	1003.451
6.644	1.263	1370.637	980.615
7.659	1.034	1369.681	978.361
8.673	0.985	1368.162	976.879
9.688	0.958	1366.554	975.469
10.702	0.710	1363.762	971.797
11.717	4.698	1371.581	1003.030
12.731	15.980	1393.824	1092.765
13.746	23.798	1406.889	1153.890
14.761	24.632	1407.017	1159.305
15.775	24.734	1407.156	1159.977
16.790	24.844	1406.459	1160.013
17.804	24.895	1405.766	1159.672
18.819	25.086	1405.381	1160.490
19.834	25.120	1404.607	1159.964
20.848	25.177	1403.657	1159.443
21.863	25.197	1402.799	1158.762
22.877	25.170	1402.341	1158.107
23.892	25.263	1401.005	1157.502
24.907	25.213	1400.161	1156.380
25.921	25.266	1399.105	1155.749
26.936	25.217	1398.146	1154.539
27.950	25.130	1397.436	1153.289
28.965	25.225	1395.810	1152.454
29.980	25.210	1394.327	1151.031
30.994	25.168	1393.251	1149.776
32.009	25.152	1392.580	1149.015
33.023	25.109	1391.624	1147.847
34.038	25.155	1390.206	1146.871
35.053	25.134	1388.927	1145.580
36.067	25.092	1388.349	1144.738
37.082	25.178	1387.129	1144.178
38.096	25.187	1386.100	1143.284
39.111	25.105	1385.454	1142.128
40.126	25.138	1384.528	1141.472
41.140	25.184	1384.360	1141.526
42.155	25.127	1383.863	1140.655
43.169	25.132	1383.700	1140.453
44.184	25.118	1383.524	1140.114
45.199	25.080	1383.048	1139.383
46.213	25.110	1382.614	1139.114
47.228	25.137	1381.653	1138.391
48.242	25.158	1380.436	1137.423
49.257	25.123	1378.976	1135.900
50.271	25.180	1377.152	1134.655
51.286	25.192	1376.266	1133.897
52.301	25.260	1374.577	1132.839
53.315	25.155	1373.821	1131.452
54.330	25.209	1372.766	1130.824
55.344	25.104	1371.776	1129.247
56.359	25.163	1370.683	1128.615
57.374	25.199	1370.044	1128.216
58.388	25.217	1369.496	1127.778
59.403	25.105	1369.404	1126.903
60.417	25.100	1368.435	1125.973
61.432	25.158	1367.594	1125.546
62.447	25.073	1366.941	1124.374
63.461	25.174	1365.774	1123.944
64.476	25.202	1364.694	1123.136
65.490	25.132	1363.729	1121.803
66.505	25.227	1361.653	1120.586
67.520	25.192	1360.783	1119.559
68.534	25.075	1359.926	1118.022
69.549	25.111	1358.766	1117.193
70.563	25.223	1357.540	1116.785
71.578	25.258	1356.879	1116.358
72.593	25.226	1355.949	1115.299
73.607	25.236	1355.160	1114.609
74.622	25.339	1354.130	1114.305
75.636	25.161	1353.980	1112.980
76.651	25.190	1353.334	1112.529
77.666	25.199	1352.998	1112.207
78.680	25.151	1352.099	1111.074
79.695	25.192	1350.850	1110.200
80.709	25.158	1350.336	1109.475
81.724	25.171	1349.774	1108.995
82.739	25.245	1348.091	1107.970
83.753	25.171	1347.555	1106.975
84.768	25.114	1346.583	1105.726
85.782	25.155	1345.631	1105.098
86.797	25.220	1344.086	1104.134
87.812	25.175	1343.507	1103.283
88.826	25.168	1342.325	1102.171
89.841	25.203	1341.039	1101.233
90.855	25.132	1340.258	1100.060
91.870	25.278	1339.014	1099.834
92.884	25.235	1338.541	1099.085
93.899	25.205	1337.979	1098.345
94.914	25.195	1336.801	1097.217
95.928	25.278	1336.349	1097.254
96.943	25.315	1334.998	1096.276
97.957	25.196	1334.979	1095.436
98.972	25.219	1333.734	1094.459
99.987	25.199	1333.014	1093.648
101.001	25.237	1331.943	1092.902
102.016	25.238	1330.738	1091.825
103.030	25.338	1329.717	1091.502
104.045	25.274	1329.139	1090.542
105.060	25.278	1328.294	1089.778
106.074	25.177	1327.389	1088.325
107.089	25.260	1326.237	1087.786
108.103	25.269	1325.317	1086.987
109.118	25.307	1323.389	1085.539
110.133	25.280	1322.727	1084.736
111.147	25.154	1322.162	1083.419
112.162	25.284	1320.711	1082.920
113.176	25.225	1319.787	1081.706
114.191	25.220	1318.578	1080.594
115.206	25.215	1317.509	1079.591
116.220	25.314	1316.354	1079.142
117.235	25.272	1315.543	1078.130
118.249	25.294	1314.463	1077.282
119.264	25.292	1314.200	1076.962
120.279	25.235	1313.022	1075.558
121.293	25.324	1312.475	1075.549
122.308	25.303	1311.817	1074.788
123.322	25.289	1310.552	1073.574
124.337	25.410	1309.918	1073.678
125.352	25.300	1309.163	1072.312
126.366	25.356	1307.916	1071.529
127.381	25.436	1307.134	1071.269
128.395	25.345	1306.236	1069.898
129.410	25.328	1305.756	1069.307
130.424	25.316	1305.047	1068.562
131.439	25.229	1304.090	1067.164
132.454	25.382	1303.091	1067.162
133.468	25.339	1302.372	1066.221
134.483	25.399	1301.954	1066.146
135.497	25.357	1301.123	1065.118
136.512	25.365	1300.094	1064.231
137.527	25.366	1298.743	1063.035
138.541	25.444	1297.160	1062.106
139.556	25.321	1296.101	1060.421
140.570	25.290	1295.650	1059.775
141.585	25.360	1294.513	1059.160
142.600	25.318	1293.766	1058.211
143.614	25.365	1292.756	1057.566
144.629	25.405	1291.398	1056.601
145.643	25.261	1290.446	1054.880
146.658	25.236	1289.573	1053.928
147.673	25.256	1288.186	1052.818
148.687	25.310	1287.253	1052.278
149.702	25.180	1286.294	1050.638
150.716	25.232	1285.441	1050.156
151.731	25.258	1284.108	1049.121
152.746	25.251	1283.187	1048.239
153.760	25.193	1282.470	1047.222
154.775	25.331	1281.048	1046.772
155.789	25.303	1279.895	1045.576
156.804	25.301	1279.096	1044.815
157.819	25.292	1278.570	1044.244
158.833	25.426	1277.718	1044.232
159.848	25.319	1277.308	1043.183
160.862	25.301	1276.214	1042.093
161.877	25.354	1275.429	1041.666
162.892	25.394	1274.287	1040.874
163.906	25.394	1273.894	1040.461
164.921	25.452	1273.015	1039.987
165.935	25.467	1271.383	1038.649
166.950	25.380	1271.605	1038.236
167.964	25.417	1271.037	1037.894
168.979	25.339	1270.633	1037.022
169.994	25.429	1270.051	1036.972
171.008	25.430	1269.319	1036.292
172.023	25.330	1268.488	1034.943
173.037	25.431	1267.779	1034.858
174.052	25.409	1266.839	1033.871
175.067	25.504	1265.718	1033.407
176.081	25.437	1265.262	1032.559
177.096	25.473	1264.358	1031.937
178.110	25.342	1263.590	1030.471
179.125	25.455	1262.553	1030.181
180.140	25.412	1261.633	1029.092
181.154	25.333	1260.349	1027.502
182.169	25.490	1259.222	1027.390
183.183	25.428	1258.579	1026.419
184.198	25.443	1257.487	1025.522
185.213	25.534	1256.063	1024.790
186.227	25.449	1255.458	1023.720
187.242	25.525	1254.437	1023.233
188.256	25.524	1253.607	1022.456
189.271	25.458	1252.817	1021.345
190.286	25.545	1252.284	1021.319
191.300	25.403	1252.132	1020.294
192.315	25.473	1251.300	1019.923
193.329	25.474	1251.032	1019.625
194.344	25.607	1250.152	1019.570
195.359	25.536	1249.832	1018.816
196.373	25.440	1249.489	1017.902
197.388	25.491	1248.744	1017.493
198.402	25.434	1248.565	1016.937
199.417	25.463	1248.621	1017.053
200.432	25.541	1247.215	1016.259
201.446	25.507	1246.573	1015.454
202.461	25.504	1245.853	1014.761
203.475	25.515	1245.459	1014.415
204.490	25.442	1244.699	1013.290
205.504	25.495	1243.442	1012.480
206.519	25.569	1242.157	1011.757
207.534	25.574	1241.139	1010.869
208.548	25.601	1240.425	1010.347
209.563	25.596	1239.703	1009.644
210.577	25.561	1238.992	1008.776
211.592	25.584	1238.020	1008.025
212.607	25.720	1237.041	1007.901
213.621	25.660	1236.382	1006.939
214.636	25.622	1235.782	1006.151
215.650	25.693	1234.520	1005.431
216.665	25.658	1233.724	1004.498
217.680	25.617	1232.710	1003.354
218.694	25.625	1232.409	1003.063
219.709	25.723	1231.338	1002.648
220.723	25.614	1231.222	1001.860
221.738	25.630	1230.331	1001.134
222.753	25.509	1229.244	999.489
223.767	25.555	1228.984	999.444
224.782	25.640	1228.645	999.552
225.796	25.753	1227.957	999.532
226.811	25.791	1226.845	998.749
227.826	25.659	1226.855	997.940
228.840	25.639	1226.312	997.298
229.855	25.617	1225.323	996.282
230.869	25.774	1224.525	996.414
231.884	25.721	1223.904	995.526
232.899	25.682	1223.092	994.565
233.913	25.648	1222.916	994.143
234.928	25.837	1221.962	994.324
235.942	25.779	1221.497	993.541
236.957	25.846	1220.999	993.415
237.972	25.827	1220.128	992.513
238.986	25.732	1219.162	991.115
240.001	25.910	1218.659	991.598
241.015	25.935	1217.858	990.995
242.030	25.834	1217.504	990.068
243.045	25.850	1216.486	989.241
244.059	25.928	1215.652	988.899
245.074	25.926	1214.592	987.938
246.088	25.895	1214.133	987.312
247.103	25.911	1213.479	986.780
248.117	25.932	1212.390	985.918
249.132	25.985	1211.751	985.601
250.147	25.949	1211.145	984.829
251.161	25.921	1210.604	984.146
252.176	25.946	1209.613	983.390
253.190	25.899	1209.383	982.858
254.205	25.919	1208.800	982.410
255.220	26.032	1207.722	982.063
256.234	25.974	1207.481	981.461
257.249	26.063	1206.906	981.391
258.263	25.957	1206.284	980.225
259.278	25.970	1205.593	979.646
260.293	26.120	1204.632	979.593
261.307	26.010	1204.599	978.883
262.322	26.057	1204.017	978.578
263.336	26.014	1203.375	977.733
264.351	26.064	1202.761	977.420
265.366	26.168	1201.769	977.089
266.380	26.036	1201.186	975.816
267.395	26.045	1200.806	975.467
268.409	25.982	1200.107	974.478
269.424	26.054	1199.411	974.216
270.439	25.954	1199.466	973.630
271.453	26.005	1198.466	973.010
272.468	26.059	1197.140	972.135
273.482	26.146	1196.518	972.016
274.497	26.095	1196.113	971.327
275.512	26.055	1196.218	971.108
276.526	26.129	1195.045	970.467
277.541	26.081	1194.427	969.624
278.555	26.165	1193.708	969.403
279.570	26.160	1193.059	968.764
280.585	26.197	1192.025	968.037
281.599	26.137	1191.206	966.967
282.614	26.169	1190.544	966.515
283.628	26.067	1189.953	965.405
284.643	26.204	1188.303	964.712
285.657	26.253	1187.358	964.121
286.672	26.243	1186.910	963.615
287.687	26.226	1186.027	962.723
288.701	26.262	1185.738	962.596
289.716	26.391	1184.603	962.278
290.730	26.338	1184.045	961.458
291.745	26.358	1183.629	961.139
292.760	26.229	1183.227	960.040
293.774	26.304	1182.550	959.807
294.789	26.269	1182.210	959.260
295.803	26.257	1181.649	958.654
296.818	26.386	1180.642	958.437
297.833	26.405	1179.764	957.742
298.847	26.275	1179.392	956.666
299.862	26.314	1178.751	956.268
300.876	26.415	1177.850	955.989
301.891	26.390	1177.103	955.163
302.906	26.389	1176.544	954.618
303.920	26.436	1175.672	954.076
304.935	26.454	1175.327	953.805
305.949	26.320	1174.705	952.511
306.964	26.521	1174.208	953.083
307.979	26.454	1173.302	951.909
308.993	26.484	1172.623	951.434
310.008	26.542	1171.838	951.016
311.022	26.536	1171.418	950.558
312.037	26.508	1170.648	949.703
313.052	26.544	1169.613	948.971
314.066	26.453	1168.973	947.892
315.081	26.478	1167.770	946.961
316.095	26.439	1167.833	946.725
317.110	26.461	1166.906	946.003
318.125	26.524	1166.279	945.739
319.139	26.516	1165.599	945.062
320.154	26.540	1164.903	944.543
321.168	26.458	1164.257	943.508
322.183	26.666	1163.603	943.978
323.197	26.493	1163.493	942.904
324.212	26.515	1163.033	942.562
325.227	26.533	1162.270	941.955
326.241	26.639	1161.347	941.673
327.256	26.565	1160.556	940.562
328.270	26.626	1160.032	940.371
329.285	26.644	1159.000	939.547
330.300	26.745	1157.987	939.165
331.314	26.727	1157.443	938.549
332.329	26.626	1156.934	937.530
333.343	26.588	1156.068	936.548
334.358	26.641	1155.185	936.022
335.373	26.739	1154.594	935.970
336.387	26.844	1153.688	935.691
337.402	26.822	1153.311	935.193
338.416	26.786	1152.540	934.295
339.431	26.747	1152.071	933.634
340.446	26.729	1151.452	932.957
341.460	26.786	1150.837	932.668
342.475	26.792	1150.225	932.121
343.489	26.853	1148.985	931.348
344.504	26.778	1148.354	930.369
345.519	26.744	1147.564	929.469
346.533	26.878	1146.733	929.402
347.548	26.824	1146.433	928.799
348.562	26.928	1145.242	928.285
349.577	26.944	1144.833	927.955
350.592	26.821	1143.890	926.480
351.606	26.844	1143.381	926.099
352.621	26.796	1142.729	925.249
353.635	26.889	1142.076	925.111
354.650	26.929	1141.409	924.693
355.665	26.971	1140.747	924.289
356.679	26.975	1139.987	923.610
357.694	26.960	1139.598	923.137
358.708	26.928	1139.034	922.438
359.723	26.894	1138.244	921.545
360.738	26.898	1137.889	921.195
361.752	27.023	1136.891	920.939
362.767	27.062	1136.280	920.558
363.781	27.056	1135.816	920.071
364.796	27.031	1135.378	919.510
365.810	27.035	1134.848	919.017
366.825	27.044	1134.252	918.498
367.840	27.154	1133.959	918.736
368.854	27.115	1133.459	918.055
369.869	27.145	1132.356	917.229
370.883	27.170	1131.294	916.413
371.898	27.123	1130.608	915.541
372.913	27.150	1130.291	915.339
373.927	27.164	1129.970	915.070
374.942	27.270	1128.908	914.662
375.956	27.211	1128.668	914.088
376.971	27.214	1128.161	913.614
377.986	27.235	1127.507	913.110
379.000	27.167	1127.449	912.639
380.015	27.253	1127.026	912.646
381.029	27.169	1126.124	911.414
382.044	27.224	1125.333	910.971
383.059	27.245	1124.574	910.381
384.073	27.342	1123.740	910.111
385.088	27.334	1122.891	909.300
386.102	27.284	1122.318	908.507
387.117	27.221	1121.528	907.474
388.132	27.302	1120.672	907.106
389.146	27.313	1119.914	906.463
390.161	27.265	1119.724	905.993
391.175	27.412	1118.580	905.716
392.190	27.360	1117.866	904.802
393.205	27.341	1117.532	904.357
394.219	27.253	1116.470	902.977
395.234	27.452	1115.584	903.173
396.248	27.364	1114.950	902.140
397.263	27.422	1113.981	901.563
398.278	27.502	1113.583	901.559
399.292	27.524	1112.868	901.010
400.307	27.589	1112.387	900.860
401.321	27.543	1111.654	899.961
402.336	27.530	1110.717	899.060
403.350	27.473	1110.335	898.386
404.365	27.528	1109.239	897.691
405.380	27.511	1108.906	897.261
406.394	27.513	1108.163	896.590
407.409	27.646	1107.119	896.320
408.423	27.702	1106.759	896.223
409.438	27.580	1106.127	895.035
410.453	27.559	1106.004	894.753
411.467	27.751	1104.789	894.632
412.482	27.604	1104.035	893.221
413.496	27.722	1103.403	893.209
414.511	27.635	1102.978	892.358
415.526	27.565	1102.340	891.422
416.540	27.649	1101.780	891.298
417.555	27.753	1101.074	891.160
418.569	27.645	1101.074	890.551
419.584	27.658	1100.534	890.100
420.599	27.793	1099.981	890.231
421.613	78.457	1283.735	1317.466
422.628	73.432	1310.526	1317.607
