DTS Sentinel unit serial number:	SN413079Multiplexer serial number:	ORYXHardware model number:	OX4-SRSoftware version number:	ORYX F/W v4.00 Oryx Data Collector v3.7.2.0data status	okinstallation	princeton_trtdifferential loss correction	single-endedforward channel	channel 2reverse channel	N/Adate	2019/09/17time	12:03:35forward acquisition time	60.00reverse acquisition time	0.00gamma	496.2192k internal	0.2323k external	0.2323temperature offset calibration	0.9991default loss term (dB/km)	0.3790temperature slope calibration	1.0000multiplexer offset coefficient	1.0000multiplexer slope coefficient	1.0000fibre end	0.00T internal ref (°C)	31.16T ext. ref 1 (°C)	0.42T ext. ref 2 (°C)	27.30length (m)	temperature (°C)	Stokes	anti-Stokes-747.200	-161.989	0.045	-0.002
-746.185	-129.659	-0.204	0.028
-745.171	-136.816	0.196	-0.023
-744.156	222.679	0.203	0.330
-743.142	-51.574	-0.276	0.130
-742.127	53.913	0.163	0.158
-741.112	-108.465	0.259	0.056
-740.098	800.000	0.096	0.275
-739.083	169.351	-0.124	0.178
-738.069	482.424	-0.045	0.104
-737.054	6.809	-0.349	-0.262
-736.039	-109.872	-0.753	-0.160
-735.025	-82.654	0.218	0.071
-734.010	-68.122	-0.160	0.063
-732.996	38.965	-0.472	-0.426
-731.981	-15.946	0.115	0.074
-730.966	800.000	-0.080	-0.240
-729.952	-135.767	-0.528	-0.063
-728.937	800.000	-0.055	-0.217
-727.923	7.403	0.081	-0.061
-726.908	87.159	0.117	0.131
-725.894	100.293	-0.249	-0.292
-724.879	305.742	-0.104	-0.195
-723.864	-130.893	-0.188	0.025
-722.850	30.625	0.160	0.138
-721.835	800.000	0.071	-0.263
-720.821	-47.758	-0.124	-0.060
-719.806	800.000	-0.076	0.264
-718.791	-200.000	0.011	0.194
-717.777	800.000	-0.055	-0.199
-716.762	-3.736	0.177	-0.124
-715.748	-140.298	-0.433	0.046
-714.733	56.213	-0.085	-0.083
-713.718	-200.000	-0.032	0.366
-712.704	-69.798	0.276	0.106
-711.689	167.318	0.049	-0.070
-710.675	-121.025	-0.320	-0.054
-709.660	-200.000	0.016	-0.136
-708.645	111.361	-0.115	0.140
-707.631	31.016	-0.216	0.187
-706.616	-138.369	-0.378	0.042
-705.602	-186.637	0.154	-0.002
-704.587	-24.459	-0.083	-0.050
-703.572	350.569	-0.159	0.318
-702.558	-72.957	0.313	-0.116
-701.543	-200.000	0.055	0.252
-700.529	394.761	0.123	-0.259
-699.514	-200.000	0.101	0.000
-698.499	383.253	0.053	0.110
-697.485	202.152	0.079	-0.123
-696.470	-126.773	-0.245	-0.037
-695.456	1.290	0.033	-0.024
-694.441	-77.830	0.166	0.058
-693.426	366.365	0.100	0.202
-692.412	-200.000	0.001	-0.145
-691.397	31.528	0.151	-0.131
-690.383	-15.342	0.067	0.043
-689.368	227.191	-0.108	0.177
-688.354	448.790	-0.097	0.216
-687.339	-87.656	0.074	-0.022
-686.324	-163.470	-0.243	0.012
-685.310	-91.587	0.288	0.083
-684.295	800.000	0.073	0.284
-683.281	-51.528	0.148	-0.070
-682.266	13.142	-0.071	-0.056
-681.251	15.917	-0.325	-0.258
-680.237	-169.292	-0.290	0.011
-679.222	250.343	0.076	-0.129
-678.208	-30.480	-0.367	-0.209
-677.193	-44.560	-0.298	-0.150
-676.178	-21.354	0.203	0.125
-675.164	800.000	0.069	0.259
-674.149	-200.000	-0.030	-0.397
-673.135	-200.000	0.012	0.057
-672.120	-200.000	-0.006	-0.144
-671.105	-115.056	0.121	-0.023
-670.091	800.000	-0.085	0.281
-669.076	236.784	-0.202	0.337
-668.062	-200.000	-0.000	0.078
-667.047	99.133	0.082	-0.095
-666.032	-78.981	0.114	-0.039
-665.018	-200.000	0.021	-0.105
-664.003	-200.000	0.014	0.083
-662.989	50.709	0.077	0.073
-661.974	800.000	-0.037	-0.120
-660.959	117.090	0.029	0.035
-659.945	473.891	0.030	0.068
-658.930	329.246	-0.021	-0.040
-657.916	20.735	0.316	0.258
-656.901	109.958	-0.159	-0.192
-655.886	87.723	-0.099	0.110
-654.872	-119.795	0.212	-0.037
-653.857	-116.389	0.253	0.047
-652.843	800.000	0.077	-0.270
-651.828	-194.415	0.195	0.002
-650.814	-200.000	0.002	-0.130
-649.799	800.000	0.043	-0.152
-648.784	800.000	-0.052	0.211
-647.770	-125.049	-0.154	0.024
-646.755	341.474	0.147	-0.289
-645.741	-55.671	0.170	-0.076
-644.726	-63.734	-0.046	-0.019
-643.711	-125.447	-0.186	0.028
-642.697	-21.688	-0.214	0.131
-641.682	-200.000	-0.015	-0.240
-640.668	-48.672	-0.163	-0.079
-639.653	509.840	0.084	0.197
-638.638	-200.000	0.012	0.167
-637.624	-93.388	0.334	-0.093
-636.609	74.157	-0.123	-0.130
-635.595	-76.214	0.193	-0.068
-634.580	800.000	-0.047	-0.168
-633.565	-92.441	0.359	-0.101
-632.551	-107.564	-0.425	0.094
-631.536	-131.279	-0.122	0.016
-630.522	-3.297	-0.165	-0.115
-629.507	-108.898	0.078	-0.017
-628.492	-200.000	-0.041	-0.296
-627.478	119.455	-0.159	-0.198
-626.463	102.567	-0.216	0.254
-625.449	-40.868	0.148	0.077
-624.434	123.562	0.153	0.193
-623.419	31.535	-0.152	-0.132
-622.405	19.251	0.157	0.127
-621.390	800.000	-0.066	-0.225
-620.376	-200.000	0.005	-0.044
-619.361	-92.433	-0.120	-0.034
-618.346	-200.000	0.015	-0.351
-617.332	-200.000	0.001	0.015
-616.317	38.582	-0.052	0.046
-615.303	57.221	0.231	0.226
-614.288	800.000	-0.066	0.244
-613.273	289.070	-0.048	-0.087
-612.259	-59.934	-0.151	0.065
-611.244	-23.691	0.131	0.079
-610.230	603.749	-0.091	0.228
-609.215	141.879	0.151	0.202
-608.201	-51.498	0.229	-0.107
-607.186	518.543	-0.020	-0.047
-606.171	667.521	0.110	0.286
-605.157	28.418	-0.178	-0.151
-604.142	-27.068	0.134	0.078
-603.128	-123.896	0.108	0.017
-602.113	-51.189	-0.166	0.078
-601.098	-200.000	-0.004	-0.139
-600.084	596.039	-0.099	0.245
-599.069	211.852	-0.097	0.153
-598.055	79.553	-0.072	0.078
-597.040	-200.000	-0.060	-0.361
-596.025	2.721	-0.054	-0.040
-595.011	137.327	0.141	-0.185
-593.996	-200.000	-0.013	0.331
-592.982	-200.000	0.005	-0.066
-591.967	624.451	0.032	0.081
-590.952	-103.393	0.037	0.009
-589.938	-3.792	0.437	-0.305
-588.923	130.550	-0.025	-0.032
-587.909	57.101	-0.165	-0.162
-586.894	-85.839	0.115	-0.036
-585.879	769.918	-0.061	0.167
-584.865	800.000	-0.117	0.352
-583.850	70.798	0.029	0.030
-582.836	800.000	-0.080	0.231
-581.821	70.693	-0.179	-0.186
-580.806	-136.495	-0.369	0.043
-579.792	84.162	0.162	0.178
-578.777	212.163	0.108	0.170
-577.763	-91.873	-0.119	0.034
-576.748	83.301	-0.108	0.118
-575.733	-37.489	0.342	-0.183
-574.719	43.857	0.255	-0.234
-573.704	-110.114	-0.220	-0.046
-572.690	-114.068	-0.478	-0.093
-571.675	-74.248	-0.391	-0.142
-570.661	-200.000	-0.016	-0.164
-569.646	-105.388	-0.270	-0.062
-568.631	-187.178	-0.115	0.002
-567.617	-106.315	0.063	-0.014
-566.602	-200.000	-0.023	-0.192
-565.588	-200.000	-0.353	0.001
-564.573	68.954	-0.273	0.281
-563.558	800.000	0.121	-0.370
-562.544	-127.624	-0.188	-0.027
-561.529	262.428	0.016	0.028
-560.515	-200.000	-0.019	0.326
-559.500	-30.013	0.215	-0.123
-558.485	-85.539	-0.303	0.095
-557.471	729.011	0.156	0.417
-556.456	24.354	-0.027	0.022
-555.442	-200.000	-0.015	-0.405
-554.427	420.685	0.094	-0.203
-553.412	-200.000	0.010	-0.236
-552.398	132.480	-0.136	0.176
-551.383	-195.556	-0.187	0.001
-550.369	20.988	-0.117	0.095
-549.354	-151.818	-0.216	0.016
-548.339	-94.790	0.289	-0.079
-547.325	-200.000	-0.016	-0.276
-546.310	-141.481	-0.111	0.011
-545.296	-82.641	-0.294	-0.095
-544.281	90.608	-0.117	-0.131
-543.266	4.335	-0.191	-0.140
-542.252	99.813	0.128	0.149
-541.237	112.047	0.085	0.103
-540.223	-200.000	-0.054	-0.274
-539.208	515.010	0.079	-0.186
-538.193	-122.612	-0.079	0.013
-537.179	-176.013	-0.284	-0.008
-536.164	800.000	-0.085	0.237
-535.150	-19.359	-0.018	-0.011
-534.135	-125.577	-0.075	-0.011
-533.121	800.000	0.038	-0.144
-532.106	800.000	-0.101	-0.327
-531.091	65.281	0.094	-0.096
-530.077	-16.638	-0.256	-0.162
-529.062	-42.132	0.249	0.127
-528.048	-143.677	0.086	-0.008
-527.033	-121.769	0.262	-0.043
-526.018	-57.736	0.171	-0.075
-525.004	101.885	0.148	0.173
-523.989	-8.858	-0.190	0.127
-522.975	-200.000	0.010	-0.169
-521.960	-1.625	-0.134	-0.095
-520.945	509.767	-0.032	0.075
-519.931	-59.296	-0.311	0.134
-518.916	747.972	0.080	0.216
-517.902	-164.322	0.380	0.017
-516.887	-85.962	-0.154	-0.048
-515.872	-56.889	-0.173	0.076
-514.858	109.908	0.133	-0.160
-513.843	-16.661	0.094	0.060
-512.829	273.034	0.158	-0.279
-511.814	800.000	0.069	-0.221
-510.799	-154.141	0.219	0.015
-509.785	93.102	0.054	-0.061
-508.770	483.962	0.073	-0.167
-507.756	-86.859	0.385	0.118
-506.741	-140.675	-0.134	0.014
-505.726	-27.306	0.437	-0.254
-504.712	46.812	-0.248	-0.230
-503.697	302.108	0.120	-0.223
-502.683	-123.381	0.275	0.044
-501.668	-175.278	0.099	-0.003
-500.653	59.469	0.184	0.182
-499.639	800.000	-0.100	0.324
-498.624	-110.977	0.141	-0.029
-497.610	266.394	-0.143	0.249
-496.595	-200.000	0.038	0.344
-495.581	-2.689	-0.117	0.082
-494.566	-133.316	0.092	0.012
-493.551	61.091	0.305	-0.303
-492.537	-74.746	-0.167	-0.060
-491.522	-54.398	0.172	-0.078
-490.508	-200.000	-0.052	-0.596
-489.493	-26.769	0.408	0.239
-488.478	-83.934	-0.127	-0.040
-487.464	-200.000	0.033	-0.258
-486.449	-84.406	-0.125	0.039
-485.435	237.261	-0.059	-0.098
-484.420	26.178	0.129	0.107
-483.405	15.197	-0.279	-0.218
-482.391	77.822	0.108	0.115
-481.376	74.422	0.133	-0.140
-480.362	-200.000	0.024	-0.387
-479.347	-200.000	-0.046	0.313
-478.332	-200.000	0.037	0.298
-477.318	-91.302	-0.203	0.058
-476.303	252.489	0.199	-0.340
-475.289	-105.582	-0.510	0.115
-474.274	703.833	0.111	0.292
-473.259	267.298	0.093	0.163
-472.245	-45.012	0.087	-0.043
-471.230	81.008	-0.175	-0.189
-470.216	267.721	-0.156	0.273
-469.201	-12.814	0.124	-0.081
-468.186	800.000	0.014	-0.046
-467.172	462.041	-0.030	0.067
-466.157	-18.313	-0.335	0.209
-465.143	800.000	0.102	-0.301
-464.128	219.722	-0.083	-0.132
-463.113	8.555	-0.130	0.098
-462.099	800.000	-0.012	-0.043
-461.084	260.246	-0.109	-0.188
-460.070	-61.814	0.009	-0.004
-459.055	-13.799	0.128	-0.083
-458.040	800.000	0.110	0.316
-457.026	117.452	0.081	-0.100
-456.011	-177.591	0.182	-0.004
-454.997	41.213	0.173	0.156
-453.982	133.430	-0.100	0.129
-452.968	280.808	0.072	-0.128
-451.953	-200.000	0.021	-0.107
-450.938	162.623	-0.109	-0.153
-449.924	-129.584	-0.295	0.041
-448.909	258.247	-0.306	0.526
-447.895	674.810	0.060	-0.156
-446.880	800.000	-0.032	0.096
-445.865	800.000	-0.052	0.162
-444.851	-200.000	-0.010	0.059
-443.836	-200.000	-0.038	0.210
-442.822	93.135	0.108	0.122
-441.807	-91.773	-0.296	-0.084
-440.792	-66.572	-0.078	0.031
-439.778	73.177	0.213	0.223
-438.763	215.480	0.236	-0.374
-437.749	721.926	0.034	-0.090
-436.734	-200.000	-0.030	0.134
-435.719	-200.000	0.012	0.078
-434.705	-30.826	0.020	0.011
-433.690	259.190	0.126	-0.217
-432.676	-113.850	-0.143	-0.028
-431.661	182.603	0.051	0.074
-430.646	-127.758	0.125	-0.018
-429.632	614.907	-0.104	-0.260
-428.617	29.962	-0.089	0.075
-427.603	-15.477	0.230	-0.147
-426.588	800.000	0.060	-0.214
-425.573	-47.779	-0.062	0.030
-424.559	-37.249	-0.118	-0.063
-423.544	-200.000	-0.046	-0.309
-422.530	-44.512	-0.190	-0.095
-421.515	179.779	-0.096	0.140
-420.500	-98.686	-0.155	-0.040
-419.486	394.192	0.046	0.096
-418.471	207.647	0.119	-0.185
-417.457	-47.109	-0.272	0.132
-416.442	-68.802	0.195	-0.075
-415.428	-84.171	0.389	0.123
-414.413	99.798	0.177	0.204
-413.398	-183.719	0.268	-0.005
-412.384	-200.000	0.023	0.156
-411.369	-140.003	-0.196	0.021
-410.355	-2.043	-0.200	-0.140
-409.340	-76.551	-0.063	0.022
-408.325	111.376	-0.058	-0.070
-407.311	10.327	-0.209	-0.158
-406.296	-60.535	0.351	-0.149
-405.282	364.731	-0.126	-0.253
-404.267	51.252	0.259	-0.245
-403.252	268.160	0.226	-0.395
-402.238	458.953	0.136	-0.302
-401.223	800.000	0.049	-0.152
-400.209	21.193	0.312	0.252
-399.194	-200.000	0.034	0.161
-398.179	388.227	-0.040	0.083
-397.165	192.265	0.062	0.093
-396.150	-200.000	-0.003	-0.151
-395.136	-48.951	0.163	-0.078
-394.121	204.412	0.076	0.117
-393.106	-200.000	0.035	-0.309
-392.092	-114.506	0.213	-0.041
-391.077	146.286	-0.125	0.168
-390.063	75.280	0.224	-0.236
-389.048	65.246	-0.208	0.210
-388.033	67.773	0.143	-0.146
-387.019	84.423	-0.136	0.148
-386.004	-5.086	-0.070	-0.048
-384.990	-200.000	0.040	-0.182
-383.975	196.647	-0.078	0.119
-382.960	-97.973	-0.261	-0.067
-381.946	-116.073	-0.197	-0.037
-380.931	-25.915	0.107	0.063
-379.917	-64.434	0.186	-0.075
-378.902	140.432	0.222	-0.292
-377.888	239.491	-0.136	-0.225
-376.873	-200.000	-0.074	0.379
-375.858	-98.613	-0.379	0.096
-374.844	-19.687	0.256	-0.158
-373.829	-200.000	-0.018	0.186
-372.815	-141.548	0.128	-0.013
-371.800	-73.601	-0.344	0.125
-370.785	-28.439	0.302	-0.174
-369.771	777.112	-0.052	0.142
-368.756	451.181	-0.103	-0.227
-367.742	-98.894	-0.427	0.108
-366.727	40.442	0.198	-0.177
-365.712	202.237	-0.155	0.237
-364.698	673.435	-0.059	0.152
-363.683	64.365	-0.112	0.112
-362.669	-54.796	0.324	-0.146
-361.654	-200.000	-0.022	-0.358
-360.639	34.331	-0.123	-0.107
-359.625	-200.000	0.000	-0.099
-358.610	86.793	0.213	-0.234
-357.596	-107.979	0.162	-0.035
-356.581	-72.183	0.174	-0.064
-355.566	800.000	0.070	0.207
-354.552	-76.032	-0.066	0.023
-353.537	229.879	0.179	0.290
-352.523	98.296	0.135	-0.155
-351.508	-76.830	0.193	-0.067
-350.493	303.462	-0.048	0.088
-349.479	-190.579	-0.161	0.002
-348.464	390.552	0.078	0.160
-347.450	105.538	0.266	0.313
-346.435	106.437	-0.151	0.178
-345.420	387.456	0.038	-0.079
-344.406	-74.149	-0.224	0.081
-343.391	-200.000	0.002	-0.033
-342.377	-60.837	-0.330	0.139
-341.362	-18.585	-0.225	-0.140
-340.348	800.000	-0.073	0.243
-339.333	-58.861	0.171	-0.073
-338.318	-118.884	0.274	-0.048
-337.304	-80.302	0.199	0.066
-336.289	-103.460	-0.275	0.064
-335.275	8.383	-0.073	-0.055
-334.260	122.871	-0.023	-0.028
-333.245	-200.000	-0.013	0.232
-332.231	7.478	0.090	0.067
-331.216	-200.000	0.014	0.215
-330.202	-86.358	0.304	-0.093
-329.187	-200.000	0.040	-0.281
-328.172	-179.259	-0.203	0.004
-327.158	-200.000	0.069	0.402
-326.143	-117.022	-0.290	0.053
-325.129	-200.000	0.214	-0.001
-324.114	31.461	-0.256	0.218
-323.099	104.291	0.069	0.081
-322.085	800.000	-0.053	0.198
-321.070	138.651	0.201	-0.263
-320.056	12.187	-0.358	-0.273
-319.041	-128.227	-0.144	-0.020
-318.026	164.533	0.094	0.131
-317.012	800.000	0.078	0.264
-315.997	6.372	-0.129	0.095
-314.983	302.753	-0.134	0.247
-313.968	-33.057	0.175	-0.096
-312.953	-10.701	-0.151	0.099
-311.939	-166.854	-0.135	0.006
-310.924	800.000	-0.073	-0.207
-309.910	137.805	0.193	-0.252
-308.895	-101.688	-0.336	-0.081
-307.880	185.721	0.094	0.139
-306.866	190.655	0.175	-0.261
-305.851	-200.000	0.016	-0.070
-304.837	-167.559	-0.144	-0.006
-303.822	-77.674	-0.103	0.035
-302.807	-200.000	0.019	0.304
-301.793	60.721	0.045	-0.044
-300.778	143.046	-0.185	-0.244
-299.764	1.730	0.324	0.232
-298.749	51.791	0.334	0.316
-297.735	254.272	0.171	0.290
-296.720	22.255	-0.057	0.046
-295.705	-76.234	0.153	0.053
-294.691	-137.806	-0.128	0.014
-293.676	-135.547	-0.419	0.049
-292.662	549.349	-0.077	-0.182
-291.647	24.267	-0.156	-0.128
-290.632	-184.360	-0.252	0.004
-289.618	75.877	-0.307	-0.322
-288.603	99.532	0.039	-0.045
-287.589	-39.566	-0.035	0.018
-286.574	159.022	-0.201	-0.277
-285.559	-66.508	-0.183	0.072
-284.545	-62.600	-0.282	0.116
-283.530	299.873	0.041	0.074
-282.516	373.031	0.086	0.174
-281.501	-29.971	0.330	0.186
-280.486	59.579	0.180	-0.176
-279.472	-181.306	0.229	0.004
-278.457	-154.595	0.264	0.017
-277.443	-123.391	-0.254	0.040
-276.428	22.585	-0.174	0.141
-275.413	-149.682	-0.066	-0.005
-274.399	-101.037	0.316	0.077
-273.384	39.430	-0.152	-0.135
-272.370	234.282	-0.072	0.118
-271.355	56.875	-0.037	-0.036
-270.340	-91.598	0.180	-0.051
-269.326	-124.955	-0.167	0.026
-268.311	-200.000	-0.065	-0.413
-267.297	169.281	0.148	-0.210
-266.282	-200.000	0.033	0.149
-265.267	113.994	0.184	0.222
-264.253	197.503	0.077	-0.117
-263.238	-134.587	0.280	0.034
-262.224	-92.872	-0.187	0.052
-261.209	-52.010	-0.077	0.035
-260.195	2.081	0.134	-0.096
-259.180	-79.095	-0.260	0.088
-258.165	-5.831	-0.347	-0.235
-257.151	800.000	0.086	-0.337
-256.136	-200.000	-0.023	-0.204
-255.122	-200.000	0.004	0.463
-254.107	-85.670	0.328	0.101
-253.092	-170.458	0.402	-0.014
-252.078	-132.714	-0.345	0.044
-251.063	-51.015	-0.057	-0.026
-250.049	153.802	-0.245	0.332
-249.034	550.971	0.088	0.209
-248.019	120.673	0.097	0.120
-247.005	-45.865	0.203	-0.099
-245.990	-8.715	-0.130	-0.087
-244.976	-37.027	-0.073	-0.039
-243.961	-200.000	-0.027	0.285
-242.946	8.060	0.215	0.160
-241.932	-146.778	-0.174	-0.015
-240.917	800.000	-0.025	-0.071
-239.903	-4.786	-0.119	0.081
-238.888	-47.480	0.475	0.229
-237.873	-200.000	0.007	0.115
-236.859	-129.053	0.185	-0.026
-235.844	800.000	0.038	-0.121
-234.830	-200.000	-0.007	-0.138
-233.815	-200.000	-0.017	-0.172
-232.800	136.590	0.121	0.156
-231.786	-70.684	0.192	-0.072
-230.771	-75.709	-0.027	-0.010
-229.757	52.318	0.095	-0.089
-228.742	358.102	-0.135	-0.267
-227.727	-200.000	-0.149	-0.000
-226.713	-200.000	0.019	-0.096
-225.698	-87.619	0.166	-0.050
-224.684	100.050	-0.061	-0.070
-223.669	747.676	0.143	-0.382
-222.655	800.000	0.040	-0.121
-221.640	90.339	-0.081	-0.090
-220.625	47.081	-0.178	-0.164
-219.611	-200.000	0.019	0.546
-218.596	307.865	0.127	0.234
-217.582	-200.000	0.003	0.109
-216.567	-173.241	0.212	0.006
-215.552	587.562	0.159	0.388
-214.538	204.611	-0.164	-0.252
-213.523	-64.350	0.093	-0.037
-212.509	800.000	0.061	-0.244
-211.494	21.771	-0.158	-0.128
-210.479	-200.000	0.008	0.036
-209.465	800.000	0.037	-0.159
-208.450	47.060	-0.264	0.242
-207.436	6.256	0.106	-0.077
-206.421	-200.000	-0.005	-0.346
-205.406	800.000	-0.067	0.262
-204.392	800.000	0.082	0.295
-203.377	225.663	-0.103	0.166
-202.363	-200.000	-0.022	0.292
-201.348	648.534	0.075	0.191
-200.333	-58.383	0.168	-0.072
-199.319	-86.295	0.041	-0.012
-198.304	46.725	-0.038	0.035
-197.290	-14.815	0.235	-0.149
-196.275	800.000	0.099	0.271
-195.260	-83.231	-0.311	0.099
-194.246	469.954	0.024	-0.053
-193.231	378.474	0.062	-0.126
-192.217	65.374	-0.138	0.138
-191.202	-68.041	0.522	0.201
-190.187	222.918	-0.141	0.225
-189.173	-139.294	0.200	0.021
-188.158	-60.244	-0.174	0.073
-187.144	-8.745	-0.078	0.052
-186.129	-35.991	0.277	0.148
-185.114	-193.136	0.142	-0.001
-184.100	-79.300	-0.318	-0.106
-183.085	108.623	0.089	0.106
-182.071	-200.000	-0.049	-0.240
-181.056	21.553	-0.090	-0.072
-180.042	558.959	-0.067	-0.159
-179.027	7.072	0.163	0.120
-178.012	361.352	0.078	-0.153
-176.998	-130.420	-0.155	-0.021
-175.983	304.148	-0.077	0.142
-174.969	633.716	0.078	0.195
-173.954	-138.170	0.337	-0.037
-172.939	-200.000	-0.028	-0.179
-171.925	-53.357	-0.147	0.066
-170.910	518.017	0.106	-0.245
-169.896	657.976	0.086	0.217
-168.881	-40.507	0.306	0.157
-167.866	185.598	0.070	0.103
-166.852	46.755	-0.113	0.104
-165.837	-200.000	-0.063	0.371
-164.823	81.656	0.175	-0.186
-163.808	349.345	0.150	-0.293
-162.793	-181.411	-0.034	-0.001
-161.779	61.904	0.040	0.039
-160.764	-5.939	-0.062	0.042
-159.750	-30.924	0.147	0.082
-158.735	-67.466	-0.177	0.069
-157.720	-46.901	-0.122	-0.059
-156.706	314.473	-0.139	0.258
-155.691	-149.071	-0.130	0.010
-154.677	800.000	-0.021	-0.069
-153.662	-63.523	0.169	-0.069
-152.647	591.727	-0.135	0.329
-151.633	-200.000	-0.011	0.457
-150.618	800.000	-0.010	0.041
-149.604	-54.342	0.283	0.127
-148.589	-200.000	0.008	0.478
-147.574	88.425	0.282	0.310
-146.560	-60.152	0.249	-0.105
-145.545	-100.617	-0.159	0.039
-144.531	-10.706	-0.248	0.162
-143.516	-142.961	-0.245	0.023
-142.502	-40.616	0.327	0.168
-141.487	-200.000	-0.068	0.391
-140.472	571.716	0.022	-0.053
-139.458	-200.000	0.044	-0.674
-138.443	47.189	0.305	0.280
-137.429	284.237	0.213	0.378
-136.414	-168.162	0.254	0.010
-135.399	144.847	-0.098	0.129
-134.385	800.000	0.014	-0.039
-133.370	800.000	0.024	-0.069
-132.356	99.608	-0.277	-0.316
-131.341	17.278	0.286	-0.223
-130.326	-200.000	-0.040	-0.235
-129.312	791.585	0.026	-0.071
-128.297	-44.336	0.233	-0.115
-127.283	486.514	0.026	-0.059
-126.268	299.573	-0.089	-0.162
-125.253	-200.000	0.018	-0.093
-124.239	-200.000	-0.051	-0.280
-123.224	108.293	0.312	-0.367
-122.210	-11.540	-0.199	0.129
-121.195	-103.426	0.117	-0.027
-120.180	-200.000	0.080	-0.464
-119.166	171.139	-0.114	-0.161
-118.151	800.000	0.111	0.308
-117.137	81.189	-0.174	-0.185
-116.122	9.270	-0.159	-0.119
-115.107	-121.138	0.229	0.038
-114.093	485.539	-0.057	-0.127
-113.078	-93.626	0.187	-0.051
-112.064	-200.000	0.013	-0.323
-111.049	403.277	0.178	-0.369
-110.034	-52.644	-0.081	-0.037
-109.020	-83.555	0.139	-0.044
-108.005	14.908	0.202	-0.155
-106.991	-200.000	0.016	0.246
-105.976	-200.000	-0.009	0.115
-104.962	-52.367	-0.099	-0.045
-103.947	-118.494	-0.168	0.029
-102.932	-115.703	0.232	0.043
-101.918	-51.888	-0.077	-0.035
-100.903	-200.000	-0.015	0.225
-99.889	170.731	-0.089	0.125
-98.874	-104.284	-0.059	-0.013
-97.859	-124.665	0.386	-0.059
-96.845	800.000	0.055	-0.214
-95.830	-65.011	0.153	-0.061
-94.816	-200.000	-0.015	0.239
-93.801	-154.058	-0.052	0.004
-92.786	287.856	-0.253	-0.450
-91.772	-163.622	0.423	0.020
-90.757	76.081	0.326	0.340
-89.743	-200.000	-0.008	-0.328
-88.728	102.591	0.269	0.310
-87.713	-60.117	0.101	-0.042
-86.699	373.026	0.081	-0.162
-85.684	275.616	-0.030	0.052
-84.670	1.603	0.164	0.116
-83.655	-12.586	-0.075	0.048
-82.640	350.809	0.018	-0.035
-81.626	-38.010	-0.277	0.145
-80.611	92.888	0.180	-0.200
-79.597	-200.000	0.024	-0.275
-78.582	31.955	-0.092	-0.078
-77.567	-80.282	0.209	0.069
-76.553	-48.035	-0.167	-0.079
-75.538	224.174	-0.172	0.273
-74.524	-200.000	-0.072	0.410
-73.509	-161.389	-0.238	0.012
-72.494	4.610	-0.120	-0.087
-71.480	-22.511	-0.221	0.132
-70.465	-46.173	-0.070	0.034
-69.451	-200.000	0.010	-0.144
-68.436	-73.168	-0.113	-0.041
-67.422	85.671	0.262	-0.284
-66.407	488.733	-0.081	-0.181
-65.392	-200.000	-0.017	0.211
-64.378	-107.077	0.240	0.052
-63.363	180.441	-0.150	0.217
-62.349	33.288	-0.264	0.225
-61.334	4.322	-0.905	-0.652
-60.319	100.260	0.512	0.584
-59.305	149.485	-0.612	-0.816
-58.290	800.000	0.390	1.300
-57.276	423.336	0.700	1.478
-56.261	-200.000	97.740	593.024
-55.246	525.903	1410.655	3265.337
-54.232	154.620	2600.563	3511.324
-53.217	104.963	2297.119	2663.225
-52.203	40.677	1916.680	1698.267
-51.188	34.407	1704.528	1462.321
-50.173	31.808	1660.329	1404.896
-49.159	49.536	1707.621	1579.969
-48.144	50.850	1723.541	1604.611
-47.130	33.996	1685.520	1442.668
-46.115	31.300	1670.545	1409.483
-45.100	31.143	1665.660	1404.124
-44.086	31.040	1663.119	1401.152
-43.071	31.080	1660.553	1399.239
-42.057	31.054	1658.450	1397.210
-41.042	31.015	1656.335	1395.087
-40.027	31.089	1654.355	1393.916
-39.013	31.000	1652.202	1391.381
-37.998	30.989	1651.106	1390.322
-36.984	31.068	1649.113	1389.175
-35.969	31.148	1647.806	1388.612
-34.954	31.220	1646.247	1387.784
-33.940	31.161	1644.592	1385.893
-32.925	31.205	1643.163	1384.957
-31.911	31.232	1641.399	1383.619
-30.896	31.154	1639.163	1381.104
-29.881	31.131	1637.654	1379.608
-28.867	31.106	1636.138	1378.087
-27.852	31.155	1634.112	1376.688
-26.838	31.059	1633.851	1375.709
-25.823	31.179	1632.066	1375.031
-24.809	31.103	1630.965	1373.492
-23.794	31.149	1629.297	1372.367
-22.779	31.084	1628.343	1371.038
-21.765	31.141	1625.776	1369.238
-20.750	31.227	1624.059	1368.369
-19.736	31.227	1622.611	1367.092
-18.721	31.333	1621.107	1366.548
-17.706	31.206	1619.927	1364.572
-16.692	31.190	1618.101	1362.862
-15.677	31.154	1617.290	1361.860
-14.663	31.212	1616.303	1361.400
-13.648	31.146	1614.528	1359.368
-12.633	31.106	1613.326	1358.010
-11.619	31.193	1611.156	1356.760
-10.604	31.212	1609.625	1355.556
-9.590	31.183	1608.579	1354.411
-8.575	31.230	1606.986	1353.358
-7.560	31.251	1605.483	1352.188
-6.546	31.198	1604.876	1351.242
-5.531	31.205	1603.969	1350.474
-4.517	31.228	1602.757	1349.566
-3.502	31.167	1601.926	1348.378
-2.487	31.188	1599.938	1346.797
-1.473	31.111	1588.179	1336.295
-0.458	28.611	1569.933	1303.162
0.556	23.616	1570.011	1270.677
1.571	21.211	1592.780	1271.499
2.586	20.624	1605.875	1277.532
3.600	18.856	1553.142	1222.899
4.615	10.734	1441.569	1081.086
5.629	2.378	1374.463	977.456
6.644	0.555	1366.611	960.202
7.659	0.442	1365.303	958.479
8.673	0.393	1363.758	957.001
9.688	0.300	1361.700	954.879
10.702	0.118	1359.100	951.821
11.717	4.156	1365.409	981.774
12.731	12.845	1379.494	1047.227
13.746	17.780	1385.234	1082.898
14.761	17.469	1383.794	1079.709
15.775	16.474	1381.271	1071.340
16.790	15.471	1378.252	1062.558
17.804	14.742	1375.825	1055.988
18.819	14.398	1374.775	1052.913
19.834	14.023	1373.596	1049.546
20.848	13.772	1372.546	1047.069
21.863	13.669	1370.697	1044.918
22.877	13.324	1369.608	1041.821
23.892	13.363	1368.679	1041.266
24.907	13.394	1368.286	1041.074
25.921	13.365	1367.241	1040.003
26.936	13.444	1365.879	1039.373
27.950	13.486	1364.882	1038.786
28.965	13.438	1364.518	1038.111
29.980	13.550	1363.218	1037.735
30.994	13.600	1362.343	1037.289
32.009	13.625	1361.279	1036.547
33.023	13.565	1360.353	1035.373
34.038	13.585	1358.961	1034.349
35.053	13.617	1357.275	1033.172
36.067	13.526	1356.951	1032.264
37.082	13.494	1355.953	1031.217
38.096	13.485	1355.071	1030.400
39.111	13.480	1354.671	1029.973
40.126	13.580	1353.070	1029.283
41.140	13.442	1352.678	1028.038
42.155	13.419	1352.325	1027.536
43.169	13.369	1352.246	1027.077
44.184	13.321	1351.702	1026.270
45.199	13.300	1351.578	1025.957
46.213	13.364	1350.956	1025.793
47.228	13.503	1349.796	1025.678
48.242	13.478	1348.700	1024.599
49.257	13.427	1347.010	1022.910
50.271	13.451	1346.068	1022.257
51.286	13.523	1344.245	1021.225
52.301	13.468	1343.225	1020.018
53.315	13.431	1342.230	1018.945
54.330	13.488	1340.541	1017.923
55.344	13.448	1339.795	1017.021
56.359	13.496	1338.382	1016.155
57.374	13.431	1337.693	1015.143
58.388	13.270	1337.101	1013.615
59.403	13.266	1336.671	1013.176
60.417	13.286	1335.949	1012.662
61.432	13.260	1334.976	1011.676
62.447	13.358	1333.658	1011.188
63.461	13.252	1332.710	1009.733
64.476	13.335	1331.877	1009.517
65.490	13.274	1330.614	1008.097
66.505	13.350	1328.816	1007.112
67.520	13.354	1327.877	1006.334
68.534	13.387	1326.382	1005.310
69.549	13.313	1325.782	1004.319
70.563	13.254	1323.878	1002.430
71.578	13.294	1322.940	1001.875
72.593	13.270	1322.016	1000.939
73.607	13.245	1321.239	1000.112
74.622	13.169	1320.459	998.976
75.636	13.274	1319.994	999.166
76.651	13.268	1318.887	998.203
77.666	13.209	1318.660	997.586
78.680	13.344	1317.704	997.591
79.695	13.344	1316.869	996.874
80.709	13.332	1316.071	996.104
81.724	13.320	1315.611	995.597
82.739	13.419	1314.201	995.038
83.753	13.395	1313.732	994.449
84.768	13.459	1312.444	993.772
85.782	13.504	1311.490	993.233
86.797	13.541	1310.016	992.251
87.812	13.428	1308.624	990.429
88.826	13.303	1307.566	988.794
89.841	13.488	1306.728	989.178
90.855	13.484	1305.514	988.146
91.870	13.631	1304.099	987.865
92.884	13.654	1303.673	987.592
93.899	13.593	1302.850	986.517
94.914	13.632	1302.040	986.052
95.928	13.515	1301.419	984.800
96.943	13.576	1300.702	984.530
97.957	13.526	1300.031	983.638
98.972	13.482	1298.937	982.462
99.987	13.537	1297.621	981.705
101.001	13.563	1296.510	980.935
102.016	13.442	1296.116	979.834
103.030	13.470	1295.166	979.194
104.045	13.643	1293.642	978.977
105.060	13.425	1293.037	977.143
106.074	13.426	1291.375	975.805
107.089	13.299	1290.163	974.058
108.103	13.324	1289.058	973.287
109.118	13.350	1287.739	972.352
110.133	13.348	1286.213	971.106
111.147	13.450	1284.474	970.306
112.162	13.526	1283.200	969.702
113.176	13.400	1282.678	968.485
114.191	13.459	1281.263	967.676
115.206	13.461	1280.466	967.000
116.220	13.482	1278.966	965.901
117.235	13.422	1278.045	964.773
118.249	13.461	1277.249	964.312
119.264	13.544	1275.793	963.610
120.279	13.476	1274.936	962.484
121.293	13.450	1273.612	961.246
122.308	13.400	1273.128	960.507
123.322	13.337	1272.065	959.253
124.337	13.437	1270.911	958.879
125.352	13.367	1270.016	957.716
126.366	13.380	1268.703	956.713
127.381	13.455	1267.367	956.057
128.395	13.407	1266.303	954.892
129.410	13.372	1266.050	954.412
130.424	13.498	1264.945	954.221
131.439	13.625	1263.129	953.501
132.454	13.503	1262.847	952.498
133.468	13.510	1261.905	951.746
134.483	13.410	1261.627	950.875
135.497	13.538	1260.129	950.398
136.512	13.561	1258.657	949.338
137.527	13.489	1257.303	947.816
138.541	13.500	1256.226	946.983
139.556	13.478	1255.074	945.907
140.570	13.540	1253.929	945.318
141.585	13.581	1252.559	944.432
142.600	13.633	1251.152	943.584
143.614	13.683	1250.252	943.105
144.629	13.607	1249.353	941.914
145.643	13.606	1248.388	941.095
146.658	13.631	1247.033	940.132
147.673	13.532	1246.000	938.710
148.687	13.508	1244.897	937.659
149.702	13.580	1242.918	936.492
150.716	13.657	1241.743	935.960
151.731	13.537	1240.901	934.568
152.746	13.637	1239.426	933.933
153.760	13.568	1238.783	932.981
154.775	13.617	1237.410	932.141
155.789	13.696	1236.404	931.741
156.804	13.632	1235.533	930.642
157.819	13.764	1234.223	930.313
158.833	13.851	1233.107	929.881
159.848	13.793	1232.451	928.977
160.862	13.766	1231.742	928.211
161.877	13.768	1229.940	926.784
162.892	13.601	1229.353	925.327
163.906	13.785	1228.121	925.340
164.921	13.632	1227.692	924.084
165.935	13.721	1226.911	923.912
166.950	13.769	1225.866	923.308
167.964	13.714	1225.302	922.497
168.979	13.771	1224.373	922.033
169.994	13.787	1223.916	921.695
171.008	13.860	1222.850	921.215
172.023	13.838	1222.198	920.523
173.037	13.866	1221.263	919.891
174.052	13.761	1220.716	918.813
175.067	13.807	1219.146	917.807
176.081	13.763	1218.274	916.824
177.096	13.883	1217.441	916.779
178.110	13.863	1216.571	915.936
179.125	13.905	1214.722	914.690
180.140	13.906	1213.927	914.021
181.154	13.901	1212.597	912.909
182.169	13.967	1211.590	912.433
183.183	13.797	1210.411	910.528
184.198	13.988	1209.427	910.756
185.213	13.998	1208.032	909.680
186.227	14.073	1207.135	909.334
187.242	14.093	1206.067	908.560
188.256	14.102	1205.348	907.985
189.271	14.108	1203.977	906.905
190.286	14.158	1203.021	906.376
191.300	13.906	1202.501	904.535
192.315	13.886	1201.972	903.944
193.329	13.951	1200.956	903.459
194.344	13.970	1200.795	903.360
195.359	14.068	1200.081	903.274
196.373	13.989	1199.412	902.263
197.388	14.003	1199.162	902.072
198.402	14.045	1198.605	901.799
199.417	14.297	1197.367	902.154
200.432	14.255	1196.600	901.265
201.446	14.104	1196.126	900.012
202.461	14.226	1195.005	899.749
203.475	14.319	1193.885	899.331
204.490	14.395	1192.640	898.719
205.504	14.347	1191.107	897.230
206.519	14.358	1189.843	896.256
207.534	14.262	1189.216	895.189
208.548	14.277	1188.105	894.353
209.563	14.184	1187.611	893.402
210.577	14.246	1186.813	893.057
211.592	14.315	1186.043	892.766
212.607	14.451	1184.662	892.380
213.621	14.400	1184.055	891.572
214.636	14.373	1183.058	890.596
215.650	14.339	1182.229	889.711
216.665	14.369	1181.438	889.199
217.680	14.453	1180.158	888.602
218.694	14.488	1179.725	888.385
219.709	14.418	1179.158	887.503
220.723	14.352	1178.129	886.303
221.738	14.406	1177.561	886.083
222.753	14.493	1176.887	885.959
223.767	14.441	1176.135	885.041
224.782	14.609	1175.209	885.156
225.796	14.614	1174.840	884.828
226.811	14.658	1174.026	884.365
227.826	14.636	1172.863	883.298
228.840	14.508	1172.782	882.479
229.855	14.512	1171.996	881.831
230.869	14.604	1171.059	881.536
231.884	14.640	1169.847	880.733
232.899	14.451	1169.721	879.564
233.913	14.648	1168.376	879.514
234.928	14.420	1168.337	878.207
235.942	14.525	1167.350	877.939
236.957	14.565	1166.354	877.322
237.972	14.637	1165.854	877.248
238.986	14.492	1165.368	876.038
240.001	14.606	1164.376	875.818
241.015	14.485	1163.958	874.787
242.030	14.606	1162.829	874.496
243.045	14.745	1161.981	874.511
244.059	14.767	1161.291	874.031
245.074	14.811	1160.026	873.232
246.088	14.798	1159.642	872.795
247.103	14.728	1158.673	871.624
248.117	14.873	1157.792	871.637
249.132	14.820	1157.515	871.077
250.147	14.905	1156.534	870.705
251.161	15.032	1156.122	870.979
252.176	14.956	1155.339	869.918
253.190	15.048	1154.687	869.827
254.205	15.130	1154.123	869.749
255.220	14.987	1153.671	868.589
256.234	15.142	1153.093	868.881
257.249	15.129	1152.231	868.092
258.263	15.215	1151.249	867.718
259.278	15.108	1151.081	866.962
260.293	15.206	1150.426	866.896
261.307	15.216	1149.654	866.291
262.322	15.245	1148.972	865.851
263.336	15.301	1148.422	865.650
264.351	15.269	1147.644	864.822
265.366	15.378	1146.760	864.639
266.380	15.423	1145.776	864.054
267.395	15.242	1145.555	862.877
268.409	15.280	1144.335	862.075
269.424	15.264	1144.226	861.838
270.439	15.367	1143.182	861.501
271.453	15.351	1142.480	860.814
272.468	15.299	1141.427	859.680
273.482	15.295	1141.115	859.348
274.497	15.317	1140.484	858.908
275.512	15.311	1139.849	858.324
276.526	15.298	1138.959	857.512
277.541	15.290	1138.165	856.798
278.555	15.416	1137.142	856.595
279.570	15.416	1136.856	856.304
280.585	15.499	1136.101	856.081
281.599	15.515	1135.228	855.430
282.614	15.457	1134.176	854.268
283.628	15.537	1132.604	853.413
284.643	15.536	1131.921	852.817
285.657	15.552	1131.116	852.216
286.672	15.544	1130.209	851.416
287.687	15.554	1129.283	850.693
288.701	15.503	1128.844	850.031
289.716	15.584	1128.021	849.746
290.730	15.548	1127.461	849.070
291.745	15.571	1126.608	848.466
292.760	15.501	1126.140	847.684
293.774	15.562	1125.589	847.501
294.789	15.537	1125.196	847.009
295.803	15.685	1124.362	847.048
296.818	15.647	1123.428	846.081
297.833	15.561	1122.630	844.970
298.847	15.637	1122.043	844.836
299.862	15.700	1120.846	844.177
300.876	15.748	1120.730	844.255
301.891	15.803	1119.941	843.865
302.906	15.759	1119.064	842.908
303.920	15.844	1118.296	842.680
304.935	15.857	1117.870	842.349
305.949	15.845	1116.923	841.498
306.964	15.905	1116.617	841.493
307.979	15.966	1115.256	840.698
308.993	15.937	1115.002	840.288
310.008	15.901	1114.143	839.385
311.022	15.833	1113.345	838.371
312.037	15.965	1112.838	838.576
313.052	15.895	1111.645	837.252
314.066	15.891	1110.827	836.546
315.081	15.954	1109.654	835.898
316.095	15.868	1109.117	834.993
317.110	15.933	1108.477	834.761
318.125	15.908	1107.875	834.111
319.139	15.896	1107.575	833.751
320.154	15.901	1106.733	833.065
321.168	15.916	1106.041	832.547
322.183	16.053	1104.995	832.360
323.197	15.799	1105.182	831.174
324.212	15.918	1104.381	831.087
325.227	15.987	1103.623	830.785
326.241	15.922	1103.287	830.136
327.256	15.931	1102.341	829.396
328.270	15.967	1101.089	828.558
329.285	16.151	1100.107	828.650
330.300	15.962	1099.461	827.162
331.314	15.998	1098.361	826.435
332.329	16.055	1097.389	825.911
333.343	16.039	1096.717	825.255
334.358	16.174	1095.720	825.089
335.373	16.237	1095.542	825.192
336.387	16.241	1094.842	824.611
337.402	16.360	1093.440	824.062
338.416	16.239	1092.720	822.856
339.431	16.305	1092.361	822.836
340.446	16.328	1091.945	822.561
341.460	16.338	1091.095	821.895
342.475	16.323	1090.449	821.266
343.489	16.495	1089.226	821.106
344.504	16.466	1088.200	820.121
345.519	16.400	1087.581	819.264
346.533	16.540	1086.494	819.047
347.548	16.440	1086.147	818.228
348.562	16.406	1085.550	817.544
349.577	16.457	1084.523	816.945
350.592	16.437	1083.823	816.246
351.606	16.451	1083.037	815.653
352.621	16.422	1082.413	814.971
353.635	16.345	1081.874	814.119
354.650	16.384	1081.067	813.626
355.665	16.473	1080.105	813.262
356.679	16.528	1079.705	813.154
357.694	16.534	1079.335	812.830
358.708	16.637	1078.471	812.600
359.723	16.569	1078.016	811.863
360.738	16.607	1077.151	811.318
361.752	16.535	1076.946	810.749
362.767	16.589	1076.477	810.583
363.781	16.680	1075.549	810.247
364.796	16.610	1075.204	809.582
365.810	16.737	1074.343	809.466
366.825	16.681	1073.845	808.754
367.840	16.777	1073.421	808.820
368.854	16.816	1072.691	808.384
369.869	16.850	1071.947	807.914
370.883	16.784	1071.341	807.072
371.898	16.767	1070.492	806.280
372.913	16.865	1069.928	806.253
373.927	16.840	1069.688	805.880
374.942	16.760	1069.027	804.930
375.956	16.893	1068.144	804.825
376.971	16.974	1067.562	804.702
377.986	16.880	1067.275	803.965
379.000	16.966	1066.194	803.489
380.015	17.002	1065.781	803.276
381.029	16.887	1065.428	802.394
382.044	17.042	1064.678	802.494
383.059	17.108	1063.693	801.992
384.073	16.996	1063.023	800.886
385.088	17.144	1061.563	800.414
386.102	17.061	1061.182	799.665
387.117	17.023	1060.277	798.733
388.132	17.052	1059.180	797.974
389.146	17.099	1058.530	797.635
390.161	16.999	1058.164	796.817
391.175	17.072	1057.094	796.285
392.190	17.123	1056.658	796.124
393.205	17.164	1055.612	795.459
394.219	17.122	1055.004	794.733
395.234	17.162	1054.386	794.381
396.248	17.053	1053.465	793.107
397.263	17.120	1052.108	792.328
398.278	16.997	1052.018	791.620
399.292	17.083	1050.786	791.023
400.307	17.070	1050.224	790.467
401.321	17.152	1049.350	790.120
402.336	17.193	1048.604	789.680
403.350	17.079	1048.234	788.800
404.365	17.102	1047.239	788.091
405.380	17.226	1046.345	787.925
406.394	17.279	1045.687	787.605
407.409	17.426	1044.947	787.657
408.423	17.418	1044.369	787.114
409.438	17.409	1043.949	786.688
410.453	17.295	1043.408	785.681
411.467	17.491	1042.331	785.707
412.482	17.483	1041.584	785.036
413.496	17.435	1040.836	784.184
414.511	17.429	1040.734	784.011
415.526	17.507	1040.476	784.106
416.540	17.625	1039.990	784.211
417.555	17.523	1039.409	783.235
418.569	17.529	1039.011	782.895
419.584	17.539	1038.265	782.309
420.599	17.666	1037.862	782.520
421.613	102.670	1319.494	1463.302
422.628	94.201	1360.496	1463.409
