DTS Sentinel unit serial number:	SN413079Multiplexer serial number:	ORYXHardware model number:	OX4-SRSoftware version number:	ORYX F/W v4.00 Oryx Data Collector v3.7.2.0data status	okinstallation	princeton_trtdifferential loss correction	single-endedforward channel	channel 2reverse channel	N/Adate	2019/09/14time	01:47:35forward acquisition time	60.00reverse acquisition time	0.00gamma	496.2192k internal	0.2337k external	0.2337temperature offset calibration	1.0128default loss term (dB/km)	0.3790temperature slope calibration	1.0000multiplexer offset coefficient	1.0000multiplexer slope coefficient	1.0000fibre end	0.00T internal ref (°C)	26.44T ext. ref 1 (°C)	3.21T ext. ref 2 (°C)	21.47length (m)	temperature (°C)	Stokes	anti-Stokes-747.200	-132.089	0.169	0.022
-746.185	800.000	0.041	-0.126
-745.171	-200.000	-0.040	-0.241
-744.156	800.000	0.090	0.284
-743.142	-79.549	0.237	0.080
-742.127	-130.638	-0.219	-0.030
-741.112	800.000	0.011	0.042
-740.098	23.958	0.215	0.178
-739.083	-92.124	-0.155	-0.044
-738.069	200.364	-0.066	-0.102
-737.054	-200.000	0.039	0.314
-736.039	-19.477	-0.368	0.229
-735.025	-200.000	0.037	0.279
-734.010	-143.511	-0.310	0.030
-732.996	-200.000	-0.022	-0.518
-731.981	-0.323	-0.097	0.069
-730.966	-87.885	-0.110	-0.033
-729.952	-80.947	0.188	-0.062
-728.937	-19.438	-0.497	-0.309
-727.923	-97.008	0.221	-0.058
-726.908	-200.000	-0.051	-0.337
-725.894	21.510	-0.303	-0.247
-724.879	148.911	-0.054	0.073
-723.864	246.424	-0.143	-0.242
-722.850	752.890	0.010	-0.028
-721.835	51.744	-0.119	-0.114
-720.821	51.417	0.156	0.149
-719.806	312.840	-0.184	0.346
-718.791	51.718	-0.132	-0.126
-717.777	-200.000	0.011	-0.070
-716.762	33.173	-0.085	-0.074
-715.748	800.000	0.063	-0.189
-714.733	800.000	0.049	0.206
-713.718	22.927	-0.150	-0.123
-712.704	-123.285	-0.201	-0.032
-711.689	-200.000	-0.481	-0.002
-710.675	657.693	0.065	-0.168
-709.660	-200.000	0.034	0.164
-708.645	315.571	0.199	0.376
-707.631	-200.000	-0.022	-0.124
-706.616	438.097	0.152	-0.332
-705.602	43.955	0.214	0.197
-704.587	-93.650	0.241	-0.067
-703.572	800.000	-0.142	-0.568
-702.558	233.353	0.097	-0.160
-701.543	-52.829	-0.273	0.126
-700.529	-74.723	0.245	-0.088
-699.514	38.479	-0.082	-0.073
-698.499	-144.148	-0.087	-0.008
-697.485	49.079	-0.101	-0.095
-696.470	-81.855	0.318	0.104
-695.456	12.804	-0.216	0.167
-694.441	-29.114	-0.374	-0.215
-693.426	-76.780	0.173	0.061
-692.412	-200.000	-0.011	-0.064
-691.397	456.922	0.059	0.131
-690.383	790.257	0.043	-0.117
-689.368	125.894	-0.120	-0.152
-688.354	-139.743	-0.402	-0.043
-687.339	144.960	0.180	0.241
-686.324	-100.108	0.206	0.051
-685.310	-50.140	-0.258	-0.122
-684.295	94.555	-0.144	-0.164
-683.281	255.873	-0.057	0.098
-682.266	-123.867	-0.180	-0.028
-681.251	-73.887	0.358	-0.130
-680.237	56.736	-0.137	0.134
-679.222	-138.192	0.131	0.015
-678.208	800.000	0.048	0.136
-677.193	-41.485	0.064	0.033
-676.178	-183.843	-0.019	-0.000
-675.164	-55.983	-0.072	0.032
-674.149	-92.024	-0.188	0.053
-673.135	-44.764	0.520	-0.260
-672.120	277.995	0.188	0.335
-671.105	123.415	0.127	0.159
-670.091	-200.000	0.016	-0.368
-669.076	-200.000	-0.014	0.247
-668.062	38.250	-0.241	0.215
-667.047	800.000	0.036	-0.133
-666.032	481.179	-0.063	0.142
-665.018	-66.003	-0.243	0.097
-664.003	-71.778	0.396	0.148
-662.989	-29.011	0.340	0.195
-661.974	-56.126	0.092	-0.041
-660.959	-200.000	0.009	0.151
-659.945	800.000	0.014	0.053
-658.930	-200.000	-0.035	-0.295
-657.916	-31.687	-0.156	0.088
-656.901	-12.391	-0.253	0.165
-655.886	134.903	0.147	-0.191
-654.872	-66.830	-0.527	0.209
-653.857	-200.000	0.007	0.156
-652.843	94.615	0.025	-0.028
-651.828	34.511	-0.134	-0.117
-650.814	-52.228	-0.265	-0.123
-649.799	-71.259	-0.035	0.013
-648.784	-76.850	0.114	-0.040
-647.770	32.393	0.372	0.321
-646.755	-165.738	-0.158	0.007
-645.741	228.501	-0.011	-0.018
-644.726	-200.000	-0.032	-0.357
-643.711	-55.558	0.258	0.115
-642.697	-49.105	0.358	0.171
-641.682	108.883	-0.115	0.138
-640.668	77.622	-0.161	-0.172
-639.653	-73.910	-0.124	0.045
-638.638	-200.000	-0.007	0.147
-637.624	201.247	0.134	0.207
-636.609	215.802	-0.116	0.184
-635.595	-4.677	0.032	0.022
-634.580	239.243	0.157	-0.261
-633.565	416.084	-0.088	0.188
-632.551	43.716	-0.167	-0.152
-631.536	143.889	0.087	-0.116
-630.522	-200.000	-0.014	0.075
-629.507	-200.000	0.037	-0.218
-628.492	294.505	0.138	-0.252
-627.478	-162.324	0.453	0.023
-626.463	-154.710	0.221	-0.015
-625.449	77.370	-0.293	-0.311
-624.434	-200.000	-0.049	-0.287
-623.419	584.494	-0.118	-0.290
-622.405	800.000	-0.059	-0.193
-621.390	-88.669	-0.064	-0.019
-620.376	20.961	0.473	0.383
-619.361	74.666	-0.232	0.244
-618.346	-103.179	0.070	0.016
-617.332	-41.471	-0.205	0.105
-616.317	-43.148	0.035	-0.018
-615.303	-94.933	-0.300	-0.081
-614.288	-200.000	0.021	0.133
-613.273	173.351	-0.116	0.167
-612.259	-31.535	-0.121	-0.068
-611.244	-145.101	0.355	-0.032
-610.230	-150.233	0.200	0.015
-609.215	16.148	0.165	-0.130
-608.201	-128.393	-0.498	0.071
-607.186	-103.267	-0.303	-0.071
-606.171	320.575	-0.143	0.271
-605.157	64.088	-0.135	-0.136
-604.142	418.793	0.086	0.185
-603.128	-56.691	-0.251	-0.111
-602.113	104.253	-0.075	-0.088
-601.098	-25.780	0.301	0.177
-600.084	29.755	0.131	-0.111
-599.069	-179.199	0.313	0.007
-598.055	-76.336	0.252	0.088
-597.040	146.183	0.121	0.162
-596.025	-73.022	0.110	-0.040
-595.011	-200.000	0.158	-0.001
-593.996	274.497	0.192	0.340
-592.982	800.000	0.059	0.169
-591.967	3.718	-0.237	0.172
-590.952	-45.777	-0.440	0.217
-589.938	93.388	-0.235	-0.265
-588.923	800.000	-0.038	-0.113
-587.909	-80.554	0.115	-0.038
-586.894	-42.572	-0.133	0.067
-585.879	-133.181	0.322	0.041
-584.865	338.871	-0.047	-0.092
-583.850	-200.000	-0.009	0.215
-582.836	-76.869	0.332	0.116
-581.821	-200.000	-0.008	-0.038
-580.806	181.017	-0.204	0.299
-579.792	175.747	0.085	0.123
-578.777	-200.000	0.032	-0.300
-577.763	103.325	-0.109	-0.127
-576.748	-118.647	-0.382	-0.067
-575.733	768.615	0.058	-0.158
-574.719	261.617	0.109	-0.187
-573.704	160.664	-0.188	-0.261
-572.690	35.668	-0.138	0.121
-571.675	4.479	-0.154	0.113
-570.661	-68.078	0.242	0.094
-569.646	428.903	-0.135	0.290
-568.631	39.581	-0.165	-0.147
-567.617	146.174	-0.190	0.254
-566.602	99.673	0.111	-0.128
-565.588	267.102	0.047	-0.083
-564.573	36.243	-0.064	0.056
-563.558	800.000	-0.080	0.270
-562.544	-66.911	0.190	-0.075
-561.529	-77.645	-0.288	0.099
-560.515	-200.000	0.014	-0.499
-559.500	800.000	-0.062	-0.246
-558.485	68.978	0.156	0.160
-557.471	34.653	-0.101	-0.088
-556.456	800.000	-0.049	-0.157
-555.442	12.132	0.323	0.248
-554.427	501.178	0.102	0.236
-553.412	-107.575	0.379	0.083
-552.398	167.841	-0.215	0.304
-551.383	-116.251	-0.021	0.004
-550.369	-200.000	-0.012	0.189
-549.354	7.838	0.221	0.165
-548.339	-120.150	0.387	-0.066
-547.325	9.648	-0.148	0.111
-546.310	42.712	-0.134	-0.122
-545.296	800.000	-0.103	0.299
-544.281	90.319	-0.133	0.149
-543.266	-171.601	-0.077	0.003
-542.252	-44.885	0.201	0.100
-541.237	-32.653	0.113	-0.063
-540.223	-70.206	0.042	-0.016
-539.208	-58.320	0.069	0.030
-538.193	-200.000	-0.044	-0.218
-537.179	159.284	-0.355	-0.491
-536.164	266.773	-0.116	-0.202
-535.150	-111.167	0.085	0.017
-534.135	-185.417	0.342	-0.005
-533.121	222.489	0.246	-0.394
-532.106	-90.036	-0.129	0.037
-531.091	-60.815	0.016	-0.007
-530.077	141.198	0.163	0.215
-529.062	196.352	-0.124	-0.188
-528.048	200.722	-0.073	0.112
-527.033	578.819	-0.034	-0.083
-526.018	37.613	0.131	0.116
-525.004	-155.432	-0.140	-0.009
-523.989	-110.588	-0.503	-0.104
-522.975	-24.759	0.133	-0.079
-521.960	-34.144	0.321	-0.175
-520.945	541.219	-0.059	-0.141
-519.931	-172.272	-0.218	0.007
-518.916	594.976	0.078	-0.192
-517.902	-27.474	-0.308	0.178
-516.887	-200.000	-0.006	0.124
-515.872	-200.000	0.024	-0.132
-514.858	56.533	0.270	0.262
-513.843	193.002	0.109	-0.164
-512.829	-59.187	-0.233	-0.100
-511.814	-22.045	-0.256	-0.155
-510.799	714.913	-0.055	-0.144
-509.785	-200.000	-0.011	-0.167
-508.770	282.459	0.105	0.188
-507.756	-200.000	0.049	0.336
-506.741	-200.000	0.011	0.168
-505.726	800.000	0.030	0.101
-504.712	-200.000	0.029	0.573
-503.697	-200.000	0.022	-0.142
-502.683	514.333	0.081	-0.188
-501.668	156.072	-0.076	-0.104
-500.653	307.767	-0.092	-0.171
-499.639	-155.027	0.141	0.009
-498.624	800.000	-0.037	0.140
-497.610	-200.000	-0.017	0.076
-496.595	338.790	-0.044	-0.084
-495.581	-147.952	0.171	-0.014
-494.566	124.780	-0.244	-0.305
-493.551	-173.603	0.154	0.005
-492.537	540.105	-0.031	-0.074
-491.522	312.383	0.120	-0.224
-490.508	-64.536	0.248	0.100
-489.493	-164.370	0.039	0.002
-488.478	-16.563	-0.201	-0.126
-487.464	-47.694	-0.084	0.041
-486.449	-114.440	-0.174	0.033
-485.435	30.137	0.068	-0.058
-484.420	-155.062	-0.530	0.035
-483.405	72.584	-0.053	-0.055
-482.391	-105.867	-0.298	-0.067
-481.376	131.207	-0.136	-0.174
-480.362	-126.145	0.222	0.033
-479.347	-91.578	-0.099	-0.028
-478.332	3.685	0.338	-0.245
-477.318	0.357	-0.143	-0.101
-476.303	-154.238	0.162	0.011
-475.289	-0.858	-0.069	-0.048
-474.274	-200.000	-0.004	-0.180
-473.259	-200.000	0.021	-0.213
-472.245	84.413	0.131	0.142
-471.230	89.564	0.158	0.175
-470.216	20.485	0.098	0.079
-469.201	-62.333	0.097	0.040
-468.186	-19.384	0.158	-0.097
-467.172	415.974	-0.021	0.044
-466.157	-12.958	-0.191	0.124
-465.143	-149.188	-0.148	-0.012
-464.128	307.399	-0.085	0.157
-463.113	-200.000	0.031	0.435
-462.099	199.718	-0.094	0.143
-461.084	-94.307	-0.209	0.057
-460.070	-3.102	0.306	-0.212
-459.055	-137.337	0.184	0.021
-458.040	-73.440	0.191	0.069
-457.026	-200.000	-0.045	-0.216
-456.011	647.438	0.049	-0.125
-454.997	98.015	-0.111	-0.126
-453.982	72.953	-0.049	0.051
-452.968	-200.000	0.001	-0.016
-451.953	-39.519	-0.086	0.045
-450.938	-152.794	0.356	0.025
-449.924	-22.538	-0.263	0.158
-448.909	-3.656	0.515	-0.355
-447.895	-200.000	-0.030	0.217
-446.880	-200.000	0.076	-0.400
-445.865	-200.000	-0.045	-0.365
-444.851	-38.377	-0.424	0.223
-443.836	-200.000	0.006	-0.103
-442.822	-66.273	-0.113	-0.045
-441.807	-157.951	-0.165	0.010
-440.792	72.208	0.105	-0.108
-439.778	-51.603	0.378	0.175
-438.763	-18.476	-0.180	-0.112
-437.749	-200.000	0.027	0.274
-436.734	-149.890	0.178	-0.014
-435.719	217.289	-0.234	-0.370
-434.705	230.790	0.158	0.257
-433.690	-103.267	-0.208	-0.049
-432.676	-168.589	-0.366	-0.014
-431.661	-163.477	-0.356	0.017
-430.646	163.546	-0.170	0.237
-429.632	-200.000	0.006	0.202
-428.617	2.649	-0.224	0.161
-427.603	27.681	-0.117	-0.097
-426.588	-121.168	0.232	-0.038
-425.573	110.616	0.032	0.038
-424.559	110.422	-0.256	0.305
-423.544	46.884	-0.277	0.255
-422.530	-39.167	0.344	0.179
-421.515	175.286	0.126	0.181
-420.500	10.456	0.077	-0.058
-419.486	-40.503	0.229	-0.118
-418.471	-25.400	-0.184	-0.108
-417.457	-200.000	0.046	-0.277
-416.442	-2.862	-0.135	0.093
-415.428	29.617	0.107	-0.090
-414.413	-200.000	-0.006	-0.039
-413.398	800.000	0.031	-0.126
-412.384	208.811	-0.141	0.219
-411.369	-88.854	0.304	0.089
-410.355	739.951	0.029	0.076
-409.340	-91.855	-0.257	-0.072
-408.325	-200.000	0.092	0.439
-407.311	-200.000	0.022	-0.388
-406.296	229.932	-0.060	0.097
-405.282	211.586	-0.193	0.301
-404.267	390.098	-0.132	-0.270
-403.252	-28.962	-0.234	0.133
-402.238	800.000	0.083	-0.266
-401.223	218.325	0.216	0.341
-400.209	-5.434	-0.157	-0.107
-399.194	-200.000	-0.018	0.422
-398.179	384.505	-0.090	0.184
-397.165	800.000	-0.036	0.126
-396.150	-81.986	-0.237	0.077
-395.136	-17.331	-0.044	0.028
-394.121	583.178	-0.010	0.024
-393.106	-31.595	-0.413	-0.229
-392.092	-66.115	0.110	0.043
-391.077	-21.426	0.320	0.194
-390.063	-150.874	0.397	0.030
-389.048	38.924	0.121	0.107
-388.033	199.856	0.030	-0.046
-387.019	-194.547	-0.076	0.001
-386.004	481.140	-0.043	0.097
-384.990	-30.697	0.424	-0.237
-383.975	800.000	0.039	0.130
-382.960	-200.000	-0.029	0.160
-381.946	-200.000	-0.010	-0.107
-380.931	-141.888	-0.208	-0.021
-379.917	-81.487	-0.106	0.035
-378.902	116.933	-0.220	0.267
-377.888	-200.000	-0.052	-0.462
-376.873	800.000	0.097	-0.276
-375.858	22.960	-0.068	-0.055
-374.844	-31.296	0.078	-0.043
-373.829	172.022	-0.166	-0.235
-372.815	41.869	-0.164	0.147
-371.800	-66.649	0.182	-0.071
-370.785	653.362	0.051	-0.129
-369.771	800.000	-0.056	0.197
-368.756	-64.931	-0.320	0.128
-367.742	-123.660	-0.370	0.058
-366.727	800.000	-0.014	0.042
-365.712	-200.000	0.029	0.223
-364.698	-79.103	0.226	-0.076
-363.683	-96.602	-0.202	0.053
-362.669	603.422	-0.099	0.244
-361.654	95.287	-0.105	0.118
-360.639	122.418	0.111	0.137
-359.625	116.729	0.163	0.198
-358.610	-192.002	0.248	0.002
-357.596	-200.000	-0.004	-0.067
-356.581	-108.240	0.076	0.016
-355.566	524.992	-0.075	0.174
-354.552	-170.137	0.296	0.010
-353.537	386.477	-0.060	-0.123
-352.523	-1.822	0.183	0.127
-351.508	-200.000	-0.012	-0.071
-350.493	-200.000	-0.000	0.143
-349.479	139.522	0.139	0.181
-348.464	96.848	-0.138	-0.156
-347.450	583.089	0.006	-0.014
-346.435	-136.532	-0.290	-0.033
-345.420	-200.000	0.007	-0.156
-344.406	800.000	0.033	0.105
-343.391	77.741	0.136	-0.143
-342.377	-149.087	-0.394	-0.031
-341.362	488.949	-0.068	-0.153
-340.348	24.344	0.039	0.032
-339.333	-44.412	0.220	0.109
-338.318	-139.238	-0.245	0.026
-337.304	-8.844	0.035	-0.023
-336.289	-82.498	0.210	-0.067
-335.275	102.647	0.083	-0.096
-334.260	677.459	-0.093	0.239
-333.245	96.780	-0.156	-0.177
-332.231	-200.000	-0.084	-0.455
-331.216	-9.036	-0.268	-0.177
-330.202	87.287	0.199	0.218
-329.187	-126.117	0.086	0.013
-328.172	-153.480	-0.258	0.018
-327.158	-200.000	-0.042	-0.235
-326.143	44.295	0.201	-0.182
-325.129	-39.946	-0.088	-0.045
-324.114	49.383	-0.100	-0.093
-323.099	237.031	0.060	-0.098
-322.085	424.685	-0.179	0.380
-321.070	-200.000	-0.075	-0.417
-320.056	-200.000	-0.044	-0.275
-319.041	31.494	0.085	0.072
-318.026	-105.740	0.364	0.081
-317.012	338.436	0.124	-0.238
-315.997	-200.000	0.019	-0.419
-314.983	-98.023	-0.105	0.027
-313.968	-20.136	-0.237	-0.144
-312.953	-200.000	0.025	-0.136
-311.939	-75.472	0.208	-0.073
-310.924	483.887	0.013	-0.029
-309.910	-37.031	-0.373	-0.197
-308.895	419.609	-0.101	0.213
-307.880	-76.225	0.223	0.078
-306.866	-200.000	0.009	-0.236
-305.851	358.041	-0.043	-0.085
-304.837	41.903	-0.058	0.052
-303.822	-113.501	0.035	0.007
-302.807	800.000	0.090	-0.252
-301.793	-69.974	0.218	-0.082
-300.778	-200.000	0.058	0.272
-299.764	-118.625	-0.535	0.093
-298.749	54.255	0.232	0.220
-297.735	-200.000	0.020	0.461
-296.720	-103.894	-0.554	-0.128
-295.705	800.000	0.036	-0.127
-294.691	610.505	0.124	0.306
-293.676	669.949	0.193	-0.492
-292.662	-111.727	-0.068	-0.014
-291.647	800.000	0.041	-0.142
-290.632	-110.174	0.179	0.037
-289.618	-174.495	0.352	0.010
-288.603	-24.779	0.257	-0.150
-287.589	-49.141	0.193	-0.091
-286.574	358.566	0.130	0.256
-285.559	-71.615	0.154	0.057
-284.545	118.200	-0.023	0.028
-283.530	798.306	0.085	0.232
-282.516	-132.421	-0.096	0.012
-281.501	-55.451	0.091	0.040
-280.486	-142.504	0.206	-0.020
-279.472	-200.000	-0.003	0.179
-278.457	800.000	-0.016	-0.066
-277.443	198.075	-0.070	-0.105
-276.428	-34.659	0.129	0.069
-275.413	800.000	-0.140	-0.434
-274.399	-200.000	0.028	-0.197
-273.384	-129.428	-0.347	0.047
-272.370	-92.973	-0.093	-0.026
-271.355	106.628	0.193	0.226
-270.340	-117.127	-0.102	0.018
-269.326	221.591	0.050	0.078
-268.311	-200.000	-0.003	-0.022
-267.297	-200.000	0.025	0.165
-266.282	138.648	0.082	-0.106
-265.267	-200.000	-0.012	0.128
-264.253	24.530	-0.179	0.146
-263.238	-173.543	-0.381	0.011
-262.224	800.000	0.121	0.363
-261.209	800.000	-0.057	-0.154
-260.195	67.965	0.026	-0.026
-259.180	186.510	-0.245	-0.359
-258.165	-200.000	0.032	-0.211
-257.151	-200.000	-0.023	-0.152
-256.136	-109.443	0.023	0.005
-255.122	-111.949	0.180	-0.036
-254.107	231.039	0.047	0.076
-253.092	39.052	-0.289	0.254
-252.078	47.654	0.155	0.142
-251.063	-20.068	0.035	-0.021
-250.049	-200.000	-0.012	0.118
-249.034	800.000	-0.068	0.202
-248.019	93.101	-0.047	0.052
-247.005	-200.000	-0.038	-0.458
-245.990	800.000	0.100	-0.293
-244.976	108.033	0.379	-0.445
-243.961	800.000	0.158	-0.548
-242.946	167.870	-0.117	-0.164
-241.932	-9.313	-0.070	-0.046
-240.917	382.488	-0.136	0.276
-239.903	255.174	0.232	0.391
-238.888	-33.831	0.133	-0.072
-237.873	21.727	0.176	0.141
-236.859	-120.684	0.310	-0.052
-235.844	294.543	0.070	-0.127
-234.830	291.950	-0.079	-0.141
-233.815	270.421	0.049	-0.085
-232.800	61.716	0.182	-0.178
-231.786	24.718	-0.045	0.037
-230.771	-181.740	0.392	-0.007
-229.757	-96.242	-0.450	0.117
-228.742	150.202	-0.045	0.060
-227.727	228.734	-0.180	0.288
-226.713	232.196	-0.055	0.089
-225.698	577.522	-0.050	-0.120
-224.684	-200.000	-0.040	0.264
-223.669	124.391	0.120	0.149
-222.655	-53.885	0.182	-0.082
-221.640	-200.000	0.067	-0.359
-220.625	-200.000	0.000	-0.006
-219.611	-147.462	-0.110	0.009
-218.596	497.384	0.038	-0.085
-217.582	520.735	0.178	-0.410
-216.567	274.797	0.117	-0.203
-215.552	-25.255	0.126	0.073
-214.538	45.296	-0.248	0.225
-213.523	-18.943	-0.148	-0.091
-212.509	49.974	-0.141	-0.131
-211.494	662.791	0.066	-0.168
-210.479	239.322	0.087	-0.142
-209.465	202.146	0.234	0.355
-208.450	210.550	-0.044	0.069
-207.436	800.000	0.045	-0.171
-206.421	-152.846	0.081	0.006
-205.406	-141.256	0.205	-0.020
-204.392	-82.457	0.119	-0.038
-203.377	398.446	-0.077	0.158
-202.363	9.875	-0.261	0.195
-201.348	800.000	0.024	-0.083
-200.333	-189.667	-0.171	0.002
-199.319	147.250	0.226	0.299
-198.304	-121.916	-0.438	-0.071
-197.290	-200.000	-0.017	-0.335
-196.275	-26.536	-0.139	-0.080
-195.260	-51.786	0.148	-0.067
-194.246	18.679	0.205	-0.161
-193.231	672.767	-0.046	-0.117
-192.217	141.490	-0.137	0.178
-191.202	-200.000	0.020	0.197
-190.187	137.923	0.068	0.087
-189.173	3.692	-0.212	0.152
-188.158	-106.268	-0.258	0.057
-187.144	-57.540	0.432	0.186
-186.129	-88.027	-0.136	-0.040
-185.114	320.006	-0.023	-0.043
-184.100	340.882	-0.120	-0.231
-183.085	800.000	-0.072	-0.233
-182.071	-200.000	0.015	-0.082
-181.056	80.143	-0.105	0.111
-180.042	-109.257	-0.161	0.034
-179.027	219.731	-0.133	0.209
-178.012	196.900	0.124	-0.186
-176.998	-105.474	-0.150	0.033
-175.983	-200.000	-0.009	-0.222
-174.969	800.000	0.037	-0.107
-173.954	29.751	0.214	-0.179
-172.939	23.474	0.161	-0.130
-171.925	485.380	-0.110	0.245
-170.910	-118.874	-0.204	-0.035
-169.896	-107.696	0.239	0.051
-168.881	96.575	0.202	0.227
-167.866	-27.171	-0.023	0.013
-166.852	-159.831	-0.179	-0.010
-165.837	232.725	-0.111	0.179
-164.823	132.041	-0.266	0.336
-163.808	684.961	0.079	0.203
-162.793	-112.205	-0.214	0.042
-161.779	168.252	0.284	0.397
-160.764	-200.000	-0.041	-0.464
-159.750	-92.248	0.281	-0.078
-158.735	800.000	0.113	0.461
-157.720	-123.083	0.490	0.077
-156.706	-200.000	0.028	0.173
-155.691	402.659	-0.167	0.344
-154.677	-91.309	-0.126	-0.035
-153.662	525.902	0.078	-0.181
-152.647	-26.078	0.203	0.117
-151.633	-60.191	0.256	0.107
-150.618	-31.516	-0.128	-0.070
-149.604	-147.040	-0.044	0.004
-148.589	-200.000	0.076	-0.425
-147.574	-124.256	-0.268	-0.041
-146.560	-140.444	0.185	-0.019
-145.545	-172.117	-0.347	-0.011
-144.531	63.186	0.135	0.133
-143.516	-159.081	-0.032	0.002
-142.502	800.000	-0.063	0.251
-141.487	1.921	-0.497	0.352
-140.472	-184.453	-0.373	-0.006
-139.458	285.946	0.111	0.196
-138.443	506.586	-0.176	0.399
-137.429	39.303	-0.209	0.184
-136.414	44.494	-0.313	-0.282
-135.399	245.360	-0.146	0.241
-134.385	97.535	0.239	0.269
-133.370	-126.515	0.223	0.032
-132.356	347.641	-0.093	-0.179
-131.341	-200.000	0.026	-0.126
-130.326	89.856	-0.126	-0.137
-129.312	-70.871	0.253	0.093
-128.297	48.434	0.189	0.173
-127.283	-10.625	-0.594	0.385
-126.268	50.697	0.102	0.095
-125.253	-169.134	0.208	-0.008
-124.239	-128.171	0.459	-0.064
-123.224	129.372	0.050	0.063
-122.210	800.000	-0.020	0.080
-121.195	44.739	-0.129	0.116
-120.180	-13.640	0.294	0.186
-119.166	-53.932	-0.339	-0.151
-118.151	800.000	-0.013	0.050
-117.137	-146.539	-0.226	0.019
-116.122	-142.073	-0.230	0.022
-115.107	-7.778	0.228	0.151
-114.093	-200.000	0.017	-0.263
-113.078	63.406	0.126	0.124
-112.064	800.000	0.044	-0.128
-111.049	-128.891	-0.293	0.040
-110.034	-20.682	0.228	0.137
-109.020	-26.638	0.155	-0.089
-108.005	221.356	-0.162	0.255
-106.991	262.654	0.066	-0.112
-105.976	124.053	-0.054	-0.067
-104.962	654.374	-0.015	0.039
-103.947	-80.145	0.415	0.136
-102.932	-133.852	-0.380	0.046
-101.918	-82.876	-0.139	-0.044
-100.903	-200.000	0.025	0.140
-99.889	-200.000	0.001	-0.063
-98.874	-200.000	0.008	0.139
-97.859	-96.054	-0.312	-0.081
-96.845	585.391	-0.079	0.190
-95.830	105.651	0.229	0.265
-94.816	-142.005	0.176	0.017
-93.801	-92.886	-0.086	-0.024
-92.786	47.141	-0.227	0.207
-91.772	104.695	-0.206	0.238
-90.757	2.439	0.068	0.048
-89.743	-200.000	0.030	0.312
-88.728	332.472	0.154	-0.291
-87.713	-132.148	0.048	0.006
-86.699	460.916	-0.026	-0.056
-85.684	-96.842	0.208	-0.054
-84.670	-176.179	-0.173	0.004
-83.655	555.885	0.117	-0.277
-82.640	-57.283	0.161	-0.069
-81.626	758.829	0.063	0.168
-80.611	34.925	-0.296	0.254
-79.597	87.277	0.313	-0.339
-78.582	-173.332	-0.105	-0.003
-77.567	-130.256	0.268	-0.036
-76.553	800.000	-0.101	0.352
-75.538	800.000	0.054	0.173
-74.524	-32.020	-0.041	-0.022
-73.509	43.118	0.349	0.312
-72.494	-143.489	-0.087	0.008
-71.480	-28.002	-0.118	-0.067
-70.465	-200.000	-0.008	-0.152
-69.451	323.140	-0.133	0.249
-68.436	3.931	-0.219	-0.157
-67.422	101.995	0.076	-0.087
-66.407	1.848	0.155	0.109
-65.392	-77.627	-0.148	0.050
-64.378	-46.675	-0.286	-0.137
-63.363	-200.000	-0.009	0.198
-62.349	57.939	0.086	0.082
-61.334	34.777	-1.125	-0.961
-60.319	174.176	0.375	0.529
-59.305	800.000	-0.366	-1.478
-58.290	800.000	0.373	1.060
-57.276	461.691	0.577	1.258
-56.261	-200.000	116.284	644.288
-55.246	503.056	1540.193	3479.291
-54.232	174.221	2720.793	3841.657
-53.217	98.481	2296.665	2586.594
-52.203	35.505	1903.386	1632.380
-51.188	29.602	1696.297	1409.832
-50.173	27.182	1654.859	1357.289
-49.159	47.539	1712.121	1559.474
-48.144	46.027	1725.818	1560.410
-47.130	29.146	1682.986	1395.088
-46.115	26.528	1668.276	1363.151
-45.100	26.338	1663.974	1358.155
-44.086	26.296	1661.096	1355.437
-43.071	26.308	1659.200	1353.927
-42.057	26.321	1656.124	1351.459
-41.042	26.387	1654.403	1350.498
-40.027	26.218	1652.854	1347.921
-39.013	26.257	1650.049	1345.865
-37.998	26.257	1649.262	1345.170
-36.984	26.300	1647.789	1344.235
-35.969	26.383	1646.079	1343.405
-34.954	26.427	1644.724	1342.569
-33.940	26.379	1642.952	1340.718
-32.925	26.435	1640.768	1339.297
-31.911	26.383	1639.588	1337.892
-30.896	26.368	1637.655	1336.152
-29.881	26.503	1636.051	1335.791
-28.867	26.472	1634.697	1334.403
-27.852	26.457	1633.708	1333.432
-26.838	26.509	1631.618	1332.054
-25.823	26.420	1630.453	1330.397
-24.809	26.510	1628.922	1329.752
-23.794	26.449	1627.286	1327.922
-22.779	26.481	1625.923	1326.988
-21.765	26.429	1624.085	1325.056
-20.750	26.419	1622.337	1323.500
-19.736	26.463	1621.436	1323.036
-18.721	26.547	1619.687	1322.171
-17.706	26.461	1618.215	1320.293
-16.692	26.390	1617.312	1318.984
-15.677	26.491	1615.592	1318.263
-14.663	26.604	1614.200	1317.900
-13.648	26.545	1612.369	1315.919
-12.633	26.399	1611.047	1313.731
-11.619	26.466	1609.904	1313.229
-10.604	26.388	1608.256	1311.268
-9.590	26.450	1606.802	1310.483
-8.575	26.541	1605.105	1309.705
-7.560	26.497	1604.009	1308.441
-6.546	26.508	1602.945	1307.602
-5.531	26.519	1602.246	1307.054
-4.517	26.469	1601.218	1305.803
-3.502	26.484	1599.989	1304.856
-2.487	26.588	1597.616	1303.619
-1.473	26.170	1586.109	1291.191
-0.458	23.472	1567.672	1257.036
0.556	20.993	1569.203	1226.748
1.571	18.769	1592.842	1229.223
2.586	18.255	1605.928	1235.496
3.600	16.251	1549.775	1178.220
4.615	9.564	1442.109	1052.694
5.629	4.078	1383.148	975.101
6.644	3.274	1375.871	964.850
7.659	3.129	1375.107	963.321
8.673	3.218	1374.123	963.101
9.688	3.240	1371.518	961.329
10.702	3.189	1368.725	958.973
11.717	5.721	1373.219	977.849
12.731	12.990	1386.533	1032.889
13.746	19.084	1396.446	1078.488
14.761	20.226	1398.495	1087.138
15.775	19.682	1395.871	1081.599
16.790	18.715	1393.543	1073.651
17.804	17.937	1391.104	1066.820
18.819	17.526	1390.209	1063.471
19.834	17.428	1388.379	1061.365
20.848	17.298	1387.217	1059.572
21.863	17.041	1386.222	1057.121
22.877	16.935	1385.277	1055.646
23.892	17.004	1383.995	1055.004
24.907	16.969	1382.927	1053.880
25.921	16.968	1382.154	1053.191
26.936	17.001	1381.892	1053.102
27.950	16.989	1380.479	1051.860
28.965	17.192	1379.046	1051.931
29.980	17.149	1378.454	1051.118
30.994	17.325	1377.234	1051.186
32.009	17.294	1376.375	1050.243
33.023	17.230	1375.420	1049.030
34.038	17.122	1373.946	1047.146
35.053	17.130	1372.317	1045.859
36.067	17.124	1371.446	1045.069
37.082	17.106	1370.612	1044.230
38.096	17.109	1369.906	1043.616
39.111	17.275	1368.770	1043.680
40.126	17.127	1367.546	1041.747
41.140	16.858	1367.292	1039.807
42.155	16.815	1366.147	1038.586
43.169	16.713	1366.169	1037.882
44.184	16.768	1365.523	1037.636
45.199	16.789	1364.924	1037.217
46.213	16.869	1364.832	1037.550
47.228	17.020	1363.691	1037.510
48.242	17.097	1362.750	1037.173
49.257	17.023	1361.257	1035.491
50.271	16.994	1359.556	1033.933
51.286	17.110	1358.491	1033.738
52.301	17.007	1357.121	1031.979
53.315	16.906	1356.216	1030.582
54.330	16.870	1354.404	1028.894
55.344	16.776	1353.743	1027.732
56.359	16.748	1353.078	1026.965
57.374	16.794	1351.594	1026.032
58.388	16.695	1350.796	1024.735
59.403	16.721	1350.624	1024.667
60.417	16.731	1349.525	1023.806
61.432	16.720	1348.572	1022.922
62.447	16.684	1347.671	1021.936
63.461	16.632	1346.323	1020.505
64.476	16.496	1345.738	1019.156
65.490	16.520	1344.328	1018.142
66.505	16.473	1342.673	1016.517
67.520	16.544	1341.608	1016.043
68.534	16.677	1340.506	1015.920
69.549	16.683	1339.327	1014.969
70.563	16.540	1338.315	1013.260
71.578	16.495	1337.307	1012.138
72.593	16.449	1336.487	1011.147
73.607	16.378	1335.726	1010.061
74.622	16.349	1334.312	1008.731
75.636	16.374	1334.640	1009.037
76.651	16.586	1333.163	1009.093
77.666	16.459	1333.117	1008.216
78.680	16.680	1331.990	1008.588
79.695	16.644	1331.515	1007.925
80.709	16.631	1331.165	1007.495
81.724	16.674	1330.643	1007.267
82.739	16.736	1329.516	1006.695
83.753	16.965	1328.355	1007.082
84.768	17.047	1327.636	1006.936
85.782	17.060	1327.012	1006.452
86.797	17.110	1325.349	1005.399
87.812	16.971	1324.607	1003.922
88.826	16.941	1323.348	1002.702
89.841	17.057	1322.267	1002.478
90.855	17.171	1321.111	1002.188
91.870	17.101	1320.380	1001.131
92.884	17.150	1319.194	1000.433
93.899	17.133	1318.880	1000.008
94.914	17.315	1317.686	1000.080
95.928	17.261	1317.134	999.254
96.943	17.243	1315.833	998.074
97.957	17.052	1315.236	996.411
98.972	17.123	1314.114	995.890
99.987	17.165	1313.133	995.309
101.001	17.102	1311.929	993.936
102.016	17.057	1310.807	992.736
103.030	17.165	1309.806	992.523
104.045	17.089	1309.044	991.414
105.060	16.969	1307.761	989.654
106.074	16.789	1306.426	987.506
107.089	16.623	1304.571	985.051
108.103	16.598	1303.130	983.731
109.118	16.531	1302.542	982.808
110.133	16.660	1300.856	982.196
111.147	16.714	1299.136	981.127
112.162	16.714	1298.362	980.456
113.176	16.716	1297.346	979.613
114.191	16.720	1296.587	978.975
115.206	16.841	1295.080	978.450
116.220	16.676	1294.170	976.726
117.235	16.754	1292.676	975.956
118.249	16.713	1291.939	975.080
119.264	16.796	1290.236	974.185
120.279	16.619	1289.425	972.467
121.293	16.688	1288.261	971.903
122.308	16.482	1287.687	970.202
123.322	16.476	1286.165	968.936
124.337	16.472	1285.135	968.048
125.352	16.467	1284.146	967.188
126.366	16.513	1283.151	966.620
127.381	16.523	1282.230	965.896
128.395	16.485	1280.928	964.610
129.410	16.631	1279.977	964.645
130.424	16.624	1279.393	964.079
131.439	16.595	1278.590	963.226
132.454	16.683	1278.065	963.242
133.468	16.686	1277.329	962.623
134.483	16.710	1275.886	961.584
135.497	16.810	1274.912	961.332
136.512	16.798	1273.507	960.123
137.527	16.687	1272.733	958.824
138.541	16.775	1271.366	958.205
139.556	16.835	1270.024	957.451
140.570	16.975	1269.018	957.395
141.585	17.028	1268.031	956.864
142.600	17.056	1266.586	955.849
143.614	17.020	1266.294	955.338
144.629	17.158	1264.848	954.943
145.643	17.242	1263.451	954.274
146.658	17.021	1262.759	952.428
147.673	17.090	1260.806	951.254
148.687	16.909	1259.841	949.429
149.702	16.833	1258.743	948.095
150.716	16.897	1256.892	946.971
151.731	16.809	1256.121	945.819
152.746	16.828	1255.178	945.129
153.760	16.946	1254.297	945.040
154.775	17.050	1252.828	944.428
155.789	17.049	1252.013	943.723
156.804	17.093	1250.970	943.099
157.819	17.114	1249.738	942.201
158.833	17.168	1249.261	942.060
159.848	17.388	1248.339	942.498
160.862	17.260	1247.589	941.144
161.877	17.055	1246.186	938.864
162.892	16.911	1245.004	937.096
163.906	16.937	1243.967	936.380
164.921	16.880	1242.898	935.178
165.935	16.892	1242.528	934.882
166.950	17.048	1241.956	935.229
167.964	16.993	1240.543	933.778
168.979	17.031	1239.994	933.493
169.994	17.069	1238.879	932.779
171.008	17.000	1238.844	932.288
172.023	17.232	1237.378	932.380
173.037	17.319	1236.393	932.028
174.052	17.184	1235.887	930.824
175.067	16.961	1235.059	928.896
176.081	17.082	1233.767	928.505
177.096	16.990	1233.084	927.405
178.110	17.019	1231.407	926.224
179.125	16.953	1230.864	925.373
180.140	17.101	1229.126	924.788
181.154	17.244	1228.283	924.854
182.169	17.309	1226.953	924.122
183.183	17.357	1226.139	923.688
184.198	17.270	1224.996	922.270
185.213	17.364	1223.757	921.769
186.227	17.376	1222.875	921.088
187.242	17.311	1222.072	920.048
188.256	17.564	1220.611	920.237
189.271	17.557	1219.922	919.594
190.286	17.236	1218.909	917.017
191.300	16.984	1217.916	914.831
192.315	16.952	1216.837	913.771
193.329	16.878	1216.425	912.977
194.344	17.052	1215.956	913.486
195.359	17.207	1215.509	913.900
196.373	17.301	1214.977	913.923
197.388	17.348	1214.471	913.714
198.402	17.416	1214.198	913.793
199.417	17.584	1213.504	914.093
200.432	17.687	1212.537	913.838
201.446	17.707	1212.120	913.547
202.461	17.794	1211.315	913.327
203.475	17.693	1209.990	911.708
204.490	17.639	1208.380	910.126
205.504	17.508	1207.252	908.495
206.519	17.539	1206.025	907.659
207.534	17.462	1204.899	906.317
208.548	17.359	1204.756	905.586
209.563	17.442	1203.561	905.049
210.577	17.512	1202.618	904.630
211.592	17.604	1201.918	904.514
212.607	17.725	1200.982	904.370
213.621	17.594	1200.138	902.958
214.636	17.553	1199.094	901.877
215.650	17.757	1197.727	901.846
216.665	17.758	1197.466	901.574
217.680	17.884	1196.411	901.367
218.694	17.946	1195.362	900.824
219.709	17.840	1195.079	899.975
220.723	17.807	1194.216	899.069
221.738	17.789	1193.307	898.208
222.753	17.849	1192.342	897.719
223.767	17.765	1192.218	897.106
224.782	17.963	1191.369	897.430
225.796	17.973	1190.911	897.053
226.811	18.112	1189.875	896.927
227.826	17.956	1189.148	895.480
228.840	17.874	1188.562	894.528
229.855	17.853	1187.750	893.727
230.869	17.668	1187.407	892.425
231.884	17.843	1185.949	892.162
232.899	17.698	1185.232	890.788
233.913	17.701	1184.523	890.194
234.928	17.701	1183.412	889.278
235.942	17.654	1183.005	888.647
236.957	17.695	1182.347	888.290
237.972	17.826	1181.157	888.001
238.986	17.707	1181.082	887.246
240.001	17.722	1180.122	886.524
241.015	17.746	1179.038	885.754
242.030	17.987	1178.012	886.155
243.045	17.916	1177.647	885.433
244.059	17.850	1177.125	884.619
245.074	17.990	1175.608	884.130
246.088	18.012	1175.104	883.783
247.103	18.197	1174.157	883.951
248.117	18.143	1173.608	883.178
249.132	18.227	1173.245	883.261
250.147	18.299	1172.942	883.327
251.161	18.507	1171.999	883.609
252.176	18.464	1171.736	883.116
253.190	18.460	1171.213	882.620
254.205	18.553	1170.138	882.212
255.220	18.739	1169.588	882.677
256.234	18.718	1168.646	881.778
257.249	18.613	1168.024	880.689
258.263	18.610	1167.683	880.343
259.278	18.658	1166.981	879.981
260.293	18.712	1166.480	879.798
261.307	18.785	1166.075	879.789
262.322	18.766	1165.174	878.938
263.336	18.794	1164.517	878.508
264.351	18.759	1164.083	877.922
265.366	18.774	1163.503	877.483
266.380	18.725	1163.243	876.962
267.395	18.661	1161.825	875.488
268.409	18.539	1160.966	874.141
269.424	18.586	1160.193	873.721
270.439	18.606	1159.635	873.324
271.453	18.687	1158.727	872.975
272.468	18.486	1157.749	871.141
273.482	18.433	1157.314	870.466
274.497	18.653	1156.397	870.816
275.512	18.666	1155.589	870.195
276.526	18.576	1155.208	869.378
277.541	18.467	1154.703	868.367
278.555	18.566	1154.143	868.370
279.570	18.794	1152.942	868.544
280.585	18.765	1152.469	867.964
281.599	18.890	1151.233	867.584
282.614	18.782	1150.219	866.199
283.628	18.732	1148.839	864.830
284.643	18.757	1147.853	864.140
285.657	18.745	1147.010	863.369
286.672	18.730	1146.416	862.772
287.687	18.707	1145.488	861.882
288.701	18.724	1144.795	861.368
289.716	18.913	1143.609	861.345
290.730	18.806	1143.567	860.704
291.745	18.668	1143.017	859.522
292.760	18.788	1142.322	859.523
293.774	18.931	1141.647	859.653
294.789	19.085	1141.064	859.910
295.803	18.910	1140.698	858.684
296.818	18.908	1139.817	857.932
297.833	18.880	1138.748	856.913
298.847	18.888	1138.132	856.415
299.862	18.965	1137.258	856.064
300.876	18.877	1136.692	855.126
301.891	18.941	1136.432	855.171
302.906	19.148	1135.482	855.406
303.920	19.010	1134.743	854.093
304.935	19.236	1134.141	854.685
305.949	19.356	1133.192	854.489
306.964	19.284	1132.989	853.900
307.979	19.235	1132.127	852.935
308.993	19.150	1131.480	851.952
310.008	19.310	1130.642	852.038
311.022	19.264	1129.623	850.964
312.037	19.228	1128.975	850.222
313.052	19.073	1127.943	848.608
314.066	19.066	1127.171	847.915
315.081	19.001	1126.227	846.812
316.095	18.915	1125.443	845.724
317.110	18.985	1124.235	845.084
318.125	18.991	1123.775	844.695
319.139	19.065	1122.957	844.366
320.154	19.120	1122.335	844.094
321.168	18.979	1121.553	842.744
322.183	19.019	1121.135	842.551
323.197	19.053	1120.554	842.206
324.212	19.203	1119.775	842.278
325.227	19.115	1119.292	841.412
326.241	19.176	1118.667	841.163
327.256	19.183	1117.712	840.408
328.270	19.158	1116.622	839.390
329.285	19.066	1116.061	838.447
330.300	19.073	1115.155	837.725
331.314	18.942	1114.256	836.337
332.329	19.084	1113.259	836.205
333.343	19.209	1112.098	835.866
334.358	19.202	1111.678	835.445
335.373	19.441	1110.759	835.836
336.387	19.362	1110.135	834.911
337.402	19.427	1109.439	834.627
338.416	19.401	1109.136	834.200
339.431	19.523	1108.369	834.138
340.446	19.646	1107.670	834.134
341.460	19.658	1106.997	833.609
342.475	19.677	1106.118	832.968
343.489	19.764	1105.012	832.476
344.504	19.732	1104.512	831.876
345.519	19.735	1103.895	831.351
346.533	19.873	1103.171	831.392
347.548	19.866	1102.093	830.477
348.562	19.883	1101.332	829.910
349.577	19.724	1100.515	828.459
350.592	19.671	1099.400	827.289
351.606	19.471	1098.995	825.954
352.621	19.449	1097.938	824.984
353.635	19.393	1097.283	824.151
354.650	19.480	1096.556	823.948
355.665	19.604	1096.058	824.094
356.679	19.563	1095.707	823.559
357.694	19.676	1094.935	823.447
358.708	19.692	1094.489	823.112
359.723	19.714	1093.648	822.514
360.738	19.734	1092.861	821.945
361.752	19.728	1092.679	821.707
362.767	19.723	1091.929	821.042
363.781	19.749	1091.739	820.951
364.796	19.886	1090.878	820.884
365.810	20.017	1090.080	820.830
366.825	20.053	1089.618	820.580
367.840	20.051	1089.301	820.261
368.854	20.221	1088.348	820.274
369.869	20.124	1088.055	819.519
370.883	20.155	1086.432	818.370
371.898	20.035	1086.224	817.574
372.913	20.002	1085.900	817.104
373.927	20.032	1085.076	816.553
374.942	20.157	1084.413	816.572
375.956	20.082	1084.059	815.881
376.971	20.063	1083.112	815.005
377.986	20.144	1082.717	815.016
379.000	20.224	1082.560	815.202
380.015	20.344	1081.967	815.246
381.029	20.391	1081.043	814.697
382.044	20.333	1080.675	814.080
383.059	20.384	1079.532	813.384
384.073	20.316	1078.968	812.567
385.088	20.351	1077.658	811.675
386.102	20.365	1077.007	811.179
387.117	20.197	1075.924	809.505
388.132	20.025	1075.144	808.047
389.146	20.224	1073.884	807.954
390.161	20.284	1073.045	807.531
391.175	20.199	1072.618	806.742
392.190	20.270	1071.900	806.463
393.205	20.416	1071.369	806.669
394.219	20.310	1070.353	805.337
395.234	20.335	1069.791	804.962
396.248	20.189	1068.503	803.246
397.263	20.224	1067.647	802.690
398.278	20.116	1067.003	801.638
399.292	20.151	1065.952	800.937
400.307	19.983	1065.709	799.910
401.321	20.156	1064.588	799.796
402.336	20.109	1064.221	799.233
403.350	20.112	1063.327	798.504
404.365	20.250	1062.560	798.493
405.380	20.249	1061.956	797.965
406.394	20.293	1061.499	797.753
407.409	20.365	1060.670	797.390
408.423	20.466	1060.216	797.439
409.438	20.623	1059.137	797.279
410.453	20.602	1058.823	796.876
411.467	20.748	1058.107	796.935
412.482	20.673	1057.718	796.228
413.496	20.690	1056.941	795.648
414.511	20.808	1056.119	795.500
415.526	20.811	1056.190	795.498
416.540	20.939	1055.780	795.701
417.555	20.903	1055.011	794.886
418.569	20.882	1054.132	794.059
419.584	20.929	1053.327	793.598
420.599	20.698	1053.412	792.540
421.613	155.420	1404.433	1796.500
422.628	142.635	1455.536	1796.591
