DTS Sentinel unit serial number:	SN413079Multiplexer serial number:	ORYXHardware model number:	OX4-SRSoftware version number:	ORYX F/W v4.00 Oryx Data Collector v3.7.2.0data status	okinstallation	princeton_trtdifferential loss correction	single-endedforward channel	channel 2reverse channel	N/Adate	2019/09/18time	21:35:35forward acquisition time	60.00reverse acquisition time	0.00gamma	496.2192k internal	0.2346k external	0.2346temperature offset calibration	1.0018default loss term (dB/km)	0.3790temperature slope calibration	1.0000multiplexer offset coefficient	1.0000multiplexer slope coefficient	1.0000fibre end	0.00T internal ref (°C)	25.12T ext. ref 1 (°C)	0.81T ext. ref 2 (°C)	18.26length (m)	temperature (°C)	Stokes	anti-Stokes-747.200	-200.000	-0.019	0.479
-746.185	800.000	-0.157	0.439
-745.171	47.336	-0.131	0.122
-744.156	11.751	0.060	-0.046
-743.142	800.000	-0.116	-0.321
-742.127	106.392	-0.309	0.366
-741.112	-100.418	0.251	-0.062
-740.098	800.000	-0.080	0.327
-739.083	-200.000	-0.007	0.079
-738.069	179.655	-0.043	0.063
-737.054	226.218	-0.159	-0.257
-736.039	-116.769	-0.285	0.052
-735.025	593.575	-0.008	0.020
-734.010	-41.476	-0.067	-0.034
-732.996	562.206	-0.141	-0.342
-731.981	-200.000	0.019	0.234
-730.966	-113.653	-0.438	-0.085
-729.952	246.455	-0.206	-0.346
-728.937	124.793	-0.038	-0.048
-727.923	148.667	-0.105	-0.142
-726.908	601.163	-0.199	0.494
-725.894	77.058	0.073	-0.077
-724.879	800.000	-0.063	-0.241
-723.864	800.000	0.037	-0.111
-722.850	145.879	-0.297	-0.398
-721.835	20.541	-0.101	0.082
-720.821	117.898	0.050	-0.062
-719.806	1.761	-0.157	-0.113
-718.791	-61.896	0.234	-0.098
-717.777	20.611	0.295	0.238
-716.762	-77.017	0.122	-0.043
-715.748	800.000	-0.082	0.230
-714.733	-200.000	0.002	0.064
-713.718	-200.000	0.014	-0.121
-712.704	54.902	0.114	-0.110
-711.689	-153.917	0.383	0.026
-710.675	284.513	-0.095	0.171
-709.660	-79.235	-0.162	-0.055
-708.645	-113.486	-0.324	-0.063
-707.631	-73.006	0.029	-0.011
-706.616	-200.000	-0.004	-0.390
-705.602	225.833	0.021	0.033
-704.587	381.704	-0.095	-0.194
-703.572	202.305	-0.039	-0.060
-702.558	-200.000	-0.076	0.402
-701.543	-200.000	-0.009	0.125
-700.529	352.622	-0.023	0.045
-699.514	-53.798	0.073	0.033
-698.499	51.981	-0.205	-0.195
-697.485	800.000	-0.056	0.159
-696.470	-71.641	-0.185	-0.069
-695.456	-200.000	0.095	-0.631
-694.441	42.783	-0.033	-0.030
-693.426	322.279	-0.030	0.056
-692.412	-40.911	0.205	0.106
-691.397	-161.169	0.352	-0.018
-690.383	-200.000	-0.034	0.243
-689.368	-200.000	0.034	-0.468
-688.354	-156.229	-0.300	-0.019
-687.339	-48.379	-0.090	0.043
-686.324	700.578	0.052	0.136
-685.310	-200.000	-0.068	0.355
-684.295	392.081	0.150	0.311
-683.281	114.655	-0.199	0.242
-682.266	42.516	-0.082	0.075
-681.251	456.877	-0.022	0.049
-680.237	46.921	0.045	0.041
-679.222	-40.596	0.237	-0.123
-678.208	162.022	0.254	-0.354
-677.193	-200.000	0.061	-0.294
-676.178	-144.025	0.123	0.011
-675.164	-50.089	-0.524	-0.248
-674.149	-200.000	0.031	-0.316
-673.135	-10.713	-0.494	-0.326
-672.120	-200.000	-0.048	-0.299
-671.105	-33.398	0.177	-0.097
-670.091	334.154	-0.086	-0.167
-669.076	-15.559	0.141	-0.090
-668.062	-31.010	-0.247	0.139
-667.047	-200.000	-0.023	0.147
-666.032	-200.000	0.040	-0.426
-665.018	-17.389	0.142	0.089
-664.003	-67.614	0.112	0.044
-662.989	-200.000	-0.031	0.261
-661.974	-46.386	-0.122	0.060
-660.959	-0.989	0.165	0.116
-659.945	-200.000	-0.041	-0.205
-658.930	78.100	-0.296	0.315
-657.916	-59.699	-0.124	0.053
-656.901	82.576	-0.127	-0.138
-655.886	-4.786	-0.209	0.144
-654.872	-110.888	-0.098	-0.020
-653.857	-32.214	0.092	0.051
-652.843	800.000	0.057	0.242
-651.828	800.000	-0.031	-0.132
-650.814	-80.708	-0.159	0.053
-649.799	65.310	0.161	0.162
-648.784	1.527	0.252	0.181
-647.770	-178.198	-0.388	0.009
-646.755	177.699	0.255	-0.370
-645.741	800.000	0.073	-0.262
-644.726	-176.772	-0.150	0.004
-643.711	220.525	-0.078	0.125
-642.697	-119.255	-0.162	0.028
-641.682	239.124	-0.120	-0.200
-640.668	-200.000	0.010	-0.163
-639.653	44.072	0.243	-0.222
-638.638	34.920	-0.110	-0.096
-637.624	432.708	-0.006	-0.012
-636.609	-162.328	-0.163	-0.008
-635.595	800.000	-0.023	0.067
-634.580	800.000	-0.055	-0.166
-633.565	-200.000	-0.019	0.190
-632.551	217.543	0.052	-0.083
-631.536	-200.000	-0.036	-0.267
-630.522	-188.460	-0.223	0.003
-629.507	-200.000	0.028	0.346
-628.492	-123.206	0.326	-0.052
-627.478	162.310	-0.068	-0.094
-626.463	-100.596	0.268	-0.066
-625.449	324.737	0.071	0.135
-624.434	-19.929	-0.187	-0.115
-623.419	448.919	-0.098	-0.216
-622.405	28.866	0.207	0.175
-621.390	-86.836	0.182	-0.055
-620.376	-30.618	-0.198	-0.112
-619.361	-82.411	0.174	-0.056
-618.346	800.000	-0.113	-0.401
-617.332	-91.413	-0.238	0.068
-616.317	501.792	0.051	0.117
-615.303	102.396	-0.150	-0.175
-614.288	-99.556	0.264	-0.066
-613.273	-66.657	-0.253	-0.100
-612.259	61.798	0.238	-0.236
-611.244	-121.176	-0.570	-0.095
-610.230	800.000	0.112	-0.457
-609.215	-200.000	0.028	-0.456
-608.201	-167.733	0.448	0.018
-607.186	800.000	0.036	-0.099
-606.171	800.000	-0.048	-0.153
-605.157	-0.673	0.246	0.174
-604.142	-73.472	-0.104	-0.038
-603.128	-65.257	-0.162	-0.065
-602.113	-200.000	0.062	-0.310
-601.098	-183.299	0.157	0.003
-600.084	800.000	0.061	0.241
-599.069	-200.000	0.038	-0.359
-598.055	-200.000	0.041	0.200
-597.040	-119.723	0.181	0.031
-596.025	348.202	0.097	-0.190
-595.011	381.546	0.068	0.139
-593.996	800.000	0.061	-0.223
-592.982	291.076	-0.183	-0.332
-591.967	-44.631	0.227	-0.113
-590.952	-3.388	0.156	0.108
-589.938	150.341	-0.134	0.181
-588.923	20.404	-0.220	0.177
-587.909	280.053	0.075	0.134
-586.894	17.941	0.197	0.156
-585.879	-83.691	0.333	0.106
-584.865	-200.000	-0.012	-0.103
-583.850	0.071	0.209	-0.148
-582.836	-121.466	0.207	0.034
-581.821	18.892	-0.321	-0.256
-580.806	-81.765	0.072	0.023
-579.792	50.252	0.197	0.185
-578.777	205.342	0.037	-0.058
-577.763	-200.000	0.019	0.115
-576.748	-200.000	-0.166	0.001
-575.733	39.449	-0.221	0.197
-574.719	19.760	-0.044	0.035
-573.704	-48.384	-0.167	0.080
-572.690	800.000	-0.066	0.255
-571.675	-88.196	0.145	-0.043
-570.661	300.631	0.033	0.060
-569.646	87.324	-0.339	-0.372
-568.631	41.310	-0.125	-0.113
-567.617	232.780	-0.247	-0.403
-566.602	61.036	-0.149	0.147
-565.588	-103.023	0.144	0.034
-564.573	800.000	0.079	0.223
-563.558	-12.851	-0.252	0.163
-562.544	13.927	-0.203	-0.157
-561.529	172.784	-0.155	-0.221
-560.515	-88.991	0.039	0.011
-559.500	-144.756	-0.273	0.025
-558.485	75.563	0.133	0.139
-557.471	-89.850	-0.187	-0.054
-556.456	233.340	-0.163	0.266
-555.442	182.964	0.133	0.195
-554.427	-3.500	-0.181	-0.125
-553.412	216.207	-0.305	-0.481
-552.398	-169.216	-0.318	-0.012
-551.383	800.000	0.049	0.203
-550.369	335.837	-0.135	0.260
-549.354	716.898	-0.026	0.068
-548.339	-173.516	0.107	-0.003
-547.325	394.048	-0.029	0.061
-546.310	135.643	0.134	0.173
-545.296	-28.351	0.270	-0.155
-544.281	303.313	-0.183	0.336
-543.266	191.153	0.107	0.160
-542.252	-84.845	-0.032	-0.010
-541.237	-181.958	-0.415	0.008
-540.223	-200.000	-0.022	-0.170
-539.208	327.914	0.120	0.228
-538.193	68.093	0.170	-0.173
-537.179	-20.870	0.172	-0.105
-536.164	-71.631	-0.146	-0.054
-535.150	800.000	0.041	0.157
-534.135	-176.390	0.244	0.006
-533.121	144.416	-0.155	-0.205
-532.106	218.181	-0.138	-0.219
-531.091	-90.451	-0.269	-0.077
-530.077	-50.941	-0.166	-0.077
-529.062	166.142	0.179	-0.252
-528.048	-50.513	0.578	-0.271
-527.033	-200.000	-0.004	0.232
-526.018	54.103	-0.183	-0.174
-525.004	390.666	0.208	-0.428
-523.989	-181.931	-0.194	-0.004
-522.975	147.457	-0.124	0.166
-521.960	372.124	0.174	-0.351
-520.945	-40.210	-0.222	-0.115
-519.931	800.000	-0.017	0.057
-518.916	-12.036	-0.232	-0.151
-517.902	-65.533	0.087	-0.035
-516.887	-41.977	-0.136	-0.069
-515.872	263.258	-0.015	0.025
-514.858	499.417	0.112	0.257
-513.843	-200.000	-0.013	0.223
-512.829	20.685	-0.134	-0.107
-511.814	-12.514	0.193	0.125
-510.799	167.601	0.054	0.076
-509.785	326.062	0.078	0.147
-508.770	-200.000	-0.046	-0.245
-507.756	3.854	-0.306	0.222
-506.741	-29.319	-0.079	-0.045
-505.726	324.700	0.154	0.291
-504.712	609.938	-0.038	-0.095
-503.697	17.579	-0.109	-0.086
-502.683	87.543	-0.281	0.309
-501.668	-200.000	0.113	-0.518
-500.653	-30.836	-0.362	0.202
-499.639	37.137	-0.297	-0.260
-498.624	25.562	-0.293	0.241
-497.610	-107.498	-0.312	-0.068
-496.595	144.380	0.274	0.363
-495.581	167.303	0.035	0.049
-494.566	95.318	0.083	-0.094
-493.551	45.033	0.131	0.120
-492.537	-76.268	0.374	0.131
-491.522	-200.000	-0.003	0.090
-490.508	20.774	-0.187	0.150
-489.493	-88.687	-0.109	-0.032
-488.478	-180.442	0.132	-0.003
-487.464	50.523	0.240	0.224
-486.449	-16.312	-0.272	0.171
-485.435	34.786	0.110	0.095
-484.420	-117.455	0.580	-0.104
-483.405	-200.000	-0.065	-0.284
-482.391	800.000	0.051	0.215
-481.376	566.016	0.184	0.441
-480.362	115.945	0.295	0.358
-479.347	73.510	-0.249	0.258
-478.332	77.507	-0.113	-0.119
-477.318	14.097	0.251	-0.193
-476.303	368.456	-0.042	0.085
-475.289	800.000	-0.047	0.158
-474.274	-30.021	-0.263	-0.148
-473.259	-200.000	0.008	-0.189
-472.245	44.674	-0.197	0.180
-471.230	59.166	-0.267	-0.260
-470.216	291.841	0.143	-0.257
-469.201	-41.685	-0.060	-0.031
-468.186	800.000	0.027	0.081
-467.172	-200.000	-0.050	0.237
-466.157	-200.000	0.004	-0.273
-465.143	-136.271	0.146	-0.017
-464.128	-37.377	0.220	-0.116
-463.113	-158.280	0.480	0.028
-462.099	-148.042	-0.291	0.024
-461.084	-200.000	0.010	0.308
-460.070	800.000	-0.062	0.244
-459.055	-200.000	0.026	0.548
-458.040	170.645	-0.020	0.029
-457.026	800.000	0.098	-0.278
-456.011	89.260	-0.158	0.174
-454.997	-200.000	0.000	-0.113
-453.982	152.702	0.091	-0.122
-452.968	78.924	-0.104	-0.110
-451.953	36.706	0.198	-0.173
-450.938	-48.986	-0.278	-0.131
-449.924	-40.049	-0.319	-0.165
-448.909	-84.202	0.090	-0.028
-447.895	-200.000	0.006	-0.091
-446.880	76.031	0.069	0.072
-445.865	133.511	0.026	0.033
-444.851	-200.000	0.034	-0.254
-443.836	800.000	-0.054	-0.156
-442.822	141.743	-0.066	0.086
-441.807	-67.050	-0.366	-0.143
-440.792	-12.782	-0.116	0.074
-439.778	-68.405	-0.098	0.038
-438.763	-7.381	0.233	0.156
-437.749	-14.504	0.262	-0.166
-436.734	-63.356	-0.137	0.056
-435.719	-88.705	-0.147	-0.043
-434.705	53.045	-0.118	0.112
-433.690	579.878	-0.098	0.237
-432.676	-200.000	0.004	0.097
-431.661	-22.222	-0.053	-0.032
-430.646	85.431	0.088	-0.096
-429.632	-200.000	0.005	-0.022
-428.617	-69.828	-0.279	0.105
-427.603	80.551	0.085	0.090
-426.588	-200.000	-0.024	0.311
-425.573	-53.237	0.147	0.067
-424.559	-77.154	0.207	-0.071
-423.544	532.516	-0.076	-0.178
-422.530	124.358	-0.169	-0.210
-421.515	-200.000	0.003	0.126
-420.500	593.989	0.110	0.268
-419.486	-200.000	-0.054	0.391
-418.471	10.769	-0.134	-0.101
-417.457	335.413	-0.066	-0.126
-416.442	479.643	0.113	-0.252
-415.428	353.518	0.123	0.241
-414.413	800.000	-0.022	0.064
-413.398	800.000	-0.080	0.320
-412.384	-200.000	-0.084	0.542
-411.369	239.224	0.058	0.095
-410.355	-200.000	-0.018	0.293
-409.340	233.914	-0.080	0.129
-408.325	-155.840	0.298	0.019
-407.311	102.020	0.161	0.185
-406.296	-14.577	-0.074	0.047
-405.282	800.000	-0.151	0.566
-404.267	305.977	-0.033	0.060
-403.252	-122.086	-0.101	0.016
-402.238	-200.000	-0.036	0.164
-401.223	178.848	0.114	0.165
-400.209	800.000	0.028	0.086
-399.194	-112.424	0.315	0.062
-398.179	-200.000	-0.058	-0.283
-397.165	-120.191	0.268	-0.045
-396.150	800.000	0.062	0.224
-395.136	800.000	-0.106	-0.376
-394.121	-200.000	0.019	-0.115
-393.106	-200.000	-0.004	0.325
-392.092	-56.412	-0.186	0.082
-391.077	-57.075	-0.098	0.043
-390.063	677.477	-0.057	0.146
-389.048	800.000	0.072	0.253
-388.033	-51.339	-0.479	0.221
-387.019	800.000	-0.053	-0.151
-386.004	-50.152	-0.204	-0.095
-384.990	-16.838	-0.253	-0.158
-383.975	137.672	0.338	-0.436
-382.960	19.430	-0.010	0.008
-381.946	593.067	-0.118	-0.286
-380.931	60.976	0.351	0.343
-379.917	-77.405	0.197	0.068
-378.902	800.000	0.119	0.381
-377.888	-78.635	0.349	0.118
-376.873	404.839	-0.204	0.424
-375.858	103.474	-0.125	-0.145
-374.844	-200.000	-0.009	0.272
-373.829	392.138	0.077	0.158
-372.815	-200.000	0.002	0.394
-371.800	-200.000	-0.022	0.266
-370.785	213.694	0.116	-0.181
-369.771	-68.631	0.161	-0.061
-368.756	-106.234	0.261	-0.058
-367.742	46.266	0.081	-0.074
-366.727	-103.433	-0.260	-0.060
-365.712	487.054	0.117	0.263
-364.698	-200.000	0.005	0.319
-363.683	-200.000	0.016	-0.089
-362.669	201.418	-0.089	-0.134
-361.654	-200.000	0.004	-0.414
-360.639	-50.737	0.138	-0.064
-359.625	800.000	-0.092	0.273
-358.610	-112.179	0.133	0.026
-357.596	-17.166	-0.188	-0.117
-356.581	-26.784	0.137	-0.079
-355.566	-186.352	-0.286	0.004
-354.552	295.340	0.053	-0.095
-353.537	58.039	0.140	-0.135
-352.523	139.189	0.090	0.117
-351.508	800.000	-0.092	0.260
-350.493	17.042	-0.103	0.081
-349.479	-23.727	0.141	-0.083
-348.464	103.414	0.242	-0.280
-347.450	-160.846	0.099	-0.005
-346.435	-92.576	0.249	0.069
-345.420	-94.490	-0.328	-0.088
-344.406	-52.934	-0.272	-0.123
-343.391	-73.133	0.228	-0.082
-342.377	-52.241	0.347	-0.158
-341.362	-12.737	-0.149	-0.095
-340.348	182.300	0.152	-0.220
-339.333	286.543	0.123	-0.218
-338.318	-200.000	-0.173	-0.001
-337.304	-84.807	0.068	0.021
-336.289	-200.000	0.018	0.261
-335.275	143.754	-0.068	-0.089
-334.260	-200.000	0.012	-0.326
-333.245	-182.486	0.235	-0.004
-332.231	4.490	-0.248	0.179
-331.216	-110.497	-0.211	-0.043
-330.202	800.000	0.040	-0.148
-329.187	598.686	-0.099	0.241
-328.172	157.457	-0.178	-0.243
-327.158	-200.000	-0.002	0.175
-326.143	-2.928	0.201	0.138
-325.129	800.000	0.084	-0.325
-324.114	-23.635	0.123	-0.073
-323.099	-125.189	0.281	-0.042
-322.085	-139.621	0.042	0.004
-321.070	90.398	0.110	-0.121
-320.056	290.548	0.129	0.231
-319.041	800.000	-0.164	0.502
-318.026	460.263	-0.070	0.154
-317.012	-20.417	-0.245	-0.148
-315.997	304.589	-0.142	0.260
-314.983	-93.036	0.263	-0.072
-313.968	-200.000	0.056	-0.265
-312.953	400.240	0.065	-0.135
-311.939	-188.426	-0.057	0.001
-310.924	474.153	0.032	-0.071
-309.910	-200.000	0.039	-0.247
-308.895	-200.000	-0.064	0.303
-307.880	800.000	-0.135	0.467
-306.866	-72.721	-0.410	0.149
-305.851	274.548	0.083	-0.144
-304.837	-56.234	0.163	-0.071
-303.822	-79.737	-0.317	0.105
-302.807	-4.649	0.066	0.045
-301.793	29.027	-0.055	0.046
-300.778	310.352	-0.184	0.339
-299.764	114.754	0.179	0.215
-298.749	-49.422	-0.401	0.188
-297.735	136.820	-0.116	0.149
-296.720	36.053	0.195	-0.169
-295.705	46.696	-0.122	0.111
-294.691	1.528	-0.183	0.129
-293.676	800.000	0.048	-0.171
-292.662	800.000	-0.110	0.326
-291.647	-200.000	-0.014	-0.462
-290.632	529.277	0.082	-0.189
-289.618	42.645	0.187	0.168
-288.603	232.382	0.266	-0.429
-287.589	572.799	0.044	-0.105
-286.574	-101.698	-0.192	0.046
-285.559	800.000	0.064	-0.202
-284.545	-200.000	-0.013	-0.187
-283.530	-200.000	-0.017	0.137
-282.516	-48.937	-0.183	-0.086
-281.501	8.988	0.259	0.192
-280.486	-123.605	0.149	-0.023
-279.472	474.549	-0.133	-0.294
-278.457	-200.000	-0.052	-0.282
-277.443	383.119	-0.089	-0.180
-276.428	-111.124	0.379	-0.076
-275.413	419.337	-0.140	0.294
-274.399	-130.859	0.193	-0.025
-273.384	-133.427	-0.288	-0.036
-272.370	142.902	-0.139	0.182
-271.355	185.666	0.114	0.167
-270.340	243.447	-0.087	0.144
-269.326	-44.865	0.143	0.070
-268.311	-65.975	0.276	-0.108
-267.297	335.871	-0.076	-0.145
-266.282	-153.404	0.099	0.007
-265.267	-200.000	-0.009	0.416
-264.253	-110.727	0.053	0.011
-263.238	-22.635	0.109	0.065
-262.224	729.070	0.118	0.310
-261.209	14.936	0.273	0.210
-260.195	800.000	-0.042	-0.127
-259.180	130.503	-0.194	-0.244
-258.165	-73.272	-0.162	-0.058
-257.151	769.732	0.071	-0.188
-256.136	60.338	0.348	0.338
-255.122	179.618	0.040	-0.057
-254.107	-116.892	0.289	0.052
-253.092	-37.627	0.181	0.094
-252.078	-91.558	-0.062	-0.017
-251.063	-200.000	-0.004	0.075
-250.049	-103.156	0.137	-0.032
-249.034	-176.917	0.200	-0.005
-248.019	671.944	-0.065	0.166
-247.005	-200.000	-0.028	-0.123
-245.990	-30.326	-0.241	-0.134
-244.976	-27.847	-0.218	0.124
-243.961	-200.000	-0.005	-0.319
-242.946	-34.963	-0.146	-0.078
-241.932	-200.000	0.006	-0.354
-240.917	-200.000	-0.049	-0.234
-239.903	-77.864	0.113	-0.038
-238.888	-72.189	-0.174	0.063
-237.873	-109.629	-0.101	-0.021
-236.859	151.012	-0.047	-0.062
-235.844	-12.572	0.114	-0.073
-234.830	-82.565	0.106	-0.034
-233.815	9.147	0.125	-0.093
-232.800	-74.370	-0.242	-0.086
-231.786	340.154	0.178	-0.341
-230.771	28.912	0.159	-0.132
-229.757	-41.192	0.074	0.037
-228.742	-200.000	0.029	0.299
-227.727	143.160	0.246	0.321
-226.713	-200.000	0.009	0.270
-225.698	33.487	0.132	-0.112
-224.684	186.312	-0.176	-0.256
-223.669	106.377	0.225	-0.261
-222.655	58.418	-0.180	0.173
-221.640	-80.349	-0.293	0.096
-220.625	800.000	-0.027	-0.089
-219.611	67.394	0.233	-0.233
-218.596	800.000	0.073	-0.273
-217.582	-35.431	0.115	-0.061
-216.567	-72.228	-0.190	0.069
-215.552	-64.973	0.456	0.180
-214.538	-187.114	-0.169	-0.002
-213.523	266.056	-0.153	0.262
-212.509	800.000	-0.101	-0.389
-211.494	-81.990	-0.171	-0.055
-210.479	48.559	0.057	-0.053
-209.465	-151.600	-0.378	0.027
-208.450	-27.127	-0.229	0.131
-207.436	-97.847	0.251	-0.063
-206.421	699.098	0.115	0.296
-205.406	-200.000	0.000	-0.248
-204.392	-200.000	0.055	-0.429
-203.377	-50.967	0.245	-0.112
-202.363	-105.190	0.355	0.079
-201.348	-11.349	0.121	0.078
-200.333	-124.620	-0.072	-0.011
-199.319	15.029	-0.115	-0.088
-198.304	800.000	-0.053	0.155
-197.290	-200.000	0.036	-0.347
-196.275	-132.524	-0.306	0.039
-195.260	-7.634	0.140	0.093
-194.246	-51.565	0.230	0.105
-193.231	-102.371	0.503	-0.118
-192.217	17.237	-0.202	0.157
-191.202	-11.662	-0.272	0.175
-190.187	216.243	-0.101	0.157
-189.173	800.000	-0.065	0.180
-188.158	-200.000	0.090	-0.408
-187.144	72.222	-0.177	0.181
-186.129	56.149	0.234	-0.222
-185.114	-200.000	0.000	0.191
-184.100	737.434	0.033	0.086
-183.085	284.882	-0.179	0.315
-182.071	20.943	0.512	-0.406
-181.056	110.292	-0.041	0.048
-180.042	-68.792	0.230	-0.087
-179.027	10.745	-0.195	-0.146
-178.012	55.878	-0.085	-0.080
-176.998	69.808	-0.244	0.246
-175.983	-77.207	-0.320	-0.109
-174.969	65.261	0.100	-0.099
-173.954	643.393	-0.090	-0.225
-172.939	415.878	0.098	0.204
-171.925	-166.700	-0.192	-0.008
-170.910	489.332	0.105	-0.234
-169.896	136.808	0.226	0.289
-168.881	-200.000	-0.007	0.149
-167.866	-52.251	-0.098	-0.045
-166.852	-73.644	-0.307	-0.109
-165.837	-48.292	0.375	0.177
-164.823	800.000	-0.043	-0.166
-163.808	274.156	0.080	0.138
-162.793	-23.536	0.219	0.128
-161.779	-41.424	0.217	0.109
-160.764	-112.074	-0.157	-0.031
-159.750	-97.903	0.097	-0.024
-158.735	212.202	-0.167	-0.258
-157.720	-200.000	0.044	-0.216
-156.706	-121.796	-0.221	0.036
-155.691	456.445	-0.074	0.161
-154.677	184.796	0.097	-0.141
-153.662	27.043	-0.243	-0.199
-152.647	-96.585	0.206	-0.053
-151.633	91.193	0.066	-0.073
-150.618	800.000	0.022	-0.090
-149.604	55.099	-0.142	-0.134
-148.589	-68.937	0.085	-0.032
-147.574	-34.047	-0.185	0.099
-146.560	-42.976	-0.052	0.026
-145.545	800.000	0.076	0.223
-144.531	-65.893	0.058	0.023
-143.516	-4.902	-0.152	-0.102
-142.502	-200.000	0.026	-0.172
-141.487	29.733	0.091	0.076
-140.472	-4.165	-0.258	-0.175
-139.458	-65.973	0.423	-0.165
-138.443	31.107	-0.073	0.061
-137.429	-104.592	0.335	-0.075
-136.414	55.020	0.268	-0.252
-135.399	-104.373	-0.250	-0.056
-134.385	358.022	0.101	-0.197
-133.370	276.181	0.223	0.387
-132.356	97.390	-0.042	-0.047
-131.341	408.875	-0.088	0.181
-130.326	217.517	0.116	0.180
-129.312	-200.000	0.017	-0.279
-128.297	-111.797	0.051	0.010
-127.283	49.536	0.021	0.019
-126.268	-135.517	0.197	0.023
-125.253	-63.567	-0.299	0.120
-124.239	192.334	-0.092	-0.136
-123.224	168.165	0.117	0.162
-122.210	-87.617	0.202	-0.059
-121.195	41.437	-0.086	0.076
-120.180	278.736	0.188	-0.327
-119.166	26.392	-0.158	-0.129
-118.151	-200.000	-0.001	-0.260
-117.137	-55.674	-0.403	-0.176
-116.122	-133.420	0.308	0.038
-115.107	26.863	-0.189	0.154
-114.093	-71.543	0.217	-0.079
-113.078	800.000	0.082	-0.235
-112.064	800.000	-0.058	-0.245
-111.049	61.062	-0.281	0.272
-110.034	-200.000	-0.059	-0.396
-109.020	109.500	-0.177	-0.207
-108.005	202.047	-0.273	-0.410
-106.991	-99.046	0.136	0.034
-105.976	-94.964	0.202	0.053
-104.962	-67.114	0.154	0.059
-103.947	-113.121	-0.184	-0.035
-102.932	516.346	0.151	0.345
-101.918	-136.025	-0.405	-0.046
-100.903	25.892	-0.059	0.048
-99.889	-200.000	0.021	-0.315
-98.874	-124.520	-0.382	-0.058
-97.859	54.972	-0.100	0.094
-96.845	-125.348	-0.093	0.014
-95.830	-173.347	0.358	0.011
-94.816	-180.512	0.024	-0.000
-93.801	800.000	-0.007	0.028
-92.786	-43.263	-0.057	-0.028
-91.772	320.615	-0.187	-0.346
-90.757	-117.508	0.235	0.041
-89.743	47.747	-0.208	0.189
-88.728	-21.293	-0.319	0.190
-87.713	-104.152	-0.382	-0.087
-86.699	387.570	0.052	0.105
-85.684	-96.976	0.071	0.018
-84.670	205.689	0.141	-0.214
-83.655	-2.078	0.071	0.049
-82.640	89.178	-0.033	0.036
-81.626	663.895	0.039	-0.097
-80.611	-28.610	-0.059	-0.033
-79.597	268.720	-0.136	-0.233
-78.582	-200.000	0.034	-0.252
-77.567	33.275	0.236	0.199
-76.553	-189.004	-0.275	0.003
-75.538	-156.712	0.097	0.006
-74.524	-60.477	-0.096	0.040
-73.509	-101.249	0.437	-0.104
-72.494	-200.000	0.030	0.163
-71.480	110.185	0.079	0.092
-70.465	196.672	0.131	0.195
-69.451	-200.000	-0.000	0.035
-68.436	2.909	-0.195	-0.138
-67.422	-79.146	-0.069	-0.023
-66.407	12.249	0.312	-0.234
-65.392	84.791	0.220	-0.234
-64.378	32.804	-0.192	0.161
-63.363	33.854	0.263	-0.223
-62.349	783.943	0.112	0.299
-61.334	58.229	-1.106	-1.055
-60.319	398.523	0.364	0.743
-59.305	707.272	-0.427	-1.097
-58.290	504.130	0.745	1.678
-57.276	-200.000	0.184	1.460
-56.261	-200.000	119.513	621.715
-55.246	419.897	1530.995	3190.758
-54.232	148.679	2687.862	3534.929
-53.217	92.533	2266.315	2487.923
-52.203	33.852	1883.135	1594.911
-51.188	28.261	1680.410	1381.124
-50.173	25.860	1641.377	1331.271
-49.159	45.218	1708.052	1532.373
-48.144	43.599	1720.302	1531.055
-47.130	27.701	1672.231	1369.980
-46.115	25.233	1657.010	1339.056
-45.100	25.086	1652.049	1333.904
-44.086	24.992	1649.580	1331.155
-43.071	25.002	1647.182	1329.243
-42.057	25.001	1644.510	1327.030
-41.042	24.956	1642.600	1325.100
-40.027	25.047	1641.345	1324.707
-39.013	24.934	1639.696	1322.494
-37.998	24.968	1637.772	1321.141
-36.984	24.929	1636.685	1319.922
-35.969	25.062	1634.640	1319.198
-34.954	25.148	1633.466	1318.831
-33.940	25.105	1631.680	1317.023
-32.925	25.162	1629.596	1315.704
-31.911	25.099	1628.179	1314.044
-30.896	25.167	1626.553	1313.177
-29.881	25.104	1625.437	1311.763
-28.867	25.133	1623.613	1310.451
-27.852	25.178	1621.987	1309.418
-26.838	25.156	1620.792	1308.240
-25.823	25.115	1619.624	1306.948
-24.809	25.225	1617.786	1306.214
-23.794	25.093	1617.015	1304.581
-22.779	25.121	1615.255	1303.308
-21.765	25.126	1614.338	1302.552
-20.750	25.100	1612.569	1300.885
-19.736	25.228	1610.689	1300.248
-18.721	25.236	1609.328	1299.155
-17.706	25.108	1608.187	1297.255
-16.692	25.152	1606.466	1296.133
-15.677	25.132	1605.083	1294.822
-14.663	25.260	1602.996	1294.013
-13.648	25.125	1602.473	1292.563
-12.633	25.162	1601.112	1291.684
-11.619	25.222	1599.036	1290.389
-10.604	25.206	1597.563	1289.034
-9.590	25.167	1596.601	1287.924
-8.575	25.211	1595.185	1287.045
-7.560	25.122	1594.112	1285.492
-6.546	25.117	1593.496	1284.911
-5.531	25.120	1592.163	1283.800
-4.517	25.132	1590.771	1282.713
-3.502	25.129	1589.788	1281.848
-2.487	25.216	1587.903	1280.902
-1.473	24.636	1575.972	1267.113
-0.458	21.409	1555.608	1228.070
0.556	16.441	1556.692	1193.536
1.571	14.118	1578.886	1193.785
2.586	13.721	1591.357	1200.236
3.600	13.019	1538.624	1155.448
4.615	7.567	1434.077	1041.183
5.629	1.995	1374.431	962.699
6.644	0.932	1367.378	951.001
7.659	0.779	1366.697	949.483
8.673	0.756	1366.032	948.791
9.688	0.793	1363.131	946.927
10.702	0.615	1360.255	943.733
11.717	3.381	1363.760	963.386
12.731	10.394	1373.738	1014.389
13.746	15.879	1382.146	1054.965
14.761	17.335	1383.974	1065.399
15.775	16.808	1381.317	1059.964
16.790	15.778	1379.243	1051.844
17.804	15.105	1376.794	1045.681
18.819	14.733	1375.067	1041.954
19.834	14.425	1374.274	1039.342
20.848	14.118	1373.317	1036.614
21.863	13.926	1371.682	1034.090
22.877	13.782	1370.455	1032.175
23.892	13.687	1369.405	1030.708
24.907	13.677	1368.779	1030.080
25.921	13.707	1367.463	1029.186
26.936	13.875	1366.574	1029.468
27.950	13.851	1365.667	1028.546
28.965	13.786	1365.099	1027.620
29.980	13.863	1364.023	1027.196
30.994	13.906	1363.150	1026.713
32.009	13.946	1362.098	1026.080
33.023	13.952	1361.001	1025.203
34.038	14.010	1359.840	1024.592
35.053	14.032	1358.397	1023.552
36.067	13.873	1357.655	1021.923
37.082	13.905	1356.367	1021.060
38.096	13.834	1356.142	1020.363
39.111	13.877	1354.776	1019.508
40.126	13.781	1354.262	1018.441
41.140	13.800	1353.464	1017.867
42.155	13.689	1353.028	1016.767
43.169	13.682	1352.939	1016.572
44.184	13.718	1352.330	1016.243
45.199	13.675	1352.171	1015.771
46.213	13.741	1351.332	1015.455
47.228	13.762	1350.202	1014.642
48.242	13.708	1349.208	1013.477
49.257	13.770	1347.721	1012.648
50.271	13.820	1346.117	1011.659
51.286	13.897	1344.642	1010.930
52.301	13.800	1343.369	1009.293
53.315	13.715	1342.541	1008.066
54.330	13.677	1342.023	1007.354
55.344	13.756	1340.413	1006.537
56.359	13.714	1339.356	1005.399
57.374	13.778	1338.264	1004.882
58.388	13.749	1337.421	1003.984
59.403	13.628	1337.483	1003.210
60.417	13.697	1336.413	1002.732
61.432	13.700	1335.827	1002.225
62.447	13.558	1334.702	1000.434
63.461	13.610	1333.362	999.656
64.476	13.542	1332.737	998.687
65.490	13.563	1331.614	997.881
66.505	13.733	1329.532	997.255
67.520	13.772	1328.712	996.788
68.534	13.709	1327.729	995.584
69.549	13.687	1326.119	994.158
70.563	13.582	1325.424	992.919
71.578	13.575	1324.312	991.958
72.593	13.609	1323.617	991.552
73.607	13.595	1322.852	990.809
74.622	13.638	1321.797	990.184
75.636	13.629	1321.210	989.605
76.651	13.588	1320.385	988.653
77.666	13.574	1319.860	988.089
78.680	13.643	1319.210	987.925
79.695	13.580	1318.205	986.714
80.709	13.641	1317.802	986.689
81.724	13.641	1316.873	985.902
82.739	13.673	1315.809	985.210
83.753	13.676	1315.265	984.732
84.768	13.870	1313.658	984.592
85.782	13.839	1312.349	983.344
86.797	13.832	1311.076	982.260
87.812	13.625	1310.233	980.317
88.826	13.738	1308.887	979.893
89.841	13.795	1307.785	979.315
90.855	13.825	1306.768	978.642
91.870	13.779	1306.155	977.829
92.884	13.883	1304.716	977.275
93.899	13.798	1304.186	976.293
94.914	13.836	1303.515	975.928
95.928	13.867	1302.859	975.533
96.943	13.794	1301.559	974.043
97.957	13.883	1300.379	973.596
98.972	13.934	1299.109	972.858
99.987	13.891	1298.455	972.031
101.001	13.888	1297.498	971.210
102.016	13.939	1296.440	970.631
103.030	13.830	1295.930	969.524
104.045	13.881	1295.150	969.154
105.060	13.765	1293.711	967.316
106.074	13.660	1292.470	965.692
107.089	13.778	1290.451	964.783
108.103	13.750	1289.644	963.930
109.118	13.715	1288.504	962.790
110.133	13.790	1287.282	962.226
111.147	13.689	1285.903	960.524
112.162	13.727	1284.677	959.745
113.176	13.802	1283.673	959.347
114.191	13.775	1282.764	958.425
115.206	13.768	1281.493	957.352
116.220	13.782	1280.376	956.512
117.235	13.786	1278.936	955.374
118.249	13.847	1277.829	954.811
119.264	13.793	1277.010	953.807
120.279	13.798	1276.094	953.065
121.293	13.686	1275.188	951.660
122.308	13.684	1274.004	950.686
123.322	13.651	1273.180	949.794
124.337	13.695	1272.052	949.124
125.352	13.685	1270.729	947.995
126.366	13.735	1269.296	947.128
127.381	13.682	1268.569	946.199
128.395	13.710	1267.400	945.399
129.410	13.692	1266.521	944.561
130.424	13.630	1266.276	943.940
131.439	13.776	1264.806	943.591
132.454	13.811	1263.569	942.785
133.468	13.820	1263.061	942.375
134.483	13.806	1262.149	941.528
135.497	13.806	1260.948	940.550
136.512	13.770	1259.658	939.298
137.527	13.757	1258.565	938.328
138.541	13.660	1257.595	936.976
139.556	13.759	1255.953	936.227
140.570	13.898	1254.655	935.962
141.585	13.906	1253.315	934.921
142.600	13.870	1252.591	934.098
143.614	13.853	1251.834	933.356
144.629	13.858	1250.453	932.271
145.643	13.983	1249.287	932.022
146.658	13.927	1248.000	930.666
147.673	13.812	1246.722	928.986
148.687	13.964	1245.109	928.550
149.702	13.906	1244.409	927.620
150.716	13.872	1242.657	926.042
151.731	13.904	1241.717	925.438
152.746	13.974	1240.735	925.016
153.760	13.883	1239.717	923.668
154.775	13.954	1238.292	922.920
155.789	14.028	1237.088	922.354
156.804	13.973	1236.237	921.330
157.819	13.975	1235.301	920.562
158.833	14.178	1233.779	920.472
159.848	14.137	1232.917	919.519
160.862	14.071	1232.245	918.571
161.877	14.052	1231.199	917.609
162.892	13.976	1230.231	916.382
163.906	14.030	1229.317	915.922
164.921	13.943	1228.440	914.704
165.935	13.992	1227.594	914.267
166.950	14.124	1226.828	914.339
167.964	14.036	1225.777	912.991
168.979	14.151	1225.044	912.995
169.994	14.127	1224.258	912.199
171.008	14.118	1223.586	911.566
172.023	14.228	1222.399	911.203
173.037	14.257	1221.795	910.832
174.052	14.253	1221.256	910.326
175.067	14.170	1220.277	909.063
176.081	14.202	1218.854	908.098
177.096	14.153	1218.078	907.171
178.110	14.185	1216.914	906.401
179.125	14.228	1215.483	905.489
180.140	14.268	1214.225	904.689
181.154	14.141	1213.782	903.586
182.169	14.173	1212.476	902.707
183.183	14.293	1210.990	902.172
184.198	14.323	1209.316	901.011
185.213	14.361	1208.398	900.450
186.227	14.378	1207.981	900.155
187.242	14.330	1206.659	898.831
188.256	14.369	1205.547	898.132
189.271	14.366	1204.499	897.253
190.286	14.421	1203.268	896.556
191.300	14.273	1203.180	895.615
192.315	14.118	1202.334	894.072
193.329	14.181	1201.885	893.998
194.344	14.278	1201.027	893.798
195.359	14.423	1199.879	893.643
196.373	14.360	1199.794	893.165
197.388	14.421	1199.303	893.046
198.402	14.494	1198.633	892.859
199.417	14.482	1198.153	892.356
200.432	14.669	1197.047	892.454
201.446	14.549	1196.256	891.148
202.461	14.540	1195.585	890.518
203.475	14.575	1194.014	889.456
204.490	14.631	1192.896	888.841
205.504	14.550	1191.618	887.382
206.519	14.581	1190.255	886.452
207.534	14.581	1189.630	885.911
208.548	14.512	1188.867	884.899
209.563	14.659	1188.045	884.986
210.577	14.645	1187.147	884.165
211.592	14.553	1186.308	882.974
212.607	14.836	1185.149	883.531
213.621	14.682	1184.757	882.347
214.636	14.686	1183.374	881.257
215.650	14.695	1182.669	880.703
216.665	14.735	1181.508	879.970
217.680	14.859	1180.509	879.804
218.694	14.823	1179.932	879.106
219.709	14.871	1179.022	878.602
220.723	14.891	1178.119	877.956
221.738	14.852	1177.662	877.333
222.753	14.844	1176.742	876.526
223.767	14.818	1176.196	875.905
224.782	15.016	1175.411	876.281
225.796	14.888	1174.934	875.179
226.811	14.833	1174.474	874.473
227.826	14.944	1173.221	874.040
228.840	14.963	1172.783	873.737
229.855	14.924	1172.017	872.886
230.869	15.025	1170.834	872.453
231.884	14.951	1170.124	871.463
232.899	14.942	1169.313	870.734
233.913	14.791	1169.073	869.691
234.928	14.925	1167.954	869.478
235.942	14.892	1167.199	868.667
236.957	14.970	1166.446	868.436
237.972	14.953	1166.069	867.992
238.986	14.960	1165.105	867.230
240.001	14.973	1164.456	866.742
241.015	14.912	1163.328	865.510
242.030	14.956	1162.559	865.089
243.045	15.051	1161.968	865.060
244.059	14.985	1160.950	863.888
245.074	15.112	1160.149	863.869
246.088	15.124	1159.256	863.192
247.103	15.098	1158.533	862.443
248.117	15.158	1157.914	862.210
249.132	15.259	1157.309	862.203
250.147	15.239	1156.439	861.379
251.161	15.277	1155.939	861.126
252.176	15.305	1155.054	860.534
253.190	15.347	1154.793	860.477
254.205	15.337	1154.024	859.778
255.220	15.332	1153.183	859.050
256.234	15.418	1152.789	859.121
257.249	15.445	1151.872	858.499
258.263	15.453	1151.399	858.113
259.278	15.332	1150.925	857.062
260.293	15.371	1150.263	856.695
261.307	15.465	1149.531	856.552
262.322	15.592	1149.120	856.819
263.336	15.519	1148.451	855.873
264.351	15.486	1148.165	855.415
265.366	15.470	1147.014	854.401
266.380	15.661	1146.095	854.612
267.395	15.578	1145.440	853.626
268.409	15.548	1144.514	852.706
269.424	15.639	1144.007	852.717
270.439	15.570	1143.411	851.844
271.453	15.623	1142.324	851.230
272.468	15.570	1141.675	850.403
273.482	15.614	1140.943	850.006
274.497	15.555	1140.300	849.152
275.512	15.725	1139.553	849.377
276.526	15.563	1139.339	848.328
277.541	15.726	1137.883	847.989
278.555	15.688	1137.740	847.616
279.570	15.759	1136.414	846.911
280.585	15.746	1136.138	846.562
281.599	15.770	1134.869	845.665
282.614	15.790	1134.355	845.308
283.628	15.804	1133.135	844.393
284.643	15.687	1132.437	843.213
285.657	15.781	1131.558	842.954
286.672	15.728	1130.540	841.857
287.687	15.655	1130.007	841.018
288.701	15.906	1128.680	841.210
289.716	15.809	1128.507	840.523
290.730	15.905	1127.755	840.366
291.745	15.805	1126.985	839.221
292.760	15.917	1126.280	839.181
293.774	15.949	1125.300	838.537
294.789	15.993	1124.887	838.371
295.803	16.021	1124.467	838.123
296.818	16.041	1123.212	837.214
297.833	15.897	1122.574	835.950
298.847	15.985	1121.924	835.830
299.862	15.866	1120.987	834.465
300.876	16.047	1120.292	834.772
301.891	16.183	1119.508	834.786
302.906	16.128	1119.253	834.251
303.920	16.066	1118.605	833.386
304.935	16.076	1117.888	832.830
305.949	16.304	1116.825	833.090
306.964	16.184	1116.664	832.299
307.979	16.204	1115.874	831.739
308.993	16.212	1114.932	831.002
310.008	16.320	1114.246	830.949
311.022	16.202	1113.656	829.853
312.037	16.190	1112.604	828.938
313.052	16.262	1111.556	828.439
314.066	16.195	1110.930	827.567
315.081	16.141	1110.244	826.719
316.095	16.113	1109.896	826.249
317.110	16.121	1108.958	825.520
318.125	16.288	1107.860	825.446
319.139	16.137	1107.693	824.511
320.154	16.169	1106.857	823.969
321.168	16.233	1106.510	823.949
322.183	16.248	1105.319	823.067
323.197	16.342	1104.835	823.090
324.212	16.231	1104.417	822.164
325.227	16.212	1104.042	821.720
326.241	16.401	1102.764	821.614
327.256	16.348	1101.978	820.700
328.270	16.371	1101.220	820.174
329.285	16.281	1100.258	818.947
330.300	16.339	1099.427	818.540
331.314	16.348	1098.635	817.920
332.329	16.344	1097.623	817.077
333.343	16.357	1096.762	816.424
334.358	16.442	1095.727	815.991
335.373	16.440	1095.019	815.385
336.387	16.424	1094.598	814.920
337.402	16.555	1093.737	814.837
338.416	16.471	1093.227	813.980
339.431	16.539	1092.418	813.632
340.446	16.641	1091.326	813.240
341.460	16.694	1090.757	812.999
342.475	16.708	1090.152	812.542
343.489	16.624	1089.312	811.439
344.504	16.694	1088.606	811.178
345.519	16.694	1087.341	810.167
346.533	16.698	1086.780	809.693
347.548	16.714	1086.147	809.227
348.562	16.762	1085.420	808.845
349.577	16.872	1084.326	808.480
350.592	16.730	1083.866	807.388
351.606	16.773	1083.041	806.907
352.621	16.804	1082.234	806.386
353.635	16.729	1081.642	805.512
354.650	16.724	1080.934	804.893
355.665	16.713	1080.248	804.257
356.679	16.854	1079.832	804.546
357.694	16.923	1079.415	804.492
358.708	16.882	1078.337	803.425
359.723	16.867	1077.775	802.864
360.738	16.883	1077.084	802.353
361.752	16.895	1076.854	802.167
362.767	16.940	1075.770	801.502
363.781	16.963	1075.469	801.313
364.796	16.968	1074.771	800.748
365.810	17.050	1074.573	800.915
366.825	17.069	1073.373	800.041
367.840	17.097	1072.804	799.678
368.854	17.114	1072.232	799.259
369.869	17.052	1071.544	798.385
370.883	16.993	1071.128	797.728
371.898	16.950	1070.302	796.837
372.913	17.069	1069.697	796.878
373.927	17.099	1069.063	796.475
374.942	17.245	1068.187	796.436
375.956	17.186	1067.856	795.842
376.971	17.224	1067.375	795.591
377.986	17.211	1066.515	794.820
379.000	17.268	1066.098	794.703
380.015	17.288	1065.740	794.459
381.029	17.243	1065.102	793.703
382.044	17.422	1064.356	793.913
383.059	17.305	1063.794	792.877
384.073	17.324	1062.885	792.219
385.088	17.521	1061.444	791.993
386.102	17.398	1061.088	791.082
387.117	17.248	1060.454	789.843
388.132	17.356	1059.283	789.405
389.146	17.373	1058.598	788.903
390.161	17.253	1058.266	788.031
391.175	17.342	1056.895	787.349
392.190	17.271	1056.872	786.933
393.205	17.423	1055.523	786.562
394.219	17.464	1054.874	786.199
395.234	17.441	1054.028	785.393
396.248	17.484	1052.642	784.488
397.263	17.397	1052.128	783.636
398.278	17.496	1051.234	783.357
399.292	17.406	1050.727	782.495
400.307	17.427	1050.293	782.200
401.321	17.478	1048.938	781.354
402.336	17.490	1048.781	781.224
403.350	17.464	1048.006	780.461
404.365	17.574	1046.889	780.061
405.380	17.499	1046.458	779.329
406.394	17.612	1045.766	779.260
407.409	17.688	1044.508	778.602
408.423	17.616	1044.314	778.059
409.438	17.694	1043.509	777.746
410.453	17.842	1042.985	777.963
411.467	17.611	1042.239	776.286
412.482	17.795	1041.635	776.604
413.496	17.726	1040.901	775.672
414.511	17.807	1040.197	775.450
415.526	17.787	1040.204	775.292
416.540	17.849	1039.296	774.830
417.555	17.934	1038.719	774.717
418.569	17.862	1038.455	774.123
419.584	17.827	1038.045	773.591
420.599	17.952	1037.248	773.496
421.613	109.294	1327.884	1487.683
422.628	100.310	1370.204	1487.789
