DTS Sentinel unit serial number:	SN413079Multiplexer serial number:	ORYXHardware model number:	OX4-SRSoftware version number:	ORYX F/W v4.00 Oryx Data Collector v3.7.2.0data status	okinstallation	princeton_trtdifferential loss correction	single-endedforward channel	channel 2reverse channel	N/Adate	2019/09/11time	10:57:11forward acquisition time	60.00reverse acquisition time	0.00gamma	496.2192k internal	0.2308k external	0.2308temperature offset calibration	0.9969default loss term (dB/km)	0.3790temperature slope calibration	1.0000multiplexer offset coefficient	1.0000multiplexer slope coefficient	1.0000fibre end	0.00T internal ref (°C)	37.11T ext. ref 1 (°C)	0.17T ext. ref 2 (°C)	34.58length (m)	temperature (°C)	Stokes	anti-Stokes-747.200	24.227	-0.171	0.143
-746.185	-30.198	-0.278	0.160
-745.171	-44.325	-0.048	0.024
-744.156	-200.000	-0.036	0.241
-743.142	70.605	0.073	-0.077
-742.127	-200.000	-0.007	-0.115
-741.112	216.201	0.031	0.050
-740.098	104.285	0.097	0.116
-739.083	-123.402	-0.044	-0.007
-738.069	134.008	0.103	0.135
-737.054	-92.097	0.364	-0.105
-736.039	-200.000	-0.012	0.199
-735.025	-200.000	0.017	0.279
-734.010	-200.000	0.022	-0.241
-732.996	540.628	-0.077	-0.187
-731.981	-170.661	-0.311	0.011
-730.966	-200.000	0.055	-0.287
-729.952	306.471	-0.130	-0.245
-728.937	-50.344	-0.184	-0.088
-727.923	232.887	-0.097	0.162
-726.908	800.000	0.073	0.243
-725.894	-46.065	-0.364	-0.182
-724.879	15.149	-0.252	-0.200
-723.864	87.370	0.223	-0.250
-722.850	115.703	-0.159	-0.197
-721.835	31.358	0.112	-0.097
-720.821	800.000	0.027	0.081
-719.806	-200.000	-0.050	0.386
-718.791	97.574	-0.252	0.294
-717.777	-47.192	0.238	0.118
-716.762	-101.771	-0.264	0.065
-715.748	-69.982	-0.286	0.111
-714.733	800.000	-0.071	0.221
-713.718	-27.730	-0.147	0.086
-712.704	113.731	-0.094	-0.116
-711.689	-66.080	0.221	0.090
-710.675	184.582	-0.195	0.294
-709.660	-200.000	0.005	-0.149
-708.645	17.825	-0.243	-0.196
-707.631	-73.627	-0.169	-0.062
-706.616	59.517	-0.178	-0.178
-705.602	15.409	0.069	-0.055
-704.587	-200.000	0.055	-0.272
-703.572	432.749	-0.119	-0.262
-702.558	51.306	0.099	-0.096
-701.543	-200.000	-0.009	0.351
-700.529	-98.870	0.252	0.065
-699.514	-55.017	-0.073	0.033
-698.499	-200.000	0.025	-0.148
-697.485	800.000	0.134	-0.380
-696.470	-120.539	-0.226	0.039
-695.456	-84.955	0.425	0.135
-694.441	-91.696	0.269	-0.077
-693.426	113.635	-0.158	0.195
-692.412	-48.085	-0.125	-0.061
-691.397	800.000	0.055	0.179
-690.383	47.390	-0.419	-0.396
-689.368	-58.711	-0.153	0.067
-688.354	57.836	0.381	0.378
-687.339	-123.571	0.206	0.033
-686.324	287.334	-0.044	-0.080
-685.310	254.192	-0.163	0.283
-684.295	-200.000	-0.008	-0.107
-683.281	154.508	0.144	-0.200
-682.266	234.368	0.100	-0.166
-681.251	152.217	-0.277	-0.384
-680.237	137.792	-0.100	-0.133
-679.222	257.831	-0.148	-0.259
-678.208	-200.000	-0.049	-0.228
-677.193	-135.786	-0.199	0.024
-676.178	-6.851	-0.208	0.143
-675.164	-61.242	-0.195	0.083
-674.149	-127.145	-0.221	-0.033
-673.135	575.658	0.048	0.118
-672.120	-200.000	0.034	-0.309
-671.105	11.693	0.086	0.067
-670.091	-200.000	0.003	-0.090
-669.076	-92.244	-0.503	-0.144
-668.062	-116.629	0.373	-0.069
-667.047	152.581	0.012	0.017
-666.032	143.572	0.043	-0.058
-665.018	14.243	-0.127	0.101
-664.003	-61.585	0.080	-0.034
-662.989	70.241	-0.301	0.315
-661.974	263.998	0.151	-0.266
-660.959	-200.000	-0.026	-0.361
-659.945	367.486	-0.200	-0.409
-658.930	-200.000	-0.043	-0.202
-657.916	72.709	0.193	0.204
-656.901	-154.145	-0.412	0.028
-655.886	15.025	-0.359	-0.285
-654.872	-200.000	0.044	-0.374
-653.857	-69.645	0.133	-0.052
-652.843	4.496	0.235	-0.175
-651.828	-200.000	-0.105	-0.684
-650.814	171.908	0.047	-0.068
-649.799	800.000	0.035	-0.112
-648.784	-55.702	0.228	-0.103
-647.770	-200.000	-0.014	0.081
-646.755	-200.000	0.028	0.160
-645.741	-97.037	0.357	-0.095
-644.726	-86.619	-0.118	0.037
-643.711	-6.498	-0.107	0.074
-642.697	95.290	-0.069	0.079
-641.682	-102.663	-0.415	0.100
-640.668	-76.231	0.095	0.034
-639.653	800.000	0.056	0.174
-638.638	169.007	-0.088	0.127
-637.624	4.126	0.172	-0.128
-636.609	80.560	0.155	-0.169
-635.595	-141.122	0.098	-0.010
-634.580	223.989	0.097	-0.158
-633.565	-200.000	-0.004	0.056
-632.551	-200.000	0.028	0.138
-631.536	92.076	-0.083	-0.094
-630.522	-200.000	0.047	-0.263
-629.507	438.381	-0.081	-0.180
-628.492	-147.625	-0.131	-0.011
-627.478	-140.070	-0.524	-0.056
-626.463	-124.520	-0.302	-0.048
-625.449	472.652	0.025	0.057
-624.434	0.726	-0.201	0.145
-623.419	297.365	-0.118	0.219
-622.405	800.000	0.063	0.241
-621.390	800.000	0.092	0.303
-620.376	318.287	-0.170	0.325
-619.361	-25.877	-0.219	0.131
-618.346	-160.750	-0.209	0.011
-617.332	-84.389	-0.323	0.103
-616.317	-20.429	0.235	0.146
-615.303	263.027	-0.063	0.110
-614.288	80.329	0.180	-0.196
-613.273	-53.428	-0.149	0.069
-612.259	-3.268	0.179	-0.126
-611.244	290.875	-0.109	-0.201
-610.230	264.460	0.054	0.095
-609.215	-200.000	0.040	0.226
-608.201	243.940	-0.014	0.023
-607.186	-31.134	-0.178	0.101
-606.171	-143.429	-0.380	0.037
-605.157	-200.000	-0.023	0.445
-604.142	-85.311	0.224	-0.071
-603.128	800.000	-0.068	0.253
-602.113	-200.000	0.023	0.192
-601.098	-200.000	-0.026	-0.328
-600.084	20.683	-0.073	-0.059
-599.069	201.701	0.117	0.182
-598.055	-110.976	0.197	-0.041
-597.040	-200.000	0.011	0.193
-596.025	-113.972	0.234	0.046
-595.011	161.552	0.062	0.088
-593.996	-200.000	-0.010	0.063
-592.982	-165.939	-0.091	0.004
-591.967	38.824	0.056	0.051
-590.952	800.000	-0.035	0.146
-589.938	-120.533	-0.186	-0.032
-588.923	133.005	-0.074	0.097
-587.909	-60.203	-0.369	0.159
-586.894	335.230	0.109	0.213
-585.879	320.552	0.126	-0.242
-584.865	95.722	-0.108	0.125
-583.850	-142.547	-0.106	0.010
-582.836	86.352	0.120	-0.134
-581.821	67.619	0.253	0.261
-580.806	159.748	0.158	-0.222
-579.792	800.000	0.088	-0.246
-578.777	-200.000	-0.018	0.122
-577.763	-200.000	0.026	0.177
-576.748	139.947	-0.300	0.399
-575.733	-83.358	-0.263	0.085
-574.719	-200.000	0.029	0.178
-573.704	-148.012	0.254	0.021
-572.690	-162.554	-0.198	0.010
-571.675	-61.874	0.023	-0.010
-570.661	-94.641	-0.286	0.079
-569.646	-11.954	-0.176	-0.116
-568.631	-170.274	-0.135	0.005
-567.617	-145.841	0.118	0.011
-566.602	247.059	-0.072	0.122
-565.588	-178.170	-0.208	-0.005
-564.573	-112.971	0.248	0.050
-563.558	-113.463	-0.262	0.052
-562.544	579.166	-0.074	0.183
-561.529	-2.220	0.195	0.138
-560.515	42.021	-0.111	-0.102
-559.500	-170.341	-0.371	0.013
-558.485	-95.058	0.084	-0.023
-557.471	-164.182	0.135	-0.006
-556.456	-76.614	-0.207	0.073
-555.442	101.656	0.034	-0.040
-554.427	-17.491	0.138	-0.088
-553.412	-154.937	-0.231	-0.015
-552.398	-200.000	0.015	-0.200
-551.383	133.995	-0.244	0.319
-550.369	-200.000	-0.044	0.225
-549.354	800.000	-0.047	-0.157
-548.339	-67.704	-0.280	-0.111
-547.325	-200.000	0.023	0.302
-546.310	-124.530	-0.166	-0.026
-545.296	158.754	0.040	-0.056
-544.281	376.695	0.074	-0.151
-543.266	800.000	-0.118	0.361
-542.252	-129.730	-0.149	0.021
-541.237	498.914	-0.191	-0.443
-540.223	202.049	0.106	-0.165
-539.208	-85.308	0.233	0.073
-538.193	302.916	0.134	-0.251
-537.179	-200.000	0.012	-0.073
-536.164	-114.389	-0.166	0.032
-535.150	455.874	-0.047	0.105
-534.135	-8.878	-0.247	0.167
-533.121	-41.255	-0.064	0.033
-532.106	117.223	0.175	-0.217
-531.091	531.495	-0.134	0.320
-530.077	-21.298	0.463	-0.285
-529.062	-200.000	-0.049	-0.316
-528.048	-128.875	-0.395	0.056
-527.033	-105.194	0.213	-0.049
-526.018	92.005	0.201	-0.228
-525.004	800.000	-0.097	-0.333
-523.989	337.029	-0.173	0.340
-522.975	-84.178	0.038	-0.012
-521.960	699.169	0.151	-0.401
-520.945	230.980	-0.093	0.153
-519.931	-200.000	0.013	-0.071
-518.916	-140.463	-0.170	-0.018
-517.902	800.000	0.077	0.219
-516.887	-200.000	0.049	-0.266
-515.872	328.061	-0.186	-0.359
-514.858	52.889	0.111	-0.107
-513.843	-200.000	0.026	0.308
-512.829	-153.386	0.259	-0.018
-511.814	-200.000	0.006	0.176
-510.799	-55.414	-0.233	-0.105
-509.785	35.330	0.236	-0.208
-508.770	54.926	-0.113	-0.109
-507.756	434.030	0.113	-0.246
-506.741	800.000	0.053	0.150
-505.726	20.098	-0.315	-0.256
-504.712	67.403	-0.113	-0.116
-503.697	-200.000	-0.037	0.352
-502.683	593.767	0.145	-0.361
-501.668	-22.533	0.130	0.079
-500.653	43.274	-0.156	-0.144
-499.639	86.092	0.129	-0.143
-498.624	169.927	0.079	0.114
-497.610	214.998	-0.112	-0.179
-496.595	-200.000	0.007	-0.130
-495.581	-168.484	0.122	-0.005
-494.566	-35.075	-0.170	-0.093
-493.551	-123.218	0.309	0.050
-492.537	138.431	-0.186	-0.245
-491.522	195.253	0.080	-0.122
-490.508	28.148	-0.436	-0.371
-489.493	274.853	-0.062	-0.111
-488.478	-172.219	-0.015	-0.000
-487.464	-200.000	0.029	0.129
-486.449	-97.666	0.052	0.013
-485.435	219.295	0.156	-0.252
-484.420	15.245	0.233	-0.184
-483.405	-200.000	-0.016	0.283
-482.391	-70.235	-0.266	0.102
-481.376	-200.000	0.060	0.383
-480.362	-70.204	-0.221	0.084
-479.347	333.880	0.071	-0.138
-478.332	36.030	-0.348	0.308
-477.318	64.215	-0.126	0.127
-476.303	-109.680	-0.103	0.022
-475.289	457.313	0.108	0.242
-474.274	19.597	0.305	-0.247
-473.259	337.262	0.156	-0.304
-472.245	5.053	0.137	-0.102
-471.230	-20.793	0.157	-0.097
-470.216	711.014	-0.069	-0.182
-469.201	-140.549	0.143	-0.015
-468.186	-200.000	-0.005	0.223
-467.172	500.868	0.098	0.228
-466.157	195.440	0.020	-0.031
-465.143	-136.078	0.163	0.019
-464.128	800.000	-0.083	0.328
-463.113	65.387	0.126	-0.128
-462.099	-200.000	-0.011	0.298
-461.084	-87.483	0.328	-0.100
-460.070	118.673	0.017	-0.021
-459.055	160.904	0.141	-0.199
-458.040	140.903	-0.095	0.127
-457.026	-60.989	-0.194	0.082
-456.011	-200.000	0.023	-0.283
-454.997	697.575	-0.092	0.244
-453.982	-51.612	0.121	-0.057
-452.968	155.519	0.230	-0.318
-451.953	-79.159	-0.247	0.084
-450.938	33.607	0.039	0.034
-449.924	284.011	-0.084	0.153
-448.909	-118.079	0.182	-0.033
-447.895	172.043	-0.152	-0.219
-446.880	178.088	-0.140	0.206
-445.865	-103.481	0.361	-0.085
-444.851	49.144	-0.073	0.069
-443.836	800.000	0.067	-0.200
-442.822	-131.203	-0.345	0.046
-441.807	409.273	0.212	0.450
-440.792	344.333	0.048	-0.095
-439.778	-200.000	-0.097	-0.535
-438.763	-85.556	0.041	-0.013
-437.749	225.579	-0.205	0.334
-436.734	-200.000	0.082	-0.363
-435.719	-28.231	-0.267	-0.155
-434.705	-153.541	-0.042	-0.003
-433.690	415.506	0.057	-0.122
-432.676	28.045	0.130	0.110
-431.661	-46.748	0.131	-0.064
-430.646	76.736	-0.215	-0.229
-429.632	7.966	0.106	-0.080
-428.617	298.774	-0.087	0.160
-427.603	28.438	0.300	-0.255
-426.588	54.707	0.059	0.057
-425.573	151.224	0.059	-0.081
-424.559	-124.496	-0.285	0.045
-423.544	10.055	0.272	0.208
-422.530	800.000	-0.057	0.183
-421.515	22.647	0.125	-0.103
-420.500	555.148	0.043	-0.103
-419.486	800.000	-0.072	0.239
-418.471	612.112	-0.020	-0.050
-417.457	-103.860	0.237	0.056
-416.442	800.000	-0.123	0.395
-415.428	-22.439	-0.215	0.131
-414.413	-33.750	0.230	-0.127
-413.398	-61.671	0.080	-0.034
-412.384	95.370	-0.114	-0.131
-411.369	-48.109	0.426	0.207
-410.355	143.584	-0.222	-0.296
-409.340	-200.000	0.003	0.188
-408.325	800.000	-0.029	0.092
-407.311	-118.897	0.199	-0.035
-406.296	-10.434	0.194	-0.129
-405.282	-89.599	-0.179	0.053
-404.267	-200.000	0.058	-0.260
-403.252	27.530	0.023	-0.019
-402.238	446.440	0.093	0.206
-401.223	-200.000	0.011	0.082
-400.209	-200.000	-0.008	-0.207
-399.194	326.866	-0.158	-0.303
-398.179	-22.521	-0.047	0.028
-397.165	-200.000	0.014	0.138
-396.150	570.412	-0.098	-0.240
-395.136	800.000	-0.013	0.043
-394.121	-123.723	-0.320	0.051
-393.106	-43.426	-0.151	-0.076
-392.092	222.896	0.112	0.181
-391.077	-37.491	0.214	0.115
-390.063	46.385	0.245	-0.228
-389.048	13.301	-0.237	0.184
-388.033	10.507	0.131	0.100
-387.019	149.747	0.201	0.274
-386.004	-120.871	-0.248	-0.042
-384.990	283.480	0.159	-0.287
-383.975	175.943	-0.162	-0.236
-382.960	189.684	0.058	0.088
-381.946	212.431	-0.104	0.164
-380.931	-112.929	0.565	-0.112
-379.917	-142.703	0.289	-0.028
-378.902	119.144	0.086	-0.107
-377.888	-21.656	0.205	-0.125
-376.873	183.923	0.024	0.036
-375.858	39.988	-0.382	0.344
-374.844	-200.000	0.034	-0.194
-373.829	42.234	0.255	0.232
-372.815	-118.911	-0.319	-0.056
-371.800	265.866	-0.124	0.216
-370.785	-76.074	0.181	0.064
-369.771	-90.841	0.161	0.046
-368.756	140.879	-0.084	0.112
-367.742	-90.293	-0.343	0.100
-366.727	-90.053	-0.197	0.058
-365.712	-23.190	0.180	-0.109
-364.698	646.232	0.089	0.227
-363.683	175.820	0.150	0.219
-362.669	800.000	0.025	0.076
-361.654	-100.090	0.180	-0.045
-360.639	13.300	-0.315	0.244
-359.625	12.372	0.020	-0.016
-358.610	-131.554	0.180	0.024
-357.596	222.341	0.083	-0.134
-356.581	321.301	-0.057	-0.109
-355.566	26.026	0.201	-0.168
-354.552	-76.034	-0.175	-0.062
-353.537	382.061	-0.049	0.101
-352.523	-93.318	0.173	-0.048
-351.508	250.407	0.089	0.151
-350.493	-200.000	-0.065	-0.372
-349.479	800.000	0.074	-0.275
-348.464	652.132	-0.062	0.160
-347.450	32.879	0.159	-0.138
-346.435	800.000	-0.064	-0.213
-345.420	800.000	-0.013	-0.037
-344.406	634.140	0.090	-0.228
-343.391	-39.789	-0.202	-0.106
-342.377	303.292	-0.089	-0.166
-341.362	-61.605	-0.087	0.037
-340.348	105.989	-0.202	0.240
-339.333	-200.000	-0.025	-0.149
-338.318	603.096	0.116	-0.289
-337.304	-32.541	-0.133	0.074
-336.289	-77.405	-0.013	-0.004
-335.275	-200.000	-0.000	0.163
-334.260	89.242	0.333	-0.371
-333.245	71.698	-0.074	-0.077
-332.231	194.949	0.097	-0.147
-331.216	0.319	0.088	-0.063
-330.202	-200.000	-0.036	0.172
-329.187	-165.590	0.265	-0.012
-328.172	-23.912	0.141	0.084
-327.158	-90.071	-0.023	0.007
-326.143	187.021	-0.220	0.327
-325.129	800.000	-0.018	0.061
-324.114	-200.000	0.299	-0.000
-323.099	-86.018	-0.303	-0.094
-322.085	-200.000	0.046	0.365
-321.070	-135.591	0.059	0.007
-320.056	245.182	-0.091	-0.152
-319.041	26.147	-0.149	0.124
-318.026	800.000	0.031	-0.090
-317.012	42.175	-0.100	-0.091
-315.997	236.055	-0.144	0.239
-314.983	144.885	-0.166	0.221
-313.968	-5.125	-0.086	0.059
-312.953	-178.228	-0.313	-0.007
-311.939	7.485	0.124	0.092
-310.924	-152.016	-0.190	0.014
-309.910	-200.000	-0.002	0.097
-308.895	-72.305	-0.023	-0.008
-307.880	243.667	0.291	0.489
-306.866	-25.495	0.296	-0.174
-305.851	-116.472	-0.323	-0.060
-304.837	446.224	0.064	0.140
-303.822	-80.183	-0.361	0.121
-302.807	-200.000	-0.002	-0.049
-301.793	-123.050	-0.173	0.028
-300.778	-54.263	-0.144	0.065
-299.764	128.935	-0.100	0.128
-298.749	-94.737	-0.206	0.056
-297.735	-200.000	0.059	0.366
-296.720	800.000	0.058	-0.227
-295.705	-44.482	-0.197	0.098
-294.691	-137.742	0.130	0.015
-293.676	-200.000	0.036	-0.398
-292.662	38.816	0.179	0.160
-291.647	495.753	-0.068	-0.157
-290.632	77.295	-0.196	-0.208
-289.618	312.313	0.085	-0.159
-288.603	-200.000	-0.039	-0.259
-287.589	-91.998	-0.093	-0.026
-286.574	-134.816	0.149	-0.018
-285.559	232.711	0.169	-0.276
-284.545	42.215	0.114	-0.103
-283.530	-53.328	0.048	0.022
-282.516	110.339	0.137	0.165
-281.501	-98.198	-0.115	-0.029
-280.486	-200.000	0.065	0.305
-279.472	-200.000	0.019	0.195
-278.457	140.592	-0.078	0.103
-277.443	-70.263	0.100	0.038
-276.428	-200.000	-0.034	0.205
-275.413	-167.857	0.511	-0.020
-274.399	800.000	-0.099	-0.307
-273.384	97.376	-0.037	0.042
-272.370	-94.858	0.416	0.112
-271.355	-200.000	-0.078	0.388
-270.340	575.732	0.071	0.173
-269.326	44.134	-0.209	-0.191
-268.311	800.000	-0.033	0.140
-267.297	-200.000	0.040	-0.242
-266.282	-145.123	0.088	-0.008
-265.267	-88.605	0.102	0.030
-264.253	-200.000	0.014	-0.279
-263.238	-200.000	-0.054	-0.281
-262.224	-29.405	-0.232	0.132
-261.209	147.821	-0.202	-0.271
-260.195	-200.000	-0.043	-0.243
-259.180	-0.866	0.089	0.063
-258.165	45.024	0.036	-0.033
-257.151	49.962	0.195	0.184
-256.136	800.000	0.026	-0.081
-255.122	800.000	-0.059	0.173
-254.107	-86.283	0.049	0.015
-253.092	-200.000	0.024	0.158
-252.078	98.550	0.163	-0.187
-251.063	116.605	0.205	0.251
-250.049	-31.670	0.160	0.090
-249.034	161.303	0.103	-0.144
-248.019	-200.000	-0.005	0.144
-247.005	-80.579	-0.162	-0.054
-245.990	-88.253	0.188	0.056
-244.976	-200.000	0.023	-0.325
-243.961	-164.136	0.246	0.011
-242.946	-200.000	0.009	-0.202
-241.932	-78.235	0.287	-0.098
-240.917	-132.627	-0.198	0.025
-239.903	800.000	0.082	0.306
-238.888	-200.000	-0.066	0.329
-237.873	800.000	0.061	-0.188
-236.859	-200.000	0.047	-0.239
-235.844	-200.000	0.027	-0.173
-234.830	-200.000	0.007	0.075
-233.815	339.092	0.060	0.116
-232.800	-200.000	0.013	-0.426
-231.786	-2.988	0.237	0.165
-230.771	203.913	-0.109	0.168
-229.757	65.775	0.288	-0.291
-228.742	-46.588	-0.138	-0.067
-227.727	800.000	-0.045	-0.134
-226.713	-186.362	-0.172	0.002
-225.698	42.133	-0.247	0.224
-224.684	151.425	0.061	-0.083
-223.669	800.000	-0.054	-0.200
-222.655	800.000	0.050	0.186
-221.640	683.715	0.166	0.432
-220.625	59.334	-0.067	0.066
-219.611	-158.180	-0.108	-0.006
-218.596	800.000	0.086	-0.268
-217.582	377.772	0.239	-0.487
-216.567	-200.000	-0.016	-0.247
-215.552	-32.399	-0.365	-0.203
-214.538	-200.000	0.020	0.113
-213.523	-200.000	0.070	0.309
-212.509	-143.909	0.173	-0.016
-211.494	800.000	-0.076	-0.289
-210.479	-200.000	0.009	-0.228
-209.465	-121.509	-0.199	-0.033
-208.450	-113.386	-0.149	-0.029
-207.436	144.947	0.205	0.273
-206.421	-157.554	0.225	-0.013
-205.406	-200.000	-0.032	-0.174
-204.392	159.445	0.039	-0.054
-203.377	-149.376	0.218	0.017
-202.363	5.327	0.084	0.061
-201.348	-11.107	-0.278	0.182
-200.333	376.213	-0.193	-0.393
-199.319	105.162	-0.211	-0.247
-198.304	-5.014	0.209	0.143
-197.290	794.741	0.111	0.303
-196.275	-125.001	0.260	-0.040
-195.260	80.814	0.211	-0.226
-194.246	-200.000	0.014	0.152
-193.231	-200.000	0.007	0.056
-192.217	-118.612	0.280	-0.049
-191.202	-112.870	0.147	-0.029
-190.187	231.016	0.176	-0.287
-189.173	-200.000	0.053	-0.274
-188.158	14.488	-0.070	-0.054
-187.144	102.862	0.331	-0.385
-186.129	-104.092	0.155	-0.036
-185.114	4.499	0.136	-0.099
-184.100	-200.000	0.012	0.212
-183.085	800.000	-0.078	0.283
-182.071	-175.777	0.046	-0.001
-181.056	800.000	0.017	0.073
-180.042	-20.118	-0.154	0.095
-179.027	176.682	0.087	-0.126
-178.012	40.790	-0.033	0.029
-176.998	-112.599	0.263	-0.052
-175.983	426.889	0.033	0.071
-174.969	6.981	-0.052	0.039
-173.954	8.022	-0.117	-0.087
-172.939	43.188	-0.167	-0.151
-171.925	-119.626	-0.121	0.021
-170.910	-94.834	0.138	-0.037
-169.896	-144.197	0.158	0.015
-168.881	-124.489	-0.362	0.056
-167.866	2.201	0.108	-0.078
-166.852	23.551	-0.204	-0.167
-165.837	800.000	-0.066	0.276
-164.823	-36.674	-0.456	0.243
-163.808	-180.243	0.329	-0.007
-162.793	-200.000	-0.014	-0.229
-161.779	-48.979	-0.350	0.166
-160.764	800.000	-0.066	0.267
-159.750	-52.343	-0.177	-0.082
-158.735	509.304	0.053	0.122
-157.720	-86.709	-0.036	0.011
-156.706	-200.000	-0.012	-0.165
-155.691	-176.191	0.288	0.008
-154.677	188.489	0.113	-0.168
-153.662	250.640	0.087	0.147
-152.647	-190.061	-0.313	0.003
-151.633	-200.000	0.001	0.425
-150.618	-175.220	0.067	0.002
-149.604	-200.000	-0.043	0.326
-148.589	-200.000	-0.024	-0.245
-147.574	132.362	0.091	-0.116
-146.560	800.000	0.090	-0.329
-145.545	-61.575	0.287	0.120
-144.531	800.000	0.013	0.050
-143.516	188.586	0.037	-0.054
-142.502	-153.792	-0.359	-0.024
-141.487	47.766	-0.271	-0.251
-140.472	-19.443	-0.213	-0.131
-139.458	99.792	-0.239	-0.275
-138.443	-200.000	-0.019	-0.224
-137.429	27.919	0.099	-0.083
-136.414	142.963	0.106	0.140
-135.399	74.286	-0.144	0.150
-134.385	65.964	0.191	-0.192
-133.370	703.478	-0.022	0.058
-132.356	785.428	0.049	0.134
-131.341	-8.457	0.102	0.068
-130.326	-129.655	0.282	0.039
-129.312	-200.000	0.005	0.053
-128.297	-84.587	0.311	0.097
-127.283	-37.474	0.201	0.106
-126.268	-67.592	-0.231	0.090
-125.253	707.365	-0.009	-0.024
-124.239	-113.017	-0.141	0.028
-123.224	129.294	-0.169	0.214
-122.210	-35.825	-0.116	0.062
-121.195	30.388	0.122	0.103
-120.180	121.284	0.110	0.136
-119.166	578.142	0.078	0.190
-118.151	800.000	0.037	-0.122
-117.137	24.013	0.343	0.280
-116.122	117.926	-0.318	0.389
-115.107	-116.590	-0.200	0.036
-114.093	-200.000	0.021	-0.206
-113.078	73.105	0.065	0.067
-112.064	-97.199	0.180	-0.047
-111.049	-200.000	-0.004	-0.040
-110.034	-95.859	0.163	0.043
-109.020	736.134	-0.095	0.252
-108.005	35.873	-0.436	0.380
-106.991	44.864	0.168	-0.154
-105.976	800.000	-0.035	-0.114
-104.962	-200.000	-0.020	0.130
-103.947	20.350	-0.090	0.072
-102.932	800.000	-0.108	-0.340
-101.918	-61.734	0.312	0.130
-100.903	-7.627	0.125	-0.084
-99.889	451.825	0.138	-0.303
-98.874	-149.918	-0.223	-0.017
-97.859	-200.000	0.012	0.224
-96.845	-99.431	-0.328	-0.082
-95.830	-200.000	0.001	-0.219
-94.816	-200.000	-0.074	-0.345
-93.801	95.439	-0.198	0.224
-92.786	-99.889	0.303	-0.075
-91.772	-110.267	-0.272	-0.056
-90.757	-15.919	-0.239	-0.150
-89.743	777.507	0.013	0.034
-88.728	4.981	-0.177	0.129
-87.713	-87.101	-0.404	0.122
-86.699	-130.179	0.308	0.042
-85.684	-200.000	0.004	-0.042
-84.670	-82.216	0.110	-0.035
-83.655	-145.317	0.181	0.016
-82.640	-144.486	-0.351	-0.032
-81.626	800.000	0.086	0.296
-80.611	158.034	0.127	-0.174
-79.597	-71.913	-0.225	0.083
-78.582	730.475	-0.043	-0.114
-77.567	-135.423	0.211	-0.025
-76.553	-163.720	-0.208	-0.010
-75.538	-58.927	-0.467	-0.200
-74.524	21.708	-0.311	0.251
-73.509	800.000	-0.079	-0.252
-72.494	224.545	0.151	0.241
-71.480	-200.000	0.023	0.390
-70.465	-200.000	-0.038	-0.332
-69.451	-200.000	0.028	0.169
-68.436	-21.857	-0.106	0.064
-67.422	-200.000	-0.148	0.000
-66.407	2.737	0.191	0.137
-65.392	-200.000	-0.019	-0.270
-64.378	259.127	0.112	-0.191
-63.363	34.416	0.227	0.196
-62.349	80.795	-0.087	0.093
-61.334	207.862	-0.664	-1.026
-60.319	-130.853	0.532	0.071
-59.305	-200.000	0.045	-0.978
-58.290	79.078	0.419	0.444
-57.276	-200.000	0.321	1.496
-56.261	-200.000	86.233	503.854
-55.246	554.295	1378.772	3281.235
-54.232	183.280	2621.367	3831.311
-53.217	113.252	2362.376	2835.198
-52.203	46.019	1970.111	1803.944
-51.188	40.287	1753.709	1560.722
-50.173	37.543	1707.853	1498.746
-49.159	52.484	1748.894	1651.390
-48.144	56.026	1767.827	1696.793
-47.130	40.012	1728.580	1535.974
-46.115	37.165	1714.219	1501.171
-45.100	37.055	1709.170	1495.838
-44.086	36.992	1706.064	1492.580
-43.071	36.961	1703.605	1490.132
-42.057	36.898	1701.079	1487.374
-41.042	36.994	1698.860	1486.111
-40.027	36.895	1697.644	1484.229
-39.013	36.938	1695.076	1482.254
-37.998	36.984	1693.248	1480.948
-36.984	37.050	1691.802	1480.129
-35.969	37.061	1690.753	1479.237
-34.954	37.127	1688.460	1477.680
-33.940	37.163	1686.290	1475.995
-32.925	37.086	1685.220	1474.414
-31.911	37.121	1683.447	1473.070
-30.896	37.161	1681.369	1471.497
-29.881	37.120	1679.968	1469.900
-28.867	37.056	1678.531	1468.099
-27.852	37.180	1676.719	1467.397
-26.838	37.149	1675.246	1465.813
-25.823	37.053	1674.440	1464.328
-24.809	37.166	1672.528	1463.444
-23.794	37.046	1671.247	1461.367
-22.779	37.225	1669.315	1460.963
-21.765	37.147	1667.803	1458.994
-20.750	37.088	1665.856	1456.792
-19.736	37.179	1664.465	1456.203
-18.721	37.153	1663.064	1454.725
-17.706	37.178	1661.386	1453.384
-16.692	37.053	1660.029	1451.205
-15.677	37.152	1658.777	1450.792
-14.663	37.162	1657.167	1449.401
-13.648	37.133	1656.617	1448.646
-12.633	37.199	1654.523	1447.249
-11.619	37.219	1652.387	1445.469
-10.604	37.106	1651.128	1443.475
-9.590	36.994	1650.238	1441.805
-8.575	37.171	1648.278	1441.350
-7.560	37.162	1647.580	1440.615
-6.546	37.076	1646.635	1439.093
-5.531	37.115	1645.535	1438.364
-4.517	37.162	1643.807	1437.147
-3.502	37.077	1643.013	1435.762
-2.487	37.175	1641.357	1434.983
-1.473	37.174	1630.249	1425.206
-0.458	35.138	1610.663	1393.239
0.556	30.000	1611.634	1362.832
1.571	27.520	1637.049	1365.634
2.586	26.948	1651.965	1373.630
3.600	23.458	1595.816	1301.255
4.615	12.109	1475.906	1125.888
5.629	1.995	1403.599	1004.316
6.644	0.181	1394.648	985.947
7.659	0.270	1392.123	984.659
8.673	0.149	1391.335	983.226
9.688	0.060	1389.966	981.592
10.702	-0.192	1386.952	977.732
11.717	3.527	1394.561	1007.326
12.731	14.077	1415.258	1091.789
13.746	21.975	1429.090	1154.526
14.761	23.175	1430.219	1163.232
15.775	23.405	1429.509	1164.062
16.790	23.428	1429.329	1163.963
17.804	23.466	1428.582	1163.501
18.819	23.757	1428.534	1165.268
19.834	23.860	1427.324	1164.852
20.848	23.795	1426.708	1163.822
21.863	23.779	1425.935	1162.983
22.877	23.766	1424.986	1162.023
23.892	23.729	1424.238	1161.063
24.907	23.852	1423.093	1160.833
25.921	23.800	1422.552	1159.947
26.936	23.870	1421.428	1159.388
27.950	23.894	1420.228	1158.463
28.965	23.781	1419.341	1156.898
29.980	23.896	1417.152	1155.760
30.994	23.838	1416.397	1154.665
32.009	23.837	1415.080	1153.482
33.023	23.858	1413.965	1152.609
34.038	23.768	1412.902	1151.061
35.053	23.871	1411.562	1150.531
36.067	23.809	1410.675	1149.303
37.082	23.770	1409.649	1148.115
38.096	23.880	1408.625	1147.893
39.111	23.877	1407.835	1147.126
40.126	23.806	1407.479	1146.274
41.140	23.803	1406.696	1145.515
42.155	23.709	1406.953	1145.018
43.169	23.785	1406.201	1144.798
44.184	23.825	1405.819	1144.638
45.199	23.672	1406.196	1143.861
46.213	23.825	1404.887	1143.678
47.228	23.771	1403.813	1142.356
48.242	23.863	1402.925	1142.126
49.257	23.814	1401.331	1140.413
50.271	23.861	1399.726	1139.306
51.286	23.745	1398.670	1137.606
52.301	23.789	1397.324	1136.691
53.315	23.721	1396.589	1135.553
54.330	23.790	1395.360	1134.895
55.344	23.808	1394.332	1134.072
56.359	23.883	1393.218	1133.546
57.374	23.724	1393.071	1132.314
58.388	23.813	1391.981	1131.892
59.403	23.789	1391.714	1131.423
60.417	23.730	1391.208	1130.537
61.432	23.812	1390.136	1130.086
62.447	23.758	1389.355	1129.010
63.461	23.817	1388.195	1128.339
64.476	23.812	1387.133	1127.344
65.490	23.856	1385.757	1126.409
66.505	23.784	1384.326	1124.686
67.520	23.824	1383.000	1123.765
68.534	23.849	1381.957	1122.977
69.549	23.780	1381.301	1121.908
70.563	23.808	1380.254	1121.133
71.578	23.750	1379.127	1119.755
72.593	23.852	1378.407	1119.711
73.607	23.905	1377.365	1119.100
74.622	23.880	1376.527	1118.165
75.636	23.826	1376.013	1117.306
76.651	23.705	1375.822	1116.295
77.666	23.894	1374.733	1116.495
78.680	23.777	1374.430	1115.419
79.695	23.813	1373.342	1114.660
80.709	23.859	1372.557	1114.214
81.724	23.712	1372.468	1113.120
82.739	23.856	1370.534	1112.360
83.753	23.706	1370.291	1111.121
84.768	23.788	1369.200	1110.651
85.782	23.800	1367.903	1109.575
86.797	23.777	1366.665	1108.331
87.812	23.800	1365.352	1107.312
88.826	23.792	1364.568	1106.527
89.841	23.759	1363.439	1105.312
90.855	23.827	1362.076	1104.532
91.870	23.798	1361.165	1103.516
92.884	23.743	1360.697	1102.694
93.899	23.833	1359.604	1102.268
94.914	23.910	1358.788	1101.988
95.928	23.888	1358.125	1101.217
96.943	23.883	1357.268	1100.394
97.957	23.901	1356.335	1099.648
98.972	23.913	1355.668	1099.086
99.987	23.810	1354.894	1097.723
101.001	23.756	1353.635	1096.272
102.016	23.864	1352.750	1096.130
103.030	23.854	1352.008	1095.366
104.045	23.840	1351.075	1094.426
105.060	23.886	1350.180	1093.892
106.074	23.842	1349.145	1092.686
107.089	23.867	1348.494	1092.212
108.103	23.923	1347.092	1091.322
109.118	23.868	1345.996	1090.004
110.133	23.952	1344.439	1089.162
111.147	23.971	1343.313	1088.269
112.162	23.916	1342.408	1087.104
113.176	23.990	1340.844	1086.194
114.191	23.957	1340.063	1085.259
115.206	23.861	1339.584	1084.193
116.220	23.885	1338.461	1083.335
117.235	23.892	1337.442	1082.456
118.249	23.908	1336.431	1081.641
119.264	23.947	1335.274	1080.846
120.279	24.086	1334.386	1080.873
121.293	23.951	1333.940	1079.594
122.308	23.983	1333.339	1079.207
123.322	23.988	1332.274	1078.284
124.337	24.008	1331.428	1077.625
125.352	24.070	1330.376	1077.052
126.366	23.978	1329.575	1075.754
127.381	24.085	1328.824	1075.698
128.395	24.039	1327.906	1074.576
129.410	23.980	1326.992	1073.389
130.424	23.909	1326.678	1072.609
131.439	23.994	1325.422	1072.013
132.454	24.031	1324.270	1071.207
133.468	23.938	1324.235	1070.526
134.483	24.047	1323.256	1070.296
135.497	23.989	1322.516	1069.255
136.512	23.943	1321.263	1067.872
137.527	23.985	1320.626	1067.511
138.541	23.991	1318.940	1066.092
139.556	24.034	1317.575	1065.151
140.570	24.102	1316.371	1064.487
141.585	24.014	1315.360	1063.050
142.600	23.977	1314.646	1062.159
143.614	23.922	1314.058	1061.263
144.629	23.958	1313.275	1060.752
145.643	23.910	1312.247	1059.542
146.658	23.830	1311.283	1058.195
147.673	23.976	1309.813	1057.782
148.687	23.917	1308.803	1056.524
149.702	23.921	1307.686	1055.550
150.716	23.861	1306.856	1054.430
151.731	23.812	1305.827	1053.219
152.746	23.935	1304.839	1053.057
153.760	23.923	1303.636	1051.919
154.775	23.993	1302.910	1051.653
155.789	23.888	1302.045	1050.243
156.804	23.842	1300.820	1048.893
157.819	24.016	1299.447	1048.716
158.833	23.905	1299.231	1047.794
159.848	24.108	1298.110	1047.994
160.862	24.128	1297.499	1047.527
161.877	24.077	1296.736	1046.514
162.892	24.155	1295.576	1045.945
163.906	23.970	1295.410	1044.632
164.921	24.100	1293.987	1044.154
165.935	24.076	1293.628	1043.635
166.950	24.081	1293.120	1043.162
167.964	24.102	1291.914	1042.218
168.979	23.981	1291.873	1041.387
169.994	24.034	1291.122	1040.995
171.008	24.007	1290.406	1040.168
172.023	24.143	1289.528	1040.165
173.037	24.105	1289.023	1039.441
174.052	24.010	1288.413	1038.303
175.067	24.066	1287.555	1037.850
176.081	24.180	1286.140	1037.281
177.096	24.091	1285.688	1036.308
178.110	24.046	1284.980	1035.383
179.125	24.232	1283.505	1035.181
180.140	24.209	1282.506	1034.152
181.154	24.129	1281.336	1032.651
182.169	24.101	1280.449	1031.683
183.183	24.170	1279.103	1030.907
184.198	24.059	1278.364	1029.580
185.213	24.213	1277.390	1029.594
186.227	24.326	1276.469	1029.414
187.242	24.272	1275.458	1028.193
188.256	24.157	1274.879	1026.974
189.271	24.277	1273.664	1026.594
190.286	24.225	1272.890	1025.582
191.300	24.128	1272.920	1024.955
192.315	24.047	1272.000	1023.660
193.329	24.157	1272.056	1024.245
194.344	24.099	1271.607	1023.461
195.359	24.227	1270.829	1023.478
196.373	24.256	1270.190	1023.040
197.388	24.107	1269.830	1021.806
198.402	24.093	1269.633	1021.475
199.417	24.169	1269.025	1021.330
200.432	24.180	1268.438	1020.831
201.446	24.163	1267.981	1020.273
202.461	24.174	1267.160	1019.587
203.475	24.219	1265.785	1018.646
204.490	24.203	1264.750	1017.631
205.504	24.296	1263.770	1017.286
206.519	24.234	1263.141	1016.338
207.534	24.140	1261.945	1014.747
208.548	24.149	1261.359	1014.239
209.563	24.214	1260.504	1013.833
210.577	24.256	1259.408	1013.096
211.592	24.225	1258.657	1012.230
212.607	24.362	1257.897	1012.307
213.621	24.436	1256.565	1011.566
214.636	24.393	1256.064	1010.829
215.650	24.392	1255.505	1010.284
216.665	24.260	1254.889	1008.953
217.680	24.329	1253.835	1008.402
218.694	24.281	1252.543	1007.002
219.709	24.200	1252.671	1006.563
220.723	24.373	1251.595	1006.582
221.738	24.218	1250.930	1005.082
222.753	24.213	1250.002	1004.222
223.767	24.355	1249.495	1004.524
224.782	24.377	1249.150	1004.283
225.796	24.397	1248.167	1003.515
226.811	24.288	1248.080	1002.746
227.826	24.330	1247.367	1002.319
228.840	24.353	1246.662	1001.790
229.855	24.414	1245.435	1001.063
230.869	24.313	1244.959	1000.024
231.884	24.412	1244.342	999.997
232.899	24.467	1243.532	999.564
233.913	24.463	1242.967	998.998
234.928	24.492	1242.611	998.785
235.942	24.426	1242.222	998.017
236.957	24.539	1240.707	997.342
237.972	24.456	1240.146	996.338
238.986	24.440	1239.771	995.860
240.001	24.480	1239.284	995.601
241.015	24.535	1238.326	995.054
242.030	24.555	1237.677	994.555
243.045	24.460	1237.338	993.664
244.059	24.547	1235.829	992.846
245.074	24.595	1235.114	992.454
246.088	24.494	1234.571	991.367
247.103	24.692	1233.562	991.566
248.117	24.551	1232.785	990.073
249.132	24.654	1232.132	990.032
250.147	24.763	1231.490	990.031
251.161	24.611	1230.752	988.513
252.176	24.734	1229.995	988.494
253.190	24.705	1229.123	987.548
254.205	24.669	1228.930	987.106
255.220	24.704	1228.337	986.735
256.234	24.634	1227.836	985.859
257.249	24.687	1226.929	985.337
258.263	24.592	1226.601	984.462
259.278	24.579	1225.732	983.609
260.293	24.697	1225.342	983.854
261.307	24.683	1224.715	983.187
262.322	24.639	1224.227	982.470
263.336	24.636	1223.429	981.721
264.351	24.674	1222.695	981.254
265.366	24.660	1222.261	980.742
266.380	24.674	1221.289	979.957
267.395	24.659	1220.843	979.427
268.409	24.631	1220.158	978.636
269.424	24.676	1219.699	978.428
270.439	24.751	1219.336	978.464
271.453	24.712	1218.438	977.440
272.468	24.773	1217.510	976.945
273.482	24.756	1216.740	976.149
274.497	24.809	1216.337	976.025
275.512	24.956	1215.395	975.985
276.526	24.886	1214.602	974.881
277.541	24.857	1214.218	974.331
278.555	24.903	1213.545	973.955
279.570	24.785	1212.962	972.756
280.585	24.868	1212.098	972.431
281.599	24.869	1211.023	971.489
282.614	24.762	1210.877	970.700
283.628	24.830	1209.766	970.093
284.643	24.895	1208.673	969.483
285.657	24.835	1207.922	968.474
286.672	24.839	1207.190	967.819
287.687	24.821	1206.306	966.930
288.701	24.957	1205.467	966.904
289.716	24.916	1204.855	966.107
290.730	24.883	1204.273	965.378
291.745	24.999	1203.391	965.212
292.760	24.955	1202.774	964.392
293.774	25.023	1202.104	964.133
294.789	24.963	1201.794	963.478
295.803	24.931	1201.346	962.862
296.818	24.974	1200.469	962.304
297.833	25.015	1199.575	961.725
298.847	25.076	1198.968	961.478
299.862	24.902	1198.590	960.158
300.876	24.911	1197.794	959.483
301.891	25.034	1197.420	959.757
302.906	24.992	1196.514	958.720
303.920	25.075	1195.621	958.366
304.935	25.116	1194.682	957.745
305.949	25.074	1194.523	957.310
306.964	25.136	1193.683	956.882
307.979	25.142	1193.392	956.600
308.993	25.245	1192.408	956.275
310.008	25.206	1191.617	955.344
311.022	25.056	1190.975	953.951
312.037	25.140	1190.404	953.856
313.052	25.114	1189.262	952.714
314.066	25.056	1188.604	951.795
315.081	25.113	1187.585	951.197
316.095	25.165	1187.105	951.007
317.110	25.233	1186.447	950.755
318.125	25.256	1185.763	950.246
319.139	25.225	1185.109	949.474
320.154	25.198	1184.622	948.854
321.168	25.165	1184.156	948.223
322.183	25.191	1183.121	947.448
323.197	25.196	1182.761	947.102
324.212	25.094	1182.604	946.357
325.227	25.207	1181.530	946.005
326.241	25.324	1181.053	946.156
327.256	25.310	1180.449	945.518
328.270	25.260	1179.220	944.187
329.285	25.289	1178.364	943.567
330.300	25.423	1177.343	943.375
331.314	25.339	1177.051	942.612
332.329	25.429	1175.926	942.100
333.343	25.499	1175.313	941.895
334.358	25.321	1174.795	940.464
335.373	25.382	1173.734	939.851
336.387	25.336	1173.658	939.466
337.402	25.371	1172.789	938.869
338.416	25.356	1172.203	938.239
339.431	25.393	1171.620	937.880
340.446	25.555	1170.855	938.033
341.460	25.604	1169.973	937.496
342.475	25.549	1169.461	936.719
343.489	25.400	1168.627	935.189
344.504	25.518	1167.107	934.506
345.519	25.534	1166.484	934.007
346.533	25.592	1165.853	933.723
347.548	25.558	1165.204	932.944
348.562	25.444	1164.710	931.872
349.577	25.597	1163.305	931.457
350.592	25.489	1163.025	930.592
351.606	25.447	1162.142	929.585
352.621	25.549	1161.617	929.613
353.635	25.555	1161.267	929.281
354.650	25.662	1160.330	929.002
355.665	25.601	1159.935	928.286
356.679	25.590	1159.531	927.825
357.694	25.613	1158.450	926.999
358.708	25.624	1157.792	926.444
359.723	25.537	1157.510	925.691
360.738	25.580	1156.482	925.005
361.752	25.644	1155.990	924.857
362.767	25.744	1155.175	924.639
363.781	25.705	1155.044	924.252
364.796	25.755	1154.452	923.955
365.810	25.655	1153.896	922.915
366.825	25.722	1153.205	922.623
367.840	25.713	1152.492	921.924
368.854	25.782	1151.759	921.610
369.869	25.866	1151.056	921.395
370.883	25.861	1149.981	920.430
371.898	25.880	1149.494	920.053
372.913	25.809	1148.807	919.059
373.927	25.766	1148.807	918.761
374.942	25.853	1148.283	918.705
375.956	25.817	1147.838	918.082
376.971	25.902	1147.179	917.907
377.986	26.056	1146.156	917.791
379.000	26.003	1146.030	917.339
380.015	25.938	1145.580	916.568
381.029	25.832	1145.045	915.517
382.044	25.916	1144.203	915.190
383.059	25.953	1143.512	914.745
384.073	26.044	1142.346	914.191
385.088	25.995	1141.666	913.321
386.102	25.946	1141.007	912.462
387.117	25.985	1139.907	911.699
388.132	25.903	1138.963	910.452
389.146	25.977	1138.287	910.204
390.161	25.945	1138.255	909.938
391.175	25.919	1137.576	909.182
392.190	25.980	1136.959	908.917
393.205	25.989	1135.764	907.926
394.219	25.999	1135.079	907.347
395.234	26.106	1134.544	907.374
396.248	26.084	1133.564	906.403
397.263	26.057	1132.489	905.325
398.278	26.100	1132.179	905.217
399.292	26.233	1131.271	905.074
400.307	26.054	1131.133	903.988
401.321	26.149	1130.148	903.597
402.336	26.079	1129.696	902.803
403.350	26.166	1128.739	902.395
404.365	26.142	1128.034	901.633
405.380	26.206	1127.508	901.450
406.394	26.264	1126.589	900.926
407.409	26.215	1125.951	900.094
408.423	26.241	1125.173	899.521
409.438	26.297	1124.280	899.003
410.453	26.351	1123.596	898.646
411.467	26.299	1123.234	898.017
412.482	26.307	1122.513	897.405
413.496	26.232	1121.750	896.339
414.511	26.215	1121.215	895.752
415.526	26.300	1120.896	895.838
416.540	26.345	1119.951	895.226
417.555	26.337	1119.438	894.699
418.569	26.461	1119.177	895.021
419.584	26.381	1118.893	894.320
420.599	26.493	1118.193	894.238
421.613	143.051	1402.988	1783.881
422.628	133.171	1444.486	1784.009
