DTS Sentinel unit serial number:	SN413079Multiplexer serial number:	ORYXHardware model number:	OX4-SRSoftware version number:	ORYX F/W v4.00 Oryx Data Collector v3.7.2.0data status	okinstallation	princeton_trtdifferential loss correction	single-endedforward channel	channel 2reverse channel	N/Adate	2019/09/19time	13:03:34forward acquisition time	60.00reverse acquisition time	0.00gamma	496.2192k internal	0.2331k external	0.2331temperature offset calibration	1.0014default loss term (dB/km)	0.3790temperature slope calibration	1.0000multiplexer offset coefficient	1.0000multiplexer slope coefficient	1.0000fibre end	0.00T internal ref (°C)	28.81T ext. ref 1 (°C)	0.93T ext. ref 2 (°C)	26.85length (m)	temperature (°C)	Stokes	anti-Stokes-747.200	-200.000	-0.056	0.462
-746.185	94.456	-0.166	0.190
-745.171	-130.602	-0.303	-0.041
-744.156	515.934	0.116	0.272
-743.142	-15.833	-0.237	0.152
-742.127	-90.469	-0.090	0.026
-741.112	-200.000	0.033	0.255
-740.098	85.616	-0.184	0.203
-739.083	800.000	0.061	0.175
-738.069	-200.000	-0.027	0.122
-737.054	113.536	0.230	-0.281
-736.039	-200.000	0.001	-0.062
-735.025	-200.000	0.038	0.329
-734.010	264.825	-0.065	-0.114
-732.996	135.393	-0.175	-0.229
-731.981	282.977	-0.114	-0.207
-730.966	63.267	-0.114	0.115
-729.952	443.448	-0.087	0.191
-728.937	-200.000	-0.069	0.317
-727.923	-101.682	-0.231	0.056
-726.908	-200.000	-0.085	-0.389
-725.894	8.202	-0.209	-0.158
-724.879	-11.331	-0.167	-0.110
-723.864	-130.295	-0.063	-0.009
-722.850	505.760	-0.033	-0.078
-721.835	-22.745	-0.351	0.213
-720.821	-26.202	-0.237	0.140
-719.806	-200.000	0.003	-0.037
-718.791	-21.394	-0.083	0.051
-717.777	-200.000	0.021	-0.259
-716.762	-21.903	0.137	-0.084
-715.748	-109.716	0.090	-0.019
-714.733	-110.378	0.087	0.018
-713.718	-71.594	0.207	-0.078
-712.704	800.000	-0.104	-0.295
-711.689	-200.000	-0.012	-0.319
-710.675	-106.224	0.386	0.087
-709.660	-200.000	-0.016	-0.405
-708.645	-200.000	0.004	-0.305
-707.631	468.602	-0.127	0.287
-706.616	-37.213	0.187	0.100
-705.602	-200.000	0.016	-0.128
-704.587	49.885	-0.053	0.050
-703.572	-200.000	0.031	0.211
-702.558	-200.000	-0.013	0.092
-701.543	735.250	0.076	0.204
-700.529	128.963	-0.284	-0.364
-699.514	444.195	-0.057	-0.126
-698.499	-110.337	-0.072	0.015
-697.485	120.352	-0.106	-0.132
-696.470	195.114	-0.132	-0.202
-695.456	62.664	-0.079	-0.080
-694.441	-147.034	0.223	0.019
-693.426	-77.857	-0.492	-0.171
-692.412	583.524	-0.024	0.058
-691.397	-156.703	0.130	-0.008
-690.383	47.904	-0.117	-0.110
-689.368	-93.085	-0.069	-0.019
-688.354	541.604	0.169	-0.404
-687.339	-58.638	0.258	-0.112
-686.324	-200.000	0.024	0.130
-685.310	544.767	-0.152	-0.365
-684.295	162.547	-0.100	-0.140
-683.281	-39.909	0.128	0.067
-682.266	-59.793	0.198	0.085
-681.251	-6.667	-0.210	-0.143
-680.237	-2.357	-0.094	0.066
-679.222	800.000	0.057	-0.179
-678.208	656.314	0.062	0.161
-677.193	800.000	-0.042	-0.154
-676.178	159.609	0.134	-0.187
-675.164	-200.000	0.032	0.197
-674.149	800.000	0.104	0.368
-673.135	338.281	0.169	0.330
-672.120	-24.478	-0.064	0.038
-671.105	-51.119	0.236	-0.111
-670.091	-154.733	-0.190	-0.013
-669.076	-21.054	0.325	0.199
-668.062	36.692	-0.130	0.115
-667.047	800.000	0.059	-0.166
-666.032	573.057	-0.119	-0.291
-665.018	-200.000	-0.009	-0.098
-664.003	17.586	-0.212	0.169
-662.989	670.272	-0.092	-0.240
-661.974	218.867	-0.093	0.149
-660.959	-200.000	0.001	0.277
-659.945	789.333	0.040	0.112
-658.930	-138.641	0.188	-0.021
-657.916	366.078	0.106	-0.215
-656.901	78.235	0.123	0.132
-655.886	100.240	-0.077	0.089
-654.872	6.317	-0.437	-0.326
-653.857	-35.189	-0.075	-0.041
-652.843	-77.493	-0.223	0.078
-651.828	-44.554	0.059	-0.030
-650.814	173.956	0.096	-0.139
-649.799	-109.909	-0.331	0.070
-648.784	-96.383	-0.450	-0.119
-647.770	67.422	0.189	-0.193
-646.755	-107.509	0.216	0.047
-645.741	612.924	-0.050	0.125
-644.726	17.444	0.247	0.197
-643.711	-145.230	-0.388	-0.035
-642.697	118.436	-0.083	0.103
-641.682	800.000	-0.040	-0.162
-640.668	-200.000	0.020	0.162
-639.653	151.762	0.135	-0.184
-638.638	-200.000	-0.033	-0.291
-637.624	173.828	-0.053	-0.076
-636.609	800.000	0.056	-0.220
-635.595	99.319	0.159	0.184
-634.580	-200.000	0.006	0.179
-633.565	514.101	0.048	0.112
-632.551	-200.000	0.003	0.131
-631.536	662.128	-0.048	0.123
-630.522	-200.000	0.018	0.114
-629.507	-75.181	-0.226	0.081
-628.492	800.000	0.130	0.364
-627.478	36.164	0.156	-0.137
-626.463	6.174	-0.044	0.033
-625.449	-5.219	0.191	0.131
-624.434	218.574	-0.166	0.266
-623.419	-25.544	-0.115	0.068
-622.405	130.534	-0.061	0.078
-621.390	91.245	0.264	-0.297
-620.376	-56.704	-0.115	0.051
-619.361	16.592	-0.158	-0.125
-618.346	-9.712	-0.270	0.180
-617.332	-17.935	-0.122	0.076
-616.317	-120.462	-0.314	-0.053
-615.303	-74.717	-0.254	0.091
-614.288	-33.759	-0.075	-0.041
-613.273	-122.009	0.274	-0.045
-612.259	-163.788	-0.336	-0.016
-611.244	-200.000	-0.068	-0.369
-610.230	22.916	-0.045	0.037
-609.215	2.760	-0.200	0.145
-608.201	-167.105	-0.332	-0.014
-607.186	-200.000	-0.044	-0.412
-606.171	71.598	0.284	-0.295
-605.157	68.013	-0.192	-0.196
-604.142	21.435	-0.130	-0.106
-603.128	-200.000	-0.050	-0.218
-602.113	-114.704	0.014	0.003
-601.098	-200.000	0.013	-0.157
-600.084	800.000	-0.074	-0.267
-599.069	547.634	-0.093	-0.223
-598.055	-200.000	0.056	-0.264
-597.040	-25.202	0.241	-0.143
-596.025	86.132	0.165	-0.182
-595.011	41.176	-0.274	-0.248
-593.996	765.810	-0.062	0.169
-592.982	-81.495	-0.135	0.045
-591.967	131.642	0.039	-0.050
-590.952	94.863	0.264	0.300
-589.938	231.063	-0.047	-0.077
-588.923	80.095	-0.145	-0.156
-587.909	800.000	-0.038	0.128
-586.894	231.390	0.155	-0.255
-585.879	-139.368	0.329	0.035
-584.865	-200.000	-0.006	0.078
-583.850	-175.454	-0.257	-0.007
-582.836	800.000	0.075	-0.272
-581.821	-200.000	-0.052	0.369
-580.806	739.426	-0.043	0.115
-579.792	800.000	-0.031	-0.118
-578.777	-103.425	-0.259	0.061
-577.763	-4.459	0.195	0.135
-576.748	-84.094	-0.075	-0.024
-575.733	-144.326	0.126	-0.012
-574.719	513.582	0.167	0.389
-573.704	800.000	0.086	0.357
-572.690	-56.553	-0.364	-0.161
-571.675	-102.624	0.210	-0.050
-570.661	30.097	-0.096	0.082
-569.646	435.166	-0.139	-0.302
-568.631	800.000	-0.106	0.362
-567.617	-10.560	0.138	-0.091
-566.602	-53.641	-0.091	-0.042
-565.588	800.000	0.046	-0.152
-564.573	-200.000	0.060	-0.264
-563.558	142.207	-0.153	-0.202
-562.544	66.576	-0.195	-0.198
-561.529	-46.020	-0.366	-0.180
-560.515	35.974	0.219	-0.193
-559.500	671.599	0.068	0.177
-558.485	-200.000	-0.052	0.367
-557.471	-108.321	-0.275	-0.059
-556.456	19.305	0.090	-0.072
-555.442	-91.931	-0.404	0.115
-554.427	-80.570	0.134	-0.045
-553.412	287.254	0.034	0.061
-552.398	-85.781	0.433	-0.134
-551.383	800.000	0.036	0.146
-550.369	48.251	-0.086	-0.080
-549.354	29.494	-0.288	0.245
-548.339	-140.957	0.202	-0.021
-547.325	65.420	-0.258	-0.260
-546.310	-156.897	-0.052	0.003
-545.296	-200.000	-0.002	-0.093
-544.281	-200.000	-0.039	0.470
-543.266	99.021	0.097	0.112
-542.252	-148.258	-0.160	0.013
-541.237	745.572	-0.012	0.032
-540.223	52.549	0.259	-0.247
-539.208	-14.026	0.104	0.067
-538.193	548.679	0.100	0.240
-537.179	331.671	0.100	-0.192
-536.164	-156.022	0.309	0.020
-535.150	293.949	-0.267	-0.486
-534.135	800.000	0.048	0.162
-533.121	800.000	0.052	-0.148
-532.106	-200.000	0.001	-0.211
-531.091	800.000	-0.081	-0.228
-530.077	800.000	-0.018	0.062
-529.062	504.084	-0.179	0.413
-528.048	-121.712	0.144	0.024
-527.033	-158.141	-0.076	0.004
-526.018	-8.468	-0.023	-0.015
-525.004	-200.000	-0.028	-0.266
-523.989	-113.725	0.230	-0.045
-522.975	63.299	-0.148	-0.148
-521.960	43.084	-0.322	0.293
-520.945	63.714	-0.066	0.066
-519.931	84.135	0.133	0.145
-518.916	-200.000	0.018	0.343
-517.902	-116.479	-0.114	-0.021
-516.887	-200.000	0.019	0.144
-515.872	144.236	-0.156	0.207
-514.858	-200.000	-0.106	-0.000
-513.843	296.855	-0.077	0.140
-512.829	-187.482	0.154	0.002
-511.814	-12.012	-0.064	-0.042
-510.799	-35.410	-0.033	-0.018
-509.785	-132.082	-0.204	-0.026
-508.770	-148.483	0.178	-0.015
-507.756	212.897	-0.155	0.244
-506.741	-58.760	-0.289	-0.125
-505.726	-132.283	0.181	0.023
-504.712	10.558	0.177	0.134
-503.697	800.000	0.049	0.187
-502.683	800.000	0.050	-0.181
-501.668	55.619	0.140	-0.135
-500.653	32.974	0.126	0.109
-499.639	-200.000	0.033	-0.204
-498.624	75.994	-0.230	-0.242
-497.610	13.036	-0.230	0.177
-496.595	-200.000	0.023	0.372
-495.581	293.141	0.124	0.225
-494.566	800.000	-0.036	-0.120
-493.551	181.299	0.149	-0.218
-492.537	131.669	-0.329	0.421
-491.522	220.795	0.251	0.402
-490.508	-2.046	-0.168	-0.118
-489.493	106.204	-0.225	0.266
-488.478	421.977	0.061	0.130
-487.464	102.836	-0.114	0.132
-486.449	-59.216	-0.096	0.041
-485.435	-147.518	0.458	-0.038
-484.420	269.002	-0.146	-0.256
-483.405	561.124	0.061	-0.148
-482.391	-161.930	-0.315	0.016
-481.376	-29.676	-0.352	-0.200
-480.362	-123.020	-0.094	-0.015
-479.347	-183.361	0.099	0.002
-478.332	-16.333	-0.310	-0.196
-477.318	81.776	-0.133	-0.144
-476.303	565.225	0.097	-0.234
-475.289	51.502	0.142	-0.134
-474.274	-25.910	-0.241	0.141
-473.259	-20.341	-0.096	-0.059
-472.245	29.687	0.251	0.213
-471.230	74.223	-0.163	-0.171
-470.216	17.557	0.384	-0.304
-469.201	-98.642	0.139	-0.035
-468.186	168.779	-0.235	-0.333
-467.172	-2.918	-0.151	-0.105
-466.157	169.101	-0.176	0.250
-465.143	70.836	0.086	0.088
-464.128	-200.000	0.079	0.433
-463.113	-149.593	-0.063	0.005
-462.099	157.380	-0.112	-0.154
-461.084	418.138	0.192	-0.408
-460.070	-157.483	-0.105	-0.006
-459.055	800.000	-0.080	-0.256
-458.040	291.588	-0.162	-0.294
-457.026	332.343	-0.051	0.097
-456.011	-6.842	-0.134	-0.091
-454.997	-200.000	0.005	0.069
-453.982	800.000	0.019	-0.053
-452.968	-200.000	0.037	0.303
-451.953	215.288	0.044	-0.069
-450.938	239.113	-0.115	-0.191
-449.924	-122.928	-0.046	-0.007
-448.909	-76.531	-0.326	-0.114
-447.895	-67.862	0.132	-0.051
-446.880	-162.550	0.267	-0.013
-445.865	-78.923	-0.173	-0.058
-444.851	800.000	0.143	0.575
-443.836	68.588	-0.234	0.239
-442.822	330.677	0.056	0.108
-441.807	656.272	-0.026	0.066
-440.792	66.515	0.223	-0.225
-439.778	180.151	0.161	-0.235
-438.763	174.083	-0.165	-0.237
-437.749	429.533	0.241	-0.518
-436.734	-200.000	0.027	-0.416
-435.719	581.398	0.093	-0.226
-434.705	153.506	-0.024	0.033
-433.690	-129.410	0.091	-0.012
-432.676	-173.426	-0.466	-0.014
-431.661	-0.478	-0.276	0.194
-430.646	202.670	0.085	-0.131
-429.632	-29.765	-0.296	-0.168
-428.617	-200.000	-0.010	0.056
-427.603	-200.000	-0.034	0.173
-426.588	406.872	0.037	-0.078
-425.573	178.442	0.205	0.298
-424.559	-110.350	-0.209	-0.043
-423.544	138.505	0.075	-0.098
-422.530	-200.000	-0.006	0.040
-421.515	106.715	-0.099	0.117
-420.500	477.476	0.242	0.545
-419.486	-150.213	-0.160	0.012
-418.471	21.515	-0.272	0.220
-417.457	-86.552	0.018	0.006
-416.442	-37.494	0.155	-0.082
-415.428	411.150	0.083	0.175
-414.413	33.479	-0.157	0.135
-413.398	118.144	0.096	0.117
-412.384	-75.898	0.114	-0.040
-411.369	95.053	0.083	-0.094
-410.355	58.150	-0.110	-0.107
-409.340	69.193	0.296	0.302
-408.325	-200.000	0.006	0.060
-407.311	119.784	-0.144	0.178
-406.296	560.980	-0.035	-0.084
-405.282	-146.443	0.251	0.022
-404.267	-160.373	-0.146	-0.008
-403.252	38.722	-0.160	-0.142
-402.238	-91.265	-0.301	0.086
-401.223	109.442	0.313	-0.372
-400.209	-20.055	0.120	0.074
-399.194	258.526	0.072	-0.123
-398.179	-42.558	0.211	0.106
-397.165	82.350	-0.104	0.112
-396.150	-200.000	-0.004	-0.113
-395.136	-32.225	0.192	0.107
-394.121	262.940	-0.134	0.231
-393.106	170.640	-0.018	-0.026
-392.092	-200.000	0.030	0.276
-391.077	520.858	0.056	-0.131
-390.063	272.509	-0.096	-0.168
-389.048	718.363	0.090	0.238
-388.033	-18.817	0.250	-0.154
-387.019	-200.000	-0.003	0.175
-386.004	468.738	-0.056	0.124
-384.990	-200.000	-0.015	-0.096
-383.975	-200.000	-0.007	0.133
-382.960	-50.003	0.051	0.024
-381.946	-123.126	0.073	0.012
-380.931	-200.000	0.030	0.155
-379.917	800.000	0.100	0.370
-378.902	92.066	-0.116	-0.129
-377.888	-200.000	-0.004	0.440
-376.873	-200.000	-0.006	0.330
-375.858	-118.240	-0.103	-0.018
-374.844	-61.063	0.095	0.040
-373.829	-200.000	-0.027	-0.118
-372.815	-200.000	0.040	-0.408
-371.800	800.000	-0.098	0.335
-370.785	236.066	0.102	-0.167
-369.771	197.692	-0.172	-0.261
-368.756	-110.529	-0.302	-0.062
-367.742	177.892	0.207	-0.300
-366.727	-60.422	0.212	0.090
-365.712	-138.398	-0.138	0.015
-364.698	64.352	0.212	-0.212
-363.683	-200.000	-0.007	-0.335
-362.669	29.934	-0.191	0.161
-361.654	-200.000	-0.009	-0.265
-360.639	-200.000	0.040	-0.339
-359.625	-200.000	0.018	-0.259
-358.610	767.232	-0.029	-0.078
-357.596	240.629	0.070	-0.115
-356.581	-44.524	0.322	-0.160
-355.566	113.230	0.126	0.151
-354.552	-113.025	-0.215	-0.042
-353.537	-46.945	-0.317	-0.154
-352.523	800.000	0.065	-0.234
-351.508	65.037	-0.158	-0.158
-350.493	-129.983	0.166	0.023
-349.479	-166.989	-0.185	0.008
-348.464	419.014	0.125	-0.265
-347.450	397.984	0.024	0.051
-346.435	150.759	-0.092	-0.124
-345.420	339.915	-0.070	0.135
-344.406	137.521	0.132	-0.171
-343.391	-50.908	0.094	-0.044
-342.377	800.000	0.076	-0.239
-341.362	-58.887	-0.304	-0.130
-340.348	-116.995	-0.131	-0.024
-339.333	-72.219	-0.459	-0.169
-338.318	284.700	-0.023	0.042
-337.304	-116.803	-0.294	-0.053
-336.289	-49.165	0.379	0.180
-335.275	81.502	0.234	0.250
-334.260	149.647	0.087	0.117
-333.245	-44.047	-0.276	-0.137
-332.231	-119.701	0.336	0.057
-331.216	603.878	0.155	0.381
-330.202	-107.743	-0.391	-0.084
-329.187	-200.000	0.028	-0.222
-328.172	-200.000	-0.084	-0.372
-327.158	-200.000	0.027	-0.178
-326.143	243.618	-0.173	-0.287
-325.129	-72.188	0.106	0.039
-324.114	800.000	-0.090	-0.265
-323.099	800.000	-0.023	0.096
-322.085	113.059	-0.095	-0.114
-321.070	-74.820	-0.117	-0.042
-320.056	25.280	0.303	0.250
-319.041	-200.000	-0.033	0.255
-318.026	800.000	0.032	-0.116
-317.012	800.000	-0.050	-0.162
-315.997	394.033	0.169	0.348
-314.983	-41.040	0.206	0.106
-313.968	-150.802	0.324	0.024
-312.953	-75.703	-0.374	0.131
-311.939	800.000	-0.069	0.261
-310.924	130.025	0.129	0.163
-309.910	800.000	-0.046	0.130
-308.895	-164.976	0.241	0.011
-307.880	-0.400	-0.205	-0.144
-306.866	-200.000	0.051	-0.246
-305.851	48.631	0.190	-0.176
-304.837	-84.261	0.434	-0.136
-303.822	381.544	0.022	0.045
-302.807	-200.000	0.013	0.087
-301.793	-9.191	0.296	-0.196
-300.778	-58.849	0.123	-0.053
-299.764	93.152	0.102	-0.114
-298.749	-68.000	0.149	-0.058
-297.735	79.908	0.189	-0.201
-296.720	800.000	0.082	0.291
-295.705	161.295	0.198	0.274
-294.691	-169.061	-0.054	-0.002
-293.676	99.489	0.131	0.149
-292.662	-200.000	-0.036	-0.294
-291.647	189.542	0.113	-0.167
-290.632	-38.261	0.063	0.033
-289.618	11.750	0.084	-0.064
-288.603	-181.955	0.265	0.005
-287.589	-137.341	0.451	-0.051
-286.574	800.000	0.122	0.345
-285.559	118.730	-0.219	-0.268
-284.545	800.000	-0.036	0.135
-283.530	-2.159	-0.155	0.108
-282.516	87.967	0.091	0.100
-281.501	652.955	-0.026	0.066
-280.486	454.505	0.044	-0.097
-279.472	-63.561	-0.192	0.078
-278.457	203.345	-0.093	0.142
-277.443	-200.000	0.007	0.276
-276.428	-31.840	-0.346	0.191
-275.413	-200.000	-0.003	0.207
-274.399	255.187	0.062	-0.105
-273.384	558.975	0.031	0.073
-272.370	-200.000	-0.049	0.382
-271.355	-50.869	0.507	0.235
-270.340	-47.120	-0.074	0.036
-269.326	-200.000	0.001	0.027
-268.311	-200.000	-0.007	0.333
-267.297	-87.654	0.225	0.067
-266.282	800.000	-0.086	-0.249
-265.267	-84.896	0.474	-0.147
-264.253	107.081	-0.073	-0.086
-263.238	-141.360	0.256	0.026
-262.224	-109.608	0.138	0.029
-261.209	-62.874	-0.207	-0.084
-260.195	-14.416	0.230	0.146
-259.180	127.957	-0.047	-0.058
-258.165	-135.624	0.216	0.025
-257.151	222.677	-0.062	0.099
-256.136	145.948	-0.077	-0.103
-255.122	-135.637	-0.117	0.014
-254.107	-200.000	-0.050	0.217
-253.092	21.968	0.062	-0.050
-252.078	75.125	0.237	0.247
-251.063	31.916	-0.281	0.239
-250.049	-21.619	-0.168	-0.101
-249.034	800.000	0.086	0.260
-248.019	-64.821	-0.333	0.133
-247.005	-127.251	0.198	-0.029
-245.990	-200.000	-0.017	-0.100
-244.976	97.936	-0.077	0.087
-243.961	-135.916	0.254	-0.030
-242.946	62.169	-0.192	0.189
-241.932	-20.396	-0.279	-0.169
-240.917	62.743	0.105	0.103
-239.903	-108.721	-0.331	-0.070
-238.888	71.051	0.274	0.280
-237.873	800.000	0.126	-0.392
-236.859	-200.000	-0.001	0.179
-235.844	100.414	0.389	0.446
-234.830	380.056	-0.060	0.121
-233.815	-148.417	0.208	-0.017
-232.800	-200.000	0.033	0.163
-231.786	216.056	0.077	0.120
-230.771	656.550	0.043	-0.109
-229.757	-105.418	0.353	0.079
-228.742	-200.000	0.004	0.157
-227.727	-74.425	0.375	-0.134
-226.713	179.942	0.112	0.162
-225.698	365.891	0.026	-0.052
-224.684	-138.939	0.296	0.032
-223.669	800.000	-0.070	0.244
-222.655	-47.522	0.204	0.098
-221.640	-109.544	0.224	-0.047
-220.625	285.297	0.068	-0.122
-219.611	-200.000	-0.035	0.155
-218.596	-200.000	0.014	0.149
-217.582	167.281	-0.196	0.275
-216.567	474.452	0.097	0.216
-215.552	-29.317	-0.305	-0.172
-214.538	-200.000	-0.008	-0.163
-213.523	-28.764	0.129	0.073
-212.509	-200.000	-0.045	0.374
-211.494	299.750	-0.082	-0.150
-210.479	-184.222	-0.390	0.006
-209.465	800.000	-0.085	-0.234
-208.450	-200.000	-0.025	0.118
-207.436	125.853	-0.241	-0.299
-206.421	-45.754	0.329	0.160
-205.406	-26.695	0.236	-0.136
-204.392	11.183	0.187	-0.141
-203.377	70.283	0.205	0.209
-202.363	-200.000	-0.011	-0.139
-201.348	42.244	0.321	0.288
-200.333	15.152	-0.102	0.078
-199.319	-9.639	0.206	0.135
-198.304	-42.772	-0.221	-0.111
-197.290	101.438	0.252	-0.289
-196.275	-111.023	0.118	-0.024
-195.260	-152.531	0.142	-0.010
-194.246	590.067	0.066	-0.160
-193.231	-65.338	0.046	0.018
-192.217	2.987	-0.048	-0.035
-191.202	-97.608	-0.197	0.050
-190.187	-200.000	0.010	-0.071
-189.173	-3.707	0.050	-0.034
-188.158	-76.938	0.168	-0.058
-187.144	-200.000	-0.042	0.358
-186.129	36.076	0.189	-0.164
-185.114	-123.865	0.143	-0.022
-184.100	-85.989	-0.233	-0.071
-183.085	214.971	-0.077	-0.120
-182.071	-94.729	0.138	0.037
-181.056	97.843	-0.149	-0.169
-180.042	125.360	-0.074	0.091
-179.027	261.737	0.050	0.086
-178.012	31.590	-0.131	0.111
-176.998	227.645	0.090	0.144
-175.983	-139.823	-0.128	0.013
-174.969	-21.688	-0.126	-0.075
-173.954	217.887	-0.074	-0.116
-172.939	22.698	-0.238	0.192
-171.925	-105.997	-0.246	0.054
-170.910	-200.000	-0.056	-0.247
-169.896	144.993	-0.057	-0.076
-168.881	131.232	0.098	-0.124
-167.866	-150.537	0.300	-0.023
-166.852	800.000	0.048	0.200
-165.837	26.524	0.155	-0.128
-164.823	800.000	0.095	-0.293
-163.808	800.000	0.079	0.237
-162.793	6.954	-0.191	-0.140
-161.779	-72.885	0.245	-0.088
-160.764	-81.433	0.378	0.122
-159.750	-61.309	-0.103	0.043
-158.735	-120.395	-0.258	0.043
-157.720	-46.586	0.044	0.021
-156.706	-115.178	-0.085	-0.016
-155.691	276.218	-0.128	-0.223
-154.677	256.435	0.197	-0.333
-153.662	-125.701	-0.207	0.031
-152.647	95.827	0.114	-0.128
-151.633	-19.548	-0.317	0.193
-150.618	564.776	0.043	0.102
-149.604	-4.242	0.261	-0.177
-148.589	-5.511	-0.076	0.052
-147.574	-60.677	-0.229	-0.095
-146.560	43.203	-0.101	0.090
-145.545	-200.000	-0.040	0.281
-144.531	-64.986	0.288	0.114
-143.516	-200.000	0.055	0.256
-142.502	-26.689	0.102	0.059
-141.487	-200.000	0.073	-0.428
-140.472	-13.225	0.124	-0.079
-139.458	30.117	-0.179	-0.150
-138.443	-200.000	0.065	0.430
-137.429	136.563	0.090	0.115
-136.414	46.266	-0.299	0.272
-135.399	-141.861	0.140	0.014
-134.385	-65.270	-0.224	0.089
-133.370	-200.000	-0.023	0.197
-132.356	77.147	0.113	0.118
-131.341	100.685	0.142	-0.162
-130.326	-200.000	-0.047	0.277
-129.312	41.998	0.299	0.266
-128.297	-40.023	-0.130	-0.067
-127.283	89.778	-0.186	-0.204
-126.268	-34.841	0.077	-0.041
-125.253	-200.000	0.042	-0.281
-124.239	769.425	-0.058	-0.155
-123.224	-200.000	0.061	-0.264
-122.210	43.045	0.213	0.191
-121.195	102.508	-0.138	-0.159
-120.180	-60.323	-0.199	-0.083
-119.166	-25.669	-0.142	-0.083
-118.151	6.405	0.116	0.085
-117.137	681.214	-0.088	0.225
-116.122	-200.000	0.069	0.462
-115.107	-165.370	-0.169	-0.007
-114.093	22.912	-0.204	-0.164
-113.078	-133.700	0.087	-0.011
-112.064	747.527	0.056	-0.149
-111.049	-200.000	-0.025	0.278
-110.034	3.796	0.160	-0.115
-109.020	-200.000	0.028	0.158
-108.005	14.380	0.074	-0.056
-106.991	241.639	0.092	0.151
-105.976	108.895	-0.044	-0.051
-104.962	61.056	-0.189	-0.184
-103.947	800.000	0.083	0.240
-102.932	124.045	0.155	0.191
-101.918	800.000	-0.073	0.239
-100.903	-14.054	-0.502	0.318
-99.889	-18.342	-0.090	0.055
-98.874	327.338	-0.035	0.066
-97.859	521.090	0.185	0.426
-96.845	166.636	0.230	0.320
-95.830	108.808	0.025	-0.029
-94.816	-200.000	0.010	-0.494
-93.801	800.000	-0.023	0.091
-92.786	-13.076	-0.273	-0.174
-91.772	-4.714	0.142	0.096
-90.757	-130.236	-0.481	0.064
-89.743	1.095	0.227	-0.160
-88.728	-200.000	-0.013	0.273
-87.713	-158.722	-0.065	0.004
-86.699	445.031	0.117	-0.252
-85.684	11.432	0.194	0.145
-84.670	89.271	-0.164	0.180
-83.655	136.460	0.025	-0.032
-82.640	-101.212	-0.142	-0.034
-81.626	-71.698	0.233	-0.085
-80.611	-200.000	0.076	-0.338
-79.597	-16.558	-0.290	0.180
-78.582	231.862	-0.110	0.177
-77.567	-168.091	-0.246	-0.009
-76.553	-32.360	0.283	0.155
-75.538	-95.422	0.052	0.014
-74.524	561.194	0.073	0.173
-73.509	-200.000	-0.033	-0.241
-72.494	468.989	0.066	-0.145
-71.480	-8.675	-0.397	0.261
-70.465	-100.891	0.183	0.044
-69.451	46.321	-0.126	0.114
-68.436	800.000	0.043	0.170
-67.422	800.000	0.007	0.022
-66.407	-91.707	-0.201	-0.056
-65.392	-9.467	0.275	-0.180
-64.378	593.072	-0.100	0.242
-63.363	800.000	0.085	0.322
-62.349	-76.591	0.161	-0.056
-61.334	-42.828	-0.996	-0.496
-60.319	0.291	0.660	0.461
-59.305	-200.000	-0.172	-0.992
-58.290	266.785	0.726	1.243
-57.276	233.123	1.056	1.701
-56.261	-200.000	106.498	584.176
-55.246	413.950	1517.018	3162.578
-54.232	137.791	2743.786	3520.536
-53.217	96.604	2344.748	2629.803
-52.203	37.793	1944.255	1691.710
-51.188	31.927	1728.751	1458.685
-50.173	29.394	1685.223	1402.672
-49.159	47.502	1739.404	1588.207
-48.144	47.733	1754.917	1604.095
-47.130	31.526	1711.721	1440.997
-46.115	28.896	1696.864	1408.320
-45.100	28.803	1691.700	1403.270
-44.086	28.742	1688.890	1400.421
-43.071	28.704	1686.617	1398.187
-42.057	28.547	1684.409	1395.111
-41.042	28.622	1682.167	1393.770
-40.027	28.667	1680.276	1392.488
-39.013	28.681	1677.965	1390.621
-37.998	28.655	1676.921	1389.504
-36.984	28.687	1675.328	1388.369
-35.969	28.812	1673.778	1387.977
-34.954	28.804	1672.433	1386.748
-33.940	28.813	1670.325	1385.010
-32.925	28.831	1668.870	1383.884
-31.911	28.814	1666.919	1382.085
-30.896	28.835	1664.992	1380.590
-29.881	28.843	1663.346	1379.230
-28.867	28.745	1662.014	1377.336
-27.852	28.813	1660.354	1376.412
-26.838	28.857	1658.725	1375.341
-25.823	28.806	1657.536	1373.913
-24.809	28.827	1656.007	1372.748
-23.794	28.867	1654.703	1371.912
-22.779	28.929	1652.457	1370.457
-21.765	28.842	1650.974	1368.525
-20.750	28.750	1649.788	1366.810
-19.736	28.831	1648.755	1366.500
-18.721	28.772	1647.441	1364.917
-17.706	28.854	1645.428	1363.805
-16.692	28.863	1643.416	1362.145
-15.677	28.821	1642.511	1361.031
-14.663	28.869	1640.807	1359.923
-13.648	28.922	1639.716	1359.352
-12.633	28.802	1638.416	1357.337
-11.619	28.886	1636.562	1356.364
-10.604	28.786	1635.307	1354.536
-9.590	28.832	1634.126	1353.842
-8.575	28.835	1632.763	1352.680
-7.560	28.877	1631.415	1351.818
-6.546	28.890	1629.805	1350.527
-5.531	28.807	1629.300	1349.447
-4.517	28.782	1628.057	1348.179
-3.502	28.885	1626.911	1347.936
-2.487	28.969	1624.760	1346.710
-1.473	28.965	1614.018	1337.724
-0.458	26.688	1595.450	1305.895
0.556	22.306	1596.706	1275.356
1.571	19.748	1621.086	1275.867
2.586	18.813	1632.744	1277.975
3.600	16.857	1577.796	1220.777
4.615	9.558	1466.211	1085.325
5.629	2.357	1402.182	991.301
6.644	1.067	1393.940	977.073
7.659	0.902	1392.586	974.974
8.673	0.984	1391.136	974.400
9.688	0.746	1389.590	971.702
10.702	0.630	1386.330	968.591
11.717	3.790	1391.692	992.564
12.731	11.512	1403.066	1050.425
13.746	16.419	1410.249	1087.362
14.761	17.229	1410.382	1092.577
15.775	16.742	1408.360	1087.785
16.790	15.633	1405.971	1078.733
17.804	14.919	1403.707	1072.322
18.819	14.583	1401.489	1068.379
19.834	14.283	1400.351	1065.501
20.848	13.985	1399.074	1062.529
21.863	13.740	1398.235	1060.231
22.877	13.577	1396.814	1058.018
23.892	13.506	1395.884	1056.770
24.907	13.620	1394.668	1056.484
25.921	13.629	1393.890	1055.859
26.936	13.643	1393.413	1055.491
27.950	13.577	1392.255	1054.100
28.965	13.668	1390.873	1053.541
29.980	13.706	1390.167	1053.149
30.994	13.808	1389.230	1052.996
32.009	13.777	1388.418	1052.090
33.023	13.799	1387.281	1051.278
34.038	13.691	1386.227	1049.700
35.053	13.702	1384.790	1048.587
36.067	13.628	1383.998	1047.427
37.082	13.819	1382.367	1047.305
38.096	13.807	1381.786	1046.695
39.111	13.838	1380.723	1045.994
40.126	13.653	1380.397	1044.492
41.140	13.612	1379.516	1043.473
42.155	13.616	1378.466	1042.615
43.169	13.597	1378.890	1042.724
44.184	13.545	1378.348	1041.889
45.199	13.537	1377.903	1041.416
46.213	13.649	1377.089	1041.409
47.228	13.612	1375.992	1040.252
48.242	13.643	1375.050	1039.648
49.257	13.673	1373.639	1038.677
50.271	13.642	1372.371	1037.430
51.286	13.611	1370.874	1036.016
52.301	13.577	1369.744	1034.853
53.315	13.637	1368.551	1034.239
54.330	13.633	1367.860	1033.598
55.344	13.524	1366.644	1031.906
56.359	13.590	1365.717	1031.526
57.374	13.583	1364.335	1030.352
58.388	13.571	1363.327	1029.423
59.403	13.561	1363.161	1029.144
60.417	13.592	1361.862	1028.263
61.432	13.560	1361.254	1027.519
62.447	13.494	1360.685	1026.586
63.461	13.445	1359.563	1025.347
64.476	13.451	1358.233	1024.287
65.490	13.544	1356.600	1023.539
66.505	13.537	1355.553	1022.617
67.520	13.492	1354.048	1021.116
68.534	13.606	1353.094	1021.007
69.549	13.533	1351.855	1019.530
70.563	13.549	1351.051	1018.936
71.578	13.476	1349.628	1017.324
72.593	13.475	1348.796	1016.600
73.607	13.436	1347.909	1015.599
74.622	13.464	1347.333	1015.248
75.636	13.439	1346.795	1014.601
76.651	13.453	1345.895	1013.919
77.666	13.430	1345.230	1013.190
78.680	13.459	1344.976	1013.084
79.695	13.621	1343.213	1012.656
80.709	13.503	1342.927	1011.633
81.724	13.534	1341.970	1011.006
82.739	13.526	1341.136	1010.243
83.753	13.479	1340.498	1009.388
84.768	13.511	1339.247	1008.547
85.782	13.552	1337.960	1007.743
86.797	13.554	1336.758	1006.759
87.812	13.553	1335.299	1005.567
88.826	13.596	1333.696	1004.526
89.841	13.576	1332.697	1003.567
90.855	13.625	1332.015	1003.263
91.870	13.739	1330.915	1003.033
92.884	13.614	1330.256	1001.689
93.899	13.730	1329.421	1001.677
94.914	13.771	1328.364	1001.037
95.928	13.733	1327.708	1000.226
96.943	13.650	1327.053	999.145
97.957	13.744	1325.964	998.801
98.972	13.713	1324.664	997.547
99.987	13.715	1324.077	997.026
101.001	13.633	1322.877	995.542
102.016	13.638	1321.304	994.301
103.030	13.669	1321.133	994.272
104.045	13.776	1320.019	993.989
105.060	13.695	1318.697	992.415
106.074	13.709	1316.951	991.098
107.089	13.610	1316.137	989.810
108.103	13.530	1315.173	988.520
109.118	13.525	1313.440	987.096
110.133	13.646	1312.013	986.658
111.147	13.658	1310.627	985.598
112.162	13.608	1309.441	984.324
113.176	13.630	1308.844	983.922
114.191	13.639	1307.923	983.194
115.206	13.750	1306.321	982.559
116.220	13.690	1305.048	981.160
117.235	13.655	1304.099	980.152
118.249	13.634	1302.998	979.116
119.264	13.635	1301.657	978.030
120.279	13.649	1300.641	977.261
121.293	13.639	1299.646	976.368
122.308	13.640	1298.366	975.326
123.322	13.501	1297.731	973.942
124.337	13.613	1296.400	973.515
125.352	13.642	1295.170	972.680
126.366	13.548	1294.472	971.514
127.381	13.596	1293.074	970.661
128.395	13.618	1291.825	969.765
129.410	13.609	1290.892	968.931
130.424	13.679	1289.886	968.494
131.439	13.750	1288.429	967.732
132.454	13.640	1288.012	966.689
133.468	13.599	1286.963	965.577
134.483	13.589	1286.283	964.924
135.497	13.698	1284.696	964.283
136.512	13.657	1283.471	963.041
137.527	13.575	1282.601	961.827
138.541	13.657	1280.542	960.671
139.556	13.673	1279.290	959.738
140.570	13.695	1278.404	959.115
141.585	13.698	1277.018	958.009
142.600	13.774	1275.582	957.288
143.614	13.732	1274.721	956.316
144.629	13.895	1273.484	956.238
145.643	13.681	1272.996	954.556
146.658	13.787	1270.952	953.547
147.673	13.719	1270.266	952.558
148.687	13.709	1269.051	951.506
149.702	13.684	1267.727	950.289
150.716	13.760	1266.180	949.476
151.731	13.787	1264.862	948.558
152.746	13.728	1264.206	947.646
153.760	13.870	1262.557	947.139
154.775	13.984	1261.194	946.682
155.789	13.920	1259.988	945.326
156.804	13.844	1259.293	944.290
157.819	13.836	1258.281	943.405
158.833	14.005	1256.776	943.151
159.848	14.052	1255.588	942.442
160.862	13.882	1255.252	941.143
161.877	13.874	1254.510	940.458
162.892	13.844	1253.055	939.115
163.906	13.806	1252.232	938.197
164.921	14.047	1250.852	938.444
165.935	13.864	1250.474	937.042
166.950	13.958	1249.291	936.603
167.964	13.945	1248.771	936.057
168.979	13.893	1248.183	935.241
169.994	14.025	1246.945	934.974
171.008	13.991	1246.578	934.425
172.023	14.102	1245.439	934.110
173.037	14.126	1244.414	933.397
174.052	14.011	1243.506	931.986
175.067	13.986	1242.701	931.158
176.081	13.995	1241.810	930.462
177.096	13.967	1240.994	929.612
178.110	14.143	1239.359	929.285
179.125	14.051	1239.152	928.538
180.140	14.003	1237.530	926.972
181.154	14.055	1236.405	926.334
182.169	14.100	1234.696	925.225
183.183	14.143	1233.623	924.577
184.198	14.114	1232.227	923.287
185.213	14.219	1231.231	923.042
186.227	14.367	1229.902	922.786
187.242	14.279	1229.356	921.807
188.256	14.297	1227.823	920.674
189.271	14.306	1226.952	919.990
190.286	14.193	1225.745	918.380
191.300	14.080	1225.326	917.358
192.315	14.151	1224.718	917.213
193.329	14.139	1224.221	916.696
194.344	14.093	1223.468	915.799
195.359	14.203	1222.962	915.940
196.373	14.264	1222.340	915.733
197.388	14.184	1221.814	914.817
198.402	14.292	1221.077	914.778
199.417	14.353	1220.751	914.785
200.432	14.441	1219.689	914.395
201.446	14.465	1218.659	913.673
202.461	14.551	1217.288	913.032
203.475	14.511	1216.899	912.443
204.490	14.514	1215.361	911.225
205.504	14.458	1214.094	909.891
206.519	14.579	1213.028	909.669
207.534	14.443	1211.580	907.760
208.548	14.400	1211.234	907.186
209.563	14.395	1210.149	906.270
210.577	14.452	1209.206	905.791
211.592	14.502	1208.349	905.343
212.607	14.511	1207.727	904.842
213.621	14.549	1206.931	904.373
214.636	14.545	1205.797	903.422
215.650	14.587	1204.672	902.726
216.665	14.594	1203.745	901.989
217.680	14.580	1203.281	901.488
218.694	14.594	1202.462	900.867
219.709	14.678	1201.542	900.555
220.723	14.612	1200.645	899.447
221.738	14.603	1200.548	899.246
222.753	14.648	1199.496	898.619
223.767	14.721	1198.631	898.282
224.782	14.776	1198.202	898.176
225.796	14.766	1197.378	897.428
226.811	14.762	1196.767	896.868
227.826	14.696	1195.980	895.848
228.840	14.789	1195.299	895.753
229.855	14.719	1195.110	895.157
230.869	14.792	1193.778	894.472
231.884	14.726	1193.097	893.533
232.899	14.735	1191.943	892.636
233.913	14.670	1191.527	891.899
234.928	14.796	1190.462	891.695
235.942	14.768	1189.627	890.843
236.957	14.733	1189.171	890.234
237.972	14.802	1188.256	889.839
238.986	14.802	1187.628	889.286
240.001	14.784	1187.242	888.826
241.015	14.763	1186.051	887.740
242.030	14.996	1185.129	888.211
243.045	14.919	1184.115	886.967
244.059	14.895	1183.498	886.298
245.074	14.957	1182.815	886.036
246.088	15.006	1181.870	885.510
247.103	14.979	1181.076	884.693
248.117	14.960	1180.175	883.839
249.132	15.101	1179.273	883.828
250.147	15.095	1178.966	883.487
251.161	15.190	1177.777	883.019
252.176	15.174	1177.518	882.663
253.190	15.184	1176.739	882.053
254.205	15.227	1175.904	881.576
255.220	15.241	1175.517	881.281
256.234	15.294	1174.411	880.653
257.249	15.273	1174.303	880.384
258.263	15.335	1173.313	879.890
259.278	15.300	1172.896	879.313
260.293	15.297	1172.229	878.723
261.307	15.422	1171.626	878.846
262.322	15.408	1170.869	878.125
263.336	15.270	1170.573	877.105
264.351	15.384	1169.603	876.899
265.366	15.390	1169.052	876.436
266.380	15.430	1168.426	876.103
267.395	15.516	1167.233	875.575
268.409	15.473	1166.437	874.676
269.424	15.539	1165.895	874.539
270.439	15.516	1164.983	873.656
271.453	15.538	1164.627	873.427
272.468	15.406	1163.612	871.903
273.482	15.451	1162.971	871.580
274.497	15.550	1162.319	871.527
275.512	15.453	1161.625	870.426
276.526	15.596	1160.671	870.374
277.541	15.576	1160.127	869.786
278.555	15.608	1159.266	869.232
279.570	15.594	1158.616	868.594
280.585	15.662	1158.229	868.577
281.599	15.647	1157.190	867.644
282.614	15.596	1155.961	866.384
283.628	15.566	1155.224	865.601
284.643	15.550	1154.162	864.644
285.657	15.722	1153.336	864.834
286.672	15.725	1151.833	863.643
287.687	15.774	1151.305	863.427
288.701	15.700	1150.867	862.641
289.716	15.807	1149.371	861.993
290.730	15.824	1149.112	861.806
291.745	15.767	1148.713	861.140
292.760	15.856	1147.692	860.753
293.774	15.701	1148.021	860.133
294.789	15.831	1147.201	860.107
295.803	15.750	1146.473	859.069
296.818	15.811	1145.723	858.743
297.833	15.972	1144.099	858.271
298.847	15.829	1143.484	857.004
299.862	15.877	1142.939	856.764
300.876	15.957	1141.913	856.328
301.891	15.943	1141.596	855.944
302.906	15.938	1140.872	855.298
303.920	16.047	1139.962	855.092
304.935	16.030	1139.655	854.703
305.949	15.993	1139.049	853.982
306.964	16.124	1138.366	854.057
307.979	16.077	1137.077	852.776
308.993	16.060	1136.596	852.257
310.008	16.043	1135.857	851.542
311.022	16.163	1134.818	851.293
312.037	16.120	1134.370	850.663
313.052	16.086	1133.162	849.514
314.066	16.047	1132.585	848.806
315.081	16.101	1131.405	848.122
316.095	16.116	1130.708	847.599
317.110	16.178	1130.206	847.456
318.125	16.245	1129.028	846.834
319.139	16.098	1128.691	845.771
320.154	16.186	1128.086	845.684
321.168	16.272	1127.200	845.374
322.183	16.221	1126.362	844.418
323.197	16.169	1126.313	844.045
324.212	16.198	1125.813	843.742
325.227	16.177	1124.921	842.893
326.241	16.282	1123.967	842.629
327.256	16.219	1123.223	841.681
328.270	16.340	1122.033	841.316
329.285	16.285	1121.473	840.549
330.300	16.294	1120.598	839.866
331.314	16.254	1119.690	838.912
332.329	16.248	1118.791	838.131
333.343	16.225	1117.722	837.142
334.358	16.290	1117.288	837.065
335.373	16.399	1116.074	836.624
336.387	16.428	1115.421	836.204
337.402	16.450	1114.938	835.875
338.416	16.439	1114.102	835.122
339.431	16.376	1113.581	834.346
340.446	16.476	1112.836	834.205
341.460	16.567	1112.060	834.000
342.475	16.533	1111.022	832.980
343.489	16.493	1110.113	832.031
344.504	16.551	1109.522	831.795
345.519	16.528	1108.661	830.964
346.533	16.600	1107.820	830.613
347.548	16.645	1107.402	830.449
348.562	16.644	1106.505	829.698
349.577	16.709	1105.453	829.154
350.592	16.585	1105.137	828.237
351.606	16.611	1104.085	827.503
352.621	16.593	1103.819	827.141
353.635	16.509	1103.120	826.133
354.650	16.784	1102.066	826.614
355.665	16.662	1101.571	825.575
356.679	16.654	1100.630	824.755
357.694	16.674	1100.257	824.499
358.708	16.743	1099.423	824.138
359.723	16.830	1098.348	823.685
360.738	16.753	1098.116	823.063
361.752	16.742	1097.407	822.405
362.767	16.756	1096.851	821.984
363.781	16.846	1096.081	821.772
364.796	16.844	1096.000	821.629
365.810	16.881	1095.072	821.037
366.825	16.861	1094.965	820.787
367.840	17.014	1094.120	820.821
368.854	16.935	1093.698	820.051
369.869	16.949	1092.983	819.511
370.883	16.855	1092.047	818.281
371.898	17.034	1091.099	818.363
372.913	17.071	1090.676	818.152
373.927	17.061	1089.956	817.490
374.942	17.131	1089.374	817.316
375.956	17.008	1088.871	816.278
376.971	17.259	1088.248	816.942
377.986	17.154	1087.825	816.052
379.000	17.083	1087.468	815.371
380.015	17.098	1086.479	814.626
381.029	17.112	1086.231	814.438
382.044	17.142	1085.511	813.966
383.059	17.323	1084.295	813.850
384.073	17.141	1083.986	812.674
385.088	17.351	1082.671	812.620
386.102	17.306	1081.596	811.527
387.117	17.224	1081.004	810.622
388.132	17.167	1080.199	809.671
389.146	17.342	1079.264	809.732
390.161	17.222	1078.398	808.440
391.175	17.243	1077.799	808.022
392.190	17.381	1077.066	808.057
393.205	17.437	1076.179	807.586
394.219	17.293	1075.797	806.544
395.234	17.329	1074.666	805.793
396.248	17.400	1073.488	805.178
397.263	17.279	1072.222	803.581
398.278	17.253	1071.963	803.195
399.292	17.388	1071.000	803.042
400.307	17.432	1070.453	802.768
401.321	17.388	1069.914	802.086
402.336	17.367	1069.085	801.290
403.350	17.471	1068.314	801.135
404.365	17.422	1068.255	800.787
405.380	17.309	1067.073	799.298
406.394	17.612	1065.926	799.791
407.409	17.431	1065.723	798.721
408.423	17.550	1065.018	798.679
409.438	17.592	1063.935	797.995
410.453	17.671	1063.370	797.870
411.467	17.671	1062.669	797.272
412.482	17.553	1061.882	796.059
413.496	17.621	1061.157	795.761
414.511	17.623	1060.795	795.432
415.526	17.751	1060.276	795.569
416.540	17.720	1060.041	795.175
417.555	17.696	1059.582	794.648
418.569	17.686	1058.891	794.013
419.584	17.746	1058.457	793.899
420.599	17.795	1058.048	793.752
421.613	104.829	1325.619	1472.700
422.628	96.712	1364.565	1472.783
