DTS Sentinel unit serial number:	SN413079Multiplexer serial number:	ORYXHardware model number:	OX4-SRSoftware version number:	ORYX F/W v4.00 Oryx Data Collector v3.7.2.0data status	okinstallation	princeton_trtdifferential loss correction	single-endedforward channel	channel 2reverse channel	N/Adate	2019/09/19time	14:51:35forward acquisition time	60.00reverse acquisition time	0.00gamma	496.2192k internal	0.2322k external	0.2322temperature offset calibration	1.0021default loss term (dB/km)	0.3790temperature slope calibration	1.0000multiplexer offset coefficient	1.0000multiplexer slope coefficient	1.0000fibre end	0.00T internal ref (°C)	32.87T ext. ref 1 (°C)	1.10T ext. ref 2 (°C)	29.83length (m)	temperature (°C)	Stokes	anti-Stokes-747.200	483.010	0.180	0.414
-746.185	-200.000	0.018	-0.171
-745.171	-57.444	0.246	-0.109
-744.156	122.858	-0.144	0.182
-743.142	800.000	-0.104	-0.336
-742.127	800.000	-0.150	-0.500
-741.112	81.252	0.200	-0.219
-740.098	-167.501	-0.122	-0.005
-739.083	-200.000	-0.024	0.264
-738.069	54.081	-0.218	-0.212
-737.054	277.053	0.227	-0.407
-736.039	249.322	-0.131	-0.224
-735.025	-200.000	-0.054	-0.317
-734.010	413.086	-0.187	-0.402
-732.996	-82.250	-0.050	-0.017
-731.981	573.553	0.060	0.149
-730.966	244.988	-0.183	-0.311
-729.952	49.478	-0.131	-0.125
-728.937	-97.927	-0.164	-0.043
-727.923	-200.000	-0.003	0.077
-726.908	-106.329	-0.165	0.037
-725.894	-163.151	-0.207	0.010
-724.879	-109.550	0.423	-0.090
-723.864	-92.544	0.151	-0.043
-722.850	-55.940	-0.233	0.105
-721.835	800.000	0.110	-0.309
-720.821	-200.000	0.021	0.547
-719.806	-91.494	-0.445	-0.128
-718.791	197.427	-0.225	-0.346
-717.777	-200.000	-0.022	-0.305
-716.762	-200.000	-0.020	-0.426
-715.748	283.680	-0.075	0.137
-714.733	-153.679	0.149	0.010
-713.718	800.000	-0.102	-0.361
-712.704	-78.503	-0.149	-0.051
-711.689	122.925	0.153	-0.193
-710.675	800.000	-0.069	-0.245
-709.660	-200.000	-0.001	0.027
-708.645	-200.000	-0.029	0.148
-707.631	800.000	-0.056	0.209
-706.616	-132.956	0.429	0.055
-705.602	800.000	0.027	-0.111
-704.587	-8.641	-0.190	0.128
-703.572	8.666	0.172	0.131
-702.558	-32.662	0.100	-0.056
-701.543	363.674	-0.193	-0.392
-700.529	243.813	0.021	0.036
-699.514	-43.146	0.215	-0.110
-698.499	-83.004	-0.368	-0.120
-697.485	64.894	-0.082	-0.084
-696.470	-53.230	-0.352	-0.163
-695.456	120.605	-0.099	-0.124
-694.441	-200.000	-0.001	0.214
-693.426	-200.000	0.058	-0.305
-692.412	354.892	0.167	-0.334
-691.397	-1.823	-0.384	-0.273
-690.383	84.757	-0.136	0.150
-689.368	207.800	-0.091	0.143
-688.354	-120.523	-0.184	0.031
-687.339	800.000	-0.039	-0.115
-686.324	-101.626	-0.246	0.060
-685.310	125.737	-0.131	0.166
-684.295	199.544	-0.161	0.248
-683.281	-200.000	-0.011	0.412
-682.266	293.418	-0.072	0.132
-681.251	18.166	-0.151	-0.122
-680.237	398.019	-0.060	-0.127
-679.222	-200.000	0.016	-0.075
-678.208	126.849	-0.026	0.033
-677.193	28.565	-0.378	0.322
-676.178	-200.000	0.015	-0.335
-675.164	565.601	0.117	-0.287
-674.149	-88.089	0.198	-0.060
-673.135	-63.090	-0.406	0.169
-672.120	-67.472	0.390	0.154
-671.105	219.355	-0.167	-0.269
-670.091	800.000	-0.061	-0.251
-669.076	800.000	-0.105	-0.339
-668.062	-28.947	-0.323	-0.187
-667.047	-169.355	-0.452	0.017
-666.032	184.043	0.186	-0.278
-665.018	-15.002	-0.211	0.136
-664.003	-16.650	0.108	-0.069
-662.989	-184.957	0.110	0.002
-661.974	-31.890	-0.156	-0.088
-660.959	-200.000	-0.021	-0.116
-659.945	114.294	-0.208	0.255
-658.930	216.347	-0.141	-0.226
-657.916	-94.238	-0.342	-0.094
-656.901	-2.940	0.242	0.170
-655.886	399.061	-0.100	0.212
-654.872	-75.508	-0.080	-0.029
-653.857	29.710	-0.242	-0.207
-652.843	167.248	-0.147	-0.209
-651.828	137.864	-0.062	0.081
-650.814	252.126	0.170	-0.291
-649.799	-141.288	0.139	0.014
-648.784	-121.424	-0.520	0.087
-647.770	-71.428	-0.176	-0.066
-646.755	442.968	0.215	0.475
-645.741	36.357	0.060	-0.053
-644.726	-103.326	0.135	-0.032
-643.711	-200.000	-0.012	0.205
-642.697	278.265	0.119	0.213
-641.682	-200.000	-0.003	-0.105
-640.668	121.299	-0.215	-0.269
-639.653	-102.332	0.154	0.037
-638.638	-69.260	-0.174	-0.067
-637.624	-200.000	-0.039	-0.223
-636.609	32.918	0.253	-0.221
-635.595	443.147	-0.149	-0.329
-634.580	58.398	-0.112	-0.110
-633.565	40.631	-0.011	-0.010
-632.551	694.113	-0.131	-0.345
-631.536	-72.806	-0.093	-0.034
-630.522	13.789	-0.056	-0.044
-629.507	800.000	0.054	-0.176
-628.492	800.000	-0.053	-0.155
-627.478	800.000	-0.026	-0.100
-626.463	-74.957	-0.295	0.106
-625.449	-50.549	-0.456	-0.216
-624.434	-172.974	-0.094	0.003
-623.419	-200.000	0.053	0.238
-622.405	-16.334	-0.063	0.040
-621.390	-200.000	0.089	-0.456
-620.376	-144.715	0.056	0.005
-619.361	800.000	-0.016	-0.064
-618.346	-91.553	-0.553	-0.158
-617.332	124.053	-0.041	-0.051
-616.317	-200.000	-0.017	-0.279
-615.303	800.000	-0.045	0.166
-614.288	80.320	0.193	-0.209
-613.273	-11.785	-0.075	-0.050
-612.259	-123.397	0.240	-0.038
-611.244	-98.627	-0.205	-0.053
-610.230	451.510	-0.114	-0.252
-609.215	-200.000	0.049	0.397
-608.201	375.824	-0.102	0.210
-607.186	-111.288	-0.157	0.032
-606.171	-84.315	-0.269	0.085
-605.157	90.049	0.283	0.318
-604.142	-74.072	-0.059	-0.021
-603.128	97.517	-0.048	0.055
-602.113	-57.884	-0.293	0.129
-601.098	250.970	-0.104	0.177
-600.084	8.643	-0.008	0.006
-599.069	-120.169	-0.159	0.027
-598.055	77.521	-0.069	-0.074
-597.040	800.000	-0.065	-0.242
-596.025	570.137	0.107	-0.262
-595.011	58.963	-0.344	0.340
-593.996	-66.450	0.024	0.010
-592.982	486.995	0.134	-0.307
-591.967	800.000	-0.056	-0.185
-590.952	-200.000	0.004	-0.146
-589.938	346.643	0.082	-0.163
-588.923	-95.255	0.407	-0.110
-587.909	231.804	0.028	-0.047
-586.894	800.000	0.101	-0.309
-585.879	-37.718	0.199	0.106
-584.865	96.823	0.120	-0.138
-583.850	-49.236	0.267	-0.128
-582.836	-30.330	0.449	-0.256
-581.821	37.757	0.278	0.248
-580.806	800.000	0.062	-0.178
-579.792	-200.000	-0.021	-0.095
-578.777	-132.639	0.349	0.045
-577.763	75.000	0.177	-0.187
-576.748	75.249	0.234	-0.248
-575.733	-200.000	0.051	0.261
-574.719	237.315	0.125	-0.208
-573.704	-200.000	0.005	0.059
-572.690	-145.797	0.211	-0.019
-571.675	-104.654	-0.415	0.096
-570.661	118.464	0.106	0.131
-569.646	453.300	-0.133	0.296
-568.631	-135.564	-0.209	0.025
-567.617	-200.000	0.012	0.121
-566.602	800.000	0.076	0.271
-565.588	59.019	-0.124	-0.122
-564.573	-200.000	0.005	0.064
-563.558	142.503	-0.126	-0.168
-562.544	56.243	0.085	-0.083
-561.529	317.208	-0.030	0.056
-560.515	149.136	0.447	0.607
-559.500	-149.400	-0.189	-0.015
-558.485	-200.000	0.013	0.201
-557.471	-200.000	0.004	-0.129
-556.456	153.735	0.183	-0.251
-555.442	-57.442	0.158	-0.070
-554.427	206.195	-0.126	0.197
-553.412	-132.368	0.097	-0.013
-552.398	772.099	-0.045	-0.123
-551.383	-200.000	-0.007	0.047
-550.369	129.391	-0.159	-0.203
-549.354	-200.000	0.024	-0.145
-548.339	-200.000	-0.021	0.191
-547.325	52.863	-0.245	-0.235
-546.310	-41.697	-0.158	0.081
-545.296	401.081	0.154	0.324
-544.281	800.000	0.027	-0.079
-543.266	279.490	-0.065	0.116
-542.252	-40.237	-0.098	0.051
-541.237	-5.953	-0.222	-0.152
-540.223	-62.709	0.092	0.038
-539.208	455.348	-0.056	0.124
-538.193	-200.000	0.030	0.307
-537.179	-138.583	-0.270	0.030
-536.164	-77.257	-0.243	0.085
-535.150	-144.196	-0.439	0.041
-534.135	800.000	-0.073	-0.217
-533.121	-200.000	0.003	0.085
-532.106	800.000	0.064	-0.189
-531.091	800.000	0.052	0.202
-530.077	-200.000	-0.066	0.366
-529.062	-200.000	-0.042	0.193
-528.048	-105.174	0.164	0.038
-527.033	-81.082	-0.205	0.068
-526.018	-179.143	0.141	-0.003
-525.004	618.342	-0.060	-0.151
-523.989	36.835	0.084	0.075
-522.975	800.000	-0.062	-0.237
-521.960	462.758	0.050	0.111
-520.945	-200.000	0.010	0.052
-519.931	12.757	-0.173	0.134
-518.916	-200.000	0.008	0.373
-517.902	438.067	-0.076	0.167
-516.887	2.983	0.234	0.170
-515.872	84.035	0.107	-0.117
-514.858	-53.136	-0.092	-0.042
-513.843	780.146	-0.126	-0.344
-512.829	-107.426	-0.163	-0.036
-511.814	800.000	-0.039	0.150
-510.799	-200.000	-0.037	-0.232
-509.785	-144.476	0.397	0.037
-508.770	-113.643	0.039	0.008
-507.756	-100.114	0.132	0.033
-506.741	-70.477	0.306	-0.116
-505.726	230.922	0.034	0.055
-504.712	-164.584	0.164	-0.007
-503.697	800.000	0.019	0.072
-502.683	-200.000	0.022	0.180
-501.668	78.669	0.261	-0.279
-500.653	-73.981	0.166	-0.060
-499.639	179.446	0.121	-0.177
-498.624	-41.648	-0.176	0.090
-497.610	565.008	-0.137	0.333
-496.595	4.910	0.321	0.236
-495.581	-50.665	0.076	0.036
-494.566	52.298	-0.131	0.125
-493.551	-91.118	0.221	0.063
-492.537	141.400	0.128	-0.169
-491.522	6.654	0.323	-0.241
-490.508	-72.792	-0.273	-0.100
-489.493	-92.686	0.142	-0.040
-488.478	-200.000	0.033	-0.150
-487.464	-161.958	-0.136	-0.007
-486.449	-200.000	0.068	-0.317
-485.435	-200.000	-0.023	-0.221
-484.420	-152.340	0.171	-0.012
-483.405	-103.559	0.258	0.061
-482.391	-200.000	-0.016	-0.412
-481.376	193.745	-0.345	-0.523
-480.362	36.705	-0.194	0.171
-479.347	94.282	-0.115	-0.131
-478.332	162.409	-0.116	0.163
-477.318	-70.240	0.023	-0.009
-476.303	-200.000	0.025	-0.285
-475.289	-13.747	-0.121	-0.078
-474.274	113.907	-0.104	-0.126
-473.259	-126.713	-0.295	0.044
-472.245	-5.074	-0.116	0.080
-471.230	800.000	-0.039	0.169
-470.216	-140.723	0.084	0.009
-469.201	143.910	-0.271	0.361
-468.186	-191.362	-0.143	0.001
-467.172	-200.000	-0.010	0.043
-466.157	543.180	-0.186	-0.445
-465.143	-6.788	-0.218	0.148
-464.128	800.000	-0.029	0.091
-463.113	-132.930	-0.352	0.045
-462.099	-40.818	0.106	-0.055
-461.084	-5.384	-0.140	0.096
-460.070	204.907	0.116	0.180
-459.055	-200.000	-0.000	0.032
-458.040	312.991	0.098	0.184
-457.026	-137.582	0.147	0.017
-456.011	-200.000	-0.030	-0.168
-454.997	-200.000	0.012	0.590
-453.982	-163.326	-0.214	0.010
-452.968	-200.000	0.003	0.247
-451.953	800.000	0.097	0.423
-450.938	427.054	-0.080	-0.172
-449.924	-86.633	0.043	0.013
-448.909	30.903	0.024	0.020
-447.895	800.000	0.044	0.168
-446.880	-70.981	-0.146	0.055
-445.865	236.383	-0.179	-0.296
-444.851	62.669	0.186	0.185
-443.836	-96.813	0.545	0.143
-442.822	-112.539	-0.110	-0.022
-441.807	-76.578	-0.191	0.067
-440.792	-187.926	0.094	-0.001
-439.778	8.091	0.075	0.056
-438.763	-135.665	0.266	-0.031
-437.749	-130.469	-0.181	-0.024
-436.734	-35.550	-0.569	0.308
-435.719	395.388	0.132	0.275
-434.705	-200.000	-0.006	0.089
-433.690	-200.000	0.007	-0.072
-432.676	210.065	-0.214	0.335
-431.661	-38.006	-0.129	0.069
-430.646	-200.000	-0.153	0.000
-429.632	-200.000	-0.014	0.095
-428.617	-132.113	0.122	0.016
-427.603	-70.787	0.254	0.096
-426.588	-200.000	-0.007	-0.199
-425.573	-166.996	0.077	-0.003
-424.559	-59.486	-0.275	0.118
-423.544	49.051	0.243	0.228
-422.530	-127.868	-0.223	-0.032
-421.515	-40.111	0.246	-0.128
-420.500	-110.439	-0.113	-0.023
-419.486	-86.835	-0.091	-0.028
-418.471	-65.614	-0.235	-0.094
-417.457	-39.084	-0.200	0.105
-416.442	800.000	-0.039	-0.146
-415.428	-85.249	0.463	0.144
-414.413	18.833	0.228	-0.182
-413.398	171.606	0.108	0.154
-412.384	800.000	0.089	0.287
-411.369	-64.187	0.328	-0.133
-410.355	42.313	-0.084	0.077
-409.340	-200.000	0.027	0.216
-408.325	-35.278	-0.168	-0.091
-407.311	-13.100	-0.066	-0.043
-406.296	23.639	-0.092	0.076
-405.282	474.196	0.115	-0.260
-404.267	-81.886	-0.040	0.013
-403.252	-128.368	-0.157	-0.022
-402.238	241.087	-0.080	-0.134
-401.223	217.022	-0.073	0.116
-400.209	800.000	0.056	-0.202
-399.194	-200.000	0.010	-0.297
-398.179	-200.000	-0.060	-0.376
-397.165	465.273	0.140	-0.311
-396.150	-11.320	-0.343	0.225
-395.136	303.272	0.030	0.055
-394.121	-101.189	0.152	0.037
-393.106	-45.528	-0.297	-0.147
-392.092	-31.929	-0.133	0.074
-391.077	-10.541	0.192	0.127
-390.063	-195.558	-0.248	-0.002
-389.048	118.952	0.093	-0.114
-388.033	-174.402	0.110	-0.003
-387.019	299.611	-0.116	-0.212
-386.004	-200.000	-0.026	-0.259
-384.990	-200.000	-0.065	-0.357
-383.975	-200.000	0.001	-0.168
-382.960	-10.307	0.268	-0.177
-381.946	-84.209	-0.086	0.027
-380.931	203.222	0.148	0.229
-379.917	-144.876	-0.242	0.022
-378.902	164.356	0.066	-0.093
-377.888	716.342	0.059	-0.156
-376.873	705.356	0.088	-0.231
-375.858	6.603	0.262	0.194
-374.844	0.956	-0.207	-0.148
-373.829	-200.000	-0.006	0.053
-372.815	276.638	-0.118	-0.210
-371.800	391.743	0.053	-0.110
-370.785	-200.000	-0.008	0.065
-369.771	-150.151	-0.176	0.014
-368.756	15.922	0.092	-0.072
-367.742	107.241	0.135	-0.160
-366.727	-63.634	-0.139	0.057
-365.712	117.751	-0.339	0.415
-364.698	-64.950	0.208	0.084
-363.683	-67.714	0.062	0.024
-362.669	-71.166	-0.294	-0.110
-361.654	339.527	-0.093	0.180
-360.639	-52.934	0.195	-0.090
-359.625	-63.232	-0.046	-0.019
-358.610	-140.940	0.052	0.005
-357.596	24.153	0.167	-0.137
-356.581	-200.000	-0.007	0.489
-355.566	-200.000	-0.030	0.223
-354.552	-35.836	-0.250	-0.135
-353.537	-36.604	-0.287	0.153
-352.523	-200.000	0.031	0.206
-351.508	-29.420	-0.103	-0.059
-350.493	393.512	-0.071	-0.147
-349.479	-66.754	-0.340	0.134
-348.464	298.563	0.053	0.097
-347.450	800.000	0.077	-0.241
-346.435	800.000	-0.012	0.049
-345.420	-51.668	0.124	-0.057
-344.406	800.000	0.074	0.234
-343.391	-200.000	0.016	-0.179
-342.377	800.000	-0.071	-0.307
-341.362	501.977	-0.143	-0.329
-340.348	-130.710	0.185	0.025
-339.333	800.000	-0.103	-0.314
-338.318	-70.529	-0.129	0.048
-337.304	-94.216	0.342	0.093
-336.289	4.099	0.445	-0.324
-335.275	313.124	0.154	-0.289
-334.260	-171.299	0.159	0.005
-333.245	800.000	0.038	0.142
-332.231	25.136	-0.223	-0.184
-331.216	-138.743	-0.064	0.007
-330.202	733.704	-0.109	-0.289
-329.187	85.320	-0.255	0.279
-328.172	344.250	-0.138	0.268
-327.158	10.987	-0.122	-0.093
-326.143	594.036	-0.189	0.464
-325.129	19.047	-0.092	0.074
-324.114	106.366	0.191	0.225
-323.099	-49.750	0.377	0.178
-322.085	-64.155	-0.030	0.012
-321.070	-12.175	-0.148	0.096
-320.056	619.382	-0.088	-0.219
-319.041	-69.300	0.108	-0.041
-318.026	-94.276	-0.417	0.113
-317.012	-200.000	-0.033	-0.162
-315.997	-200.000	-0.004	0.252
-314.983	-78.343	0.089	0.030
-313.968	308.759	0.212	0.394
-312.953	-190.609	-0.164	0.002
-311.939	41.543	-0.242	-0.217
-310.924	-101.285	0.153	0.037
-309.910	-142.171	0.159	0.016
-308.895	800.000	-0.058	-0.212
-307.880	203.912	-0.082	-0.126
-306.866	-200.000	-0.076	-0.559
-305.851	25.489	-0.131	0.108
-304.837	32.800	-0.251	0.215
-303.822	-200.000	0.055	-0.241
-302.807	120.302	0.119	-0.147
-301.793	800.000	-0.023	0.091
-300.778	-200.000	0.047	-0.245
-299.764	-200.000	0.003	-0.042
-298.749	-114.381	0.053	0.010
-297.735	800.000	0.065	0.245
-296.720	-104.826	-0.056	0.013
-295.705	73.793	0.034	-0.036
-294.691	792.883	-0.044	-0.119
-293.676	800.000	-0.072	-0.245
-292.662	-125.760	0.390	0.059
-291.647	297.969	0.050	0.091
-290.632	47.436	-0.139	0.129
-289.618	204.664	-0.051	0.078
-288.603	800.000	-0.073	0.216
-287.589	-42.084	0.149	-0.076
-286.574	800.000	0.064	0.269
-285.559	-108.089	-0.086	-0.019
-284.545	800.000	0.079	0.222
-283.530	135.054	-0.079	-0.101
-282.516	-41.068	-0.277	0.142
-281.501	188.956	0.189	0.281
-280.486	800.000	0.101	0.310
-279.472	-108.403	-0.052	-0.011
-278.457	-200.000	0.015	0.392
-277.443	-200.000	-0.035	0.336
-276.428	-200.000	0.017	-0.173
-275.413	800.000	-0.103	-0.284
-274.399	-131.958	0.246	-0.032
-273.384	-187.355	-0.075	0.001
-272.370	-158.308	0.126	-0.007
-271.355	566.660	0.130	0.314
-270.340	-36.218	-0.153	0.082
-269.326	-70.691	0.120	-0.045
-268.311	216.202	0.189	-0.297
-267.297	95.137	0.173	0.196
-266.282	-145.102	0.084	-0.008
-265.267	800.000	0.044	0.190
-264.253	800.000	0.066	0.183
-263.238	-133.979	-0.079	0.010
-262.224	56.483	0.168	-0.162
-261.209	772.619	0.072	0.195
-260.195	800.000	0.023	0.068
-259.180	-200.000	0.017	-0.123
-258.165	47.577	-0.153	-0.142
-257.151	516.231	-0.105	0.244
-256.136	-122.249	-0.195	0.032
-255.122	-168.767	-0.397	-0.015
-254.107	-200.000	-0.040	0.348
-253.092	-200.000	0.012	-0.137
-252.078	-200.000	0.022	-0.207
-251.063	-116.759	-0.118	-0.021
-250.049	-200.000	-0.007	-0.127
-249.034	383.354	0.027	0.055
-248.019	-115.465	0.293	-0.055
-247.005	-124.164	0.253	0.039
-245.990	-56.326	0.147	0.065
-244.976	-126.410	-0.136	0.020
-243.961	75.781	0.097	0.102
-242.946	-200.000	-0.084	-0.415
-241.932	278.239	-0.101	0.178
-240.917	-87.161	-0.310	-0.093
-239.903	-154.953	-0.069	-0.004
-238.888	-33.621	0.261	0.143
-237.873	37.498	0.326	0.287
-236.859	476.819	-0.023	0.052
-235.844	46.314	-0.116	-0.106
-234.830	64.034	0.116	0.116
-233.815	-200.000	0.050	-0.248
-232.800	-10.578	-0.299	-0.196
-231.786	95.816	-0.254	-0.287
-230.771	322.958	0.138	0.261
-229.757	22.393	0.118	-0.096
-228.742	-200.000	-0.008	-0.069
-227.727	-49.956	0.099	-0.046
-226.713	-86.845	0.329	-0.100
-225.698	-39.047	-0.133	-0.069
-224.684	-146.355	0.159	0.014
-223.669	637.718	-0.152	0.381
-222.655	-58.897	0.160	-0.068
-221.640	-107.321	0.098	0.021
-220.625	-200.000	-0.032	-0.158
-219.611	-97.931	0.310	0.079
-218.596	-200.000	0.005	-0.069
-217.582	-80.137	0.094	-0.031
-216.567	-140.563	0.328	-0.034
-215.552	-64.076	0.099	0.040
-214.538	-19.349	0.178	0.109
-213.523	-66.061	0.212	-0.084
-212.509	94.258	-0.152	-0.170
-211.494	800.000	0.046	-0.197
-210.479	-45.212	0.187	-0.092
-209.465	-105.319	0.234	-0.053
-208.450	-21.667	-0.115	0.069
-207.436	245.479	0.127	0.212
-206.421	163.395	-0.163	-0.227
-205.406	-96.474	0.047	0.012
-204.392	-133.024	-0.055	-0.007
-203.377	229.534	-0.035	-0.057
-202.363	309.299	0.124	-0.229
-201.348	302.883	0.078	-0.143
-200.333	16.334	0.155	0.121
-199.319	212.055	0.106	-0.166
-198.304	-61.016	0.306	0.128
-197.290	-200.000	0.001	-0.082
-196.275	-153.822	0.231	-0.016
-195.260	-200.000	-0.041	0.276
-194.246	-170.215	0.267	0.009
-193.231	78.328	0.146	0.154
-192.217	-200.000	0.036	-0.242
-191.202	-62.070	-0.361	-0.149
-190.187	-200.000	-0.023	0.230
-189.173	-200.000	-0.035	0.245
-188.158	800.000	0.093	0.305
-187.144	-200.000	0.010	0.148
-186.129	800.000	-0.113	0.333
-185.114	691.066	-0.070	-0.181
-184.100	-200.000	-0.042	-0.216
-183.085	-200.000	0.015	-0.133
-182.071	-92.862	0.070	0.019
-181.056	-180.936	0.155	0.003
-180.042	39.420	-0.129	0.114
-179.027	800.000	-0.046	-0.199
-178.012	-46.926	-0.233	0.112
-176.998	607.864	-0.094	0.231
-175.983	-200.000	-0.008	-0.068
-174.969	644.271	-0.032	0.082
-173.954	800.000	0.096	0.325
-172.939	-122.680	-0.209	0.034
-171.925	227.852	-0.064	-0.103
-170.910	-200.000	-0.012	-0.163
-169.896	-200.000	0.016	0.454
-168.881	-200.000	0.012	-0.150
-167.866	170.562	-0.135	-0.190
-166.852	-2.296	0.121	-0.084
-165.837	800.000	0.058	-0.164
-164.823	677.455	0.058	0.150
-163.808	-150.602	0.059	-0.004
-162.793	-72.561	0.466	0.170
-161.779	-200.000	0.270	-0.000
-160.764	-200.000	-0.003	-0.038
-159.750	-106.408	0.236	-0.052
-158.735	-34.917	-0.182	-0.098
-157.720	129.679	-0.018	0.023
-156.706	455.362	-0.048	-0.105
-155.691	-119.868	0.336	0.057
-154.677	-200.000	0.013	-0.256
-153.662	-161.733	-0.240	-0.012
-152.647	-2.892	0.015	-0.010
-151.633	-51.892	-0.189	0.087
-150.618	-90.448	0.220	-0.063
-149.604	-141.291	-0.167	-0.017
-148.589	-117.685	0.171	-0.030
-147.574	-170.350	-0.282	0.010
-146.560	-171.777	-0.487	-0.016
-145.545	-72.386	-0.110	0.040
-144.531	238.676	0.148	-0.243
-143.516	538.648	-0.133	-0.312
-142.502	-62.559	0.229	0.094
-141.487	-170.655	-0.138	0.005
-140.472	-25.038	0.249	-0.146
-139.458	-200.000	0.016	-0.155
-138.443	-119.577	0.079	-0.014
-137.429	-86.757	0.287	0.087
-136.414	-200.000	-0.030	-0.159
-135.399	800.000	-0.078	0.223
-134.385	1.166	0.317	0.224
-133.370	-122.448	-0.214	0.034
-132.356	217.420	0.092	-0.144
-131.341	-200.000	-0.065	0.307
-130.326	19.270	0.160	-0.127
-129.312	-41.389	-0.294	0.149
-128.297	-28.472	0.122	0.069
-127.283	800.000	-0.089	-0.331
-126.268	-80.492	-0.229	0.075
-125.253	-200.000	-0.002	-0.070
-124.239	645.223	0.091	-0.229
-123.224	6.955	0.111	0.081
-122.210	-54.468	0.120	0.054
-121.195	3.174	-0.399	-0.286
-120.180	-106.902	0.197	-0.043
-119.166	-167.614	-0.319	-0.013
-118.151	-32.634	0.010	0.006
-117.137	-20.646	-0.063	0.038
-116.122	-200.000	-0.001	0.110
-115.107	175.227	0.089	0.127
-114.093	-14.681	-0.335	0.212
-113.078	201.660	-0.237	0.360
-112.064	-127.114	0.195	-0.028
-111.049	800.000	-0.114	0.366
-110.034	61.763	0.085	-0.084
-109.020	-78.974	-0.113	-0.038
-108.005	-200.000	-0.016	0.238
-106.991	24.112	0.213	-0.173
-105.976	574.845	-0.093	0.223
-104.962	800.000	-0.015	-0.060
-103.947	27.837	0.134	0.111
-102.932	52.655	-0.238	-0.224
-101.918	655.534	-0.046	-0.118
-100.903	45.086	-0.189	0.172
-99.889	-101.911	-0.168	-0.040
-98.874	-200.000	-0.016	0.201
-97.859	-29.683	0.295	-0.166
-96.845	196.376	0.063	-0.095
-95.830	-26.939	-0.080	0.046
-94.816	-95.413	0.095	0.025
-93.801	-200.000	-0.035	-0.293
-92.786	-90.494	0.169	-0.048
-91.772	-200.000	-0.002	0.112
-90.757	129.653	0.163	-0.205
-89.743	-41.181	0.300	0.152
-88.728	134.698	-0.226	0.289
-87.713	-26.459	-0.223	0.129
-86.699	-170.191	0.065	-0.002
-85.684	22.797	-0.171	0.138
-84.670	-58.842	-0.350	0.149
-83.655	317.643	0.020	0.038
-82.640	191.670	-0.160	0.237
-81.626	-173.313	0.277	0.008
-80.611	4.788	-0.153	-0.111
-79.597	201.112	0.103	-0.156
-78.582	32.191	0.126	-0.107
-77.567	52.387	-0.056	-0.053
-76.553	111.800	0.159	-0.189
-75.538	120.456	-0.268	0.328
-74.524	800.000	0.045	0.135
-73.509	6.264	0.074	0.054
-72.494	-21.494	-0.390	0.234
-71.480	234.590	0.102	0.166
-70.465	-92.303	-0.301	0.084
-69.451	-200.000	0.019	0.100
-68.436	-177.414	0.192	-0.005
-67.422	625.552	-0.066	0.163
-66.407	-200.000	-0.047	-0.394
-65.392	86.915	-0.127	-0.138
-64.378	-106.288	0.150	-0.033
-63.363	83.010	-0.199	-0.213
-62.349	718.761	-0.075	0.196
-61.334	47.064	-0.977	-0.895
-60.319	-34.090	0.697	0.377
-59.305	-200.000	-0.214	-1.144
-58.290	220.541	0.675	1.064
-57.276	-200.000	0.389	1.822
-56.261	-200.000	95.760	541.247
-55.246	477.009	1437.013	3195.706
-54.232	145.837	2657.081	3502.876
-53.217	102.971	2347.055	2703.370
-52.203	42.074	1954.991	1745.105
-51.188	36.100	1739.906	1506.528
-50.173	33.316	1695.466	1446.750
-49.159	50.624	1740.417	1619.312
-48.144	52.105	1756.404	1645.566
-47.130	35.709	1717.279	1483.684
-46.115	32.996	1703.106	1450.578
-45.100	32.766	1698.003	1444.414
-44.086	32.849	1695.421	1442.798
-43.071	32.776	1692.818	1439.970
-42.057	32.756	1689.971	1437.336
-41.042	32.782	1688.122	1435.903
-40.027	32.746	1686.263	1433.995
-39.013	32.764	1683.725	1431.916
-37.998	32.815	1682.231	1430.971
-36.984	32.776	1681.506	1430.006
-35.969	32.902	1679.839	1429.485
-34.954	32.948	1678.299	1428.466
-33.940	32.969	1676.161	1426.750
-32.925	32.820	1674.855	1424.454
-31.911	32.837	1673.079	1423.015
-30.896	32.819	1671.247	1421.267
-29.881	32.827	1669.216	1419.542
-28.867	32.859	1667.528	1418.292
-27.852	32.915	1665.837	1417.217
-26.838	32.872	1664.450	1415.660
-25.823	32.887	1663.203	1414.655
-24.809	32.988	1661.517	1413.923
-23.794	32.806	1660.411	1411.560
-22.779	32.847	1658.987	1410.599
-21.765	32.866	1657.237	1409.196
-20.750	32.864	1655.361	1407.533
-19.736	32.877	1654.053	1406.462
-18.721	32.845	1652.723	1405.034
-17.706	32.863	1651.389	1403.979
-16.692	32.866	1649.750	1402.551
-15.677	32.928	1647.677	1401.199
-14.663	32.962	1646.362	1400.277
-13.648	32.862	1645.486	1398.730
-12.633	32.940	1643.455	1397.526
-11.619	32.971	1641.643	1396.162
-10.604	32.932	1640.454	1394.806
-9.590	32.920	1639.078	1393.494
-8.575	32.908	1638.053	1392.479
-7.560	32.924	1636.859	1391.528
-6.546	32.985	1635.319	1390.605
-5.531	32.837	1634.828	1389.049
-4.517	32.816	1633.646	1387.835
-3.502	32.912	1631.750	1386.872
-2.487	32.913	1630.227	1385.531
-1.473	32.927	1618.738	1375.811
-0.458	30.608	1599.192	1342.426
0.556	25.754	1598.260	1305.770
1.571	22.640	1621.264	1301.500
2.586	21.338	1633.726	1301.698
3.600	18.747	1578.275	1238.735
4.615	10.496	1465.226	1094.425
5.629	2.766	1398.014	994.190
6.644	1.234	1389.208	977.967
7.659	1.080	1388.559	976.432
8.673	1.072	1387.063	975.244
9.688	1.015	1385.460	973.662
10.702	0.792	1381.863	969.618
11.717	4.004	1387.717	994.294
12.731	11.708	1399.313	1052.254
13.746	16.670	1405.792	1089.034
14.761	17.451	1406.159	1094.243
15.775	16.883	1404.155	1088.939
16.790	15.804	1401.189	1079.626
17.804	15.036	1398.722	1072.707
18.819	14.792	1397.273	1069.938
19.834	14.452	1395.952	1066.658
20.848	14.183	1395.168	1064.247
21.863	13.933	1393.459	1061.247
22.877	13.756	1392.235	1059.097
23.892	13.655	1391.648	1057.910
24.907	13.641	1390.699	1057.002
25.921	13.734	1389.515	1056.602
26.936	13.750	1388.367	1055.740
27.950	13.764	1387.811	1055.312
28.965	13.778	1386.683	1054.451
29.980	13.873	1385.570	1054.116
30.994	13.814	1384.477	1052.811
32.009	13.878	1383.884	1052.674
33.023	13.862	1382.995	1051.807
34.038	13.844	1381.106	1050.163
35.053	13.870	1380.281	1049.606
36.067	13.849	1379.330	1048.660
37.082	13.878	1378.095	1047.811
38.096	13.873	1377.013	1046.860
39.111	13.820	1376.480	1046.028
40.126	13.714	1375.818	1044.766
41.140	13.740	1374.905	1044.142
42.155	13.756	1373.858	1043.358
43.169	13.586	1374.470	1042.662
44.184	13.585	1374.140	1042.311
45.199	13.731	1373.210	1042.432
46.213	13.718	1372.659	1041.842
47.228	13.791	1371.604	1041.408
48.242	13.857	1370.054	1040.547
49.257	13.836	1369.079	1039.587
50.271	13.840	1367.607	1038.401
51.286	13.820	1366.491	1037.336
52.301	13.864	1364.926	1036.334
53.315	13.823	1363.634	1035.001
54.330	13.819	1362.458	1033.993
55.344	13.687	1361.509	1032.358
56.359	13.726	1360.242	1031.551
57.374	13.725	1359.522	1030.907
58.388	13.675	1358.725	1029.901
59.403	13.633	1358.280	1029.211
60.417	13.638	1357.830	1028.809
61.432	13.744	1356.709	1028.525
62.447	13.667	1355.710	1027.204
63.461	13.624	1354.318	1025.792
64.476	13.572	1353.283	1024.596
65.490	13.631	1352.268	1024.100
66.505	13.566	1350.888	1022.566
67.520	13.593	1349.739	1021.770
68.534	13.607	1348.718	1020.990
69.549	13.569	1347.675	1019.881
70.563	13.605	1346.406	1019.049
71.578	13.599	1345.480	1018.223
72.593	13.613	1344.272	1017.302
73.607	13.612	1343.590	1016.694
74.622	13.470	1342.736	1015.082
75.636	13.555	1341.836	1014.832
76.651	13.565	1340.958	1014.139
77.666	13.508	1341.099	1013.812
78.680	13.578	1340.026	1013.335
79.695	13.699	1338.748	1013.021
80.709	13.588	1338.103	1011.766
81.724	13.675	1337.327	1011.620
82.739	13.594	1336.736	1010.592
83.753	13.752	1335.327	1010.396
84.768	13.743	1334.448	1009.585
85.782	13.781	1333.211	1008.793
86.797	13.766	1331.751	1007.507
87.812	13.628	1330.724	1005.802
88.826	13.638	1329.387	1004.767
89.841	13.773	1328.050	1004.486
90.855	13.760	1327.422	1003.842
91.870	13.743	1326.778	1003.163
92.884	13.794	1325.537	1002.445
93.899	13.833	1324.630	1001.903
94.914	13.898	1323.734	1001.533
95.928	13.857	1322.825	1000.510
96.943	13.852	1322.170	999.891
97.957	13.785	1321.266	998.718
98.972	13.809	1320.204	997.972
99.987	13.895	1318.817	997.348
101.001	13.771	1318.040	995.929
102.016	13.785	1317.501	995.518
103.030	13.897	1316.043	995.002
104.045	13.879	1315.321	994.258
105.060	13.852	1313.857	992.905
106.074	13.661	1313.071	991.078
107.089	13.610	1311.768	989.701
108.103	13.679	1310.428	989.017
109.118	13.706	1308.982	987.998
110.133	13.734	1307.396	986.881
111.147	13.689	1306.228	985.646
112.162	13.685	1305.175	984.740
113.176	13.770	1303.990	984.258
114.191	13.789	1302.596	983.233
115.206	13.833	1301.756	982.774
116.220	13.830	1299.783	981.178
117.235	13.705	1299.478	980.124
118.249	13.758	1298.446	979.575
119.264	13.780	1296.736	978.326
120.279	13.724	1295.900	977.280
121.293	13.576	1295.437	975.968
122.308	13.666	1293.868	975.234
123.322	13.711	1292.977	974.737
124.337	13.696	1292.169	973.957
125.352	13.713	1290.624	972.802
126.366	13.717	1289.318	971.756
127.381	13.866	1288.121	971.639
128.395	13.695	1287.177	969.844
129.410	13.604	1286.723	968.883
130.424	13.717	1285.758	968.732
131.439	13.816	1284.314	968.135
132.454	13.756	1283.366	966.984
133.468	13.756	1282.568	966.300
134.483	13.773	1281.643	965.616
135.497	13.764	1280.616	964.703
136.512	13.815	1278.954	963.661
137.527	13.763	1277.393	962.097
138.541	13.787	1276.168	961.229
139.556	13.796	1274.848	960.205
140.570	13.841	1273.991	959.733
141.585	13.864	1272.659	958.780
142.600	13.886	1271.687	958.089
143.614	13.882	1270.669	957.211
144.629	13.880	1269.710	956.394
145.643	13.977	1268.134	955.679
146.658	13.923	1266.789	954.270
147.673	13.790	1266.031	952.854
148.687	13.799	1265.065	952.095
149.702	13.719	1263.487	950.363
150.716	13.815	1261.747	949.518
151.731	13.810	1260.860	948.739
152.746	13.859	1259.646	948.020
153.760	14.004	1257.986	947.516
154.775	13.881	1257.411	946.296
155.789	13.921	1256.081	945.439
156.804	13.968	1255.274	945.019
157.819	14.013	1254.183	944.368
158.833	14.089	1253.028	943.843
159.848	14.118	1252.104	943.228
160.862	14.025	1251.025	941.807
161.877	13.921	1250.335	940.616
162.892	13.988	1248.780	939.739
163.906	13.979	1248.383	939.306
164.921	14.024	1246.909	938.370
165.935	14.076	1246.469	938.251
166.950	14.158	1245.612	937.985
167.964	14.102	1245.082	937.186
168.979	14.118	1244.117	936.468
169.994	13.963	1244.003	935.425
171.008	14.063	1242.844	935.035
172.023	14.090	1242.187	934.608
173.037	14.172	1241.022	934.112
174.052	14.127	1240.625	933.473
175.067	14.119	1239.136	932.225
176.081	14.101	1238.808	931.801
177.096	14.135	1237.573	930.975
178.110	14.216	1236.147	930.275
179.125	14.115	1235.189	928.908
180.140	14.088	1234.142	927.884
181.154	14.222	1232.366	927.214
182.169	14.219	1231.128	926.184
183.183	14.148	1230.387	925.151
184.198	14.274	1229.625	925.195
185.213	14.286	1228.090	924.025
186.227	14.292	1227.168	923.282
187.242	14.286	1226.127	922.384
188.256	14.337	1224.846	921.622
189.271	14.365	1224.164	921.185
190.286	14.248	1222.761	919.399
191.300	14.138	1222.318	918.379
192.315	14.225	1221.366	918.063
193.329	14.149	1221.303	917.513
194.344	14.221	1220.074	916.908
195.359	14.346	1219.524	917.101
196.373	14.386	1218.988	916.837
197.388	14.302	1218.616	916.011
198.402	14.379	1218.406	916.198
199.417	14.488	1217.254	915.847
200.432	14.528	1216.446	915.381
201.446	14.576	1215.634	914.949
202.461	14.508	1214.523	913.659
203.475	14.623	1213.313	913.298
204.490	14.599	1211.867	912.001
205.504	14.479	1211.388	910.902
206.519	14.538	1209.767	909.927
207.534	14.558	1208.622	909.093
208.548	14.604	1207.477	908.401
209.563	14.689	1206.530	908.072
210.577	14.637	1205.773	907.137
211.592	14.645	1205.209	906.675
212.607	14.692	1204.605	906.397
213.621	14.689	1203.422	905.411
214.636	14.553	1202.636	904.002
215.650	14.659	1201.482	903.630
216.665	14.762	1200.499	903.363
217.680	14.687	1200.093	902.575
218.694	14.763	1198.936	902.038
219.709	14.764	1198.130	901.357
220.723	14.783	1197.435	900.854
221.738	14.774	1196.437	899.974
222.753	14.796	1195.848	899.569
223.767	14.794	1194.845	898.725
224.782	14.945	1194.453	899.164
225.796	14.852	1193.830	898.116
226.811	14.868	1193.169	897.622
227.826	14.868	1192.742	897.221
228.840	14.846	1191.752	896.282
229.855	14.823	1191.001	895.514
230.869	14.927	1189.684	895.004
231.884	14.827	1189.019	893.886
232.899	14.869	1188.179	893.403
233.913	14.888	1187.597	892.987
234.928	14.903	1186.702	892.312
235.942	14.852	1186.198	891.583
236.957	14.908	1184.811	890.760
237.972	14.859	1184.474	890.168
238.986	14.948	1184.006	890.210
240.001	14.978	1183.024	889.552
241.015	14.943	1182.288	888.733
242.030	14.978	1181.594	888.323
243.045	15.017	1180.782	887.840
244.059	15.052	1179.757	887.173
245.074	15.090	1178.889	886.647
246.088	15.109	1177.762	885.818
247.103	14.998	1177.363	884.852
248.117	15.151	1176.701	885.089
249.132	15.207	1176.176	884.907
250.147	15.153	1175.322	883.906
251.161	15.229	1174.636	883.711
252.176	15.385	1173.953	883.940
253.190	15.315	1173.445	883.109
254.205	15.354	1172.557	882.572
255.220	15.304	1171.923	881.750
256.234	15.263	1171.307	880.994
257.249	15.388	1170.450	880.927
258.263	15.435	1169.770	880.587
259.278	15.444	1169.295	880.197
260.293	15.384	1168.743	879.387
261.307	15.511	1167.911	879.351
262.322	15.406	1167.772	878.619
263.336	15.471	1166.872	878.202
264.351	15.549	1166.233	878.054
265.366	15.503	1165.439	877.134
266.380	15.556	1165.127	877.102
267.395	15.586	1164.185	876.470
268.409	15.539	1163.214	875.415
269.424	15.447	1162.499	874.322
270.439	15.573	1161.627	874.245
271.453	15.585	1161.078	873.815
272.468	15.521	1160.439	872.925
273.482	15.562	1159.735	872.534
274.497	15.525	1158.894	871.630
275.512	15.641	1158.063	871.529
276.526	15.699	1157.424	871.270
277.541	15.714	1156.673	870.707
278.555	15.707	1155.776	869.919
279.570	15.654	1155.593	869.430
280.585	15.770	1154.189	868.896
281.599	15.782	1153.067	868.037
282.614	15.788	1152.233	867.364
283.628	15.867	1151.301	866.992
284.643	15.740	1150.463	865.630
285.657	15.801	1149.464	865.114
286.672	15.779	1148.549	864.236
287.687	15.845	1147.832	863.958
288.701	15.789	1147.169	863.096
289.716	15.767	1146.351	862.292
290.730	15.854	1145.592	862.092
291.745	15.903	1144.800	861.669
292.760	15.888	1144.014	860.925
293.774	15.995	1143.450	860.971
294.789	15.945	1143.157	860.419
295.803	15.958	1142.476	859.898
296.818	15.955	1141.719	859.236
297.833	15.885	1141.255	858.451
298.847	16.007	1139.883	857.967
299.862	16.003	1139.119	857.294
300.876	16.007	1138.630	856.873
301.891	15.998	1137.913	856.212
302.906	16.002	1137.351	855.734
303.920	16.089	1136.724	855.627
304.935	16.059	1135.874	854.761
305.949	16.179	1135.352	854.900
306.964	16.066	1135.054	854.027
307.979	16.052	1133.931	853.034
308.993	16.260	1132.627	853.029
310.008	16.266	1131.987	852.504
311.022	16.127	1131.590	851.428
312.037	16.207	1130.767	851.133
313.052	16.285	1129.653	850.613
314.066	16.155	1128.953	849.357
315.081	16.250	1128.327	849.289
316.095	16.275	1126.972	848.322
317.110	16.202	1126.800	847.748
318.125	16.193	1125.995	847.020
319.139	16.267	1125.110	846.653
320.154	16.237	1124.447	845.930
321.168	16.189	1123.996	845.275
322.183	16.256	1123.595	845.234
323.197	16.256	1122.653	844.451
324.212	16.311	1121.911	844.094
325.227	16.380	1121.135	843.779
326.241	16.270	1121.258	843.249
327.256	16.283	1120.064	842.338
328.270	16.399	1118.916	841.979
329.285	16.393	1117.993	841.182
330.300	16.343	1117.098	840.181
331.314	16.278	1116.604	839.416
332.329	16.357	1115.235	838.704
333.343	16.451	1114.504	838.546
334.358	16.334	1113.683	837.273
335.373	16.486	1112.804	837.290
336.387	16.514	1112.017	836.766
337.402	16.443	1111.274	835.779
338.416	16.534	1110.682	835.710
339.431	16.620	1109.767	835.373
340.446	16.575	1109.395	834.796
341.460	16.675	1108.764	834.739
342.475	16.566	1108.181	833.691
343.489	16.640	1106.834	832.969
344.504	16.751	1105.906	832.744
345.519	16.681	1105.375	831.925
346.533	16.841	1104.191	831.748
347.548	16.828	1103.690	831.229
348.562	16.684	1103.313	830.168
349.577	16.786	1101.923	829.549
350.592	16.706	1101.232	828.563
351.606	16.735	1100.753	828.268
352.621	16.687	1099.692	827.165
353.635	16.669	1099.244	826.664
354.650	16.729	1098.422	826.269
355.665	16.837	1097.679	826.160
356.679	16.819	1096.931	825.440
357.694	16.773	1096.860	825.086
358.708	16.759	1095.898	824.222
359.723	16.882	1095.037	824.101
360.738	16.813	1094.702	823.440
361.752	16.822	1094.025	822.900
362.767	16.963	1093.825	823.364
363.781	16.841	1093.489	822.443
364.796	16.976	1092.624	822.377
365.810	16.896	1091.882	821.358
366.825	16.997	1091.031	821.134
367.840	16.978	1090.604	820.649
368.854	16.994	1090.215	820.361
369.869	17.107	1089.247	820.103
370.883	17.124	1088.159	819.292
371.898	17.042	1087.771	818.535
372.913	17.099	1086.916	818.091
373.927	17.134	1086.298	817.726
374.942	17.044	1086.052	817.034
375.956	17.109	1085.426	816.804
376.971	17.273	1084.722	816.989
377.986	17.295	1083.976	816.460
379.000	17.271	1083.855	816.182
380.015	17.334	1082.939	815.722
381.029	17.344	1082.377	815.277
382.044	17.345	1081.687	814.690
383.059	17.318	1080.869	813.869
384.073	17.354	1080.246	813.500
385.088	17.309	1079.321	812.520
386.102	17.365	1078.312	811.955
387.117	17.329	1077.147	810.833
388.132	17.414	1076.556	810.720
389.146	17.301	1075.616	809.402
390.161	17.279	1075.287	808.982
391.175	17.368	1074.278	808.571
392.190	17.529	1073.396	808.603
393.205	17.450	1072.720	807.645
394.219	17.371	1072.094	806.730
395.234	17.406	1071.295	806.223
396.248	17.454	1069.943	805.361
397.263	17.409	1069.293	804.587
398.278	17.350	1068.459	803.610
399.292	17.424	1067.917	803.482
400.307	17.458	1067.308	803.111
401.321	17.417	1066.598	802.311
402.336	17.376	1065.923	801.539
403.350	17.531	1065.281	801.717
404.365	17.542	1064.060	800.779
405.380	17.501	1063.693	800.237
406.394	17.557	1062.897	799.833
407.409	17.582	1062.104	799.285
408.423	17.550	1061.247	798.416
409.438	17.616	1060.706	798.247
410.453	17.867	1059.477	798.427
411.467	17.727	1059.010	797.347
412.482	17.592	1058.763	796.464
413.496	17.721	1057.672	796.173
414.511	17.815	1057.261	796.233
415.526	17.833	1056.711	795.833
416.540	17.756	1056.162	794.990
417.555	17.892	1055.769	795.255
418.569	17.903	1055.067	794.709
419.584	17.866	1054.860	794.311
420.599	17.825	1054.285	793.617
421.613	101.831	1319.196	1454.939
422.628	93.879	1357.760	1455.017
