DTS Sentinel unit serial number:	SN413079Multiplexer serial number:	ORYXHardware model number:	OX4-SRSoftware version number:	ORYX F/W v4.00 Oryx Data Collector v3.7.2.0data status	okinstallation	princeton_trtdifferential loss correction	single-endedforward channel	channel 2reverse channel	N/Adate	2019/09/17time	05:03:34forward acquisition time	60.00reverse acquisition time	0.00gamma	496.2192k internal	0.2329k external	0.2329temperature offset calibration	0.9972default loss term (dB/km)	0.3790temperature slope calibration	1.0000multiplexer offset coefficient	1.0000multiplexer slope coefficient	1.0000fibre end	0.00T internal ref (°C)	29.48T ext. ref 1 (°C)	0.14T ext. ref 2 (°C)	23.93length (m)	temperature (°C)	Stokes	anti-Stokes-747.200	-200.000	0.024	-0.139
-746.185	-200.000	-0.087	0.422
-745.171	-58.572	-0.369	0.161
-744.156	99.692	0.161	-0.188
-743.142	-200.000	0.355	-0.002
-742.127	-1.944	-0.365	0.258
-741.112	-134.983	0.526	-0.064
-740.098	-200.000	0.043	0.276
-739.083	-200.000	0.001	0.066
-738.069	101.369	0.118	0.139
-737.054	-200.000	0.022	0.402
-736.039	-180.714	-0.286	-0.006
-735.025	-33.376	0.122	0.068
-734.010	-113.586	0.198	0.039
-732.996	-31.175	-0.280	-0.159
-731.981	-200.000	-0.007	-0.262
-730.966	-200.000	0.075	0.377
-729.952	10.789	-0.228	0.175
-728.937	800.000	-0.153	-0.520
-727.923	331.469	-0.082	-0.159
-726.908	-127.466	-0.217	-0.032
-725.894	-44.413	-0.248	-0.125
-724.879	-54.438	-0.124	0.057
-723.864	273.816	0.062	-0.111
-722.850	-146.160	-0.218	0.019
-721.835	80.764	-0.062	0.067
-720.821	184.596	-0.238	-0.355
-719.806	-200.000	0.073	0.472
-718.791	628.210	-0.074	-0.188
-717.777	-64.364	0.282	-0.115
-716.762	243.332	-0.107	-0.181
-715.748	204.915	0.220	-0.344
-714.733	800.000	0.042	-0.141
-713.718	557.570	-0.033	0.081
-712.704	-39.398	0.035	0.019
-711.689	45.287	0.234	0.217
-710.675	800.000	0.046	-0.167
-709.660	-133.166	-0.333	-0.042
-708.645	169.675	-0.207	-0.298
-707.631	-64.145	-0.313	-0.129
-706.616	218.372	-0.218	0.350
-705.602	146.268	-0.065	0.088
-704.587	35.548	-0.100	-0.088
-703.572	-31.438	-0.234	0.133
-702.558	56.856	0.207	-0.203
-701.543	-200.000	0.022	-0.130
-700.529	291.234	0.287	-0.524
-699.514	-49.816	0.082	-0.039
-698.499	-43.543	-0.243	-0.123
-697.485	-200.000	0.028	0.279
-696.470	-115.805	-0.498	-0.094
-695.456	-200.000	-0.268	0.000
-694.441	108.216	0.161	-0.193
-693.426	-167.401	-0.196	0.008
-692.412	-65.432	0.305	-0.123
-691.397	-200.000	0.003	0.068
-690.383	-125.649	-0.213	-0.032
-689.368	-101.592	0.151	0.037
-688.354	7.648	-0.341	0.257
-687.339	72.537	-0.161	0.169
-686.324	-30.702	-0.110	-0.062
-685.310	-142.751	0.287	-0.028
-684.295	-95.212	-0.343	-0.093
-683.281	26.677	-0.258	0.217
-682.266	-82.745	-0.131	0.043
-681.251	-200.000	-0.038	0.179
-680.237	-200.000	-0.039	0.209
-679.222	-200.000	0.023	0.226
-678.208	-41.103	-0.173	-0.090
-677.193	-187.602	0.218	-0.003
-676.178	430.347	0.197	0.428
-675.164	-102.620	-0.301	-0.072
-674.149	-17.665	-0.159	-0.100
-673.135	-119.103	-0.101	-0.018
-672.120	-74.105	0.411	0.149
-671.105	122.324	-0.041	-0.052
-670.091	-14.439	0.368	-0.238
-669.076	-17.059	0.301	-0.191
-668.062	-200.000	-0.040	-0.398
-667.047	340.715	-0.081	-0.159
-666.032	-80.784	-0.191	0.064
-665.018	-10.837	-0.163	0.108
-664.003	800.000	-0.083	-0.297
-662.989	157.473	-0.169	-0.235
-661.974	185.559	-0.254	-0.379
-660.959	-64.539	0.213	0.087
-659.945	10.039	0.013	0.010
-658.930	-44.896	0.045	-0.023
-657.916	-152.069	0.182	0.013
-656.901	-54.797	-0.321	0.146
-655.886	-28.448	-0.104	0.060
-654.872	-200.000	0.013	-0.220
-653.857	800.000	-0.070	-0.244
-652.843	-200.000	0.021	0.119
-651.828	-153.410	0.279	0.019
-650.814	-200.000	-0.043	0.230
-649.799	422.696	0.062	0.134
-648.784	-63.369	-0.292	0.120
-647.770	36.594	0.129	-0.114
-646.755	116.317	-0.231	-0.285
-645.741	-152.679	0.262	-0.019
-644.726	-107.546	-0.253	0.056
-643.711	569.605	0.053	-0.129
-642.697	-200.000	0.070	-0.417
-641.682	207.397	-0.098	-0.153
-640.668	-117.160	0.063	-0.012
-639.653	-74.710	0.235	-0.085
-638.638	329.953	-0.128	0.247
-637.624	-200.000	-0.008	0.054
-636.609	-124.890	-0.107	0.017
-635.595	800.000	-0.070	0.210
-634.580	480.650	-0.101	0.229
-633.565	-32.918	-0.288	-0.161
-632.551	41.169	0.272	0.247
-631.536	-68.624	-0.183	-0.071
-630.522	168.472	0.165	0.235
-629.507	800.000	0.083	-0.351
-628.492	205.504	-0.148	-0.230
-627.478	371.776	0.125	-0.254
-626.463	-200.000	0.022	0.254
-625.449	-75.883	-0.179	0.064
-624.434	13.150	-0.225	0.175
-623.419	-64.518	-0.226	-0.092
-622.405	-13.657	0.189	-0.123
-621.390	-200.000	-0.003	0.140
-620.376	210.804	-0.099	-0.157
-619.361	32.845	0.326	-0.283
-618.346	-45.117	-0.134	-0.067
-617.332	87.594	0.213	-0.236
-616.317	-14.504	-0.118	0.076
-615.303	-114.235	-0.283	-0.055
-614.288	800.000	0.040	0.122
-613.273	182.427	-0.186	0.275
-612.259	800.000	0.074	0.254
-611.244	800.000	-0.026	-0.094
-610.230	-34.800	-0.256	-0.140
-609.215	800.000	0.011	-0.041
-608.201	-5.987	-0.153	-0.105
-607.186	12.531	0.183	0.142
-606.171	-18.746	-0.361	0.225
-605.157	33.977	0.270	-0.236
-604.142	-150.233	0.179	0.014
-603.128	-75.453	-0.198	0.071
-602.113	6.920	0.162	0.121
-601.098	-105.565	0.146	-0.033
-600.084	-24.836	-0.255	-0.152
-599.069	-4.889	-0.135	0.093
-598.055	-200.000	-0.004	-0.026
-597.040	800.000	-0.101	0.293
-596.025	-21.534	-0.417	-0.255
-595.011	-90.498	-0.266	-0.077
-593.996	-200.000	0.038	-0.203
-592.982	18.180	0.130	-0.104
-591.967	-92.183	-0.261	0.074
-590.952	-2.388	-0.086	0.061
-589.938	529.834	-0.036	0.086
-588.923	-200.000	-0.038	-0.259
-587.909	590.917	-0.043	0.106
-586.894	-143.124	0.208	-0.020
-585.879	658.151	0.028	-0.071
-584.865	-138.550	-0.157	-0.017
-583.850	-45.043	0.317	-0.158
-582.836	-200.000	0.055	0.333
-581.821	-200.000	-0.008	-0.075
-580.806	257.233	-0.237	-0.408
-579.792	455.508	0.092	0.204
-578.777	10.780	0.114	-0.087
-577.763	800.000	-0.058	-0.225
-576.748	-133.750	-0.223	-0.028
-575.733	-35.074	-0.281	0.154
-574.719	-200.000	-0.009	0.064
-573.704	84.392	-0.169	-0.185
-572.690	90.393	0.080	-0.090
-571.675	-25.669	-0.185	0.109
-570.661	14.360	0.084	-0.065
-569.646	15.086	0.264	-0.207
-568.631	97.838	-0.163	-0.187
-567.617	-100.338	0.280	-0.069
-566.602	-63.918	-0.249	0.102
-565.588	-200.000	-0.002	-0.019
-564.573	-200.000	-0.014	-0.215
-563.558	-2.279	0.159	-0.111
-562.544	-45.946	0.235	-0.116
-561.529	-200.000	0.016	-0.090
-560.515	204.925	0.062	-0.097
-559.500	-64.607	0.224	-0.091
-558.485	-200.000	-0.013	-0.141
-557.471	-85.768	-0.075	-0.023
-556.456	-200.000	0.068	-0.303
-555.442	381.452	-0.146	0.300
-554.427	-200.000	-0.048	-0.247
-553.412	14.008	-0.146	0.114
-552.398	-64.091	-0.085	-0.035
-551.383	-122.299	-0.156	-0.025
-550.369	-148.263	-0.143	-0.012
-549.354	-141.038	0.236	-0.024
-548.339	-186.415	-0.316	-0.005
-547.325	800.000	-0.049	0.157
-546.310	-99.556	0.153	0.038
-545.296	272.282	-0.095	-0.168
-544.281	26.919	-0.164	0.137
-543.266	-150.982	0.233	-0.018
-542.252	-43.311	0.098	-0.049
-541.237	-23.644	0.233	-0.140
-540.223	-200.000	-0.022	0.174
-539.208	-200.000	-0.023	0.239
-538.193	291.071	-0.076	-0.139
-537.179	296.377	-0.159	-0.292
-536.164	800.000	-0.065	-0.264
-535.150	-142.151	0.228	0.023
-534.135	-179.963	-0.094	0.002
-533.121	247.365	0.177	-0.298
-532.106	800.000	-0.150	-0.516
-531.091	-77.626	-0.078	-0.027
-530.077	161.350	-0.095	-0.133
-529.062	315.482	0.113	-0.213
-528.048	252.959	-0.067	-0.115
-527.033	147.171	-0.156	0.210
-526.018	800.000	-0.044	-0.189
-525.004	34.860	-0.184	-0.161
-523.989	673.405	-0.040	0.103
-522.975	642.745	-0.062	0.157
-521.960	37.735	-0.170	-0.151
-520.945	-106.062	0.174	-0.039
-519.931	-151.638	0.283	-0.021
-518.916	273.325	-0.118	0.208
-517.902	130.356	0.216	0.276
-516.887	-105.236	0.120	-0.027
-515.872	-56.162	-0.154	0.068
-514.858	83.228	0.129	-0.140
-513.843	-3.192	0.131	0.091
-512.829	-111.724	-0.198	-0.040
-511.814	-79.635	-0.249	0.084
-510.799	96.454	0.096	-0.110
-509.785	-43.305	0.288	-0.146
-508.770	-78.353	0.517	0.177
-507.756	-200.000	0.063	-0.397
-506.741	-89.575	0.300	0.088
-505.726	-49.679	0.425	-0.202
-504.712	800.000	-0.060	0.219
-503.697	444.266	-0.081	-0.178
-502.683	800.000	0.108	-0.326
-501.668	-134.959	0.063	0.008
-500.653	-21.449	-0.104	-0.064
-499.639	303.173	-0.146	-0.269
-498.624	800.000	0.089	0.267
-497.610	152.893	-0.118	0.161
-496.595	-200.000	-0.005	-0.170
-495.581	-125.347	-0.155	0.024
-494.566	-7.038	0.166	-0.113
-493.551	393.071	-0.076	0.159
-492.537	-114.596	-0.365	-0.070
-491.522	-200.000	-0.037	-0.295
-490.508	-13.539	0.292	-0.189
-489.493	-126.270	-0.426	-0.064
-488.478	800.000	-0.094	0.283
-487.464	800.000	-0.111	0.345
-486.449	-118.407	-0.163	-0.029
-485.435	72.141	-0.163	0.169
-484.420	-200.000	-0.028	-0.289
-483.405	-200.000	0.036	0.340
-482.391	-145.762	0.100	-0.009
-481.376	-177.683	0.083	-0.002
-480.362	-0.750	-0.147	-0.104
-479.347	99.981	-0.058	0.067
-478.332	-78.408	-0.205	-0.070
-477.318	0.668	-0.070	0.050
-476.303	800.000	0.104	-0.312
-475.289	-142.368	0.192	-0.019
-474.274	176.124	0.180	0.260
-473.259	800.000	0.058	0.172
-472.245	35.532	-0.131	-0.115
-471.230	47.588	0.407	0.379
-470.216	800.000	-0.086	-0.353
-469.201	107.262	0.058	-0.069
-468.186	-112.306	-0.285	0.057
-467.172	800.000	0.099	-0.356
-466.157	-44.251	-0.248	0.124
-465.143	-200.000	-0.006	0.323
-464.128	292.300	0.163	-0.295
-463.113	440.608	-0.111	0.242
-462.099	-200.000	0.015	0.400
-461.084	800.000	-0.027	0.084
-460.070	-173.231	0.169	-0.005
-459.055	16.680	-0.159	0.125
-458.040	82.727	-0.170	-0.184
-457.026	37.525	-0.269	-0.238
-456.011	-200.000	-0.036	-0.194
-454.997	-140.523	-0.325	-0.034
-453.982	-41.625	0.105	0.054
-452.968	-5.650	0.374	0.255
-451.953	-71.239	-0.190	0.071
-450.938	20.517	-0.042	-0.034
-449.924	-200.000	-0.002	-0.415
-448.909	-122.752	-0.224	-0.036
-447.895	-81.271	-0.166	0.055
-446.880	321.083	-0.150	-0.283
-445.865	-132.567	-0.116	-0.015
-444.851	33.688	-0.306	0.265
-443.836	-200.000	0.057	0.300
-442.822	293.527	0.063	-0.115
-441.807	-36.228	0.512	0.275
-440.792	1.831	0.357	-0.256
-439.778	23.333	0.116	-0.095
-438.763	-108.878	-0.373	0.079
-437.749	-200.000	0.041	0.202
-436.734	67.130	-0.073	0.074
-435.719	-200.000	-0.012	0.233
-434.705	-200.000	-0.044	-0.222
-433.690	430.322	0.057	0.123
-432.676	-200.000	-0.031	0.357
-431.661	78.020	0.216	0.229
-430.646	-200.000	-0.066	-0.406
-429.632	800.000	-0.052	0.145
-428.617	129.377	0.167	-0.213
-427.603	91.791	0.086	-0.097
-426.588	800.000	-0.122	0.374
-425.573	-35.767	-0.210	-0.113
-424.559	50.168	-0.232	-0.218
-423.544	760.570	0.089	-0.241
-422.530	60.730	-0.266	0.262
-421.515	72.508	0.260	0.269
-420.500	67.992	-0.044	-0.045
-419.486	112.533	0.198	-0.238
-418.471	244.545	-0.121	-0.202
-417.457	-200.000	-0.007	0.165
-416.442	-110.585	0.164	0.034
-415.428	188.264	0.102	0.152
-414.413	-104.984	0.024	-0.006
-413.398	-200.000	-0.035	0.293
-412.384	-43.211	0.279	0.141
-411.369	90.235	0.355	-0.395
-410.355	-200.000	-0.038	0.222
-409.340	60.094	-0.133	-0.130
-408.325	7.630	0.298	0.222
-407.311	182.113	0.155	0.226
-406.296	-25.146	0.046	0.027
-405.282	-8.550	0.263	0.175
-404.267	-200.000	0.009	-0.189
-403.252	219.308	0.046	-0.073
-402.238	-143.588	0.219	0.021
-401.223	712.853	0.085	-0.223
-400.209	415.809	0.057	-0.121
-399.194	-44.270	-0.219	0.109
-398.179	293.680	-0.150	0.272
-397.165	-51.850	0.359	0.166
-396.150	-62.681	0.457	0.188
-395.136	-121.067	-0.298	0.050
-394.121	-2.429	0.298	-0.207
-393.106	278.378	-0.166	-0.294
-392.092	-200.000	0.038	-0.243
-391.077	800.000	0.094	0.359
-390.063	-77.858	-0.204	0.070
-389.048	-65.227	0.084	0.034
-388.033	399.830	-0.032	0.067
-387.019	773.205	0.046	0.125
-386.004	-200.000	0.050	0.226
-384.990	23.416	0.099	-0.081
-383.975	299.798	0.161	0.295
-382.960	800.000	0.132	-0.559
-381.946	-110.440	0.185	0.038
-380.931	143.812	0.184	-0.244
-379.917	800.000	0.030	-0.131
-378.902	142.083	-0.060	0.080
-377.888	137.287	-0.108	-0.141
-376.873	156.784	-0.060	-0.082
-375.858	-19.492	0.173	-0.106
-374.844	568.459	-0.033	0.080
-373.829	171.553	-0.102	-0.146
-372.815	303.595	-0.183	0.336
-371.800	-86.914	-0.275	0.083
-370.785	-200.000	0.036	-0.251
-369.771	379.466	0.066	0.134
-368.756	104.654	0.053	-0.062
-367.742	-78.068	0.237	0.081
-366.727	28.480	-0.412	0.345
-365.712	800.000	-0.022	-0.082
-364.698	-137.843	-0.396	-0.044
-363.683	-24.512	-0.093	-0.055
-362.669	647.934	0.089	-0.226
-361.654	627.468	-0.167	-0.418
-360.639	541.473	-0.112	-0.264
-359.625	37.468	0.081	-0.071
-358.610	96.848	-0.251	-0.286
-357.596	-120.206	0.117	-0.020
-356.581	107.560	-0.199	0.235
-355.566	800.000	0.023	0.072
-354.552	-128.851	-0.229	-0.032
-353.537	104.521	0.113	-0.131
-352.523	-167.982	-0.132	-0.005
-351.508	39.434	0.092	-0.082
-350.493	-34.201	-0.202	-0.110
-349.479	-121.681	-0.050	-0.008
-348.464	-200.000	0.000	0.047
-347.450	81.897	-0.092	0.099
-346.435	790.616	-0.130	0.353
-345.420	800.000	-0.025	0.084
-344.406	355.448	-0.108	-0.213
-343.391	-122.915	-0.169	-0.027
-342.377	800.000	-0.032	-0.112
-341.362	-7.246	0.280	0.188
-340.348	18.570	0.156	-0.124
-339.333	-44.647	0.202	0.100
-338.318	-100.612	-0.090	-0.022
-337.304	240.628	0.098	0.162
-336.289	800.000	0.013	-0.042
-335.275	75.233	-0.105	-0.110
-334.260	-200.000	-0.044	0.196
-333.245	-49.292	0.144	0.068
-332.231	-200.000	0.054	0.254
-331.216	207.546	-0.221	-0.341
-330.202	-200.000	-0.055	-0.278
-329.187	74.388	0.113	-0.118
-328.172	-75.291	0.194	-0.069
-327.158	134.522	-0.322	-0.415
-326.143	-92.916	0.272	0.075
-325.129	67.662	0.150	0.152
-324.114	-18.606	-0.097	-0.060
-323.099	-80.712	0.130	-0.043
-322.085	800.000	-0.109	0.355
-321.070	800.000	-0.030	-0.085
-320.056	44.993	0.091	-0.083
-319.041	184.312	0.066	-0.097
-318.026	-107.075	0.193	-0.042
-317.012	9.851	-0.268	0.201
-315.997	-20.231	-0.338	0.206
-314.983	-89.016	0.325	-0.095
-313.968	-200.000	-0.018	0.169
-312.953	-200.000	0.010	-0.046
-311.939	48.807	-0.083	0.077
-310.924	562.601	0.090	0.217
-309.910	-17.438	0.136	0.085
-308.895	-8.484	-0.134	-0.089
-307.880	-97.490	-0.248	0.064
-306.866	136.686	0.094	-0.121
-305.851	-75.291	0.205	0.072
-304.837	309.630	-0.025	0.046
-303.822	800.000	-0.037	-0.127
-302.807	78.652	-0.104	0.110
-301.793	77.529	0.139	-0.147
-300.778	-124.117	0.073	-0.011
-299.764	-200.000	-0.044	-0.229
-298.749	-45.514	0.331	-0.162
-297.735	-200.000	-0.022	0.392
-296.720	-42.098	-0.090	-0.045
-295.705	-91.721	-0.182	-0.051
-294.691	-46.215	-0.220	0.107
-293.676	-130.377	0.300	0.040
-292.662	-171.128	0.192	0.006
-291.647	-70.782	-0.205	0.076
-290.632	7.414	0.106	0.078
-289.618	61.314	-0.202	-0.198
-288.603	166.591	0.111	0.156
-287.589	75.803	0.091	0.096
-286.574	-200.000	0.055	0.457
-285.559	4.248	-0.147	0.107
-284.545	-90.974	0.270	0.077
-283.530	800.000	-0.090	-0.307
-282.516	-92.536	-0.174	0.048
-281.501	749.639	-0.109	0.290
-280.486	-34.490	-0.100	0.054
-279.472	-161.916	0.158	0.008
-278.457	-200.000	0.055	-0.253
-277.443	-38.187	0.117	0.061
-276.428	-144.815	0.120	0.011
-275.413	80.095	-0.066	0.070
-274.399	-200.000	0.020	0.109
-273.384	-200.000	0.001	-0.138
-272.370	91.380	-0.115	-0.128
-271.355	14.817	-0.086	0.067
-270.340	-148.919	0.328	0.026
-269.326	-200.000	-0.015	0.268
-268.311	-100.229	-0.179	0.044
-267.297	800.000	0.059	0.182
-266.282	217.320	-0.139	0.219
-265.267	234.532	0.159	-0.259
-264.253	44.952	0.078	0.071
-263.238	-150.077	0.346	0.027
-262.224	-175.067	-0.364	-0.010
-261.209	-42.162	-0.187	0.095
-260.195	-190.144	0.033	0.000
-259.180	273.428	-0.016	-0.028
-258.165	41.086	-0.106	-0.095
-257.151	781.367	0.070	-0.189
-256.136	-200.000	-0.038	0.190
-255.122	-12.661	0.259	0.167
-254.107	619.073	-0.072	0.179
-253.092	800.000	0.038	0.143
-252.078	-85.761	0.164	-0.050
-251.063	71.257	0.351	0.360
-250.049	-12.547	-0.245	-0.158
-249.034	-200.000	0.031	0.287
-248.019	383.066	0.187	0.380
-247.005	-62.234	0.078	0.032
-245.990	105.577	-0.170	0.198
-244.976	800.000	0.043	-0.141
-243.961	330.217	0.119	-0.227
-242.946	-44.977	-0.162	-0.080
-241.932	-108.946	-0.258	0.054
-240.917	211.122	-0.040	0.062
-239.903	22.968	-0.179	-0.145
-238.888	125.352	0.015	-0.019
-237.873	-200.000	-0.019	-0.251
-236.859	-148.072	-0.280	0.023
-235.844	466.979	0.120	0.266
-234.830	-200.000	0.015	-0.246
-233.815	-118.014	-0.308	-0.054
-232.800	-189.553	0.044	0.001
-231.786	117.801	-0.263	0.320
-230.771	4.866	0.096	-0.069
-229.757	-200.000	-0.012	0.301
-228.742	-200.000	0.022	-0.149
-227.727	427.013	-0.049	0.105
-226.713	24.458	0.192	0.157
-225.698	21.672	0.151	-0.122
-224.684	175.668	-0.073	0.104
-223.669	800.000	-0.111	0.351
-222.655	-83.859	0.269	0.085
-221.640	168.791	-0.057	-0.081
-220.625	-114.176	-0.093	0.018
-219.611	-181.968	-0.202	0.004
-218.596	-144.097	-0.328	0.030
-217.582	-200.000	0.031	-0.227
-216.567	-200.000	0.046	-0.467
-215.552	-44.944	0.086	0.042
-214.538	74.948	-0.191	-0.198
-213.523	-83.718	0.205	0.065
-212.509	800.000	0.049	-0.157
-211.494	-76.552	0.203	-0.070
-210.479	-200.000	0.006	0.197
-209.465	-93.452	0.241	0.066
-208.450	663.829	0.106	-0.270
-207.436	-95.132	0.116	-0.031
-206.421	31.839	0.184	-0.156
-205.406	-119.126	-0.198	-0.034
-204.392	-179.140	-0.219	-0.005
-203.377	-200.000	0.044	-0.272
-202.363	-200.000	-0.034	-0.152
-201.348	195.095	-0.151	0.227
-200.333	-200.000	-0.012	-0.164
-199.319	-200.000	-0.015	-0.165
-198.304	655.506	-0.072	-0.182
-197.290	800.000	-0.066	0.228
-196.275	195.555	-0.206	0.309
-195.260	7.723	0.125	0.093
-194.246	-200.000	-0.037	0.181
-193.231	171.189	0.133	-0.188
-192.217	60.141	0.202	-0.197
-191.202	-26.701	0.103	0.060
-190.187	19.037	-0.121	-0.095
-189.173	398.241	0.071	0.146
-188.158	-122.641	0.348	0.056
-187.144	800.000	0.065	0.186
-186.129	-78.101	0.476	-0.161
-185.114	41.974	0.034	0.030
-184.100	93.171	0.165	-0.184
-183.085	309.773	0.075	0.138
-182.071	-116.306	0.209	-0.038
-181.056	76.886	0.105	0.110
-180.042	-105.756	0.187	0.042
-179.027	-50.729	0.317	0.147
-178.012	81.430	-0.149	0.158
-176.998	-117.248	-0.046	-0.008
-175.983	-158.387	0.142	-0.008
-174.969	800.000	0.159	0.571
-173.954	-200.000	0.021	0.191
-172.939	290.326	0.101	0.181
-171.925	-200.000	-0.005	0.169
-170.910	-200.000	0.003	0.297
-169.896	800.000	-0.037	-0.103
-168.881	-3.224	-0.109	0.075
-167.866	-21.228	0.258	0.155
-166.852	-200.000	-0.017	0.215
-165.837	-200.000	-0.054	0.258
-164.823	-107.935	0.460	0.098
-163.808	-22.666	-0.295	0.176
-162.793	237.285	-0.225	-0.367
-161.779	80.347	0.082	0.087
-160.764	-149.341	0.071	0.006
-159.750	219.768	-0.097	-0.153
-158.735	-200.000	-0.053	0.283
-157.720	-200.000	-0.044	0.452
-156.706	238.044	0.189	0.309
-155.691	112.925	0.100	0.119
-154.677	353.572	-0.182	-0.355
-153.662	268.402	0.143	-0.246
-152.647	-200.000	0.001	-0.279
-151.633	-189.853	-0.164	0.002
-150.618	-19.368	-0.358	0.219
-149.604	539.418	0.075	0.176
-148.589	-200.000	0.020	0.204
-147.574	17.649	0.175	0.137
-146.560	-200.000	-0.039	0.385
-145.545	-46.178	0.258	0.125
-144.531	800.000	-0.020	0.063
-143.516	-61.938	0.142	0.058
-142.502	29.496	-0.209	0.175
-141.487	2.597	-0.102	0.072
-140.472	99.526	0.130	0.148
-139.458	274.554	0.076	0.132
-138.443	768.256	-0.075	-0.201
-137.429	486.965	-0.176	0.395
-136.414	-146.241	0.315	0.027
-135.399	227.396	-0.159	0.254
-134.385	138.823	-0.185	-0.239
-133.370	800.000	0.067	0.289
-132.356	224.433	0.167	-0.266
-131.341	90.247	-0.261	0.288
-130.326	-4.228	0.370	-0.252
-129.312	-119.101	0.422	-0.073
-128.297	800.000	-0.068	-0.207
-127.283	48.101	-0.161	0.148
-126.268	-85.675	-0.178	-0.054
-125.253	247.864	-0.179	0.298
-124.239	-200.000	-0.004	0.282
-123.224	45.898	0.201	-0.183
-122.210	194.839	0.163	0.243
-121.195	-119.116	-0.289	-0.050
-120.180	-26.013	-0.054	-0.031
-119.166	212.150	-0.070	-0.108
-118.151	-200.000	-0.010	-0.092
-117.137	800.000	0.177	-0.537
-116.122	175.821	0.210	0.300
-115.107	-200.000	0.002	-0.114
-114.093	-200.000	-0.014	0.347
-113.078	-82.398	-0.284	0.091
-112.064	153.845	0.070	-0.095
-111.049	800.000	0.015	-0.065
-110.034	-158.367	-0.292	-0.017
-109.020	9.743	-0.119	0.089
-108.005	-7.042	0.444	-0.296
-106.991	-57.208	0.128	-0.056
-105.976	800.000	0.037	0.142
-104.962	8.277	0.135	0.100
-103.947	150.237	-0.120	0.160
-102.932	37.072	-0.114	0.099
-101.918	-60.450	-0.121	0.050
-100.903	-200.000	0.012	0.375
-99.889	21.200	0.162	-0.129
-98.874	-200.000	-0.008	-0.102
-97.859	-33.535	0.183	0.099
-96.845	238.105	-0.052	0.084
-95.830	-96.524	0.358	-0.093
-94.816	48.427	0.116	0.107
-93.801	-90.313	0.093	0.026
-92.786	142.778	0.242	0.316
-91.772	-47.213	0.379	-0.182
-90.757	-200.000	-0.001	-0.373
-89.743	-200.000	0.037	-0.183
-88.728	126.077	-0.200	-0.248
-87.713	-150.474	0.227	-0.017
-86.699	-89.457	-0.360	-0.104
-85.684	-59.935	0.122	0.051
-84.670	800.000	0.055	0.220
-83.655	34.730	0.169	0.145
-82.640	-200.000	0.003	0.126
-81.626	-200.000	0.014	-0.195
-80.611	56.220	0.107	0.102
-79.597	-170.295	-0.307	-0.011
-78.582	232.404	-0.219	0.353
-77.567	634.205	0.059	0.147
-76.553	378.632	-0.112	0.225
-75.538	-200.000	0.029	-0.353
-74.524	-146.113	0.577	-0.050
-73.509	-200.000	-0.069	-0.376
-72.494	800.000	0.030	0.121
-71.480	22.507	0.120	-0.097
-70.465	-13.056	0.192	0.122
-69.451	311.010	0.140	0.257
-68.436	-139.674	0.448	0.047
-67.422	51.972	-0.158	-0.147
-66.407	323.267	0.016	0.029
-65.392	800.000	-0.026	-0.101
-64.378	-200.000	-0.008	0.260
-63.363	72.047	-0.150	0.153
-62.349	-163.958	0.272	-0.012
-61.334	119.652	-0.802	-0.974
-60.319	-38.167	0.694	0.361
-59.305	420.341	-0.511	-1.074
-58.290	800.000	0.500	1.409
-57.276	538.392	0.568	1.323
-56.261	-200.000	108.880	597.382
-55.246	445.061	1489.611	3207.526
-54.232	145.233	2681.939	3519.626
-53.217	99.560	2294.107	2603.290
-52.203	38.534	1904.106	1664.839
-51.188	32.637	1692.634	1435.136
-50.173	30.117	1649.335	1379.638
-49.159	49.311	1703.242	1570.414
-48.144	49.497	1718.372	1585.705
-47.130	32.290	1675.709	1417.947
-46.115	29.599	1661.225	1385.484
-45.100	29.405	1656.117	1379.714
-44.086	29.379	1653.273	1377.100
-43.071	29.362	1650.827	1374.879
-42.057	29.293	1648.437	1372.322
-41.042	29.272	1646.775	1370.725
-40.027	29.371	1644.269	1369.322
-39.013	29.304	1642.714	1367.476
-37.998	29.295	1641.067	1365.983
-36.984	29.375	1639.747	1365.424
-35.969	29.576	1638.010	1365.407
-34.954	29.572	1636.507	1364.068
-33.940	29.530	1635.172	1362.594
-32.925	29.373	1633.729	1360.179
-31.911	29.445	1631.397	1358.714
-30.896	29.518	1629.539	1357.649
-29.881	29.590	1628.058	1356.894
-28.867	29.443	1626.387	1354.363
-27.852	29.462	1625.060	1353.349
-26.838	29.526	1623.020	1352.065
-25.823	29.505	1621.864	1350.890
-24.809	29.480	1621.103	1350.021
-23.794	29.545	1619.161	1348.822
-22.779	29.519	1617.924	1347.555
-21.765	29.437	1616.616	1345.811
-20.750	29.514	1614.384	1344.460
-19.736	29.495	1613.225	1343.305
-18.721	29.605	1611.765	1342.835
-17.706	29.444	1610.694	1340.718
-16.692	29.539	1608.823	1339.797
-15.677	29.517	1607.301	1338.314
-14.663	29.576	1605.921	1337.539
-13.648	29.547	1604.746	1336.301
-12.633	29.446	1603.637	1334.590
-11.619	29.512	1601.659	1333.371
-10.604	29.562	1600.230	1332.493
-9.590	29.494	1599.362	1331.225
-8.575	29.513	1597.508	1329.763
-7.560	29.521	1596.458	1328.896
-6.546	29.471	1595.333	1327.547
-5.531	29.462	1594.417	1326.667
-4.517	29.412	1593.440	1325.444
-3.502	29.460	1592.272	1324.762
-2.487	29.629	1590.367	1324.335
-1.473	29.256	1578.125	1311.439
-0.458	26.317	1559.210	1274.969
0.556	20.939	1559.779	1242.685
1.571	18.582	1583.204	1244.162
2.586	18.239	1596.087	1251.668
3.600	16.838	1543.810	1200.648
4.615	9.421	1434.510	1066.542
5.629	1.776	1369.885	969.871
6.644	0.280	1361.389	954.300
7.659	0.098	1360.440	952.398
8.673	0.163	1359.491	952.059
9.688	0.029	1357.547	949.771
10.702	-0.218	1354.721	946.151
11.717	3.529	1360.354	973.682
12.731	11.948	1373.505	1036.470
13.746	17.136	1380.510	1074.581
14.761	17.203	1378.629	1073.441
15.775	16.143	1376.770	1065.212
16.790	15.101	1374.128	1056.501
17.804	14.394	1371.759	1050.131
18.819	14.058	1370.609	1047.044
19.834	13.858	1368.929	1044.407
20.848	13.453	1368.248	1041.251
21.863	13.307	1366.078	1038.590
22.877	13.080	1365.330	1036.505
23.892	13.073	1364.441	1035.696
24.907	13.023	1363.690	1034.718
25.921	13.150	1362.328	1034.387
26.936	13.126	1361.937	1033.852
27.950	13.167	1360.741	1033.107
28.965	13.209	1359.953	1032.682
29.980	13.357	1358.647	1032.520
30.994	13.313	1358.128	1031.762
32.009	13.316	1356.835	1030.706
33.023	13.320	1355.823	1029.870
34.038	13.251	1354.867	1028.625
35.053	13.310	1353.431	1027.810
36.067	13.316	1352.510	1027.056
37.082	13.243	1351.669	1025.873
38.096	13.265	1351.070	1025.466
39.111	13.447	1349.627	1025.406
40.126	13.255	1349.208	1023.806
41.140	13.148	1348.505	1022.521
42.155	13.026	1348.241	1021.477
43.169	13.061	1347.987	1021.411
44.184	13.064	1347.581	1021.027
45.199	13.048	1347.291	1020.620
46.213	13.149	1346.529	1020.579
47.228	13.202	1345.315	1019.891
48.242	13.191	1343.969	1018.718
49.257	13.251	1342.529	1017.905
50.271	13.269	1341.086	1016.830
51.286	13.310	1339.975	1016.150
52.301	13.229	1339.209	1014.979
53.315	13.227	1337.978	1013.943
54.330	13.156	1336.438	1012.251
55.344	13.126	1335.951	1011.613
56.359	13.070	1334.697	1010.231
57.374	13.118	1333.833	1009.779
58.388	13.010	1333.245	1008.585
59.403	13.134	1332.326	1008.559
60.417	13.068	1331.623	1007.534
61.432	12.989	1331.127	1006.590
62.447	12.987	1329.593	1005.327
63.461	12.931	1328.627	1004.167
64.476	12.965	1327.515	1003.446
65.490	13.019	1325.996	1002.535
66.505	13.008	1324.749	1001.437
67.520	12.968	1323.858	1000.430
68.534	13.092	1322.464	1000.039
69.549	12.914	1322.295	998.750
70.563	13.068	1320.238	998.034
71.578	12.986	1319.316	996.754
72.593	12.922	1318.478	995.648
73.607	13.007	1317.770	995.535
74.622	13.046	1316.979	995.087
75.636	12.951	1316.314	993.927
76.651	12.924	1315.371	992.964
77.666	12.964	1314.805	992.688
78.680	13.052	1314.320	992.764
79.695	12.974	1313.674	991.719
80.709	13.009	1312.929	991.276
81.724	13.074	1312.602	991.336
82.739	13.046	1311.246	990.053
83.753	13.118	1310.083	989.522
84.768	13.125	1309.072	988.713
85.782	13.261	1308.050	988.666
86.797	13.187	1306.685	987.105
87.812	13.173	1304.960	985.631
88.826	13.146	1303.987	984.645
89.841	13.177	1303.235	984.179
90.855	13.216	1302.208	983.545
91.870	13.316	1301.462	983.490
92.884	13.214	1300.784	982.286
93.899	13.269	1299.982	981.919
94.914	13.379	1299.047	981.779
95.928	13.265	1298.320	980.466
96.943	13.228	1297.572	979.596
97.957	13.171	1296.621	978.452
98.972	13.278	1295.385	978.065
99.987	13.253	1294.034	976.813
101.001	13.253	1293.503	976.325
102.016	13.242	1292.658	975.539
103.030	13.299	1291.331	974.783
104.045	13.334	1290.378	974.182
105.060	13.215	1289.665	972.858
106.074	13.160	1288.453	971.534
107.089	13.143	1286.939	970.206
108.103	13.082	1285.339	968.559
109.118	12.963	1284.790	967.362
110.133	13.032	1283.315	966.570
111.147	13.040	1281.728	965.334
112.162	13.067	1280.567	964.534
113.176	13.197	1279.181	964.162
114.191	13.141	1278.515	963.247
115.206	13.189	1277.195	962.450
116.220	13.178	1276.215	961.560
117.235	13.165	1275.318	960.727
118.249	13.168	1274.315	959.902
119.264	13.192	1272.756	958.781
120.279	13.126	1271.887	957.657
121.293	13.182	1270.684	956.991
122.308	13.059	1270.081	955.740
123.322	13.059	1269.036	954.871
124.337	12.997	1268.292	953.866
125.352	13.086	1266.298	952.799
126.366	13.066	1265.572	952.050
127.381	13.099	1264.811	951.588
128.395	13.145	1263.014	950.414
129.410	13.052	1263.070	949.838
130.424	13.159	1261.642	949.296
131.439	13.124	1260.944	948.486
132.454	13.173	1259.578	947.654
133.468	13.169	1259.144	947.218
134.483	13.183	1258.164	946.477
135.497	13.209	1257.132	945.766
136.512	13.156	1255.761	944.350
137.527	13.165	1254.676	943.501
138.541	13.213	1252.898	942.354
139.556	13.283	1251.456	941.584
140.570	13.118	1250.888	940.135
141.585	13.280	1249.545	939.962
142.600	13.297	1248.345	939.075
143.614	13.395	1247.502	938.913
144.629	13.363	1246.450	937.859
145.643	13.407	1245.515	937.324
146.658	13.304	1244.182	935.652
147.673	13.278	1242.671	934.289
148.687	13.268	1241.702	933.421
149.702	13.273	1240.181	932.218
150.716	13.394	1238.568	931.604
151.731	13.210	1237.971	930.040
152.746	13.177	1236.781	928.880
153.760	13.359	1235.453	928.821
154.775	13.345	1234.681	928.077
155.789	13.408	1233.288	927.303
156.804	13.394	1232.335	926.425
157.819	13.522	1230.867	925.956
158.833	13.522	1230.408	925.528
159.848	13.495	1229.685	924.753
160.862	13.434	1228.973	923.795
161.877	13.452	1227.667	922.831
162.892	13.314	1226.697	921.253
163.906	13.367	1225.579	920.624
164.921	13.450	1224.782	920.407
165.935	13.389	1223.859	919.292
166.950	13.396	1223.006	918.613
167.964	13.393	1222.625	918.229
168.979	13.362	1221.757	917.321
169.994	13.471	1220.849	917.161
171.008	13.508	1220.108	916.730
172.023	13.465	1219.350	915.839
173.037	13.584	1218.659	915.900
174.052	13.571	1217.626	914.967
175.067	13.511	1216.614	913.799
176.081	13.452	1215.810	912.785
177.096	13.513	1214.648	912.169
178.110	13.635	1213.248	911.708
179.125	13.559	1212.344	910.532
180.140	13.597	1211.192	909.796
181.154	13.622	1210.254	909.147
182.169	13.549	1209.076	907.780
183.183	13.624	1207.807	907.157
184.198	13.736	1206.561	906.754
185.213	13.764	1205.469	906.004
186.227	13.824	1203.805	905.004
187.242	13.862	1202.936	904.477
188.256	13.790	1202.142	903.408
189.271	13.813	1201.507	902.974
190.286	13.658	1200.466	901.272
191.300	13.574	1199.584	900.074
192.315	13.430	1198.982	898.762
193.329	13.607	1198.172	899.031
194.344	13.619	1197.558	898.561
195.359	13.748	1196.905	898.686
196.373	13.670	1196.444	897.839
197.388	13.794	1195.691	897.867
198.402	13.934	1194.837	897.904
199.417	13.857	1194.849	897.413
200.432	13.984	1193.597	897.081
201.446	13.988	1192.713	896.361
202.461	14.012	1191.843	895.756
203.475	14.063	1190.599	895.015
204.490	13.973	1189.510	893.636
205.504	13.847	1188.648	892.228
206.519	13.998	1187.104	891.803
207.534	13.941	1185.768	890.417
208.548	13.965	1184.724	889.682
209.563	13.971	1184.482	889.452
210.577	13.941	1183.316	888.337
211.592	14.066	1182.573	888.368
212.607	14.135	1181.415	887.790
213.621	13.992	1180.983	886.624
214.636	14.188	1179.708	886.631
215.650	14.122	1179.189	885.814
216.665	14.082	1178.179	884.760
217.680	14.225	1177.216	884.723
218.694	14.105	1176.721	883.634
219.709	14.223	1175.643	883.373
220.723	14.223	1175.062	882.857
221.738	14.241	1174.096	882.148
222.753	14.209	1173.241	881.256
223.767	14.289	1172.545	881.081
224.782	14.199	1172.383	880.406
225.796	14.350	1171.439	880.414
226.811	14.332	1170.982	879.900
227.826	14.363	1169.996	879.242
228.840	14.301	1169.731	878.639
229.855	14.109	1169.209	877.159
230.869	14.213	1167.765	876.546
231.884	14.319	1167.068	876.500
232.899	14.306	1165.861	875.450
233.913	14.357	1165.113	875.077
234.928	14.125	1165.197	873.844
235.942	14.291	1163.718	873.528
236.957	14.354	1163.020	873.257
237.972	14.231	1162.444	872.102
238.986	14.156	1162.415	871.614
240.001	14.385	1161.307	871.901
241.015	14.471	1160.198	871.445
242.030	14.325	1159.365	869.977
243.045	14.381	1158.776	869.752
244.059	14.334	1158.467	869.195
245.074	14.447	1157.208	868.766
246.088	14.396	1156.551	867.927
247.103	14.419	1155.699	867.332
248.117	14.544	1155.054	867.421
249.132	14.607	1154.209	867.036
250.147	14.569	1153.689	866.371
251.161	14.672	1152.735	866.112
252.176	14.788	1151.665	865.836
253.190	14.674	1151.979	865.403
254.205	14.787	1151.075	865.231
255.220	14.805	1150.365	864.714
256.234	14.864	1149.369	864.195
257.249	14.824	1148.832	863.507
258.263	14.847	1148.399	863.226
259.278	14.914	1147.388	862.733
260.293	14.902	1146.956	862.271
261.307	14.872	1146.675	861.830
262.322	14.935	1145.630	861.292
263.336	14.858	1145.058	860.389
264.351	14.959	1144.668	860.539
265.366	15.028	1143.874	860.219
266.380	14.960	1142.957	859.106
267.395	15.068	1142.161	858.985
268.409	14.799	1142.049	857.445
269.424	14.799	1141.201	856.731
270.439	15.065	1140.292	857.335
271.453	15.016	1139.522	856.435
272.468	15.076	1138.456	855.864
273.482	14.983	1137.923	854.908
274.497	14.975	1137.708	854.633
275.512	15.030	1136.865	854.204
276.526	14.990	1135.910	853.205
277.541	14.918	1135.613	852.540
278.555	15.110	1134.615	852.694
279.570	15.050	1133.998	851.849
280.585	15.228	1133.052	851.970
281.599	15.178	1131.875	850.757
282.614	15.065	1131.625	849.919
283.628	15.118	1130.171	849.021
284.643	15.195	1129.171	848.584
285.657	15.201	1128.453	847.997
286.672	15.243	1127.231	847.219
287.687	15.170	1126.442	846.182
288.701	15.234	1126.188	846.238
289.716	15.355	1125.007	845.885
290.730	15.212	1124.333	844.586
291.745	15.238	1123.699	844.165
292.760	15.260	1123.270	843.879
293.774	15.220	1123.034	843.426
294.789	15.395	1122.093	843.522
295.803	15.434	1121.362	843.097
296.818	15.316	1120.867	842.058
297.833	15.278	1119.994	841.133
298.847	15.307	1118.757	840.276
299.862	15.386	1118.078	840.090
300.876	15.398	1117.744	839.820
301.891	15.497	1117.113	839.768
302.906	15.596	1116.268	839.553
303.920	15.530	1115.457	838.541
304.935	15.463	1115.165	837.913
305.949	15.608	1114.282	837.899
306.964	15.577	1113.651	837.194
307.979	15.569	1112.784	836.429
308.993	15.673	1111.967	836.258
310.008	15.587	1110.937	834.985
311.022	15.680	1110.677	835.176
312.037	15.766	1109.531	834.664
313.052	15.648	1108.407	833.164
314.066	15.653	1107.598	832.507
315.081	15.580	1107.102	831.698
316.095	15.570	1106.381	831.034
317.110	15.655	1105.790	830.936
318.125	15.604	1104.848	829.902
319.139	15.603	1103.846	829.071
320.154	15.653	1103.797	829.206
321.168	15.627	1102.870	828.311
322.183	15.609	1102.445	827.830
323.197	15.647	1101.828	827.479
324.212	15.853	1100.839	827.675
325.227	15.649	1100.519	826.360
326.241	15.664	1099.711	825.752
327.256	15.721	1098.942	825.383
328.270	15.717	1098.384	824.873
329.285	15.797	1097.189	824.293
330.300	15.713	1096.427	823.234
331.314	15.753	1095.587	822.726
332.329	15.701	1094.770	821.789
333.343	15.799	1093.343	821.121
334.358	15.765	1092.726	820.422
335.373	15.888	1092.083	820.466
336.387	15.845	1091.171	819.496
337.402	15.920	1090.702	819.438
338.416	15.799	1090.286	818.461
339.431	16.000	1089.461	818.749
340.446	16.156	1088.483	818.699
341.460	16.067	1087.988	817.824
342.475	16.051	1087.373	817.209
343.489	16.049	1086.241	816.275
344.504	16.203	1085.586	816.459
345.519	16.113	1084.618	815.223
346.533	16.181	1083.976	814.995
347.548	16.222	1082.990	814.382
348.562	16.099	1082.346	813.230
349.577	16.171	1081.242	812.678
350.592	16.072	1080.360	811.465
351.606	16.106	1079.838	811.165
352.621	16.025	1079.561	810.497
353.635	16.093	1078.896	810.251
354.650	16.108	1078.177	809.711
355.665	16.135	1077.508	809.269
356.679	16.169	1076.688	808.741
357.694	16.234	1076.243	808.646
358.708	16.179	1075.782	807.969
359.723	16.302	1074.804	807.751
360.738	16.320	1074.052	807.201
361.752	16.270	1074.070	806.902
362.767	16.251	1073.060	805.980
363.781	16.248	1072.693	805.619
364.796	16.277	1071.950	805.129
365.810	16.484	1070.940	805.286
366.825	16.376	1070.957	804.713
367.840	16.436	1070.691	804.727
368.854	16.449	1069.845	804.082
369.869	16.521	1068.898	803.644
370.883	16.426	1067.878	802.353
371.898	16.464	1067.103	801.878
372.913	16.456	1066.903	801.618
373.927	16.559	1066.187	801.499
374.942	16.634	1065.783	801.478
375.956	16.422	1065.613	800.275
376.971	16.575	1064.890	800.389
377.986	16.694	1064.476	800.567
379.000	16.680	1063.873	799.976
380.015	16.693	1063.027	799.332
381.029	16.720	1062.294	798.835
382.044	16.773	1061.384	798.332
383.059	16.797	1060.656	797.825
384.073	16.799	1060.325	797.517
385.088	16.642	1059.607	796.168
386.102	16.774	1058.128	795.608
387.117	16.662	1057.369	794.438
388.132	16.713	1056.291	793.797
389.146	16.698	1056.029	793.459
390.161	16.797	1055.021	793.094
391.175	16.844	1054.088	792.545
392.190	16.750	1053.538	791.622
393.205	16.828	1053.002	791.514
394.219	16.817	1052.210	790.797
395.234	16.784	1051.107	789.746
396.248	16.806	1050.374	789.227
397.263	16.780	1049.198	788.153
398.278	16.835	1048.623	787.906
399.292	16.821	1048.270	787.507
400.307	16.796	1047.322	786.605
401.321	16.762	1046.850	786.028
402.336	16.810	1046.103	785.616
403.350	16.853	1045.099	784.994
404.365	16.845	1044.565	784.487
405.380	16.992	1044.087	784.735
406.394	16.913	1043.540	783.893
407.409	17.005	1042.136	783.191
408.423	17.079	1041.599	783.062
409.438	17.020	1040.922	782.208
410.453	17.052	1040.417	781.910
411.467	17.137	1039.667	781.666
412.482	17.203	1039.196	781.550
413.496	17.153	1038.468	780.700
414.511	17.197	1037.703	780.258
415.526	17.178	1037.516	779.964
416.540	17.287	1037.198	780.153
417.555	17.326	1036.539	779.769
418.569	17.258	1035.891	778.900
419.584	17.255	1035.630	778.621
420.599	17.333	1035.013	778.448
421.613	103.581	1323.584	1471.774
422.628	94.898	1365.590	1471.896
