DTS Sentinel unit serial number:	SN413079Multiplexer serial number:	ORYXHardware model number:	OX4-SRSoftware version number:	ORYX F/W v4.00 Oryx Data Collector v3.7.2.0data status	okinstallation	princeton_trtdifferential loss correction	single-endedforward channel	channel 2reverse channel	N/Adate	2019/09/17time	12:59:35forward acquisition time	60.00reverse acquisition time	0.00gamma	496.2192k internal	0.2318k external	0.2318temperature offset calibration	0.9985default loss term (dB/km)	0.3790temperature slope calibration	1.0000multiplexer offset coefficient	1.0000multiplexer slope coefficient	1.0000fibre end	0.00T internal ref (°C)	33.30T ext. ref 1 (°C)	0.41T ext. ref 2 (°C)	31.44length (m)	temperature (°C)	Stokes	anti-Stokes-747.200	326.805	0.144	-0.278
-746.185	163.731	0.134	0.190
-745.171	-35.543	-0.338	-0.186
-744.156	539.948	-0.069	0.165
-743.142	-30.138	0.337	-0.194
-742.127	71.153	0.215	0.225
-741.112	228.590	0.156	-0.258
-740.098	199.454	0.155	0.240
-739.083	-47.756	0.118	-0.058
-738.069	-200.000	0.022	0.137
-737.054	-200.000	-0.001	-0.186
-736.039	-41.654	-0.135	-0.070
-735.025	-59.704	-0.151	-0.065
-734.010	-14.988	-0.416	-0.270
-732.996	-200.000	-0.037	0.172
-731.981	1.907	-0.061	0.044
-730.966	-83.739	0.153	0.049
-729.952	-142.604	-0.360	0.036
-728.937	54.469	-0.142	-0.138
-727.923	134.478	0.221	0.290
-726.908	-111.839	-0.168	-0.034
-725.894	263.681	-0.067	0.117
-724.879	-73.846	-0.093	-0.034
-723.864	60.993	-0.135	0.135
-722.850	-10.267	-0.392	0.263
-721.835	800.000	-0.105	0.299
-720.821	-106.992	0.101	-0.023
-719.806	201.670	0.064	-0.099
-718.791	800.000	-0.090	-0.253
-717.777	-200.000	-0.020	-0.369
-716.762	228.029	0.072	-0.119
-715.748	800.000	0.040	-0.169
-714.733	84.834	0.248	-0.275
-713.718	-152.062	0.266	-0.020
-712.704	800.000	0.033	0.121
-711.689	0.662	-0.159	0.115
-710.675	800.000	-0.096	-0.324
-709.660	10.404	-0.108	-0.083
-708.645	0.578	-0.174	-0.125
-707.631	-200.000	-0.026	-0.249
-706.616	283.369	-0.134	0.242
-705.602	306.366	-0.085	-0.159
-704.587	-172.413	-0.278	-0.009
-703.572	-36.028	0.347	-0.190
-702.558	-88.922	-0.184	0.055
-701.543	800.000	0.033	-0.142
-700.529	-97.624	0.099	-0.026
-699.514	452.893	0.081	0.181
-698.499	520.156	0.118	-0.279
-697.485	-30.936	0.188	0.107
-696.470	-90.644	0.480	-0.140
-695.456	73.953	0.229	-0.243
-694.441	0.496	-0.200	-0.145
-693.426	79.256	0.191	-0.206
-692.412	19.242	0.060	0.049
-691.397	496.475	0.113	0.262
-690.383	800.000	0.104	-0.300
-689.368	-200.000	0.074	-0.339
-688.354	-35.290	-0.074	0.041
-687.339	411.936	0.064	-0.137
-686.324	-38.703	0.209	0.111
-685.310	33.647	-0.095	-0.083
-684.295	-163.633	-0.287	-0.014
-683.281	-139.384	0.193	0.021
-682.266	-191.869	0.239	0.002
-681.251	-82.563	0.119	-0.039
-680.237	289.031	-0.085	-0.155
-679.222	17.375	-0.163	-0.131
-678.208	211.598	-0.238	-0.379
-677.193	-200.000	0.011	-0.100
-676.178	800.000	-0.112	0.382
-675.164	800.000	0.055	-0.225
-674.149	102.725	0.089	-0.105
-673.135	800.000	-0.050	-0.148
-672.120	800.000	0.065	0.206
-671.105	-29.134	0.298	-0.172
-670.091	800.000	0.009	-0.029
-669.076	120.259	0.229	0.287
-668.062	-69.893	0.088	-0.034
-667.047	800.000	-0.035	0.097
-666.032	800.000	-0.162	-0.478
-665.018	-152.249	-0.021	0.002
-664.003	-160.196	-0.269	0.015
-662.989	9.526	-0.159	0.121
-661.974	-200.000	0.020	-0.215
-660.959	0.138	-0.183	0.132
-659.945	800.000	0.011	-0.039
-658.930	-4.481	0.131	0.091
-657.916	198.197	-0.107	-0.164
-656.901	-84.372	-0.219	0.070
-655.886	-9.515	-0.173	-0.116
-654.872	736.522	0.082	0.223
-653.857	222.405	0.069	-0.112
-652.843	-83.224	-0.152	0.049
-651.828	-200.000	0.014	0.168
-650.814	-200.000	-0.066	-0.395
-649.799	-44.653	-0.181	-0.091
-648.784	256.293	0.143	-0.247
-647.770	-74.030	-0.249	-0.091
-646.755	433.858	-0.085	0.186
-645.741	788.971	0.076	0.212
-644.726	800.000	-0.032	0.102
-643.711	-99.165	0.421	0.107
-642.697	-51.926	-0.250	-0.117
-641.682	7.520	-0.235	-0.177
-640.668	-200.000	0.016	-0.106
-639.653	326.392	-0.225	-0.434
-638.638	-200.000	-0.055	0.400
-637.624	-93.927	0.283	0.078
-636.609	-136.040	-0.201	0.024
-635.595	-53.939	-0.136	-0.063
-634.580	800.000	0.070	-0.304
-633.565	-62.671	-0.400	-0.167
-632.551	-200.000	-0.016	0.083
-631.536	-88.795	0.232	-0.069
-630.522	-94.521	-0.099	-0.027
-629.507	738.080	-0.018	-0.048
-628.492	-116.183	-0.237	-0.044
-627.478	-60.807	-0.159	0.068
-626.463	-1.133	0.127	0.090
-625.449	483.750	0.043	-0.098
-624.434	69.088	-0.076	0.079
-623.419	253.115	0.185	0.318
-622.405	21.890	0.348	-0.286
-621.390	-13.194	-0.074	-0.049
-620.376	287.415	-0.119	-0.217
-619.361	800.000	0.016	-0.051
-618.346	-200.000	-0.024	0.296
-617.332	399.787	0.120	0.252
-616.317	5.323	0.163	-0.121
-615.303	160.419	0.164	0.230
-614.288	-113.139	0.173	-0.034
-613.273	-84.229	0.513	-0.164
-612.259	145.383	-0.240	0.323
-611.244	-63.708	0.039	0.016
-610.230	-115.539	-0.343	0.065
-609.215	-200.000	0.017	0.248
-608.201	-200.000	-0.019	-0.103
-607.186	800.000	-0.075	0.295
-606.171	-58.573	0.202	0.088
-605.157	-200.000	-0.009	-0.126
-604.142	620.497	-0.078	0.197
-603.128	11.431	0.387	0.298
-602.113	-103.939	-0.183	-0.043
-601.098	-21.662	0.188	-0.115
-600.084	314.847	-0.072	-0.136
-599.069	800.000	0.023	-0.065
-598.055	49.542	0.194	0.184
-597.040	-112.652	0.262	-0.052
-596.025	-200.000	0.018	-0.080
-595.011	-200.000	0.017	-0.160
-593.996	125.359	0.038	0.048
-592.982	15.986	-0.260	-0.206
-591.967	47.641	0.089	0.083
-590.952	-70.333	-0.233	-0.089
-589.938	-39.159	-0.169	0.089
-588.923	-200.000	-0.019	-0.260
-587.909	800.000	-0.054	-0.235
-586.894	-137.111	0.279	-0.032
-585.879	-143.932	0.247	-0.023
-584.865	84.405	0.106	-0.117
-583.850	-41.085	0.178	0.092
-582.836	134.838	0.118	0.154
-581.821	-111.474	-0.169	0.035
-580.806	-39.119	-0.129	-0.068
-579.792	327.313	0.142	-0.275
-578.777	-200.000	-0.008	0.115
-577.763	-62.557	-0.071	0.030
-576.748	800.000	-0.098	-0.395
-575.733	74.244	-0.087	-0.092
-574.719	106.336	0.092	-0.110
-573.704	-148.268	-0.133	0.011
-572.690	-200.000	0.033	0.478
-571.675	800.000	0.037	-0.154
-570.661	384.362	0.158	0.327
-569.646	3.041	0.232	-0.169
-568.631	-155.716	0.152	0.010
-567.617	-108.772	-0.230	0.050
-566.602	-200.000	0.007	-0.270
-565.588	-0.067	-0.231	-0.165
-564.573	170.833	-0.094	0.135
-563.558	-109.714	-0.199	0.042
-562.544	82.669	-0.155	-0.169
-561.529	34.390	0.243	-0.213
-560.515	131.093	-0.170	-0.219
-559.500	-4.208	-0.102	-0.071
-558.485	-7.240	0.331	-0.226
-557.471	-200.000	-0.029	0.146
-556.456	-57.601	0.120	0.053
-555.442	-36.441	-0.415	0.225
-554.427	304.580	-0.066	0.123
-553.412	800.000	-0.060	0.182
-552.398	-114.348	-0.140	0.027
-551.383	-98.799	0.130	-0.033
-550.369	459.019	-0.075	-0.168
-549.354	800.000	-0.041	0.130
-548.339	-200.000	-0.019	-0.142
-547.325	-153.433	0.137	0.010
-546.310	-108.622	-0.244	0.053
-545.296	100.132	-0.223	-0.260
-544.281	123.962	-0.080	0.101
-543.266	-82.891	-0.109	-0.035
-542.252	554.813	-0.098	-0.238
-541.237	-105.830	0.241	-0.055
-540.223	-96.075	-0.171	-0.046
-539.208	-145.362	-0.244	-0.022
-538.193	338.836	-0.043	-0.084
-537.179	-126.312	0.152	0.023
-536.164	120.220	-0.314	0.391
-535.150	-122.714	0.438	-0.071
-534.135	-171.594	0.156	0.005
-533.121	800.000	-0.071	-0.265
-532.106	-200.000	0.022	0.297
-531.091	-61.124	0.263	-0.111
-530.077	-83.899	-0.096	0.031
-529.062	800.000	0.061	-0.200
-528.048	800.000	0.100	0.298
-527.033	-200.000	-0.022	0.454
-526.018	-42.934	0.114	0.058
-525.004	318.501	-0.167	0.316
-523.989	88.145	-0.066	-0.074
-522.975	-91.055	-0.168	0.048
-521.960	-148.666	-0.138	0.011
-520.945	373.674	0.073	0.149
-519.931	201.283	0.153	0.236
-518.916	-126.180	-0.321	-0.048
-517.902	800.000	-0.070	0.207
-516.887	-49.273	0.149	-0.072
-515.872	-87.425	-0.067	0.020
-514.858	-37.705	0.204	-0.109
-513.843	-53.029	-0.151	0.069
-512.829	-118.841	-0.143	0.025
-511.814	-200.000	-0.034	0.201
-510.799	65.391	-0.124	0.126
-509.785	127.882	0.156	0.199
-508.770	-200.000	-0.022	-0.100
-507.756	-32.566	0.330	0.184
-506.741	-200.000	0.045	-0.303
-505.726	30.905	0.273	-0.234
-504.712	-44.102	-0.163	0.082
-503.697	-62.447	-0.068	0.028
-502.683	69.646	0.248	-0.256
-501.668	-19.333	-0.074	-0.046
-500.653	800.000	-0.024	0.069
-499.639	800.000	-0.039	0.138
-498.624	55.070	0.273	-0.264
-497.610	75.283	0.292	0.309
-496.595	686.607	-0.102	-0.267
-495.581	800.000	0.049	0.179
-494.566	-74.388	-0.236	0.086
-493.551	-128.959	0.246	0.035
-492.537	-144.816	-0.159	0.015
-491.522	33.932	-0.178	-0.156
-490.508	-48.316	-0.362	0.175
-489.493	120.754	0.106	-0.132
-488.478	570.730	0.129	0.316
-487.464	-189.859	-0.263	-0.003
-486.449	-94.539	0.261	0.071
-485.435	32.206	0.067	0.058
-484.420	-142.877	0.130	0.013
-483.405	185.310	-0.352	0.524
-482.391	218.260	0.109	0.174
-481.376	-99.251	-0.086	-0.022
-480.362	-96.720	-0.092	-0.024
-479.347	63.926	0.254	-0.256
-478.332	800.000	-0.087	-0.243
-477.318	-163.712	-0.318	0.015
-476.303	-84.590	-0.255	0.080
-475.289	8.333	-0.231	0.174
-474.274	-200.000	-0.019	-0.101
-473.259	-89.360	-0.351	-0.104
-472.245	76.420	-0.081	0.086
-471.230	-132.796	-0.126	0.016
-470.216	-74.932	0.055	0.020
-469.201	-75.744	-0.288	0.102
-468.186	229.790	-0.113	-0.184
-467.172	800.000	-0.053	-0.196
-466.157	-200.000	-0.004	0.091
-465.143	77.508	-0.219	0.233
-464.128	-200.000	0.018	-0.134
-463.113	800.000	-0.075	0.287
-462.099	-51.812	0.224	0.104
-461.084	-160.829	-0.435	0.023
-460.070	-75.716	0.033	0.012
-459.055	-150.034	-0.153	-0.012
-458.040	129.336	0.173	-0.222
-457.026	-14.137	-0.240	-0.155
-456.011	73.636	0.090	0.094
-454.997	-200.000	-0.003	0.035
-453.982	-116.335	0.339	0.063
-452.968	-43.240	-0.552	-0.280
-451.953	32.957	0.106	0.091
-450.938	113.820	-0.058	-0.071
-449.924	1.055	-0.155	0.111
-448.909	72.528	-0.228	0.238
-447.895	-200.000	0.013	0.255
-446.880	-62.084	0.285	-0.119
-445.865	-86.498	-0.606	-0.186
-444.851	800.000	-0.038	0.125
-443.836	0.082	-0.084	-0.060
-442.822	-157.374	-0.377	-0.023
-441.807	517.383	-0.255	-0.596
-440.792	-200.000	0.053	-0.267
-439.778	134.913	-0.085	0.110
-438.763	800.000	0.008	0.035
-437.749	-94.229	0.147	-0.040
-436.734	98.501	0.076	-0.088
-435.719	677.050	0.030	0.079
-434.705	800.000	0.092	0.255
-433.690	-30.598	0.099	0.056
-432.676	-14.793	0.239	-0.153
-431.661	800.000	-0.077	-0.305
-430.646	-119.700	-0.121	-0.021
-429.632	-57.893	0.299	-0.130
-428.617	157.109	-0.105	-0.146
-427.603	-128.950	0.220	-0.031
-426.588	90.510	0.234	0.262
-425.573	159.101	-0.171	0.237
-424.559	-121.980	-0.383	-0.063
-423.544	-133.773	0.179	0.022
-422.530	68.006	0.076	0.077
-421.515	-200.000	0.034	0.240
-420.500	47.820	0.079	0.073
-419.486	188.482	0.043	-0.064
-418.471	-200.000	-0.004	0.161
-417.457	-21.993	-0.266	0.161
-416.442	103.529	0.082	0.096
-415.428	-87.483	-0.023	-0.007
-414.413	-18.081	0.365	0.229
-413.398	-51.381	0.160	0.075
-412.384	800.000	-0.095	-0.350
-411.369	174.312	-0.060	-0.086
-410.355	121.015	-0.135	-0.168
-409.340	86.635	-0.248	-0.273
-408.325	402.504	0.190	-0.398
-407.311	270.140	0.145	-0.254
-406.296	405.341	0.076	0.160
-405.282	-104.251	-0.148	-0.034
-404.267	-200.000	0.003	-0.355
-403.252	-44.897	-0.282	-0.140
-402.238	-153.398	0.147	0.010
-401.223	-200.000	0.053	0.306
-400.209	146.894	0.178	-0.238
-399.194	-74.537	-0.042	0.015
-398.179	6.758	-0.075	0.056
-397.165	-109.131	0.259	-0.055
-396.150	19.567	0.102	-0.082
-395.136	-76.503	0.172	0.060
-394.121	8.205	-0.275	0.206
-393.106	452.554	-0.027	0.060
-392.092	365.434	-0.066	0.133
-391.077	800.000	0.090	-0.250
-390.063	33.053	0.276	-0.239
-389.048	368.372	-0.151	-0.305
-388.033	-80.987	0.073	-0.024
-387.019	1.762	0.323	-0.232
-386.004	-200.000	-0.153	0.000
-384.990	60.490	-0.101	-0.100
-383.975	-121.423	0.049	0.008
-382.960	-116.512	0.120	-0.022
-381.946	-200.000	0.015	-0.257
-380.931	309.017	-0.043	0.081
-379.917	31.836	0.121	0.104
-378.902	-200.000	0.007	0.106
-377.888	571.801	-0.071	-0.173
-376.873	-200.000	-0.020	0.104
-375.858	102.034	0.076	0.089
-374.844	-12.396	-0.078	0.051
-373.829	-200.000	0.007	0.112
-372.815	81.843	-0.086	0.092
-371.800	-200.000	-0.041	0.210
-370.785	800.000	-0.036	-0.111
-369.771	-65.091	-0.227	0.091
-368.756	340.006	-0.108	0.210
-367.742	-5.717	-0.192	-0.131
-366.727	-200.000	0.029	0.570
-365.712	254.903	0.191	-0.327
-364.698	12.368	0.049	-0.038
-363.683	60.525	0.074	-0.073
-362.669	-61.670	-0.332	-0.139
-361.654	-46.972	0.166	-0.081
-360.639	-70.422	0.225	-0.085
-359.625	-74.065	-0.330	-0.119
-358.610	-200.000	-0.020	0.109
-357.596	93.513	-0.026	-0.029
-356.581	-128.685	-0.323	0.045
-355.566	-90.959	-0.321	0.092
-354.552	-200.000	0.015	-0.140
-353.537	18.408	-0.216	0.172
-352.523	2.154	0.141	-0.101
-351.508	-108.730	-0.197	0.042
-350.493	-86.551	-0.117	0.036
-349.479	-3.865	0.132	-0.092
-348.464	-200.000	0.017	0.129
-347.450	-136.277	-0.182	0.021
-346.435	354.418	-0.097	-0.192
-345.420	-200.000	0.040	-0.283
-344.406	-3.230	-0.172	-0.120
-343.391	58.386	0.054	-0.053
-342.377	568.339	-0.082	0.198
-341.362	800.000	-0.104	-0.306
-340.348	5.574	-0.114	-0.084
-339.333	336.790	-0.146	0.282
-338.318	800.000	0.064	-0.179
-337.304	-200.000	-0.011	-0.204
-336.289	-16.041	0.066	-0.042
-335.275	-169.871	-0.174	0.006
-334.260	-158.398	-0.398	-0.023
-333.245	-133.107	0.310	0.039
-332.231	800.000	-0.059	-0.165
-331.216	-200.000	0.030	-0.173
-330.202	-200.000	-0.019	-0.148
-329.187	800.000	-0.068	-0.236
-328.172	800.000	-0.133	0.496
-327.158	-200.000	0.016	0.312
-326.143	24.752	0.251	-0.207
-325.129	-54.614	0.213	0.096
-324.114	800.000	0.077	-0.218
-323.099	-200.000	-0.002	-0.069
-322.085	627.666	-0.062	-0.155
-321.070	-200.000	-0.008	-0.113
-320.056	-129.237	-0.440	0.061
-319.041	22.818	0.026	0.021
-318.026	288.414	0.073	-0.131
-317.012	800.000	-0.080	0.272
-315.997	-94.371	0.256	-0.069
-314.983	800.000	0.061	-0.178
-313.968	-20.586	0.289	-0.176
-312.953	800.000	-0.102	-0.393
-311.939	252.698	-0.048	0.082
-310.924	-200.000	-0.119	0.000
-309.910	800.000	0.028	0.111
-308.895	-1.942	-0.007	0.005
-307.880	441.522	0.026	0.057
-306.866	84.170	0.284	0.309
-305.851	-34.435	-0.085	-0.046
-304.837	32.549	0.062	0.053
-303.822	-106.979	0.191	0.042
-302.807	-200.000	-0.014	-0.147
-301.793	286.881	0.163	0.292
-300.778	-200.000	-0.004	-0.142
-299.764	188.168	-0.187	0.278
-298.749	-126.499	0.131	0.019
-297.735	-116.418	0.242	0.044
-296.720	800.000	-0.054	-0.179
-295.705	800.000	0.043	-0.143
-294.691	23.655	0.092	0.075
-293.676	-200.000	0.001	-0.051
-292.662	-200.000	0.024	-0.319
-291.647	-123.817	0.157	0.025
-290.632	-200.000	0.015	0.315
-289.618	665.595	0.075	-0.191
-288.603	474.722	0.108	-0.241
-287.589	-60.584	0.254	-0.107
-286.574	2.039	0.184	0.132
-285.559	347.514	-0.131	-0.256
-284.545	2.037	-0.086	0.062
-283.530	331.639	-0.025	0.048
-282.516	-28.560	-0.100	-0.057
-281.501	90.816	0.281	-0.313
-280.486	800.000	0.091	-0.259
-279.472	578.785	0.116	0.283
-278.457	-200.000	-0.009	0.258
-277.443	728.470	0.048	-0.127
-276.428	368.706	0.020	-0.040
-275.413	144.886	0.174	0.231
-274.399	769.145	-0.044	-0.120
-273.384	216.246	0.073	0.116
-272.370	49.234	-0.037	0.035
-271.355	-122.053	-0.203	0.033
-270.340	-6.624	-0.181	0.123
-269.326	-68.622	-0.115	-0.044
-268.311	68.224	-0.108	-0.110
-267.297	45.875	-0.217	0.199
-266.282	159.236	0.165	0.228
-265.267	-200.000	-0.010	0.061
-264.253	800.000	0.077	0.227
-263.238	-45.074	0.232	0.115
-262.224	134.795	-0.235	0.303
-261.209	214.766	-0.078	-0.123
-260.195	-21.598	-0.293	-0.178
-259.180	176.885	-0.062	-0.089
-258.165	49.073	-0.057	0.053
-257.151	225.806	0.117	-0.189
-256.136	-24.941	0.035	-0.020
-255.122	-200.000	-0.029	0.231
-254.107	325.843	0.210	0.399
-253.092	18.931	-0.057	-0.045
-252.078	153.058	0.124	0.168
-251.063	-200.000	-0.052	0.278
-250.049	-49.677	-0.202	0.095
-249.034	-85.135	0.429	-0.133
-248.019	245.458	-0.104	0.173
-247.005	-200.000	0.035	0.267
-245.990	-11.809	0.229	-0.149
-244.976	800.000	-0.046	0.144
-243.961	-16.150	0.109	-0.069
-242.946	-200.000	-0.033	0.244
-241.932	150.457	-0.117	0.157
-240.917	-36.479	-0.398	0.213
-239.903	-149.456	0.136	-0.011
-238.888	800.000	0.047	0.154
-237.873	-46.495	0.359	0.175
-236.859	-0.726	0.200	-0.140
-235.844	-3.053	0.067	-0.046
-234.830	-23.658	-0.021	-0.012
-233.815	-96.191	-0.138	0.036
-232.800	-200.000	0.011	-0.048
-231.786	800.000	0.107	-0.368
-230.771	84.479	-0.271	0.294
-229.757	-200.000	0.014	0.074
-228.742	-92.620	-0.140	-0.039
-227.727	331.651	0.109	0.208
-226.713	-120.645	0.355	0.060
-225.698	-96.659	0.100	0.026
-224.684	215.879	0.130	0.205
-223.669	-200.000	0.004	0.259
-222.655	-173.529	-0.329	0.010
-221.640	9.592	-0.058	-0.044
-220.625	-57.836	0.218	0.095
-219.611	49.303	0.317	0.295
-218.596	800.000	-0.027	-0.080
-217.582	81.620	-0.101	-0.109
-216.567	-158.090	0.528	-0.031
-215.552	-82.631	-0.263	0.084
-214.538	-1.061	0.160	0.112
-213.523	-115.692	0.197	-0.037
-212.509	-200.000	-0.020	0.140
-211.494	-200.000	0.039	-0.537
-210.479	175.158	0.061	0.087
-209.465	-37.876	0.166	0.088
-208.450	-200.000	0.051	0.345
-207.436	1.492	0.019	-0.013
-206.421	5.109	0.149	-0.109
-205.406	14.070	-0.024	0.018
-204.392	-200.000	-0.006	0.137
-203.377	-39.669	-0.195	0.101
-202.363	-148.187	-0.114	-0.009
-201.348	-71.335	0.323	-0.120
-200.333	800.000	0.050	-0.156
-199.319	-100.652	0.147	-0.036
-198.304	-200.000	-0.057	-0.278
-197.290	800.000	0.157	-0.446
-196.275	-97.826	0.409	0.105
-195.260	-134.539	0.265	-0.032
-194.246	-98.597	0.163	-0.041
-193.231	-200.000	-0.011	0.070
-192.217	-157.140	0.359	-0.022
-191.202	-72.192	0.133	0.049
-190.187	535.211	0.093	0.218
-189.173	800.000	0.060	0.190
-188.158	395.021	-0.067	0.138
-187.144	-98.231	0.331	0.084
-186.129	42.063	-0.146	0.132
-185.114	119.954	0.056	-0.069
-184.100	-200.000	-0.027	-0.200
-183.085	-200.000	-0.029	-0.263
-182.071	-200.000	0.106	0.000
-181.056	605.682	-0.147	0.362
-180.042	-121.724	0.157	-0.026
-179.027	-200.000	0.017	-0.120
-178.012	250.363	0.054	0.091
-176.998	262.028	0.083	0.142
-175.983	567.229	0.058	-0.140
-174.969	577.937	-0.109	0.265
-173.954	800.000	-0.080	-0.255
-172.939	-200.000	0.019	-0.448
-171.925	179.859	0.037	0.053
-170.910	-200.000	-0.054	-0.324
-169.896	-107.676	0.082	-0.018
-168.881	-87.355	0.070	-0.021
-167.866	-200.000	-0.024	-0.118
-166.852	74.734	-0.095	0.099
-165.837	-38.704	0.140	-0.073
-164.823	-200.000	0.003	-0.067
-163.808	-128.042	-0.084	0.012
-162.793	616.672	-0.029	0.071
-161.779	-84.408	-0.355	-0.111
-160.764	444.232	0.096	-0.209
-159.750	13.628	0.022	0.017
-158.735	-70.871	0.195	0.073
-157.720	-158.890	0.166	-0.009
-156.706	464.205	0.027	0.059
-155.691	16.145	-0.314	0.245
-154.677	-200.000	0.046	-0.255
-153.662	-164.072	-0.370	0.017
-152.647	-200.000	0.002	0.053
-151.633	-200.000	0.005	-0.097
-150.618	199.526	0.139	0.211
-149.604	-200.000	-0.004	-0.092
-148.589	28.821	0.242	0.202
-147.574	800.000	-0.077	0.262
-146.560	37.383	0.359	0.315
-145.545	449.284	0.200	0.435
-144.531	800.000	0.051	0.218
-143.516	-4.460	0.296	-0.202
-142.502	-35.422	-0.204	0.110
-141.487	-80.654	-0.148	-0.049
-140.472	-200.000	-0.024	0.353
-139.458	-200.000	0.007	0.173
-138.443	-191.193	0.235	-0.002
-137.429	138.923	0.221	0.287
-136.414	-133.358	0.359	-0.045
-135.399	-15.211	-0.180	0.114
-134.385	-70.822	-0.124	-0.046
-133.370	-200.000	-0.006	-0.061
-132.356	800.000	-0.082	-0.325
-131.341	-200.000	-0.021	0.229
-130.326	-67.999	0.082	-0.031
-129.312	228.171	-0.251	-0.404
-128.297	402.622	0.112	-0.233
-127.283	-200.000	0.023	-0.203
-126.268	643.754	0.055	-0.138
-125.253	-23.514	0.215	0.128
-124.239	-78.395	0.037	-0.012
-123.224	-140.314	0.390	0.040
-122.210	551.640	-0.014	-0.032
-121.195	800.000	0.147	0.488
-120.180	-18.316	-0.164	-0.101
-119.166	-104.984	-0.384	-0.087
-118.151	705.378	0.142	-0.370
-117.137	292.253	0.033	0.060
-116.122	438.031	-0.069	0.148
-115.107	-32.778	-0.247	0.136
-114.093	525.566	-0.047	-0.109
-113.078	7.999	0.119	0.088
-112.064	-200.000	0.006	0.492
-111.049	48.188	0.141	0.130
-110.034	-129.154	0.331	0.046
-109.020	-132.614	0.297	0.038
-108.005	-50.594	0.136	0.063
-106.991	-200.000	0.065	-0.318
-105.976	21.163	0.173	0.138
-104.962	-200.000	0.017	0.176
-103.947	-100.198	-0.243	-0.060
-102.932	-200.000	0.009	-0.085
-101.918	17.935	-0.122	-0.096
-100.903	-114.543	-0.279	-0.053
-99.889	800.000	-0.100	-0.346
-98.874	-58.954	0.122	0.052
-97.859	-200.000	-0.023	0.155
-96.845	-77.132	-0.021	0.007
-95.830	399.557	0.141	0.292
-94.816	800.000	0.062	-0.246
-93.801	73.359	0.389	-0.402
-92.786	96.144	-0.085	-0.096
-91.772	210.592	0.011	0.017
-90.757	-10.978	0.065	-0.042
-89.743	-200.000	0.022	-0.188
-88.728	449.437	-0.154	-0.334
-87.713	107.889	-0.114	-0.134
-86.699	10.415	0.205	-0.154
-85.684	-164.910	0.185	-0.008
-84.670	-200.000	-0.022	-0.338
-83.655	-40.858	0.330	-0.168
-82.640	173.113	0.046	0.065
-81.626	-81.375	-0.276	0.090
-80.611	-200.000	0.003	-0.036
-79.597	-174.791	0.095	0.003
-78.582	-200.000	0.029	-0.271
-77.567	-54.462	-0.094	-0.042
-76.553	127.936	0.037	0.046
-75.538	106.956	0.083	-0.097
-74.524	-200.000	-0.001	-0.017
-73.509	-43.574	0.160	0.080
-72.494	190.904	0.100	0.149
-71.480	-200.000	0.015	0.264
-70.465	-143.525	0.243	-0.023
-69.451	-37.595	0.101	0.053
-68.436	28.886	0.182	0.152
-67.422	52.470	-0.137	0.129
-66.407	228.957	0.151	0.243
-65.392	-126.837	0.184	-0.027
-64.378	-120.308	0.230	-0.039
-63.363	45.864	0.305	-0.278
-62.349	56.786	0.263	0.252
-61.334	70.194	-0.863	-0.878
-60.319	283.361	0.413	0.731
-59.305	800.000	-0.170	-0.539
-58.290	251.698	0.745	1.250
-57.276	291.784	0.849	1.523
-56.261	-200.000	96.503	561.058
-55.246	511.634	1427.717	3274.310
-54.232	146.373	2645.583	3498.607
-53.217	104.145	2334.924	2704.805
-52.203	42.437	1942.043	1739.476
-51.188	36.415	1728.670	1501.655
-50.173	33.887	1683.749	1443.398
-49.159	50.259	1731.284	1610.617
-48.144	52.456	1748.561	1643.547
-47.130	36.236	1705.994	1480.346
-46.115	33.425	1690.794	1445.684
-45.100	33.154	1686.478	1439.871
-44.086	33.252	1683.364	1437.898
-43.071	33.150	1680.879	1434.947
-42.057	33.078	1678.617	1432.415
-41.042	33.234	1676.207	1431.479
-40.027	33.174	1674.930	1429.880
-39.013	33.126	1672.667	1427.530
-37.998	33.209	1670.438	1426.197
-36.984	33.206	1669.676	1425.470
-35.969	33.395	1667.824	1425.249
-34.954	33.380	1666.336	1423.812
-33.940	33.273	1664.727	1421.578
-32.925	33.248	1663.118	1419.958
-31.911	33.384	1660.691	1418.850
-30.896	33.262	1659.208	1416.611
-29.881	33.237	1657.699	1415.082
-28.867	33.317	1655.801	1414.002
-27.852	33.264	1654.165	1412.148
-26.838	33.408	1652.647	1411.876
-25.823	33.227	1651.767	1409.719
-24.809	33.315	1650.087	1408.883
-23.794	33.309	1648.211	1407.182
-22.779	33.417	1647.036	1406.921
-21.765	33.363	1644.973	1404.706
-20.750	33.272	1643.513	1402.729
-19.736	33.326	1641.846	1401.646
-18.721	33.301	1640.466	1400.229
-17.706	33.244	1639.230	1398.701
-16.692	33.344	1637.346	1397.775
-15.677	33.259	1636.250	1396.153
-14.663	33.347	1634.411	1395.176
-13.648	33.313	1633.144	1393.789
-12.633	33.262	1631.582	1392.032
-11.619	33.376	1629.795	1391.289
-10.604	33.338	1628.449	1389.801
-9.590	33.332	1627.152	1388.594
-8.575	33.406	1625.925	1388.034
-7.560	33.300	1624.964	1386.387
-6.546	33.344	1623.969	1385.806
-5.531	33.227	1622.708	1383.815
-4.517	33.322	1621.073	1383.063
-3.502	33.328	1620.045	1382.175
-2.487	33.434	1618.820	1381.845
-1.473	33.391	1607.785	1372.064
-0.458	31.352	1589.231	1341.551
0.556	26.440	1589.503	1310.367
1.571	23.826	1613.103	1310.461
2.586	22.793	1626.026	1313.162
3.600	20.510	1572.339	1253.250
4.615	11.577	1458.174	1102.146
5.629	2.512	1388.857	991.191
6.644	0.578	1379.748	972.164
7.659	0.431	1377.725	969.706
8.673	0.351	1377.212	968.746
9.688	0.280	1375.440	966.955
10.702	0.161	1372.628	964.134
11.717	4.128	1379.369	994.278
12.731	13.249	1393.513	1063.287
13.746	18.035	1399.821	1098.859
14.761	17.459	1397.650	1093.358
15.775	16.549	1394.459	1084.932
16.790	15.418	1392.407	1075.990
17.804	14.712	1389.667	1069.260
18.819	14.260	1388.903	1065.685
19.834	13.980	1386.849	1062.226
20.848	13.765	1385.724	1059.896
21.863	13.514	1384.478	1057.243
22.877	13.428	1382.829	1055.344
23.892	13.308	1382.660	1054.359
24.907	13.282	1381.376	1053.117
25.921	13.333	1380.089	1052.369
26.936	13.429	1379.145	1052.166
27.950	13.330	1378.815	1051.193
28.965	13.418	1377.916	1050.972
29.980	13.495	1376.948	1050.626
30.994	13.564	1375.689	1050.014
32.009	13.533	1374.723	1048.986
33.023	13.547	1373.694	1048.200
34.038	13.522	1372.502	1047.040
35.053	13.452	1371.522	1045.753
36.067	13.419	1370.563	1044.722
37.082	13.496	1369.019	1043.935
38.096	13.408	1368.405	1042.825
39.111	13.501	1367.698	1042.780
40.126	13.520	1366.494	1041.889
41.140	13.381	1365.291	1040.006
42.155	13.319	1365.100	1039.379
43.169	13.287	1365.264	1039.211
44.184	13.289	1364.657	1038.665
45.199	13.354	1363.684	1038.244
46.213	13.332	1363.514	1037.886
47.228	13.328	1362.982	1037.364
48.242	13.345	1361.587	1036.317
49.257	13.421	1359.951	1035.454
50.271	13.502	1358.384	1034.673
51.286	13.459	1357.005	1033.263
52.301	13.459	1355.817	1032.269
53.315	13.328	1355.222	1030.905
54.330	13.326	1354.026	1029.894
55.344	13.356	1352.553	1028.871
56.359	13.362	1351.383	1027.924
57.374	13.395	1350.556	1027.410
58.388	13.251	1349.949	1025.965
59.403	13.287	1349.275	1025.585
60.417	13.310	1348.844	1025.308
61.432	13.161	1347.896	1023.575
62.447	13.281	1346.668	1023.291
63.461	13.196	1345.555	1021.831
64.476	13.285	1344.441	1021.445
65.490	13.259	1343.314	1020.339
66.505	13.227	1341.757	1018.865
67.520	13.285	1340.282	1018.016
68.534	13.317	1339.622	1017.620
69.549	13.301	1338.300	1016.429
70.563	13.194	1336.946	1014.654
71.578	13.185	1336.106	1013.869
72.593	13.245	1335.053	1013.349
73.607	13.192	1334.458	1012.485
74.622	13.245	1333.198	1011.761
75.636	13.237	1332.529	1011.117
76.651	13.190	1331.511	1009.964
77.666	13.195	1331.493	1009.895
78.680	13.119	1330.962	1008.941
79.695	13.151	1330.554	1008.736
80.709	13.198	1329.177	1007.887
81.724	13.191	1328.221	1007.030
82.739	13.324	1327.081	1006.888
83.753	13.353	1326.209	1006.316
84.768	13.280	1325.547	1005.279
85.782	13.444	1324.114	1005.096
86.797	13.332	1322.632	1003.209
87.812	13.327	1321.598	1002.303
88.826	13.441	1320.543	1002.103
89.841	13.386	1319.772	1001.096
90.855	13.473	1318.450	1000.529
91.870	13.410	1317.579	999.404
92.884	13.485	1316.735	999.128
93.899	13.583	1315.561	998.739
94.914	13.554	1315.007	998.052
95.928	13.633	1314.214	997.840
96.943	13.468	1313.556	996.255
97.957	13.558	1312.283	995.744
98.972	13.467	1311.362	994.415
99.987	13.519	1310.256	993.798
101.001	13.426	1309.530	992.602
102.016	13.525	1308.790	992.547
103.030	13.523	1307.399	991.391
104.045	13.383	1307.105	990.245
105.060	13.495	1305.384	989.520
106.074	13.435	1304.183	988.164
107.089	13.327	1302.958	986.505
108.103	13.305	1301.664	985.305
109.118	13.278	1300.576	984.237
110.133	13.325	1299.190	983.381
111.147	13.348	1297.609	982.233
112.162	13.350	1296.276	981.145
113.176	13.380	1295.052	980.312
114.191	13.465	1293.979	979.919
115.206	13.392	1292.991	978.647
116.220	13.339	1291.894	977.421
117.235	13.374	1291.000	976.864
118.249	13.369	1290.114	976.079
119.264	13.387	1288.521	974.892
120.279	13.397	1287.843	974.350
121.293	13.329	1286.677	972.985
122.308	13.281	1285.758	971.918
123.322	13.227	1284.794	970.790
124.337	13.311	1283.787	970.433
125.352	13.303	1282.086	969.012
126.366	13.344	1281.357	968.618
127.381	13.380	1279.783	967.551
128.395	13.329	1279.042	966.608
129.410	13.418	1277.926	966.200
130.424	13.373	1277.238	965.334
131.439	13.393	1276.637	964.911
132.454	13.365	1275.588	963.867
133.468	13.462	1274.303	963.375
134.483	13.375	1274.054	962.597
135.497	13.390	1273.207	961.957
136.512	13.349	1271.989	960.713
137.527	13.461	1270.379	960.065
138.541	13.472	1269.079	959.061
139.556	13.392	1268.039	957.725
140.570	13.445	1267.002	957.165
141.585	13.505	1265.421	956.231
142.600	13.449	1264.551	955.164
143.614	13.576	1263.361	954.918
144.629	13.672	1261.916	954.294
145.643	13.598	1260.972	953.070
146.658	13.556	1259.719	951.793
147.673	13.436	1258.619	950.188
148.687	13.479	1257.093	949.199
149.702	13.479	1255.668	948.041
150.716	13.481	1254.446	947.046
151.731	13.541	1252.915	946.148
152.746	13.536	1252.052	945.388
153.760	13.497	1250.827	944.153
154.775	13.528	1249.666	943.372
155.789	13.553	1249.097	943.003
156.804	13.599	1247.359	941.866
157.819	13.656	1245.857	940.975
158.833	13.696	1245.518	940.863
159.848	13.684	1244.547	939.977
160.862	13.670	1243.461	938.995
161.877	13.610	1242.567	937.893
162.892	13.607	1241.562	937.039
163.906	13.534	1240.911	936.051
164.921	13.644	1239.395	935.447
165.935	13.555	1238.655	934.300
166.950	13.727	1237.706	934.470
167.964	13.681	1237.058	933.641
168.979	13.647	1236.382	932.856
169.994	13.530	1236.056	931.872
171.008	13.646	1235.207	931.797
172.023	13.820	1233.834	931.657
173.037	13.744	1233.083	930.580
174.052	13.773	1232.502	930.221
175.067	13.805	1230.832	929.061
176.081	13.743	1230.112	928.090
177.096	13.678	1229.567	927.230
178.110	13.845	1227.857	926.794
179.125	13.760	1227.152	925.702
180.140	13.762	1225.722	924.555
181.154	13.734	1224.468	923.374
182.169	13.777	1223.596	922.870
183.183	13.816	1222.405	922.106
184.198	13.860	1221.002	921.215
185.213	13.825	1219.959	920.151
186.227	13.970	1218.846	920.035
187.242	14.023	1217.992	919.601
188.256	14.041	1216.417	918.429
189.271	13.995	1216.397	918.078
190.286	13.919	1215.038	916.553
191.300	13.891	1214.327	915.779
192.315	13.786	1213.647	914.608
193.329	13.732	1212.779	913.573
194.344	13.778	1211.890	913.079
195.359	13.889	1211.348	913.196
196.373	13.922	1211.038	913.066
197.388	14.016	1210.399	913.019
198.402	14.061	1209.830	912.758
199.417	14.244	1208.941	913.009
200.432	14.151	1208.044	911.741
201.446	14.211	1207.527	911.597
202.461	14.247	1206.213	910.722
203.475	14.239	1205.754	910.254
204.490	14.137	1204.199	908.441
205.504	14.143	1203.033	907.512
206.519	14.119	1201.705	906.302
207.534	14.083	1200.320	904.978
208.548	14.121	1199.945	904.824
209.563	14.119	1199.029	904.041
210.577	14.193	1197.806	903.442
211.592	14.235	1196.750	902.793
212.607	14.335	1195.862	902.586
213.621	14.266	1195.219	901.647
214.636	14.175	1194.171	900.285
215.650	14.305	1193.123	900.118
216.665	14.346	1192.225	899.579
217.680	14.254	1192.224	899.003
218.694	14.368	1190.559	898.285
219.709	14.344	1190.036	897.677
220.723	14.313	1189.277	896.859
221.738	14.407	1188.223	896.494
222.753	14.323	1187.576	895.475
223.767	14.411	1187.177	895.569
224.782	14.402	1186.267	894.755
225.796	14.563	1185.934	895.287
226.811	14.577	1185.360	894.851
227.826	14.459	1184.774	893.694
228.840	14.526	1183.533	893.039
229.855	14.479	1183.277	892.515
230.869	14.486	1182.347	891.769
231.884	14.481	1181.379	890.936
232.899	14.535	1180.377	890.387
233.913	14.480	1179.927	889.680
234.928	14.456	1179.422	889.091
235.942	14.427	1178.539	888.193
236.957	14.543	1177.523	887.966
237.972	14.446	1177.320	887.215
238.986	14.464	1176.021	886.255
240.001	14.529	1175.306	885.982
241.015	14.481	1174.259	884.863
242.030	14.514	1174.117	884.853
243.045	14.644	1173.080	884.678
244.059	14.603	1172.070	883.623
245.074	14.684	1171.517	883.554
246.088	14.612	1170.803	882.561
247.103	14.743	1169.606	882.273
248.117	14.746	1168.898	881.672
249.132	14.770	1168.552	881.459
250.147	14.803	1167.949	881.104
251.161	14.841	1167.135	880.611
252.176	14.888	1166.341	880.181
253.190	14.982	1165.357	879.855
254.205	14.921	1165.172	879.315
255.220	14.912	1164.583	878.746
256.234	15.024	1163.507	878.445
257.249	15.050	1162.924	878.064
258.263	14.932	1162.700	877.201
259.278	14.959	1161.883	876.645
260.293	15.097	1161.280	876.838
261.307	15.147	1160.806	876.662
262.322	15.130	1159.961	875.856
263.336	15.100	1159.195	875.045
264.351	15.121	1158.727	874.726
265.366	15.202	1157.972	874.497
266.380	15.139	1157.309	873.591
267.395	15.154	1156.429	872.931
268.409	15.175	1155.682	872.397
269.424	15.135	1155.130	871.697
270.439	15.136	1154.880	871.436
271.453	15.182	1154.019	870.947
272.468	15.131	1152.959	869.804
273.482	15.175	1152.055	869.274
274.497	15.225	1151.262	868.860
275.512	15.185	1150.856	868.269
276.526	15.177	1150.154	867.620
277.541	15.185	1149.371	866.994
278.555	15.245	1148.762	866.766
279.570	15.299	1147.688	866.159
280.585	15.328	1147.217	865.877
281.599	15.343	1145.834	864.835
282.614	15.227	1145.596	863.983
283.628	15.264	1144.126	862.988
284.643	15.311	1143.204	862.454
285.657	15.357	1142.208	861.866
286.672	15.397	1141.184	861.220
287.687	15.385	1140.272	860.395
288.701	15.496	1139.365	860.202
289.716	15.473	1138.748	859.545
290.730	15.353	1138.817	858.903
291.745	15.542	1137.324	858.670
292.760	15.516	1136.883	858.127
293.774	15.474	1136.603	857.625
294.789	15.579	1135.739	857.435
295.803	15.538	1135.073	856.644
296.818	15.536	1134.504	856.131
297.833	15.598	1133.576	855.670
298.847	15.591	1132.836	855.003
299.862	15.604	1132.331	854.612
300.876	15.607	1131.363	853.818
301.891	15.579	1130.720	853.114
302.906	15.669	1130.030	852.978
303.920	15.858	1128.911	853.015
304.935	15.772	1128.816	852.431
305.949	15.833	1127.842	851.931
306.964	15.755	1127.171	850.955
307.979	15.818	1126.397	850.612
308.993	15.784	1125.976	850.048
310.008	15.838	1124.864	849.406
311.022	15.766	1124.378	848.600
312.037	15.730	1123.648	847.791
313.052	15.718	1122.749	846.977
314.066	15.912	1121.015	846.568
315.081	15.650	1120.928	845.111
316.095	15.693	1120.270	844.755
317.110	15.804	1119.057	844.323
318.125	15.891	1118.196	844.035
319.139	15.753	1117.602	842.824
320.154	15.847	1117.323	843.007
321.168	15.814	1117.091	842.595
322.183	15.820	1116.393	842.021
323.197	15.883	1115.517	841.600
324.212	15.802	1115.026	840.754
325.227	15.822	1114.334	840.255
326.241	15.980	1113.709	840.499
327.256	15.930	1112.734	839.440
328.270	15.761	1111.889	837.888
329.285	15.910	1110.904	837.811
330.300	15.918	1110.044	837.127
331.314	15.915	1109.033	836.278
332.329	15.897	1108.462	835.683
333.343	15.998	1107.579	835.441
334.358	15.979	1106.503	834.462
335.373	15.980	1105.977	833.997
336.387	15.997	1104.973	833.254
337.402	16.016	1104.640	833.021
338.416	16.092	1103.934	832.788
339.431	16.109	1103.227	832.267
340.446	16.106	1102.569	831.684
341.460	16.224	1101.794	831.604
342.475	16.221	1101.093	830.989
343.489	16.230	1100.235	830.311
344.504	16.294	1098.814	829.478
345.519	16.338	1098.101	829.084
346.533	16.332	1097.619	828.616
347.548	16.272	1096.851	827.669
348.562	16.295	1096.243	827.250
349.577	16.379	1095.037	826.678
350.592	16.379	1094.302	826.053
351.606	16.400	1093.379	825.384
352.621	16.281	1092.978	824.426
353.635	16.157	1092.865	823.662
354.650	16.310	1091.756	823.502
355.665	16.330	1090.945	822.913
356.679	16.303	1090.575	822.429
357.694	16.371	1090.003	822.257
358.708	16.380	1089.295	821.694
359.723	16.425	1088.310	821.095
360.738	16.369	1087.664	820.264
361.752	16.408	1086.935	819.832
362.767	16.449	1086.757	819.826
363.781	16.445	1086.215	819.325
364.796	16.479	1085.414	818.809
365.810	16.530	1084.831	818.546
366.825	16.582	1084.266	818.301
367.840	16.488	1084.131	817.670
368.854	16.642	1082.693	817.256
369.869	16.772	1081.967	817.262
370.883	16.698	1081.590	816.549
371.898	16.757	1080.806	816.171
372.913	16.548	1080.462	814.828
373.927	16.703	1079.618	814.870
374.942	16.861	1079.222	815.258
375.956	16.751	1079.269	814.691
376.971	16.876	1078.148	814.371
377.986	16.790	1077.466	813.372
379.000	16.918	1076.716	813.349
380.015	16.846	1076.371	812.673
381.029	16.701	1076.220	811.791
382.044	16.930	1075.167	812.023
383.059	16.889	1074.614	811.335
384.073	16.920	1073.348	810.457
385.088	16.937	1072.267	809.648
386.102	16.959	1071.365	809.002
387.117	16.961	1070.387	808.200
388.132	16.825	1069.996	807.184
389.146	16.875	1069.010	806.607
390.161	16.871	1068.521	806.153
391.175	16.960	1067.487	805.722
392.190	16.870	1066.907	804.785
393.205	17.031	1066.295	805.014
394.219	17.002	1065.208	803.985
395.234	17.033	1064.314	803.387
396.248	16.990	1063.393	802.417
397.263	17.050	1062.235	801.756
398.278	16.967	1061.849	801.001
399.292	16.897	1061.290	800.177
400.307	16.983	1060.626	800.016
401.321	16.958	1059.958	799.318
402.336	17.029	1059.519	799.253
403.350	16.868	1058.822	797.899
404.365	16.999	1058.059	797.871
405.380	17.103	1057.091	797.560
406.394	17.112	1056.423	797.023
407.409	17.070	1055.743	796.245
408.423	17.208	1055.060	796.306
409.438	17.192	1054.717	795.902
410.453	17.396	1053.453	795.833
411.467	17.433	1052.642	795.321
412.482	17.306	1052.466	794.526
413.496	17.419	1051.487	794.244
414.511	17.408	1050.931	793.701
415.526	17.320	1050.582	792.955
416.540	17.578	1049.823	793.517
417.555	17.495	1049.573	792.870
418.569	17.388	1049.173	792.000
419.584	17.314	1048.918	791.394
420.599	17.522	1048.045	791.631
421.613	100.007	1316.890	1450.571
422.628	92.002	1356.070	1450.684
