DTS Sentinel unit serial number:	SN413079Multiplexer serial number:	ORYXHardware model number:	OX4-SRSoftware version number:	ORYX F/W v4.00 Oryx Data Collector v3.7.2.0data status	okinstallation	princeton_trtdifferential loss correction	single-endedforward channel	channel 2reverse channel	N/Adate	2019/09/15time	12:27:35forward acquisition time	60.00reverse acquisition time	0.00gamma	496.2192k internal	0.2313k external	0.2313temperature offset calibration	1.0012default loss term (dB/km)	0.3790temperature slope calibration	1.0000multiplexer offset coefficient	1.0000multiplexer slope coefficient	1.0000fibre end	0.00T internal ref (°C)	35.05T ext. ref 1 (°C)	5.05T ext. ref 2 (°C)	32.65length (m)	temperature (°C)	Stokes	anti-Stokes-747.200	93.109	-0.037	-0.042
-746.185	800.000	0.107	0.335
-745.171	11.511	-0.254	0.197
-744.156	184.913	0.205	0.308
-743.142	298.545	-0.077	0.144
-742.127	-7.489	-0.097	-0.067
-741.112	-137.147	-0.298	-0.034
-740.098	393.202	-0.069	-0.146
-739.083	-170.972	0.234	-0.008
-738.069	-141.392	0.159	-0.016
-737.054	-47.312	0.145	0.072
-736.039	452.576	0.066	-0.148
-735.025	134.354	0.206	0.270
-734.010	79.226	-0.092	0.100
-732.996	78.031	0.131	0.142
-731.981	800.000	-0.072	-0.300
-730.966	91.162	-0.291	-0.331
-729.952	-116.323	-0.340	0.064
-728.937	800.000	0.070	-0.214
-727.923	-200.000	0.051	-0.275
-726.908	-10.730	0.255	-0.171
-725.894	-12.018	0.164	-0.109
-724.879	160.981	-0.090	-0.127
-723.864	-169.033	-0.102	-0.004
-722.850	-122.526	0.105	0.017
-721.835	190.883	-0.128	-0.195
-720.821	408.674	-0.116	0.249
-719.806	300.977	-0.114	-0.213
-718.791	253.141	-0.026	0.045
-717.777	-35.697	0.226	-0.124
-716.762	800.000	0.040	-0.159
-715.748	-161.133	-0.348	0.018
-714.733	-143.959	0.201	-0.019
-713.718	-200.000	-0.011	-0.179
-712.704	71.262	0.076	-0.080
-711.689	-11.132	0.274	0.183
-710.675	101.493	-0.068	-0.081
-709.660	-114.529	0.069	-0.014
-708.645	-6.918	-0.189	0.130
-707.631	149.474	-0.252	0.346
-706.616	-20.028	0.148	-0.093
-705.602	186.705	-0.138	-0.208
-704.587	800.000	-0.009	0.033
-703.572	-200.000	-0.002	0.102
-702.558	454.566	-0.128	-0.288
-701.543	628.356	0.045	-0.114
-700.529	610.315	0.052	-0.133
-699.514	-107.632	-0.408	-0.090
-698.499	412.893	-0.129	-0.277
-697.485	70.514	-0.307	-0.321
-696.470	57.565	-0.121	0.120
-695.456	-200.000	-0.008	-0.041
-694.441	800.000	-0.070	-0.223
-693.426	-113.924	0.326	-0.064
-692.412	701.680	-0.065	-0.174
-691.397	-179.367	0.339	-0.008
-690.383	-104.889	-0.317	-0.074
-689.368	-102.856	-0.101	0.024
-688.354	-165.000	-0.186	0.008
-687.339	12.764	-0.256	-0.200
-686.324	-68.973	0.189	-0.074
-685.310	-200.000	-0.019	-0.111
-684.295	-120.301	0.184	-0.032
-683.281	290.269	0.047	-0.086
-682.266	10.320	-0.253	-0.195
-681.251	6.112	-0.171	-0.128
-680.237	-21.496	0.259	-0.160
-679.222	-21.461	0.025	-0.015
-678.208	-41.170	-0.317	0.165
-677.193	73.375	0.123	-0.130
-676.178	-146.212	0.093	0.008
-675.164	32.703	0.111	0.097
-674.149	-59.244	0.215	0.094
-673.135	175.202	-0.244	-0.357
-672.120	351.387	0.186	0.373
-671.105	800.000	0.079	0.248
-670.091	-121.623	-0.424	0.071
-669.076	-67.488	-0.069	-0.027
-668.062	-200.000	-0.042	0.308
-667.047	118.274	0.131	-0.163
-666.032	90.266	0.157	-0.178
-665.018	-130.503	0.113	0.015
-664.003	222.447	-0.084	0.136
-662.989	-200.000	0.003	-0.211
-661.974	533.121	-0.073	0.175
-660.959	-52.982	-0.469	-0.218
-659.945	58.929	0.269	-0.267
-658.930	-91.716	-0.187	0.054
-657.916	-128.050	0.178	0.026
-656.901	93.424	-0.055	-0.063
-655.886	101.743	-0.115	0.135
-654.872	800.000	0.010	-0.030
-653.857	330.236	0.032	0.062
-652.843	203.802	-0.064	0.101
-651.828	-200.000	0.022	-0.098
-650.814	-34.772	-0.143	-0.079
-649.799	43.424	0.118	-0.109
-648.784	-8.089	-0.077	0.052
-647.770	-168.419	0.228	-0.009
-646.755	-66.396	0.366	-0.147
-645.741	41.455	-0.072	-0.066
-644.726	416.822	-0.071	0.154
-643.711	-61.107	-0.197	0.084
-642.697	249.047	0.164	0.281
-641.682	430.731	-0.011	-0.024
-640.668	800.000	0.075	0.264
-639.653	800.000	0.029	0.100
-638.638	-59.722	-0.115	0.050
-637.624	55.715	-0.283	-0.277
-636.609	-200.000	0.009	0.132
-635.595	800.000	-0.045	0.145
-634.580	68.103	-0.051	0.053
-633.565	62.046	0.307	0.309
-632.551	-37.033	0.140	0.076
-631.536	-51.824	0.343	0.161
-630.522	136.767	0.330	0.436
-629.507	-26.513	-0.164	-0.097
-628.492	-51.307	-0.206	0.097
-627.478	358.537	0.057	-0.114
-626.463	365.560	-0.115	-0.235
-625.449	-195.643	-0.294	0.002
-624.434	297.602	-0.208	0.386
-623.419	67.370	0.208	-0.214
-622.405	153.179	0.122	0.168
-621.390	155.808	0.060	-0.084
-620.376	-121.051	0.297	0.050
-619.361	-155.411	0.326	-0.021
-618.346	25.608	-0.187	0.157
-617.332	-86.052	0.396	-0.123
-616.317	-70.124	-0.326	-0.125
-615.303	112.259	0.137	-0.168
-614.288	346.663	0.083	0.166
-613.273	42.622	-0.072	0.067
-612.259	636.912	0.128	-0.328
-611.244	-78.766	0.136	0.047
-610.230	1.020	-0.281	0.203
-609.215	-200.000	-0.059	0.323
-608.201	-45.806	0.238	-0.118
-607.186	-200.000	0.033	-0.285
-606.171	-200.000	0.030	0.219
-605.157	800.000	0.066	0.230
-604.142	-27.670	0.325	0.190
-603.128	-116.351	0.365	0.068
-602.113	-68.468	0.154	0.060
-601.098	-138.493	-0.447	-0.050
-600.084	800.000	-0.043	-0.176
-599.069	614.916	0.050	0.125
-598.055	-200.000	-0.013	-0.086
-597.040	-68.709	-0.215	0.084
-596.025	92.880	-0.138	-0.157
-595.011	81.731	0.120	-0.131
-593.996	92.714	0.033	-0.037
-592.982	-113.747	0.390	0.077
-591.967	-69.811	0.195	0.075
-590.952	181.021	-0.064	-0.095
-589.938	-200.000	-0.032	0.221
-588.923	337.007	0.067	0.130
-587.909	-132.571	-0.226	-0.029
-586.894	305.753	0.077	0.145
-585.879	-77.070	0.165	-0.058
-584.865	-19.511	-0.174	-0.109
-583.850	212.088	0.136	-0.216
-582.836	25.669	0.172	-0.145
-581.821	-200.000	0.035	-0.237
-580.806	30.338	-0.271	0.233
-579.792	165.558	-0.178	-0.254
-578.777	74.194	0.192	0.203
-577.763	800.000	0.069	0.293
-576.748	800.000	-0.105	-0.307
-575.733	-6.435	0.012	-0.008
-574.719	676.715	-0.089	0.232
-573.704	-144.977	0.331	-0.030
-572.690	-28.738	-0.348	0.202
-571.675	-110.940	0.294	-0.061
-570.661	-120.090	-0.071	0.012
-569.646	-96.414	-0.067	0.018
-568.631	-129.512	0.262	-0.037
-567.617	543.940	-0.155	-0.372
-566.602	-46.403	-0.144	-0.071
-565.588	417.171	0.163	-0.350
-564.573	-136.542	0.187	-0.022
-563.558	-200.000	-0.003	-0.150
-562.544	-31.551	0.059	0.033
-561.529	-64.778	0.144	0.059
-560.515	-118.748	0.138	0.024
-559.500	-87.072	-0.131	-0.040
-558.485	-110.194	0.087	0.018
-557.471	-23.165	-0.105	-0.063
-556.456	9.119	-0.096	0.073
-555.442	286.465	-0.041	-0.075
-554.427	15.053	-0.205	-0.161
-553.412	-164.046	-0.127	0.006
-552.398	376.067	0.200	0.411
-551.383	83.203	-0.057	-0.062
-550.369	5.377	0.286	-0.212
-549.354	749.877	0.028	0.075
-548.339	-189.494	0.095	0.001
-547.325	-200.000	-0.056	-0.322
-546.310	-25.767	0.268	0.159
-545.296	131.266	0.173	0.224
-544.281	-200.000	-0.013	-0.096
-543.266	-200.000	0.000	-0.062
-542.252	-200.000	0.031	0.279
-541.237	-153.702	-0.154	-0.011
-540.223	-33.945	-0.030	0.017
-539.208	-149.376	0.393	-0.031
-538.193	21.952	-0.015	0.012
-537.179	-15.670	0.157	-0.101
-536.164	-6.106	0.127	-0.087
-535.150	95.555	-0.241	-0.277
-534.135	461.271	0.154	-0.345
-533.121	20.564	0.059	0.048
-532.106	179.793	-0.025	0.037
-531.091	-75.863	-0.213	-0.076
-530.077	236.290	-0.071	0.118
-529.062	-9.542	0.105	0.070
-528.048	-53.614	0.229	-0.105
-527.033	-146.486	-0.151	-0.013
-526.018	-38.825	-0.290	0.154
-525.004	305.582	-0.174	0.325
-523.989	-48.347	-0.108	-0.052
-522.975	-77.647	0.126	-0.044
-521.960	10.399	-0.057	0.044
-520.945	89.667	0.048	-0.054
-519.931	-93.794	-0.053	0.015
-518.916	34.144	0.082	0.072
-517.902	-129.782	0.240	0.033
-516.887	588.625	0.019	-0.046
-515.872	-200.000	-0.035	-0.173
-514.858	-89.049	-0.142	-0.042
-513.843	-93.467	-0.135	-0.037
-512.829	178.322	0.085	-0.125
-511.814	-200.000	-0.018	0.103
-510.799	242.635	0.051	-0.085
-509.785	29.275	-0.202	-0.173
-508.770	800.000	-0.090	-0.322
-507.756	-200.000	0.003	-0.234
-506.741	12.949	0.169	0.131
-505.726	222.765	0.059	0.095
-504.712	71.443	0.074	0.077
-503.697	-199.214	-0.207	-0.001
-502.683	629.482	-0.043	-0.109
-501.668	-23.051	-0.275	0.167
-500.653	-197.103	-0.070	-0.000
-499.639	74.310	-0.175	0.185
-498.624	172.002	0.101	0.146
-497.610	32.671	0.228	0.198
-496.595	719.652	0.203	0.541
-495.581	273.217	-0.233	0.413
-494.566	-40.822	0.266	0.138
-493.551	25.324	0.122	-0.102
-492.537	-74.525	-0.203	-0.073
-491.522	138.358	0.152	-0.201
-490.508	495.110	0.101	0.233
-489.493	42.185	-0.065	0.060
-488.478	88.243	0.181	-0.201
-487.464	-200.000	-0.016	0.156
-486.449	53.820	0.269	0.260
-485.435	-140.582	-0.345	0.036
-484.420	-121.491	0.140	0.023
-483.405	-77.753	-0.278	-0.096
-482.391	-200.000	0.018	0.322
-481.376	38.961	0.189	-0.169
-480.362	-200.000	0.003	0.072
-479.347	101.482	-0.074	-0.086
-478.332	-200.000	-0.030	0.168
-477.318	-51.717	-0.196	0.092
-476.303	-200.000	-0.019	-0.171
-475.289	155.357	-0.088	0.122
-474.274	-200.000	0.014	-0.454
-473.259	800.000	-0.100	-0.309
-472.245	101.183	-0.077	-0.090
-471.230	-76.538	-0.107	-0.038
-470.216	-200.000	0.024	0.110
-469.201	-14.800	-0.114	-0.073
-468.186	32.572	0.090	-0.078
-467.172	-200.000	0.089	0.394
-466.157	131.180	-0.144	0.186
-465.143	15.621	-0.216	-0.170
-464.128	800.000	0.039	-0.122
-463.113	-61.150	0.389	0.165
-462.099	800.000	0.038	0.113
-461.084	12.322	-0.381	0.294
-460.070	-200.000	0.028	-0.184
-459.055	-103.709	0.204	0.048
-458.040	2.892	-0.217	0.158
-457.026	-138.342	-0.156	0.017
-456.011	-200.000	0.024	-0.420
-454.997	800.000	-0.032	0.133
-453.982	-87.937	0.401	0.121
-452.968	-179.561	-0.173	-0.004
-451.953	-200.000	0.017	-0.100
-450.938	176.316	0.105	0.153
-449.924	-200.000	0.017	-0.305
-448.909	27.439	0.295	-0.249
-447.895	-200.000	-0.024	0.268
-446.880	197.317	-0.109	-0.167
-445.865	-5.756	0.161	-0.111
-444.851	-133.641	0.036	0.005
-443.836	-200.000	0.010	0.130
-442.822	-33.498	0.238	0.132
-441.807	800.000	0.042	-0.167
-440.792	28.838	0.165	0.140
-439.778	219.465	-0.116	0.186
-438.763	-160.744	-0.197	0.010
-437.749	-56.905	-0.452	-0.200
-436.734	-200.000	-0.113	0.520
-435.719	116.369	-0.296	0.363
-434.705	67.158	0.152	-0.155
-433.690	-36.071	-0.224	0.121
-432.676	421.480	0.124	-0.266
-431.661	800.000	0.068	0.243
-430.646	-141.540	-0.109	-0.011
-429.632	-107.713	0.141	-0.031
-428.617	-98.194	-0.435	0.112
-427.603	-72.827	0.160	0.059
-426.588	-200.000	0.030	-0.189
-425.573	154.039	-0.107	-0.147
-424.559	47.788	-0.287	0.268
-423.544	-200.000	0.005	0.083
-422.530	-155.918	-0.157	0.010
-421.515	-158.010	0.284	-0.017
-420.500	-27.335	-0.113	-0.066
-419.486	-200.000	-0.018	-0.288
-418.471	-60.121	0.286	-0.122
-417.457	800.000	-0.039	0.110
-416.442	800.000	0.047	-0.156
-415.428	405.113	-0.106	-0.225
-414.413	800.000	0.057	-0.236
-413.398	173.335	0.169	-0.244
-412.384	-200.000	0.027	-0.161
-411.369	-104.931	-0.203	0.047
-410.355	-200.000	0.066	0.314
-409.340	-45.593	-0.252	0.125
-408.325	-137.573	0.267	0.030
-407.311	-137.318	0.111	0.013
-406.296	-100.846	0.209	0.051
-405.282	-200.000	-0.001	0.131
-404.267	-200.000	0.024	0.316
-403.252	-200.000	-0.025	0.116
-402.238	-200.000	-0.013	-0.356
-401.223	-200.000	-0.006	0.029
-400.209	541.011	-0.069	0.165
-399.194	179.818	-0.089	-0.131
-398.179	-200.000	0.348	-0.002
-397.165	800.000	0.080	0.246
-396.150	13.376	-0.189	-0.147
-395.136	-200.000	0.182	-0.000
-394.121	0.081	0.165	-0.118
-393.106	45.608	-0.127	-0.118
-392.092	-200.000	-0.082	-0.377
-391.077	-9.917	-0.167	-0.111
-390.063	-200.000	-0.056	0.320
-389.048	-142.976	-0.269	0.026
-388.033	-200.000	-0.015	0.239
-387.019	359.041	-0.096	0.193
-386.004	43.879	0.150	-0.138
-384.990	-38.271	-0.253	0.134
-383.975	-46.731	-0.046	-0.022
-382.960	-200.000	-0.003	0.157
-381.946	-200.000	-0.013	-0.213
-380.931	-200.000	0.038	-0.191
-379.917	-85.066	0.282	0.088
-378.902	11.607	0.221	-0.170
-377.888	41.066	-0.024	0.022
-376.873	122.603	0.112	-0.140
-375.858	209.086	0.028	0.043
-374.844	-80.123	0.170	-0.057
-373.829	-200.000	0.045	0.252
-372.815	-146.125	-0.167	0.015
-371.800	198.415	-0.105	-0.160
-370.785	219.681	0.068	0.109
-369.771	52.819	-0.273	0.261
-368.756	-3.679	-0.170	0.118
-367.742	256.337	0.126	0.216
-366.727	201.988	0.078	0.121
-365.712	37.005	-0.252	-0.223
-364.698	-200.000	0.007	-0.140
-363.683	-28.965	0.231	-0.132
-362.669	-50.532	-0.238	0.112
-361.654	-200.000	0.003	-0.181
-360.639	800.000	-0.051	-0.147
-359.625	95.798	-0.109	0.124
-358.610	-119.754	-0.489	0.084
-357.596	800.000	-0.049	-0.166
-356.581	52.743	-0.256	-0.245
-355.566	120.505	0.052	0.064
-354.552	87.973	-0.285	-0.316
-353.537	800.000	0.054	-0.197
-352.523	-200.000	0.015	-0.111
-351.508	-124.591	0.203	-0.032
-350.493	-31.482	0.193	-0.108
-349.479	319.496	-0.028	-0.054
-348.464	-172.008	0.412	0.013
-347.450	-200.000	0.046	-0.218
-346.435	-182.351	-0.073	-0.001
-345.420	-123.497	0.239	-0.038
-344.406	42.964	0.272	-0.248
-343.391	-200.000	0.034	-0.161
-342.377	-44.321	0.233	-0.116
-341.362	-200.000	-0.001	0.018
-340.348	12.342	-0.265	0.204
-339.333	112.132	-0.076	0.091
-338.318	-141.627	-0.148	-0.015
-337.304	469.940	-0.058	0.131
-336.289	800.000	-0.106	0.327
-335.275	-61.304	0.458	0.192
-334.260	-134.235	0.165	0.020
-333.245	-107.061	-0.193	-0.043
-332.231	-176.366	-0.263	-0.007
-331.216	-148.848	0.106	0.009
-330.202	62.051	-0.038	-0.038
-329.187	-16.217	-0.344	-0.218
-328.172	38.224	0.293	-0.260
-327.158	-106.548	0.262	0.058
-326.143	226.026	-0.120	-0.194
-325.129	-200.000	0.007	-0.200
-324.114	670.602	0.068	-0.176
-323.099	-200.000	-0.022	-0.264
-322.085	199.454	-0.017	0.026
-321.070	-56.123	-0.182	-0.081
-320.056	-111.251	0.257	-0.052
-319.041	192.172	0.122	0.184
-318.026	-127.313	0.096	-0.014
-317.012	-98.680	0.135	0.034
-315.997	319.293	-0.145	-0.274
-314.983	170.280	-0.195	-0.279
-313.968	-86.958	0.381	0.116
-312.953	120.901	0.125	-0.155
-311.939	-200.000	0.082	-0.393
-310.924	159.520	-0.142	-0.197
-309.910	8.164	-0.078	-0.058
-308.895	36.222	0.254	-0.223
-307.880	-154.040	-0.473	-0.032
-306.866	-19.858	-0.068	0.042
-305.851	-52.727	-0.102	-0.047
-304.837	-200.000	-0.010	-0.343
-303.822	34.998	0.056	0.048
-302.807	152.182	-0.104	0.141
-301.793	-67.984	-0.198	-0.077
-300.778	-66.724	0.297	-0.117
-299.764	800.000	-0.078	0.235
-298.749	-87.405	-0.264	-0.080
-297.735	28.772	0.270	0.228
-296.720	47.519	-0.106	0.099
-295.705	-200.000	-0.009	0.136
-294.691	99.584	-0.052	0.060
-293.676	-200.000	-0.028	-0.312
-292.662	290.065	-0.051	0.092
-291.647	-200.000	0.026	-0.147
-290.632	-148.861	0.168	-0.014
-289.618	-200.000	0.040	0.214
-288.603	-135.849	0.177	-0.021
-287.589	800.000	0.091	-0.348
-286.574	39.690	-0.107	0.096
-285.559	475.706	0.059	-0.132
-284.545	-200.000	-0.007	0.124
-283.530	-79.751	-0.138	-0.046
-282.516	446.359	-0.161	-0.352
-281.501	-200.000	-0.055	0.258
-280.486	-15.277	-0.207	-0.132
-279.472	411.675	-0.046	-0.097
-278.457	204.311	-0.082	-0.126
-277.443	73.163	0.189	0.196
-276.428	62.182	-0.042	0.041
-275.413	-0.570	-0.141	-0.099
-274.399	154.909	0.196	0.269
-273.384	-200.000	0.049	0.222
-272.370	-39.803	-0.392	0.204
-271.355	-39.886	0.321	-0.167
-270.340	33.128	-0.044	0.038
-269.326	115.464	0.246	-0.300
-268.311	40.290	-0.155	-0.138
-267.297	-95.704	-0.126	-0.034
-266.282	173.683	-0.131	0.188
-265.267	-39.214	-0.089	0.047
-264.253	697.091	0.053	-0.138
-263.238	-195.771	-0.126	-0.001
-262.224	-135.665	0.409	0.048
-261.209	262.344	0.070	-0.121
-260.195	800.000	0.063	-0.274
-259.180	306.780	-0.093	-0.173
-258.165	17.066	0.316	0.249
-257.151	193.243	-0.050	-0.075
-256.136	800.000	0.016	0.063
-255.122	800.000	0.097	0.333
-254.107	564.736	0.107	0.257
-253.092	-200.000	0.006	0.102
-252.078	-12.555	0.059	-0.038
-251.063	202.923	-0.157	-0.241
-250.049	171.126	0.220	0.314
-249.034	800.000	0.046	-0.132
-248.019	87.268	0.127	-0.140
-247.005	-152.353	0.106	-0.008
-245.990	73.594	0.057	0.059
-244.976	105.820	-0.136	-0.160
-243.961	-200.000	0.041	-0.332
-242.946	-132.541	-0.080	-0.010
-241.932	-200.000	0.026	0.134
-240.917	60.912	-0.365	0.360
-239.903	-71.189	0.151	0.056
-238.888	800.000	0.012	-0.043
-237.873	-200.000	0.063	0.299
-236.859	-98.938	0.220	0.055
-235.844	-58.789	-0.278	-0.120
-234.830	-48.474	0.184	-0.088
-233.815	-26.240	0.057	0.033
-232.800	-151.410	0.137	-0.010
-231.786	178.877	0.145	0.210
-230.771	800.000	0.029	-0.126
-229.757	-200.000	0.015	-0.188
-228.742	306.131	-0.110	0.203
-227.727	163.699	0.106	-0.149
-226.713	-152.333	-0.234	0.017
-225.698	75.000	0.110	-0.115
-224.684	800.000	0.012	0.043
-223.669	-85.375	-0.309	0.096
-222.655	779.825	-0.060	0.163
-221.640	800.000	0.007	0.030
-220.625	486.994	-0.115	0.260
-219.611	-200.000	0.044	-0.233
-218.596	71.298	0.127	0.131
-217.582	-21.700	0.089	0.054
-216.567	800.000	-0.074	-0.212
-215.552	482.284	-0.026	0.058
-214.538	482.189	-0.119	0.269
-213.523	-0.076	0.198	-0.140
-212.509	-87.263	0.227	0.068
-211.494	-200.000	-0.066	0.448
-210.479	-200.000	0.009	0.232
-209.465	33.541	-0.148	-0.128
-208.450	-200.000	0.018	0.186
-207.436	-58.296	0.198	0.086
-206.421	221.836	-0.073	0.116
-205.406	-37.635	-0.190	-0.101
-204.392	632.404	0.069	-0.173
-203.377	-29.717	0.048	-0.027
-202.363	-200.000	0.094	0.508
-201.348	108.297	-0.236	-0.280
-200.333	-200.000	0.003	-0.155
-199.319	800.000	-0.080	-0.232
-198.304	-96.676	-0.104	-0.027
-197.290	-109.013	-0.228	-0.048
-196.275	492.094	-0.107	0.244
-195.260	180.315	-0.224	-0.326
-194.246	800.000	0.075	-0.305
-193.231	-85.736	-0.126	-0.039
-192.217	13.705	-0.237	-0.182
-191.202	-48.137	0.370	0.177
-190.187	93.514	0.097	-0.109
-189.173	342.541	-0.065	-0.126
-188.158	228.984	-0.060	-0.097
-187.144	-119.553	-0.260	0.045
-186.129	-122.776	0.197	-0.032
-185.114	216.166	0.053	-0.084
-184.100	-178.192	-0.234	0.005
-183.085	320.765	-0.222	0.419
-182.071	-19.040	-0.251	0.155
-181.056	54.786	0.045	-0.044
-180.042	-35.232	0.218	0.118
-179.027	-104.802	0.021	0.005
-178.012	-200.000	-0.011	0.265
-176.998	-18.941	-0.117	-0.072
-175.983	-200.000	-0.016	0.313
-174.969	50.119	-0.130	0.122
-173.954	99.989	-0.231	-0.265
-172.939	-200.000	0.025	0.166
-171.925	-24.707	0.164	-0.097
-170.910	393.536	0.056	-0.116
-169.896	-64.078	-0.185	-0.075
-168.881	182.214	-0.103	-0.151
-167.866	396.647	-0.063	0.131
-166.852	13.229	-0.226	-0.173
-165.837	94.444	0.196	-0.220
-164.823	-200.000	-0.023	0.157
-163.808	-84.007	-0.117	-0.037
-162.793	-171.043	-0.355	0.012
-161.779	-91.390	0.024	-0.007
-160.764	15.872	-0.197	0.154
-159.750	-39.649	-0.286	-0.148
-158.735	-63.292	-0.133	-0.054
-157.720	-30.819	0.212	-0.119
-156.706	800.000	0.032	-0.101
-155.691	-69.153	0.128	0.049
-154.677	298.147	-0.123	0.225
-153.662	-52.826	-0.264	0.121
-152.647	2.397	0.172	0.123
-151.633	800.000	-0.081	0.326
-150.618	800.000	0.024	0.090
-149.604	800.000	0.034	0.132
-148.589	-200.000	-0.032	0.146
-147.574	-108.888	-0.120	0.025
-146.560	-79.833	0.111	-0.037
-145.545	-110.416	0.395	0.081
-144.531	-55.884	0.168	0.074
-143.516	26.974	-0.134	0.112
-142.502	800.000	0.047	0.198
-141.487	22.579	0.097	0.078
-140.472	800.000	-0.032	-0.112
-139.458	175.652	0.273	-0.393
-138.443	-11.219	0.083	0.054
-137.429	275.892	-0.085	0.149
-136.414	-143.523	-0.434	-0.041
-135.399	-109.126	0.217	-0.046
-134.385	177.308	-0.222	0.320
-133.370	-200.000	0.009	0.084
-132.356	513.207	0.115	0.266
-131.341	800.000	-0.005	-0.016
-130.326	583.282	-0.039	0.095
-129.312	279.461	-0.044	-0.078
-128.297	800.000	0.062	0.200
-127.283	800.000	-0.071	-0.248
-126.268	-200.000	-0.017	0.086
-125.253	37.620	-0.259	0.228
-124.239	-81.703	0.161	0.052
-123.224	-52.666	0.221	0.101
-122.210	223.478	0.144	0.229
-121.195	800.000	0.083	-0.241
-120.180	96.048	0.050	0.056
-119.166	43.112	0.259	-0.234
-118.151	-89.932	0.185	0.053
-117.137	37.429	-0.172	-0.151
-116.122	-71.899	-0.125	0.046
-115.107	42.879	-0.225	-0.203
-114.093	-200.000	0.045	0.239
-113.078	-200.000	0.002	-0.101
-112.064	-200.000	0.024	0.191
-111.049	664.042	-0.083	0.212
-110.034	220.092	0.050	0.079
-109.020	-68.278	-0.097	-0.037
-108.005	-122.528	0.236	0.038
-106.991	800.000	-0.066	-0.222
-105.976	11.152	-0.163	0.123
-104.962	-148.751	-0.344	-0.028
-103.947	-14.583	0.154	0.098
-102.932	-200.000	0.050	0.230
-101.918	800.000	-0.036	-0.120
-100.903	112.550	-0.156	0.187
-99.889	800.000	-0.056	0.239
-98.874	-1.284	-0.301	-0.210
-97.859	12.339	0.194	-0.148
-96.845	-138.405	0.109	-0.012
-95.830	-102.889	0.164	0.038
-94.816	148.956	0.194	0.259
-93.801	-200.000	0.070	0.319
-92.786	123.615	-0.057	0.071
-91.772	651.649	-0.102	0.259
-90.757	-200.000	0.002	0.234
-89.743	-200.000	0.053	0.331
-88.728	-200.000	-0.037	-0.247
-87.713	-200.000	0.000	-0.093
-86.699	-107.039	-0.056	-0.012
-85.684	-152.672	0.254	-0.018
-84.670	391.559	0.104	-0.213
-83.655	75.545	0.068	0.071
-82.640	-200.000	0.032	0.268
-81.626	-17.549	-0.282	0.175
-80.611	164.527	-0.183	-0.256
-79.597	-75.951	-0.234	0.082
-78.582	83.014	-0.126	-0.136
-77.567	34.372	-0.223	-0.192
-76.553	800.000	-0.069	-0.227
-75.538	800.000	-0.128	0.348
-74.524	-41.280	0.211	0.108
-73.509	800.000	0.027	0.092
-72.494	452.931	-0.025	0.055
-71.480	-125.057	0.127	0.019
-70.465	-108.790	0.310	0.066
-69.451	-30.235	-0.194	0.109
-68.436	72.402	-0.135	-0.139
-67.422	-6.498	-0.061	0.041
-66.407	-97.669	0.242	-0.062
-65.392	-198.478	0.225	0.001
-64.378	93.826	0.308	-0.344
-63.363	38.834	-0.248	0.219
-62.349	-200.000	0.006	-0.101
-61.334	30.671	-1.048	-0.885
-60.319	214.524	0.215	0.336
-59.305	800.000	-0.213	-0.735
-58.290	98.294	0.565	0.643
-57.276	800.000	0.508	1.453
-56.261	-200.000	92.619	544.611
-55.246	610.624	1382.201	3409.793
-54.232	187.901	2601.348	3834.973
-53.217	115.537	2317.510	2796.060
-52.203	44.641	1927.801	1749.359
-51.188	38.392	1712.669	1506.158
-50.173	35.478	1667.579	1444.557
-49.159	51.655	1714.078	1608.564
-48.144	54.924	1732.300	1650.537
-47.130	38.137	1689.396	1483.519
-46.115	35.117	1674.378	1447.486
-45.100	34.913	1669.168	1441.392
-44.086	34.900	1666.868	1439.249
-43.071	34.801	1664.278	1436.215
-42.057	34.888	1662.011	1434.850
-41.042	34.883	1660.136	1433.135
-40.027	34.988	1658.062	1432.078
-39.013	34.863	1656.335	1429.591
-37.998	34.857	1654.456	1427.869
-36.984	34.921	1653.614	1427.564
-35.969	35.024	1652.105	1426.973
-34.954	35.103	1650.196	1425.855
-33.940	35.039	1648.254	1423.645
-32.925	35.044	1646.420	1422.039
-31.911	34.999	1645.152	1420.560
-30.896	35.014	1642.996	1418.750
-29.881	35.085	1641.327	1417.776
-28.867	35.031	1639.759	1415.970
-27.852	35.096	1637.999	1414.869
-26.838	35.061	1636.783	1413.507
-25.823	35.098	1634.957	1412.149
-24.809	35.009	1634.199	1410.779
-23.794	35.084	1632.564	1409.868
-22.779	35.103	1630.927	1408.533
-21.765	35.074	1629.562	1407.089
-20.750	35.018	1627.707	1405.016
-19.736	35.164	1626.045	1404.600
-18.721	35.177	1624.447	1403.258
-17.706	35.148	1623.032	1401.769
-16.692	35.029	1621.702	1399.696
-15.677	35.031	1620.549	1398.659
-14.663	35.179	1618.526	1397.938
-13.648	35.133	1617.184	1396.387
-12.633	35.058	1615.999	1394.757
-11.619	35.140	1614.105	1393.668
-10.604	35.063	1612.978	1392.083
-9.590	35.011	1611.898	1390.713
-8.575	35.020	1610.354	1389.389
-7.560	35.038	1609.128	1388.408
-6.546	35.111	1607.435	1387.425
-5.531	35.016	1606.990	1386.297
-4.517	35.057	1605.555	1385.298
-3.502	34.992	1604.957	1384.258
-2.487	35.133	1602.996	1383.529
-1.473	35.149	1592.852	1374.835
-0.458	33.149	1574.337	1344.593
0.556	28.740	1574.890	1314.060
1.571	26.187	1599.089	1315.562
2.586	25.496	1612.592	1321.473
3.600	22.581	1559.555	1257.137
4.615	13.980	1447.207	1109.294
5.629	6.452	1381.370	1010.598
6.644	5.227	1372.752	996.393
7.659	5.014	1371.599	994.112
8.673	4.915	1370.012	992.245
9.688	5.034	1367.977	991.440
10.702	4.770	1365.465	987.854
11.717	8.360	1372.427	1015.668
12.731	16.135	1386.923	1076.099
13.746	19.761	1391.602	1102.805
14.761	18.671	1388.483	1093.295
15.775	17.502	1385.206	1083.184
16.790	16.300	1382.844	1073.601
17.804	15.526	1380.670	1066.904
18.819	15.153	1379.140	1063.260
19.834	14.933	1377.553	1060.546
20.848	14.566	1376.382	1057.227
21.863	14.385	1375.024	1054.942
22.877	14.214	1373.979	1052.970
23.892	14.246	1372.828	1052.196
24.907	14.286	1371.761	1051.534
25.921	14.236	1371.255	1050.740
26.936	14.263	1370.378	1050.143
27.950	14.218	1369.705	1049.256
28.965	14.369	1368.213	1048.969
29.980	14.475	1366.973	1048.591
30.994	14.540	1366.228	1048.335
32.009	14.511	1364.967	1047.094
33.023	14.454	1363.717	1045.684
34.038	14.390	1362.531	1044.280
35.053	14.365	1361.161	1042.985
36.067	14.332	1359.807	1041.643
37.082	14.392	1358.713	1041.091
38.096	14.341	1358.168	1040.260
39.111	14.483	1356.895	1040.080
40.126	14.318	1356.023	1038.294
41.140	14.262	1354.711	1036.849
42.155	14.200	1354.569	1036.262
43.169	14.160	1354.541	1035.899
44.184	14.067	1354.135	1034.916
45.199	14.100	1353.680	1034.681
46.213	14.175	1353.095	1034.614
47.228	14.290	1352.457	1034.745
48.242	14.393	1350.608	1033.877
49.257	14.294	1349.069	1031.998
50.271	14.326	1348.061	1031.332
51.286	14.232	1346.834	1029.723
52.301	14.392	1345.023	1029.230
53.315	14.241	1344.430	1027.753
54.330	14.180	1343.436	1026.531
55.344	14.190	1341.895	1025.323
56.359	14.167	1341.429	1024.732
57.374	14.045	1340.435	1023.135
58.388	14.096	1339.305	1022.496
59.403	14.036	1339.219	1021.969
60.417	13.980	1338.387	1020.897
61.432	14.102	1337.233	1020.676
62.447	13.973	1336.639	1019.341
63.461	13.915	1335.554	1018.070
64.476	14.039	1334.375	1017.842
65.490	14.004	1332.920	1016.424
66.505	13.967	1331.854	1015.294
67.520	14.153	1330.013	1014.935
68.534	14.098	1329.236	1013.919
69.549	14.085	1328.829	1013.442
70.563	14.070	1327.318	1012.110
71.578	13.929	1326.331	1010.408
72.593	13.906	1325.171	1009.295
73.607	13.899	1324.264	1008.470
74.622	13.971	1323.656	1008.354
75.636	13.932	1322.902	1007.456
76.651	14.059	1322.263	1007.649
77.666	13.932	1321.703	1006.364
78.680	13.943	1321.602	1006.264
79.695	13.940	1320.616	1005.408
80.709	14.041	1319.952	1005.427
81.724	14.188	1318.768	1005.322
82.739	14.164	1318.054	1004.547
83.753	14.273	1317.270	1004.513
84.768	14.313	1315.968	1003.673
85.782	14.280	1315.702	1003.187
86.797	14.357	1313.406	1001.810
87.812	14.251	1312.374	1000.296
88.826	14.325	1311.112	999.686
89.841	14.409	1310.014	999.265
90.855	14.355	1308.945	998.039
91.870	14.297	1308.750	997.457
92.884	14.433	1307.203	997.000
93.899	14.435	1306.984	996.759
94.914	14.450	1306.003	996.011
95.928	14.368	1305.207	994.829
96.943	14.461	1304.092	994.442
97.957	14.404	1303.137	993.285
98.972	14.367	1302.523	992.513
99.987	14.312	1301.058	990.981
101.001	14.444	1300.326	991.117
102.016	14.434	1298.929	989.905
103.030	14.389	1298.481	989.210
104.045	14.384	1297.128	988.061
105.060	14.302	1296.292	986.853
106.074	14.137	1295.140	984.912
107.089	14.116	1293.331	983.327
108.103	14.062	1292.244	982.091
109.118	14.072	1291.011	981.128
110.133	14.073	1289.761	980.098
111.147	14.146	1288.145	979.215
112.162	14.045	1286.964	977.632
113.176	14.156	1285.983	977.457
114.191	14.165	1285.033	976.698
115.206	14.171	1283.980	975.847
116.220	14.219	1282.289	974.757
117.235	14.220	1281.365	973.974
118.249	14.181	1280.327	972.871
119.264	14.153	1278.936	971.563
120.279	14.171	1277.673	970.621
121.293	14.152	1277.169	970.046
122.308	14.131	1276.111	969.035
123.322	14.042	1275.183	967.726
124.337	14.031	1273.781	966.508
125.352	14.026	1273.345	966.066
126.366	14.023	1271.733	964.738
127.381	14.102	1270.827	964.427
128.395	14.053	1269.631	963.148
129.410	14.083	1268.523	962.397
130.424	14.119	1267.656	961.860
131.439	14.103	1267.169	961.313
132.454	14.128	1265.956	960.455
133.468	14.164	1265.352	960.115
134.483	14.204	1264.233	959.412
135.497	14.222	1263.346	958.761
136.512	14.278	1262.122	958.071
137.527	14.307	1260.641	957.026
138.541	14.195	1259.627	955.528
139.556	14.218	1258.410	954.656
140.570	14.364	1256.905	954.263
141.585	14.375	1255.913	953.491
142.600	14.353	1254.864	952.481
143.614	14.454	1253.901	952.243
144.629	14.503	1252.715	951.539
145.643	14.516	1251.531	950.628
146.658	14.394	1250.162	948.812
147.673	14.373	1248.789	947.567
148.687	14.286	1247.765	946.207
149.702	14.258	1246.468	944.981
150.716	14.289	1245.204	944.116
151.731	14.316	1244.030	943.299
152.746	14.283	1243.241	942.430
153.760	14.401	1241.528	941.715
154.775	14.382	1240.453	940.709
155.789	14.479	1239.243	940.251
156.804	14.309	1238.847	938.913
157.819	14.481	1237.608	938.859
158.833	14.452	1237.256	938.344
159.848	14.546	1235.618	937.546
160.862	14.405	1235.019	936.217
161.877	14.350	1233.719	934.839
162.892	14.366	1232.874	934.210
163.906	14.255	1231.892	932.757
164.921	14.296	1230.834	932.105
165.935	14.362	1230.113	931.846
166.950	14.468	1229.442	931.850
167.964	14.431	1228.684	930.982
168.979	14.494	1227.642	930.463
169.994	14.388	1227.312	929.541
171.008	14.489	1226.302	929.256
172.023	14.643	1225.285	929.260
173.037	14.571	1224.715	928.344
174.052	14.545	1223.612	927.283
175.067	14.432	1222.580	925.789
176.081	14.383	1222.163	925.121
177.096	14.433	1220.804	924.286
178.110	14.408	1219.879	923.368
179.125	14.417	1218.576	922.351
180.140	14.553	1217.250	922.016
181.154	14.552	1215.810	920.837
182.169	14.576	1215.216	920.441
183.183	14.667	1213.698	919.707
184.198	14.737	1212.293	918.947
185.213	14.669	1211.558	917.935
186.227	14.677	1210.749	917.284
187.242	14.738	1209.593	916.666
188.256	14.792	1208.814	916.287
189.271	14.836	1207.568	915.504
190.286	14.731	1206.620	914.131
191.300	14.583	1205.166	912.138
192.315	14.471	1205.109	911.400
193.329	14.485	1204.571	910.990
194.344	14.534	1203.610	910.451
195.359	14.637	1203.150	910.585
196.373	14.667	1202.616	910.260
197.388	14.728	1202.269	910.249
198.402	14.741	1201.988	910.027
199.417	14.918	1201.346	910.427
200.432	14.965	1200.163	909.703
201.446	15.002	1199.254	909.136
202.461	15.073	1198.027	908.514
203.475	15.055	1197.652	908.051
204.490	15.031	1196.058	906.633
205.504	14.832	1195.328	904.918
206.519	14.901	1194.060	904.251
207.534	14.853	1192.501	902.733
208.548	14.952	1191.760	902.624
209.563	14.955	1190.540	901.637
210.577	14.886	1189.926	900.720
211.592	15.037	1188.837	900.628
212.607	15.123	1188.312	900.617
213.621	15.122	1187.218	899.704
214.636	15.115	1186.198	898.810
215.650	15.112	1185.535	898.215
216.665	15.162	1184.567	897.667
217.680	15.194	1183.358	896.844
218.694	15.125	1183.134	896.227
219.709	15.152	1182.377	895.717
220.723	15.213	1181.506	895.306
221.738	15.102	1180.726	894.040
222.753	15.213	1179.737	893.804
223.767	15.143	1179.382	893.086
224.782	15.281	1178.894	893.368
225.796	15.371	1177.971	893.073
226.811	15.372	1177.177	892.396
227.826	15.224	1176.552	891.058
228.840	15.215	1175.986	890.503
229.855	15.279	1175.254	890.208
230.869	15.242	1174.380	889.270
231.884	15.221	1173.538	888.444
232.899	15.261	1172.555	887.831
233.913	15.206	1171.746	886.852
234.928	15.077	1171.758	886.098
235.942	15.152	1170.817	885.703
236.957	15.299	1169.492	885.401
237.972	15.224	1169.015	884.562
238.986	15.179	1168.365	883.755
240.001	15.277	1167.310	883.399
241.015	15.391	1166.385	883.220
242.030	15.273	1166.264	882.429
243.045	15.333	1165.196	881.858
244.059	15.332	1164.391	881.165
245.074	15.465	1163.564	881.161
246.088	15.402	1162.665	880.073
247.103	15.384	1162.314	879.632
248.117	15.536	1161.259	879.551
249.132	15.605	1160.628	879.360
250.147	15.588	1160.574	879.152
251.161	15.742	1159.415	878.999
252.176	15.801	1158.594	878.608
253.190	15.749	1158.331	878.060
254.205	15.876	1157.528	878.033
255.220	15.838	1157.021	877.372
256.234	15.838	1156.316	876.763
257.249	15.810	1155.607	876.002
258.263	15.831	1154.714	875.353
259.278	15.842	1154.073	874.847
260.293	15.872	1153.741	874.674
261.307	15.935	1153.156	874.484
262.322	15.913	1152.439	873.747
263.336	15.887	1151.679	872.958
264.351	15.947	1151.231	872.851
265.366	16.007	1150.593	872.605
266.380	15.957	1150.005	871.822
267.395	16.085	1149.014	871.653
268.409	15.926	1148.314	870.224
269.424	15.918	1147.723	869.658
270.439	16.007	1146.874	869.399
271.453	15.936	1146.362	868.567
272.468	15.994	1145.136	867.861
273.482	15.885	1144.693	866.887
274.497	15.923	1144.019	866.494
275.512	16.043	1143.283	866.477
276.526	16.093	1142.432	866.012
277.541	16.007	1141.635	864.888
278.555	16.013	1140.859	864.258
279.570	16.058	1140.729	864.313
280.585	16.135	1139.961	864.046
281.599	16.251	1138.347	863.343
282.614	16.082	1137.566	861.810
283.628	16.069	1136.608	860.942
284.643	16.148	1135.383	860.342
285.657	16.198	1134.889	860.145
286.672	16.158	1134.229	859.365
287.687	16.125	1133.005	858.193
288.701	16.237	1132.748	858.492
289.716	16.265	1131.720	857.780
290.730	16.245	1131.050	857.096
291.745	16.245	1130.234	856.402
292.760	16.334	1129.310	856.075
293.774	16.374	1128.865	855.862
294.789	16.318	1128.648	855.338
295.803	16.421	1127.535	854.944
296.818	16.316	1127.200	854.080
297.833	16.269	1126.388	853.155
298.847	16.281	1125.697	852.617
299.862	16.394	1124.450	852.167
300.876	16.377	1124.183	851.800
301.891	16.512	1123.048	851.545
302.906	16.368	1122.873	850.611
303.920	16.424	1121.733	849.958
304.935	16.565	1121.584	850.476
305.949	16.554	1121.114	849.991
306.964	16.606	1119.987	849.322
307.979	16.691	1118.821	848.786
308.993	16.566	1118.839	848.100
310.008	16.686	1117.519	847.627
311.022	16.667	1116.861	846.956
312.037	16.635	1116.221	846.238
313.052	16.620	1115.499	845.538
314.066	16.556	1114.354	844.278
315.081	16.607	1113.280	843.641
316.095	16.518	1112.465	842.504
317.110	16.458	1112.405	842.086
318.125	16.428	1111.373	841.084
319.139	16.474	1110.691	840.722
320.154	16.622	1110.107	840.939
321.168	16.533	1109.528	839.986
322.183	16.597	1108.800	839.676
323.197	16.557	1108.014	838.809
324.212	16.488	1107.711	838.165
325.227	16.583	1107.163	838.143
326.241	16.690	1106.279	837.933
327.256	16.586	1105.696	836.902
328.270	16.660	1104.333	836.160
329.285	16.593	1103.730	835.300
330.300	16.763	1102.469	835.111
331.314	16.559	1102.296	833.899
332.329	16.745	1100.736	833.563
333.343	16.771	1099.907	832.986
334.358	16.797	1099.390	832.650
335.373	16.794	1098.566	831.937
336.387	16.733	1097.981	831.123
337.402	16.883	1097.006	831.046
338.416	16.856	1096.784	830.672
339.431	16.837	1095.545	829.565
340.446	16.932	1095.168	829.672
341.460	16.899	1094.870	829.214
342.475	17.082	1093.464	828.967
343.489	17.069	1092.589	828.168
344.504	16.949	1092.221	827.229
345.519	17.148	1091.002	827.204
346.533	17.194	1090.230	826.767
347.548	17.210	1089.662	826.343
348.562	17.172	1088.756	825.396
349.577	17.152	1088.122	824.748
350.592	17.137	1086.661	823.495
351.606	17.065	1086.345	822.831
352.621	16.896	1085.739	821.481
353.635	17.028	1084.631	821.207
354.650	16.990	1083.989	820.467
355.665	17.019	1083.828	820.411
356.679	17.030	1082.905	819.693
357.694	16.996	1082.739	819.330
358.708	17.210	1081.620	819.442
359.723	17.186	1080.762	818.605
360.738	17.069	1080.807	818.006
361.752	17.170	1080.118	817.898
362.767	17.221	1079.323	817.465
363.781	17.160	1078.920	816.798
364.796	17.291	1078.182	816.797
365.810	17.455	1077.811	817.232
366.825	17.353	1077.098	816.129
367.840	17.528	1076.590	816.508
368.854	17.477	1075.891	815.662
369.869	17.575	1074.848	815.271
370.883	17.561	1074.336	814.742
371.898	17.414	1073.534	813.360
372.913	17.430	1072.968	812.935
373.927	17.486	1072.326	812.644
374.942	17.363	1072.144	811.848
375.956	17.588	1071.072	812.036
376.971	17.500	1070.683	811.249
377.986	17.432	1070.199	810.484
379.000	17.577	1069.743	810.760
380.015	17.738	1069.347	811.152
381.029	17.692	1068.880	810.509
382.044	17.654	1068.222	809.760
383.059	17.742	1067.105	809.257
384.073	17.728	1066.006	808.285
385.088	17.709	1065.482	807.728
386.102	17.790	1064.356	807.184
387.117	17.748	1063.431	806.212
388.132	17.616	1062.613	804.900
389.146	17.655	1061.362	804.064
390.161	17.592	1060.708	803.199
391.175	17.670	1060.220	803.126
392.190	17.651	1059.972	802.777
393.205	17.767	1059.272	802.722
394.219	17.806	1058.040	801.901
395.234	17.758	1057.303	801.045
396.248	17.639	1056.582	799.873
397.263	17.656	1055.548	799.099
398.278	17.639	1054.576	798.210
399.292	17.639	1053.761	797.526
400.307	17.616	1053.192	796.915
401.321	17.696	1052.655	796.813
402.336	17.584	1052.072	795.778
403.350	17.637	1051.296	795.368
404.365	17.742	1050.396	795.106
405.380	17.809	1050.257	795.242
406.394	17.795	1049.014	794.167
407.409	18.033	1047.922	794.377
408.423	17.897	1047.382	793.264
409.438	17.967	1047.123	793.323
410.453	17.930	1046.686	792.748
411.467	18.101	1045.530	792.596
412.482	18.135	1044.929	792.230
413.496	18.287	1044.100	792.234
414.511	18.198	1043.674	791.429
415.526	18.188	1043.221	790.967
416.540	18.165	1043.168	790.754
417.555	18.238	1042.420	790.455
418.569	18.265	1042.137	790.294
419.584	18.257	1041.356	789.594
420.599	18.245	1040.797	789.044
421.613	146.986	1399.330	1787.471
422.628	134.388	1451.576	1787.573
