DTS Sentinel unit serial number:	SN413079Multiplexer serial number:	ORYXHardware model number:	OX4-SRSoftware version number:	ORYX F/W v4.00 Oryx Data Collector v3.7.2.0data status	okinstallation	princeton_trtdifferential loss correction	single-endedforward channel	channel 2reverse channel	N/Adate	2019/09/16time	20:47:34forward acquisition time	60.00reverse acquisition time	0.00gamma	496.2192k internal	0.2329k external	0.2329temperature offset calibration	0.9967default loss term (dB/km)	0.3790temperature slope calibration	1.0000multiplexer offset coefficient	1.0000multiplexer slope coefficient	1.0000fibre end	0.00T internal ref (°C)	32.31T ext. ref 1 (°C)	0.07T ext. ref 2 (°C)	25.94length (m)	temperature (°C)	Stokes	anti-Stokes-747.200	-5.084	0.160	0.111
-746.185	-22.320	0.162	0.099
-745.171	-200.000	-0.010	0.081
-744.156	641.142	0.196	0.503
-743.142	-73.860	-0.142	0.052
-742.127	-200.000	-0.023	0.288
-741.112	215.764	-0.136	-0.218
-740.098	-136.154	-0.157	0.019
-739.083	-161.791	0.246	-0.013
-738.069	237.040	-0.280	0.467
-737.054	-5.533	0.131	-0.091
-736.039	102.195	0.155	-0.183
-735.025	62.325	0.117	0.118
-734.010	-164.454	-0.462	-0.021
-732.996	335.219	-0.050	-0.097
-731.981	-200.000	0.015	-0.210
-730.966	800.000	0.123	-0.342
-729.952	635.925	-0.084	-0.215
-728.937	-200.000	0.039	-0.366
-727.923	-81.991	-0.216	0.071
-726.908	252.088	-0.068	0.117
-725.894	-1.010	0.219	-0.156
-724.879	-71.700	-0.092	-0.035
-723.864	800.000	0.045	0.139
-722.850	-130.573	0.123	0.017
-721.835	187.258	0.015	-0.022
-720.821	-125.198	0.249	-0.038
-719.806	32.187	-0.348	-0.302
-718.791	634.165	0.108	-0.277
-717.777	-76.977	-0.333	-0.117
-716.762	-200.000	0.044	-0.265
-715.748	-200.000	-0.005	-0.135
-714.733	-114.164	0.091	0.018
-713.718	-200.000	-0.094	-0.430
-712.704	-26.905	0.145	-0.085
-711.689	800.000	0.070	-0.207
-710.675	23.770	-0.062	-0.051
-709.660	-161.550	0.293	-0.015
-708.645	256.280	-0.059	-0.102
-707.631	-56.641	-0.210	-0.093
-706.616	90.151	0.081	0.091
-705.602	1.819	0.132	-0.096
-704.587	95.477	-0.188	-0.215
-703.572	31.998	-0.056	-0.049
-702.558	278.658	-0.099	-0.177
-701.543	420.473	-0.127	-0.275
-700.529	-200.000	-0.009	-0.177
-699.514	69.859	0.079	-0.082
-698.499	-122.713	-0.245	-0.040
-697.485	-139.132	-0.259	0.028
-696.470	127.190	0.110	0.140
-695.456	-60.650	-0.427	-0.182
-694.441	207.616	-0.137	-0.215
-693.426	137.911	0.129	0.170
-692.412	-200.000	-0.022	-0.147
-691.397	39.187	0.216	0.194
-690.383	800.000	-0.046	0.127
-689.368	505.222	-0.055	-0.128
-688.354	-99.000	0.198	-0.051
-687.339	-128.573	0.051	-0.007
-686.324	-200.000	0.009	-0.199
-685.310	91.841	-0.226	-0.256
-684.295	-200.000	0.305	-0.001
-683.281	73.620	-0.106	-0.111
-682.266	96.791	-0.156	-0.179
-681.251	800.000	-0.121	-0.522
-680.237	-200.000	-0.025	-0.134
-679.222	800.000	-0.114	-0.334
-678.208	-93.139	-0.225	0.063
-677.193	-200.000	-0.015	-0.129
-676.178	-200.000	0.065	-0.497
-675.164	-151.150	0.201	-0.015
-674.149	762.057	-0.065	-0.177
-673.135	800.000	-0.036	-0.128
-672.120	147.252	-0.137	-0.186
-671.105	-116.917	-0.350	-0.064
-670.091	-200.000	-0.003	-0.260
-669.076	584.653	-0.144	-0.355
-668.062	-137.325	0.180	-0.020
-667.047	591.640	-0.035	-0.086
-666.032	56.564	0.089	0.087
-665.018	-200.000	-0.069	-0.318
-664.003	119.559	0.140	-0.174
-662.989	0.280	0.123	-0.088
-661.974	-200.000	0.014	0.137
-660.959	-200.000	-0.015	0.069
-659.945	-89.549	-0.097	0.028
-658.930	216.113	-0.043	0.069
-657.916	238.804	0.037	0.062
-656.901	96.215	-0.034	0.039
-655.886	-11.627	-0.307	-0.202
-654.872	-8.175	0.068	0.046
-653.857	-94.810	-0.163	0.044
-652.843	-147.079	0.233	0.020
-651.828	200.080	-0.348	-0.536
-650.814	110.875	0.212	-0.257
-649.799	99.705	-0.021	0.024
-648.784	800.000	0.043	-0.149
-647.770	-154.114	-0.327	-0.022
-646.755	-200.000	-0.005	-0.238
-645.741	800.000	-0.049	-0.196
-644.726	-33.570	-0.163	0.090
-643.711	-75.248	-0.117	-0.042
-642.697	72.270	0.103	0.108
-641.682	-44.236	0.195	0.098
-640.668	41.794	-0.212	0.193
-639.653	800.000	-0.052	0.199
-638.638	454.233	0.091	0.202
-637.624	280.802	0.102	-0.182
-636.609	9.948	0.133	-0.101
-635.595	-26.619	-0.303	0.178
-634.580	-150.468	0.149	-0.011
-633.565	-39.330	0.265	-0.140
-632.551	422.168	0.040	0.086
-631.536	-200.000	0.026	-0.228
-630.522	-200.000	-0.018	0.083
-629.507	-200.000	0.016	-0.086
-628.492	-200.000	-0.009	-0.256
-627.478	35.336	-0.079	0.069
-626.463	-200.000	0.078	-0.443
-625.449	183.140	-0.324	0.480
-624.434	-200.000	-0.035	0.393
-623.419	-94.495	-0.374	-0.102
-622.405	122.994	-0.095	0.119
-621.390	183.369	0.027	0.039
-620.376	358.538	-0.059	-0.118
-619.361	-5.828	-0.053	-0.036
-618.346	429.997	0.176	0.382
-617.332	226.197	-0.137	-0.223
-616.317	800.000	-0.091	0.348
-615.303	57.526	-0.058	0.057
-614.288	-34.634	-0.143	0.078
-613.273	-56.262	-0.240	-0.107
-612.259	-200.000	0.014	0.210
-611.244	270.200	-0.154	-0.272
-610.230	-39.859	-0.301	-0.158
-609.215	800.000	-0.081	-0.255
-608.201	350.945	-0.093	-0.184
-607.186	-200.000	-0.020	-0.285
-606.171	102.849	0.108	0.126
-605.157	800.000	0.074	-0.219
-604.142	-7.607	-0.163	0.110
-603.128	-7.408	0.129	-0.087
-602.113	-134.074	-0.377	0.047
-601.098	125.751	0.137	-0.174
-600.084	-48.218	0.134	-0.065
-599.069	363.421	-0.079	-0.159
-598.055	-200.000	0.011	0.234
-597.040	-85.140	0.237	-0.074
-596.025	-200.000	0.003	-0.253
-595.011	-50.755	0.116	0.055
-593.996	21.463	0.127	0.103
-592.982	-200.000	-0.020	0.261
-591.967	130.427	0.127	0.162
-590.952	800.000	0.128	-0.409
-589.938	-200.000	0.024	-0.214
-588.923	-131.616	-0.375	-0.049
-587.909	-156.327	-0.293	0.018
-586.894	-56.880	-0.508	-0.225
-585.879	-200.000	0.004	-0.162
-584.865	-200.000	-0.012	-0.097
-583.850	75.179	0.083	-0.087
-582.836	757.807	-0.137	-0.372
-581.821	244.979	-0.025	0.043
-580.806	-82.642	-0.185	0.060
-579.792	0.304	0.058	-0.041
-578.777	-22.645	-0.131	-0.079
-577.763	-134.243	0.189	0.023
-576.748	-99.277	0.085	0.021
-575.733	-200.000	-0.027	0.311
-574.719	-200.000	0.044	0.226
-573.704	-200.000	0.030	-0.283
-572.690	604.398	0.058	-0.144
-571.675	105.180	0.165	0.195
-570.661	800.000	0.057	-0.185
-569.646	-83.828	0.380	0.121
-568.631	265.679	-0.060	-0.105
-567.617	-200.000	-0.046	-0.238
-566.602	-41.986	-0.065	0.034
-565.588	500.687	0.118	0.272
-564.573	13.513	0.062	-0.048
-563.558	192.015	0.194	-0.292
-562.544	-200.000	-0.028	0.126
-561.529	-93.878	-0.399	-0.110
-560.515	-135.113	0.080	0.010
-559.500	-200.000	0.105	0.596
-558.485	21.311	0.164	0.133
-557.471	-79.337	-0.365	0.124
-556.456	-98.935	0.250	0.063
-555.442	-72.763	0.412	0.152
-554.427	-200.000	0.067	0.392
-553.412	800.000	0.052	0.208
-552.398	27.751	-0.360	-0.303
-551.383	-95.951	-0.312	-0.083
-550.369	800.000	-0.081	-0.264
-549.354	-200.000	-0.003	0.045
-548.339	13.025	-0.384	0.297
-547.325	-74.097	0.170	-0.062
-546.310	-200.000	0.022	-0.162
-545.296	126.379	0.067	-0.085
-544.281	-94.121	-0.161	0.044
-543.266	-114.331	-0.249	-0.048
-542.252	-200.000	-0.032	0.335
-541.237	-129.533	0.270	-0.037
-540.223	-31.363	-0.172	0.097
-539.208	-200.000	-0.009	-0.338
-538.193	477.346	0.084	0.190
-537.179	93.673	-0.234	0.265
-536.164	-51.362	0.120	0.056
-535.150	800.000	0.016	0.063
-534.135	-118.703	0.061	-0.011
-533.121	800.000	0.061	-0.211
-532.106	-0.845	0.174	-0.123
-531.091	-200.000	-0.024	0.144
-530.077	-200.000	0.076	-0.381
-529.062	75.598	0.321	-0.339
-528.048	-72.385	-0.134	-0.049
-527.033	538.368	-0.137	0.324
-526.018	800.000	-0.041	0.164
-525.004	-127.775	-0.211	0.030
-523.989	147.446	0.092	0.124
-522.975	-80.011	-0.242	-0.081
-521.960	368.375	0.120	0.243
-520.945	-34.580	-0.382	0.209
-519.931	4.638	-0.034	0.025
-518.916	-25.728	-0.101	-0.059
-517.902	-84.121	-0.375	-0.119
-516.887	-127.100	0.314	-0.046
-515.872	800.000	0.064	-0.203
-514.858	-155.534	-0.149	0.010
-513.843	-167.536	0.324	0.013
-512.829	-200.000	-0.025	0.165
-511.814	-91.587	-0.143	-0.041
-510.799	800.000	0.076	-0.273
-509.785	800.000	0.105	-0.305
-508.770	12.872	0.183	0.141
-507.756	12.588	-0.108	0.083
-506.741	800.000	0.030	0.126
-505.726	-200.000	-0.002	0.142
-504.712	-200.000	-0.034	0.290
-503.697	800.000	-0.054	0.192
-502.683	800.000	-0.052	0.219
-501.668	-28.116	0.241	0.139
-500.653	-200.000	-0.003	0.037
-499.639	-71.018	0.106	0.040
-498.624	-200.000	-0.110	-0.497
-497.610	-87.436	0.245	0.074
-496.595	-64.107	0.130	-0.053
-495.581	627.090	-0.081	-0.204
-494.566	159.077	0.271	0.376
-493.551	-200.000	-0.004	-0.172
-492.537	586.724	-0.088	-0.217
-491.522	497.425	-0.203	-0.467
-490.508	-200.000	-0.014	-0.312
-489.493	-160.238	0.094	-0.005
-488.478	800.000	-0.009	0.028
-487.464	652.575	-0.030	-0.075
-486.449	-200.000	-0.002	-0.096
-485.435	-133.360	0.325	-0.041
-484.420	-34.286	0.537	-0.294
-483.405	-200.000	-0.011	0.169
-482.391	-83.750	0.501	-0.159
-481.376	-57.217	-0.268	-0.118
-480.362	-92.268	0.294	0.083
-479.347	115.691	-0.092	-0.112
-478.332	-25.065	0.232	-0.137
-477.318	-200.000	-0.046	0.298
-476.303	800.000	0.099	0.379
-475.289	259.297	-0.098	0.169
-474.274	-24.133	0.185	0.110
-473.259	20.596	-0.012	-0.010
-472.245	149.921	-0.044	-0.059
-471.230	800.000	0.115	0.382
-470.216	-106.204	0.202	-0.045
-469.201	-200.000	0.008	-0.317
-468.186	-200.000	0.024	-0.359
-467.172	309.042	-0.238	-0.444
-466.157	-22.749	-0.327	0.197
-465.143	98.103	0.118	-0.136
-464.128	31.452	0.025	-0.021
-463.113	-121.514	0.235	0.039
-462.099	-41.010	-0.020	0.011
-461.084	-99.858	0.371	0.093
-460.070	8.612	-0.233	0.175
-459.055	-82.807	-0.104	-0.034
-458.040	81.330	0.118	-0.127
-457.026	-91.317	-0.296	-0.084
-456.011	-25.917	-0.061	-0.036
-454.997	-200.000	-0.019	-0.213
-453.982	20.209	0.166	-0.133
-452.968	-184.279	-0.108	0.002
-451.953	-200.000	0.053	0.350
-450.938	-97.175	-0.208	0.054
-449.924	-200.000	0.062	-0.420
-448.909	-200.000	-0.053	0.254
-447.895	-177.352	0.162	0.004
-446.880	-141.617	0.115	-0.012
-445.865	-146.805	-0.502	0.043
-444.851	800.000	0.084	0.264
-443.836	-88.904	-0.440	-0.130
-442.822	-90.788	0.103	-0.030
-441.807	-142.481	0.209	-0.020
-440.792	117.829	-0.140	-0.172
-439.778	-200.000	0.028	0.364
-438.763	-180.203	-0.163	0.003
-437.749	-200.000	0.000	-0.142
-436.734	-99.981	0.067	0.017
-435.719	26.612	-0.213	-0.177
-434.705	-89.981	0.183	-0.053
-433.690	-52.128	-0.177	0.082
-432.676	152.305	0.186	-0.253
-431.661	-200.000	0.049	-0.218
-430.646	-60.372	0.043	0.018
-429.632	800.000	0.090	0.253
-428.617	302.073	-0.133	-0.244
-427.603	26.920	0.223	-0.186
-426.588	-200.000	-0.067	0.356
-425.573	-124.205	-0.371	-0.058
-424.559	-118.387	0.191	-0.034
-423.544	-162.218	-0.185	-0.009
-422.530	800.000	0.027	-0.088
-421.515	-23.852	-0.377	0.224
-420.500	92.435	0.187	0.210
-419.486	800.000	-0.027	-0.113
-418.471	98.619	-0.076	0.087
-417.457	557.155	0.039	-0.093
-416.442	535.918	-0.049	0.116
-415.428	-173.675	0.249	0.007
-414.413	-114.094	-0.307	0.059
-413.398	-125.546	0.293	0.044
-412.384	-84.055	0.277	-0.087
-411.369	207.456	-0.192	-0.299
-410.355	800.000	-0.091	-0.317
-409.340	18.931	0.251	0.200
-408.325	786.230	0.078	0.213
-407.311	243.148	0.030	-0.049
-406.296	-200.000	-0.022	0.157
-405.282	-44.091	0.057	0.028
-404.267	-200.000	0.040	0.476
-403.252	-200.000	0.063	-0.323
-402.238	238.968	-0.111	-0.183
-401.223	-200.000	0.002	0.161
-400.209	-200.000	-0.035	0.183
-399.194	-200.000	-0.031	-0.289
-398.179	-200.000	-0.011	-0.147
-397.165	178.396	0.034	-0.050
-396.150	115.456	-0.156	0.190
-395.136	-34.668	0.225	-0.122
-394.121	6.697	0.297	-0.219
-393.106	94.561	-0.158	0.178
-392.092	-200.000	0.070	-0.350
-391.077	-65.815	0.145	-0.058
-390.063	-200.000	0.011	-0.160
-389.048	767.558	-0.151	-0.407
-388.033	24.001	-0.218	0.178
-387.019	10.504	-0.189	0.143
-386.004	-164.162	-0.175	0.008
-384.990	-77.234	-0.331	-0.115
-383.975	183.206	0.148	0.217
-382.960	55.112	0.155	-0.149
-381.946	408.795	0.025	0.053
-380.931	800.000	0.052	0.200
-379.917	-149.416	-0.220	0.017
-378.902	226.933	-0.174	0.280
-377.888	184.737	-0.046	-0.067
-376.873	81.401	-0.191	0.205
-375.858	-21.554	0.059	-0.035
-374.844	98.906	0.069	-0.079
-373.829	134.050	0.251	0.323
-372.815	148.427	0.212	-0.284
-371.800	144.529	0.057	0.075
-370.785	-70.882	-0.097	-0.036
-369.771	-99.803	0.142	0.035
-368.756	153.882	0.226	-0.308
-367.742	-200.000	-0.026	0.326
-366.727	-16.608	-0.276	0.173
-365.712	43.524	0.447	0.406
-364.698	-200.000	-0.033	0.149
-363.683	-116.722	-0.316	-0.058
-362.669	-200.000	-0.011	-0.239
-361.654	532.052	-0.107	0.251
-360.639	247.164	-0.100	-0.167
-359.625	-85.250	0.173	-0.054
-358.610	-200.000	-0.024	0.262
-357.596	-200.000	-0.003	-0.056
-356.581	-200.000	-0.064	-0.335
-355.566	800.000	-0.069	0.237
-354.552	44.297	0.027	-0.024
-353.537	609.425	0.164	-0.407
-352.523	71.668	-0.030	0.031
-351.508	-200.000	0.003	-0.046
-350.493	-16.316	-0.127	-0.080
-349.479	-200.000	0.008	-0.376
-348.464	-149.178	0.235	0.019
-347.450	138.662	0.264	0.344
-346.435	-200.000	-0.012	-0.111
-345.420	181.679	0.292	0.426
-344.406	49.636	0.131	-0.122
-343.391	-200.000	-0.002	-0.182
-342.377	-4.497	-0.369	-0.253
-341.362	-200.000	-0.006	0.050
-340.348	-9.846	0.300	0.198
-339.333	-52.311	-0.182	-0.084
-338.318	43.376	0.204	0.185
-337.304	-59.950	0.217	0.092
-336.289	403.072	-0.148	-0.308
-335.275	800.000	0.046	0.188
-334.260	125.684	-0.101	-0.127
-333.245	345.059	-0.078	0.152
-332.231	-200.000	-0.072	-0.000
-331.216	-35.106	-0.148	0.080
-330.202	282.001	0.093	0.166
-329.187	180.451	0.147	0.214
-328.172	-130.474	0.234	0.031
-327.158	-200.000	0.026	-0.413
-326.143	-64.783	0.071	-0.028
-325.129	147.073	-0.080	0.107
-324.114	169.299	-0.266	-0.377
-323.099	-99.594	0.153	-0.038
-322.085	112.029	-0.222	-0.266
-321.070	-40.423	-0.125	-0.065
-320.056	607.944	-0.043	0.106
-319.041	14.070	0.143	-0.110
-318.026	215.439	-0.142	-0.224
-317.012	-106.817	0.225	0.050
-315.997	-168.749	0.092	-0.003
-314.983	-200.000	-0.002	-0.127
-313.968	44.708	-0.199	0.182
-312.953	30.184	-0.105	-0.088
-311.939	208.386	0.086	-0.133
-310.924	52.761	0.122	-0.115
-309.910	-200.000	-0.039	-0.180
-308.895	-137.200	0.326	0.037
-307.880	-36.551	0.175	0.093
-306.866	33.713	0.173	0.149
-305.851	-61.973	-0.381	0.158
-304.837	-200.000	-0.010	-0.122
-303.822	-147.221	0.042	-0.004
-302.807	662.342	0.102	0.259
-301.793	448.049	0.123	0.268
-300.778	-200.000	-0.461	-0.000
-299.764	-200.000	-0.013	0.377
-298.749	-69.915	-0.240	0.090
-297.735	512.227	-0.118	0.271
-296.720	427.905	0.104	0.223
-295.705	-0.511	-0.131	-0.092
-294.691	-200.000	0.072	-0.351
-293.676	227.162	0.112	-0.181
-292.662	1.096	0.239	0.170
-291.647	58.481	-0.074	-0.072
-290.632	-200.000	-0.009	-0.047
-289.618	37.360	-0.049	0.043
-288.603	635.356	-0.098	-0.246
-287.589	-36.828	-0.151	0.080
-286.574	-200.000	-0.005	-0.251
-285.559	-97.094	0.491	-0.127
-284.545	-56.763	-0.073	-0.032
-283.530	-99.735	0.206	-0.051
-282.516	257.436	0.072	-0.123
-281.501	78.156	0.175	0.184
-280.486	158.675	-0.040	-0.055
-279.472	-133.928	-0.208	-0.026
-278.457	-165.950	-0.165	-0.007
-277.443	12.419	0.136	-0.103
-276.428	50.745	-0.089	0.083
-275.413	-94.191	-0.195	-0.053
-274.399	-200.000	-0.018	0.079
-273.384	-138.144	0.149	-0.016
-272.370	435.737	-0.071	-0.153
-271.355	171.524	-0.123	0.175
-270.340	313.442	-0.131	0.243
-269.326	-200.000	0.014	-0.227
-268.311	-166.017	0.116	-0.005
-267.297	-161.382	0.217	0.011
-266.282	202.706	-0.032	-0.049
-265.267	67.333	0.048	-0.048
-264.253	800.000	-0.068	-0.237
-263.238	216.380	0.182	0.287
-262.224	-121.771	-0.340	0.055
-261.209	-100.239	0.302	-0.074
-260.195	-200.000	0.012	-0.107
-259.180	-200.000	0.015	-0.210
-258.165	76.170	-0.151	-0.158
-257.151	-13.551	0.214	-0.137
-256.136	-45.043	-0.118	0.058
-255.122	152.704	0.269	0.363
-254.107	-200.000	-0.033	-0.148
-253.092	232.851	-0.046	-0.074
-252.078	-200.000	0.026	0.322
-251.063	77.559	0.176	0.185
-250.049	332.819	0.113	0.217
-249.034	45.930	0.073	-0.067
-248.019	-149.104	-0.245	-0.019
-247.005	-16.170	-0.105	-0.066
-245.990	57.395	0.230	-0.222
-244.976	34.700	-0.297	-0.257
-243.961	-32.674	-0.167	-0.092
-242.946	-200.000	-0.090	0.496
-241.932	660.294	0.080	-0.204
-240.917	219.604	0.239	-0.377
-239.903	-40.604	-0.398	0.204
-238.888	-148.579	0.092	-0.007
-237.873	-200.000	-0.010	-0.112
-236.859	-58.046	0.318	0.137
-235.844	113.953	-0.188	-0.225
-234.830	800.000	-0.066	-0.185
-233.815	-200.000	0.021	-0.291
-232.800	-5.937	-0.490	-0.331
-231.786	-159.227	0.283	-0.016
-230.771	-103.421	-0.216	0.050
-229.757	-200.000	0.018	0.160
-228.742	-72.175	0.125	0.046
-227.727	123.811	0.145	0.180
-226.713	-126.690	0.215	-0.031
-225.698	800.000	0.039	0.139
-224.684	-200.000	0.021	-0.112
-223.669	-20.189	0.104	-0.063
-222.655	-51.261	0.037	-0.017
-221.640	-200.000	0.046	-0.533
-220.625	131.181	-0.181	-0.229
-219.611	-156.231	0.332	-0.021
-218.596	556.928	0.105	0.249
-217.582	-42.747	0.213	0.107
-216.567	-200.000	0.014	-0.101
-215.552	55.145	0.348	-0.332
-214.538	-200.000	-0.012	-0.125
-213.523	118.580	0.112	0.136
-212.509	170.511	-0.084	-0.118
-211.494	800.000	0.027	-0.110
-210.479	-190.450	0.206	0.002
-209.465	-163.486	0.355	0.017
-208.450	18.409	0.106	-0.083
-207.436	21.730	0.233	0.187
-206.421	-62.022	0.273	0.112
-205.406	212.390	0.160	0.249
-204.392	208.584	0.119	0.184
-203.377	-200.000	0.044	0.343
-202.363	73.683	-0.255	0.263
-201.348	-157.346	0.072	0.004
-200.333	-132.738	-0.144	-0.018
-199.319	-200.000	-0.045	0.309
-198.304	159.894	-0.087	-0.120
-197.290	-200.000	0.020	0.213
-196.275	-134.048	0.153	-0.019
-195.260	-89.020	0.175	0.051
-194.246	-163.896	-0.348	0.016
-193.231	-200.000	-0.032	0.203
-192.217	236.972	0.248	0.404
-191.202	-46.729	0.281	0.136
-190.187	39.979	0.134	0.119
-189.173	-200.000	-0.026	-0.142
-188.158	7.215	-0.138	-0.101
-187.144	-143.539	0.106	-0.010
-186.129	-200.000	-0.006	0.098
-185.114	-200.000	-0.026	0.274
-184.100	34.485	-0.236	0.203
-183.085	-200.000	0.004	0.132
-182.071	361.437	-0.085	-0.167
-181.056	195.162	-0.088	-0.132
-180.042	31.152	-0.285	0.241
-179.027	-22.216	-0.075	-0.045
-178.012	-86.075	-0.406	0.124
-176.998	-19.328	-0.301	0.184
-175.983	800.000	-0.114	0.368
-174.969	324.382	-0.148	0.278
-173.954	174.373	-0.144	0.205
-172.939	-43.656	-0.136	0.067
-171.925	-91.191	0.184	-0.052
-170.910	-149.311	-0.149	0.012
-169.896	682.438	-0.065	0.168
-168.881	160.530	-0.040	0.055
-167.866	43.354	-0.205	-0.184
-166.852	800.000	0.041	0.137
-165.837	336.458	-0.056	0.107
-164.823	138.066	-0.098	0.127
-163.808	800.000	-0.019	0.074
-162.793	59.074	-0.286	0.277
-161.779	-200.000	0.019	0.181
-160.764	-136.293	0.199	-0.023
-159.750	800.000	0.060	-0.203
-158.735	-22.913	-0.126	0.075
-157.720	-57.899	0.105	-0.045
-156.706	-5.646	0.160	-0.108
-155.691	800.000	-0.050	0.174
-154.677	-70.626	0.172	0.064
-153.662	-80.015	-0.083	0.027
-152.647	800.000	0.079	-0.273
-151.633	800.000	0.047	-0.144
-150.618	-59.198	-0.180	-0.076
-149.604	88.839	0.116	0.128
-148.589	-105.491	0.044	-0.010
-147.574	-186.510	-0.086	-0.001
-146.560	52.483	-0.169	-0.159
-145.545	237.676	0.120	0.197
-144.531	463.204	0.066	-0.146
-143.516	125.692	-0.041	-0.051
-142.502	407.037	0.131	0.272
-141.487	-93.457	0.347	0.095
-140.472	-87.332	0.168	-0.050
-139.458	-200.000	0.019	0.162
-138.443	85.341	0.104	0.113
-137.429	141.940	0.086	-0.112
-136.414	54.871	0.164	0.156
-135.399	112.856	0.294	0.351
-134.385	-8.569	0.119	-0.078
-133.370	800.000	-0.093	-0.341
-132.356	55.942	-0.155	-0.148
-131.341	-15.181	0.084	-0.053
-130.326	204.096	0.113	-0.171
-129.312	54.230	0.123	0.117
-128.297	0.786	0.053	0.037
-127.283	-75.837	0.158	-0.055
-126.268	-33.882	0.261	0.141
-125.253	77.535	-0.157	0.164
-124.239	724.009	0.090	-0.236
-123.224	152.132	-0.120	0.160
-122.210	-118.083	0.226	-0.040
-121.195	-51.572	-0.297	0.136
-120.180	101.143	0.040	-0.046
-119.166	538.928	-0.035	-0.082
-118.151	-79.909	-0.036	0.012
-117.137	-151.838	-0.224	0.016
-116.122	-46.068	-0.147	0.071
-115.107	-13.561	-0.174	0.111
-114.093	-200.000	0.019	0.103
-113.078	51.728	-0.247	-0.231
-112.064	-111.237	0.199	-0.040
-111.049	-158.715	-0.200	-0.011
-110.034	-200.000	0.001	0.009
-109.020	-183.327	0.111	0.002
-108.005	-64.467	0.244	0.098
-106.991	-109.354	0.163	-0.034
-105.976	-86.951	-0.135	0.040
-104.962	-144.244	0.145	0.013
-103.947	-55.444	-0.220	0.097
-102.932	181.847	-0.157	-0.227
-101.918	0.793	0.070	-0.050
-100.903	-172.005	0.274	0.009
-99.889	396.436	-0.031	-0.064
-98.874	56.390	0.115	-0.110
-97.859	47.607	-0.034	0.031
-96.845	-200.000	0.030	0.133
-95.830	-21.589	0.357	-0.214
-94.816	169.689	0.072	0.100
-93.801	3.739	-0.217	0.156
-92.786	800.000	0.105	-0.347
-91.772	2.477	-0.154	-0.109
-90.757	111.101	-0.027	-0.032
-89.743	-121.302	0.185	0.030
-88.728	-11.476	-0.111	-0.072
-87.713	-200.000	0.055	-0.268
-86.699	800.000	0.020	-0.073
-85.684	-174.053	0.366	-0.011
-84.670	65.132	-0.046	-0.046
-83.655	-123.051	-0.524	0.083
-82.640	-67.242	-0.134	0.052
-81.626	800.000	0.083	0.317
-80.611	29.895	-0.155	-0.130
-79.597	800.000	0.089	-0.244
-78.582	27.831	0.134	0.111
-77.567	-200.000	0.029	-0.135
-76.553	-200.000	0.005	-0.316
-75.538	-181.267	-0.283	0.005
-74.524	35.685	-0.290	0.250
-73.509	80.657	0.392	0.415
-72.494	-51.244	-0.133	0.061
-71.480	435.945	-0.127	0.271
-70.465	-7.799	0.026	0.017
-69.451	-104.286	0.094	-0.021
-68.436	-52.089	-0.159	-0.072
-67.422	32.360	-0.125	0.106
-66.407	348.431	0.090	-0.173
-65.392	800.000	-0.054	0.227
-64.378	-41.071	-0.030	-0.015
-63.363	289.240	0.104	0.185
-62.349	-77.116	-0.109	-0.037
-61.334	50.090	-1.068	-0.989
-60.319	216.819	0.319	0.498
-59.305	-200.000	-0.191	-1.265
-58.290	213.269	0.677	1.049
-57.276	277.430	0.627	1.094
-56.261	-200.000	94.247	579.705
-55.246	568.090	1362.447	3245.044
-54.232	164.671	2536.069	3507.508
-53.217	107.788	2264.233	2643.874
-52.203	41.723	1895.386	1683.852
-51.188	35.571	1686.620	1451.997
-50.173	32.923	1643.031	1394.887
-49.159	50.567	1689.152	1566.464
-48.144	52.142	1705.578	1593.416
-47.130	35.244	1667.133	1432.550
-46.115	32.439	1653.358	1399.829
-45.100	32.316	1648.017	1394.339
-44.086	32.293	1645.037	1391.596
-43.071	32.287	1642.938	1389.722
-42.057	32.153	1641.012	1387.049
-41.042	32.261	1638.381	1385.560
-40.027	32.223	1636.977	1384.042
-39.013	32.138	1635.122	1381.796
-37.998	32.137	1633.429	1380.300
-36.984	32.235	1631.791	1379.580
-35.969	32.276	1630.613	1378.830
-34.954	32.383	1628.802	1378.031
-33.940	32.378	1626.761	1376.209
-32.925	32.326	1625.351	1374.582
-31.911	32.202	1624.044	1372.514
-30.896	32.310	1622.141	1371.642
-29.881	32.274	1620.399	1369.855
-28.867	32.312	1618.775	1368.703
-27.852	32.325	1617.273	1367.473
-26.838	32.287	1616.258	1366.281
-25.823	32.298	1614.658	1364.955
-24.809	32.366	1612.762	1363.790
-23.794	32.415	1611.346	1362.899
-22.779	32.344	1610.237	1361.388
-21.765	32.292	1608.932	1359.858
-20.750	32.305	1607.251	1358.475
-19.736	32.297	1605.875	1357.198
-18.721	32.349	1604.597	1356.442
-17.706	32.384	1602.782	1355.108
-16.692	32.375	1601.448	1353.859
-15.677	32.347	1600.141	1352.496
-14.663	32.423	1598.697	1351.771
-13.648	32.338	1597.566	1350.149
-12.633	32.318	1595.800	1348.463
-11.619	32.315	1594.604	1347.377
-10.604	32.267	1592.803	1345.456
-9.590	32.290	1591.625	1344.575
-8.575	32.409	1589.730	1343.770
-7.560	32.361	1588.825	1342.609
-6.546	32.398	1587.394	1341.607
-5.531	32.390	1586.996	1341.164
-4.517	32.286	1585.642	1339.228
-3.502	32.342	1584.842	1338.898
-2.487	32.412	1582.504	1337.362
-1.473	32.020	1570.758	1324.617
-0.458	28.925	1550.738	1286.081
0.556	23.181	1550.766	1251.857
1.571	20.725	1573.415	1252.381
2.586	20.098	1586.225	1257.914
3.600	18.152	1534.402	1203.029
4.615	10.242	1424.977	1065.265
5.629	1.963	1358.839	963.595
6.644	0.193	1350.345	946.372
7.659	0.057	1349.042	944.521
8.673	0.062	1347.718	943.543
9.688	-0.043	1346.348	941.843
10.702	-0.215	1343.077	938.393
11.717	3.582	1349.336	966.497
12.731	12.374	1363.142	1031.720
13.746	17.531	1369.981	1069.268
14.761	17.358	1367.299	1065.997
15.775	16.208	1365.353	1057.183
16.790	15.187	1362.312	1048.349
17.804	14.402	1360.235	1041.756
18.819	14.132	1358.664	1038.775
19.834	13.837	1357.706	1036.108
20.848	13.476	1356.703	1032.999
21.863	13.307	1355.185	1030.697
22.877	13.095	1354.247	1028.574
23.892	12.973	1353.097	1026.851
24.907	12.987	1352.896	1026.693
25.921	13.066	1351.172	1025.787
26.936	13.121	1350.492	1025.520
27.950	13.137	1349.767	1024.976
28.965	13.236	1348.786	1024.754
29.980	13.142	1347.965	1023.457
30.994	13.231	1346.907	1023.117
32.009	13.296	1346.113	1022.823
33.023	13.351	1344.470	1021.828
34.038	13.261	1343.841	1020.698
35.053	13.271	1342.550	1019.690
36.067	13.235	1341.735	1018.759
37.082	13.344	1340.482	1018.393
38.096	13.314	1339.769	1017.571
39.111	13.264	1338.885	1016.503
40.126	13.233	1337.869	1015.455
41.140	13.165	1337.455	1014.633
42.155	13.045	1337.317	1013.703
43.169	13.040	1337.267	1013.544
44.184	13.008	1336.892	1012.969
45.199	13.029	1336.002	1012.339
46.213	13.122	1335.960	1012.783
47.228	13.139	1335.279	1012.283
48.242	13.195	1333.943	1011.522
49.257	13.099	1332.401	1009.677
50.271	13.079	1330.615	1008.116
51.286	13.192	1329.303	1007.720
52.301	13.175	1328.348	1006.801
53.315	13.125	1327.424	1005.711
54.330	13.103	1326.267	1004.609
55.344	13.110	1325.277	1003.812
56.359	13.107	1324.328	1002.987
57.374	13.044	1323.226	1001.679
58.388	13.005	1322.134	1000.531
59.403	12.938	1322.039	999.964
60.417	13.076	1320.838	999.800
61.432	13.103	1319.535	998.892
62.447	12.961	1319.487	997.905
63.461	12.916	1318.501	996.799
64.476	12.935	1317.117	995.783
65.490	12.953	1315.868	994.859
66.505	12.983	1314.693	994.060
67.520	12.981	1313.453	993.027
68.534	13.030	1312.083	992.198
69.549	13.057	1310.599	991.146
70.563	13.001	1309.440	989.847
71.578	13.032	1308.150	988.973
72.593	12.871	1307.943	987.760
73.607	12.834	1306.838	986.617
74.622	12.921	1306.283	986.636
75.636	12.917	1305.321	985.796
76.651	12.953	1304.237	985.101
77.666	12.909	1304.182	984.711
78.680	12.985	1303.096	984.257
79.695	12.935	1302.688	983.566
80.709	12.936	1301.510	982.597
81.724	12.981	1300.882	982.300
82.739	13.060	1299.930	981.968
83.753	13.173	1299.505	982.230
84.768	13.171	1298.234	981.171
85.782	13.266	1296.826	980.585
86.797	13.231	1295.710	979.443
87.812	13.141	1294.417	977.849
88.826	13.120	1293.342	976.823
89.841	13.170	1292.522	976.412
90.855	13.264	1291.402	976.035
91.870	13.211	1290.761	975.155
92.884	13.264	1289.746	974.611
93.899	13.255	1289.293	974.135
94.914	13.287	1288.465	973.606
95.928	13.298	1286.986	972.469
96.943	13.262	1286.326	971.675
97.957	13.266	1285.452	970.949
98.972	13.252	1284.628	970.162
99.987	13.266	1283.552	969.343
101.001	13.220	1282.515	968.207
102.016	13.140	1282.006	967.267
103.030	13.277	1281.274	967.432
104.045	13.193	1279.973	965.874
105.060	13.267	1278.516	965.119
106.074	13.222	1277.566	964.055
107.089	13.005	1276.445	961.856
108.103	13.015	1275.228	960.916
109.118	13.040	1274.264	960.248
110.133	13.075	1272.541	959.069
111.147	13.062	1271.146	957.859
112.162	13.144	1270.092	957.451
113.176	13.172	1268.833	956.579
114.191	13.146	1268.009	955.726
115.206	13.189	1266.976	955.108
116.220	13.172	1265.715	953.977
117.235	13.129	1264.957	953.071
118.249	13.145	1263.821	952.226
119.264	13.164	1262.598	951.326
120.279	13.106	1261.467	950.057
121.293	13.087	1260.640	949.243
122.308	13.110	1259.322	948.302
123.322	13.108	1258.358	947.479
124.337	13.094	1257.365	946.567
125.352	13.107	1256.359	945.799
126.366	13.061	1255.582	944.866
127.381	13.099	1254.225	943.981
128.395	13.021	1253.255	942.722
129.410	13.170	1252.317	942.782
130.424	13.202	1251.276	942.097
131.439	13.216	1250.515	941.521
132.454	13.209	1249.645	940.743
133.468	13.187	1248.938	940.001
134.483	13.199	1248.049	939.316
135.497	13.126	1247.166	938.158
136.512	13.200	1245.884	937.529
137.527	13.203	1244.711	936.581
138.541	13.211	1242.965	935.231
139.556	13.202	1241.752	934.181
140.570	13.280	1240.706	933.755
141.585	13.356	1239.475	933.170
142.600	13.298	1238.314	931.890
143.614	13.322	1237.213	931.110
144.629	13.297	1236.879	930.639
145.643	13.311	1235.269	929.421
146.658	13.206	1234.094	927.867
147.673	13.259	1232.932	927.207
148.687	13.175	1231.654	925.695
149.702	13.175	1229.967	924.348
150.716	13.166	1228.579	923.171
151.731	13.329	1227.406	923.119
152.746	13.211	1226.616	921.781
153.760	13.287	1225.664	921.408
154.775	13.247	1224.245	920.042
155.789	13.282	1223.751	919.779
156.804	13.424	1221.931	919.121
157.819	13.425	1221.138	918.446
158.833	13.527	1220.349	918.337
159.848	13.430	1219.610	917.162
160.862	13.491	1218.504	916.588
161.877	13.370	1217.775	915.293
162.892	13.458	1216.284	914.576
163.906	13.361	1215.543	913.403
164.921	13.371	1214.784	912.803
165.935	13.416	1213.919	912.324
166.950	13.441	1213.333	911.937
167.964	13.404	1212.985	911.393
168.979	13.357	1212.024	910.331
169.994	13.403	1211.174	909.865
171.008	13.476	1210.187	909.445
172.023	13.405	1209.524	908.475
173.037	13.570	1208.631	908.629
174.052	13.546	1207.643	907.675
175.067	13.566	1206.285	906.684
176.081	13.473	1205.835	905.757
177.096	13.428	1205.016	904.815
178.110	13.432	1203.849	903.880
179.125	13.583	1202.672	903.739
180.140	13.572	1201.592	902.789
181.154	13.643	1199.942	901.855
182.169	13.551	1199.299	900.792
183.183	13.734	1197.760	900.553
184.198	13.682	1196.765	899.442
185.213	13.666	1195.704	898.479
186.227	13.683	1194.910	897.896
187.242	13.686	1193.627	896.868
188.256	13.784	1192.695	896.618
189.271	13.775	1191.683	895.727
190.286	13.652	1190.739	894.277
191.300	13.659	1189.767	893.504
192.315	13.513	1189.147	892.174
193.329	13.596	1188.501	892.059
194.344	13.625	1187.908	891.687
195.359	13.654	1187.447	891.420
196.373	13.672	1187.289	891.317
197.388	13.808	1186.178	891.136
198.402	13.868	1186.093	891.315
199.417	13.839	1185.552	890.677
200.432	13.944	1184.204	890.148
201.446	13.868	1184.225	889.675
202.461	13.965	1182.996	889.191
203.475	13.904	1181.950	888.002
204.490	13.982	1180.460	887.222
205.504	14.096	1178.763	886.473
206.519	13.759	1178.392	884.318
207.534	13.951	1177.059	884.262
208.548	13.958	1175.692	883.195
209.563	13.883	1175.763	882.774
210.577	13.977	1174.856	882.512
211.592	14.013	1173.810	881.840
212.607	14.161	1172.638	881.665
213.621	14.081	1171.775	880.516
214.636	14.144	1170.780	880.024
215.650	14.151	1169.994	879.389
216.665	14.179	1168.947	878.676
217.680	14.159	1168.441	878.110
218.694	14.232	1167.430	877.658
219.709	14.150	1166.807	876.682
220.723	14.120	1166.032	875.863
221.738	14.161	1165.611	875.682
222.753	14.250	1164.052	874.905
223.767	14.140	1164.284	874.420
224.782	14.226	1163.272	874.034
225.796	14.186	1162.726	873.339
226.811	14.287	1161.933	873.194
227.826	14.376	1161.089	872.949
228.840	14.307	1160.831	872.318
229.855	14.233	1159.945	871.188
230.869	14.310	1158.972	870.780
231.884	14.233	1158.785	870.162
232.899	14.206	1157.942	869.312
233.913	14.189	1156.944	868.398
234.928	14.227	1156.062	867.856
235.942	14.241	1155.646	867.537
236.957	14.142	1154.534	866.110
237.972	14.350	1154.146	866.830
238.986	14.383	1152.865	865.960
240.001	14.231	1152.997	865.195
241.015	14.297	1151.717	864.496
242.030	14.324	1151.333	864.272
243.045	14.326	1150.223	863.372
244.059	14.465	1149.327	863.343
245.074	14.490	1148.654	862.890
246.088	14.425	1148.190	862.129
247.103	14.545	1147.382	862.070
248.117	14.508	1146.534	861.162
249.132	14.596	1145.879	861.051
250.147	14.692	1145.194	860.953
251.161	14.630	1145.057	860.455
252.176	14.678	1143.674	859.586
253.190	14.722	1143.058	859.275
254.205	14.772	1142.450	858.996
255.220	14.747	1142.424	858.772
256.234	14.816	1141.178	858.114
257.249	14.877	1140.071	857.520
258.263	14.795	1140.063	857.020
259.278	14.804	1139.568	856.618
260.293	14.887	1138.998	856.538
261.307	14.879	1138.650	856.157
262.322	14.906	1137.360	855.251
263.336	14.850	1137.049	854.656
264.351	14.943	1136.313	854.500
265.366	15.112	1135.204	854.454
266.380	14.914	1135.039	853.245
267.395	14.998	1134.005	852.818
268.409	14.962	1133.328	852.051
269.424	14.957	1132.582	851.392
270.439	14.901	1132.437	850.921
271.453	15.013	1131.495	850.708
272.468	15.018	1130.307	849.763
273.482	14.998	1129.544	849.014
274.497	14.932	1129.123	848.289
275.512	15.029	1128.496	848.235
276.526	14.901	1127.929	847.085
277.541	15.060	1127.295	847.335
278.555	15.014	1126.663	846.555
279.570	15.064	1125.595	845.927
280.585	15.145	1125.140	845.924
281.599	15.095	1124.265	844.939
282.614	15.252	1122.931	844.651
283.628	15.115	1122.028	843.210
284.643	15.199	1120.836	842.660
285.657	15.170	1120.223	841.978
286.672	15.288	1119.015	841.590
287.687	15.238	1118.340	840.753
288.701	15.305	1117.766	840.587
289.716	15.226	1117.128	839.636
290.730	15.274	1116.346	839.215
291.745	15.238	1115.543	838.354
292.760	15.278	1114.990	838.063
293.774	15.399	1114.025	837.872
294.789	15.444	1113.525	837.646
295.803	15.360	1113.294	836.975
296.818	15.290	1112.393	835.877
297.833	15.319	1111.716	835.438
298.847	15.341	1110.976	834.919
299.862	15.376	1110.090	834.350
300.876	15.413	1109.548	834.055
301.891	15.374	1109.313	833.611
302.906	15.435	1108.570	833.283
303.920	15.526	1107.883	833.143
304.935	15.534	1107.108	832.529
305.949	15.667	1106.306	832.508
306.964	15.594	1105.611	831.549
307.979	15.557	1105.243	831.019
308.993	15.563	1104.204	830.190
310.008	15.611	1103.412	829.759
311.022	15.627	1102.877	829.366
312.037	15.650	1101.913	828.676
313.052	15.606	1100.631	827.427
314.066	15.686	1099.805	827.125
315.081	15.538	1098.994	825.712
316.095	15.558	1098.433	825.315
317.110	15.520	1097.859	824.625
318.125	15.543	1097.051	824.059
319.139	15.526	1096.519	823.503
320.154	15.659	1095.799	823.540
321.168	15.677	1095.146	823.066
322.183	15.532	1094.988	822.163
323.197	15.550	1094.355	821.705
324.212	15.581	1093.750	821.329
325.227	15.762	1093.076	821.634
326.241	15.654	1092.379	820.508
327.256	15.764	1091.109	820.022
328.270	15.759	1090.509	819.474
329.285	15.654	1089.893	818.427
330.300	15.772	1088.544	817.911
331.314	15.705	1087.709	816.890
332.329	15.772	1086.987	816.600
333.343	15.786	1085.881	815.767
334.358	15.852	1085.157	815.469
335.373	15.910	1084.576	815.238
336.387	15.816	1083.895	814.201
337.402	15.929	1083.260	814.199
338.416	15.908	1082.619	813.542
339.431	15.890	1082.173	813.048
340.446	16.012	1081.414	812.995
341.460	16.030	1080.479	812.306
342.475	16.163	1079.575	812.195
343.489	16.100	1078.701	811.163
344.504	16.161	1077.933	810.808
345.519	15.957	1077.079	809.113
346.533	16.138	1076.544	809.511
347.548	16.185	1075.974	809.235
348.562	16.212	1074.952	808.524
349.577	16.220	1074.092	807.846
350.592	16.183	1073.393	807.071
351.606	16.072	1072.646	805.907
352.621	16.076	1072.213	805.531
353.635	16.126	1071.456	805.129
354.650	15.985	1070.873	803.946
355.665	16.090	1070.212	803.878
356.679	16.136	1069.601	803.567
357.694	16.247	1068.763	803.395
358.708	16.176	1068.359	802.684
359.723	16.165	1067.903	802.214
360.738	16.204	1067.296	801.876
361.752	16.280	1066.508	801.571
362.767	16.224	1065.815	800.717
363.781	16.295	1065.255	800.561
364.796	16.294	1064.791	800.135
365.810	16.409	1064.214	800.177
366.825	16.289	1063.406	798.930
367.840	16.412	1063.272	799.340
368.854	16.402	1062.595	798.715
369.869	16.498	1061.522	798.289
370.883	16.466	1060.734	797.474
371.898	16.477	1060.043	796.940
372.913	16.383	1059.482	796.004
373.927	16.518	1058.845	796.091
374.942	16.612	1058.054	795.868
375.956	16.609	1057.726	795.533
376.971	16.526	1057.225	794.699
377.986	16.619	1056.742	794.701
379.000	16.703	1056.114	794.555
380.015	16.653	1055.911	794.097
381.029	16.689	1055.161	793.627
382.044	16.735	1054.549	793.315
383.059	16.697	1053.859	792.549
384.073	16.670	1053.001	791.705
385.088	16.782	1051.827	791.275
386.102	16.761	1050.814	790.347
387.117	16.762	1049.801	789.518
388.132	16.696	1049.060	788.583
389.146	16.535	1048.555	787.385
390.161	16.703	1047.388	787.218
391.175	16.680	1047.069	786.802
392.190	16.810	1046.305	786.763
393.205	16.823	1045.577	786.207
394.219	16.764	1045.135	785.534
395.234	16.847	1044.002	784.998
396.248	16.728	1043.204	783.773
397.263	16.731	1042.096	782.885
398.278	16.754	1041.225	782.268
399.292	16.779	1040.835	782.022
400.307	16.674	1040.553	781.256
401.321	16.624	1039.908	780.474
402.336	16.744	1038.803	780.127
403.350	16.708	1038.390	779.584
404.365	16.816	1037.492	779.336
405.380	16.794	1036.772	778.626
406.394	16.861	1036.384	778.572
407.409	16.967	1035.511	778.335
408.423	16.974	1034.933	777.865
409.438	17.086	1033.889	777.524
410.453	17.043	1033.177	776.722
411.467	17.049	1032.499	776.172
412.482	17.055	1031.753	775.571
413.496	17.260	1030.870	775.773
414.511	17.154	1030.292	774.784
415.526	17.233	1030.436	775.183
416.540	17.253	1029.583	774.569
417.555	17.416	1028.808	774.658
418.569	17.373	1028.648	774.270
419.584	17.291	1027.910	773.277
420.599	17.256	1027.988	773.108
421.613	102.045	1319.119	1459.476
422.628	93.330	1361.479	1459.573
