DTS Sentinel unit serial number:	SN413079Multiplexer serial number:	ORYXHardware model number:	OX4-SRSoftware version number:	ORYX F/W v4.00 Oryx Data Collector v3.7.2.0data status	okinstallation	princeton_trtdifferential loss correction	single-endedforward channel	channel 2reverse channel	N/Adate	2019/09/17time	03:03:34forward acquisition time	60.00reverse acquisition time	0.00gamma	496.2192k internal	0.2326k external	0.2326temperature offset calibration	0.9971default loss term (dB/km)	0.3790temperature slope calibration	1.0000multiplexer offset coefficient	1.0000multiplexer slope coefficient	1.0000fibre end	0.00T internal ref (°C)	29.94T ext. ref 1 (°C)	0.12T ext. ref 2 (°C)	24.83length (m)	temperature (°C)	Stokes	anti-Stokes-747.200	-140.254	-0.301	0.032
-746.185	-18.772	0.100	0.063
-745.171	43.882	-0.144	0.133
-744.156	-200.000	0.049	0.369
-743.142	-11.767	0.293	0.194
-742.127	800.000	-0.106	0.447
-741.112	-113.935	0.374	0.073
-740.098	-96.544	-0.357	0.095
-739.083	-71.366	0.317	0.120
-738.069	19.563	-0.208	0.169
-737.054	800.000	0.055	0.197
-736.039	800.000	-0.052	0.158
-735.025	54.297	0.100	0.097
-734.010	-43.797	0.264	-0.134
-732.996	-200.000	0.017	-0.113
-731.981	260.292	-0.130	0.226
-730.966	-129.680	-0.107	0.015
-729.952	-200.000	-0.041	-0.248
-728.937	-200.000	0.016	-0.159
-727.923	-26.729	0.147	0.087
-726.908	-118.383	-0.301	0.054
-725.894	24.561	0.328	0.274
-724.879	11.238	0.334	-0.258
-723.864	800.000	-0.104	-0.327
-722.850	195.345	-0.131	0.201
-721.835	-31.660	0.115	-0.065
-720.821	-200.000	0.008	-0.397
-719.806	-126.117	-0.440	0.067
-718.791	329.819	-0.032	0.063
-717.777	228.410	-0.105	-0.172
-716.762	-165.244	-0.199	0.009
-715.748	-200.000	-0.073	-0.330
-714.733	20.654	0.120	0.098
-713.718	-23.202	0.202	0.122
-712.704	-68.293	0.123	0.048
-711.689	-16.034	0.197	0.126
-710.675	112.619	0.079	0.096
-709.660	464.963	-0.156	-0.352
-708.645	420.205	0.064	-0.137
-707.631	-2.698	0.305	0.215
-706.616	-200.000	0.033	0.197
-705.602	-200.000	0.024	0.139
-704.587	-116.835	0.151	-0.028
-703.572	622.648	0.064	0.161
-702.558	-200.000	0.026	-0.325
-701.543	-200.000	0.029	-0.173
-700.529	-72.909	-0.242	-0.089
-699.514	800.000	0.073	-0.300
-698.499	-200.000	0.038	0.282
-697.485	31.237	0.075	-0.064
-696.470	800.000	0.061	-0.254
-695.456	285.707	-0.193	0.350
-694.441	52.531	0.194	0.186
-693.426	-110.786	-0.240	-0.050
-692.412	158.239	0.152	-0.212
-691.397	30.995	0.123	-0.107
-690.383	41.894	-0.177	0.161
-689.368	-200.000	0.015	0.229
-688.354	-17.885	0.149	0.094
-687.339	-161.329	-0.066	-0.003
-686.324	800.000	0.044	-0.185
-685.310	-130.997	-0.330	-0.044
-684.295	-89.085	-0.106	-0.032
-683.281	-124.471	-0.186	-0.029
-682.266	-67.954	-0.148	-0.058
-681.251	800.000	0.040	-0.159
-680.237	177.885	0.131	-0.192
-679.222	148.712	-0.048	-0.066
-678.208	100.979	0.079	-0.092
-677.193	-96.829	0.050	0.013
-676.178	-121.962	-0.368	-0.061
-675.164	176.580	-0.118	0.172
-674.149	-200.000	-0.015	-0.223
-673.135	244.920	0.144	-0.244
-672.120	493.032	0.091	0.209
-671.105	270.019	0.014	0.024
-670.091	-43.667	0.101	-0.051
-669.076	146.243	-0.041	-0.056
-668.062	800.000	-0.115	-0.395
-667.047	-200.000	-0.055	-0.276
-666.032	-54.943	-0.382	-0.173
-665.018	731.207	-0.021	-0.057
-664.003	800.000	-0.067	0.258
-662.989	10.091	0.245	0.187
-661.974	8.513	0.152	-0.115
-660.959	800.000	0.037	-0.140
-659.945	83.069	0.119	-0.130
-658.930	184.589	-0.060	0.090
-657.916	85.847	-0.113	0.125
-656.901	67.698	-0.203	-0.209
-655.886	316.346	-0.169	-0.320
-654.872	0.370	-0.105	0.076
-653.857	6.276	-0.259	-0.193
-652.843	-200.000	0.001	0.020
-651.828	27.295	-0.191	0.161
-650.814	-200.000	0.041	-0.201
-649.799	-13.271	0.097	0.063
-648.784	52.985	0.287	0.276
-647.770	-142.063	-0.176	0.018
-646.755	-50.823	-0.341	-0.161
-645.741	128.256	-0.174	-0.223
-644.726	-200.000	-0.016	0.157
-643.711	-74.534	-0.295	0.107
-642.697	-93.975	-0.080	-0.022
-641.682	0.089	-0.138	0.099
-640.668	13.974	0.205	-0.160
-639.653	34.397	-0.071	-0.062
-638.638	-16.685	-0.279	0.178
-637.624	-200.000	-0.025	-0.232
-636.609	671.761	-0.154	-0.401
-635.595	-52.081	-0.157	-0.073
-634.580	558.436	-0.116	-0.281
-633.565	-120.509	-0.228	0.039
-632.551	64.423	0.149	-0.151
-631.536	-79.943	-0.229	0.077
-630.522	111.845	-0.146	-0.177
-629.507	46.295	0.060	-0.056
-628.492	-41.638	-0.509	-0.262
-627.478	-78.069	0.333	-0.115
-626.463	800.000	-0.056	-0.244
-625.449	-89.248	-0.470	-0.139
-624.434	726.063	-0.095	-0.255
-623.419	800.000	0.032	0.138
-622.405	187.579	0.083	-0.124
-621.390	113.822	0.181	0.221
-620.376	91.173	-0.224	0.252
-619.361	-200.000	0.071	-0.445
-618.346	181.840	-0.175	-0.259
-617.332	16.202	-0.102	-0.080
-616.317	573.396	0.139	-0.341
-615.303	800.000	0.083	-0.311
-614.288	-21.653	0.237	-0.145
-613.273	187.981	-0.094	-0.141
-612.259	614.527	-0.026	-0.066
-611.244	-200.000	0.020	0.219
-610.230	-200.000	-0.010	-0.113
-609.215	217.573	0.087	0.140
-608.201	800.000	0.022	0.074
-607.186	51.339	0.259	-0.246
-606.171	-24.953	-0.070	0.042
-605.157	-200.000	-0.041	-0.398
-604.142	-13.939	0.230	0.149
-603.128	58.817	-0.176	-0.173
-602.113	299.246	-0.107	0.198
-601.098	-102.025	-0.484	-0.117
-600.084	-126.224	0.340	0.051
-599.069	-88.194	-0.200	-0.060
-598.055	-200.000	-0.040	-0.207
-597.040	-200.000	-0.032	-0.245
-596.025	257.569	-0.132	-0.228
-595.011	21.657	0.133	-0.109
-593.996	46.674	-0.146	-0.136
-592.982	192.947	-0.132	-0.200
-591.967	-200.000	-0.014	-0.370
-590.952	-105.705	0.155	-0.035
-589.938	-75.471	-0.054	0.019
-588.923	105.201	0.172	-0.204
-587.909	34.380	0.090	-0.079
-586.894	569.897	0.075	0.184
-585.879	-200.000	-0.036	0.203
-584.865	-104.603	0.048	0.011
-583.850	-53.517	-0.055	-0.025
-582.836	800.000	-0.067	0.194
-581.821	256.280	-0.088	-0.151
-580.806	-35.462	-0.141	-0.077
-579.792	278.693	0.131	0.234
-578.777	-89.127	-0.147	0.044
-577.763	-152.580	-0.237	-0.017
-576.748	64.601	-0.279	0.282
-575.733	-63.388	-0.354	0.146
-574.719	-200.000	-0.007	-0.253
-573.704	-102.751	-0.190	0.045
-572.690	-200.000	-0.009	-0.114
-571.675	-60.667	0.349	-0.148
-570.661	-200.000	-0.007	-0.035
-569.646	-200.000	-0.012	0.134
-568.631	-66.546	0.145	-0.058
-567.617	-163.855	0.090	-0.004
-566.602	211.737	-0.112	0.177
-565.588	-127.339	0.117	-0.017
-564.573	-49.948	-0.292	0.139
-563.558	-71.428	0.407	-0.153
-562.544	-144.422	-0.226	0.021
-561.529	147.322	0.171	-0.230
-560.515	-200.000	-0.039	0.220
-559.500	-116.580	0.072	0.013
-558.485	23.169	0.219	-0.180
-557.471	-128.797	-0.173	0.024
-556.456	43.197	0.294	0.269
-555.442	-73.143	-0.227	-0.083
-554.427	-28.315	-0.076	-0.044
-553.412	129.136	0.163	0.208
-552.398	-99.210	-0.141	-0.036
-551.383	800.000	-0.114	0.415
-550.369	-200.000	0.009	0.162
-549.354	-94.522	-0.314	0.086
-548.339	216.852	-0.106	-0.169
-547.325	800.000	0.038	-0.120
-546.310	50.270	-0.041	0.038
-545.296	454.094	0.158	-0.350
-544.281	-200.000	0.018	0.203
-543.266	-200.000	0.028	-0.180
-542.252	355.507	-0.107	-0.213
-541.237	-173.195	-0.185	-0.006
-540.223	18.993	0.141	-0.113
-539.208	33.648	0.061	-0.053
-538.193	111.039	-0.297	-0.358
-537.179	709.919	-0.042	0.110
-536.164	-200.000	0.017	-0.253
-535.150	35.931	-0.054	-0.048
-534.135	114.923	-0.166	0.203
-533.121	800.000	0.036	0.136
-532.106	-200.000	0.002	0.058
-531.091	52.472	-0.213	-0.203
-530.077	127.567	0.092	0.116
-529.062	49.412	-0.028	-0.026
-528.048	436.660	0.186	0.404
-527.033	-200.000	0.007	0.140
-526.018	116.822	-0.150	-0.184
-525.004	-95.798	-0.266	-0.071
-523.989	800.000	0.106	0.330
-522.975	-143.521	0.146	0.014
-521.960	-110.995	0.209	-0.043
-520.945	-95.144	0.269	-0.072
-519.931	-200.000	-0.005	-0.157
-518.916	-55.372	-0.154	0.069
-517.902	-200.000	-0.030	-0.185
-516.887	227.449	0.119	-0.193
-515.872	4.591	-0.167	-0.123
-514.858	-31.551	0.138	0.078
-513.843	-138.535	-0.153	-0.017
-512.829	-101.791	-0.329	0.080
-511.814	75.739	0.077	0.081
-510.799	-200.000	0.006	-0.177
-509.785	475.726	0.084	0.190
-508.770	116.129	0.191	-0.233
-507.756	49.183	-0.056	0.052
-506.741	-200.000	0.003	-0.078
-505.726	754.965	0.087	0.236
-504.712	24.711	0.082	0.068
-503.697	-200.000	0.034	-0.197
-502.683	17.355	-0.117	-0.093
-501.668	-200.000	0.008	-0.334
-500.653	-17.448	0.227	0.143
-499.639	-143.172	0.144	-0.014
-498.624	739.732	0.068	0.181
-497.610	-56.843	-0.102	-0.045
-496.595	-200.000	0.069	-0.397
-495.581	44.024	0.103	0.095
-494.566	800.000	-0.106	0.394
-493.551	407.650	0.032	0.067
-492.537	126.827	-0.102	-0.129
-491.522	-46.530	-0.149	0.073
-490.508	43.070	-0.228	-0.208
-489.493	-96.390	-0.216	-0.057
-488.478	-124.323	0.182	0.028
-487.464	800.000	-0.092	0.393
-486.449	448.487	-0.132	-0.291
-485.435	84.057	-0.082	-0.089
-484.420	230.847	0.152	0.248
-483.405	-73.158	-0.136	0.050
-482.391	-152.914	-0.272	-0.019
-481.376	-57.144	0.138	0.061
-480.362	-107.923	-0.220	-0.048
-479.347	-54.937	-0.220	-0.099
-478.332	-48.645	0.117	0.056
-477.318	-200.000	0.043	-0.216
-476.303	498.959	0.041	0.095
-475.289	-200.000	0.017	-0.278
-474.274	-200.000	-0.013	0.206
-473.259	-145.068	0.182	0.017
-472.245	-55.778	0.278	-0.124
-471.230	88.792	-0.220	0.244
-470.216	166.059	0.136	-0.192
-469.201	85.758	-0.129	0.141
-468.186	-48.515	0.086	-0.041
-467.172	149.249	-0.160	-0.216
-466.157	4.495	-0.256	-0.187
-465.143	678.727	0.108	-0.280
-464.128	450.435	0.163	0.359
-463.113	175.656	-0.184	-0.266
-462.099	-115.699	-0.189	-0.035
-461.084	-147.181	0.308	-0.026
-460.070	-27.459	0.320	-0.186
-459.055	-200.000	0.029	-0.131
-458.040	-195.332	-0.085	-0.001
-457.026	-123.493	-0.418	-0.066
-456.011	-121.990	-0.209	0.034
-454.997	-58.653	0.262	-0.113
-453.982	-200.000	-0.007	-0.250
-452.968	-200.000	-0.034	-0.264
-451.953	-200.000	0.007	-0.040
-450.938	800.000	0.057	0.180
-449.924	-96.230	-0.164	0.043
-448.909	-200.000	-0.010	0.366
-447.895	149.795	0.125	-0.169
-446.880	6.499	-0.205	-0.152
-445.865	12.104	0.233	0.179
-444.851	452.898	-0.050	0.111
-443.836	-60.000	0.060	-0.026
-442.822	-200.000	-0.036	-0.176
-441.807	-175.803	0.152	-0.004
-440.792	-121.579	0.167	0.028
-439.778	89.391	-0.167	-0.186
-438.763	-5.257	0.120	-0.082
-437.749	-60.141	-0.025	-0.010
-436.734	64.644	-0.156	0.157
-435.719	-120.101	-0.140	-0.024
-434.705	153.511	0.104	-0.142
-433.690	-151.106	-0.385	-0.029
-432.676	43.001	-0.023	0.021
-431.661	495.741	-0.154	0.352
-430.646	800.000	-0.065	0.195
-429.632	99.713	0.213	-0.246
-428.617	-200.000	0.003	0.206
-427.603	800.000	-0.006	0.017
-426.588	36.420	0.122	0.107
-425.573	800.000	0.101	0.290
-424.559	381.538	-0.071	0.145
-423.544	732.270	-0.033	-0.089
-422.530	65.644	-0.223	-0.225
-421.515	2.800	-0.135	0.098
-420.500	800.000	-0.056	0.207
-419.486	-200.000	-0.033	0.151
-418.471	17.036	0.108	-0.085
-417.457	-116.236	0.156	0.029
-416.442	62.432	0.155	0.154
-415.428	-72.977	-0.229	0.084
-414.413	239.021	-0.071	-0.118
-413.398	-8.931	0.135	-0.090
-412.384	-33.886	0.357	-0.196
-411.369	12.672	-0.232	0.179
-410.355	49.117	0.153	0.143
-409.340	41.935	0.236	-0.213
-408.325	-200.000	-0.025	-0.430
-407.311	-111.375	-0.243	0.049
-406.296	262.861	-0.088	-0.152
-405.282	111.232	0.088	-0.105
-404.267	-65.679	-0.157	0.063
-403.252	-129.600	0.133	-0.018
-402.238	-53.349	0.060	0.027
-401.223	-200.000	0.007	0.195
-400.209	800.000	-0.032	0.108
-399.194	-28.555	0.096	-0.055
-398.179	-45.240	-0.055	0.027
-397.165	800.000	0.051	-0.155
-396.150	54.384	0.191	-0.183
-395.136	20.653	0.144	-0.116
-394.121	107.974	0.147	0.174
-393.106	104.074	-0.172	-0.201
-392.092	639.494	-0.099	0.252
-391.077	-84.884	-0.124	-0.039
-390.063	590.062	0.086	0.212
-389.048	-81.996	-0.214	0.070
-388.033	-15.307	-0.047	0.030
-387.019	-200.000	0.021	0.112
-386.004	245.722	0.091	0.152
-384.990	52.048	0.069	-0.065
-383.975	-200.000	-0.035	-0.190
-382.960	-26.094	0.105	-0.061
-381.946	332.981	-0.056	-0.107
-380.931	240.305	0.137	0.227
-379.917	-200.000	0.008	-0.163
-378.902	-132.893	0.277	-0.035
-377.888	30.754	0.028	0.024
-376.873	800.000	-0.031	-0.102
-375.858	37.770	-0.181	-0.160
-374.844	50.074	0.086	0.081
-373.829	800.000	0.071	-0.273
-372.815	87.131	0.059	0.065
-371.800	-200.000	0.001	0.434
-370.785	-104.530	-0.080	-0.018
-369.771	48.352	0.115	0.107
-368.756	346.559	-0.059	0.116
-367.742	800.000	-0.004	0.015
-366.727	-200.000	-0.015	0.557
-365.712	-200.000	-0.022	0.319
-364.698	113.782	0.173	-0.209
-363.683	800.000	-0.026	0.091
-362.669	18.177	0.217	0.172
-361.654	800.000	-0.040	-0.136
-360.639	61.951	-0.150	-0.149
-359.625	-158.114	-0.263	-0.015
-358.610	-22.220	0.200	-0.121
-357.596	62.328	-0.177	-0.176
-356.581	149.103	0.145	0.195
-355.566	-195.264	0.228	-0.002
-354.552	-24.242	0.194	-0.115
-353.537	800.000	-0.077	-0.245
-352.523	21.403	0.188	-0.152
-351.508	125.769	0.085	0.107
-350.493	-130.640	0.172	-0.023
-349.479	64.178	0.236	-0.236
-348.464	-102.863	-0.240	0.057
-347.450	158.559	0.274	0.378
-346.435	457.223	-0.070	-0.155
-345.420	26.590	-0.262	0.218
-344.406	-200.000	0.005	0.235
-343.391	-115.109	0.154	0.029
-342.377	297.341	0.094	0.172
-341.362	185.446	-0.073	0.107
-340.348	-46.489	0.185	0.090
-339.333	-95.583	0.215	-0.057
-338.318	800.000	-0.043	0.165
-337.304	-75.099	-0.192	0.068
-336.289	22.730	-0.310	-0.252
-335.275	-139.983	0.293	0.031
-334.260	-17.696	-0.181	-0.113
-333.245	-59.260	0.380	0.162
-332.231	197.220	-0.161	0.244
-331.216	800.000	0.054	0.182
-330.202	-200.000	-0.063	0.392
-329.187	-125.157	-0.275	0.042
-328.172	800.000	-0.040	-0.120
-327.158	98.323	0.147	-0.168
-326.143	-200.000	0.001	-0.165
-325.129	45.405	-0.369	-0.337
-324.114	207.562	-0.131	0.203
-323.099	19.078	0.112	-0.089
-322.085	324.900	0.181	0.344
-321.070	48.894	-0.206	-0.192
-320.056	-165.503	-0.275	-0.012
-319.041	-200.000	-0.011	0.104
-318.026	-75.733	0.321	0.113
-317.012	15.462	-0.400	0.311
-315.997	-129.968	0.167	-0.023
-314.983	98.829	0.348	0.398
-313.968	81.952	0.166	0.178
-312.953	800.000	0.174	-0.495
-311.939	255.061	0.118	0.201
-310.924	800.000	-0.086	0.324
-309.910	173.753	0.311	0.445
-308.895	-102.416	-0.410	0.097
-307.880	-200.000	0.006	0.110
-306.866	419.493	0.158	-0.334
-305.851	-200.000	-0.001	-0.047
-304.837	-95.808	-0.224	-0.059
-303.822	-133.326	0.262	-0.033
-302.807	-200.000	0.039	0.223
-301.793	253.208	-0.105	0.178
-300.778	26.349	0.156	-0.130
-299.764	382.471	0.094	0.191
-298.749	-32.344	-0.076	0.042
-297.735	-46.604	-0.052	0.025
-296.720	608.647	0.057	0.140
-295.705	800.000	0.029	-0.108
-294.691	157.478	-0.117	-0.160
-293.676	800.000	0.035	0.110
-292.662	-110.320	0.123	0.025
-291.647	-200.000	0.004	0.087
-290.632	-17.098	0.298	-0.186
-289.618	91.722	-0.231	-0.258
-288.603	-49.331	0.096	0.046
-287.589	146.858	0.106	0.142
-286.574	166.951	-0.050	0.070
-285.559	-58.631	0.128	0.055
-284.545	65.854	0.148	0.148
-283.530	155.106	0.090	0.123
-282.516	-123.015	0.246	0.039
-281.501	800.000	0.043	0.121
-280.486	20.589	0.081	-0.065
-279.472	53.609	0.225	-0.214
-278.457	-200.000	-0.010	-0.159
-277.443	800.000	0.084	0.259
-276.428	800.000	0.053	0.173
-275.413	800.000	-0.080	-0.299
-274.399	800.000	0.032	0.090
-273.384	297.210	0.131	-0.238
-272.370	-153.850	-0.183	0.012
-271.355	-200.000	-0.008	0.231
-270.340	-132.349	0.215	0.028
-269.326	63.538	0.246	0.245
-268.311	172.595	-0.225	0.320
-267.297	-115.454	-0.381	-0.071
-266.282	-52.140	0.207	-0.095
-265.267	338.071	0.202	0.390
-264.253	-200.000	0.046	-0.291
-263.238	308.435	-0.149	0.275
-262.224	-89.044	0.072	0.021
-261.209	104.145	0.234	-0.272
-260.195	-136.619	-0.141	-0.016
-259.180	-200.000	-0.071	-0.399
-258.165	-200.000	-0.022	-0.148
-257.151	-200.000	0.044	0.373
-256.136	800.000	0.087	0.311
-255.122	650.451	-0.163	0.414
-254.107	561.110	-0.069	0.165
-253.092	14.159	0.129	0.100
-252.078	-125.329	0.162	-0.025
-251.063	47.538	-0.181	0.167
-250.049	221.584	-0.140	0.223
-249.034	-159.300	0.070	-0.004
-248.019	800.000	0.022	-0.092
-247.005	-200.000	-0.010	0.184
-245.990	-200.000	0.007	-0.092
-244.976	-147.085	-0.127	-0.011
-243.961	800.000	0.058	0.246
-242.946	800.000	0.104	-0.312
-241.932	800.000	0.058	-0.231
-240.917	448.426	0.124	-0.270
-239.903	-124.375	-0.316	-0.049
-238.888	22.670	-0.031	-0.025
-237.873	208.255	0.022	0.034
-236.859	29.323	0.215	-0.181
-235.844	800.000	-0.095	0.273
-234.830	-200.000	-0.103	0.453
-233.815	-200.000	0.017	0.291
-232.800	77.421	0.085	-0.089
-231.786	-177.677	-0.245	0.006
-230.771	-26.557	0.092	0.053
-229.757	84.607	0.132	-0.143
-228.742	445.193	0.097	-0.210
-227.727	-106.028	0.311	0.069
-226.713	-200.000	-0.038	0.185
-225.698	-131.077	0.235	0.031
-224.684	-159.274	0.130	0.007
-223.669	361.828	0.126	-0.250
-222.655	-200.000	0.027	-0.290
-221.640	-104.475	0.106	-0.024
-220.625	-200.000	0.043	0.347
-219.611	-54.785	0.186	0.083
-218.596	262.766	0.127	0.218
-217.582	800.000	-0.014	-0.058
-216.567	-200.000	-0.056	0.277
-215.552	93.588	0.057	-0.064
-214.538	800.000	-0.122	-0.343
-213.523	108.399	0.118	0.139
-212.509	274.049	-0.079	-0.138
-211.494	289.226	0.197	0.352
-210.479	-47.721	0.141	0.068
-209.465	-200.000	0.024	-0.231
-208.450	-104.871	-0.211	0.048
-207.436	109.195	0.192	0.227
-206.421	-191.059	-0.011	0.000
-205.406	395.182	0.044	0.091
-204.392	-74.340	-0.018	-0.006
-203.377	-166.387	-0.177	0.007
-202.363	-69.023	-0.155	0.059
-201.348	-56.423	0.355	0.155
-200.333	-14.243	-0.369	0.235
-199.319	-54.458	0.162	0.073
-198.304	-65.217	-0.383	-0.152
-197.290	300.705	0.123	-0.225
-196.275	-87.281	0.154	-0.046
-195.260	-41.879	0.204	-0.103
-194.246	170.469	0.055	0.078
-193.231	800.000	-0.074	0.272
-192.217	-47.036	-0.316	0.152
-191.202	6.719	0.065	-0.048
-190.187	43.996	0.147	0.133
-189.173	-127.966	0.272	-0.039
-188.158	-200.000	0.047	0.281
-187.144	224.922	-0.076	0.121
-186.129	800.000	-0.052	-0.222
-185.114	-81.446	-0.036	-0.012
-184.100	-66.052	0.216	-0.085
-183.085	80.559	-0.198	-0.210
-182.071	180.116	-0.248	-0.359
-181.056	-133.783	-0.493	0.061
-180.042	-37.822	0.105	-0.055
-179.027	82.365	0.190	0.203
-178.012	-177.958	-0.345	0.008
-176.998	-50.204	0.266	-0.124
-175.983	-20.979	-0.173	-0.105
-174.969	-118.291	-0.104	0.018
-173.954	-200.000	0.006	0.257
-172.939	2.356	0.263	0.188
-171.925	132.458	0.029	-0.037
-170.910	800.000	-0.030	0.116
-169.896	-200.000	-0.041	-0.235
-168.881	-21.644	-0.055	0.033
-167.866	-114.561	0.320	0.060
-166.852	800.000	-0.069	-0.290
-165.837	-13.941	-0.173	0.110
-164.823	70.077	0.203	0.207
-163.808	76.210	0.233	-0.243
-162.793	-200.000	-0.041	-0.320
-161.779	-200.000	0.017	-0.138
-160.764	-200.000	-0.056	0.317
-159.750	-144.147	0.086	-0.008
-158.735	102.748	0.090	-0.104
-157.720	464.491	0.113	-0.249
-156.706	800.000	-0.046	0.160
-155.691	423.296	-0.188	0.398
-154.677	438.557	0.066	0.141
-153.662	638.064	-0.093	-0.233
-152.647	-200.000	0.011	-0.155
-151.633	73.104	0.065	0.067
-150.618	113.124	0.075	0.089
-149.604	-15.460	0.170	0.107
-148.589	-57.633	-0.198	-0.086
-147.574	29.397	0.079	-0.066
-146.560	800.000	0.042	0.146
-145.545	800.000	-0.185	-0.669
-144.531	-33.226	0.219	0.119
-143.516	800.000	0.046	-0.193
-142.502	-117.700	0.607	-0.108
-141.487	-82.022	-0.128	0.041
-140.472	-103.047	-0.354	0.083
-139.458	106.686	0.210	0.246
-138.443	-146.696	-0.376	-0.032
-137.429	-200.000	0.010	-0.096
-136.414	-50.832	-0.071	0.033
-135.399	-86.352	0.121	0.037
-134.385	-82.316	-0.317	-0.102
-133.370	633.273	0.061	0.153
-132.356	263.157	0.113	-0.194
-131.341	43.596	0.156	0.141
-130.326	37.314	-0.093	0.081
-129.312	279.927	0.250	0.439
-128.297	11.911	-0.027	0.020
-127.283	112.129	-0.086	-0.102
-126.268	-200.000	0.014	-0.243
-125.253	1.717	-0.237	0.168
-124.239	-88.662	0.203	-0.059
-123.224	-71.371	-0.094	-0.035
-122.210	-20.907	-0.197	0.119
-121.195	-116.451	-0.235	0.043
-120.180	416.084	-0.058	0.121
-119.166	-200.000	0.031	-0.208
-118.151	602.288	-0.068	-0.167
-117.137	192.761	-0.030	0.045
-116.122	238.953	0.182	-0.298
-115.107	141.186	0.049	-0.064
-114.093	664.348	0.054	-0.136
-113.078	-37.821	0.228	0.119
-112.064	234.378	-0.075	-0.121
-111.049	-25.795	-0.148	-0.086
-110.034	800.000	0.073	-0.290
-109.020	82.488	-0.110	0.118
-108.005	-121.273	-0.309	0.051
-106.991	436.488	0.107	0.230
-105.976	-174.584	0.156	0.004
-104.962	86.379	0.189	0.205
-103.947	-200.000	-0.022	0.146
-102.932	-200.000	-0.003	0.018
-101.918	-52.412	0.070	0.032
-100.903	-106.626	-0.213	0.047
-99.889	800.000	0.086	-0.247
-98.874	800.000	-0.176	0.523
-97.859	131.662	0.059	-0.075
-96.845	66.917	-0.158	0.158
-95.830	96.511	0.114	0.128
-94.816	-149.452	-0.204	-0.016
-93.801	77.769	0.316	0.331
-92.786	-200.000	0.000	-0.066
-91.772	-77.018	0.153	0.052
-90.757	421.528	0.090	0.189
-89.743	106.334	-0.247	0.287
-88.728	-110.155	0.335	-0.069
-87.713	181.152	-0.035	0.051
-86.699	-75.809	-0.143	-0.050
-85.684	28.858	0.076	-0.064
-84.670	-200.000	0.035	0.168
-83.655	43.439	-0.320	-0.288
-82.640	111.624	0.083	0.099
-81.626	800.000	-0.064	0.228
-80.611	-51.913	-0.255	0.117
-79.597	221.481	-0.229	0.361
-78.582	314.429	-0.044	0.080
-77.567	38.258	0.089	-0.078
-76.553	708.817	0.106	0.276
-75.538	600.708	-0.047	-0.116
-74.524	-136.665	0.165	-0.019
-73.509	800.000	0.033	-0.124
-72.494	-200.000	0.016	-0.174
-71.480	-200.000	0.010	0.115
-70.465	176.750	0.213	-0.305
-69.451	5.769	0.367	-0.267
-68.436	-200.000	-0.034	0.188
-67.422	75.027	-0.162	-0.168
-66.407	142.998	0.060	0.079
-65.392	-21.679	0.221	-0.132
-64.378	13.372	-0.088	-0.067
-63.363	-100.898	0.420	0.101
-62.349	367.208	0.122	0.241
-61.334	58.917	-0.840	-0.811
-60.319	-17.440	0.496	0.307
-59.305	76.079	-0.649	-0.674
-58.290	276.821	0.661	1.153
-57.276	800.000	0.495	1.427
-56.261	-200.000	105.451	576.358
-55.246	461.804	1455.551	3186.952
-54.232	148.899	2649.219	3516.048
-53.217	100.882	2291.537	2615.142
-52.203	39.021	1905.081	1671.436
-51.188	33.202	1692.101	1440.364
-50.173	30.525	1649.077	1383.784
-49.159	48.561	1700.707	1563.960
-48.144	49.259	1716.847	1584.017
-47.130	32.697	1675.582	1422.268
-46.115	30.017	1661.380	1390.074
-45.100	29.849	1656.206	1384.434
-44.086	29.902	1653.186	1382.250
-43.071	29.851	1650.703	1379.738
-42.057	29.790	1648.453	1377.352
-41.042	29.820	1646.649	1376.013
-40.027	29.908	1644.707	1374.984
-39.013	29.839	1642.439	1372.524
-37.998	29.823	1641.086	1371.220
-36.984	29.953	1639.300	1370.640
-35.969	29.913	1637.814	1369.043
-34.954	30.026	1636.581	1368.796
-33.940	29.918	1635.006	1366.622
-32.925	29.925	1633.148	1365.068
-31.911	30.007	1631.212	1364.003
-30.896	29.993	1629.747	1362.616
-29.881	29.947	1628.367	1361.074
-28.867	29.994	1625.897	1359.297
-27.852	29.962	1624.555	1357.890
-26.838	29.873	1623.438	1356.247
-25.823	29.898	1622.253	1355.391
-24.809	29.984	1620.984	1354.902
-23.794	29.936	1619.586	1353.327
-22.779	29.988	1617.777	1352.145
-21.765	29.866	1616.150	1349.838
-20.750	29.903	1614.314	1348.522
-19.736	29.964	1613.208	1347.991
-18.721	29.878	1612.314	1346.564
-17.706	29.968	1610.192	1345.392
-16.692	29.920	1608.498	1343.572
-15.677	30.026	1607.396	1343.370
-14.663	29.976	1606.237	1341.985
-13.648	29.938	1605.182	1340.776
-12.633	29.928	1603.209	1339.003
-11.619	30.015	1601.305	1337.984
-10.604	29.954	1599.939	1336.356
-9.590	29.923	1599.164	1335.428
-8.575	29.959	1598.036	1334.691
-7.560	29.987	1596.564	1333.613
-6.546	30.008	1595.236	1332.602
-5.531	29.912	1594.564	1331.299
-4.517	29.933	1593.070	1330.146
-3.502	29.919	1592.063	1329.154
-2.487	29.971	1590.798	1328.421
-1.473	29.734	1579.055	1316.871
-0.458	27.008	1559.825	1281.571
0.556	21.835	1561.700	1251.909
1.571	19.744	1585.288	1255.534
2.586	19.444	1598.915	1264.020
3.600	17.879	1547.093	1211.845
4.615	10.040	1435.671	1072.628
5.629	1.908	1370.111	971.881
6.644	0.277	1361.855	955.598
7.659	0.103	1360.811	953.679
8.673	0.019	1359.762	952.328
9.688	0.081	1357.983	951.390
10.702	-0.151	1354.992	947.743
11.717	3.713	1360.931	976.271
12.731	12.454	1375.240	1042.069
13.746	17.598	1381.496	1079.393
14.761	17.316	1380.139	1076.449
15.775	16.168	1377.257	1066.851
16.790	15.225	1374.432	1058.613
17.804	14.498	1371.572	1051.734
18.819	14.088	1371.049	1048.655
19.834	13.743	1369.302	1045.050
20.848	13.522	1368.412	1042.887
21.863	13.396	1366.753	1040.741
22.877	13.145	1365.847	1038.383
23.892	13.067	1364.884	1037.066
24.907	13.119	1363.897	1036.552
25.921	13.223	1362.982	1036.416
26.936	13.195	1362.255	1035.597
27.950	13.314	1361.018	1035.310
28.965	13.206	1360.606	1034.228
29.980	13.325	1359.364	1033.939
30.994	13.384	1358.681	1033.696
32.009	13.405	1357.749	1033.028
33.023	13.468	1356.150	1032.111
34.038	13.317	1355.071	1030.256
35.053	13.350	1353.889	1029.475
36.067	13.348	1352.800	1028.542
37.082	13.283	1352.637	1027.919
38.096	13.406	1351.235	1027.527
39.111	13.440	1350.179	1026.845
40.126	13.340	1349.604	1025.696
41.140	13.078	1349.586	1023.970
42.155	13.136	1348.651	1023.531
43.169	13.037	1348.842	1022.969
44.184	13.179	1347.998	1023.121
45.199	13.137	1347.735	1022.568
46.213	13.181	1347.004	1022.197
47.228	13.178	1346.375	1021.607
48.242	13.229	1344.670	1020.539
49.257	13.209	1343.663	1019.559
50.271	13.295	1341.319	1018.225
51.286	13.294	1340.881	1017.796
52.301	13.153	1340.172	1016.299
53.315	13.209	1338.574	1015.343
54.330	13.258	1337.440	1014.690
55.344	13.156	1336.729	1013.438
56.359	13.157	1335.536	1012.449
57.374	13.135	1334.883	1011.728
58.388	13.139	1333.649	1010.726
59.403	13.136	1333.196	1010.275
60.417	13.215	1332.324	1010.008
61.432	13.034	1331.840	1008.445
62.447	13.068	1330.541	1007.584
63.461	13.059	1329.351	1006.535
64.476	13.061	1327.888	1005.352
65.490	13.070	1327.029	1004.669
66.505	13.016	1325.631	1003.191
67.520	13.034	1324.426	1002.301
68.534	13.135	1323.160	1001.867
69.549	13.205	1322.117	1001.415
70.563	13.027	1321.577	999.838
71.578	13.031	1319.798	998.425
72.593	13.037	1318.712	997.555
73.607	13.046	1318.272	997.188
74.622	13.011	1317.317	996.167
75.636	12.993	1316.588	995.418
76.651	13.020	1315.905	994.977
77.666	13.094	1314.931	994.596
78.680	12.951	1314.808	993.555
79.695	13.022	1313.935	993.232
80.709	13.044	1313.637	993.053
81.724	13.147	1312.093	992.419
82.739	13.145	1311.328	991.739
83.753	13.163	1310.573	991.186
84.768	13.273	1309.600	991.023
85.782	13.338	1308.182	990.251
86.797	13.330	1306.667	988.971
87.812	13.272	1305.696	987.802
88.826	13.256	1305.023	987.110
89.841	13.192	1303.907	985.797
90.855	13.241	1302.724	985.103
91.870	13.289	1301.998	984.754
92.884	13.404	1300.982	984.582
93.899	13.327	1300.378	983.582
94.914	13.378	1299.528	983.154
95.928	13.368	1298.735	982.408
96.943	13.276	1298.274	981.425
97.957	13.302	1297.257	980.728
98.972	13.305	1295.459	979.297
99.987	13.329	1294.528	978.648
101.001	13.377	1293.317	977.931
102.016	13.297	1292.657	976.873
103.030	13.413	1291.729	976.771
104.045	13.420	1290.463	975.768
105.060	13.257	1289.769	974.198
106.074	13.231	1288.247	972.807
107.089	13.053	1287.420	971.046
108.103	13.115	1285.659	969.996
109.118	13.203	1284.620	969.649
110.133	13.064	1283.189	967.665
111.147	13.130	1282.185	967.211
112.162	13.186	1281.032	966.584
113.176	13.225	1279.969	965.924
114.191	13.299	1278.896	965.460
115.206	13.167	1277.740	963.728
116.220	13.183	1276.641	962.910
117.235	13.207	1275.297	961.950
118.249	13.341	1274.004	961.668
119.264	13.161	1273.438	960.109
120.279	13.222	1272.173	959.429
121.293	13.089	1271.821	958.301
122.308	13.088	1270.435	957.168
123.322	13.129	1269.464	956.592
124.337	13.179	1267.747	955.501
125.352	13.115	1266.768	954.311
126.366	13.114	1266.146	953.752
127.381	13.126	1264.622	952.589
128.395	13.057	1264.109	951.716
129.410	13.223	1262.798	951.604
130.424	13.248	1262.016	951.071
131.439	13.234	1261.417	950.455
132.454	13.188	1260.832	949.667
133.468	13.220	1259.364	948.660
134.483	13.245	1258.974	948.430
135.497	13.198	1257.764	947.162
136.512	13.200	1256.411	946.074
137.527	13.338	1254.873	945.618
138.541	13.247	1253.689	944.124
139.556	13.320	1252.253	943.375
140.570	13.364	1251.221	942.764
141.585	13.368	1250.095	941.853
142.600	13.371	1248.608	940.670
143.614	13.331	1248.746	940.465
144.629	13.457	1247.450	940.117
145.643	13.288	1245.879	937.892
146.658	13.339	1244.770	937.267
147.673	13.332	1243.596	936.260
148.687	13.221	1242.421	934.662
149.702	13.350	1241.220	934.407
150.716	13.251	1239.831	932.720
151.731	13.339	1238.752	932.323
152.746	13.371	1237.165	931.226
153.760	13.340	1236.237	930.270
154.775	13.374	1235.186	929.588
155.789	13.360	1234.011	928.540
156.804	13.452	1233.041	928.244
157.819	13.367	1231.902	926.831
158.833	13.488	1230.965	926.717
159.848	13.504	1230.457	926.343
160.862	13.578	1229.624	926.049
161.877	13.542	1228.087	924.611
162.892	13.448	1226.923	923.125
163.906	13.415	1226.230	922.341
164.921	13.431	1225.145	921.531
165.935	13.433	1224.542	921.008
166.950	13.572	1223.665	921.038
167.964	13.509	1222.830	919.979
168.979	13.518	1222.180	919.458
169.994	13.564	1220.968	918.722
171.008	13.587	1220.552	918.454
172.023	13.606	1220.019	918.077
173.037	13.647	1219.470	917.810
174.052	13.564	1218.217	916.325
175.067	13.520	1217.312	915.321
176.081	13.571	1216.202	914.685
177.096	13.507	1215.852	913.991
178.110	13.550	1214.265	912.951
179.125	13.461	1212.859	911.323
180.140	13.663	1211.439	911.285
181.154	13.497	1210.511	909.595
182.169	13.687	1209.432	909.748
183.183	13.707	1208.668	909.200
184.198	13.768	1207.230	908.377
185.213	13.891	1206.332	908.294
186.227	13.752	1204.988	906.438
187.242	13.784	1204.414	906.103
188.256	13.853	1202.924	905.277
189.271	13.798	1202.469	904.555
190.286	13.768	1200.895	903.129
191.300	13.679	1199.838	901.769
192.315	13.583	1199.599	900.989
193.329	13.600	1199.204	900.706
194.344	13.684	1198.312	900.409
195.359	13.754	1197.659	900.222
196.373	13.764	1197.133	899.801
197.388	13.922	1196.634	900.201
198.402	13.943	1196.125	899.851
199.417	13.994	1195.171	899.329
200.432	14.034	1194.621	899.054
201.446	14.088	1193.927	898.742
202.461	13.972	1193.525	897.732
203.475	14.060	1191.957	896.953
204.490	14.051	1190.927	896.050
205.504	14.031	1189.685	894.924
206.519	14.013	1188.191	893.625
207.534	14.029	1187.269	892.942
208.548	13.963	1186.253	891.741
209.563	13.946	1185.446	890.965
210.577	14.060	1184.222	890.577
211.592	14.172	1183.570	890.607
212.607	14.117	1182.751	889.619
213.621	14.233	1181.765	889.419
214.636	14.160	1180.757	888.193
215.650	14.096	1180.406	887.507
216.665	14.255	1178.876	887.125
217.680	14.241	1178.270	886.516
218.694	14.231	1177.753	885.997
219.709	14.270	1176.821	885.423
220.723	14.313	1175.568	884.632
221.738	14.256	1175.573	884.256
222.753	14.371	1174.543	884.011
223.767	14.361	1173.872	883.374
224.782	14.369	1173.350	882.949
225.796	14.423	1172.466	882.488
226.811	14.456	1171.451	881.822
227.826	14.334	1171.478	881.118
228.840	14.237	1170.763	879.988
229.855	14.343	1169.803	879.748
230.869	14.308	1169.202	879.037
231.884	14.357	1168.182	878.451
232.899	14.337	1167.367	877.656
233.913	14.433	1166.409	877.359
234.928	14.238	1165.697	875.723
235.942	14.300	1165.353	875.711
236.957	14.292	1164.326	874.821
237.972	14.376	1163.477	874.544
238.986	14.347	1162.951	873.922
240.001	14.342	1162.125	873.200
241.015	14.408	1161.572	873.050
242.030	14.425	1160.561	872.303
243.045	14.460	1159.789	871.828
244.059	14.372	1159.195	870.845
245.074	14.484	1158.395	870.752
246.088	14.489	1157.941	870.360
247.103	14.648	1156.524	870.048
248.117	14.609	1156.132	869.471
249.132	14.736	1155.237	869.384
250.147	14.733	1154.567	868.784
251.161	14.750	1153.822	868.236
252.176	14.922	1152.882	868.344
253.190	14.845	1152.678	867.717
254.205	14.848	1151.858	867.038
255.220	14.818	1151.262	866.354
256.234	14.821	1150.934	866.049
257.249	14.919	1150.165	865.901
258.263	14.787	1149.600	864.713
259.278	14.957	1148.858	864.960
260.293	14.876	1148.138	863.920
261.307	15.052	1147.162	864.017
262.322	15.097	1146.820	863.915
263.336	15.065	1146.140	863.165
264.351	14.998	1145.537	862.289
265.366	15.089	1144.712	862.060
266.380	15.012	1144.553	861.468
267.395	14.927	1143.684	860.300
268.409	14.985	1142.839	859.885
269.424	14.957	1142.039	859.062
270.439	15.007	1141.605	858.919
271.453	15.052	1140.659	858.363
272.468	15.025	1139.432	857.225
273.482	14.990	1139.441	856.974
274.497	15.071	1138.351	856.496
275.512	14.972	1137.939	855.601
276.526	15.069	1137.083	855.379
277.541	15.089	1135.977	854.573
278.555	15.174	1135.331	854.445
279.570	15.215	1135.034	854.352
280.585	15.243	1133.953	853.610
281.599	15.248	1133.138	852.945
282.614	15.160	1132.233	851.742
283.628	15.173	1131.290	851.024
284.643	15.158	1130.108	849.984
285.657	15.172	1129.383	849.433
286.672	15.420	1127.740	849.377
287.687	15.209	1127.737	848.231
288.701	15.285	1127.058	848.030
289.716	15.184	1126.213	846.809
290.730	15.357	1125.062	846.739
291.745	15.423	1124.868	846.854
292.760	15.431	1123.993	846.160
293.774	15.375	1123.128	845.151
294.789	15.345	1123.282	845.040
295.803	15.416	1122.691	844.880
296.818	15.404	1122.239	844.403
297.833	15.417	1121.205	843.618
298.847	15.352	1120.353	842.575
299.862	15.332	1119.277	841.591
300.876	15.439	1118.686	841.611
301.891	15.459	1118.778	841.704
302.906	15.488	1117.536	840.841
303.920	15.583	1116.656	840.580
304.935	15.699	1116.010	840.596
305.949	15.733	1115.481	840.297
306.964	15.640	1114.897	839.315
307.979	15.585	1114.174	838.422
308.993	15.685	1113.316	838.200
310.008	15.670	1112.081	837.124
311.022	15.619	1111.361	836.254
312.037	15.687	1111.010	836.252
313.052	15.755	1109.733	835.558
314.066	15.817	1108.370	834.766
315.081	15.746	1107.780	833.892
316.095	15.640	1107.352	832.975
317.110	15.579	1106.831	832.204
318.125	15.590	1105.842	831.440
319.139	15.716	1105.081	831.419
320.154	15.726	1104.614	831.046
321.168	15.660	1103.704	829.960
322.183	15.585	1103.337	829.240
323.197	15.773	1102.844	829.725
324.212	15.732	1102.124	828.905
325.227	15.774	1101.885	828.858
326.241	15.797	1100.867	828.136
327.256	15.784	1100.272	827.552
328.270	15.700	1099.649	826.596
329.285	15.593	1098.997	825.505
330.300	15.726	1097.488	824.952
331.314	15.735	1096.581	824.241
332.329	15.889	1095.526	824.128
333.343	15.870	1095.090	823.633
334.358	15.880	1094.139	822.898
335.373	15.785	1093.947	822.215
336.387	15.771	1093.227	821.533
337.402	15.929	1092.149	821.422
338.416	15.871	1091.760	820.772
339.431	16.100	1090.419	820.804
340.446	16.038	1090.202	820.267
341.460	16.021	1089.738	819.765
342.475	16.129	1088.454	819.250
343.489	16.159	1087.564	818.654
344.504	16.218	1086.522	818.084
345.519	16.180	1085.939	817.390
346.533	16.127	1085.244	816.535
347.548	16.133	1084.758	816.127
348.562	16.145	1083.725	815.335
349.577	16.137	1083.058	814.723
350.592	16.080	1082.484	813.946
351.606	16.193	1081.520	813.690
352.621	16.039	1081.115	812.575
353.635	16.132	1080.065	812.159
354.650	16.235	1079.137	811.883
355.665	16.162	1078.826	811.227
356.679	16.111	1078.287	810.506
357.694	16.227	1077.494	810.395
358.708	16.335	1076.656	810.213
359.723	16.302	1076.291	809.705
360.738	16.340	1075.572	809.277
361.752	16.345	1075.080	808.858
362.767	16.290	1074.665	808.214
363.781	16.408	1074.041	808.236
364.796	16.356	1073.419	807.448
365.810	16.477	1072.720	807.426
366.825	16.420	1072.352	806.807
367.840	16.539	1071.666	806.787
368.854	16.515	1071.170	806.227
369.869	16.558	1070.358	805.753
370.883	16.506	1069.361	804.683
371.898	16.685	1068.582	804.874
372.913	16.561	1068.215	803.939
373.927	16.602	1067.684	803.664
374.942	16.644	1067.066	803.326
375.956	16.646	1066.296	802.686
376.971	16.663	1066.061	802.515
377.986	16.628	1065.599	801.931
379.000	16.771	1065.007	802.095
380.015	16.765	1064.360	801.507
381.029	16.760	1063.590	800.831
382.044	16.865	1062.781	800.647
383.059	16.746	1062.439	799.759
384.073	16.739	1061.557	798.989
385.088	16.892	1060.267	798.666
386.102	16.908	1059.354	797.987
387.117	16.713	1058.783	796.566
388.132	16.736	1058.079	796.077
389.146	16.844	1057.013	795.710
390.161	16.706	1056.465	794.579
391.175	16.786	1055.859	794.430
392.190	16.869	1055.126	794.196
393.205	16.890	1054.078	793.434
394.219	16.883	1053.342	792.776
395.234	16.840	1052.388	791.791
396.248	16.858	1051.661	791.258
397.263	16.834	1050.725	790.371
398.278	16.758	1050.231	789.575
399.292	16.779	1049.593	789.125
400.307	16.793	1048.965	788.647
401.321	16.934	1047.921	788.446
402.336	16.849	1047.394	787.586
403.350	16.955	1047.204	787.864
404.365	16.947	1046.089	786.919
405.380	16.973	1045.299	786.376
406.394	17.079	1044.327	786.067
407.409	17.081	1043.913	785.696
408.423	17.095	1043.258	785.197
409.438	17.075	1042.692	784.610
410.453	17.143	1041.947	784.291
411.467	17.217	1041.024	783.869
412.482	17.207	1040.264	783.182
413.496	17.320	1039.944	783.390
414.511	17.198	1039.336	782.303
415.526	17.205	1038.907	781.941
416.540	17.334	1038.382	782.074
417.555	17.298	1037.939	781.504
418.569	17.269	1037.561	781.019
419.584	17.344	1036.966	780.846
420.599	17.334	1036.436	780.331
421.613	102.952	1321.826	1468.109
422.628	94.374	1363.387	1468.218
