DTS Sentinel unit serial number:	SN413079Multiplexer serial number:	ORYXHardware model number:	OX4-SRSoftware version number:	ORYX F/W v4.00 Oryx Data Collector v3.7.2.0data status	okinstallation	princeton_trtdifferential loss correction	single-endedforward channel	channel 2reverse channel	N/Adate	2019/09/19time	05:03:34forward acquisition time	60.00reverse acquisition time	0.00gamma	496.2192k internal	0.2352k external	0.2352temperature offset calibration	1.0013default loss term (dB/km)	0.3790temperature slope calibration	1.0000multiplexer offset coefficient	1.0000multiplexer slope coefficient	1.0000fibre end	0.00T internal ref (°C)	19.69T ext. ref 1 (°C)	0.61T ext. ref 2 (°C)	12.87length (m)	temperature (°C)	Stokes	anti-Stokes-747.200	0.207	0.305	0.217
-746.185	-5.835	0.096	-0.066
-745.171	-29.237	-0.145	0.083
-744.156	-70.473	-0.126	-0.048
-743.142	800.000	0.071	0.292
-742.127	282.801	-0.099	0.177
-741.112	11.223	-0.042	-0.032
-740.098	-10.934	-0.043	0.028
-739.083	-200.000	0.017	0.317
-738.069	-200.000	-0.053	0.358
-737.054	354.585	-0.104	0.207
-736.039	-137.569	-0.202	-0.023
-735.025	-200.000	-0.025	0.312
-734.010	-200.000	0.037	0.489
-732.996	-200.000	0.026	0.227
-731.981	-101.970	-0.097	-0.023
-730.966	406.039	-0.130	-0.274
-729.952	-162.971	-0.242	0.012
-728.937	-80.640	-0.317	0.105
-727.923	-120.491	0.286	0.048
-726.908	110.923	-0.023	-0.027
-725.894	623.796	-0.207	-0.519
-724.879	-127.126	-0.351	0.051
-723.864	-200.000	-0.035	-0.408
-722.850	52.507	-0.172	-0.164
-721.835	149.413	0.186	0.251
-720.821	23.043	-0.251	-0.205
-719.806	68.036	-0.268	-0.273
-718.791	661.241	0.067	0.171
-717.777	-62.260	-0.255	-0.106
-716.762	-96.944	-0.352	-0.092
-715.748	100.484	-0.313	0.362
-714.733	-200.000	0.037	0.236
-713.718	323.045	0.035	-0.067
-712.704	34.000	-0.073	-0.063
-711.689	-98.573	0.098	-0.025
-710.675	-4.308	-0.238	-0.164
-709.660	250.365	0.114	-0.193
-708.645	-52.325	-0.153	-0.071
-707.631	-200.000	0.000	-0.457
-706.616	242.121	-0.185	0.308
-705.602	37.534	0.124	-0.109
-704.587	-36.897	0.330	0.177
-703.572	-200.000	-0.002	0.234
-702.558	-65.120	0.354	0.142
-701.543	188.179	-0.060	-0.089
-700.529	64.438	-0.082	-0.083
-699.514	-75.606	0.109	0.038
-698.499	80.930	-0.201	0.216
-697.485	-86.956	-0.095	0.029
-696.470	92.946	0.088	-0.099
-695.456	197.560	0.096	0.146
-694.441	800.000	-0.021	0.084
-693.426	-200.000	-0.019	0.223
-692.412	265.266	0.064	-0.112
-691.397	139.727	0.327	-0.429
-690.383	564.371	-0.096	0.232
-689.368	-96.795	0.186	0.049
-688.354	-81.637	0.105	0.034
-687.339	24.231	-0.050	-0.041
-686.324	-38.913	-0.227	-0.119
-685.310	-16.326	-0.312	0.197
-684.295	344.567	-0.150	-0.294
-683.281	800.000	-0.075	-0.213
-682.266	1.331	-0.418	0.299
-681.251	24.943	0.151	0.125
-680.237	249.936	-0.158	0.267
-679.222	61.652	-0.110	-0.109
-678.208	-182.451	-0.150	0.003
-677.193	0.854	-0.225	0.160
-676.178	29.122	0.147	0.124
-675.164	-95.305	0.501	0.134
-674.149	646.118	-0.051	-0.131
-673.135	98.055	-0.229	-0.262
-672.120	-125.464	-0.316	0.048
-671.105	-95.079	0.245	-0.066
-670.091	-119.872	-0.215	0.037
-669.076	800.000	-0.039	-0.145
-668.062	-200.000	-0.001	0.053
-667.047	-104.302	0.159	-0.037
-666.032	54.478	-0.121	-0.116
-665.018	430.314	-0.113	0.243
-664.003	-47.830	0.124	-0.060
-662.989	-200.000	0.010	-0.088
-661.974	115.211	-0.282	-0.342
-660.959	-200.000	0.042	-0.221
-659.945	129.443	-0.185	-0.236
-658.930	264.449	-0.140	-0.242
-657.916	-200.000	-0.050	-0.418
-656.901	800.000	-0.040	0.143
-655.886	-200.000	0.013	-0.310
-654.872	-200.000	0.007	-0.068
-653.857	-145.539	-0.149	-0.013
-652.843	-200.000	0.009	0.092
-651.828	247.760	0.220	-0.370
-650.814	800.000	-0.078	-0.325
-649.799	-22.506	0.114	-0.069
-648.784	-91.847	-0.078	-0.022
-647.770	297.681	0.097	0.178
-646.755	308.292	0.146	0.271
-645.741	-31.723	-0.255	-0.142
-644.726	2.059	0.291	-0.209
-643.711	800.000	0.018	-0.053
-642.697	-155.838	0.430	-0.027
-641.682	-32.936	-0.225	0.124
-640.668	-200.000	0.019	-0.099
-639.653	800.000	-0.116	-0.431
-638.638	186.809	0.089	-0.132
-637.624	-118.481	0.435	-0.077
-636.609	-109.345	0.198	-0.042
-635.595	-88.760	-0.306	0.090
-634.580	127.802	-0.085	0.108
-633.565	-123.336	-0.180	0.029
-632.551	800.000	0.108	0.463
-631.536	284.955	-0.030	0.055
-630.522	-64.482	0.224	-0.090
-629.507	148.011	-0.094	0.125
-628.492	-200.000	-0.024	-0.153
-627.478	101.902	0.082	-0.095
-626.463	-94.454	0.202	0.055
-625.449	34.564	0.288	-0.249
-624.434	-45.776	-0.198	0.097
-623.419	97.856	0.127	0.146
-622.405	800.000	0.046	0.183
-621.390	66.631	-0.166	0.168
-620.376	-200.000	-0.031	-0.284
-619.361	47.105	-0.088	-0.081
-618.346	-200.000	0.019	0.123
-617.332	50.615	0.100	0.094
-616.317	-19.507	0.163	-0.100
-615.303	-34.712	-0.142	0.077
-614.288	277.676	-0.125	-0.221
-613.273	418.095	-0.077	-0.164
-612.259	-30.289	-0.239	0.135
-611.244	-19.611	-0.159	-0.098
-610.230	128.040	0.113	0.143
-609.215	-47.639	-0.079	-0.038
-608.201	-126.267	-0.166	-0.025
-607.186	116.111	-0.072	-0.088
-606.171	115.404	-0.097	-0.118
-605.157	-200.000	0.013	-0.093
-604.142	-200.000	0.016	0.187
-603.128	-139.408	-0.132	-0.014
-602.113	85.391	0.078	0.085
-601.098	-78.910	0.267	0.090
-600.084	-200.000	0.015	-0.154
-599.069	89.762	0.262	0.291
-598.055	-29.012	0.322	-0.183
-597.040	343.938	0.069	-0.134
-596.025	111.339	0.222	-0.266
-595.011	-200.000	-0.019	-0.082
-593.996	12.610	0.180	-0.138
-592.982	-11.669	-0.129	-0.084
-591.967	800.000	-0.052	-0.201
-590.952	5.987	0.228	-0.168
-589.938	203.974	0.256	0.393
-588.923	-200.000	-0.010	0.313
-587.909	-7.185	-0.304	-0.205
-586.894	-152.270	0.038	0.003
-585.879	-200.000	-0.004	-0.244
-584.865	-200.000	0.034	0.186
-583.850	-88.950	-0.049	-0.014
-582.836	19.122	0.213	-0.169
-581.821	-145.488	0.318	0.028
-580.806	-31.533	-0.317	0.176
-579.792	-66.867	-0.156	0.061
-578.777	-200.000	-0.079	0.454
-577.763	-200.000	-0.020	-0.107
-576.748	-103.883	0.261	0.060
-575.733	-69.179	0.184	-0.070
-574.719	800.000	0.061	-0.231
-573.704	-5.704	-0.298	-0.202
-572.690	-126.593	-0.276	0.041
-571.675	-84.452	0.309	0.097
-570.661	-99.745	-0.208	-0.052
-569.646	115.521	0.093	0.112
-568.631	8.643	-0.301	-0.225
-567.617	212.533	0.102	-0.159
-566.602	-10.728	0.098	-0.064
-565.588	168.184	0.337	-0.475
-564.573	800.000	0.058	-0.182
-563.558	-200.000	0.082	-0.451
-562.544	-200.000	-0.006	-0.223
-561.529	-200.000	-0.002	0.375
-560.515	-4.971	-0.087	-0.059
-559.500	103.058	0.095	-0.110
-558.485	-67.644	-0.123	0.048
-557.471	-129.756	0.076	0.010
-556.456	-26.395	0.106	0.062
-555.442	27.036	0.120	0.100
-554.427	-40.464	-0.258	0.133
-553.412	-99.955	0.188	-0.047
-552.398	30.491	0.043	0.037
-551.383	-75.472	-0.506	0.178
-550.369	13.680	-0.208	-0.160
-549.354	-134.266	0.095	0.012
-548.339	468.777	0.048	0.108
-547.325	800.000	-0.068	-0.253
-546.310	-144.147	0.300	-0.028
-545.296	-200.000	-0.016	0.122
-544.281	-50.966	-0.083	0.038
-543.266	-92.048	-0.563	0.158
-542.252	-47.714	-0.338	0.162
-541.237	-78.833	-0.136	0.046
-540.223	149.146	0.024	0.032
-539.208	-200.000	0.016	-0.315
-538.193	-14.040	0.136	-0.087
-537.179	41.005	-0.007	-0.006
-536.164	108.251	-0.029	0.034
-535.150	160.486	-0.210	0.290
-534.135	27.711	-0.165	-0.137
-533.121	21.110	-0.211	-0.169
-532.106	-16.586	0.232	-0.145
-531.091	-48.430	-0.204	0.097
-530.077	-19.837	-0.054	-0.033
-529.062	403.835	-0.178	0.370
-528.048	411.739	-0.092	-0.194
-527.033	-57.847	0.140	-0.060
-526.018	-44.700	0.152	-0.075
-525.004	-29.459	-0.223	0.126
-523.989	-10.925	0.298	0.194
-522.975	-152.546	-0.335	0.024
-521.960	638.774	0.068	0.172
-520.945	-156.194	-0.236	0.015
-519.931	79.239	-0.104	-0.110
-518.916	166.118	0.144	0.201
-517.902	-166.594	0.110	0.005
-516.887	800.000	-0.069	0.190
-515.872	22.365	0.120	0.097
-514.858	-54.541	0.035	0.016
-513.843	99.572	0.066	0.075
-512.829	800.000	0.070	0.302
-511.814	-16.017	0.206	-0.130
-510.799	-124.102	-0.246	-0.038
-509.785	68.416	0.114	0.115
-508.770	-68.662	0.188	-0.072
-507.756	-53.034	-0.274	0.125
-506.741	-35.608	-0.260	-0.139
-505.726	106.522	-0.069	-0.081
-504.712	-200.000	-0.002	-0.268
-503.697	207.827	-0.203	0.313
-502.683	145.953	-0.118	-0.157
-501.668	5.675	0.147	-0.108
-500.653	-200.000	-0.061	0.293
-499.639	634.817	-0.085	0.214
-498.624	-200.000	0.003	0.103
-497.610	-101.527	-0.236	-0.057
-496.595	-38.139	0.102	0.054
-495.581	-200.000	0.009	0.088
-494.566	-53.512	-0.267	0.121
-493.551	4.477	0.114	-0.082
-492.537	-126.521	0.225	0.033
-491.522	117.306	0.051	0.062
-490.508	-29.361	-0.047	-0.027
-489.493	800.000	0.020	-0.087
-488.478	258.932	0.085	0.144
-487.464	262.950	-0.162	0.278
-486.449	620.963	-0.076	0.189
-485.435	-1.226	0.237	-0.166
-484.420	-3.882	0.299	0.205
-483.405	189.027	-0.117	-0.174
-482.391	800.000	-0.120	0.353
-481.376	-100.861	-0.263	-0.064
-480.362	65.664	0.124	0.124
-479.347	-77.832	-0.218	-0.074
-478.332	130.908	0.257	-0.326
-477.318	609.963	-0.032	-0.080
-476.303	800.000	-0.013	-0.042
-475.289	-200.000	-0.004	0.110
-474.274	-182.104	-0.136	0.003
-473.259	294.253	0.121	-0.219
-472.245	800.000	-0.031	-0.103
-471.230	-200.000	0.000	0.243
-470.216	800.000	0.066	-0.233
-469.201	-27.817	-0.085	-0.048
-468.186	-83.237	-0.168	-0.053
-467.172	128.795	0.150	-0.189
-466.157	-116.298	-0.203	0.037
-465.143	-99.722	0.108	-0.027
-464.128	-89.558	-0.222	0.064
-463.113	-110.588	-0.116	-0.024
-462.099	40.960	0.064	-0.057
-461.084	-200.000	0.045	0.201
-460.070	-31.437	0.078	-0.043
-459.055	583.289	-0.055	-0.132
-458.040	-200.000	0.020	-0.335
-457.026	-9.775	0.183	0.120
-456.011	-23.735	0.194	-0.114
-454.997	-200.000	-0.005	0.380
-453.982	-101.065	0.142	0.034
-452.968	293.248	-0.100	-0.181
-451.953	-33.400	-0.068	-0.037
-450.938	140.977	-0.075	-0.098
-449.924	-119.612	-0.023	-0.004
-448.909	-46.721	0.144	0.070
-447.895	265.461	0.161	0.276
-446.880	-153.030	0.362	-0.025
-445.865	800.000	-0.032	0.103
-444.851	155.596	-0.031	-0.042
-443.836	800.000	0.067	0.222
-442.822	-200.000	-0.036	-0.370
-441.807	336.858	0.056	-0.107
-440.792	-158.032	-0.195	-0.011
-439.778	148.505	-0.269	0.358
-438.763	-200.000	-0.005	0.107
-437.749	-173.773	0.269	0.008
-436.734	-146.459	-0.461	-0.040
-435.719	-123.539	0.356	-0.056
-434.705	-10.192	-0.161	0.106
-433.690	-115.556	-0.218	-0.040
-432.676	-40.598	0.117	0.060
-431.661	-200.000	0.019	-0.112
-430.646	-76.199	0.095	0.033
-429.632	88.432	-0.310	-0.340
-428.617	170.645	-0.158	-0.223
-427.603	-200.000	-0.015	-0.127
-426.588	800.000	-0.135	-0.392
-425.573	91.143	0.045	-0.050
-424.559	369.763	-0.079	-0.157
-423.544	452.873	0.196	-0.427
-422.530	692.865	0.038	0.099
-421.515	-139.391	-0.341	0.036
-420.500	-122.165	0.381	0.061
-419.486	800.000	-0.072	0.256
-418.471	-21.787	0.072	-0.043
-417.457	-57.117	-0.176	0.077
-416.442	-75.587	-0.142	0.050
-415.428	269.514	0.171	0.296
-414.413	53.991	0.089	0.084
-413.398	-48.046	0.049	0.023
-412.384	137.527	-0.327	0.422
-411.369	-42.020	-0.248	-0.125
-410.355	-117.880	-0.513	0.091
-409.340	-175.792	0.269	-0.007
-408.325	61.224	-0.082	-0.080
-407.311	545.463	-0.090	0.211
-406.296	336.492	0.194	-0.370
-405.282	140.012	-0.193	0.250
-404.267	-103.330	-0.343	0.080
-403.252	-200.000	-0.007	-0.159
-402.238	-143.003	-0.173	-0.017
-401.223	800.000	-0.027	0.116
-400.209	800.000	0.061	0.258
-399.194	-200.000	-0.013	0.299
-398.179	-88.790	-0.252	0.074
-397.165	-200.000	0.266	0.000
-396.150	800.000	0.054	0.201
-395.136	-96.756	0.176	-0.046
-394.121	-5.237	0.084	0.057
-393.106	-129.562	0.095	-0.013
-392.092	-200.000	-0.010	0.077
-391.077	-24.734	0.119	0.070
-390.063	-2.744	-0.190	-0.131
-389.048	-162.160	-0.256	0.013
-388.033	307.100	-0.061	0.111
-387.019	-200.000	-0.044	-0.357
-386.004	-22.077	-0.071	0.043
-384.990	57.541	-0.069	0.066
-383.975	347.172	0.062	0.120
-382.960	211.336	-0.028	-0.043
-381.946	188.500	-0.027	-0.040
-380.931	29.143	0.248	0.207
-379.917	78.611	-0.190	-0.200
-378.902	76.130	-0.177	-0.185
-377.888	52.289	0.105	-0.099
-376.873	-200.000	-0.051	-0.377
-375.858	-200.000	0.028	0.139
-374.844	-33.352	0.266	0.145
-373.829	15.165	0.232	-0.179
-372.815	-116.624	-0.098	0.018
-371.800	5.353	-0.083	0.060
-370.785	-37.840	-0.097	0.051
-369.771	-200.000	-0.041	0.412
-368.756	148.112	-0.102	-0.135
-367.742	-200.000	0.227	0.000
-366.727	125.155	-0.240	0.297
-365.712	477.059	-0.114	0.252
-364.698	-79.526	0.363	0.120
-363.683	244.944	0.131	-0.217
-362.669	567.882	0.073	-0.174
-361.654	-200.000	-0.009	0.106
-360.639	198.347	0.071	-0.107
-359.625	-200.000	0.037	0.179
-358.610	-115.188	-0.114	-0.021
-357.596	800.000	-0.043	0.123
-356.581	-95.030	-0.045	-0.012
-355.566	27.510	-0.050	-0.042
-354.552	187.798	0.083	-0.122
-353.537	598.364	-0.038	-0.092
-352.523	134.313	-0.081	-0.103
-351.508	-56.622	0.143	-0.062
-350.493	-127.343	0.238	-0.034
-349.479	-58.337	0.058	-0.025
-348.464	23.444	-0.218	0.176
-347.450	-200.000	-0.028	-0.240
-346.435	91.437	-0.168	0.185
-345.420	-110.822	0.178	0.036
-344.406	32.652	-0.193	0.164
-343.391	-23.336	0.171	0.101
-342.377	123.693	-0.112	-0.138
-341.362	-52.795	-0.185	0.084
-340.348	-131.402	0.044	-0.006
-339.333	-200.000	0.025	0.120
-338.318	338.292	0.070	-0.133
-337.304	-44.665	-0.095	0.046
-336.289	49.726	-0.179	-0.165
-335.275	-200.000	-0.072	-0.369
-334.260	-70.990	0.247	-0.091
-333.245	-200.000	0.024	0.357
-332.231	-157.781	-0.231	-0.013
-331.216	130.002	0.181	0.227
-330.202	46.153	0.044	0.040
-329.187	-122.013	0.332	-0.054
-328.172	-40.310	0.383	0.196
-327.158	-25.069	-0.181	0.105
-326.143	-50.771	-0.371	-0.171
-325.129	-120.918	0.130	-0.021
-324.114	-167.539	0.345	0.014
-323.099	385.231	0.041	0.084
-322.085	221.441	0.104	0.164
-321.070	-74.618	-0.149	-0.053
-320.056	-6.692	-0.168	-0.112
-319.041	559.449	-0.143	-0.338
-318.026	800.000	0.120	0.368
-317.012	-40.232	-0.170	-0.087
-315.997	-58.899	0.229	0.097
-314.983	-75.751	0.277	0.096
-313.968	-57.466	0.047	0.020
-312.953	-132.939	-0.322	-0.040
-311.939	-134.456	-0.118	-0.014
-310.924	369.797	0.158	-0.315
-309.910	71.367	0.050	-0.051
-308.895	56.223	-0.113	-0.108
-307.880	-7.305	-0.141	0.093
-306.866	76.047	0.229	0.238
-305.851	-41.088	-0.267	0.135
-304.837	-137.483	-0.162	-0.018
-303.822	800.000	-0.032	-0.088
-302.807	-200.000	0.017	-0.156
-301.793	-200.000	0.028	0.156
-300.778	800.000	-0.040	-0.116
-299.764	-35.988	0.333	0.176
-298.749	0.396	0.277	0.194
-297.735	-200.000	0.009	-0.183
-296.720	1.535	0.259	-0.183
-295.705	800.000	0.031	0.107
-294.691	-115.763	-0.312	0.057
-293.676	-79.932	0.050	-0.017
-292.662	800.000	-0.047	-0.170
-291.647	-68.127	-0.267	-0.102
-290.632	32.644	-0.101	0.086
-289.618	-200.000	-0.013	-0.082
-288.603	-39.706	0.123	0.063
-287.589	700.217	0.050	-0.129
-286.574	133.940	0.188	0.238
-285.559	105.103	-0.090	-0.104
-284.545	546.335	0.111	0.261
-283.530	413.880	-0.108	0.225
-282.516	144.613	0.059	0.077
-281.501	800.000	-0.036	0.128
-280.486	-49.385	0.107	0.050
-279.472	-48.468	0.120	0.056
-278.457	115.360	0.144	-0.172
-277.443	-179.305	-0.096	0.002
-276.428	800.000	0.073	-0.310
-275.413	455.136	0.112	0.243
-274.399	0.195	-0.412	-0.288
-273.384	233.350	0.104	0.167
-272.370	-75.834	-0.147	-0.051
-271.355	169.125	-0.097	-0.136
-270.340	660.043	-0.058	0.147
-269.326	-97.629	-0.214	-0.054
-268.311	-200.000	0.005	0.168
-267.297	800.000	-0.043	0.172
-266.282	-200.000	0.004	-0.126
-265.267	-200.000	-0.013	-0.328
-264.253	96.451	-0.011	0.013
-263.238	36.801	0.146	-0.127
-262.224	-200.000	-0.005	-0.163
-261.209	-200.000	-0.005	0.300
-260.195	-13.368	0.238	0.151
-259.180	-80.544	-0.112	-0.037
-258.165	-151.897	0.181	-0.013
-257.151	-146.362	0.182	0.016
-256.136	-151.583	-0.210	0.015
-255.122	-200.000	-0.006	-0.261
-254.107	-20.655	-0.263	-0.158
-253.092	24.820	0.185	0.150
-252.078	-40.392	-0.314	-0.160
-251.063	134.836	0.187	-0.238
-250.049	43.764	-0.208	-0.186
-249.034	183.762	0.067	-0.097
-248.019	-85.288	0.239	-0.073
-247.005	-85.758	-0.462	0.140
-245.990	144.632	0.053	0.069
-244.976	-147.518	0.354	0.029
-243.961	-140.841	0.323	-0.033
-242.946	73.804	-0.110	0.113
-241.932	-101.947	-0.344	0.081
-240.917	-33.748	-0.326	0.176
-239.903	-59.534	0.153	0.064
-238.888	-200.000	-0.017	-0.321
-237.873	-200.000	-0.012	0.113
-236.859	-35.842	-0.169	0.089
-235.844	-151.310	0.452	-0.033
-234.830	-106.583	0.167	0.036
-233.815	14.550	-0.319	-0.244
-232.800	800.000	-0.067	-0.282
-231.786	129.601	-0.110	-0.138
-230.771	-41.421	-0.177	0.089
-229.757	568.784	0.033	0.077
-228.742	15.942	-0.209	-0.161
-227.727	23.177	0.348	-0.279
-226.713	418.466	-0.197	0.412
-225.698	6.214	-0.357	0.259
-224.684	468.594	-0.089	-0.194
-223.669	800.000	-0.043	0.125
-222.655	-147.304	0.362	-0.030
-221.640	401.448	-0.128	-0.264
-220.625	-148.735	0.222	-0.018
-219.611	-200.000	0.049	-0.280
-218.596	-58.726	-0.191	0.081
-217.582	157.957	0.095	0.129
-216.567	-104.098	-0.213	0.049
-215.552	-200.000	0.037	0.166
-214.538	-28.524	-0.197	0.111
-213.523	-200.000	-0.018	-0.132
-212.509	47.602	0.132	0.120
-211.494	41.017	0.043	-0.038
-210.479	210.302	-0.230	-0.352
-209.465	-200.000	-0.033	-0.360
-208.450	800.000	-0.045	-0.159
-207.436	-109.341	0.394	0.082
-206.421	-160.931	-0.314	-0.016
-205.406	-104.167	0.454	0.103
-204.392	-76.121	0.155	0.054
-203.377	-146.566	-0.058	-0.005
-202.363	81.526	0.182	-0.192
-201.348	-96.808	-0.146	-0.038
-200.333	-76.010	0.161	-0.055
-199.319	-4.837	0.164	0.111
-198.304	-85.590	0.171	0.052
-197.290	-80.683	0.195	0.063
-196.275	25.506	0.261	-0.212
-195.260	800.000	-0.149	0.439
-194.246	-88.825	0.070	0.020
-193.231	284.335	0.089	0.157
-192.217	-55.625	-0.264	0.115
-191.202	-200.000	0.025	-0.113
-190.187	-39.711	-0.205	0.105
-189.173	800.000	0.041	-0.140
-188.158	800.000	0.030	-0.084
-187.144	153.772	0.169	0.226
-186.129	23.383	-0.252	0.202
-185.114	-121.780	0.136	0.022
-184.100	72.318	0.141	0.144
-183.085	122.206	0.074	-0.090
-182.071	41.648	-0.047	-0.042
-181.056	58.228	0.355	0.339
-180.042	317.139	-0.041	-0.076
-179.027	800.000	0.039	0.117
-178.012	425.813	-0.058	0.122
-176.998	800.000	0.020	-0.056
-175.983	-200.000	-0.032	-0.288
-174.969	-184.413	-0.283	-0.005
-173.954	800.000	-0.110	0.351
-172.939	106.876	0.209	0.242
-171.925	-42.340	0.102	0.051
-170.910	116.520	0.252	0.301
-169.896	1.134	0.218	0.153
-168.881	800.000	-0.141	-0.395
-167.866	102.807	0.118	-0.135
-166.852	-170.084	-0.040	-0.001
-165.837	-200.000	0.030	-0.230
-164.823	-200.000	-0.017	0.235
-163.808	121.275	-0.074	0.090
-162.793	80.752	0.066	-0.069
-161.779	58.250	-0.084	0.080
-160.764	431.050	0.097	-0.206
-159.750	-90.144	0.287	-0.081
-158.735	-64.708	0.215	0.085
-157.720	73.164	0.313	-0.319
-156.706	128.614	0.091	-0.112
-155.691	194.917	-0.038	-0.056
-154.677	-200.000	0.042	0.205
-153.662	145.210	0.103	-0.134
-152.647	119.844	-0.196	-0.237
-151.633	-84.287	-0.030	0.009
-150.618	-0.753	0.245	0.169
-149.604	-53.773	-0.110	-0.049
-148.589	800.000	0.049	0.154
-147.574	-200.000	-0.018	-0.195
-146.560	166.031	0.133	-0.183
-145.545	224.671	0.039	-0.062
-144.531	84.817	0.202	0.216
-143.516	-67.350	-0.335	0.128
-142.502	323.636	0.087	-0.161
-141.487	-126.982	-0.197	0.028
-140.472	174.066	0.167	0.235
-139.458	-85.198	-0.188	-0.057
-138.443	289.480	0.164	0.290
-137.429	7.027	-0.067	0.049
-136.414	522.873	-0.086	0.196
-135.399	-103.884	-0.205	-0.047
-134.385	388.321	0.053	0.106
-133.370	212.881	0.225	-0.347
-132.356	-200.000	0.060	-0.273
-131.341	0.254	0.077	-0.053
-130.326	54.705	0.074	-0.069
-129.312	-200.000	0.004	0.200
-128.297	-200.000	-0.004	-0.227
-127.283	-49.673	-0.176	-0.081
-126.268	-64.949	0.202	-0.080
-125.253	67.512	-0.179	0.178
-124.239	76.393	0.169	0.174
-123.224	-70.808	0.214	0.079
-122.210	-200.000	-0.034	0.637
-121.195	137.085	0.184	-0.234
-120.180	167.221	-0.159	0.220
-119.166	597.285	0.221	0.532
-118.151	-35.772	0.091	0.048
-117.137	-55.419	-0.165	0.072
-116.122	-200.000	-0.016	0.328
-115.107	-38.570	0.198	0.102
-114.093	-130.809	-0.348	-0.045
-113.078	-200.000	0.025	-0.487
-112.064	-200.000	-0.019	-0.337
-111.049	800.000	-0.024	-0.098
-110.034	51.530	-0.183	0.170
-109.020	-26.182	0.313	0.179
-108.005	-121.289	-0.041	0.007
-106.991	97.414	0.176	-0.196
-105.976	-28.559	-0.232	-0.130
-104.962	-64.457	-0.283	-0.112
-103.947	200.441	-0.086	-0.129
-102.932	-102.587	-0.124	0.029
-101.918	89.610	-0.189	0.205
-100.903	283.486	0.136	-0.238
-99.889	190.038	-0.137	-0.200
-98.874	-132.494	0.281	0.035
-97.859	800.000	-0.072	0.219
-96.845	27.737	0.096	-0.079
-95.830	502.867	-0.067	-0.150
-94.816	-41.909	0.134	0.067
-93.801	-138.518	0.271	-0.029
-92.786	-200.000	0.014	-0.417
-91.772	-31.670	0.184	0.100
-90.757	-69.769	-0.190	-0.071
-89.743	-200.000	0.009	-0.257
-88.728	-87.833	-0.483	0.141
-87.713	-123.122	-0.106	0.017
-86.699	-124.390	0.052	0.008
-85.684	459.493	0.112	-0.243
-84.670	287.025	0.135	-0.238
-83.655	175.328	0.127	-0.178
-82.640	800.000	0.062	0.250
-81.626	-133.001	0.084	0.010
-80.611	394.499	-0.023	0.046
-79.597	48.466	-0.384	0.349
-78.582	-200.000	-0.025	0.258
-77.567	420.697	-0.144	-0.299
-76.553	-2.004	-0.175	0.120
-75.538	-200.000	0.014	-0.164
-74.524	800.000	0.040	-0.134
-73.509	410.600	-0.053	0.109
-72.494	-20.006	-0.376	0.225
-71.480	647.292	0.096	-0.240
-70.465	-200.000	0.005	0.056
-69.451	288.777	-0.111	-0.195
-68.436	800.000	0.106	0.309
-67.422	-142.922	0.444	-0.042
-66.407	-66.828	-0.200	-0.077
-65.392	-200.000	0.011	0.138
-64.378	65.841	-0.088	0.086
-63.363	283.595	-0.143	-0.249
-62.349	-182.732	0.168	-0.003
-61.334	198.067	-1.030	-1.530
-60.319	53.824	0.721	0.673
-59.305	800.000	-0.548	-1.479
-58.290	271.032	0.975	1.667
-57.276	800.000	0.460	1.296
-56.261	-200.000	136.979	624.078
-55.246	338.514	1650.216	3119.655
-54.232	136.197	2792.268	3534.845
-53.217	77.100	2302.787	2375.862
-52.203	27.903	1905.799	1559.835
-51.188	22.425	1701.823	1350.929
-50.173	20.816	1664.038	1308.801
-49.159	41.202	1739.448	1526.319
-48.144	37.774	1747.756	1507.092
-47.130	21.948	1699.313	1345.065
-46.115	19.727	1683.729	1315.794
-45.100	19.612	1678.326	1310.648
-44.086	19.681	1675.350	1308.793
-43.071	19.570	1673.368	1306.349
-42.057	19.438	1671.031	1303.474
-41.042	19.550	1669.196	1302.838
-40.027	19.536	1667.007	1300.973
-39.013	19.494	1665.606	1299.509
-37.998	19.517	1663.652	1298.108
-36.984	19.473	1662.899	1297.142
-35.969	19.655	1661.039	1297.004
-34.954	19.724	1658.867	1295.774
-33.940	19.638	1657.525	1294.027
-32.925	19.511	1656.548	1292.264
-31.911	19.608	1654.492	1291.338
-30.896	19.655	1652.935	1290.422
-29.881	19.660	1651.476	1289.269
-28.867	19.688	1649.850	1288.152
-27.852	19.640	1648.738	1286.876
-26.838	19.662	1647.102	1285.712
-25.823	19.664	1645.834	1284.688
-24.809	19.672	1644.684	1283.800
-23.794	19.757	1643.165	1283.195
-22.779	19.719	1641.568	1281.613
-21.765	19.702	1640.116	1280.300
-20.750	19.733	1637.942	1278.783
-19.736	19.806	1636.926	1278.478
-18.721	19.808	1635.650	1277.448
-17.706	19.748	1634.194	1275.820
-16.692	19.770	1632.731	1274.783
-15.677	19.731	1631.718	1273.660
-14.663	19.793	1630.078	1272.781
-13.648	19.784	1628.777	1271.651
-12.633	19.762	1627.061	1270.100
-11.619	19.854	1625.128	1269.214
-10.604	19.660	1624.505	1267.255
-9.590	19.772	1623.058	1266.894
-8.575	19.745	1621.729	1265.612
-7.560	19.743	1620.358	1264.478
-6.546	19.738	1619.635	1263.826
-5.531	19.715	1618.238	1262.517
-4.517	19.731	1617.554	1262.054
-3.502	19.714	1615.995	1260.657
-2.487	19.740	1614.527	1259.655
-1.473	19.202	1601.869	1245.837
-0.458	16.131	1581.785	1208.203
0.556	11.334	1583.854	1175.505
1.571	9.133	1607.618	1176.922
2.586	8.879	1619.156	1183.386
3.600	8.419	1564.723	1140.222
4.615	4.964	1461.002	1041.493
5.629	1.351	1406.461	979.258
6.644	0.753	1400.118	970.913
7.659	0.542	1399.484	969.036
8.673	0.515	1398.838	968.327
9.688	0.640	1395.671	966.848
10.702	0.454	1392.351	963.275
11.717	2.269	1394.159	976.038
12.731	7.887	1402.675	1017.922
13.746	14.198	1412.840	1065.744
14.761	16.940	1416.518	1086.009
15.775	16.648	1414.590	1082.569
16.790	15.596	1412.384	1074.064
17.804	14.862	1409.578	1067.149
18.819	14.483	1408.705	1063.973
19.834	14.288	1406.970	1061.329
20.848	13.996	1406.394	1058.938
21.863	13.862	1404.652	1056.680
22.877	13.684	1403.521	1054.603
23.892	13.559	1402.729	1053.124
24.907	13.558	1402.008	1052.482
25.921	13.512	1400.908	1051.267
26.936	13.621	1399.931	1051.134
27.950	13.709	1398.852	1050.786
28.965	13.728	1398.112	1050.261
29.980	13.761	1396.679	1049.298
30.994	13.863	1395.645	1049.077
32.009	13.764	1395.273	1048.075
33.023	13.741	1393.955	1046.849
34.038	13.750	1392.892	1046.013
35.053	13.717	1391.669	1044.794
36.067	13.681	1390.801	1043.827
37.082	13.761	1389.591	1043.328
38.096	13.742	1388.715	1042.458
39.111	13.765	1387.557	1041.643
40.126	13.706	1386.818	1040.624
41.140	13.616	1385.864	1039.252
42.155	13.627	1385.699	1039.108
43.169	13.666	1385.799	1039.335
44.184	13.579	1385.211	1038.252
45.199	13.546	1385.129	1037.894
46.213	13.554	1384.096	1037.076
47.228	13.724	1382.712	1037.014
48.242	13.628	1381.548	1035.450
49.257	13.591	1380.300	1034.190
50.271	13.667	1378.232	1033.025
51.286	13.682	1377.031	1032.125
52.301	13.718	1375.802	1031.340
53.315	13.689	1374.794	1030.308
54.330	13.603	1373.883	1029.000
55.344	13.629	1372.759	1028.228
56.359	13.609	1371.176	1026.827
57.374	13.576	1370.878	1026.310
58.388	13.519	1370.225	1025.379
59.403	13.498	1369.608	1024.698
60.417	13.512	1369.108	1024.319
61.432	13.579	1367.922	1023.755
62.447	13.472	1367.213	1022.470
63.461	13.520	1365.642	1021.504
64.476	13.521	1364.213	1020.351
65.490	13.517	1363.129	1019.424
66.505	13.611	1361.419	1018.634
67.520	13.495	1361.071	1017.571
68.534	13.592	1359.372	1016.802
69.549	13.646	1358.064	1016.069
70.563	13.501	1357.420	1014.606
71.578	13.552	1356.058	1013.812
72.593	13.487	1355.418	1012.846
73.607	13.422	1355.045	1012.078
74.622	13.435	1353.724	1011.084
75.636	13.439	1353.033	1010.502
76.651	13.430	1351.984	1009.576
77.666	13.528	1351.276	1009.554
78.680	13.496	1350.902	1008.989
79.695	13.472	1350.437	1008.406
80.709	13.474	1349.479	1007.614
81.724	13.619	1348.289	1007.519
82.739	13.626	1346.955	1006.476
83.753	13.631	1346.358	1005.970
84.768	13.672	1345.263	1005.311
85.782	13.724	1344.419	1004.910
86.797	13.731	1342.983	1003.787
87.812	13.687	1341.324	1002.192
88.826	13.723	1340.211	1001.491
89.841	13.639	1339.665	1000.487
90.855	13.751	1338.137	999.932
91.870	13.792	1337.337	999.490
92.884	13.749	1336.705	998.671
93.899	13.792	1336.219	998.480
94.914	13.736	1335.281	997.354
95.928	13.801	1334.231	996.872
96.943	13.729	1333.422	995.745
97.957	13.757	1332.435	995.087
98.972	13.763	1331.251	994.153
99.987	13.676	1330.452	992.950
101.001	13.798	1329.240	992.684
102.016	13.759	1327.887	991.352
103.030	13.832	1326.886	990.957
104.045	13.744	1326.493	990.046
105.060	13.753	1324.972	988.880
106.074	13.647	1323.447	987.022
107.089	13.621	1322.153	985.818
108.103	13.622	1320.627	984.598
109.118	13.569	1319.693	983.496
110.133	13.616	1317.948	982.388
111.147	13.608	1316.738	981.351
112.162	13.522	1315.803	980.060
113.176	13.711	1314.654	980.238
114.191	13.738	1313.855	979.710
115.206	13.656	1312.655	978.248
116.220	13.666	1311.304	977.215
117.235	13.659	1310.542	976.517
118.249	13.631	1308.574	974.801
119.264	13.653	1307.888	974.331
120.279	13.699	1306.478	973.463
121.293	13.594	1306.167	972.532
122.308	13.672	1304.209	971.447
123.322	13.606	1303.470	970.423
124.337	13.736	1302.182	970.140
125.352	13.615	1301.275	968.670
126.366	13.620	1300.339	967.916
127.381	13.656	1299.324	967.284
128.395	13.659	1297.721	966.020
129.410	13.562	1296.778	964.670
130.424	13.640	1296.349	964.719
131.439	13.632	1294.951	963.546
132.454	13.616	1294.308	962.889
133.468	13.649	1293.394	962.317
134.483	13.679	1292.311	961.600
135.497	13.631	1291.211	960.417
136.512	13.694	1289.790	959.639
137.527	13.652	1288.011	957.989
138.541	13.666	1287.078	957.293
139.556	13.661	1285.883	956.290
140.570	13.813	1284.539	956.081
141.585	13.761	1283.456	954.894
142.600	13.819	1282.175	954.190
143.614	13.856	1281.325	953.681
144.629	13.939	1280.154	953.203
145.643	13.818	1278.992	951.559
146.658	13.768	1277.891	950.372
147.673	13.788	1276.531	949.387
148.687	13.736	1275.868	948.513
149.702	13.750	1274.264	947.318
150.716	13.784	1272.850	946.377
151.731	13.811	1271.746	945.628
152.746	13.770	1270.929	944.703
153.760	13.925	1269.096	944.136
154.775	13.862	1268.176	943.014
155.789	13.988	1266.872	942.672
156.804	13.938	1265.845	941.544
157.819	13.893	1264.857	940.471
158.833	13.944	1263.873	939.941
159.848	14.044	1262.934	939.728
160.862	13.917	1262.114	938.316
161.877	13.924	1260.893	937.365
162.892	13.933	1259.859	936.565
163.906	13.876	1259.044	935.554
164.921	13.947	1258.010	935.103
165.935	13.987	1257.028	934.517
166.950	13.939	1256.513	933.780
167.964	14.030	1255.193	933.227
168.979	14.077	1254.827	933.137
169.994	13.983	1253.897	931.834
171.008	13.991	1253.307	931.356
172.023	14.119	1252.458	931.363
173.037	14.082	1251.659	930.480
174.052	14.163	1250.051	929.654
175.067	14.098	1249.248	928.610
176.081	14.019	1248.498	927.531
177.096	14.087	1247.421	927.026
178.110	14.058	1246.373	926.004
179.125	14.104	1245.232	925.333
180.140	14.182	1243.505	924.398
181.154	14.164	1242.642	923.578
182.169	14.154	1241.239	922.395
183.183	14.254	1240.347	922.209
184.198	14.265	1239.159	921.304
185.213	14.275	1237.837	920.294
186.227	14.173	1236.850	918.915
187.242	14.274	1235.735	918.560
188.256	14.261	1234.972	917.844
189.271	14.381	1233.490	917.320
190.286	14.315	1232.940	916.467
191.300	14.185	1231.858	914.867
192.315	14.140	1231.651	914.385
193.329	14.208	1230.532	913.847
194.344	14.197	1230.180	913.443
195.359	14.375	1229.199	913.612
196.373	14.324	1229.070	913.156
197.388	14.345	1228.441	912.722
198.402	14.409	1228.304	912.888
199.417	14.446	1227.507	912.419
200.432	14.492	1226.029	911.493
201.446	14.556	1225.145	911.103
202.461	14.593	1224.439	910.699
203.475	14.556	1223.521	909.735
204.490	14.524	1222.627	908.812
205.504	14.555	1221.050	907.732
206.519	14.575	1220.136	907.082
207.534	14.471	1218.792	905.435
208.548	14.466	1218.332	904.985
209.563	14.522	1217.213	904.377
210.577	14.597	1215.887	903.721
211.592	14.706	1215.055	903.609
212.607	14.634	1214.300	902.578
213.621	14.576	1213.665	901.713
214.636	14.641	1212.934	901.442
215.650	14.725	1211.451	900.714
216.665	14.712	1210.284	899.695
217.680	14.658	1209.857	899.007
218.694	14.775	1208.975	898.901
219.709	14.676	1208.083	897.630
220.723	14.739	1207.245	897.265
221.738	14.741	1207.080	897.072
222.753	14.814	1206.002	896.586
223.767	14.796	1205.660	896.155
224.782	14.945	1203.945	895.598
225.796	14.904	1203.714	895.129
226.811	14.979	1203.081	894.979
227.826	14.856	1202.840	894.064
228.840	14.879	1201.908	893.417
229.855	14.930	1201.085	892.997
230.869	14.907	1200.038	892.016
231.884	14.834	1199.421	891.089
232.899	14.864	1198.727	890.656
233.913	14.926	1197.672	890.120
234.928	14.875	1197.018	889.285
235.942	14.920	1196.421	889.002
236.957	14.883	1195.520	888.055
237.972	14.898	1194.767	887.502
238.986	14.837	1194.488	886.890
240.001	14.883	1193.538	886.352
241.015	14.973	1192.055	885.645
242.030	14.974	1191.517	885.174
243.045	15.089	1190.929	885.266
244.059	15.148	1190.014	884.820
245.074	15.024	1189.283	883.542
246.088	14.970	1188.507	882.605
247.103	15.066	1187.431	882.234
248.117	15.155	1186.560	881.979
249.132	15.284	1185.523	881.805
250.147	15.142	1185.494	880.959
251.161	15.233	1184.347	880.507
252.176	15.224	1184.052	880.162
253.190	15.228	1183.526	879.715
254.205	15.387	1182.487	879.699
255.220	15.225	1181.953	878.372
256.234	15.368	1180.879	878.248
257.249	15.449	1180.551	878.350
258.263	15.367	1180.032	877.455
259.278	15.399	1179.182	876.916
260.293	15.436	1179.012	876.902
261.307	15.443	1178.451	876.443
262.322	15.475	1177.454	875.792
263.336	15.526	1176.622	875.361
264.351	15.532	1176.361	875.122
265.366	15.524	1175.500	874.365
266.380	15.565	1174.282	873.593
267.395	15.563	1173.866	873.196
268.409	15.584	1173.250	872.769
269.424	15.571	1172.775	872.270
270.439	15.514	1171.898	871.248
271.453	15.518	1171.267	870.723
272.468	15.581	1170.257	870.222
273.482	15.601	1169.232	869.483
274.497	15.605	1169.074	869.312
275.512	15.739	1167.959	869.096
276.526	15.550	1167.270	867.532
277.541	15.564	1166.647	867.064
278.555	15.646	1165.805	866.782
279.570	15.697	1165.022	866.386
280.585	15.709	1164.289	865.829
281.599	15.813	1162.760	865.148
282.614	15.710	1162.280	864.184
283.628	15.789	1161.151	863.677
284.643	15.798	1160.161	862.911
285.657	15.709	1159.780	862.092
286.672	15.868	1158.683	862.016
287.687	15.872	1157.590	861.144
288.701	15.887	1156.728	860.506
289.716	15.953	1155.857	860.120
290.730	15.922	1155.330	859.491
291.745	15.850	1154.581	858.490
292.760	15.967	1153.759	858.400
293.774	15.892	1153.362	857.646
294.789	15.950	1153.240	857.775
295.803	16.044	1151.892	857.174
296.818	15.948	1151.167	856.070
297.833	15.939	1150.788	855.668
298.847	15.902	1150.021	854.833
299.862	15.992	1148.744	854.264
300.876	15.991	1148.048	853.669
301.891	16.050	1147.499	853.484
302.906	16.059	1147.166	853.206
303.920	16.030	1146.561	852.536
304.935	16.133	1145.209	851.974
305.949	16.223	1144.515	851.836
306.964	16.260	1144.137	851.667
307.979	16.217	1143.369	850.800
308.993	16.205	1142.646	850.127
310.008	16.101	1142.262	849.242
311.022	16.232	1141.455	849.229
312.037	16.335	1140.528	848.979
313.052	16.239	1139.586	847.724
314.066	16.273	1138.854	847.271
315.081	16.145	1137.901	845.846
316.095	16.223	1137.080	845.554
317.110	16.290	1135.943	844.970
318.125	16.269	1135.675	844.589
319.139	16.227	1134.569	843.481
320.154	16.203	1134.169	842.990
321.168	16.192	1133.633	842.464
322.183	16.267	1133.004	842.294
323.197	16.396	1132.297	842.335
324.212	16.225	1131.770	841.019
325.227	16.373	1130.954	841.075
326.241	16.426	1129.929	840.501
327.256	16.373	1129.297	839.692
328.270	16.426	1128.231	839.088
329.285	16.363	1127.541	838.187
330.300	16.402	1126.552	837.575
331.314	16.406	1125.547	836.772
332.329	16.384	1124.752	836.000
333.343	16.411	1123.845	835.382
334.358	16.446	1123.021	834.868
335.373	16.466	1122.646	834.614
336.387	16.487	1121.685	833.934
337.402	16.507	1120.683	833.213
338.416	16.571	1120.438	833.271
339.431	16.560	1119.766	832.645
340.446	16.643	1118.977	832.390
341.460	16.599	1118.393	831.667
342.475	16.706	1116.976	831.063
343.489	16.609	1116.414	830.098
344.504	16.557	1115.336	828.965
345.519	16.645	1114.868	828.979
346.533	16.648	1114.098	828.348
347.548	16.751	1112.889	827.875
348.562	16.867	1111.653	827.451
349.577	16.771	1111.484	826.782
350.592	16.696	1110.743	825.795
351.606	16.679	1110.613	825.539
352.621	16.652	1109.625	824.603
353.635	16.756	1108.811	824.429
354.650	16.774	1107.957	823.810
355.665	16.675	1107.465	822.891
356.679	16.763	1106.883	822.811
357.694	16.708	1106.174	821.943
358.708	16.953	1105.273	822.393
359.723	16.891	1104.370	821.344
360.738	16.994	1103.996	821.492
361.752	16.881	1103.238	820.313
362.767	16.909	1102.743	820.003
363.781	16.882	1102.570	819.673
364.796	16.979	1101.408	819.207
365.810	17.031	1100.561	818.756
366.825	17.048	1100.029	818.369
367.840	17.113	1099.814	818.449
368.854	17.142	1098.889	817.829
369.869	17.110	1098.926	817.627
370.883	17.074	1097.609	816.404
371.898	17.123	1096.938	816.068
372.913	17.207	1096.001	815.702
373.927	17.186	1095.737	815.330
374.942	17.100	1095.235	814.472
375.956	17.167	1094.942	814.503
376.971	17.242	1094.092	814.161
377.986	17.257	1093.580	813.778
379.000	17.203	1092.824	812.888
380.015	17.284	1092.440	812.914
381.029	17.334	1091.530	812.407
382.044	17.319	1090.591	811.565
383.059	17.417	1089.786	811.357
384.073	17.319	1089.342	810.491
385.088	17.281	1088.608	809.689
386.102	17.322	1087.504	808.994
387.117	17.459	1086.036	808.478
388.132	17.372	1085.307	807.455
389.146	17.329	1085.006	806.956
390.161	17.473	1084.078	806.875
391.175	17.421	1083.245	805.937
392.190	17.406	1082.790	805.458
393.205	17.495	1082.138	805.324
394.219	17.429	1081.599	804.535
395.234	17.532	1080.076	803.817
396.248	17.510	1079.048	802.879
397.263	17.424	1078.134	801.722
398.278	17.390	1077.515	801.031
399.292	17.519	1076.667	800.937
400.307	17.496	1076.073	800.316
401.321	17.508	1075.359	799.770
402.336	17.476	1075.083	799.347
403.350	17.665	1073.869	799.256
404.365	17.556	1073.942	798.733
405.380	17.537	1072.647	797.606
406.394	17.581	1071.860	797.160
407.409	17.600	1071.350	796.797
408.423	17.665	1070.560	796.443
409.438	17.727	1069.752	796.059
410.453	17.756	1068.960	795.537
411.467	17.810	1068.278	795.211
412.482	17.900	1067.237	794.782
413.496	17.820	1067.194	794.309
414.511	17.758	1066.490	793.426
415.526	17.912	1065.630	793.432
416.540	17.934	1065.278	793.199
417.555	17.865	1065.006	792.610
418.569	17.926	1064.468	792.421
419.584	17.876	1063.853	791.660
420.599	17.883	1063.879	791.642
421.613	109.419	1332.858	1491.269
422.628	101.114	1371.981	1491.355
