DTS Sentinel unit serial number:	SN413079Multiplexer serial number:	ORYXHardware model number:	OX4-SRSoftware version number:	ORYX F/W v4.00 Oryx Data Collector v3.7.2.0data status	okinstallation	princeton_trtdifferential loss correction	single-endedforward channel	channel 2reverse channel	N/Adate	2019/09/15time	05:07:34forward acquisition time	60.00reverse acquisition time	0.00gamma	496.2192k internal	0.2326k external	0.2326temperature offset calibration	1.0037default loss term (dB/km)	0.3790temperature slope calibration	1.0000multiplexer offset coefficient	1.0000multiplexer slope coefficient	1.0000fibre end	0.00T internal ref (°C)	30.62T ext. ref 1 (°C)	4.82T ext. ref 2 (°C)	25.24length (m)	temperature (°C)	Stokes	anti-Stokes-747.200	194.565	0.268	-0.410
-746.185	-2.398	-0.290	0.205
-745.171	-197.733	-0.096	0.001
-744.156	30.843	0.371	0.320
-743.142	477.323	0.038	0.086
-742.127	-40.326	-0.082	-0.043
-741.112	-200.000	0.085	-0.713
-740.098	505.253	0.090	0.209
-739.083	-113.053	-0.165	-0.033
-738.069	105.536	0.040	0.047
-737.054	-200.000	0.006	0.173
-736.039	800.000	0.071	-0.201
-735.025	705.649	0.134	-0.355
-734.010	-104.068	-0.223	0.052
-732.996	794.251	0.087	-0.241
-731.981	687.349	-0.048	0.125
-730.966	-116.351	-0.088	-0.016
-729.952	-168.433	-0.078	-0.003
-728.937	-78.483	-0.141	0.049
-727.923	-200.000	-0.038	0.237
-726.908	302.009	-0.041	-0.077
-725.894	85.855	-0.118	0.130
-724.879	-200.000	0.035	-0.373
-723.864	25.531	-0.289	-0.243
-722.850	-200.000	-0.014	-0.167
-721.835	-79.067	-0.084	-0.029
-720.821	300.915	-0.043	0.079
-719.806	-37.814	-0.392	-0.210
-718.791	-126.861	-0.294	-0.044
-717.777	-66.983	-0.012	0.005
-716.762	-200.000	-0.032	-0.512
-715.748	-159.786	0.194	0.011
-714.733	-200.000	0.030	0.182
-713.718	-24.267	-0.199	-0.120
-712.704	146.902	0.076	-0.103
-711.689	-59.917	-0.049	0.021
-710.675	-18.082	-0.352	-0.222
-709.660	-69.225	0.050	0.019
-708.645	-79.429	0.226	-0.077
-707.631	475.439	-0.257	-0.585
-706.616	83.917	-0.073	0.080
-705.602	-0.895	0.061	-0.044
-704.587	435.659	-0.061	0.134
-703.572	-115.095	-0.149	-0.028
-702.558	-14.737	-0.118	-0.077
-701.543	800.000	-0.077	0.300
-700.529	-200.000	0.021	0.444
-699.514	-200.000	-0.076	-0.357
-698.499	364.986	-0.115	-0.234
-697.485	246.849	-0.067	-0.113
-696.470	-118.936	-0.332	0.059
-695.456	800.000	0.032	0.106
-694.441	206.545	0.200	-0.314
-693.426	123.170	0.117	0.148
-692.412	5.129	-0.175	-0.130
-691.397	27.945	0.251	0.213
-690.383	214.915	-0.256	-0.408
-689.368	-200.000	-0.002	0.178
-688.354	133.904	-0.132	-0.172
-687.339	95.968	0.128	0.147
-686.324	800.000	-0.091	-0.337
-685.310	307.061	-0.111	-0.208
-684.295	110.859	0.171	-0.207
-683.281	-200.000	0.054	-0.284
-682.266	-66.728	0.136	-0.054
-681.251	-200.000	0.009	-0.301
-680.237	-171.294	0.224	-0.008
-679.222	101.655	-0.080	-0.094
-678.208	125.067	-0.157	-0.199
-677.193	-62.828	0.045	-0.019
-676.178	-134.542	-0.280	0.034
-675.164	-45.260	-0.117	-0.058
-674.149	-70.003	-0.141	0.054
-673.135	-37.980	-0.228	-0.122
-672.120	225.441	0.194	0.316
-671.105	-200.000	0.037	-0.307
-670.091	465.408	0.038	0.085
-669.076	240.494	-0.113	0.189
-668.062	-137.328	-0.222	0.025
-667.047	-132.385	-0.355	0.046
-666.032	-37.929	0.113	-0.060
-665.018	800.000	0.094	-0.351
-664.003	120.408	-0.156	0.194
-662.989	-8.749	0.072	-0.049
-661.974	-115.405	-0.250	-0.047
-660.959	-200.000	-0.031	0.230
-659.945	-51.514	-0.233	-0.109
-658.930	-103.576	0.247	0.058
-657.916	-200.000	0.025	0.281
-656.901	-200.000	0.006	0.060
-655.886	-91.138	-0.170	0.049
-654.872	-132.509	-0.281	0.036
-653.857	544.934	-0.054	-0.130
-652.843	-41.054	0.273	-0.142
-651.828	-87.019	-0.049	-0.015
-650.814	106.082	-0.150	-0.178
-649.799	-110.598	0.024	-0.005
-648.784	80.781	-0.078	-0.084
-647.770	-200.000	0.088	0.428
-646.755	43.936	-0.073	0.067
-645.741	-39.427	0.128	0.067
-644.726	-86.407	-0.315	0.097
-643.711	125.318	0.126	-0.159
-642.697	800.000	0.031	0.098
-641.682	-104.585	0.173	0.040
-640.668	75.132	0.253	0.268
-639.653	21.787	0.140	0.115
-638.638	-200.000	-0.006	0.090
-637.624	30.873	-0.080	-0.069
-636.609	418.129	0.169	0.362
-635.595	696.919	0.162	-0.428
-634.580	-200.000	0.014	0.139
-633.565	-200.000	-0.004	0.192
-632.551	800.000	-0.068	-0.243
-631.536	800.000	-0.075	-0.306
-630.522	-127.877	-0.278	-0.040
-629.507	-128.749	-0.252	0.036
-628.492	-84.105	-0.255	-0.081
-627.478	-16.633	0.279	0.177
-626.463	-126.988	-0.363	0.053
-625.449	-28.652	0.171	-0.099
-624.434	-0.125	0.226	0.161
-623.419	224.194	0.064	-0.104
-622.405	-200.000	-0.001	-0.156
-621.390	229.377	0.090	0.148
-620.376	-46.615	-0.168	0.083
-619.361	-14.295	0.133	-0.086
-618.346	-14.020	0.134	-0.087
-617.332	-111.047	-0.101	-0.021
-616.317	-200.000	-0.019	-0.182
-615.303	153.717	-0.027	0.037
-614.288	5.225	0.180	-0.133
-613.273	-90.084	0.245	-0.071
-612.259	800.000	0.072	-0.220
-611.244	-200.000	0.019	-0.370
-610.230	1.858	-0.052	-0.038
-609.215	76.721	-0.237	0.253
-608.201	-26.889	0.297	0.174
-607.186	331.281	0.110	-0.212
-606.171	53.497	0.098	-0.094
-605.157	92.632	0.177	0.200
-604.142	-47.983	-0.240	0.117
-603.128	-105.205	-0.253	-0.058
-602.113	-68.419	0.140	0.055
-601.098	668.043	0.132	0.343
-600.084	130.739	0.138	0.177
-599.069	-200.000	0.013	0.058
-598.055	-200.000	-0.031	0.213
-597.040	-105.379	0.046	0.011
-596.025	-200.000	-0.005	0.051
-595.011	-200.000	0.034	-0.232
-593.996	-200.000	-0.002	-0.072
-592.982	800.000	0.074	0.213
-591.967	-106.282	0.160	-0.036
-590.952	146.471	-0.182	0.244
-589.938	507.792	-0.135	0.313
-588.923	-170.117	0.275	-0.010
-587.909	16.956	0.037	0.029
-586.894	508.324	-0.089	0.206
-585.879	23.674	0.092	-0.076
-584.865	-200.000	0.014	0.163
-583.850	313.332	-0.053	0.100
-582.836	62.488	0.133	0.133
-581.821	800.000	0.075	-0.256
-580.806	-200.000	0.000	0.140
-579.792	800.000	-0.020	-0.079
-578.777	93.463	0.160	0.182
-577.763	-32.301	0.326	0.182
-576.748	-200.000	-0.013	-0.139
-575.733	-54.361	0.027	-0.012
-574.719	-21.201	0.230	-0.141
-573.704	-139.405	-0.114	-0.012
-572.690	-197.212	0.231	0.001
-571.675	-41.474	-0.289	-0.149
-570.661	-7.543	-0.089	0.060
-569.646	-39.958	0.173	0.091
-568.631	-68.533	0.307	-0.119
-567.617	-200.000	0.001	0.161
-566.602	233.985	-0.091	0.149
-565.588	800.000	-0.063	-0.173
-564.573	-11.367	-0.073	-0.048
-563.558	5.197	-0.197	0.145
-562.544	-115.381	-0.078	0.015
-561.529	-158.959	0.366	-0.021
-560.515	44.458	-0.261	-0.240
-559.500	-200.000	0.010	0.174
-558.485	48.031	0.178	0.166
-557.471	-200.000	-0.001	-0.067
-556.456	-200.000	0.051	-0.279
-555.442	53.458	0.278	-0.267
-554.427	-3.659	-0.155	0.108
-553.412	-159.862	-0.279	-0.015
-552.398	29.809	0.181	-0.154
-551.383	800.000	-0.175	-0.490
-550.369	16.802	-0.167	0.132
-549.354	-126.345	0.023	0.004
-548.339	-200.000	0.014	-0.189
-547.325	257.897	-0.115	0.198
-546.310	-33.855	0.162	0.089
-545.296	148.328	-0.190	-0.257
-544.281	-200.000	-0.001	0.060
-543.266	-200.000	0.004	-0.098
-542.252	769.071	-0.012	0.034
-541.237	36.114	-0.216	0.190
-540.223	800.000	0.035	0.109
-539.208	19.176	0.363	0.291
-538.193	-200.000	-0.016	-0.157
-537.179	-88.749	-0.346	0.103
-536.164	11.770	0.098	0.076
-535.150	800.000	0.088	-0.344
-534.135	-37.259	0.102	0.055
-533.121	-7.037	-0.147	0.100
-532.106	800.000	-0.079	0.250
-531.091	-149.418	-0.327	-0.026
-530.077	97.869	-0.139	0.160
-529.062	-98.836	0.052	-0.013
-528.048	-137.348	0.260	0.030
-527.033	-104.903	0.112	-0.026
-526.018	800.000	-0.046	0.136
-525.004	-105.359	0.373	-0.085
-523.989	-26.985	0.176	0.102
-522.975	17.076	0.156	0.124
-521.960	800.000	-0.092	0.254
-520.945	184.106	0.109	-0.161
-519.931	475.231	-0.119	-0.268
-518.916	330.970	-0.054	-0.104
-517.902	120.463	0.059	-0.073
-516.887	-180.420	-0.088	-0.002
-515.872	196.607	0.101	0.153
-514.858	57.033	-0.077	-0.075
-513.843	-49.850	-0.134	-0.064
-512.829	-200.000	0.014	0.106
-511.814	-200.000	-0.040	0.204
-510.799	116.495	0.066	-0.081
-509.785	97.640	-0.272	0.312
-508.770	224.977	0.157	-0.254
-507.756	105.161	-0.122	-0.144
-506.741	-173.024	-0.316	0.010
-505.726	-105.896	-0.285	-0.064
-504.712	-52.580	-0.201	0.093
-503.697	-81.106	0.205	0.068
-502.683	17.987	0.038	-0.030
-501.668	-108.991	0.221	0.047
-500.653	630.204	-0.048	0.121
-499.639	-200.000	-0.034	-0.218
-498.624	355.917	-0.076	-0.151
-497.610	-22.402	-0.191	0.116
-496.595	-47.027	-0.103	0.050
-495.581	-200.000	0.002	0.019
-494.566	105.947	0.071	0.084
-493.551	-200.000	0.041	0.227
-492.537	-199.110	0.203	-0.001
-491.522	800.000	-0.038	0.127
-490.508	16.745	-0.104	0.082
-489.493	-77.422	-0.178	-0.062
-488.478	-200.000	-0.020	0.148
-487.464	-108.255	-0.276	0.059
-486.449	-70.144	0.116	0.044
-485.435	211.021	0.153	0.241
-484.420	-58.349	-0.384	0.167
-483.405	341.021	0.130	0.253
-482.391	432.683	0.087	-0.187
-481.376	-63.150	-0.151	0.062
-480.362	-200.000	-0.030	-0.281
-479.347	51.512	-0.167	0.159
-478.332	-200.000	-0.010	-0.207
-477.318	-88.158	0.121	0.036
-476.303	800.000	-0.017	-0.055
-475.289	800.000	0.117	0.361
-474.274	-200.000	-0.027	0.323
-473.259	53.253	-0.085	0.081
-472.245	-200.000	-0.001	0.082
-471.230	-186.144	0.091	0.001
-470.216	220.323	-0.088	-0.141
-469.201	155.120	-0.171	0.234
-468.186	800.000	-0.105	0.353
-467.172	-17.063	-0.306	-0.192
-466.157	628.286	0.094	0.237
-465.143	-59.586	-0.273	-0.117
-464.128	-93.879	0.219	-0.060
-463.113	-200.000	-0.012	-0.058
-462.099	169.882	0.188	-0.268
-461.084	-45.961	0.063	-0.031
-460.070	800.000	0.075	-0.206
-459.055	-200.000	0.004	-0.108
-458.040	-200.000	-0.004	-0.045
-457.026	476.351	-0.065	-0.147
-456.011	-101.864	0.271	0.065
-454.997	-200.000	0.010	-0.237
-453.982	-152.163	-0.222	-0.016
-452.968	-200.000	-0.019	0.231
-451.953	-8.309	0.249	0.167
-450.938	-200.000	0.003	-0.306
-449.924	467.647	-0.072	-0.161
-448.909	-50.800	0.050	-0.023
-447.895	-10.779	-0.434	-0.286
-446.880	34.116	-0.066	-0.057
-445.865	424.188	0.087	0.187
-444.851	32.811	0.189	-0.163
-443.836	119.779	0.125	-0.154
-442.822	-199.642	0.318	0.002
-441.807	157.437	-0.211	0.291
-440.792	800.000	-0.022	0.077
-439.778	800.000	-0.101	0.291
-438.763	-128.351	-0.183	-0.026
-437.749	800.000	-0.089	-0.385
-436.734	181.122	-0.093	0.136
-435.719	-200.000	0.025	-0.382
-434.705	-28.767	-0.295	-0.169
-433.690	-200.000	-0.014	-0.111
-432.676	486.538	0.060	-0.135
-431.661	98.140	-0.379	-0.435
-430.646	-133.860	0.068	0.008
-429.632	-45.716	-0.157	-0.077
-428.617	800.000	0.049	0.199
-427.603	62.344	-0.246	-0.245
-426.588	800.000	-0.097	-0.274
-425.573	44.333	0.031	0.028
-424.559	-129.724	0.092	-0.013
-423.544	-35.878	-0.256	0.138
-422.530	-130.129	0.037	0.005
-421.515	22.337	-0.245	0.200
-420.500	260.614	0.087	-0.150
-419.486	-132.924	0.216	-0.027
-418.471	-99.276	-0.110	-0.028
-417.457	-12.936	0.161	-0.104
-416.442	19.149	-0.233	-0.186
-415.428	-111.888	0.051	0.010
-414.413	-72.910	-0.156	0.057
-413.398	14.869	-0.363	0.283
-412.384	75.726	-0.125	0.132
-411.369	96.855	0.060	0.069
-410.355	405.484	-0.088	0.184
-409.340	341.166	0.180	0.349
-408.325	258.021	0.078	-0.133
-407.311	-86.563	-0.096	0.029
-406.296	-200.000	-0.040	0.301
-405.282	491.261	-0.046	-0.105
-404.267	-64.302	-0.395	-0.160
-403.252	800.000	-0.048	-0.157
-402.238	156.468	-0.075	-0.102
-401.223	-122.858	0.228	0.037
-400.209	432.063	0.075	-0.161
-399.194	-114.369	0.086	-0.017
-398.179	-4.797	-0.097	-0.066
-397.165	173.181	0.120	-0.172
-396.150	321.258	0.034	0.065
-395.136	-200.000	-0.045	-0.407
-394.121	121.416	-0.094	-0.117
-393.106	-124.246	0.165	0.026
-392.092	4.702	0.052	0.038
-391.077	686.696	-0.076	-0.198
-390.063	16.150	0.234	-0.184
-389.048	-200.000	0.026	-0.368
-388.033	102.020	0.211	-0.245
-387.019	-73.710	-0.241	-0.087
-386.004	102.285	-0.126	0.147
-384.990	-14.898	0.110	0.070
-383.975	-10.292	-0.488	-0.322
-382.960	77.354	-0.192	-0.204
-381.946	-136.971	0.371	-0.042
-380.931	800.000	0.110	0.314
-379.917	-182.189	-0.286	0.005
-378.902	-59.725	-0.172	-0.073
-377.888	800.000	-0.055	-0.199
-376.873	158.699	-0.100	0.138
-375.858	23.075	0.352	-0.287
-374.844	105.155	-0.226	0.265
-373.829	95.706	-0.163	-0.185
-372.815	379.977	0.066	-0.134
-371.800	78.238	-0.197	-0.209
-370.785	26.009	0.151	-0.125
-369.771	-200.000	0.039	0.194
-368.756	800.000	-0.034	0.129
-367.742	-151.426	0.409	0.030
-366.727	250.109	0.180	0.303
-365.712	60.067	-0.066	-0.065
-364.698	145.004	-0.114	-0.152
-363.683	15.187	0.158	0.123
-362.669	-130.845	-0.090	0.012
-361.654	242.962	0.061	0.101
-360.639	-47.680	-0.168	-0.081
-359.625	-200.000	-0.020	-0.099
-358.610	-200.000	0.017	-0.206
-357.596	-123.378	0.235	0.037
-356.581	38.124	0.090	0.080
-355.566	-194.849	-0.367	-0.003
-354.552	-200.000	0.016	0.266
-353.537	109.064	-0.245	0.291
-352.523	-10.311	0.256	0.169
-351.508	-97.335	0.187	-0.049
-350.493	800.000	0.046	-0.148
-349.479	305.338	-0.045	0.083
-348.464	123.171	-0.164	-0.204
-347.450	639.831	0.082	-0.208
-346.435	250.778	0.126	0.212
-345.420	-200.000	-0.003	0.297
-344.406	-23.886	0.231	0.137
-343.391	178.109	0.113	-0.164
-342.377	-200.000	-0.006	0.077
-341.362	800.000	-0.102	-0.343
-340.348	299.764	0.053	-0.096
-339.333	376.830	0.077	0.156
-338.318	800.000	0.094	0.264
-337.304	-200.000	-0.037	-0.353
-336.289	-143.052	-0.255	0.024
-335.275	92.052	-0.122	-0.137
-334.260	328.366	0.068	0.130
-333.245	-13.652	-0.110	-0.071
-332.231	-55.184	0.067	-0.030
-331.216	33.185	-0.122	-0.105
-330.202	-13.938	-0.195	-0.125
-329.187	409.979	-0.134	-0.282
-328.172	800.000	-0.058	0.198
-327.158	-190.790	0.311	-0.003
-326.143	105.551	0.180	-0.212
-325.129	-52.715	-0.242	0.111
-324.114	-154.432	-0.536	-0.036
-323.099	201.133	0.070	0.106
-322.085	-160.133	-0.150	0.008
-321.070	34.919	-0.191	0.166
-320.056	45.535	-0.124	-0.113
-319.041	-3.337	-0.184	-0.127
-318.026	-36.294	-0.388	-0.207
-317.012	-30.545	-0.036	-0.020
-315.997	-148.057	-0.367	-0.030
-314.983	33.257	-0.211	0.182
-313.968	31.461	-0.144	0.123
-312.953	-0.840	0.234	-0.164
-311.939	346.388	0.232	-0.452
-310.924	-160.079	0.225	0.012
-309.910	630.708	-0.053	0.132
-308.895	-200.000	-0.028	0.361
-307.880	271.814	0.071	-0.124
-306.866	139.610	0.234	-0.305
-305.851	79.042	-0.068	0.072
-304.837	691.181	0.097	-0.253
-303.822	800.000	0.041	0.146
-302.807	-200.000	-0.021	-0.124
-301.793	800.000	-0.049	0.171
-300.778	-200.000	0.034	0.253
-299.764	202.783	0.024	0.037
-298.749	103.002	-0.164	0.190
-297.735	280.223	0.128	-0.227
-296.720	-200.000	0.000	0.197
-295.705	773.683	0.094	-0.253
-294.691	-200.000	0.052	0.289
-293.676	-55.759	-0.360	-0.159
-292.662	-107.241	-0.007	-0.001
-291.647	-47.813	-0.142	0.068
-290.632	-200.000	-0.056	0.279
-289.618	-118.838	0.101	-0.018
-288.603	-128.205	-0.210	0.030
-287.589	-172.363	0.163	0.005
-286.574	394.050	0.249	-0.514
-285.559	760.421	0.052	0.139
-284.545	-84.329	0.156	-0.049
-283.530	800.000	-0.008	-0.033
-282.516	-30.498	0.222	0.125
-281.501	469.368	0.094	0.210
-280.486	-38.874	-0.176	-0.092
-279.472	-128.451	0.323	-0.045
-278.457	-24.884	0.147	-0.086
-277.443	-39.582	-0.147	0.076
-276.428	143.799	0.237	0.312
-275.413	-142.932	0.321	0.031
-274.399	76.331	0.113	-0.118
-273.384	-200.000	0.005	0.201
-272.370	-6.664	0.082	0.055
-271.355	25.966	0.152	0.126
-270.340	-167.674	-0.374	-0.015
-269.326	-59.339	0.093	0.040
-268.311	-19.379	-0.220	-0.135
-267.297	-200.000	0.054	-0.312
-266.282	-200.000	0.009	-0.273
-265.267	656.636	0.030	-0.077
-264.253	-92.166	-0.330	0.092
-263.238	-77.050	-0.332	0.115
-262.224	-126.526	0.371	0.055
-261.209	-68.612	0.197	-0.075
-260.195	-62.456	0.169	0.070
-259.180	-63.892	0.161	-0.065
-258.165	51.523	-0.095	0.089
-257.151	-200.000	-0.009	0.097
-256.136	-121.709	-0.325	0.053
-255.122	82.573	0.084	0.090
-254.107	-28.659	0.413	-0.235
-253.092	603.241	0.113	0.278
-252.078	-18.101	0.201	-0.124
-251.063	-200.000	0.012	0.259
-250.049	-91.876	-0.227	-0.064
-249.034	-2.976	-0.066	-0.045
-248.019	318.305	0.100	0.188
-247.005	-200.000	-0.034	-0.333
-245.990	175.862	-0.197	0.283
-244.976	-83.508	-0.175	-0.056
-243.961	-200.000	-0.009	-0.311
-242.946	-129.160	-0.124	0.017
-241.932	800.000	0.040	-0.137
-240.917	-121.324	0.234	-0.039
-239.903	-34.255	-0.097	0.052
-238.888	-84.155	0.245	-0.077
-237.873	-137.669	0.145	0.016
-236.859	242.430	0.115	-0.191
-235.844	97.572	0.151	-0.171
-234.830	59.618	0.124	0.121
-233.815	-22.567	0.057	0.034
-232.800	-146.559	0.153	0.013
-231.786	-109.542	0.132	-0.027
-230.771	37.068	0.258	-0.226
-229.757	-50.059	-0.576	-0.270
-228.742	168.415	0.154	-0.217
-227.727	8.684	-0.057	0.042
-226.713	-200.000	0.005	0.332
-225.698	-36.177	-0.403	0.215
-224.684	800.000	0.056	0.211
-223.669	64.352	0.090	-0.090
-222.655	678.451	-0.110	0.283
-221.640	800.000	-0.204	0.705
-220.625	-137.268	-0.154	0.017
-219.611	36.006	0.219	0.191
-218.596	479.602	0.110	0.247
-217.582	202.706	-0.207	-0.316
-216.567	494.710	0.038	-0.086
-215.552	-127.290	0.202	-0.029
-214.538	-27.053	0.345	-0.199
-213.523	443.721	-0.050	0.108
-212.509	-60.823	-0.291	-0.122
-211.494	-4.221	-0.017	-0.012
-210.479	-167.461	-0.118	-0.005
-209.465	800.000	0.064	-0.225
-208.450	156.574	-0.159	0.217
-207.436	188.816	0.189	0.279
-206.421	-46.656	-0.263	0.127
-205.406	-165.179	0.231	0.010
-204.392	74.744	0.103	0.107
-203.377	-73.905	0.267	0.096
-202.363	-29.915	0.190	0.107
-201.348	-200.000	-0.032	-0.310
-200.333	-18.253	0.161	-0.099
-199.319	28.559	0.130	-0.109
-198.304	-78.143	0.267	-0.091
-197.290	-125.920	-0.233	-0.035
-196.275	228.724	0.048	0.078
-195.260	800.000	0.015	-0.049
-194.246	282.869	0.080	-0.141
-193.231	-41.421	-0.147	-0.074
-192.217	421.959	-0.043	0.092
-191.202	-19.918	-0.205	-0.125
-190.187	185.910	0.115	0.168
-189.173	-57.488	-0.010	-0.004
-188.158	-200.000	-0.038	0.178
-187.144	215.335	0.205	0.321
-186.129	-14.478	-0.131	-0.083
-185.114	-83.252	0.229	0.073
-184.100	742.700	0.099	-0.261
-183.085	800.000	0.027	0.106
-182.071	444.606	0.080	0.173
-181.056	-23.601	0.255	-0.151
-180.042	-8.565	-0.219	0.145
-179.027	314.436	-0.124	-0.230
-178.012	-52.258	0.256	-0.117
-176.998	288.930	0.114	0.203
-175.983	483.866	-0.075	0.169
-174.969	313.439	-0.130	-0.240
-173.954	-75.054	-0.135	-0.048
-172.939	-130.342	0.148	0.020
-171.925	-44.623	-0.327	0.161
-170.910	-44.716	-0.086	-0.042
-169.896	-57.466	-0.102	-0.044
-168.881	-63.835	-0.108	-0.043
-167.866	-60.231	0.298	-0.125
-166.852	96.372	-0.167	-0.188
-165.837	-40.669	-0.134	-0.069
-164.823	-95.647	0.350	0.092
-163.808	-200.000	-0.005	0.035
-162.793	800.000	-0.039	-0.130
-161.779	800.000	-0.070	-0.241
-160.764	-21.774	-0.167	0.100
-159.750	100.554	0.149	0.170
-158.735	-200.000	-0.009	0.075
-157.720	267.110	0.044	0.076
-156.706	486.435	-0.073	0.164
-155.691	-63.569	0.234	0.095
-154.677	-200.000	0.032	-0.254
-153.662	-139.754	0.552	-0.058
-152.647	-19.048	-0.240	0.147
-151.633	-70.637	0.242	0.090
-150.618	-200.000	0.000	-0.381
-149.604	800.000	0.059	0.171
-148.589	441.313	0.136	0.294
-147.574	204.189	-0.060	0.092
-146.560	-40.998	-0.267	-0.136
-145.545	195.824	0.025	-0.037
-144.531	291.327	-0.193	0.345
-143.516	-146.939	0.220	0.019
-142.502	-72.436	0.263	-0.096
-141.487	-13.017	-0.320	-0.205
-140.472	-8.640	0.214	-0.141
-139.458	800.000	-0.083	-0.335
-138.443	454.608	0.148	-0.324
-137.429	341.115	-0.031	-0.059
-136.414	165.655	-0.080	0.112
-135.399	-37.823	-0.344	0.180
-134.385	-69.404	0.019	0.007
-133.370	13.841	-0.080	0.061
-132.356	382.931	-0.135	0.273
-131.341	111.158	0.024	0.029
-130.326	-146.700	-0.101	-0.009
-129.312	119.136	0.041	-0.050
-128.297	31.291	0.146	0.123
-127.283	614.024	-0.105	0.258
-126.268	321.881	0.077	-0.144
-125.253	36.744	0.157	0.136
-124.239	47.416	0.219	0.201
-123.224	-102.304	0.547	0.129
-122.210	280.670	0.012	0.021
-121.195	-139.183	0.106	0.011
-120.180	-200.000	0.064	0.380
-119.166	311.057	-0.245	-0.453
-118.151	-200.000	0.050	-0.315
-117.137	800.000	-0.033	-0.099
-116.122	-115.426	0.087	-0.016
-115.107	48.832	0.104	0.096
-114.093	72.823	-0.157	0.161
-113.078	-200.000	-0.035	-0.200
-112.064	797.073	-0.045	-0.121
-111.049	800.000	0.053	-0.216
-110.034	74.260	0.263	0.272
-109.020	-200.000	0.002	0.227
-108.005	96.168	-0.163	0.183
-106.991	-64.500	0.305	-0.122
-105.976	-146.054	0.345	-0.030
-104.962	-200.000	0.009	-0.265
-103.947	800.000	-0.032	-0.118
-102.932	141.551	0.099	0.129
-101.918	116.427	-0.191	0.230
-100.903	800.000	0.054	-0.199
-99.889	167.724	-0.083	-0.116
-98.874	-200.000	-0.026	0.340
-97.859	-108.935	-0.113	0.024
-96.845	800.000	-0.081	0.278
-95.830	473.623	-0.092	0.204
-94.816	149.513	-0.190	0.254
-93.801	-131.630	-0.255	0.033
-92.786	163.063	-0.245	0.339
-91.772	11.342	0.161	-0.121
-90.757	127.004	0.058	-0.073
-89.743	-39.996	-0.051	0.026
-88.728	236.269	-0.047	0.077
-87.713	-36.559	0.312	-0.165
-86.699	249.562	-0.113	0.189
-85.684	0.785	0.075	-0.053
-84.670	-151.669	0.373	-0.027
-83.655	103.798	-0.239	-0.276
-82.640	-90.389	-0.176	0.050
-81.626	218.753	-0.108	-0.169
-80.611	28.394	0.088	-0.073
-79.597	-200.000	0.001	0.107
-78.582	128.968	0.191	-0.240
-77.567	800.000	0.036	-0.121
-76.553	800.000	0.083	-0.284
-75.538	50.064	0.130	-0.121
-74.524	-82.399	-0.202	-0.065
-73.509	638.028	0.066	0.164
-72.494	-124.921	-0.072	-0.011
-71.480	-3.805	0.213	0.145
-70.465	-77.957	-0.188	0.064
-69.451	291.208	0.066	-0.118
-68.436	153.281	0.088	-0.119
-67.422	-46.492	0.230	-0.111
-66.407	-142.874	0.316	-0.030
-65.392	-74.717	-0.206	0.073
-64.378	577.679	-0.068	0.164
-63.363	77.947	-0.006	0.006
-62.349	-187.052	0.271	0.004
-61.334	78.257	-0.692	-0.726
-60.319	111.899	0.376	0.446
-59.305	286.545	-0.387	-0.686
-58.290	198.887	0.485	0.729
-57.276	685.455	0.710	1.819
-56.261	-200.000	102.748	585.433
-55.246	549.545	1434.905	3376.563
-54.232	186.253	2631.530	3843.221
-53.217	108.531	2280.543	2672.917
-52.203	39.733	1896.950	1670.450
-51.188	33.768	1685.493	1439.131
-50.173	31.249	1641.713	1383.070
-49.159	49.344	1693.132	1562.943
-48.144	50.391	1709.322	1585.704
-47.130	33.379	1668.075	1421.115
-46.115	30.776	1653.649	1389.372
-45.100	30.574	1649.395	1384.241
-44.086	30.577	1646.151	1381.484
-43.071	30.570	1643.395	1379.065
-42.057	30.537	1640.794	1376.585
-41.042	30.546	1639.260	1375.312
-40.027	30.496	1637.536	1373.440
-39.013	30.507	1635.639	1371.871
-37.998	30.542	1633.817	1370.553
-36.984	30.481	1632.878	1369.260
-35.969	30.644	1631.218	1369.009
-34.954	30.726	1629.518	1368.131
-33.940	30.651	1627.725	1366.024
-32.925	30.500	1626.459	1363.798
-31.911	30.634	1624.592	1363.157
-30.896	30.590	1623.011	1361.458
-29.881	30.621	1621.088	1360.014
-28.867	30.645	1619.616	1358.903
-27.852	30.666	1617.727	1357.415
-26.838	30.586	1617.038	1356.200
-25.823	30.610	1615.461	1355.003
-24.809	30.668	1613.774	1353.958
-23.794	30.564	1612.427	1352.012
-22.779	30.602	1611.464	1351.431
-21.765	30.629	1609.213	1349.686
-20.750	30.685	1607.737	1348.801
-19.736	30.643	1606.152	1347.114
-18.721	30.675	1605.065	1346.375
-17.706	30.697	1603.127	1344.860
-16.692	30.565	1602.335	1343.184
-15.677	30.638	1600.545	1342.157
-14.663	30.649	1599.207	1341.064
-13.648	30.746	1597.796	1340.529
-12.633	30.642	1596.542	1338.670
-11.619	30.640	1594.659	1337.024
-10.604	30.695	1593.084	1336.049
-9.590	30.722	1591.759	1335.078
-8.575	30.626	1590.646	1333.403
-7.560	30.746	1589.303	1333.082
-6.546	30.628	1588.744	1331.717
-5.531	30.639	1587.253	1330.491
-4.517	30.625	1586.219	1329.471
-3.502	30.699	1584.703	1328.678
-2.487	30.647	1583.409	1327.166
-1.473	30.340	1571.603	1315.046
-0.458	27.716	1551.896	1280.121
0.556	23.398	1553.471	1248.256
1.571	21.156	1578.393	1252.102
2.586	20.741	1591.341	1259.264
3.600	18.581	1537.993	1201.824
4.615	11.480	1431.388	1071.954
5.629	5.725	1370.879	990.268
6.644	4.957	1363.326	979.897
7.659	4.792	1362.167	977.941
8.673	4.704	1361.337	976.709
9.688	4.828	1358.686	975.497
10.702	4.661	1356.695	972.934
11.717	7.274	1361.376	992.590
12.731	14.274	1374.018	1045.832
13.746	18.741	1381.065	1079.248
14.761	18.725	1379.984	1078.206
15.775	17.844	1377.098	1070.330
16.790	16.693	1374.518	1061.020
17.804	15.973	1371.904	1054.404
18.819	15.527	1370.793	1050.665
19.834	15.362	1369.333	1048.426
20.848	15.088	1368.303	1045.835
21.863	14.830	1366.930	1043.079
22.877	14.789	1365.644	1041.751
23.892	14.656	1365.129	1040.439
24.907	14.649	1364.194	1039.589
25.921	14.703	1363.182	1039.062
26.936	14.747	1362.499	1038.720
27.950	14.746	1361.424	1037.803
28.965	14.741	1360.590	1037.048
29.980	14.984	1358.902	1037.173
30.994	14.942	1358.219	1036.302
32.009	14.942	1357.102	1035.356
33.023	14.933	1355.482	1033.974
34.038	14.908	1354.227	1032.771
35.053	14.796	1352.995	1031.048
36.067	14.835	1351.660	1030.180
37.082	14.872	1350.640	1029.542
38.096	14.905	1350.625	1029.639
39.111	14.920	1349.673	1028.917
40.126	14.851	1348.408	1027.436
41.140	14.692	1347.734	1025.857
42.155	14.601	1347.280	1024.862
43.169	14.619	1346.943	1024.627
44.184	14.597	1346.625	1024.154
45.199	14.681	1345.601	1023.804
46.213	14.721	1345.382	1023.791
47.228	14.697	1345.260	1023.457
48.242	14.781	1343.823	1022.791
49.257	14.782	1342.244	1021.504
50.271	14.867	1340.726	1020.776
51.286	14.802	1339.629	1019.457
52.301	14.743	1338.121	1017.860
53.315	14.685	1337.076	1016.620
54.330	14.625	1336.197	1015.494
55.344	14.596	1335.213	1014.482
56.359	14.761	1333.571	1014.147
57.374	14.623	1333.185	1012.928
58.388	14.578	1332.277	1011.871
59.403	14.540	1331.864	1011.240
60.417	14.590	1330.954	1010.762
61.432	14.543	1329.877	1009.569
62.447	14.469	1329.451	1008.707
63.461	14.477	1328.189	1007.708
64.476	14.515	1327.257	1007.144
65.490	14.454	1325.983	1005.724
66.505	14.443	1324.705	1004.595
67.520	14.498	1323.252	1003.736
68.534	14.557	1322.142	1003.161
69.549	14.500	1321.165	1001.989
70.563	14.486	1320.231	1001.104
71.578	14.485	1319.150	1000.193
72.593	14.328	1318.003	998.292
73.607	14.363	1317.385	997.948
74.622	14.306	1316.805	997.078
75.636	14.392	1315.738	996.699
76.651	14.329	1314.941	995.626
77.666	14.302	1315.216	995.586
78.680	14.377	1314.206	995.182
79.695	14.463	1313.467	995.045
80.709	14.497	1312.637	994.534
81.724	14.501	1312.354	994.257
82.739	14.709	1310.517	994.012
83.753	14.674	1310.328	993.571
84.768	14.735	1309.557	993.261
85.782	14.845	1307.725	992.441
86.797	14.723	1306.660	990.818
87.812	14.761	1305.908	990.385
88.826	14.730	1305.111	989.513
89.841	14.772	1303.649	988.565
90.855	14.856	1302.821	988.348
91.870	14.864	1301.711	987.463
92.884	14.929	1300.601	986.918
93.899	14.858	1300.686	986.475
94.914	14.866	1299.330	985.407
95.928	14.994	1298.403	985.373
96.943	14.934	1297.460	984.215
97.957	14.833	1296.600	982.879
98.972	14.860	1295.438	982.070
99.987	14.920	1294.476	981.607
101.001	14.804	1293.704	980.256
102.016	14.797	1292.678	979.352
103.030	14.886	1291.352	978.782
104.045	14.833	1290.636	977.842
105.060	14.850	1288.848	976.500
106.074	14.660	1288.048	974.699
107.089	14.536	1286.452	972.681
108.103	14.468	1285.603	971.558
109.118	14.476	1284.416	970.618
110.133	14.507	1283.216	969.804
111.147	14.496	1281.631	968.461
112.162	14.515	1280.638	967.735
113.176	14.591	1279.082	966.916
114.191	14.609	1278.742	966.673
115.206	14.731	1277.097	966.052
116.220	14.612	1275.969	964.425
117.235	14.602	1275.072	963.605
118.249	14.639	1273.673	962.672
119.264	14.623	1272.963	961.963
120.279	14.587	1272.062	960.987
121.293	14.537	1271.204	959.965
122.308	14.559	1270.302	959.330
123.322	14.552	1268.753	958.035
124.337	14.620	1267.093	957.085
125.352	14.584	1266.563	956.392
126.366	14.570	1265.264	955.247
127.381	14.562	1264.469	954.517
128.395	14.429	1263.988	953.308
129.410	14.579	1262.591	953.029
130.424	14.629	1261.796	952.630
131.439	14.671	1260.645	951.912
132.454	14.600	1260.011	950.946
133.468	14.639	1258.787	950.159
134.483	14.600	1258.347	949.523
135.497	14.682	1257.534	949.293
136.512	14.716	1255.671	947.993
137.527	14.648	1254.175	946.394
138.541	14.720	1252.995	945.829
139.556	14.665	1251.938	944.635
140.570	14.851	1251.003	944.897
141.585	14.869	1250.128	944.258
142.600	14.833	1248.676	942.873
143.614	14.801	1248.329	942.346
144.629	15.027	1246.321	942.022
145.643	14.970	1245.593	941.068
146.658	14.913	1244.276	939.667
147.673	14.817	1243.369	938.357
148.687	14.857	1241.458	937.059
149.702	14.648	1240.357	934.972
150.716	14.654	1239.425	934.220
151.731	14.667	1238.726	933.684
152.746	14.815	1237.219	933.292
153.760	14.876	1235.891	932.551
154.775	14.874	1234.754	931.597
155.789	14.999	1233.612	931.352
156.804	15.018	1232.686	930.672
157.819	14.887	1232.029	929.367
158.833	15.032	1230.901	929.238
159.848	15.136	1229.698	928.828
160.862	15.052	1229.060	927.797
161.877	14.913	1227.879	926.053
162.892	14.929	1226.649	925.131
163.906	14.929	1225.663	924.308
164.921	14.854	1224.867	923.213
165.935	14.949	1223.943	922.959
166.950	15.038	1223.324	922.898
167.964	14.975	1222.791	922.068
168.979	14.957	1221.869	921.192
169.994	14.939	1221.422	920.672
171.008	15.012	1220.803	920.530
172.023	15.171	1219.172	920.089
173.037	15.119	1218.824	919.458
174.052	15.109	1218.009	918.710
175.067	15.067	1216.848	917.520
176.081	15.012	1215.850	916.386
177.096	14.971	1215.055	915.483
178.110	14.986	1214.291	914.907
179.125	14.972	1212.976	913.758
180.140	14.931	1211.626	912.438
181.154	15.047	1210.545	912.177
182.169	15.091	1209.333	911.420
183.183	15.087	1208.239	910.496
184.198	15.124	1207.298	909.906
185.213	15.161	1205.932	908.998
186.227	15.287	1204.821	908.764
187.242	15.315	1203.844	908.097
188.256	15.327	1202.771	907.272
189.271	15.366	1201.453	906.407
190.286	15.187	1200.667	904.770
191.300	14.996	1199.523	902.795
192.315	14.960	1198.959	902.096
193.329	14.921	1198.626	901.554
194.344	14.945	1198.360	901.407
195.359	15.214	1197.688	902.270
196.373	15.200	1196.943	901.555
197.388	15.299	1196.178	901.428
198.402	15.504	1195.765	902.140
199.417	15.513	1195.318	901.770
200.432	15.528	1194.753	901.344
201.446	15.527	1194.014	900.702
202.461	15.665	1192.802	900.447
203.475	15.576	1192.052	899.327
204.490	15.493	1190.853	897.900
205.504	15.349	1189.375	895.933
206.519	15.469	1188.308	895.692
207.534	15.337	1187.434	894.253
208.548	15.411	1186.215	893.646
209.563	15.379	1185.482	892.843
210.577	15.393	1184.804	892.329
211.592	15.556	1183.919	892.450
212.607	15.563	1183.085	891.781
213.621	15.595	1182.032	891.075
214.636	15.550	1181.319	890.225
215.650	15.628	1180.262	889.758
216.665	15.680	1179.500	889.383
217.680	15.673	1178.799	888.736
218.694	15.721	1177.893	888.232
219.709	15.807	1176.851	887.822
220.723	15.764	1176.516	887.262
221.738	15.764	1175.602	886.493
222.753	15.777	1174.842	885.908
223.767	15.813	1173.895	885.305
224.782	15.879	1173.451	885.239
225.796	15.978	1172.712	885.127
226.811	15.761	1172.331	883.622
227.826	15.727	1171.359	882.630
228.840	15.804	1170.305	882.163
229.855	15.792	1169.714	881.578
230.869	15.740	1169.179	880.821
231.884	15.704	1168.006	879.670
232.899	15.595	1167.711	878.804
233.913	15.531	1167.048	877.889
234.928	15.602	1166.140	877.503
235.942	15.773	1164.949	877.419
236.957	15.694	1164.439	876.544
237.972	15.723	1163.398	875.836
238.986	15.682	1163.213	875.404
240.001	15.791	1162.421	875.296
241.015	15.730	1161.709	874.369
242.030	15.807	1160.784	873.993
243.045	15.878	1159.964	873.669
244.059	15.930	1159.268	873.338
245.074	15.857	1158.292	872.147
246.088	15.965	1157.249	871.843
247.103	15.956	1156.767	871.357
248.117	16.104	1156.204	871.620
249.132	16.102	1156.006	871.381
250.147	16.174	1154.515	870.555
251.161	16.246	1154.457	870.802
252.176	16.307	1153.769	870.524
253.190	16.360	1153.005	870.142
254.205	16.427	1152.439	869.981
255.220	16.346	1152.312	869.395
256.234	16.432	1151.159	868.886
257.249	16.426	1150.411	868.216
258.263	16.385	1149.962	867.590
259.278	16.378	1149.321	866.993
260.293	16.389	1148.616	866.440
261.307	16.429	1148.124	866.201
262.322	16.461	1147.363	865.710
263.336	16.502	1146.766	865.393
264.351	16.483	1146.307	864.873
265.366	16.607	1145.278	864.653
266.380	16.506	1144.602	863.552
267.395	16.642	1143.425	863.283
268.409	16.472	1142.950	861.982
269.424	16.565	1142.237	861.841
270.439	16.517	1141.499	860.963
271.453	16.573	1140.709	860.574
272.468	16.443	1139.857	859.193
273.482	16.487	1138.864	858.595
274.497	16.478	1138.568	858.249
275.512	16.540	1138.019	858.071
276.526	16.453	1137.600	857.242
277.541	16.443	1136.623	856.380
278.555	16.504	1135.863	856.041
279.570	16.616	1135.387	856.170
280.585	16.704	1134.562	855.917
281.599	16.652	1133.219	854.569
282.614	16.697	1131.781	853.634
283.628	16.617	1131.076	852.623
284.643	16.664	1130.178	852.107
285.657	16.691	1129.508	851.664
286.672	16.612	1128.678	850.567
287.687	16.802	1127.548	850.592
288.701	16.773	1127.170	850.088
289.716	16.651	1126.439	848.846
290.730	16.578	1125.988	848.064
291.745	16.777	1124.912	848.179
292.760	16.720	1124.454	847.470
293.774	16.917	1123.645	847.774
294.789	16.934	1123.119	847.387
295.803	16.861	1123.084	846.919
296.818	16.798	1121.832	845.584
297.833	16.837	1121.010	845.084
298.847	16.840	1120.272	844.468
299.862	16.837	1119.442	843.755
300.876	16.873	1118.707	843.306
301.891	16.949	1118.126	843.172
302.906	16.987	1117.365	842.712
303.920	17.087	1116.746	842.668
304.935	17.015	1116.417	841.986
305.949	17.139	1115.338	841.710
306.964	17.117	1115.030	841.295
307.979	17.057	1114.332	840.398
308.993	17.080	1113.686	839.952
310.008	17.200	1112.693	839.722
311.022	17.232	1111.701	839.055
312.037	17.183	1111.077	838.266
313.052	17.112	1110.254	837.222
314.066	16.913	1109.570	835.655
315.081	16.958	1108.631	835.094
316.095	17.055	1107.534	834.669
317.110	17.036	1106.872	834.003
318.125	16.984	1106.411	833.329
319.139	17.015	1105.794	832.939
320.154	17.051	1105.164	832.568
321.168	17.003	1104.651	831.871
322.183	16.979	1104.068	831.244
323.197	17.083	1103.606	831.332
324.212	17.158	1102.643	830.897
325.227	17.165	1102.206	830.528
326.241	17.273	1101.774	830.659
327.256	17.165	1100.682	829.236
328.270	17.116	1100.025	828.428
329.285	17.077	1098.639	827.119
330.300	17.193	1097.864	827.028
331.314	17.085	1097.215	825.940
332.329	17.240	1095.864	825.605
333.343	17.295	1095.085	825.211
334.358	17.348	1094.275	824.785
335.373	17.278	1093.732	823.966
336.387	17.418	1092.670	823.769
337.402	17.341	1092.368	823.095
338.416	17.351	1091.527	822.439
339.431	17.452	1091.132	822.555
340.446	17.538	1090.602	822.498
341.460	17.583	1089.658	821.930
342.475	17.606	1089.080	821.530
343.489	17.676	1088.032	821.009
344.504	17.653	1087.406	820.352
345.519	17.608	1086.534	819.406
346.533	17.689	1085.607	819.020
347.548	17.704	1084.929	818.508
348.562	17.808	1083.845	818.116
349.577	17.644	1083.442	816.954
350.592	17.655	1082.537	816.251
351.606	17.673	1081.364	815.382
352.621	17.544	1080.948	814.381
353.635	17.514	1080.296	813.672
354.650	17.645	1079.563	813.675
355.665	17.488	1079.421	812.747
356.679	17.545	1078.807	812.483
357.694	17.609	1078.113	812.197
358.708	17.741	1077.020	811.928
359.723	17.672	1076.826	811.381
360.738	17.677	1076.268	810.913
361.752	17.672	1075.662	810.363
362.767	17.620	1075.062	809.592
363.781	17.738	1074.245	809.463
364.796	17.827	1073.772	809.459
365.810	17.891	1073.051	809.147
366.825	18.042	1072.405	809.301
367.840	18.046	1071.871	808.845
368.854	18.168	1071.286	808.912
369.869	18.060	1070.530	807.756
370.883	18.071	1069.666	807.088
371.898	17.979	1069.007	806.081
372.913	18.049	1068.200	805.732
373.927	18.045	1067.887	805.406
374.942	18.125	1067.394	805.343
375.956	18.040	1066.869	804.474
376.971	17.967	1066.691	803.925
377.986	18.119	1065.678	803.805
379.000	18.211	1064.762	803.474
380.015	18.244	1064.904	803.668
381.029	18.154	1064.451	802.830
382.044	18.131	1063.557	801.978
383.059	18.097	1063.114	801.412
384.073	18.199	1061.898	800.904
385.088	18.261	1060.704	800.222
386.102	18.262	1059.789	799.466
387.117	18.221	1058.795	798.453
388.132	18.198	1058.162	797.796
389.146	18.160	1057.156	796.792
390.161	18.235	1056.457	796.545
391.175	18.261	1055.774	796.079
392.190	18.235	1055.112	795.388
393.205	18.395	1054.329	795.469
394.219	18.322	1053.932	794.763
395.234	18.262	1052.815	793.570
396.248	18.292	1051.445	792.605
397.263	18.224	1050.775	791.717
398.278	18.225	1050.289	791.288
399.292	18.282	1049.320	790.747
400.307	18.139	1048.361	789.298
401.321	18.143	1048.503	789.354
402.336	18.221	1047.308	788.741
403.350	18.183	1046.801	788.116
404.365	18.143	1046.107	787.339
405.380	18.349	1045.421	787.703
406.394	18.291	1044.657	786.790
407.409	18.425	1043.800	786.690
408.423	18.586	1042.993	786.752
409.438	18.515	1042.470	785.961
410.453	18.648	1041.985	786.134
411.467	18.710	1041.203	785.758
412.482	18.596	1040.610	784.718
413.496	18.753	1039.940	784.863
414.511	18.860	1039.123	784.665
415.526	18.785	1039.095	784.234
416.540	18.760	1038.764	783.802
417.555	18.845	1038.070	783.594
418.569	18.761	1037.278	782.546
419.584	18.701	1037.323	782.234
420.599	18.789	1036.624	782.041
421.613	150.912	1402.177	1796.245
422.628	137.871	1455.413	1796.326
