DTS Sentinel unit serial number:	SN413079Multiplexer serial number:	ORYXHardware model number:	OX4-SRSoftware version number:	ORYX F/W v4.00 Oryx Data Collector v3.7.2.0data status	okinstallation	princeton_trtdifferential loss correction	single-endedforward channel	channel 2reverse channel	N/Adate	2019/09/11time	23:09:11forward acquisition time	60.00reverse acquisition time	0.00gamma	496.2192k internal	0.2325k external	0.2325temperature offset calibration	1.0081default loss term (dB/km)	0.3790temperature slope calibration	1.0000multiplexer offset coefficient	1.0000multiplexer slope coefficient	1.0000fibre end	0.00T internal ref (°C)	34.50T ext. ref 1 (°C)	1.86T ext. ref 2 (°C)	28.93length (m)	temperature (°C)	Stokes	anti-Stokes-747.200	-117.264	0.086	-0.016
-746.185	-28.486	-0.108	-0.063
-745.171	-19.909	0.409	-0.255
-744.156	-200.000	-0.028	-0.153
-743.142	800.000	0.109	0.384
-742.127	307.045	0.083	0.156
-741.112	-200.000	0.012	0.075
-740.098	-130.324	0.259	-0.035
-739.083	-28.663	0.131	-0.076
-738.069	-114.968	-0.301	-0.058
-737.054	57.928	0.194	-0.192
-736.039	118.898	-0.145	-0.180
-735.025	-39.681	-0.047	-0.025
-734.010	83.722	0.089	0.098
-732.996	274.474	0.107	0.190
-731.981	-200.000	-0.005	-0.174
-730.966	-126.559	-0.110	0.016
-729.952	-95.409	-0.226	-0.061
-728.937	-139.273	-0.383	-0.042
-727.923	-150.222	0.135	0.011
-726.908	800.000	0.077	0.224
-725.894	20.028	0.160	-0.130
-724.879	-200.000	-0.029	-0.224
-723.864	207.968	-0.120	0.189
-722.850	-85.381	0.242	-0.076
-721.835	-84.550	0.071	0.023
-720.821	410.007	0.061	-0.130
-719.806	-90.087	0.177	0.052
-718.791	-80.255	0.222	-0.075
-717.777	678.077	0.075	0.197
-716.762	53.792	-0.210	-0.204
-715.748	431.104	-0.023	-0.049
-714.733	-130.316	0.296	-0.041
-713.718	-86.793	-0.280	0.086
-712.704	-103.225	-0.158	-0.038
-711.689	-55.439	0.298	0.135
-710.675	-200.000	0.024	0.355
-709.660	-200.000	0.000	-0.170
-708.645	388.530	-0.129	0.269
-707.631	800.000	-0.091	-0.313
-706.616	-158.238	-0.112	0.007
-705.602	-132.507	-0.218	0.028
-704.587	-200.000	-0.028	-0.289
-703.572	-200.000	-0.010	0.085
-702.558	-150.757	-0.193	-0.015
-701.543	-200.000	-0.026	-0.233
-700.529	-200.000	-0.035	-0.299
-699.514	387.339	-0.086	0.179
-698.499	-121.246	-0.148	0.025
-697.485	-200.000	0.011	-0.124
-696.470	-200.000	-0.024	-0.115
-695.456	-147.968	0.398	0.033
-694.441	-119.278	-0.263	0.046
-693.426	-31.386	0.384	-0.218
-692.412	-200.000	-0.077	-0.379
-691.397	223.849	0.025	0.041
-690.383	77.424	-0.228	0.245
-689.368	-82.493	0.190	0.062
-688.354	-200.000	-0.055	-0.263
-687.339	-200.000	-0.002	-0.095
-686.324	-200.000	-0.085	-0.473
-685.310	-103.098	-0.320	0.076
-684.295	752.949	0.149	0.404
-683.281	-59.575	-0.134	-0.058
-682.266	-61.763	0.184	-0.077
-681.251	800.000	0.072	-0.213
-680.237	800.000	0.123	0.382
-679.222	-155.574	0.075	0.005
-678.208	-17.882	0.225	-0.142
-677.193	204.459	-0.296	0.463
-676.178	-62.646	0.182	-0.076
-675.164	-200.000	-0.026	0.130
-674.149	-149.426	0.441	0.035
-673.135	-81.701	-0.051	-0.017
-672.120	-33.432	0.129	0.072
-671.105	204.817	0.214	-0.334
-670.091	24.089	0.127	-0.106
-669.076	150.281	-0.047	-0.065
-668.062	800.000	0.051	0.168
-667.047	32.542	-0.211	0.184
-666.032	-39.546	-0.078	-0.041
-665.018	-200.000	-0.048	0.226
-664.003	-200.000	-0.005	0.153
-662.989	-156.830	-0.215	0.013
-661.974	19.459	0.053	0.043
-660.959	226.328	-0.033	0.054
-659.945	158.089	0.095	-0.132
-658.930	800.000	-0.023	0.075
-657.916	-200.000	0.040	0.193
-656.901	19.413	0.111	-0.090
-655.886	102.514	-0.210	-0.248
-654.872	800.000	0.031	0.094
-653.857	183.989	0.106	0.157
-652.843	-135.978	-0.273	-0.032
-651.828	199.679	0.120	0.185
-650.814	-118.037	0.142	-0.026
-649.799	-79.741	0.250	0.085
-648.784	-62.553	0.072	-0.030
-647.770	-48.516	0.464	0.224
-646.755	49.250	-0.223	-0.211
-645.741	-60.830	-0.113	-0.048
-644.726	88.747	-0.075	0.083
-643.711	-53.037	-0.138	-0.064
-642.697	21.409	-0.023	-0.019
-641.682	-118.547	-0.171	-0.030
-640.668	511.871	-0.105	0.245
-639.653	-200.000	0.004	-0.135
-638.638	90.003	-0.273	-0.307
-637.624	375.186	0.108	-0.221
-636.609	307.556	0.121	0.227
-635.595	268.624	-0.186	0.329
-634.580	185.354	-0.064	0.095
-633.565	-154.604	0.034	-0.002
-632.551	31.219	-0.184	-0.158
-631.536	800.000	-0.115	-0.352
-630.522	-200.000	-0.006	-0.195
-629.507	-115.345	0.115	0.022
-628.492	-25.805	0.371	0.220
-627.478	-200.000	-0.028	0.130
-626.463	-16.860	0.176	-0.112
-625.449	40.280	0.202	0.182
-624.434	67.993	0.173	0.178
-623.419	-200.000	-0.016	0.173
-622.405	-13.660	-0.186	-0.121
-621.390	209.480	-0.031	-0.048
-620.376	21.196	0.353	0.288
-619.361	-137.158	-0.154	0.018
-618.346	800.000	0.015	0.058
-617.332	330.729	-0.103	0.199
-616.317	-77.769	-0.250	-0.087
-615.303	800.000	-0.062	0.252
-614.288	174.779	-0.090	0.131
-613.273	533.647	-0.171	-0.408
-612.259	-110.152	0.131	-0.027
-611.244	193.513	-0.112	-0.170
-610.230	15.057	0.046	-0.036
-609.215	205.343	0.139	-0.216
-608.201	152.255	0.262	-0.359
-607.186	-36.084	0.279	-0.151
-606.171	99.237	-0.053	0.062
-605.157	-120.776	-0.092	-0.016
-604.142	-57.673	-0.329	-0.144
-603.128	-200.000	-0.009	-0.167
-602.113	800.000	-0.024	0.085
-601.098	-193.544	0.250	0.002
-600.084	-149.386	0.160	0.013
-599.069	-22.216	-0.344	-0.209
-598.055	-34.633	-0.167	-0.092
-597.040	-128.715	-0.089	-0.013
-596.025	-200.000	0.063	-0.356
-595.011	-200.000	0.025	-0.394
-593.996	-200.000	-0.002	-0.053
-592.982	-27.350	0.147	0.086
-591.967	-138.273	0.191	0.021
-590.952	-200.000	0.060	0.267
-589.938	-5.107	0.187	-0.129
-588.923	374.277	-0.101	0.206
-587.909	800.000	0.044	-0.187
-586.894	424.977	0.067	0.146
-585.879	302.059	0.053	-0.098
-584.865	-55.992	0.321	-0.144
-583.850	14.071	-0.195	-0.152
-582.836	-200.000	-0.001	-0.105
-581.821	-200.000	0.007	0.191
-580.806	491.765	0.077	0.176
-579.792	800.000	0.113	-0.361
-578.777	-108.522	-0.092	-0.020
-577.763	-88.233	-0.115	-0.035
-576.748	72.375	-0.149	0.156
-575.733	37.219	0.104	-0.092
-574.719	246.582	0.045	-0.077
-573.704	370.532	0.029	-0.059
-572.690	800.000	0.036	-0.139
-571.675	25.568	0.203	0.169
-570.661	135.277	-0.224	0.291
-569.646	-66.647	0.102	0.041
-568.631	-200.000	-0.002	-0.215
-567.617	-29.475	-0.113	0.065
-566.602	193.542	0.086	-0.130
-565.588	-200.000	-0.042	-0.227
-564.573	-163.817	0.267	0.013
-563.558	-38.061	0.206	-0.110
-562.544	467.099	0.196	-0.440
-561.529	-81.907	-0.404	0.133
-560.515	-37.878	-0.255	0.136
-559.500	-198.143	0.249	0.001
-558.485	-200.000	-0.088	-0.461
-557.471	141.485	0.117	0.155
-556.456	-147.684	-0.262	0.022
-555.442	283.976	-0.071	0.128
-554.427	21.743	0.206	0.168
-553.412	439.342	0.139	-0.305
-552.398	-111.468	-0.202	-0.041
-551.383	-11.801	0.249	0.164
-550.369	-91.376	0.185	-0.053
-549.354	800.000	0.075	0.299
-548.339	276.450	0.180	0.320
-547.325	503.371	0.079	0.183
-546.310	504.862	-0.082	0.191
-545.296	-117.582	0.111	0.020
-544.281	-183.706	-0.307	-0.005
-543.266	-108.547	-0.128	-0.028
-542.252	166.270	0.054	0.077
-541.237	-200.000	0.036	0.187
-540.223	-57.833	-0.297	0.130
-539.208	-89.693	0.197	0.058
-538.193	7.466	0.134	0.101
-537.179	-198.090	-0.223	0.001
-536.164	-103.418	-0.238	-0.056
-535.150	-98.792	0.275	0.070
-534.135	-182.631	-0.385	-0.007
-533.121	699.456	-0.075	-0.199
-532.106	-84.264	-0.190	0.060
-531.091	-17.110	0.400	0.253
-530.077	-200.000	-0.015	-0.202
-529.062	-70.289	0.325	-0.123
-528.048	-176.449	-0.214	-0.006
-527.033	800.000	-0.080	0.254
-526.018	-12.800	-0.138	0.090
-525.004	210.825	0.069	-0.109
-523.989	-200.000	0.022	0.129
-522.975	123.214	-0.313	-0.392
-521.960	422.414	0.090	-0.194
-520.945	-200.000	-0.012	0.071
-519.931	-125.035	0.127	0.020
-518.916	3.960	0.147	0.107
-517.902	237.787	-0.060	-0.100
-516.887	155.279	-0.163	-0.224
-515.872	-60.972	0.224	-0.095
-514.858	118.983	0.106	-0.131
-513.843	369.144	0.033	0.067
-512.829	-91.898	-0.386	-0.109
-511.814	44.866	0.228	0.210
-510.799	128.219	0.057	-0.073
-509.785	487.698	-0.060	-0.136
-508.770	-200.000	-0.008	0.101
-507.756	-200.000	-0.019	0.162
-506.741	76.656	0.239	0.253
-505.726	-126.271	0.309	-0.046
-504.712	103.428	0.087	0.102
-503.697	-112.589	-0.215	0.043
-502.683	127.724	-0.099	0.126
-501.668	-142.544	-0.281	0.028
-500.653	-91.880	0.242	0.069
-499.639	-200.000	0.036	0.304
-498.624	-72.249	-0.064	0.024
-497.610	-99.728	0.200	0.050
-496.595	-163.012	-0.367	0.018
-495.581	368.921	0.035	-0.071
-494.566	800.000	-0.052	-0.156
-493.551	-128.452	-0.142	-0.020
-492.537	-200.000	0.012	-0.074
-491.522	-131.893	-0.329	-0.043
-490.508	272.346	-0.041	-0.073
-489.493	-107.747	0.175	0.038
-488.478	98.427	-0.072	0.083
-487.464	39.605	-0.057	-0.051
-486.449	-109.020	-0.399	-0.085
-485.435	-200.000	0.030	-0.144
-484.420	-105.537	0.422	0.096
-483.405	800.000	0.070	0.232
-482.391	72.867	0.122	0.127
-481.376	183.359	0.107	0.159
-480.362	-120.427	-0.288	-0.049
-479.347	-102.370	0.142	0.034
-478.332	-117.477	0.108	-0.020
-477.318	65.448	-0.180	-0.182
-476.303	298.416	-0.099	-0.182
-475.289	138.356	0.226	-0.295
-474.274	200.599	-0.096	-0.147
-473.259	65.796	-0.247	0.250
-472.245	369.755	-0.112	0.227
-471.230	84.359	-0.029	-0.032
-470.216	292.955	0.148	-0.270
-469.201	216.146	0.068	0.107
-468.186	-32.501	-0.113	0.063
-467.172	-200.000	0.003	0.043
-466.157	243.242	0.122	0.204
-465.143	-93.867	0.123	-0.034
-464.128	-200.000	-0.018	-0.099
-463.113	92.144	0.237	0.267
-462.099	346.899	-0.030	0.060
-461.084	800.000	0.047	0.146
-460.070	-200.000	0.011	0.346
-459.055	82.234	0.208	-0.226
-458.040	-11.014	0.374	-0.246
-457.026	800.000	0.088	-0.265
-456.011	800.000	-0.018	0.075
-454.997	-200.000	0.018	0.313
-453.982	79.052	-0.150	-0.161
-452.968	158.376	0.182	-0.251
-451.953	-200.000	0.000	0.086
-450.938	119.807	-0.056	-0.069
-449.924	-77.455	-0.161	0.056
-448.909	181.635	-0.116	0.171
-447.895	800.000	-0.199	-0.655
-446.880	439.101	-0.108	-0.236
-445.865	-98.629	-0.180	-0.046
-444.851	-200.000	-0.001	0.077
-443.836	251.470	0.182	0.308
-442.822	118.354	0.157	0.193
-441.807	-126.689	-0.133	0.020
-440.792	561.552	0.114	0.275
-439.778	175.439	-0.066	-0.096
-438.763	-200.000	0.014	-0.196
-437.749	-48.980	0.223	-0.106
-436.734	-112.260	-0.149	-0.030
-435.719	-200.000	0.073	0.395
-434.705	723.974	0.078	-0.207
-433.690	203.354	0.107	-0.166
-432.676	25.442	-0.278	0.230
-431.661	-200.000	-0.018	-0.086
-430.646	131.898	0.141	-0.181
-429.632	-200.000	0.163	0.001
-428.617	-79.726	-0.336	-0.113
-427.603	-53.360	0.243	-0.111
-426.588	-97.768	0.111	0.029
-425.573	-200.000	0.001	-0.030
-424.559	-62.588	-0.322	0.133
-423.544	-121.708	0.176	-0.029
-422.530	-200.000	0.077	-0.467
-421.515	95.750	0.316	0.360
-420.500	800.000	-0.058	-0.212
-419.486	-82.324	-0.194	0.063
-418.471	488.682	-0.043	-0.097
-417.457	175.249	0.101	-0.147
-416.442	-200.000	-0.008	-0.163
-415.428	-200.000	-0.034	-0.220
-414.413	466.193	-0.177	-0.396
-413.398	-174.958	-0.095	0.003
-412.384	276.319	-0.161	0.285
-411.369	-50.477	0.076	0.036
-410.355	310.850	0.035	0.065
-409.340	-59.288	-0.047	0.020
-408.325	1.169	-0.253	0.181
-407.311	-125.530	0.173	-0.026
-406.296	88.768	-0.215	-0.238
-405.282	370.469	-0.102	0.206
-404.267	6.675	0.174	-0.129
-403.252	83.958	-0.142	-0.154
-402.238	800.000	0.091	-0.391
-401.223	800.000	-0.061	-0.189
-400.209	-111.803	-0.390	-0.079
-399.194	-45.603	0.069	0.034
-398.179	-7.944	0.386	-0.259
-397.165	-71.957	-0.278	-0.103
-396.150	-80.024	-0.263	-0.088
-395.136	-163.241	0.121	0.006
-394.121	800.000	-0.070	-0.214
-393.106	-173.080	-0.499	-0.015
-392.092	-155.741	-0.344	0.022
-391.077	-162.848	-0.308	0.015
-390.063	-200.000	-0.036	-0.260
-389.048	-200.000	-0.001	-0.101
-388.033	-31.926	-0.140	0.078
-387.019	292.358	-0.107	0.195
-386.004	11.721	0.282	-0.216
-384.990	155.847	-0.122	-0.167
-383.975	-30.920	-0.188	-0.106
-382.960	-200.000	-0.019	-0.108
-381.946	-145.506	-0.115	0.010
-380.931	775.019	0.064	0.173
-379.917	7.866	0.092	0.068
-378.902	-200.000	-0.045	-0.343
-377.888	-116.053	-0.108	-0.020
-376.873	-200.000	0.038	-0.406
-375.858	-200.000	0.036	-0.280
-374.844	55.679	-0.244	0.236
-373.829	800.000	0.061	0.258
-372.815	-13.873	0.143	-0.092
-371.800	-200.000	0.053	0.366
-370.785	800.000	0.034	0.100
-369.771	738.402	0.137	-0.365
-368.756	486.680	0.057	0.129
-367.742	271.276	0.063	-0.111
-366.727	800.000	-0.087	-0.252
-365.712	800.000	-0.052	0.202
-364.698	403.154	0.037	0.078
-363.683	-30.260	0.101	0.057
-362.669	-54.578	0.311	0.140
-361.654	800.000	0.059	-0.179
-360.639	-16.519	0.194	-0.122
-359.625	150.715	-0.076	0.102
-358.610	-200.000	-0.065	0.285
-357.596	-140.374	-0.332	-0.034
-356.581	800.000	-0.052	-0.159
-355.566	-200.000	0.016	-0.128
-354.552	45.964	-0.251	0.231
-353.537	489.793	-0.083	0.189
-352.523	-59.988	0.198	0.084
-351.508	-200.000	0.007	0.161
-350.493	56.856	-0.081	-0.078
-349.479	-92.676	0.057	0.016
-348.464	-152.884	-0.142	-0.010
-347.450	293.481	0.163	0.295
-346.435	51.619	-0.182	0.172
-345.420	1.624	-0.093	0.067
-344.406	-200.000	0.015	0.280
-343.391	800.000	0.022	-0.088
-342.377	-200.000	-0.047	-0.214
-341.362	27.472	0.166	0.139
-340.348	-126.991	-0.293	-0.043
-339.333	560.800	0.077	-0.185
-338.318	-65.714	0.281	-0.112
-337.304	-185.140	-0.082	0.001
-336.289	-87.008	-0.265	-0.080
-335.275	-200.000	0.012	0.216
-334.260	800.000	0.035	-0.096
-333.245	204.933	-0.063	0.097
-332.231	197.202	0.347	-0.526
-331.216	-80.896	-0.312	-0.103
-330.202	-133.785	0.119	-0.015
-329.187	-96.685	-0.196	-0.051
-328.172	-200.000	-0.016	0.106
-327.158	-200.000	-0.027	0.166
-326.143	800.000	-0.053	0.225
-325.129	109.300	0.114	0.135
-324.114	-74.101	-0.107	-0.038
-323.099	-163.494	0.169	0.008
-322.085	22.358	-0.307	0.249
-321.070	-72.117	0.193	0.071
-320.056	-200.000	0.047	0.213
-319.041	635.322	-0.135	0.340
-318.026	-177.322	0.471	0.012
-317.012	416.377	0.060	0.126
-315.997	-173.824	-0.116	-0.003
-314.983	800.000	-0.116	0.377
-313.968	800.000	0.120	-0.344
-312.953	62.121	0.075	-0.074
-311.939	-151.804	-0.240	0.017
-310.924	-51.508	0.291	0.135
-309.910	366.644	0.019	-0.039
-308.895	139.056	-0.161	-0.210
-307.880	-200.000	0.016	0.527
-306.866	-200.000	0.048	0.411
-305.851	55.744	0.228	-0.220
-304.837	-52.160	-0.221	0.102
-303.822	199.044	-0.010	-0.015
-302.807	246.530	-0.132	-0.221
-301.793	-200.000	-0.027	-0.257
-300.778	-46.362	0.085	0.041
-299.764	800.000	-0.088	0.368
-298.749	-200.000	-0.005	-0.170
-297.735	-63.528	0.115	0.047
-296.720	94.872	-0.187	-0.211
-295.705	-84.911	-0.074	0.023
-294.691	101.380	0.125	0.145
-293.676	-95.064	-0.289	0.077
-292.662	-113.370	0.314	0.061
-291.647	-115.937	-0.221	-0.041
-290.632	-22.129	0.237	0.143
-289.618	447.343	0.126	0.274
-288.603	-15.587	0.327	-0.207
-287.589	617.462	-0.048	-0.119
-286.574	-118.958	0.306	-0.053
-285.559	362.577	-0.122	0.243
-284.545	800.000	-0.025	0.080
-283.530	-43.930	-0.232	0.116
-282.516	294.702	0.136	0.246
-281.501	148.958	0.126	0.168
-280.486	-59.349	-0.300	0.128
-279.472	-124.910	-0.246	0.038
-278.457	224.902	0.106	0.169
-277.443	142.344	0.135	0.177
-276.428	-27.530	0.374	-0.215
-275.413	-83.373	-0.118	-0.038
-274.399	215.279	0.136	0.214
-273.384	800.000	-0.087	-0.364
-272.370	-200.000	-0.041	0.238
-271.355	755.943	-0.048	0.128
-270.340	100.665	-0.083	0.095
-269.326	-112.442	0.246	-0.049
-268.311	-200.000	-0.010	-0.194
-267.297	463.536	0.158	-0.350
-266.282	-141.781	-0.193	0.019
-265.267	43.034	-0.093	0.084
-264.253	-200.000	0.020	-0.099
-263.238	-200.000	-0.008	0.191
-262.224	-26.811	0.242	0.140
-261.209	-169.667	-0.422	-0.015
-260.195	800.000	-0.123	-0.519
-259.180	152.026	0.150	-0.203
-258.165	-64.994	-0.054	0.022
-257.151	-13.530	-0.202	0.130
-256.136	184.838	-0.115	-0.169
-255.122	396.015	0.098	-0.203
-254.107	40.362	0.053	-0.048
-253.092	-200.000	-0.050	0.252
-252.078	419.417	0.082	0.173
-251.063	-82.048	-0.132	0.043
-250.049	-20.662	0.262	-0.159
-249.034	131.463	-0.155	-0.198
-248.019	800.000	0.050	0.173
-247.005	-53.602	-0.164	0.074
-245.990	161.562	-0.122	0.169
-244.976	412.483	-0.086	-0.182
-243.961	56.430	-0.168	-0.162
-242.946	-200.000	-0.007	0.162
-241.932	119.895	0.040	0.049
-240.917	-138.763	0.449	0.048
-239.903	-17.780	0.155	-0.096
-238.888	20.062	0.050	-0.040
-237.873	31.273	-0.335	-0.284
-236.859	-38.937	0.075	0.039
-235.844	375.615	0.096	0.193
-234.830	68.038	-0.055	-0.055
-233.815	-30.897	-0.092	-0.052
-232.800	-13.345	0.158	0.101
-231.786	494.819	-0.060	0.136
-230.771	167.719	0.081	0.114
-229.757	800.000	0.072	0.207
-228.742	-200.000	-0.056	-0.248
-227.727	-128.593	0.158	-0.022
-226.713	-99.467	0.204	-0.051
-225.698	-200.000	0.004	0.328
-224.684	80.536	0.017	-0.019
-223.669	-85.965	-0.214	-0.065
-222.655	-150.814	0.042	-0.003
-221.640	70.634	0.064	0.065
-220.625	-55.374	-0.202	-0.090
-219.611	-80.794	0.123	-0.040
-218.596	800.000	-0.116	-0.381
-217.582	800.000	-0.042	0.176
-216.567	800.000	-0.017	-0.064
-215.552	350.323	0.067	0.131
-214.538	-59.127	-0.129	-0.055
-213.523	-136.190	0.147	-0.017
-212.509	-0.966	0.078	0.054
-211.494	165.071	-0.213	-0.297
-210.479	-79.153	0.180	-0.060
-209.465	-82.269	0.188	0.060
-208.450	-200.000	-0.029	-0.284
-207.436	-129.514	-0.229	-0.031
-206.421	800.000	0.138	0.571
-205.406	-96.886	0.305	0.079
-204.392	-200.000	0.053	0.497
-203.377	-200.000	-0.049	-0.288
-202.363	-56.994	-0.204	-0.089
-201.348	-30.935	-0.237	0.132
-200.333	800.000	-0.040	-0.137
-199.319	-200.000	0.009	-0.050
-198.304	384.192	-0.157	0.319
-197.290	-81.291	-0.144	0.047
-196.275	169.908	-0.076	-0.108
-195.260	299.644	-0.211	0.384
-194.246	800.000	-0.077	0.304
-193.231	-41.630	0.163	0.083
-192.217	45.589	0.111	0.101
-191.202	348.263	0.050	-0.097
-190.187	369.090	0.088	0.176
-189.173	-200.000	0.032	0.167
-188.158	-46.871	-0.230	-0.111
-187.144	19.623	-0.149	0.119
-186.129	151.453	-0.168	0.226
-185.114	800.000	0.112	-0.318
-184.100	-200.000	0.031	-0.213
-183.085	-101.160	-0.170	-0.041
-182.071	-200.000	0.011	-0.121
-181.056	114.724	0.097	-0.116
-180.042	-200.000	-0.057	-0.398
-179.027	-23.123	0.144	0.086
-178.012	41.356	0.167	0.149
-176.998	-121.596	0.041	-0.007
-175.983	129.871	0.128	0.161
-174.969	-159.937	0.131	0.007
-173.954	-138.756	0.095	-0.010
-172.939	395.981	0.107	0.221
-171.925	-30.470	-0.184	-0.103
-170.910	-91.512	0.160	-0.045
-169.896	-27.617	0.040	-0.023
-168.881	1.149	0.370	-0.262
-167.866	-184.898	-0.113	0.002
-166.852	-200.000	0.041	0.302
-165.837	-31.525	0.144	-0.080
-164.823	-40.653	0.156	-0.080
-163.808	419.086	-0.037	-0.079
-162.793	108.967	-0.166	0.196
-161.779	370.151	0.109	0.218
-160.764	237.871	0.053	-0.086
-159.750	-200.000	0.046	0.240
-158.735	136.636	0.160	0.206
-157.720	298.624	0.103	0.187
-156.706	158.327	-0.230	-0.315
-155.691	-111.919	0.160	0.032
-154.677	-200.000	-0.027	-0.170
-153.662	-194.642	0.288	-0.002
-152.647	55.901	0.021	-0.020
-151.633	800.000	-0.061	0.191
-150.618	800.000	-0.073	0.201
-149.604	-112.323	-0.143	0.028
-148.589	33.840	-0.111	-0.095
-147.574	-200.000	0.041	-0.342
-146.560	181.280	-0.061	-0.088
-145.545	-200.000	0.064	0.346
-144.531	-58.373	0.200	-0.086
-143.516	-73.192	0.202	-0.073
-142.502	22.660	-0.140	0.113
-141.487	-200.000	-0.003	-0.269
-140.472	146.046	-0.097	0.128
-139.458	-107.397	-0.071	-0.015
-138.443	-76.486	-0.375	-0.130
-137.429	-13.113	0.039	-0.025
-136.414	-82.092	0.359	0.115
-135.399	-200.000	0.017	-0.143
-134.385	-200.000	-0.031	-0.176
-133.370	800.000	0.052	-0.185
-132.356	-32.964	0.193	-0.106
-131.341	454.413	0.104	-0.227
-130.326	-38.119	0.217	0.113
-129.312	-200.000	-0.016	-0.238
-128.297	-140.752	-0.310	0.032
-127.283	-135.226	0.356	-0.042
-126.268	-101.518	-0.190	0.045
-125.253	537.051	-0.091	-0.214
-124.239	-200.000	-0.038	0.229
-123.224	-53.567	-0.092	0.042
-122.210	134.068	-0.106	0.135
-121.195	-148.947	-0.205	0.016
-120.180	800.000	0.081	-0.320
-119.166	-19.589	0.074	0.045
-118.151	-69.697	0.083	-0.031
-117.137	-200.000	0.035	-0.362
-116.122	-113.004	0.166	0.032
-115.107	11.490	0.126	0.095
-114.093	259.305	-0.087	0.147
-113.078	-200.000	-0.012	0.422
-112.064	-42.555	0.107	-0.054
-111.049	-157.111	0.411	-0.025
-110.034	-15.716	0.149	-0.094
-109.020	36.256	0.173	0.150
-108.005	-55.302	-0.321	0.142
-106.991	75.818	0.243	0.253
-105.976	40.486	0.102	-0.091
-104.962	-152.869	0.085	0.006
-103.947	800.000	-0.109	-0.405
-102.932	-200.000	0.004	0.098
-101.918	139.895	0.114	0.148
-100.903	575.713	-0.033	-0.080
-99.889	-88.261	0.258	-0.076
-98.874	283.377	-0.099	0.175
-97.859	455.922	-0.084	-0.183
-96.845	-81.221	0.234	0.076
-95.830	-8.816	0.219	-0.144
-94.816	-26.127	-0.147	0.085
-93.801	800.000	-0.035	0.117
-92.786	-200.000	-0.056	0.491
-91.772	-88.543	0.206	-0.060
-90.757	543.096	-0.068	0.159
-89.743	-200.000	-0.001	0.205
-88.728	223.374	-0.124	-0.196
-87.713	197.975	-0.195	-0.293
-86.699	-19.783	-0.096	0.058
-85.684	-192.718	-0.287	-0.003
-84.670	614.529	-0.093	0.229
-83.655	38.321	-0.050	0.044
-82.640	-26.860	0.096	0.055
-81.626	-29.040	0.208	-0.117
-80.611	-200.000	-0.003	0.248
-79.597	-23.555	0.246	0.145
-78.582	-166.603	-0.167	-0.007
-77.567	1.246	0.228	-0.161
-76.553	-110.006	0.238	-0.049
-75.538	85.088	0.246	0.266
-74.524	-141.015	-0.186	-0.019
-73.509	34.867	-0.118	-0.101
-72.494	29.252	0.179	-0.149
-71.480	-34.440	-0.055	0.030
-70.465	38.539	-0.110	0.097
-69.451	-200.000	0.013	-0.384
-68.436	372.387	-0.180	-0.359
-67.422	-121.936	-0.131	-0.021
-66.407	-55.271	-0.059	-0.026
-65.392	-200.000	-0.018	0.319
-64.378	679.325	0.066	-0.168
-63.363	-185.180	0.219	0.003
-62.349	800.000	0.068	0.243
-61.334	32.420	-0.837	-0.711
-60.319	36.347	0.346	0.300
-59.305	759.057	-0.253	-0.675
-58.290	237.631	0.618	1.008
-57.276	425.650	0.671	1.421
-56.261	-200.000	98.032	591.321
-55.246	565.399	1387.365	3304.596
-54.232	153.883	2595.025	3494.566
-53.217	109.492	2282.147	2685.536
-52.203	44.119	1898.535	1710.179
-51.188	37.819	1688.385	1473.387
-50.173	35.067	1643.696	1414.039
-49.159	53.635	1693.729	1596.595
-48.144	56.737	1710.515	1635.544
-47.130	37.449	1666.760	1451.523
-46.115	34.613	1651.111	1416.824
-45.100	34.425	1646.053	1411.033
-44.086	34.401	1643.651	1408.738
-43.071	34.373	1641.336	1406.492
-42.057	34.344	1638.719	1403.984
-41.042	34.393	1636.653	1402.518
-40.027	34.408	1634.482	1400.714
-39.013	34.318	1633.063	1398.783
-37.998	34.312	1631.673	1397.488
-36.984	34.456	1630.034	1397.088
-35.969	34.501	1628.094	1395.696
-34.954	34.633	1626.333	1395.096
-33.940	34.516	1624.928	1392.980
-32.925	34.423	1623.230	1390.792
-31.911	34.467	1621.691	1389.741
-30.896	34.425	1620.055	1387.975
-29.881	34.412	1617.765	1385.867
-28.867	34.395	1616.607	1384.697
-27.852	34.480	1615.278	1384.118
-26.838	34.528	1613.387	1382.791
-25.823	34.566	1611.332	1381.247
-24.809	34.552	1610.632	1380.493
-23.794	34.464	1609.750	1379.044
-22.779	34.480	1607.997	1377.604
-21.765	34.520	1606.414	1376.486
-20.750	34.527	1604.841	1375.134
-19.736	34.514	1603.583	1373.906
-18.721	34.503	1601.963	1372.386
-17.706	34.581	1600.171	1371.355
-16.692	34.545	1598.274	1369.417
-15.677	34.501	1597.249	1368.168
-14.663	34.555	1595.890	1367.336
-13.648	34.465	1594.640	1365.567
-12.633	34.538	1593.197	1364.799
-11.619	34.686	1590.996	1363.920
-10.604	34.568	1589.907	1362.090
-9.590	34.541	1588.916	1360.988
-8.575	34.606	1587.266	1359.989
-7.560	34.546	1586.297	1358.676
-6.546	34.597	1584.736	1357.648
-5.531	34.539	1583.884	1356.450
-4.517	34.620	1582.607	1355.876
-3.502	34.537	1581.460	1354.257
-2.487	34.679	1580.123	1354.064
-1.473	34.253	1568.613	1341.145
-0.458	31.538	1548.804	1305.246
0.556	28.302	1549.649	1274.896
1.571	25.866	1573.860	1277.452
2.586	25.371	1587.400	1284.787
3.600	22.439	1534.522	1221.574
4.615	12.694	1423.678	1070.199
5.629	3.692	1356.456	963.614
6.644	2.016	1347.573	946.826
7.659	1.858	1346.140	944.756
8.673	1.833	1345.320	943.945
9.688	1.734	1343.468	941.948
10.702	1.516	1340.213	938.239
11.717	5.035	1347.759	965.243
12.731	15.500	1367.088	1044.409
13.746	23.945	1381.159	1107.902
14.761	25.856	1384.286	1122.227
15.775	26.216	1383.285	1123.558
16.790	26.350	1382.992	1124.055
17.804	26.365	1382.158	1123.367
18.819	26.548	1381.966	1124.252
19.834	26.631	1381.591	1124.360
20.848	26.738	1380.888	1124.352
21.863	26.611	1380.334	1123.012
22.877	26.749	1379.093	1122.763
23.892	26.700	1377.873	1121.364
24.907	26.671	1377.337	1120.652
25.921	26.796	1376.081	1120.300
26.936	26.643	1375.321	1118.638
27.950	26.704	1374.628	1118.353
28.965	26.744	1373.013	1117.188
29.980	26.761	1372.014	1116.377
30.994	26.728	1370.373	1114.740
32.009	26.692	1369.579	1113.776
33.023	26.709	1368.725	1113.085
34.038	26.622	1367.633	1111.564
35.053	26.695	1366.054	1110.633
36.067	26.685	1365.437	1109.971
37.082	26.660	1364.517	1108.972
38.096	26.691	1363.525	1108.257
39.111	26.629	1363.129	1107.458
40.126	26.708	1362.251	1107.131
41.140	26.734	1361.267	1106.388
42.155	26.740	1361.183	1106.261
43.169	26.622	1361.707	1105.871
44.184	26.602	1361.133	1105.183
45.199	26.683	1360.307	1104.909
46.213	26.635	1360.265	1104.482
47.228	26.657	1359.401	1103.818
48.242	26.719	1357.759	1102.765
49.257	26.694	1356.653	1101.618
50.271	26.625	1355.369	1100.057
51.286	26.587	1354.301	1098.865
52.301	26.572	1352.776	1097.437
53.315	26.678	1351.838	1097.223
54.330	26.667	1350.853	1096.257
55.344	26.645	1349.704	1095.099
56.359	26.610	1348.656	1093.939
57.374	26.616	1348.275	1093.567
58.388	26.606	1347.776	1093.005
59.403	26.664	1346.998	1092.626
60.417	26.640	1346.306	1091.823
61.432	26.688	1345.608	1091.449
62.447	26.524	1344.972	1089.854
63.461	26.667	1343.505	1089.424
64.476	26.634	1342.779	1088.543
65.490	26.702	1341.783	1088.047
66.505	26.693	1340.371	1086.750
67.520	26.627	1339.084	1085.216
68.534	26.576	1338.229	1084.121
69.549	26.685	1337.062	1083.734
70.563	26.538	1336.636	1082.415
71.578	26.641	1335.508	1082.021
72.593	26.682	1334.314	1081.201
73.607	26.723	1333.949	1081.057
74.622	26.820	1332.660	1080.492
75.636	26.660	1332.206	1079.078
76.651	26.750	1330.851	1078.417
77.666	26.687	1330.874	1077.964
78.680	26.674	1330.682	1077.637
79.695	26.652	1329.791	1076.691
80.709	26.728	1328.856	1076.287
81.724	26.625	1328.541	1075.325
82.739	26.647	1327.203	1074.283
83.753	26.674	1326.108	1073.461
84.768	26.685	1325.152	1072.654
85.782	26.762	1323.922	1072.017
86.797	26.749	1322.691	1070.853
87.812	26.788	1321.511	1070.034
88.826	26.608	1320.590	1068.128
89.841	26.692	1319.842	1067.928
90.855	26.742	1318.743	1067.234
91.870	26.735	1318.089	1066.572
92.884	26.767	1316.900	1065.705
93.899	26.751	1316.402	1065.112
94.914	26.671	1315.786	1064.051
95.928	26.725	1314.852	1063.514
96.943	26.766	1314.061	1063.025
97.957	26.717	1313.566	1062.242
98.972	26.702	1312.795	1061.434
99.987	26.790	1311.768	1061.027
101.001	26.819	1310.567	1060.130
102.016	26.673	1309.742	1058.516
103.030	26.728	1308.907	1058.071
104.045	26.723	1308.523	1057.637
105.060	26.749	1307.051	1056.505
106.074	26.754	1305.843	1055.462
107.089	26.694	1305.152	1054.463
108.103	26.752	1304.078	1053.840
109.118	26.794	1303.019	1053.133
110.133	26.729	1301.836	1051.708
111.147	26.821	1300.537	1051.101
112.162	26.882	1299.646	1050.640
113.176	26.778	1298.826	1049.278
114.191	26.773	1298.113	1048.585
115.206	26.856	1296.693	1047.824
116.220	26.870	1295.516	1046.860
117.235	26.842	1294.764	1045.995
118.249	26.837	1294.047	1045.297
119.264	26.723	1293.601	1044.185
120.279	26.698	1292.659	1043.189
121.293	26.945	1291.267	1043.397
122.308	26.900	1290.219	1042.195
123.322	26.868	1289.852	1041.623
124.337	26.862	1289.513	1041.225
125.352	26.999	1288.201	1040.858
126.366	26.822	1287.617	1039.282
127.381	26.865	1286.651	1038.658
128.395	26.851	1285.871	1037.851
129.410	26.894	1285.258	1037.514
130.424	26.785	1284.421	1036.125
131.439	26.831	1283.777	1035.776
132.454	26.851	1282.703	1034.929
133.468	26.844	1282.170	1034.368
134.483	26.833	1281.730	1033.860
135.497	26.862	1280.540	1032.973
136.512	26.838	1279.842	1032.181
137.527	26.994	1278.455	1031.857
138.541	26.909	1277.651	1030.638
139.556	26.894	1276.031	1029.155
140.570	26.894	1274.692	1027.980
141.585	26.945	1274.143	1027.737
142.600	26.746	1273.415	1025.935
143.614	26.804	1272.345	1025.305
144.629	26.824	1271.345	1024.527
145.643	26.744	1270.741	1023.494
146.658	26.770	1269.110	1022.238
147.673	26.773	1268.027	1021.293
148.687	26.818	1267.198	1020.785
149.702	26.760	1266.109	1019.492
150.716	26.787	1264.996	1018.661
151.731	26.792	1264.236	1017.984
152.746	26.827	1263.335	1017.364
153.760	26.893	1261.803	1016.414
154.775	26.890	1261.545	1016.096
155.789	26.919	1260.023	1014.945
156.804	26.866	1259.520	1014.150
157.819	26.812	1258.807	1013.184
158.833	26.907	1257.724	1012.755
159.848	26.931	1257.047	1012.254
160.862	26.957	1256.595	1011.947
161.877	27.006	1255.397	1011.162
162.892	26.913	1255.103	1010.322
163.906	26.914	1254.428	1009.694
164.921	26.910	1253.597	1008.912
165.935	26.843	1252.960	1007.937
166.950	26.901	1252.123	1007.496
167.964	27.023	1251.616	1007.676
168.979	26.913	1251.207	1006.650
169.994	27.011	1250.383	1006.441
171.008	27.016	1249.821	1005.927
172.023	26.995	1249.131	1005.164
173.037	26.895	1248.547	1004.056
174.052	26.965	1247.925	1003.851
175.067	26.961	1246.728	1002.780
176.081	26.999	1246.034	1002.342
177.096	26.948	1245.041	1001.172
178.110	27.016	1244.010	1000.629
179.125	27.001	1243.437	999.995
180.140	27.119	1241.908	999.330
181.154	27.023	1240.925	997.921
182.169	27.020	1240.021	997.088
183.183	26.980	1238.975	995.942
184.198	27.042	1238.085	995.480
185.213	27.044	1237.259	994.734
186.227	27.015	1236.677	994.020
187.242	26.992	1236.013	993.271
188.256	27.068	1234.592	992.459
189.271	26.986	1234.120	991.546
190.286	27.032	1233.230	990.993
191.300	27.060	1232.918	990.806
192.315	26.993	1232.529	990.039
193.329	27.120	1231.562	989.871
194.344	27.133	1231.538	989.831
195.359	27.008	1231.201	988.790
196.373	27.016	1230.193	987.941
197.388	26.981	1229.960	987.477
198.402	27.062	1229.526	987.477
199.417	27.050	1229.156	987.029
200.432	27.050	1228.580	986.478
201.446	27.020	1228.044	985.798
202.461	27.008	1227.306	985.056
203.475	27.094	1225.813	984.233
204.490	27.119	1225.378	983.936
205.504	27.082	1224.447	982.897
206.519	27.041	1223.544	981.867
207.534	27.187	1222.216	981.499
208.548	27.204	1221.437	980.881
209.563	27.184	1220.990	980.327
210.577	27.193	1219.863	979.383
211.592	27.182	1218.995	978.542
212.607	27.139	1218.245	977.621
213.621	27.221	1217.473	977.358
214.636	27.230	1216.640	976.650
215.650	27.236	1216.138	976.191
216.665	27.142	1215.383	974.993
217.680	27.161	1214.434	974.247
218.694	27.149	1213.654	973.474
219.709	27.237	1212.865	973.224
220.723	27.141	1212.326	972.195
221.738	27.253	1211.607	972.127
222.753	27.071	1210.853	970.466
223.767	27.209	1209.888	970.346
224.782	27.213	1209.820	970.226
225.796	27.266	1209.184	969.910
226.811	27.201	1208.767	969.141
227.826	27.273	1208.108	968.915
228.840	27.353	1206.881	968.270
229.855	27.248	1206.627	967.422
230.869	27.309	1205.884	967.066
231.884	27.229	1205.593	966.323
232.899	27.278	1204.378	965.522
233.913	27.262	1204.103	965.132
234.928	27.416	1203.459	965.347
235.942	27.444	1202.876	964.943
236.957	27.316	1201.891	963.386
237.972	27.350	1201.605	963.253
238.986	27.307	1200.846	962.331
240.001	27.345	1200.192	961.920
241.015	27.381	1199.994	961.870
242.030	27.434	1198.966	961.243
243.045	27.509	1197.926	960.719
244.059	27.546	1197.000	960.086
245.074	27.499	1196.347	959.229
246.088	27.480	1195.417	958.296
247.103	27.504	1194.915	957.938
248.117	27.440	1194.099	956.859
249.132	27.512	1193.157	956.401
250.147	27.445	1192.745	955.635
251.161	27.501	1192.321	955.502
252.176	27.437	1191.539	954.454
253.190	27.534	1191.085	954.514
254.205	27.543	1190.136	953.719
255.220	27.432	1189.545	952.579
256.234	27.530	1189.279	952.795
257.249	27.583	1188.453	952.326
258.263	27.583	1187.747	951.676
259.278	27.485	1187.049	950.523
260.293	27.461	1186.918	950.206
261.307	27.557	1186.292	950.122
262.322	27.573	1185.860	949.778
263.336	27.580	1184.959	949.008
264.351	27.550	1184.242	948.193
265.366	27.522	1183.963	947.740
266.380	27.643	1183.041	947.544
267.395	27.514	1182.382	946.263
268.409	27.538	1181.619	945.695
269.424	27.570	1181.329	945.544
270.439	27.647	1181.074	945.657
271.453	27.642	1179.773	944.503
272.468	27.602	1179.388	943.907
273.482	27.527	1178.560	942.770
274.497	27.742	1178.290	943.586
275.512	27.622	1178.009	942.654
276.526	27.745	1176.809	942.247
277.541	27.752	1176.158	941.681
278.555	27.718	1175.569	940.949
279.570	27.659	1175.196	940.263
280.585	27.685	1174.358	939.644
281.599	27.743	1173.307	939.018
282.614	27.742	1172.248	938.078
283.628	27.772	1171.571	937.608
284.643	27.812	1170.287	936.706
285.657	27.669	1169.905	935.585
286.672	27.761	1168.620	934.944
287.687	27.745	1168.096	934.360
288.701	27.849	1167.566	934.386
289.716	27.885	1166.825	933.894
290.730	27.904	1166.267	933.462
291.745	27.770	1165.768	932.296
292.760	27.945	1164.890	932.403
293.774	27.940	1164.749	932.182
294.789	27.776	1164.823	931.322
295.803	27.848	1163.638	930.659
296.818	27.897	1162.555	929.961
297.833	27.910	1162.021	929.516
298.847	27.787	1161.562	928.445
299.862	27.818	1160.732	927.856
300.876	27.918	1160.297	927.934
301.891	28.023	1159.570	927.805
302.906	28.080	1159.080	927.618
303.920	28.037	1158.148	926.570
304.935	27.959	1157.714	925.749
305.949	27.999	1156.974	925.274
306.964	27.990	1156.458	924.738
307.979	28.054	1155.485	924.198
308.993	28.099	1154.875	923.858
310.008	28.072	1153.953	922.903
311.022	28.090	1153.295	922.385
312.037	28.083	1152.872	921.930
313.052	28.035	1151.706	920.675
314.066	27.990	1150.996	919.798
315.081	28.023	1150.659	919.613
316.095	28.043	1149.697	918.864
317.110	28.045	1149.288	918.464
318.125	28.112	1148.537	918.120
319.139	28.120	1148.105	917.735
320.154	28.056	1147.584	916.913
321.168	28.171	1146.770	916.762
322.183	28.155	1146.497	916.383
323.197	27.981	1145.925	914.971
324.212	28.171	1144.996	915.100
325.227	28.128	1145.084	914.872
326.241	28.253	1144.157	914.678
327.256	28.258	1143.321	913.951
328.270	28.156	1142.740	912.897
329.285	28.121	1142.055	912.097
330.300	28.210	1141.122	911.711
331.314	28.272	1140.210	911.213
332.329	28.325	1139.249	910.628
333.343	28.331	1138.859	910.265
334.358	28.290	1137.750	909.095
335.373	28.222	1137.806	908.719
336.387	28.333	1136.760	908.357
337.402	28.431	1135.744	907.948
338.416	28.412	1135.340	907.451
339.431	28.247	1135.126	906.383
340.446	28.407	1134.091	906.269
341.460	28.462	1133.234	905.777
342.475	28.360	1133.020	905.017
343.489	28.339	1131.738	903.811
344.504	28.391	1130.965	903.372
345.519	28.396	1130.437	902.894
346.533	28.503	1129.288	902.421
347.548	28.408	1128.668	901.382
348.562	28.604	1127.808	901.574
349.577	28.448	1127.545	900.520
350.592	28.416	1126.484	899.437
351.606	28.260	1126.095	898.280
352.621	28.401	1125.632	898.524
353.635	28.350	1125.239	897.881
354.650	28.494	1123.993	897.510
355.665	28.495	1123.725	897.221
356.679	28.528	1123.283	896.953
357.694	28.550	1122.451	896.315
358.708	28.583	1121.782	895.861
359.723	28.597	1120.969	895.201
360.738	28.564	1120.303	894.430
361.752	28.512	1120.003	893.861
362.767	28.557	1119.670	893.735
363.781	28.558	1118.790	892.957
364.796	28.626	1118.391	892.888
365.810	28.627	1117.568	892.157
366.825	28.653	1116.918	891.689
367.840	28.613	1116.948	891.440
368.854	28.673	1115.980	890.879
369.869	28.633	1115.275	890.040
370.883	28.654	1114.834	889.714
371.898	28.564	1114.338	888.804
372.913	28.650	1113.563	888.523
373.927	28.765	1112.845	888.426
374.942	28.740	1112.392	887.866
375.956	28.805	1111.707	887.557
376.971	28.777	1111.563	887.226
377.986	28.872	1110.849	887.036
379.000	28.832	1110.345	886.361
380.015	28.885	1109.635	885.971
381.029	28.830	1108.844	884.997
382.044	28.902	1108.615	885.083
383.059	28.832	1107.864	884.067
384.073	28.890	1106.905	883.503
385.088	28.937	1106.199	883.086
386.102	28.903	1105.788	882.519
387.117	28.996	1104.357	881.742
388.132	28.942	1103.670	880.858
389.146	28.843	1103.326	880.030
390.161	28.894	1102.713	879.708
391.175	28.885	1102.231	879.203
392.190	28.895	1101.328	878.455
393.205	28.970	1100.339	877.945
394.219	28.926	1100.064	877.438
395.234	28.895	1099.223	876.543
396.248	28.916	1098.336	875.859
397.263	29.116	1097.255	875.867
398.278	29.056	1097.245	875.498
399.292	29.054	1096.417	874.751
400.307	29.055	1095.666	874.076
401.321	29.102	1094.859	873.582
402.336	28.973	1094.711	872.774
403.350	29.010	1093.544	871.939
404.365	29.128	1093.159	872.116
405.380	29.193	1092.406	871.743
406.394	29.209	1091.692	871.174
407.409	29.217	1091.304	870.822
408.423	29.289	1090.308	870.294
409.438	29.224	1089.727	869.446
410.453	29.397	1088.511	869.215
411.467	29.229	1088.331	868.200
412.482	29.152	1087.788	867.327
413.496	29.346	1087.124	867.635
414.511	29.164	1086.869	866.501
415.526	29.288	1086.308	866.560
416.540	29.284	1085.775	866.037
417.555	29.395	1084.901	865.784
418.569	29.273	1084.714	864.988
419.584	29.233	1084.003	864.156
420.599	29.294	1083.697	864.123
421.613	102.581	1317.414	1446.549
422.628	95.502	1351.471	1446.661
