DTS Sentinel unit serial number:	SN413079Multiplexer serial number:	ORYXHardware model number:	OX4-SRSoftware version number:	ORYX F/W v4.00 Oryx Data Collector v3.7.2.0data status	okinstallation	princeton_trtdifferential loss correction	single-endedforward channel	channel 2reverse channel	N/Adate	2019/09/12time	06:45:10forward acquisition time	60.00reverse acquisition time	0.00gamma	496.2192k internal	0.2324k external	0.2324temperature offset calibration	1.0065default loss term (dB/km)	0.3790temperature slope calibration	1.0000multiplexer offset coefficient	1.0000multiplexer slope coefficient	1.0000fibre end	0.00T internal ref (°C)	32.14T ext. ref 1 (°C)	1.58T ext. ref 2 (°C)	27.27length (m)	temperature (°C)	Stokes	anti-Stokes-747.200	-3.305	-0.182	0.128
-746.185	235.579	-0.088	0.147
-745.171	800.000	-0.005	-0.017
-744.156	-120.412	-0.234	0.040
-743.142	70.191	0.097	-0.102
-742.127	-200.000	-0.037	0.198
-741.112	232.433	-0.183	0.303
-740.098	800.000	-0.049	0.201
-739.083	381.939	0.043	-0.090
-738.069	574.712	0.018	0.043
-737.054	240.276	-0.109	-0.183
-736.039	62.377	-0.227	-0.228
-735.025	-100.123	-0.291	-0.073
-734.010	-21.959	-0.175	-0.107
-732.996	85.449	-0.278	-0.308
-731.981	-134.480	-0.124	-0.015
-730.966	96.346	0.101	-0.116
-729.952	-200.000	0.030	-0.225
-728.937	62.538	0.172	0.174
-727.923	-137.613	-0.228	0.026
-726.908	179.719	-0.146	-0.216
-725.894	-70.753	-0.419	-0.159
-724.879	70.753	-0.336	-0.350
-723.864	13.726	-0.198	-0.155
-722.850	800.000	0.002	-0.006
-721.835	-24.821	-0.140	0.084
-720.821	-22.962	0.126	-0.076
-719.806	15.054	-0.311	-0.246
-718.791	-200.000	0.062	0.406
-717.777	800.000	-0.159	-0.453
-716.762	-29.705	-0.384	0.221
-715.748	-200.000	0.011	0.076
-714.733	-200.000	0.007	-0.279
-713.718	82.276	-0.275	-0.301
-712.704	-165.682	-0.028	-0.001
-711.689	237.027	0.090	0.149
-710.675	-200.000	-0.021	-0.150
-709.660	652.592	0.149	-0.385
-708.645	-65.172	0.049	-0.020
-707.631	-139.622	0.200	-0.022
-706.616	22.288	0.132	0.108
-705.602	800.000	-0.050	-0.193
-704.587	93.789	-0.224	0.256
-703.572	800.000	-0.105	-0.302
-702.558	-94.508	-0.428	-0.117
-701.543	-42.828	0.150	-0.077
-700.529	-0.593	0.055	-0.039
-699.514	-200.000	0.036	-0.237
-698.499	-200.000	-0.051	0.288
-697.485	-200.000	-0.043	0.220
-696.470	131.023	-0.165	-0.213
-695.456	325.028	-0.078	0.149
-694.441	-114.425	0.253	0.049
-693.426	800.000	0.156	-0.537
-692.412	-200.000	0.071	-0.332
-691.397	800.000	0.056	-0.224
-690.383	-150.790	0.283	0.022
-689.368	-118.101	0.115	0.021
-688.354	-200.000	-0.083	0.385
-687.339	800.000	-0.119	0.428
-686.324	-125.297	-0.165	0.025
-685.310	31.378	-0.071	-0.061
-684.295	-200.000	0.024	0.216
-683.281	800.000	0.034	0.133
-682.266	82.660	-0.091	-0.100
-681.251	-200.000	0.014	0.266
-680.237	-181.463	-0.390	0.008
-679.222	-15.276	0.201	0.129
-678.208	-200.000	0.015	-0.086
-677.193	-31.450	0.142	0.080
-676.178	-128.652	-0.054	0.008
-675.164	58.526	-0.204	0.202
-674.149	-82.102	-0.126	0.041
-673.135	72.850	0.233	-0.245
-672.120	-72.121	-0.177	0.066
-671.105	173.643	0.220	0.319
-670.091	112.794	-0.116	0.142
-669.076	534.941	-0.055	-0.131
-668.062	-8.414	-0.261	-0.176
-667.047	-38.168	0.016	0.009
-666.032	282.580	-0.088	-0.159
-665.018	-78.653	-0.210	0.072
-664.003	302.514	0.180	-0.335
-662.989	536.746	0.141	-0.337
-661.974	-63.629	0.171	0.071
-660.959	-200.000	0.027	-0.157
-659.945	371.643	-0.098	0.199
-658.930	91.527	-0.149	-0.169
-657.916	-30.725	-0.136	0.077
-656.901	-2.232	0.070	0.050
-655.886	478.737	-0.039	0.089
-654.872	504.736	0.055	-0.129
-653.857	-200.000	0.019	-0.106
-652.843	176.776	-0.150	0.219
-651.828	-200.000	0.022	0.312
-650.814	33.966	-0.205	-0.179
-649.799	-95.732	0.183	-0.049
-648.784	-200.000	-0.082	-0.371
-647.770	-113.004	-0.242	0.048
-646.755	202.733	0.112	0.174
-645.741	-57.751	0.213	-0.094
-644.726	70.295	0.177	-0.184
-643.711	-29.571	0.128	-0.073
-642.697	-42.178	0.108	0.056
-641.682	-71.019	0.145	0.055
-640.668	-78.867	0.201	-0.069
-639.653	187.471	-0.222	0.333
-638.638	-77.679	-0.352	-0.122
-637.624	-48.829	-0.146	-0.070
-636.609	-72.804	0.029	-0.011
-635.595	-200.000	-0.045	-0.353
-634.580	800.000	-0.057	-0.166
-633.565	-200.000	-0.016	-0.179
-632.551	-59.437	-0.181	0.078
-631.536	-165.387	-0.243	-0.011
-630.522	102.729	-0.060	-0.071
-629.507	-200.000	0.017	-0.140
-628.492	57.130	0.220	-0.215
-627.478	312.167	-0.136	-0.257
-626.463	800.000	0.135	-0.537
-625.449	800.000	0.033	-0.119
-624.434	583.342	0.066	-0.162
-623.419	-200.000	-0.005	-0.066
-622.405	-64.235	0.082	0.034
-621.390	-200.000	-0.037	0.223
-620.376	-98.868	0.066	-0.017
-619.361	52.587	0.194	-0.186
-618.346	-36.712	-0.145	-0.078
-617.332	-200.000	-0.045	0.414
-616.317	134.250	-0.224	0.291
-615.303	-108.504	-0.192	0.041
-614.288	17.701	0.126	0.101
-613.273	-84.463	0.353	0.112
-612.259	-61.397	0.065	-0.027
-611.244	-133.332	-0.471	0.060
-610.230	688.606	0.057	0.150
-609.215	258.415	0.107	0.184
-608.201	73.613	0.465	-0.490
-607.186	-12.584	-0.138	-0.091
-606.171	-200.000	-0.016	-0.215
-605.157	529.009	0.024	-0.057
-604.142	-50.140	0.350	-0.166
-603.128	-96.255	-0.162	0.043
-602.113	-29.633	-0.229	0.132
-601.098	422.122	-0.178	0.384
-600.084	51.280	-0.074	-0.070
-599.069	-4.998	0.112	0.077
-598.055	-41.589	0.086	-0.044
-597.040	-200.000	-0.032	0.441
-596.025	800.000	0.043	-0.128
-595.011	67.468	-0.162	-0.166
-593.996	-141.658	0.157	-0.016
-592.982	-71.403	-0.312	0.117
-591.967	502.132	0.085	-0.196
-590.952	6.256	-0.104	0.078
-589.938	-82.003	-0.130	-0.043
-588.923	-31.834	-0.263	-0.148
-587.909	-200.000	0.024	-0.156
-586.894	-67.599	0.094	-0.037
-585.879	-102.432	0.295	-0.071
-584.865	-140.354	0.046	0.005
-583.850	-41.300	-0.103	0.053
-582.836	-62.863	-0.193	-0.080
-581.821	175.034	0.098	-0.142
-580.806	-9.229	0.143	-0.096
-579.792	-84.325	-0.340	-0.108
-578.777	-115.210	0.163	0.031
-577.763	-200.000	0.065	0.368
-576.748	-200.000	0.032	-0.255
-575.733	-143.256	0.192	-0.019
-574.719	-41.710	0.106	-0.054
-573.704	-38.679	-0.212	-0.112
-572.690	-156.833	-0.258	-0.016
-571.675	521.950	0.139	-0.328
-570.661	-89.212	-0.151	-0.045
-569.646	-101.486	-0.150	0.037
-568.631	-14.938	0.372	-0.239
-567.617	-93.259	0.230	0.064
-566.602	-65.322	-0.091	0.037
-565.588	-69.769	-0.183	0.070
-564.573	-58.359	-0.019	0.008
-563.558	-53.180	-0.208	-0.096
-562.544	-179.283	0.356	-0.008
-561.529	-121.870	-0.230	-0.038
-560.515	-156.394	-0.055	-0.003
-559.500	-187.977	-0.286	-0.004
-558.485	55.747	-0.241	0.234
-557.471	161.374	0.043	0.060
-556.456	-112.067	0.264	-0.053
-555.442	800.000	0.116	-0.371
-554.427	163.271	-0.131	-0.185
-553.412	-200.000	-0.016	0.255
-552.398	-200.000	0.006	0.173
-551.383	800.000	0.056	-0.180
-550.369	-200.000	0.018	0.228
-549.354	207.345	-0.055	0.086
-548.339	-9.724	-0.058	-0.038
-547.325	800.000	0.055	-0.186
-546.310	-200.000	-0.006	0.041
-545.296	-200.000	-0.026	0.200
-544.281	149.676	0.155	0.210
-543.266	134.504	0.057	-0.074
-542.252	140.231	-0.168	-0.222
-541.237	800.000	0.068	0.268
-540.223	-130.643	-0.214	0.029
-539.208	-200.000	-0.010	0.086
-538.193	228.224	0.230	-0.375
-537.179	-33.867	0.166	0.092
-536.164	-12.081	-0.333	0.218
-535.150	-82.437	-0.057	-0.019
-534.135	800.000	0.048	-0.150
-533.121	-192.888	-0.098	-0.001
-532.106	-52.964	0.153	0.070
-531.091	800.000	-0.115	-0.464
-530.077	800.000	-0.097	0.296
-529.062	24.045	-0.163	-0.135
-528.048	-70.872	0.472	0.178
-527.033	111.042	0.077	0.093
-526.018	-9.554	0.058	-0.039
-525.004	-75.589	-0.519	-0.185
-523.989	-200.000	0.038	0.341
-522.975	-43.727	0.272	-0.137
-521.960	-200.000	-0.008	-0.132
-520.945	311.000	-0.114	0.213
-519.931	800.000	0.091	0.323
-518.916	800.000	0.088	0.313
-517.902	24.780	-0.012	-0.010
-516.887	6.532	0.325	-0.242
-515.872	-200.000	-0.004	-0.209
-514.858	-200.000	0.013	-0.243
-513.843	-69.565	0.149	0.057
-512.829	-137.752	-0.388	-0.044
-511.814	-200.000	0.020	0.109
-510.799	34.800	0.239	-0.209
-509.785	800.000	-0.038	-0.163
-508.770	-200.000	-0.001	0.244
-507.756	-21.983	0.392	0.238
-506.741	-200.000	0.038	-0.257
-505.726	800.000	0.113	-0.431
-504.712	-21.644	0.397	0.242
-503.697	-200.000	-0.025	-0.360
-502.683	-72.464	0.292	-0.108
-501.668	-72.865	-0.217	-0.080
-500.653	171.943	0.136	0.195
-499.639	-117.644	-0.314	0.057
-498.624	-108.272	-0.079	0.017
-497.610	13.240	0.048	-0.037
-496.595	-45.101	0.433	0.215
-495.581	-32.837	0.417	0.231
-494.566	-145.966	-0.109	0.010
-493.551	-161.230	-0.078	-0.004
-492.537	-167.046	0.320	0.013
-491.522	219.776	-0.096	0.153
-490.508	-200.000	0.036	0.158
-489.493	-200.000	-0.001	0.192
-488.478	-71.241	-0.288	0.108
-487.464	-200.000	0.014	0.092
-486.449	127.919	-0.317	-0.403
-485.435	11.948	0.215	-0.165
-484.420	-138.759	0.296	-0.032
-483.405	407.425	-0.148	-0.312
-482.391	-80.689	-0.067	0.022
-481.376	24.613	-0.121	-0.100
-480.362	-200.000	-0.001	-0.151
-479.347	-200.000	0.011	-0.367
-478.332	-20.397	0.049	-0.030
-477.318	-96.412	0.319	0.084
-476.303	-101.941	0.222	0.054
-475.289	-139.763	0.289	0.031
-474.274	-124.423	-0.064	-0.010
-473.259	-89.514	-0.122	-0.036
-472.245	-80.441	-0.277	0.092
-471.230	335.644	-0.174	0.338
-470.216	800.000	0.098	-0.366
-469.201	-123.416	0.137	-0.022
-468.186	369.952	-0.073	0.148
-467.172	338.677	0.157	0.306
-466.157	-72.367	-0.092	0.034
-465.143	151.633	0.195	-0.265
-464.128	-200.000	0.009	-0.305
-463.113	-29.032	-0.160	-0.091
-462.099	-200.000	0.019	-0.263
-461.084	-200.000	0.026	0.136
-460.070	-200.000	0.008	0.278
-459.055	-200.000	-0.055	-0.298
-458.040	-107.331	-0.255	-0.056
-457.026	-103.127	-0.343	-0.081
-456.011	800.000	0.046	-0.153
-454.997	49.450	-0.228	-0.214
-453.982	8.558	0.070	0.053
-452.968	-144.895	0.089	0.008
-451.953	-72.501	-0.154	-0.057
-450.938	-145.785	-0.161	0.014
-449.924	80.970	0.281	-0.302
-448.909	681.692	0.015	0.039
-447.895	275.432	-0.082	0.145
-446.880	-200.000	-0.003	-0.098
-445.865	-64.135	0.144	0.059
-444.851	800.000	-0.065	0.240
-443.836	-200.000	0.032	-0.182
-442.822	-21.703	-0.416	-0.253
-441.807	218.762	-0.036	0.058
-440.792	-200.000	0.047	-0.436
-439.778	151.387	0.114	0.154
-438.763	489.894	-0.095	-0.217
-437.749	-140.455	0.101	-0.011
-436.734	-200.000	-0.022	-0.252
-435.719	29.682	0.118	0.100
-434.705	-200.000	0.036	0.240
-433.690	-200.000	-0.052	-0.240
-432.676	-200.000	0.027	0.244
-431.661	-200.000	0.055	-0.263
-430.646	255.249	0.174	-0.296
-429.632	294.708	-0.147	-0.268
-428.617	176.412	-0.090	-0.130
-427.603	236.846	-0.121	0.199
-426.588	-29.122	-0.189	-0.108
-425.573	266.428	-0.009	0.015
-424.559	-106.637	0.277	-0.061
-423.544	477.362	0.138	0.312
-422.530	-200.000	0.040	-0.287
-421.515	338.511	-0.156	0.303
-420.500	-200.000	-0.006	-0.165
-419.486	-90.910	0.186	0.053
-418.471	-29.212	-0.092	-0.052
-417.457	800.000	0.055	0.163
-416.442	269.721	0.069	0.121
-415.428	-200.000	-0.068	0.422
-414.413	-0.356	0.278	0.197
-413.398	238.789	-0.128	0.213
-412.384	-67.599	0.416	0.163
-411.369	-172.714	-0.152	0.005
-410.355	-200.000	0.049	-0.534
-409.340	-200.000	0.003	-0.051
-408.325	-108.257	-0.213	0.046
-407.311	-200.000	-0.018	0.270
-406.296	-34.062	0.259	0.142
-405.282	204.123	0.155	0.239
-404.267	-143.482	0.155	-0.015
-403.252	7.255	-0.200	-0.149
-402.238	-64.264	-0.185	0.075
-401.223	20.828	-0.135	-0.109
-400.209	-200.000	-0.014	-0.297
-399.194	189.016	-0.079	-0.117
-398.179	-187.180	-0.314	0.004
-397.165	88.608	0.192	-0.213
-396.150	22.544	0.141	-0.115
-395.136	46.994	-0.123	-0.114
-394.121	400.866	-0.045	-0.094
-393.106	618.723	0.014	0.034
-392.092	32.031	-0.267	0.230
-391.077	166.117	0.068	-0.096
-390.063	-3.008	-0.329	0.229
-389.048	-111.053	0.288	-0.059
-388.033	-200.000	-0.033	0.203
-387.019	-200.000	-0.012	0.054
-386.004	-157.822	0.132	0.008
-384.990	-200.000	-0.135	0.000
-383.975	-98.348	-0.105	-0.027
-382.960	-6.303	-0.246	-0.167
-381.946	-200.000	0.110	-0.499
-380.931	100.071	-0.141	0.163
-379.917	-69.926	0.427	-0.162
-378.902	-105.853	0.176	0.039
-377.888	-74.380	-0.142	-0.051
-376.873	-200.000	0.012	-0.113
-375.858	269.190	-0.049	0.085
-374.844	-129.398	0.692	-0.096
-373.829	-198.536	-0.203	0.001
-372.815	137.003	0.177	0.230
-371.800	800.000	-0.073	0.277
-370.785	11.974	0.073	-0.056
-369.771	-99.664	0.282	0.070
-368.756	-145.191	0.143	-0.013
-367.742	-103.290	0.084	0.020
-366.727	347.993	-0.093	-0.182
-365.712	60.129	0.218	0.215
-364.698	-73.543	-0.194	-0.070
-363.683	103.950	0.064	-0.075
-362.669	-200.000	0.045	0.380
-361.654	-200.000	-0.037	0.357
-360.639	-120.006	0.286	0.049
-359.625	-200.000	-0.010	0.111
-358.610	-200.000	-0.044	0.252
-357.596	-142.904	0.187	0.018
-356.581	86.724	-0.215	-0.235
-355.566	-200.000	0.019	-0.165
-354.552	-41.845	0.322	0.164
-353.537	91.591	-0.094	0.105
-352.523	166.927	-0.066	0.093
-351.508	-200.000	0.021	0.132
-350.493	180.933	0.171	-0.250
-349.479	-89.863	0.102	0.030
-348.464	-200.000	0.026	0.188
-347.450	-82.434	-0.185	0.060
-346.435	-200.000	0.007	-0.059
-345.420	800.000	0.041	0.160
-344.406	-7.482	-0.279	0.187
-343.391	18.135	-0.207	0.164
-342.377	-108.294	0.039	-0.008
-341.362	800.000	-0.047	-0.138
-340.348	-23.593	0.088	-0.053
-339.333	-22.326	-0.129	0.078
-338.318	-129.061	-0.197	-0.027
-337.304	190.041	0.040	-0.059
-336.289	-87.735	-0.378	0.113
-335.275	233.620	0.167	0.272
-334.260	-109.555	-0.393	-0.082
-333.245	-117.932	-0.133	0.024
-332.231	15.090	0.204	0.158
-331.216	-200.000	-0.003	-0.071
-330.202	-156.626	0.063	0.004
-329.187	-200.000	0.014	0.116
-328.172	-120.178	0.091	-0.015
-327.158	496.031	0.027	-0.063
-326.143	174.869	-0.095	-0.137
-325.129	85.858	0.325	-0.355
-324.114	800.000	0.084	0.233
-323.099	466.252	-0.067	0.148
-322.085	315.465	0.126	0.235
-321.070	-36.067	-0.195	0.105
-320.056	800.000	-0.052	0.152
-319.041	-139.643	0.117	-0.012
-318.026	128.643	0.287	0.363
-317.012	-94.267	0.099	0.027
-315.997	-200.000	0.008	-0.172
-314.983	-200.000	0.042	0.324
-313.968	800.000	-0.114	0.347
-312.953	67.245	0.132	-0.133
-311.939	-200.000	-0.006	-0.058
-310.924	82.684	0.102	-0.110
-309.910	151.098	0.121	0.163
-308.895	6.775	0.343	-0.254
-307.880	295.796	0.060	-0.110
-306.866	128.894	-0.087	-0.110
-305.851	-49.276	-0.200	-0.095
-304.837	496.329	0.108	-0.247
-303.822	-90.403	-0.214	0.062
-302.807	147.384	-0.098	0.131
-301.793	800.000	-0.075	-0.318
-300.778	-200.000	0.007	-0.282
-299.764	-73.956	-0.014	-0.005
-298.749	-200.000	0.037	0.230
-297.735	-200.000	-0.004	0.111
-296.720	267.084	-0.132	0.229
-295.705	-200.000	0.102	0.582
-294.691	-89.762	-0.200	-0.058
-293.676	-35.920	-0.192	0.103
-292.662	-146.530	0.195	-0.017
-291.647	102.158	-0.126	0.146
-290.632	-200.000	-0.012	-0.107
-289.618	400.812	-0.109	-0.226
-288.603	-151.572	0.140	-0.010
-287.589	-63.428	0.103	0.042
-286.574	67.293	-0.100	-0.102
-285.559	444.969	0.033	0.073
-284.545	800.000	0.063	0.220
-283.530	231.753	-0.140	0.228
-282.516	-112.853	-0.122	-0.024
-281.501	219.063	0.111	0.176
-280.486	-121.489	0.092	0.015
-279.472	97.831	-0.150	0.171
-278.457	534.259	-0.080	0.187
-277.443	298.929	-0.067	0.121
-276.428	202.587	-0.083	-0.127
-275.413	-23.188	0.073	0.043
-274.399	-200.000	-0.017	-0.269
-273.384	-119.689	0.387	-0.066
-272.370	168.837	-0.149	0.211
-271.355	-149.254	0.116	-0.009
-270.340	-200.000	0.032	0.183
-269.326	-119.084	-0.418	0.073
-268.311	113.343	-0.267	-0.321
-267.297	-67.166	-0.173	0.068
-266.282	-154.726	0.089	-0.006
-265.267	-200.000	0.019	-0.138
-264.253	-65.329	0.329	0.131
-263.238	404.640	-0.092	-0.192
-262.224	368.568	-0.056	-0.112
-261.209	158.736	0.192	-0.265
-260.195	191.201	0.189	0.282
-259.180	101.969	-0.162	0.187
-258.165	-200.000	0.024	-0.239
-257.151	800.000	-0.005	0.014
-256.136	-91.344	-0.310	-0.088
-255.122	55.331	-0.160	-0.153
-254.107	-200.000	-0.026	0.173
-253.092	-88.145	0.227	0.067
-252.078	800.000	0.048	-0.195
-251.063	-113.416	-0.063	-0.012
-250.049	-133.888	0.161	0.020
-249.034	102.703	-0.094	0.109
-248.019	-17.917	-0.223	0.138
-247.005	175.765	-0.142	-0.204
-245.990	80.184	0.113	0.120
-244.976	-12.502	0.114	-0.074
-243.961	800.000	0.064	-0.261
-242.946	153.434	-0.279	0.378
-241.932	-200.000	0.008	0.536
-240.917	-128.566	0.123	-0.017
-239.903	119.042	0.056	-0.069
-238.888	-17.203	-0.273	0.170
-237.873	-137.492	0.143	0.016
-236.859	800.000	-0.090	-0.263
-235.844	-90.500	-0.149	-0.043
-234.830	-200.000	-0.024	-0.308
-233.815	-200.000	-0.005	-0.175
-232.800	-16.849	-0.297	0.186
-231.786	107.671	0.111	0.131
-230.771	585.048	-0.123	-0.300
-229.757	463.564	-0.103	0.227
-228.742	800.000	0.112	0.348
-227.727	-10.854	-0.110	0.072
-226.713	143.059	-0.150	0.197
-225.698	-80.378	-0.105	0.035
-224.684	-200.000	0.065	-0.465
-223.669	-200.000	-0.063	0.415
-222.655	800.000	-0.147	0.517
-221.640	68.099	-0.074	0.075
-220.625	-133.893	-0.115	-0.014
-219.611	-164.741	0.295	0.013
-218.596	-178.023	-0.177	-0.004
-217.582	-200.000	0.004	-0.158
-216.567	165.176	0.210	0.293
-215.552	-129.084	-0.216	0.030
-214.538	74.136	-0.045	0.047
-213.523	121.310	-0.172	-0.211
-212.509	213.746	0.032	0.050
-211.494	60.424	0.102	0.100
-210.479	-96.705	0.122	0.032
-209.465	800.000	-0.017	0.046
-208.450	-200.000	0.102	0.000
-207.436	800.000	0.081	-0.318
-206.421	-102.026	-0.103	-0.025
-205.406	800.000	-0.028	-0.112
-204.392	37.527	-0.162	0.142
-203.377	-87.172	-0.089	0.027
-202.363	-89.207	0.397	-0.116
-201.348	-70.407	-0.065	-0.024
-200.333	800.000	-0.022	-0.081
-199.319	-54.881	0.322	-0.144
-198.304	-200.000	0.313	0.000
-197.290	-200.000	-0.016	0.138
-196.275	573.855	-0.040	0.095
-195.260	-75.506	-0.359	-0.126
-194.246	-200.000	0.005	0.058
-193.231	-55.767	0.235	-0.104
-192.217	-6.684	0.017	0.011
-191.202	-14.886	-0.020	-0.013
-190.187	-117.837	0.345	-0.061
-189.173	374.658	0.130	-0.262
-188.158	62.790	0.167	0.165
-187.144	-200.000	-0.006	0.292
-186.129	430.866	0.036	0.078
-185.114	117.063	0.192	0.232
-184.100	41.440	0.082	-0.073
-183.085	-62.625	-0.445	-0.182
-182.071	-143.959	-0.268	0.025
-181.056	-50.627	-0.041	-0.019
-180.042	-26.023	-0.135	-0.079
-179.027	-200.000	-0.060	0.266
-178.012	800.000	-0.069	0.225
-176.998	-123.016	-0.246	0.039
-175.983	333.233	-0.034	0.064
-174.969	-21.010	-0.060	0.036
-173.954	-200.000	-0.028	-0.176
-172.939	14.816	0.255	0.197
-171.925	-142.539	0.181	-0.017
-170.910	39.100	0.145	0.128
-169.896	131.871	-0.099	0.126
-168.881	-200.000	0.031	-0.209
-167.866	800.000	-0.120	0.410
-166.852	86.957	0.188	-0.204
-165.837	176.901	-0.090	0.129
-164.823	-2.358	-0.094	0.065
-163.808	277.844	0.082	0.145
-162.793	64.675	-0.180	0.179
-161.779	-200.000	0.032	-0.148
-160.764	139.840	0.025	-0.033
-159.750	-200.000	0.022	-0.257
-158.735	-1.424	-0.095	-0.066
-157.720	112.096	-0.298	-0.355
-156.706	158.585	0.059	-0.081
-155.691	-200.000	0.009	0.047
-154.677	180.395	0.126	0.183
-153.662	-83.187	-0.327	-0.104
-152.647	180.540	0.095	0.137
-151.633	-200.000	-0.012	0.065
-150.618	-3.220	0.381	-0.262
-149.604	-88.569	-0.008	-0.002
-148.589	464.268	-0.168	-0.369
-147.574	800.000	0.068	-0.189
-146.560	-27.883	0.393	-0.225
-145.545	-200.000	0.003	0.132
-144.531	-200.000	-0.011	0.331
-143.516	222.798	0.244	-0.388
-142.502	59.842	0.188	0.183
-141.487	-89.463	-0.107	0.031
-140.472	85.564	0.254	0.275
-139.458	-12.927	-0.023	0.015
-138.443	-86.989	0.295	0.089
-137.429	35.750	0.179	0.155
-136.414	141.260	0.172	0.225
-135.399	340.933	-0.045	0.087
-134.385	-123.672	0.028	-0.004
-133.370	-88.542	0.312	0.091
-132.356	-200.000	-0.002	0.082
-131.341	-164.638	0.402	0.018
-130.326	800.000	-0.052	-0.186
-129.312	-28.175	-0.395	0.225
-128.297	150.052	0.062	-0.082
-127.283	19.534	0.198	0.157
-126.268	-82.762	-0.324	0.103
-125.253	132.739	-0.146	0.186
-124.239	738.717	0.029	-0.077
-123.224	800.000	0.091	-0.319
-122.210	-200.000	-0.014	-0.217
-121.195	475.006	0.172	0.382
-120.180	800.000	-0.040	0.123
-119.166	259.784	-0.011	0.019
-118.151	-131.291	0.288	-0.038
-117.137	-44.585	-0.119	0.058
-116.122	58.223	0.189	-0.182
-115.107	-124.880	0.064	0.010
-114.093	273.468	-0.192	-0.334
-113.078	-106.117	0.373	-0.082
-112.064	77.827	0.243	-0.255
-111.049	-200.000	-0.012	-0.254
-110.034	-6.238	0.168	-0.113
-109.020	-55.376	-0.108	0.048
-108.005	-200.000	0.011	0.137
-106.991	-75.391	-0.317	-0.111
-105.976	-147.240	0.401	0.034
-104.962	-103.171	-0.266	-0.062
-103.947	-103.800	-0.268	0.062
-102.932	-73.102	0.456	-0.165
-101.918	178.710	-0.207	-0.298
-100.903	800.000	0.040	-0.117
-99.889	476.054	0.110	-0.245
-98.874	-200.000	-0.055	0.317
-97.859	-65.367	0.183	-0.072
-96.845	-193.884	0.378	-0.003
-95.830	-51.129	-0.292	-0.135
-94.816	188.948	0.149	0.220
-93.801	-57.338	-0.293	0.127
-92.786	40.068	-0.277	-0.245
-91.772	151.431	0.077	-0.103
-90.757	-199.901	-0.481	-0.002
-89.743	-85.896	0.074	0.023
-88.728	-108.313	0.314	0.067
-87.713	183.422	0.061	-0.088
-86.699	-91.098	0.139	-0.039
-85.684	-86.438	-0.297	-0.090
-84.670	13.744	-0.334	0.255
-83.655	-139.093	0.014	0.001
-82.640	-85.837	0.257	0.078
-81.626	800.000	0.108	0.410
-80.611	800.000	0.151	0.421
-79.597	689.394	-0.070	-0.181
-78.582	46.975	-0.079	0.072
-77.567	-88.345	-0.211	0.062
-76.553	-85.997	0.272	-0.083
-75.538	49.892	0.082	-0.076
-74.524	349.258	0.018	-0.035
-73.509	800.000	0.121	0.383
-72.494	51.033	0.168	0.156
-71.480	-31.632	-0.222	-0.123
-70.465	-177.991	-0.260	-0.006
-69.451	69.623	-0.083	0.084
-68.436	-145.593	-0.413	-0.036
-67.422	700.954	-0.024	0.062
-66.407	256.125	-0.079	-0.133
-65.392	-3.187	-0.117	0.080
-64.378	-30.584	0.132	-0.074
-63.363	696.577	-0.087	0.224
-62.349	-200.000	0.006	0.119
-61.334	35.591	-1.334	-1.152
-60.319	-32.118	0.510	0.280
-59.305	-200.000	-0.164	-0.793
-58.290	607.885	0.592	1.451
-57.276	487.725	0.639	1.433
-56.261	-200.000	96.255	599.498
-55.246	566.892	1375.198	3279.554
-54.232	160.297	2560.069	3507.800
-53.217	106.421	2269.880	2643.616
-52.203	41.539	1896.967	1687.248
-51.188	35.300	1687.512	1453.773
-50.173	32.706	1643.529	1396.637
-49.159	50.304	1689.948	1568.545
-48.144	51.952	1705.067	1594.873
-47.130	35.062	1666.209	1433.407
-46.115	32.221	1652.271	1400.233
-45.100	32.107	1647.224	1395.054
-44.086	32.089	1644.599	1392.640
-43.071	32.037	1641.936	1389.943
-42.057	31.984	1639.974	1387.835
-41.042	32.040	1637.524	1386.126
-40.027	32.089	1635.324	1384.569
-39.013	32.064	1633.730	1382.978
-37.998	32.028	1632.030	1381.220
-36.984	32.033	1631.314	1380.592
-35.969	32.155	1629.457	1379.866
-34.954	32.205	1627.485	1378.508
-33.940	32.063	1626.502	1376.579
-32.925	32.156	1624.652	1375.637
-31.911	32.066	1623.048	1373.565
-30.896	32.149	1620.673	1372.112
-29.881	32.157	1618.991	1370.689
-28.867	32.110	1617.758	1369.247
-27.852	32.069	1616.135	1367.523
-26.838	32.148	1614.285	1366.480
-25.823	32.170	1612.664	1365.210
-24.809	32.103	1612.022	1364.127
-23.794	32.126	1610.561	1363.005
-22.779	32.172	1608.848	1361.831
-21.765	32.148	1607.655	1360.592
-20.750	32.178	1605.741	1359.141
-19.736	32.160	1604.517	1357.921
-18.721	32.166	1603.222	1356.813
-17.706	32.259	1601.174	1355.694
-16.692	32.128	1600.128	1353.815
-15.677	32.181	1598.702	1352.931
-14.663	32.305	1596.673	1352.058
-13.648	32.160	1596.163	1350.526
-12.633	32.130	1594.741	1349.053
-11.619	32.157	1593.217	1347.907
-10.604	32.132	1591.379	1346.121
-9.590	32.188	1589.785	1345.117
-8.575	32.215	1588.333	1344.030
-7.560	32.147	1587.770	1343.015
-6.546	32.224	1586.819	1342.706
-5.531	32.181	1584.968	1340.777
-4.517	32.116	1584.362	1339.752
-3.502	32.094	1582.973	1338.365
-2.487	32.148	1581.309	1337.290
-1.473	31.893	1569.820	1325.718
-0.458	29.321	1550.390	1291.271
0.556	25.786	1551.056	1260.691
1.571	23.500	1574.668	1263.497
2.586	23.086	1588.308	1271.355
3.600	20.160	1533.651	1207.155
4.615	10.831	1422.171	1058.802
5.629	3.037	1357.237	961.752
6.644	1.736	1349.651	948.196
7.659	1.591	1348.458	946.372
8.673	1.485	1347.525	944.976
9.688	1.508	1345.444	943.576
10.702	1.236	1342.573	939.794
11.717	4.657	1349.116	965.556
12.731	14.841	1368.002	1042.819
13.746	23.444	1382.886	1108.090
14.761	25.902	1386.452	1126.228
15.775	26.239	1386.418	1128.209
16.790	26.315	1385.962	1128.211
17.804	26.447	1385.025	1128.169
18.819	26.568	1385.196	1128.962
19.834	26.778	1384.272	1129.422
20.848	26.683	1383.755	1128.309
21.863	26.789	1382.523	1127.862
22.877	26.829	1381.888	1127.493
23.892	26.737	1381.121	1126.193
24.907	26.774	1379.982	1125.395
25.921	26.771	1379.056	1124.523
26.936	26.828	1377.914	1123.845
27.950	26.769	1377.127	1122.740
28.965	26.699	1376.210	1121.461
29.980	26.761	1374.614	1120.445
30.994	26.772	1373.296	1119.338
32.009	26.748	1372.697	1118.599
33.023	26.782	1371.375	1117.634
34.038	26.772	1370.369	1116.658
35.053	26.686	1369.474	1115.295
36.067	26.729	1368.388	1114.581
37.082	26.721	1367.868	1114.007
38.096	26.841	1366.408	1113.455
39.111	26.661	1366.140	1112.035
40.126	26.731	1365.729	1112.031
41.140	26.764	1364.310	1110.982
42.155	26.819	1363.913	1110.897
43.169	26.823	1364.264	1111.109
44.184	26.666	1364.252	1110.037
45.199	26.769	1363.264	1109.766
46.213	26.710	1363.031	1109.117
47.228	26.755	1361.660	1108.179
48.242	26.787	1361.099	1107.819
49.257	26.793	1359.260	1106.262
50.271	26.720	1357.877	1104.593
51.286	26.693	1356.906	1103.541
52.301	26.742	1355.274	1102.413
53.315	26.727	1354.737	1101.789
54.330	26.740	1353.965	1101.142
55.344	26.773	1352.293	1099.882
56.359	26.762	1351.462	1099.043
57.374	26.885	1350.648	1099.031
58.388	26.886	1350.025	1098.434
59.403	26.828	1349.739	1097.750
60.417	26.610	1349.928	1096.490
61.432	26.785	1348.336	1096.157
62.447	26.799	1347.477	1095.445
63.461	26.841	1346.594	1094.883
64.476	26.704	1345.937	1093.426
65.490	26.820	1344.240	1092.652
66.505	26.792	1342.806	1091.219
67.520	26.871	1341.249	1090.331
68.534	26.825	1340.537	1089.379
69.549	26.776	1339.703	1088.315
70.563	26.800	1338.778	1087.609
71.578	26.853	1338.019	1087.212
72.593	26.814	1337.212	1086.231
73.607	26.776	1336.716	1085.504
74.622	26.776	1336.072	1084.881
75.636	26.710	1335.222	1083.703
76.651	26.876	1333.859	1083.491
77.666	26.731	1333.881	1082.545
78.680	26.741	1333.311	1082.045
79.695	26.761	1332.732	1081.601
80.709	26.726	1332.174	1080.841
81.724	26.796	1330.811	1080.058
82.739	26.786	1330.078	1079.311
83.753	26.724	1329.108	1078.062
84.768	26.713	1328.147	1077.121
85.782	26.879	1327.129	1077.182
86.797	26.819	1325.592	1075.484
87.812	26.796	1324.521	1074.385
88.826	26.795	1323.715	1073.631
89.841	26.820	1322.840	1072.974
90.855	26.838	1321.612	1071.987
91.870	26.836	1320.498	1070.981
92.884	26.821	1320.255	1070.595
93.899	26.906	1319.147	1070.105
94.914	26.874	1318.581	1069.360
95.928	26.938	1318.092	1069.248
96.943	26.805	1317.248	1067.685
97.957	26.830	1316.185	1066.877
98.972	26.797	1315.688	1066.187
99.987	26.824	1314.351	1065.167
101.001	26.862	1313.499	1064.603
102.016	26.828	1312.586	1063.570
103.030	26.774	1312.044	1062.723
104.045	26.823	1311.126	1062.174
105.060	26.880	1310.113	1061.590
106.074	26.808	1309.376	1060.481
107.089	26.845	1308.117	1059.579
108.103	26.918	1306.867	1058.898
109.118	26.986	1305.866	1058.393
110.133	27.027	1304.895	1057.749
111.147	26.837	1304.251	1056.031
112.162	26.881	1302.963	1055.148
113.176	26.869	1302.073	1054.262
114.191	27.017	1300.694	1053.913
115.206	26.950	1300.139	1052.981
116.220	26.882	1299.109	1051.663
117.235	26.913	1297.929	1050.793
118.249	26.894	1297.271	1050.054
119.264	26.933	1296.086	1049.233
120.279	26.845	1295.947	1048.516
121.293	27.095	1294.618	1048.789
122.308	26.984	1294.065	1047.608
123.322	26.782	1293.975	1046.279
124.337	26.983	1292.635	1046.263
125.352	26.975	1291.718	1045.383
126.366	27.037	1290.699	1044.820
127.381	27.019	1289.738	1043.846
128.395	27.021	1288.678	1042.909
129.410	27.023	1287.714	1042.046
130.424	27.066	1287.159	1041.749
131.439	27.003	1286.637	1040.875
132.454	26.948	1286.034	1039.979
133.468	26.909	1285.337	1039.101
134.483	27.013	1284.905	1039.259
135.497	26.983	1283.862	1038.148
136.512	26.869	1282.962	1036.676
137.527	26.882	1281.537	1035.512
138.541	27.020	1280.070	1035.018
139.556	26.925	1278.960	1033.490
140.570	26.898	1278.767	1033.090
141.585	26.877	1277.837	1032.125
142.600	26.910	1276.125	1030.840
143.614	26.922	1275.576	1030.370
144.629	26.945	1274.730	1029.726
145.643	26.822	1273.332	1027.811
146.658	26.864	1272.386	1027.192
147.673	26.846	1271.812	1026.539
148.687	26.774	1270.814	1025.235
149.702	26.803	1269.379	1024.151
150.716	26.809	1268.668	1023.520
151.731	26.899	1267.767	1023.207
152.746	26.901	1266.642	1022.225
153.760	26.943	1265.861	1021.737
154.775	26.932	1264.573	1020.547
155.789	27.003	1263.446	1019.945
156.804	27.004	1262.752	1019.303
157.819	26.885	1262.293	1018.171
158.833	26.913	1261.438	1017.546
159.848	27.045	1260.279	1017.261
160.862	26.966	1260.055	1016.547
161.877	27.029	1258.757	1015.767
162.892	27.037	1257.748	1014.907
163.906	27.006	1257.501	1014.441
164.921	27.125	1256.570	1014.268
165.935	26.954	1255.929	1012.703
166.950	27.098	1255.413	1013.006
167.964	27.167	1254.750	1012.764
168.979	27.098	1254.219	1011.861
169.994	27.069	1253.387	1010.937
171.008	27.013	1253.156	1010.349
172.023	27.155	1251.909	1010.047
173.037	27.116	1251.593	1009.482
174.052	27.018	1251.004	1008.375
175.067	27.056	1249.952	1007.651
176.081	27.091	1249.255	1007.192
177.096	27.083	1248.171	1006.186
178.110	27.121	1247.527	1005.789
179.125	27.142	1246.462	1004.954
180.140	27.144	1245.334	1003.970
181.154	26.988	1244.621	1002.441
182.169	27.023	1243.547	1001.682
183.183	27.032	1242.308	1000.646
184.198	27.032	1241.828	1000.172
185.213	27.161	1240.704	999.889
186.227	27.194	1239.443	998.961
187.242	27.182	1238.679	998.195
188.256	27.210	1237.904	997.634
189.271	27.182	1236.873	996.561
190.286	27.188	1236.626	996.307
191.300	27.148	1235.731	995.280
192.315	27.102	1235.529	994.777
193.329	27.154	1234.902	994.470
194.344	27.229	1234.586	994.535
195.359	27.210	1234.464	994.244
196.373	27.106	1233.434	992.758
197.388	27.122	1233.311	992.659
198.402	27.157	1232.685	992.259
199.417	27.048	1232.529	991.452
200.432	27.156	1231.982	991.512
201.446	27.213	1230.718	990.717
202.461	27.096	1230.663	989.947
203.475	27.216	1229.503	989.582
204.490	27.114	1228.623	988.231
205.504	27.153	1227.734	987.640
206.519	27.179	1226.959	987.073
207.534	27.248	1225.677	986.329
208.548	27.077	1225.499	985.166
209.563	27.255	1224.208	985.009
210.577	27.272	1223.432	984.390
211.592	27.281	1222.471	983.575
212.607	27.317	1221.692	983.058
213.621	27.299	1221.056	982.359
214.636	27.366	1220.173	981.926
215.650	27.225	1219.465	980.510
216.665	27.316	1218.089	979.806
217.680	27.167	1218.207	979.008
218.694	27.260	1217.422	978.793
219.709	27.277	1216.140	977.770
220.723	27.317	1215.752	977.582
221.738	27.225	1214.877	976.300
222.753	27.267	1214.002	975.736
223.767	27.314	1213.470	975.475
224.782	27.348	1212.718	974.964
225.796	27.423	1212.408	975.033
226.811	27.479	1211.402	974.437
227.826	27.423	1211.374	974.029
228.840	27.368	1210.683	973.092
229.855	27.363	1210.188	972.579
230.869	27.349	1209.476	971.847
231.884	27.409	1208.384	971.204
232.899	27.359	1207.976	970.526
233.913	27.420	1207.196	970.139
234.928	27.523	1206.732	970.225
235.942	27.581	1205.910	969.789
236.957	27.538	1205.746	969.340
237.972	27.344	1205.331	967.889
238.986	27.489	1204.317	967.761
240.001	27.493	1203.640	967.151
241.015	27.485	1203.016	966.525
242.030	27.532	1202.316	966.124
243.045	27.567	1201.121	965.266
244.059	27.571	1200.382	964.605
245.074	27.645	1199.470	964.182
246.088	27.641	1198.687	963.444
247.103	27.678	1198.004	963.006
248.117	27.553	1197.305	961.698
249.132	27.457	1196.868	960.754
250.147	27.541	1196.147	960.535
251.161	27.643	1195.157	960.191
252.176	27.616	1194.966	959.809
253.190	27.558	1194.352	958.928
254.205	27.627	1193.365	958.411
255.220	27.657	1192.669	957.927
256.234	27.653	1192.181	957.432
257.249	27.669	1191.787	957.111
258.263	27.602	1191.130	956.150
259.278	27.645	1190.300	955.623
260.293	27.780	1189.834	955.871
261.307	27.685	1189.665	955.153
262.322	27.670	1189.065	954.510
263.336	27.608	1188.050	953.284
264.351	27.641	1187.750	953.133
265.366	27.688	1187.236	952.881
266.380	27.765	1185.924	952.148
267.395	27.826	1185.411	951.970
268.409	27.732	1185.210	951.234
269.424	27.680	1184.438	950.258
270.439	27.675	1184.270	950.013
271.453	27.761	1183.110	949.444
272.468	27.736	1182.328	948.602
273.482	27.734	1181.876	948.145
274.497	27.661	1181.451	947.341
275.512	27.771	1181.105	947.554
276.526	27.823	1180.443	947.209
277.541	27.868	1179.358	946.489
278.555	27.864	1179.005	946.101
279.570	27.709	1178.426	944.749
280.585	27.752	1177.514	944.157
281.599	27.810	1176.450	943.518
282.614	27.962	1175.262	943.266
283.628	27.890	1174.849	942.481
284.643	27.945	1174.171	942.137
285.657	27.843	1173.517	941.004
286.672	27.826	1172.627	940.121
287.687	27.804	1171.930	939.364
288.701	27.834	1171.218	938.863
289.716	27.909	1170.288	938.422
290.730	27.993	1169.432	938.083
291.745	28.066	1168.870	937.925
292.760	28.004	1168.698	937.386
293.774	27.955	1167.755	936.291
294.789	28.005	1167.296	936.099
295.803	27.974	1166.986	935.607
296.818	28.004	1165.838	934.758
297.833	27.911	1165.162	933.660
298.847	28.051	1164.894	934.077
299.862	28.205	1163.393	933.577
300.876	28.093	1163.606	933.094
301.891	28.066	1163.000	932.385
302.906	28.151	1161.557	931.582
303.920	28.169	1161.407	931.468
304.935	28.120	1161.059	930.860
305.949	28.158	1160.213	930.292
306.964	28.046	1160.182	929.612
307.979	28.121	1158.930	928.909
308.993	28.009	1158.606	927.998
310.008	28.149	1157.733	927.930
311.022	28.112	1157.126	927.174
312.037	28.142	1156.362	926.631
313.052	28.142	1155.667	925.990
314.066	28.153	1154.453	924.989
315.081	28.210	1153.396	924.351
316.095	28.268	1153.118	924.341
317.110	28.213	1152.600	923.562
318.125	28.168	1151.941	922.727
319.139	28.143	1151.487	922.154
320.154	28.190	1150.955	921.886
321.168	28.237	1150.338	921.545
322.183	28.096	1149.854	920.367
323.197	28.273	1149.156	920.618
324.212	28.221	1148.375	919.647
325.227	28.250	1148.302	919.653
326.241	28.275	1147.287	918.887
327.256	28.251	1146.525	918.072
328.270	28.252	1146.143	917.692
329.285	28.264	1145.276	916.974
330.300	28.222	1144.856	916.349
331.314	28.283	1143.561	915.536
332.329	28.316	1142.847	915.048
333.343	28.413	1142.231	914.960
334.358	28.452	1141.318	914.340
335.373	28.424	1140.964	913.837
336.387	28.592	1139.658	913.549
337.402	28.400	1139.094	912.060
338.416	28.511	1138.520	912.071
339.431	28.474	1138.280	911.614
340.446	28.312	1137.987	910.491
341.460	28.512	1136.976	910.598
342.475	28.647	1136.045	910.441
343.489	28.519	1135.337	909.156
344.504	28.625	1133.906	908.455
345.519	28.546	1133.372	907.558
346.533	28.468	1133.198	906.954
347.548	28.594	1131.973	906.514
348.562	28.554	1131.311	905.706
349.577	28.604	1130.590	905.294
350.592	28.448	1129.803	903.816
351.606	28.540	1129.192	903.701
352.621	28.502	1129.041	903.310
353.635	28.504	1128.602	902.893
354.650	28.589	1127.690	902.501
355.665	28.599	1127.013	901.924
356.679	28.758	1126.229	901.998
357.694	28.726	1125.727	901.360
358.708	28.716	1125.236	900.842
359.723	28.640	1124.365	899.692
360.738	28.636	1123.560	898.947
361.752	28.713	1123.211	898.964
362.767	28.713	1122.774	898.536
363.781	28.681	1122.296	897.916
364.796	28.686	1121.797	897.461
365.810	28.778	1121.145	897.313
366.825	28.850	1120.427	897.007
367.840	28.817	1120.023	896.442
368.854	29.009	1118.950	896.443
369.869	28.774	1118.763	895.067
370.883	28.760	1118.263	894.519
371.898	28.867	1116.939	893.901
372.913	28.783	1116.538	893.093
373.927	28.838	1116.245	893.050
374.942	28.954	1115.494	892.933
375.956	28.979	1115.113	892.669
376.971	28.808	1114.682	891.416
377.986	28.827	1114.131	890.989
379.000	28.953	1113.609	891.100
380.015	28.950	1113.070	890.575
381.029	29.003	1112.053	889.944
382.044	28.913	1111.815	889.236
383.059	29.027	1111.101	889.139
384.073	29.015	1110.446	888.479
385.088	28.968	1109.381	887.321
386.102	28.933	1108.387	886.278
387.117	29.028	1107.752	886.148
388.132	28.946	1106.996	885.071
389.146	28.842	1106.762	884.305
390.161	28.985	1105.946	884.260
391.175	29.046	1105.020	883.737
392.190	29.096	1104.740	883.676
393.205	29.077	1103.566	882.565
394.219	29.145	1103.259	882.569
395.234	29.145	1102.694	882.036
396.248	29.060	1101.630	880.703
397.263	29.120	1100.527	880.031
398.278	29.167	1100.193	879.911
399.292	29.197	1099.710	879.587
400.307	29.224	1099.240	879.262
401.321	29.217	1098.765	878.772
402.336	29.146	1097.846	877.619
403.350	29.201	1097.195	877.286
404.365	29.238	1096.465	876.799
405.380	29.236	1095.661	876.068
406.394	29.348	1094.588	875.665
407.409	29.394	1093.933	875.284
408.423	29.382	1093.117	874.498
409.438	29.309	1092.800	873.819
410.453	29.217	1092.239	872.858
411.467	29.411	1091.873	873.406
412.482	29.267	1091.074	872.006
413.496	29.242	1090.626	871.453
414.511	29.344	1089.622	871.059
415.526	29.367	1089.329	870.856
416.540	29.261	1088.709	869.783
417.555	29.460	1088.284	870.306
418.569	29.391	1088.258	869.879
419.584	29.412	1087.148	869.015
420.599	29.461	1087.262	869.259
421.613	103.414	1323.294	1459.795
422.628	96.274	1357.646	1459.902
