DTS Sentinel unit serial number:	SN413079Multiplexer serial number:	ORYXHardware model number:	OX4-SRSoftware version number:	ORYX F/W v4.00 Oryx Data Collector v3.7.2.0data status	okinstallation	princeton_trtdifferential loss correction	single-endedforward channel	channel 2reverse channel	N/Adate	2019/09/17time	08:47:35forward acquisition time	60.00reverse acquisition time	0.00gamma	496.2192k internal	0.2332k external	0.2332temperature offset calibration	0.9980default loss term (dB/km)	0.3790temperature slope calibration	1.0000multiplexer offset coefficient	1.0000multiplexer slope coefficient	1.0000fibre end	0.00T internal ref (°C)	27.80T ext. ref 1 (°C)	0.14T ext. ref 2 (°C)	23.33length (m)	temperature (°C)	Stokes	anti-Stokes-747.200	529.609	0.136	-0.324
-746.185	-200.000	0.013	0.218
-745.171	-107.877	-0.259	-0.057
-744.156	-28.264	-0.333	0.193
-743.142	-115.143	-0.216	0.041
-742.127	-178.290	-0.395	0.009
-741.112	-58.336	0.114	0.050
-740.098	135.010	-0.167	0.218
-739.083	800.000	-0.048	-0.187
-738.069	21.687	-0.055	0.045
-737.054	800.000	-0.022	0.062
-736.039	-200.000	-0.011	-0.122
-735.025	-110.961	0.529	-0.109
-734.010	-200.000	0.009	-0.076
-732.996	800.000	-0.072	-0.234
-731.981	-137.793	0.129	-0.015
-730.966	800.000	0.032	-0.139
-729.952	151.155	0.304	-0.416
-728.937	-18.346	-0.136	-0.085
-727.923	800.000	0.086	-0.274
-726.908	70.919	0.056	0.058
-725.894	-92.753	-0.173	-0.049
-724.879	40.790	-0.183	-0.166
-723.864	748.740	0.033	-0.089
-722.850	-99.859	0.260	-0.065
-721.835	86.982	0.109	-0.122
-720.821	-200.000	-0.054	-0.318
-719.806	800.000	0.082	-0.285
-718.791	-54.630	0.037	-0.017
-717.777	-31.333	-0.146	-0.082
-716.762	-103.649	-0.200	-0.047
-715.748	72.321	-0.135	-0.141
-714.733	167.371	-0.150	-0.215
-713.718	-134.397	0.204	-0.025
-712.704	678.706	0.030	0.078
-711.689	-134.229	-0.225	0.028
-710.675	-65.828	0.256	-0.103
-709.660	329.174	-0.117	0.226
-708.645	-200.000	0.003	0.198
-707.631	591.104	0.018	-0.044
-706.616	151.002	0.026	0.035
-705.602	-24.684	0.281	-0.168
-704.587	-200.000	-0.003	0.076
-703.572	383.526	-0.048	-0.098
-702.558	-65.235	0.149	0.060
-701.543	-200.000	0.001	-0.085
-700.529	-82.408	-0.488	-0.159
-699.514	800.000	-0.085	-0.323
-698.499	-52.595	0.055	0.026
-697.485	-40.160	0.394	0.206
-696.470	731.943	-0.107	0.287
-695.456	-115.967	-0.356	0.067
-694.441	-125.271	-0.227	-0.035
-693.426	-70.795	-0.102	-0.038
-692.412	-200.000	0.051	-0.231
-691.397	8.903	0.327	0.247
-690.383	14.325	0.188	-0.147
-689.368	-21.231	0.073	0.045
-688.354	-132.295	-0.122	0.016
-687.339	-148.022	0.056	0.005
-686.324	-200.000	0.250	-0.001
-685.310	357.429	-0.127	0.255
-684.295	155.778	0.152	0.210
-683.281	2.386	-0.199	0.145
-682.266	20.182	0.070	0.057
-681.251	800.000	-0.093	-0.326
-680.237	800.000	-0.062	-0.245
-679.222	378.960	0.071	0.147
-678.208	-62.035	0.225	-0.094
-677.193	-76.243	-0.133	0.047
-676.178	-24.571	0.346	-0.207
-675.164	2.102	0.091	-0.066
-674.149	-113.831	-0.211	-0.041
-673.135	101.087	-0.153	0.178
-672.120	-200.000	0.026	0.230
-671.105	-60.126	-0.151	-0.065
-670.091	800.000	0.090	0.287
-669.076	90.140	0.117	-0.131
-668.062	-143.148	0.125	0.012
-667.047	-122.117	-0.237	0.039
-666.032	-55.636	0.278	0.125
-665.018	-200.000	0.006	0.109
-664.003	200.499	-0.207	0.318
-662.989	261.988	-0.126	-0.219
-661.974	97.847	0.122	0.141
-660.959	553.043	0.121	-0.291
-659.945	418.778	-0.039	-0.083
-658.930	-120.257	0.242	-0.041
-657.916	-158.868	0.318	0.018
-656.901	-200.000	0.001	-0.054
-655.886	800.000	-0.114	-0.354
-654.872	-64.731	-0.069	-0.028
-653.857	-130.367	-0.141	-0.019
-652.843	-65.388	-0.029	0.012
-651.828	167.738	-0.284	-0.405
-650.814	257.760	0.059	-0.103
-649.799	800.000	-0.044	0.158
-648.784	-127.886	0.167	-0.024
-647.770	-88.147	0.266	0.080
-646.755	-32.984	0.148	0.083
-645.741	-178.745	-0.121	-0.003
-644.726	94.906	-0.085	0.097
-643.711	-144.408	0.192	0.018
-642.697	379.758	0.080	-0.164
-641.682	-8.944	0.240	-0.161
-640.668	-139.518	-0.504	-0.054
-639.653	800.000	-0.161	-0.516
-638.638	-21.572	0.176	-0.107
-637.624	-158.400	0.372	-0.022
-636.609	-200.000	-0.005	0.272
-635.595	480.280	0.077	-0.175
-634.580	-104.528	-0.460	0.106
-633.565	66.113	0.220	-0.224
-632.551	-25.482	-0.207	0.123
-631.536	-200.000	-0.003	0.116
-630.522	143.925	-0.086	0.115
-629.507	310.136	-0.064	0.120
-628.492	-142.302	-0.166	0.016
-627.478	16.176	0.261	0.206
-626.463	87.438	-0.214	-0.237
-625.449	106.132	0.148	0.176
-624.434	-47.659	0.043	0.021
-623.419	99.566	0.279	0.323
-622.405	800.000	0.045	-0.125
-621.390	-54.547	0.085	-0.039
-620.376	-19.948	-0.197	-0.122
-619.361	-59.609	-0.055	-0.024
-618.346	-62.730	-0.268	0.111
-617.332	-110.142	-0.214	-0.045
-616.317	-200.000	-0.003	-0.099
-615.303	-200.000	-0.003	-0.344
-614.288	-114.463	0.211	-0.041
-613.273	20.830	0.205	-0.166
-612.259	-200.000	-0.035	-0.198
-611.244	251.850	-0.168	-0.287
-610.230	38.370	0.101	-0.090
-609.215	-25.705	0.195	0.115
-608.201	117.025	-0.177	-0.218
-607.186	800.000	-0.043	-0.155
-606.171	266.277	-0.133	0.233
-605.157	415.375	0.094	0.200
-604.142	397.023	0.110	-0.231
-603.128	63.582	0.196	-0.197
-602.113	-9.208	-0.119	0.080
-601.098	-155.219	0.285	0.019
-600.084	-200.000	0.019	-0.243
-599.069	499.024	-0.109	-0.251
-598.055	34.231	0.239	-0.208
-597.040	-58.917	0.075	0.032
-596.025	-18.909	-0.155	0.097
-595.011	66.334	0.072	-0.074
-593.996	800.000	0.075	0.263
-592.982	20.526	0.103	-0.084
-591.967	-92.938	0.484	0.135
-590.952	-6.784	-0.187	-0.127
-589.938	78.563	-0.170	-0.181
-588.923	-5.310	0.211	-0.145
-587.909	800.000	-0.037	-0.133
-586.894	154.554	-0.150	-0.206
-585.879	-92.983	0.385	0.107
-584.865	-94.347	-0.111	0.030
-583.850	-94.274	0.268	-0.073
-582.836	-200.000	-0.027	0.289
-581.821	-52.707	0.083	-0.038
-580.806	-56.215	-0.210	0.094
-579.792	143.470	-0.191	0.254
-578.777	-200.000	-0.017	-0.253
-577.763	-200.000	0.009	-0.144
-576.748	-121.410	-0.276	-0.046
-575.733	13.886	-0.337	-0.262
-574.719	165.039	0.081	0.114
-573.704	206.285	-0.042	0.065
-572.690	49.828	-0.095	0.089
-571.675	-55.373	0.271	0.122
-570.661	295.225	0.015	0.027
-569.646	-200.000	-0.005	0.033
-568.631	59.841	0.082	0.080
-567.617	-78.243	0.057	0.020
-566.602	-88.039	-0.344	0.103
-565.588	-129.047	-0.358	0.050
-564.573	692.621	0.101	-0.266
-563.558	-118.503	-0.131	-0.023
-562.544	543.717	-0.126	-0.301
-561.529	333.125	-0.078	-0.151
-560.515	-138.955	-0.311	0.034
-559.500	-105.937	-0.158	-0.036
-558.485	677.736	-0.078	0.202
-557.471	-200.000	0.001	0.121
-556.456	-80.570	-0.342	0.114
-555.442	274.163	-0.029	0.052
-554.427	-200.000	0.033	-0.188
-553.412	-67.184	-0.071	0.028
-552.398	800.000	-0.078	-0.223
-551.383	466.814	0.064	0.144
-550.369	656.262	-0.076	0.196
-549.354	258.744	0.185	0.318
-548.339	25.899	-0.204	0.169
-547.325	-2.601	0.281	-0.196
-546.310	134.924	-0.126	-0.164
-545.296	-108.991	-0.072	0.015
-544.281	88.458	0.216	-0.240
-543.266	-154.867	-0.369	0.024
-542.252	101.405	0.148	0.172
-541.237	-200.000	-0.013	0.074
-540.223	-156.596	-0.313	-0.019
-539.208	497.201	0.059	-0.137
-538.193	411.978	0.180	0.381
-537.179	3.772	0.110	-0.080
-536.164	31.078	0.080	0.068
-535.150	127.376	0.155	-0.197
-534.135	-102.064	0.106	0.026
-533.121	-103.458	-0.434	-0.102
-532.106	31.870	0.273	-0.235
-531.091	800.000	0.083	-0.260
-530.077	109.486	0.058	-0.069
-529.062	-200.000	-0.009	-0.069
-528.048	800.000	-0.049	-0.139
-527.033	-111.150	0.066	-0.013
-526.018	-39.812	-0.103	0.054
-525.004	800.000	-0.069	0.289
-523.989	800.000	-0.075	0.232
-522.975	-102.630	-0.160	0.038
-521.960	800.000	0.050	0.166
-520.945	-189.973	-0.096	-0.001
-519.931	25.260	-0.204	0.169
-518.916	90.320	-0.143	0.159
-517.902	270.966	-0.117	-0.205
-516.887	174.735	0.079	0.114
-515.872	79.269	0.247	0.264
-514.858	800.000	-0.045	0.184
-513.843	106.490	0.015	-0.018
-512.829	116.572	0.065	0.080
-511.814	57.158	0.195	-0.190
-510.799	10.952	-0.202	-0.154
-509.785	-200.000	-0.012	-0.078
-508.770	186.228	0.224	0.332
-507.756	-114.830	0.125	-0.024
-506.741	800.000	0.095	-0.358
-505.726	-6.441	-0.205	0.139
-504.712	-174.488	0.370	-0.011
-503.697	-44.262	0.114	-0.057
-502.683	-169.176	-0.071	0.003
-501.668	95.437	0.128	0.145
-500.653	-133.429	0.238	0.030
-499.639	-83.396	-0.176	0.056
-498.624	-142.659	-0.096	-0.009
-497.610	-41.516	0.339	-0.174
-496.595	7.958	0.056	0.042
-495.581	-48.322	-0.283	-0.136
-494.566	421.307	0.062	-0.132
-493.551	-9.356	0.176	0.117
-492.537	-72.324	-0.446	-0.165
-491.522	-200.000	0.027	0.217
-490.508	-200.000	-0.050	-0.241
-489.493	-50.386	0.320	0.150
-488.478	9.073	-0.148	-0.111
-487.464	-173.002	0.325	0.010
-486.449	405.117	0.098	-0.205
-485.435	23.383	-0.093	-0.076
-484.420	-112.588	-0.324	0.064
-483.405	258.043	0.137	-0.235
-482.391	23.418	0.234	0.192
-481.376	-200.000	-0.000	0.069
-480.362	-200.000	0.001	-0.348
-479.347	-200.000	0.011	0.334
-478.332	-174.601	0.260	0.007
-477.318	188.642	-0.055	-0.082
-476.303	-64.261	-0.181	0.073
-475.289	762.034	-0.055	0.150
-474.274	670.383	-0.073	0.188
-473.259	-16.596	-0.119	-0.075
-472.245	-200.000	-0.011	0.062
-471.230	53.300	-0.274	0.261
-470.216	-36.486	0.295	-0.158
-469.201	-72.916	-0.122	-0.045
-468.186	-200.000	0.018	-0.121
-467.172	157.180	-0.009	0.013
-466.157	-200.000	0.037	-0.447
-465.143	220.674	0.246	-0.393
-464.128	-94.562	0.242	-0.065
-463.113	-200.000	0.029	0.177
-462.099	238.539	0.161	0.266
-461.084	-132.213	0.480	0.062
-460.070	-200.000	-0.017	0.272
-459.055	-48.525	0.078	-0.037
-458.040	407.266	0.147	0.308
-457.026	302.982	-0.120	0.221
-456.011	-25.959	-0.076	-0.044
-454.997	155.531	0.211	0.289
-453.982	300.079	-0.089	0.164
-452.968	-111.052	0.226	-0.046
-451.953	162.549	-0.122	0.171
-450.938	-70.130	0.240	0.091
-449.924	-95.832	-0.057	0.015
-448.909	123.314	-0.110	-0.137
-447.895	115.073	0.034	-0.042
-446.880	77.350	-0.139	-0.147
-445.865	-35.546	0.236	-0.127
-444.851	-130.168	-0.274	-0.037
-443.836	-12.510	-0.246	-0.160
-442.822	-35.403	-0.228	0.123
-441.807	-200.000	0.019	0.170
-440.792	42.258	0.209	-0.189
-439.778	-200.000	0.001	0.070
-438.763	24.440	-0.069	0.057
-437.749	390.004	-0.127	-0.262
-436.734	-3.375	-0.105	-0.073
-435.719	309.151	-0.211	0.391
-434.705	-200.000	-0.001	0.156
-433.690	-72.112	-0.309	0.114
-432.676	-148.900	0.235	0.019
-431.661	145.581	-0.205	-0.273
-430.646	-144.617	0.093	0.009
-429.632	92.942	0.080	0.090
-428.617	253.517	-0.139	-0.236
-427.603	500.921	0.129	-0.295
-426.588	173.128	-0.128	-0.183
-425.573	-13.836	0.160	0.103
-424.559	-200.000	0.025	0.289
-423.544	312.810	-0.024	-0.044
-422.530	-42.273	-0.113	0.057
-421.515	-104.229	-0.118	-0.027
-420.500	6.592	0.081	-0.060
-419.486	437.998	0.113	-0.245
-418.471	539.116	0.063	-0.149
-417.457	-29.788	0.107	0.060
-416.442	281.487	-0.071	0.126
-415.428	800.000	0.090	0.387
-414.413	-12.179	-0.129	0.084
-413.398	-200.000	0.015	-0.194
-412.384	4.671	0.138	-0.101
-411.369	-103.068	0.226	0.053
-410.355	-127.592	0.158	0.023
-409.340	168.560	-0.235	0.333
-408.325	-91.969	0.236	-0.066
-407.311	-130.061	-0.170	-0.023
-406.296	-200.000	-0.007	-0.152
-405.282	128.260	-0.065	0.083
-404.267	138.180	0.134	0.174
-403.252	-200.000	0.039	-0.201
-402.238	46.768	-0.025	0.023
-401.223	373.208	0.074	0.149
-400.209	800.000	-0.054	-0.213
-399.194	-200.000	0.037	-0.266
-398.179	-126.804	-0.360	-0.053
-397.165	81.416	0.077	0.083
-396.150	-13.819	-0.176	0.113
-395.136	800.000	0.040	0.147
-394.121	13.769	0.037	-0.029
-393.106	-113.968	-0.243	-0.047
-392.092	800.000	-0.062	0.196
-391.077	-105.247	-0.372	-0.084
-390.063	23.783	0.058	-0.047
-389.048	128.910	-0.299	-0.378
-388.033	-200.000	0.006	0.215
-387.019	49.469	-0.136	0.127
-386.004	-39.025	-0.050	-0.026
-384.990	109.872	-0.054	0.064
-383.975	654.284	-0.026	-0.065
-382.960	406.918	-0.027	0.056
-381.946	145.395	-0.178	-0.236
-380.931	-97.176	0.074	0.019
-379.917	-145.685	-0.106	0.009
-378.902	-200.000	0.038	0.185
-377.888	-65.198	0.064	0.025
-376.873	132.241	-0.126	0.161
-375.858	-139.431	0.206	0.022
-374.844	800.000	0.083	-0.279
-373.829	800.000	-0.062	0.172
-372.815	-28.926	0.304	0.173
-371.800	-100.085	-0.123	0.030
-370.785	800.000	-0.094	-0.258
-369.771	-86.550	-0.048	-0.015
-368.756	-200.000	0.005	0.075
-367.742	135.668	-0.143	-0.184
-366.727	-78.949	0.361	-0.122
-365.712	-200.000	0.096	0.420
-364.698	800.000	0.130	0.439
-363.683	136.593	-0.044	0.057
-362.669	-126.935	0.187	0.027
-361.654	-48.503	0.155	0.074
-360.639	800.000	-0.013	-0.052
-359.625	-200.000	0.004	0.151
-358.610	12.349	-0.130	-0.099
-357.596	91.319	-0.221	0.246
-356.581	280.410	-0.183	-0.324
-355.566	-35.659	0.238	0.128
-354.552	155.920	-0.130	0.178
-353.537	800.000	0.108	-0.295
-352.523	65.354	-0.184	-0.185
-351.508	213.231	0.076	0.119
-350.493	-91.106	-0.089	-0.025
-349.479	323.559	-0.055	-0.104
-348.464	194.743	0.102	0.154
-347.450	149.608	-0.243	-0.327
-346.435	30.718	0.236	-0.200
-345.420	-36.996	-0.108	-0.057
-344.406	192.536	-0.104	0.156
-343.391	628.634	0.112	0.280
-342.377	229.455	-0.126	0.204
-341.362	303.520	-0.193	-0.354
-340.348	-15.614	0.283	-0.179
-339.333	-20.540	0.300	-0.183
-338.318	339.865	-0.045	0.087
-337.304	44.582	-0.118	-0.108
-336.289	-166.917	-0.048	-0.002
-335.275	-167.043	0.208	-0.008
-334.260	-15.522	-0.150	-0.095
-333.245	137.153	0.130	-0.168
-332.231	-154.977	0.277	0.018
-331.216	77.560	0.068	-0.072
-330.202	10.372	-0.293	-0.221
-329.187	-200.000	-0.019	0.326
-328.172	-200.000	-0.047	0.319
-327.158	800.000	-0.171	0.555
-326.143	-200.000	-0.006	0.199
-325.129	81.494	-0.122	0.131
-324.114	166.439	-0.092	-0.129
-323.099	-161.928	0.194	0.010
-322.085	-59.368	0.142	-0.060
-321.070	-200.000	0.048	-0.271
-320.056	61.750	-0.031	-0.031
-319.041	-85.463	0.278	-0.086
-318.026	-97.375	0.185	0.048
-317.012	174.458	0.078	0.111
-315.997	281.354	0.101	-0.179
-314.983	238.089	-0.105	-0.173
-313.968	220.554	0.100	0.159
-312.953	123.569	0.211	0.262
-311.939	267.750	0.023	0.039
-310.924	433.289	0.099	0.212
-309.910	-89.690	0.229	-0.066
-308.895	-200.000	-0.041	-0.471
-307.880	-107.697	-0.311	0.067
-306.866	361.813	-0.082	-0.163
-305.851	-200.000	0.024	0.255
-304.837	487.554	-0.025	-0.057
-303.822	-77.961	0.104	-0.035
-302.807	-105.959	-0.387	0.086
-301.793	197.860	0.063	0.096
-300.778	7.064	0.093	-0.069
-299.764	82.618	0.073	-0.079
-298.749	-86.728	-0.241	0.073
-297.735	-136.019	-0.159	-0.018
-296.720	27.645	-0.086	-0.072
-295.705	459.759	0.064	-0.141
-294.691	-200.000	-0.030	0.257
-293.676	-183.699	-0.481	0.008
-292.662	225.518	0.047	0.076
-291.647	63.241	-0.162	-0.161
-290.632	32.854	-0.177	-0.151
-289.618	322.817	-0.244	-0.459
-288.603	800.000	0.046	-0.182
-287.589	-200.000	-0.004	-0.127
-286.574	-7.673	-0.094	0.063
-285.559	-77.716	-0.154	-0.053
-284.545	273.392	0.039	0.068
-283.530	216.023	0.166	-0.261
-282.516	-105.565	-0.163	-0.037
-281.501	-82.630	0.086	-0.027
-280.486	-85.062	-0.380	0.118
-279.472	-62.162	-0.229	-0.095
-278.457	124.183	-0.063	0.078
-277.443	54.685	0.165	-0.157
-276.428	-200.000	0.032	-0.234
-275.413	-5.936	0.198	0.134
-274.399	-200.000	0.013	-0.111
-273.384	49.905	-0.134	0.124
-272.370	207.976	0.125	0.193
-271.355	800.000	0.092	0.319
-270.340	-73.895	0.018	0.007
-269.326	800.000	-0.028	0.090
-268.311	800.000	0.091	0.304
-267.297	-200.000	0.002	-0.030
-266.282	-149.767	0.203	0.016
-265.267	6.870	-0.123	0.090
-264.253	102.055	0.081	-0.094
-263.238	-55.083	0.376	0.167
-262.224	24.218	-0.291	-0.237
-261.209	800.000	0.058	-0.172
-260.195	151.358	0.139	0.186
-259.180	22.917	0.019	0.015
-258.165	-28.988	-0.068	-0.038
-257.151	-103.941	0.786	-0.181
-256.136	-200.000	-0.018	-0.609
-255.122	437.036	-0.189	-0.406
-254.107	95.988	0.176	0.199
-253.092	-200.000	0.014	-0.083
-252.078	-51.220	0.272	-0.126
-251.063	-200.000	0.000	0.063
-250.049	74.757	-0.170	-0.176
-249.034	189.613	-0.108	0.160
-248.019	118.954	-0.026	0.031
-247.005	-200.000	-0.036	0.440
-245.990	-200.000	-0.030	-0.137
-244.976	-45.517	0.438	0.214
-243.961	-200.000	0.027	-0.297
-242.946	30.681	-0.092	0.078
-241.932	567.976	-0.167	0.400
-240.917	-53.604	-0.151	-0.068
-239.903	-169.314	-0.095	0.003
-238.888	-67.474	0.115	0.045
-237.873	-38.124	0.234	-0.122
-236.859	49.521	-0.213	0.198
-235.844	-11.751	0.047	0.031
-234.830	88.915	0.058	0.063
-233.815	-31.327	-0.201	-0.112
-232.800	800.000	0.027	-0.085
-231.786	-200.000	0.007	-0.142
-230.771	-146.471	-0.176	0.015
-229.757	-200.000	0.010	0.258
-228.742	109.508	-0.125	-0.148
-227.727	-104.002	0.334	0.077
-226.713	-200.000	-0.269	0.001
-225.698	260.293	-0.094	0.161
-224.684	279.818	-0.107	-0.188
-223.669	43.101	-0.102	0.092
-222.655	-75.480	0.152	-0.053
-221.640	160.452	0.052	0.072
-220.625	17.212	0.131	0.102
-219.611	-200.000	-0.012	-0.053
-218.596	-19.806	-0.205	-0.125
-217.582	135.998	-0.166	-0.213
-216.567	178.575	0.082	0.118
-215.552	-35.388	0.176	0.095
-214.538	163.394	0.148	-0.206
-213.523	-133.199	-0.101	-0.013
-212.509	-106.783	-0.175	0.038
-211.494	-147.991	-0.253	-0.021
-210.479	-183.807	0.095	0.002
-209.465	18.561	0.132	0.104
-208.450	-200.000	-0.028	0.180
-207.436	-171.657	0.098	0.003
-206.421	800.000	0.067	0.278
-205.406	-91.822	-0.437	-0.122
-204.392	-133.082	0.333	0.042
-203.377	-30.002	-0.185	-0.104
-202.363	-200.000	0.039	-0.430
-201.348	326.330	-0.091	-0.172
-200.333	654.836	0.120	0.303
-199.319	447.689	-0.096	-0.209
-198.304	-69.463	0.078	-0.030
-197.290	-95.114	0.060	0.016
-196.275	-200.000	0.087	0.385
-195.260	-200.000	0.006	0.161
-194.246	140.368	-0.153	0.198
-193.231	-200.000	-0.069	0.418
-192.217	221.945	0.142	-0.225
-191.202	800.000	0.078	-0.290
-190.187	12.138	-0.082	-0.062
-189.173	276.522	-0.202	-0.353
-188.158	36.743	0.108	0.094
-187.144	287.218	-0.057	0.102
-186.129	365.866	-0.187	0.371
-185.114	-200.000	0.108	0.553
-184.100	-200.000	-0.007	0.412
-183.085	800.000	-0.123	-0.338
-182.071	-29.318	0.223	0.125
-181.056	-76.008	-0.370	0.129
-180.042	-4.071	0.232	-0.158
-179.027	82.218	0.202	0.216
-178.012	-38.115	0.180	-0.094
-176.998	-101.421	-0.296	-0.071
-175.983	231.410	-0.102	-0.165
-174.969	67.419	0.126	0.126
-173.954	-200.000	0.045	-0.396
-172.939	-136.543	0.258	-0.029
-171.925	800.000	-0.017	-0.061
-170.910	354.238	-0.066	0.129
-169.896	-200.000	0.023	0.515
-168.881	168.354	-0.094	-0.132
-167.866	-84.989	0.244	-0.075
-166.852	105.156	-0.184	0.214
-165.837	-200.000	0.006	-0.145
-164.823	-71.047	0.358	0.133
-163.808	234.501	0.159	-0.258
-162.793	-140.889	0.197	-0.020
-161.779	-200.000	0.043	0.197
-160.764	778.325	-0.135	-0.362
-159.750	-200.000	-0.014	-0.067
-158.735	-110.065	-0.106	-0.022
-157.720	-200.000	-0.001	-0.109
-156.706	-1.226	-0.198	0.138
-155.691	241.331	0.246	0.404
-154.677	59.985	0.401	0.390
-153.662	-80.689	-0.246	-0.081
-152.647	-88.089	-0.371	0.110
-151.633	-129.125	0.333	-0.046
-150.618	101.507	-0.180	0.207
-149.604	-139.020	-0.363	0.039
-148.589	-200.000	0.015	0.094
-147.574	602.197	-0.016	0.039
-146.560	-49.367	0.203	0.095
-145.545	-165.077	-0.135	0.006
-144.531	-172.125	0.171	-0.005
-143.516	-45.050	0.150	-0.073
-142.502	-200.000	0.017	0.095
-141.487	-28.629	0.160	0.090
-140.472	-200.000	-0.007	-0.193
-139.458	67.272	0.036	-0.036
-138.443	-117.280	0.207	0.037
-137.429	-186.274	-0.227	0.003
-136.414	-27.914	-0.313	0.178
-135.399	-45.806	0.067	0.032
-134.385	74.219	0.241	0.249
-133.370	-200.000	-0.053	0.320
-132.356	800.000	-0.081	-0.271
-131.341	800.000	-0.050	0.157
-130.326	800.000	0.087	0.240
-129.312	-88.147	0.138	0.041
-128.297	-200.000	-0.051	-0.296
-127.283	24.245	0.175	0.142
-126.268	800.000	0.088	-0.276
-125.253	36.373	0.037	-0.032
-124.239	-200.000	0.053	0.235
-123.224	-42.568	0.283	-0.141
-122.210	-43.653	0.083	-0.041
-121.195	-81.100	-0.527	0.171
-120.180	-200.000	-0.019	0.090
-119.166	-200.000	-0.009	-0.067
-118.151	-200.000	-0.040	0.266
-117.137	2.381	-0.211	0.150
-116.122	112.633	0.055	-0.065
-115.107	122.133	-0.287	0.351
-114.093	-6.736	-0.143	0.096
-113.078	672.231	0.126	-0.321
-112.064	-200.000	0.111	0.000
-111.049	-34.359	0.147	0.079
-110.034	411.292	0.115	-0.239
-109.020	-131.759	-0.218	-0.028
-108.005	32.608	0.123	0.104
-106.991	174.046	-0.022	-0.031
-105.976	177.925	-0.108	0.155
-104.962	-12.966	0.112	-0.071
-103.947	-106.835	0.090	0.019
-102.932	24.099	0.298	-0.242
-101.918	-200.000	-0.068	0.460
-100.903	374.997	0.033	-0.066
-99.889	7.900	-0.111	0.082
-98.874	800.000	-0.021	0.074
-97.859	-50.217	-0.249	0.116
-96.845	-30.372	0.108	-0.060
-95.830	29.431	-0.332	0.277
-94.816	800.000	-0.076	0.249
-93.801	800.000	0.050	0.164
-92.786	397.219	-0.131	0.268
-91.772	266.728	0.042	-0.072
-90.757	-83.715	-0.250	-0.078
-89.743	186.405	-0.045	-0.066
-88.728	-41.425	0.043	0.021
-87.713	-43.250	0.111	-0.055
-86.699	-41.853	-0.109	0.055
-85.684	800.000	0.009	0.031
-84.670	-22.597	-0.149	-0.089
-83.655	-114.427	-0.047	-0.009
-82.640	184.056	0.121	0.176
-81.626	-42.757	0.048	0.024
-80.611	4.229	0.059	-0.042
-79.597	-106.958	-0.221	-0.048
-78.582	-74.425	-0.203	-0.072
-77.567	800.000	0.080	-0.330
-76.553	-200.000	-0.028	0.225
-75.538	-53.920	0.224	-0.100
-74.524	241.344	0.133	-0.218
-73.509	-200.000	0.007	-0.106
-72.494	-200.000	-0.009	0.096
-71.480	26.452	-0.206	-0.169
-70.465	-200.000	0.004	0.136
-69.451	800.000	0.018	-0.056
-68.436	266.731	0.028	0.047
-67.422	800.000	-0.122	0.372
-66.407	192.471	-0.047	-0.070
-65.392	24.998	0.186	0.151
-64.378	800.000	0.027	-0.105
-63.363	-136.162	0.163	0.019
-62.349	-40.746	-0.337	0.171
-61.334	68.418	-1.018	-1.022
-60.319	67.784	0.542	0.542
-59.305	800.000	-0.370	-1.189
-58.290	117.022	0.851	1.024
-57.276	499.312	0.622	1.404
-56.261	-200.000	111.899	624.884
-55.246	460.846	1506.076	3287.442
-54.232	146.350	2680.714	3524.771
-53.217	97.206	2293.058	2576.976
-52.203	36.895	1902.171	1647.168
-51.188	30.922	1690.861	1418.813
-50.173	28.545	1647.986	1365.117
-49.159	48.843	1702.242	1564.046
-48.144	48.450	1716.288	1573.918
-47.130	30.485	1675.277	1402.213
-46.115	27.796	1661.335	1370.330
-45.100	27.646	1656.278	1364.987
-44.086	27.690	1653.401	1362.891
-43.071	27.510	1650.934	1359.454
-42.057	27.624	1648.766	1358.464
-41.042	27.682	1646.195	1356.726
-40.027	27.718	1644.151	1355.258
-39.013	27.680	1642.102	1353.228
-37.998	27.705	1640.359	1351.926
-36.984	27.721	1639.268	1351.090
-35.969	27.703	1638.131	1349.972
-34.954	27.774	1636.208	1348.855
-33.940	27.763	1634.717	1347.492
-32.925	27.779	1632.600	1345.809
-31.911	27.869	1630.807	1344.944
-30.896	27.764	1629.014	1342.639
-29.881	27.761	1627.821	1341.575
-28.867	27.796	1626.273	1340.504
-27.852	27.886	1624.294	1339.484
-26.838	27.804	1622.745	1337.553
-25.823	27.784	1621.824	1336.593
-24.809	27.778	1621.030	1335.838
-23.794	27.839	1618.725	1334.335
-22.779	27.834	1617.521	1333.250
-21.765	27.782	1615.838	1331.431
-20.750	27.803	1614.271	1330.241
-19.736	27.873	1612.912	1329.582
-18.721	27.820	1611.677	1328.122
-17.706	27.781	1610.498	1326.813
-16.692	27.821	1608.668	1325.543
-15.677	27.836	1607.745	1324.837
-14.663	27.966	1605.795	1324.122
-13.648	27.814	1604.912	1322.239
-12.633	27.822	1603.267	1320.892
-11.619	27.870	1601.615	1319.826
-10.604	27.816	1600.214	1318.231
-9.590	27.828	1598.895	1317.179
-8.575	27.855	1597.650	1316.293
-7.560	27.894	1596.181	1315.308
-6.546	27.783	1595.924	1314.249
-5.531	27.724	1595.026	1313.032
-4.517	27.788	1593.119	1311.872
-3.502	27.833	1591.802	1311.056
-2.487	28.004	1589.860	1310.630
-1.473	27.658	1579.057	1299.208
-0.458	24.895	1560.104	1264.084
0.556	19.971	1561.153	1234.423
1.571	17.740	1585.035	1237.026
2.586	17.303	1597.374	1243.352
3.600	15.891	1544.590	1192.170
4.615	8.865	1435.404	1061.416
5.629	1.735	1372.440	969.492
6.644	0.295	1364.069	954.380
7.659	0.088	1363.016	952.251
8.673	0.116	1361.905	951.565
9.688	0.041	1359.676	949.449
10.702	-0.073	1356.756	946.608
11.717	3.390	1362.435	972.362
12.731	11.552	1374.406	1032.594
13.746	16.680	1381.875	1070.631
14.761	17.219	1380.890	1073.177
15.775	16.302	1378.672	1065.570
16.790	15.193	1376.428	1056.754
17.804	14.379	1374.292	1049.893
18.819	14.218	1372.017	1047.049
19.834	13.791	1371.153	1043.614
20.848	13.608	1369.931	1041.438
21.863	13.312	1368.881	1038.691
22.877	13.168	1367.761	1036.845
23.892	13.098	1366.845	1035.617
24.907	13.164	1365.717	1035.085
25.921	13.108	1365.194	1034.248
26.936	13.217	1363.931	1033.883
27.950	13.216	1362.779	1032.911
28.965	13.285	1362.350	1032.927
29.980	13.371	1361.182	1032.483
30.994	13.413	1360.490	1032.132
32.009	13.425	1359.578	1031.423
33.023	13.390	1358.291	1030.137
34.038	13.320	1356.912	1028.567
35.053	13.249	1356.428	1027.662
36.067	13.287	1355.014	1026.739
37.082	13.358	1354.335	1026.574
38.096	13.351	1353.130	1025.528
39.111	13.415	1352.466	1025.332
40.126	13.267	1351.447	1023.551
41.140	13.144	1350.800	1022.209
42.155	13.191	1350.095	1021.872
43.169	13.197	1350.024	1021.771
44.184	13.156	1349.660	1021.150
45.199	13.094	1349.533	1020.579
46.213	13.233	1348.508	1020.572
47.228	13.248	1347.638	1019.914
48.242	13.308	1346.448	1019.296
49.257	13.277	1344.797	1017.764
50.271	13.270	1343.504	1016.651
51.286	13.311	1342.189	1015.818
52.301	13.239	1341.245	1014.570
53.315	13.370	1339.731	1014.142
54.330	13.145	1339.507	1012.503
55.344	13.190	1338.108	1011.628
56.359	13.178	1337.325	1010.875
57.374	13.234	1336.035	1010.156
58.388	13.113	1335.064	1008.591
59.403	13.102	1334.664	1008.133
60.417	13.076	1334.064	1007.432
61.432	13.065	1333.235	1006.648
62.447	13.033	1332.102	1005.509
63.461	13.066	1330.834	1004.661
64.476	13.059	1329.831	1003.774
65.490	13.008	1328.889	1002.667
66.505	13.189	1327.372	1002.531
67.520	13.142	1325.475	1000.723
68.534	13.182	1324.592	1000.209
69.549	13.154	1323.830	999.381
70.563	13.067	1322.781	997.971
71.578	13.067	1321.937	997.246
72.593	13.073	1320.531	996.136
73.607	13.008	1319.983	995.240
74.622	13.040	1319.393	994.900
75.636	13.014	1318.464	993.955
76.651	13.051	1317.916	993.675
77.666	13.045	1317.149	992.977
78.680	13.096	1316.570	992.758
79.695	13.017	1315.886	991.677
80.709	13.203	1315.087	992.103
81.724	13.071	1314.434	990.734
82.739	13.159	1313.019	990.110
83.753	13.149	1312.491	989.558
84.768	13.298	1310.988	989.231
85.782	13.302	1309.799	988.274
86.797	13.245	1308.781	987.075
87.812	13.246	1307.402	985.954
88.826	13.295	1305.972	985.082
89.841	13.285	1304.991	984.194
90.855	13.257	1304.239	983.373
91.870	13.389	1303.024	983.152
92.884	13.284	1302.914	982.361
93.899	13.390	1301.439	981.792
94.914	13.460	1300.878	981.694
95.928	13.490	1299.539	980.773
96.943	13.435	1299.232	980.130
97.957	13.420	1297.874	978.931
98.972	13.322	1297.384	977.893
99.987	13.400	1295.824	977.093
101.001	13.268	1295.674	976.118
102.016	13.315	1294.412	975.358
103.030	13.390	1293.229	974.822
104.045	13.474	1292.151	974.416
105.060	13.201	1291.980	972.592
106.074	13.228	1290.186	971.316
107.089	13.155	1288.776	969.737
108.103	13.118	1288.043	968.885
109.118	13.192	1286.279	967.909
110.133	13.226	1284.880	966.965
111.147	13.049	1283.968	965.158
112.162	13.155	1282.557	964.632
113.176	13.174	1281.648	963.976
114.191	13.291	1280.355	963.599
115.206	13.253	1279.488	962.640
116.220	13.187	1277.934	961.001
117.235	13.236	1276.768	960.324
118.249	13.289	1275.823	959.835
119.264	13.155	1274.928	958.298
120.279	13.096	1274.178	957.308
121.293	13.161	1273.129	956.816
122.308	13.228	1272.217	956.433
123.322	13.226	1271.107	955.498
124.337	13.257	1269.868	954.667
125.352	13.177	1268.899	953.392
126.366	13.180	1267.721	952.436
127.381	13.101	1267.218	951.523
128.395	13.167	1265.471	950.506
129.410	13.109	1264.973	949.712
130.424	13.217	1263.917	949.454
131.439	13.167	1263.104	948.476
132.454	13.257	1261.978	948.063
133.468	13.335	1260.555	947.356
134.483	13.303	1259.886	946.583
135.497	13.295	1258.989	945.783
136.512	13.307	1257.724	944.817
137.527	13.241	1256.614	943.521
138.541	13.378	1254.639	942.736
139.556	13.327	1253.587	941.573
140.570	13.367	1252.657	941.019
141.585	13.388	1251.453	940.152
142.600	13.299	1250.568	938.894
143.614	13.427	1249.617	938.824
144.629	13.411	1248.358	937.708
145.643	13.417	1247.531	937.037
146.658	13.407	1245.956	935.712
147.673	13.452	1244.263	934.615
148.687	13.353	1243.499	933.395
149.702	13.354	1242.218	932.361
150.716	13.332	1240.804	931.090
151.731	13.397	1239.570	930.452
152.746	13.363	1238.709	929.531
153.760	13.476	1236.920	928.736
154.775	13.584	1235.826	928.441
155.789	13.550	1234.757	927.363
156.804	13.484	1234.034	926.370
157.819	13.565	1233.029	925.986
158.833	13.564	1231.936	925.079
159.848	13.645	1230.830	924.620
160.862	13.629	1230.236	923.998
161.877	13.550	1228.988	922.543
162.892	13.477	1227.722	921.104
163.906	13.398	1227.123	920.132
164.921	13.452	1226.253	919.699
165.935	13.540	1225.244	919.349
166.950	13.557	1224.668	918.928
167.964	13.535	1224.049	918.263
168.979	13.615	1223.259	918.035
169.994	13.504	1222.337	916.642
171.008	13.583	1221.675	916.505
172.023	13.664	1220.492	915.981
173.037	13.704	1219.886	915.671
174.052	13.730	1218.815	914.925
175.067	13.593	1217.962	913.452
176.081	13.592	1217.066	912.694
177.096	13.563	1216.517	912.040
178.110	13.661	1214.876	911.268
179.125	13.656	1213.583	910.191
180.140	13.675	1212.955	909.744
181.154	13.661	1211.373	908.400
182.169	13.767	1209.858	907.761
183.183	13.725	1209.060	906.853
184.198	13.855	1207.733	906.490
185.213	13.866	1206.388	905.459
186.227	13.854	1205.476	904.627
187.242	13.878	1204.386	903.861
188.256	13.838	1203.999	903.272
189.271	13.904	1202.630	902.526
190.286	13.734	1201.642	900.778
191.300	13.607	1201.202	899.683
192.315	13.628	1200.388	899.105
193.329	13.619	1199.884	898.600
194.344	13.760	1198.728	898.417
195.359	13.867	1197.876	898.277
196.373	13.844	1197.639	897.896
197.388	13.904	1197.124	897.758
198.402	14.041	1196.643	898.055
199.417	13.958	1196.488	897.412
200.432	14.011	1195.326	896.748
201.446	14.077	1194.580	896.462
202.461	13.994	1193.409	895.061
203.475	14.030	1192.670	894.619
204.490	14.141	1191.264	894.082
205.504	14.036	1190.479	892.848
206.519	14.069	1189.154	891.957
207.534	14.133	1187.453	890.941
208.548	13.976	1187.449	890.022
209.563	14.058	1186.284	889.508
210.577	14.108	1185.619	889.199
211.592	14.153	1184.795	888.740
212.607	14.173	1183.437	887.751
213.621	14.119	1183.005	887.060
214.636	14.181	1181.949	886.518
215.650	14.183	1180.890	885.658
216.665	14.162	1179.922	884.739
217.680	14.361	1178.650	884.767
218.694	14.269	1178.605	884.168
219.709	14.345	1177.576	883.717
220.723	14.401	1176.774	883.336
221.738	14.360	1176.112	882.540
222.753	14.313	1175.334	881.631
223.767	14.368	1174.530	881.239
224.782	14.395	1174.005	880.913
225.796	14.433	1173.478	880.641
226.811	14.535	1172.582	880.430
227.826	14.342	1172.072	878.947
228.840	14.389	1171.375	878.598
229.855	14.240	1170.790	877.294
230.869	14.401	1170.179	877.608
231.884	14.477	1168.909	876.977
232.899	14.343	1168.425	875.834
233.913	14.440	1167.114	875.283
234.928	14.459	1166.591	874.913
235.942	14.420	1165.908	874.116
236.957	14.401	1165.004	873.265
237.972	14.446	1164.256	872.862
238.986	14.389	1164.526	872.688
240.001	14.372	1163.677	871.884
241.015	14.498	1162.299	871.435
242.030	14.418	1161.875	870.623
243.045	14.614	1161.039	870.940
244.059	14.582	1159.838	869.796
245.074	14.650	1158.981	869.428
246.088	14.633	1158.123	868.622
247.103	14.699	1157.487	868.409
248.117	14.792	1156.395	867.996
249.132	14.646	1156.364	867.136
250.147	14.763	1155.805	867.250
251.161	14.835	1154.947	866.900
252.176	14.761	1154.383	866.017
253.190	14.822	1154.042	866.004
254.205	14.844	1153.246	865.441
255.220	14.883	1152.442	864.964
256.234	14.964	1151.764	864.797
257.249	14.978	1150.736	864.023
258.263	15.013	1149.920	863.512
259.278	14.932	1149.652	862.817
260.293	14.943	1148.964	862.283
261.307	15.088	1148.424	862.549
262.322	14.945	1148.068	861.465
263.336	14.988	1147.104	860.889
264.351	15.027	1146.724	860.729
265.366	15.173	1145.959	860.828
266.380	15.118	1144.983	859.734
267.395	15.092	1144.139	858.892
268.409	15.091	1143.334	858.207
269.424	15.105	1143.208	858.108
270.439	15.078	1142.436	857.317
271.453	15.143	1141.800	857.094
272.468	15.206	1140.853	856.631
273.482	15.120	1139.811	855.330
274.497	15.106	1139.542	854.986
275.512	15.050	1139.050	854.251
276.526	15.008	1138.296	853.396
277.541	15.170	1136.985	853.165
278.555	15.036	1136.784	852.254
279.570	15.198	1136.046	852.454
280.585	15.330	1134.623	851.980
281.599	15.294	1134.486	851.616
282.614	15.356	1132.607	850.444
283.628	15.237	1132.031	849.334
284.643	15.392	1130.927	849.218
285.657	15.194	1130.610	847.903
286.672	15.262	1129.325	847.205
287.687	15.372	1128.424	847.012
288.701	15.378	1127.683	846.412
289.716	15.323	1127.269	845.748
290.730	15.283	1126.410	844.826
291.745	15.278	1125.921	844.359
292.760	15.389	1125.016	844.165
293.774	15.535	1124.435	844.389
294.789	15.446	1124.046	843.576
295.803	15.499	1123.133	843.082
296.818	15.555	1122.460	842.782
297.833	15.426	1121.606	841.418
298.847	15.569	1120.562	841.277
299.862	15.426	1120.068	840.114
300.876	15.610	1119.299	840.387
301.891	15.489	1118.921	839.422
302.906	15.522	1117.983	838.809
303.920	15.594	1117.601	838.810
304.935	15.671	1116.796	838.512
305.949	15.741	1115.976	838.175
306.964	15.745	1115.462	837.732
307.979	15.660	1114.624	836.604
308.993	15.667	1114.162	836.221
310.008	15.664	1113.570	835.684
311.022	15.696	1112.660	835.090
312.037	15.785	1111.607	834.665
313.052	15.784	1110.482	833.745
314.066	15.612	1110.011	832.465
315.081	15.680	1109.119	832.055
316.095	15.752	1108.157	831.619
317.110	15.731	1107.799	831.171
318.125	15.707	1107.005	830.387
319.139	15.670	1106.061	829.421
320.154	15.648	1105.605	828.896
321.168	15.686	1105.156	828.675
322.183	15.802	1104.354	828.568
323.197	15.719	1103.883	827.736
324.212	15.761	1103.486	827.569
325.227	15.703	1103.052	826.885
326.241	15.755	1102.328	826.528
327.256	15.682	1101.472	825.455
328.270	15.736	1100.792	825.136
329.285	15.847	1099.422	824.578
330.300	15.883	1098.413	823.923
331.314	15.777	1097.844	822.907
332.329	15.867	1096.772	822.473
333.343	16.020	1095.608	822.274
334.358	15.990	1095.005	821.600
335.373	15.928	1094.382	820.756
336.387	15.992	1093.663	820.456
337.402	15.914	1093.140	819.612
338.416	15.893	1092.498	818.955
339.431	16.120	1091.478	819.221
340.446	16.124	1090.937	818.763
341.460	15.981	1090.427	817.615
342.475	16.204	1088.944	817.511
343.489	16.292	1088.414	817.465
344.504	16.222	1087.754	816.561
345.519	16.155	1087.177	815.731
346.533	16.264	1085.776	815.132
347.548	16.364	1085.109	815.042
348.562	16.268	1084.884	814.338
349.577	16.270	1083.793	813.459
350.592	16.276	1082.868	812.722
351.606	16.176	1082.348	811.776
352.621	16.320	1081.359	811.656
353.635	16.302	1081.218	811.391
354.650	16.208	1080.182	810.092
355.665	16.121	1079.758	809.284
356.679	16.223	1078.930	809.079
357.694	16.317	1078.290	808.979
358.708	16.460	1077.153	808.737
359.723	16.441	1076.601	808.161
360.738	16.356	1076.363	807.503
361.752	16.411	1076.151	807.538
362.767	16.377	1075.119	806.530
363.781	16.429	1074.715	806.402
364.796	16.344	1074.359	805.659
365.810	16.497	1073.361	805.569
366.825	16.496	1073.037	805.251
367.840	16.586	1072.655	805.318
368.854	16.602	1071.735	804.635
369.869	16.646	1070.634	803.946
370.883	16.545	1070.296	803.141
371.898	16.582	1069.622	802.740
372.913	16.567	1069.014	802.144
373.927	16.661	1068.411	802.066
374.942	16.628	1068.249	801.716
375.956	16.709	1067.542	801.498
376.971	16.758	1066.652	800.988
377.986	16.753	1066.165	800.531
379.000	16.737	1065.517	799.896
380.015	16.691	1065.266	799.419
381.029	16.811	1064.297	799.189
382.044	16.738	1063.946	798.511
383.059	16.815	1062.976	798.072
384.073	16.834	1062.283	797.571
385.088	16.886	1061.771	797.363
386.102	16.812	1060.587	796.053
387.117	16.768	1059.587	795.028
388.132	16.835	1058.530	794.478
389.146	16.827	1057.553	793.634
390.161	16.852	1057.076	793.323
391.175	16.793	1056.704	792.698
392.190	16.871	1055.885	792.378
393.205	16.917	1055.072	791.914
394.219	16.851	1054.154	790.846
395.234	16.835	1053.704	790.366
396.248	16.944	1052.586	789.965
397.263	16.927	1051.341	788.883
398.278	17.011	1050.704	788.725
399.292	16.968	1050.148	788.038
400.307	16.928	1049.146	787.028
401.321	16.934	1048.853	786.767
402.336	16.865	1048.136	785.839
403.350	16.901	1047.503	785.463
404.365	17.008	1046.202	784.915
405.380	16.975	1045.608	784.247
406.394	17.047	1045.302	784.282
407.409	17.115	1044.555	783.964
408.423	17.148	1043.939	783.585
409.438	17.093	1043.203	782.709
410.453	17.142	1042.748	782.522
411.467	17.298	1041.695	782.383
412.482	17.320	1041.229	782.064
413.496	17.220	1040.477	780.969
414.511	17.284	1039.670	780.590
415.526	17.328	1039.565	780.644
416.540	17.432	1038.928	780.574
417.555	17.520	1038.022	780.227
418.569	17.524	1037.733	779.959
419.584	17.462	1037.362	779.325
420.599	17.433	1036.746	778.665
421.613	105.035	1324.177	1476.980
422.628	96.321	1366.004	1477.075
