DTS Sentinel unit serial number:	SN413079Multiplexer serial number:	ORYXHardware model number:	OX4-SRSoftware version number:	ORYX F/W v4.00 Oryx Data Collector v3.7.2.0data status	okinstallation	princeton_trtdifferential loss correction	single-endedforward channel	channel 2reverse channel	N/Adate	2019/09/18time	22:39:35forward acquisition time	60.00reverse acquisition time	0.00gamma	496.2192k internal	0.2349k external	0.2349temperature offset calibration	1.0019default loss term (dB/km)	0.3790temperature slope calibration	1.0000multiplexer offset coefficient	1.0000multiplexer slope coefficient	1.0000fibre end	0.00T internal ref (°C)	24.14T ext. ref 1 (°C)	0.80T ext. ref 2 (°C)	18.00length (m)	temperature (°C)	Stokes	anti-Stokes-747.200	134.815	-0.045	-0.058
-746.185	368.743	-0.070	0.142
-745.171	-156.355	-0.247	0.015
-744.156	92.260	0.261	0.293
-743.142	-96.434	0.425	0.112
-742.127	513.275	-0.128	0.298
-741.112	800.000	-0.029	0.102
-740.098	186.469	-0.109	-0.162
-739.083	-20.310	-0.186	-0.114
-738.069	390.378	-0.011	0.024
-737.054	60.091	0.120	-0.118
-736.039	-28.937	-0.184	0.106
-735.025	25.482	-0.119	0.099
-734.010	-200.000	0.018	-0.156
-732.996	530.514	-0.231	-0.546
-731.981	265.919	-0.106	-0.185
-730.966	8.765	0.128	0.096
-729.952	113.018	-0.052	0.062
-728.937	-49.624	-0.170	0.081
-727.923	3.133	-0.320	0.232
-726.908	463.465	-0.147	0.327
-725.894	101.638	-0.193	0.224
-724.879	159.972	0.117	-0.163
-723.864	-49.131	-0.186	-0.089
-722.850	-137.345	0.078	-0.009
-721.835	-38.122	-0.088	-0.047
-720.821	-200.000	0.043	-0.239
-719.806	56.400	-0.314	-0.304
-718.791	-171.047	0.141	-0.005
-717.777	-200.000	-0.004	0.271
-716.762	-99.840	-0.032	-0.008
-715.748	-100.351	0.172	-0.043
-714.733	-4.104	-0.171	0.118
-713.718	-14.919	0.236	0.151
-712.704	122.774	0.202	-0.252
-711.689	-12.987	0.135	0.088
-710.675	90.802	0.163	-0.182
-709.660	-200.000	-0.026	-0.119
-708.645	-200.000	0.021	0.243
-707.631	-5.214	-0.202	0.138
-706.616	84.923	-0.096	-0.105
-705.602	694.069	0.078	-0.203
-704.587	-133.165	-0.283	0.036
-703.572	-23.646	-0.048	-0.028
-702.558	-166.673	-0.148	-0.006
-701.543	53.577	0.335	0.321
-700.529	800.000	-0.019	0.078
-699.514	351.232	-0.029	-0.058
-698.499	-70.919	-0.377	-0.142
-697.485	-110.162	0.103	-0.021
-696.470	800.000	-0.122	-0.339
-695.456	11.318	-0.372	-0.284
-694.441	-137.885	-0.292	-0.033
-693.426	-200.000	0.015	-0.213
-692.412	-200.000	-0.071	-0.316
-691.397	52.760	0.028	-0.027
-690.383	800.000	0.069	-0.204
-689.368	37.143	0.179	-0.158
-688.354	800.000	0.062	-0.241
-687.339	-200.000	0.044	-0.339
-686.324	-31.356	0.150	0.084
-685.310	-33.068	0.094	-0.052
-684.295	-80.674	-0.169	-0.056
-683.281	219.904	0.020	0.033
-682.266	-200.000	-0.048	-0.409
-681.251	82.939	0.255	0.276
-680.237	-114.279	-0.330	-0.063
-679.222	-200.000	-0.010	-0.451
-678.208	-115.330	0.424	-0.080
-677.193	-37.555	-0.070	0.037
-676.178	11.497	0.252	-0.192
-675.164	-5.149	0.307	0.211
-674.149	-132.010	-0.172	0.022
-673.135	-200.000	-0.045	-0.396
-672.120	800.000	0.011	-0.031
-671.105	800.000	0.051	0.184
-670.091	-15.582	-0.272	0.173
-669.076	-113.330	-0.023	-0.005
-668.062	120.193	0.261	0.322
-667.047	148.784	-0.113	0.152
-666.032	800.000	-0.084	0.256
-665.018	-82.651	-0.350	0.113
-664.003	-73.833	-0.135	-0.049
-662.989	306.729	0.268	0.497
-661.974	91.083	-0.179	0.200
-660.959	800.000	-0.066	0.214
-659.945	186.908	0.189	-0.280
-658.930	800.000	-0.110	0.394
-657.916	250.582	0.101	0.171
-656.901	800.000	-0.041	0.137
-655.886	-93.394	0.098	-0.027
-654.872	-93.351	0.170	-0.047
-653.857	101.753	0.077	0.089
-652.843	185.311	0.121	-0.178
-651.828	167.243	-0.180	0.255
-650.814	-116.194	0.106	0.020
-649.799	-80.716	-0.302	0.100
-648.784	-200.000	-0.001	-0.288
-647.770	-200.000	-0.025	0.349
-646.755	-107.531	-0.292	0.064
-645.741	-46.904	-0.422	0.205
-644.726	-200.000	-0.014	0.387
-643.711	-68.388	0.394	0.152
-642.697	-139.314	-0.228	0.024
-641.682	240.191	0.221	-0.366
-640.668	9.789	-0.152	-0.115
-639.653	-142.760	-0.157	-0.015
-638.638	-78.164	0.277	-0.095
-637.624	105.007	0.108	0.127
-636.609	-47.850	-0.261	0.126
-635.595	-114.372	-0.310	0.059
-634.580	189.068	0.145	-0.215
-633.565	-72.546	-0.232	0.085
-632.551	284.185	-0.131	0.234
-631.536	-151.004	-0.338	0.025
-630.522	61.960	0.212	0.210
-629.507	86.554	0.176	0.193
-628.492	500.363	0.058	0.134
-627.478	770.396	-0.070	-0.190
-626.463	-200.000	-0.021	-0.179
-625.449	-145.180	0.051	-0.005
-624.434	800.000	0.052	-0.163
-623.419	800.000	-0.020	-0.082
-622.405	138.502	0.038	-0.050
-621.390	-60.952	-0.363	-0.153
-620.376	670.960	-0.094	-0.241
-619.361	-157.773	-0.124	-0.007
-618.346	-122.745	-0.167	0.027
-617.332	251.054	-0.167	0.281
-616.317	212.065	0.126	-0.198
-615.303	-145.929	0.014	-0.001
-614.288	-75.114	-0.143	0.051
-613.273	49.662	-0.259	-0.242
-612.259	247.190	0.183	-0.307
-611.244	-200.000	0.030	0.362
-610.230	51.939	0.153	-0.145
-609.215	800.000	-0.028	0.098
-608.201	-200.000	0.015	0.130
-607.186	-128.596	-0.234	0.033
-606.171	66.707	-0.055	0.055
-605.157	800.000	-0.052	-0.171
-604.142	315.420	0.065	-0.121
-603.128	153.584	-0.048	0.065
-602.113	-166.414	0.276	0.011
-601.098	-200.000	-0.004	-0.065
-600.084	-105.614	0.302	-0.068
-599.069	89.807	0.204	0.226
-598.055	374.440	-0.194	-0.393
-597.040	783.522	-0.084	-0.228
-596.025	-104.930	-0.178	-0.041
-595.011	249.440	0.121	0.204
-593.996	-123.040	-0.270	-0.043
-592.982	469.416	0.084	-0.187
-591.967	-120.560	0.254	0.043
-590.952	-19.421	-0.252	-0.155
-589.938	-67.852	-0.188	-0.073
-588.923	114.391	0.240	-0.290
-587.909	30.697	-0.147	-0.125
-586.894	800.000	-0.133	0.488
-585.879	3.390	0.075	0.054
-584.865	164.763	0.137	-0.192
-583.850	-118.906	0.369	0.064
-582.836	49.477	0.116	-0.108
-581.821	64.700	-0.152	0.152
-580.806	-58.710	0.098	-0.042
-579.792	-71.333	0.174	0.065
-578.777	-200.000	0.026	-0.341
-577.763	3.872	0.114	-0.082
-576.748	800.000	-0.080	0.298
-575.733	800.000	-0.090	0.329
-574.719	-200.000	-0.231	0.001
-573.704	119.025	-0.177	-0.217
-572.690	10.558	0.163	-0.123
-571.675	-62.435	-0.148	0.061
-570.661	-166.083	-0.377	-0.016
-569.646	269.487	0.225	0.392
-568.631	-82.567	0.174	0.056
-567.617	193.019	-0.040	0.060
-566.602	58.283	0.129	0.125
-565.588	197.757	0.149	-0.226
-564.573	-93.915	0.089	0.024
-563.558	109.925	0.176	0.210
-562.544	-43.305	0.359	-0.180
-561.529	800.000	0.047	0.190
-560.515	397.631	-0.105	0.217
-559.500	-200.000	-0.020	-0.217
-558.485	687.241	-0.072	-0.187
-557.471	118.906	-0.110	-0.135
-556.456	-200.000	0.011	-0.298
-555.442	-142.671	0.254	0.025
-554.427	222.854	0.208	-0.332
-553.412	616.448	-0.095	0.235
-552.398	-72.116	0.200	0.073
-551.383	-200.000	0.031	0.288
-550.369	260.304	0.094	-0.162
-549.354	-200.000	-0.074	0.343
-548.339	200.156	-0.078	-0.119
-547.325	-131.680	0.213	0.028
-546.310	167.211	0.005	0.007
-545.296	-42.508	0.100	-0.051
-544.281	-200.000	0.067	0.324
-543.266	-200.000	-0.021	-0.218
-542.252	17.573	0.056	-0.044
-541.237	-156.578	-0.277	-0.017
-540.223	230.163	-0.155	0.252
-539.208	12.037	-0.323	0.246
-538.193	149.853	-0.149	0.200
-537.179	180.712	0.056	0.082
-536.164	174.710	-0.117	0.168
-535.150	524.735	-0.079	0.185
-534.135	-29.020	0.165	-0.094
-533.121	38.452	0.050	0.044
-532.106	-191.432	0.353	0.004
-531.091	-58.161	-0.272	-0.118
-530.077	-200.000	0.224	-0.001
-529.062	-68.608	0.045	0.017
-528.048	562.463	-0.032	0.077
-527.033	-62.736	-0.158	-0.065
-526.018	161.429	0.096	0.133
-525.004	132.078	0.103	-0.131
-523.989	-21.045	0.206	-0.125
-522.975	235.019	0.040	0.065
-521.960	158.212	-0.135	-0.185
-520.945	-200.000	-0.049	-0.236
-519.931	179.978	0.107	0.155
-518.916	800.000	0.071	0.291
-517.902	-83.746	-0.137	-0.043
-516.887	57.544	0.158	0.153
-515.872	200.501	0.094	-0.144
-514.858	328.296	-0.181	-0.343
-513.843	-106.540	0.095	0.021
-512.829	-158.265	0.163	0.009
-511.814	800.000	0.071	0.201
-510.799	43.424	-0.224	0.202
-509.785	355.237	0.087	-0.171
-508.770	-7.904	-0.317	0.212
-507.756	-71.781	-0.090	-0.033
-506.741	318.032	0.153	-0.287
-505.726	800.000	-0.101	-0.370
-504.712	489.568	0.016	-0.035
-503.697	-136.071	-0.137	0.016
-502.683	-200.000	-0.005	0.155
-501.668	190.068	-0.161	-0.239
-500.653	-200.000	0.005	0.147
-499.639	-102.425	0.172	0.041
-498.624	225.787	0.152	0.243
-497.610	-158.254	0.061	0.004
-496.595	337.785	0.171	-0.329
-495.581	-125.917	-0.264	-0.039
-494.566	-200.000	-0.003	-0.071
-493.551	69.947	-0.163	-0.166
-492.537	175.495	0.280	0.401
-491.522	800.000	0.056	-0.180
-490.508	-200.000	0.003	-0.128
-489.493	156.149	-0.105	-0.143
-488.478	-200.000	0.072	0.379
-487.464	28.035	0.152	0.127
-486.449	211.303	-0.168	-0.261
-485.435	-200.000	0.003	-0.209
-484.420	-137.080	-0.082	0.009
-483.405	-200.000	0.065	-0.295
-482.391	800.000	-0.027	0.114
-481.376	-200.000	-0.022	0.314
-480.362	16.142	0.063	0.049
-479.347	579.676	0.038	-0.092
-478.332	-104.389	0.209	0.048
-477.318	298.716	0.089	0.162
-476.303	-1.257	0.226	0.158
-475.289	-150.066	0.203	-0.016
-474.274	-99.939	-0.138	-0.034
-473.259	-200.000	-0.021	0.122
-472.245	339.887	0.190	-0.365
-471.230	141.541	-0.057	-0.075
-470.216	335.108	0.077	-0.148
-469.201	72.517	0.268	-0.276
-468.186	-101.897	0.112	-0.027
-467.172	-200.000	0.009	0.100
-466.157	63.555	-0.153	-0.152
-465.143	-165.549	0.374	-0.016
-464.128	-59.851	-0.289	0.122
-463.113	-86.439	0.088	-0.027
-462.099	-200.000	0.029	0.290
-461.084	-139.246	-0.221	-0.023
-460.070	-162.521	0.111	-0.005
-459.055	-200.000	-0.013	-0.057
-458.040	17.657	0.374	-0.294
-457.026	-31.607	-0.147	-0.082
-456.011	800.000	-0.063	-0.183
-454.997	-200.000	0.006	0.141
-453.982	-106.021	-0.496	0.110
-452.968	-58.952	-0.096	-0.041
-451.953	-200.000	-0.006	0.387
-450.938	-128.433	-0.170	-0.024
-449.924	800.000	-0.020	-0.063
-448.909	150.443	-0.132	0.177
-447.895	-63.294	-0.466	-0.190
-446.880	-192.636	0.470	0.004
-445.865	800.000	0.127	-0.364
-444.851	16.794	-0.145	0.113
-443.836	-1.878	0.311	0.216
-442.822	-4.971	-0.035	0.024
-441.807	-68.382	-0.371	-0.142
-440.792	-59.927	0.133	-0.056
-439.778	277.184	-0.115	0.202
-438.763	217.111	-0.176	-0.276
-437.749	499.470	-0.109	0.249
-436.734	253.057	0.027	-0.045
-435.719	-60.951	0.249	-0.104
-434.705	800.000	-0.089	-0.367
-433.690	-23.116	0.193	0.115
-432.676	800.000	0.033	-0.094
-431.661	54.416	0.096	0.091
-430.646	800.000	0.143	-0.396
-429.632	-76.110	-0.163	-0.057
-428.617	-200.000	0.070	0.511
-427.603	21.740	-0.083	0.067
-426.588	294.598	-0.062	-0.112
-425.573	-75.981	-0.260	-0.091
-424.559	-57.336	0.161	-0.070
-423.544	800.000	-0.093	0.352
-422.530	460.268	-0.113	-0.247
-421.515	-30.514	-0.152	-0.085
-420.500	-50.722	0.431	0.200
-419.486	244.968	-0.143	0.236
-418.471	-200.000	0.024	0.381
-417.457	-160.643	-0.459	0.024
-416.442	-93.764	-0.269	0.073
-415.428	-109.316	0.493	0.103
-414.413	-200.000	0.011	0.284
-413.398	-0.285	-0.048	-0.033
-412.384	-99.837	0.287	0.071
-411.369	18.001	0.072	-0.057
-410.355	195.161	0.138	0.206
-409.340	-200.000	0.014	0.306
-408.325	-200.000	0.004	-0.175
-407.311	-200.000	0.008	-0.334
-406.296	800.000	-0.019	-0.081
-405.282	-44.195	-0.166	0.082
-404.267	-34.323	0.120	0.065
-403.252	-200.000	0.002	-0.028
-402.238	-160.672	-0.623	0.033
-401.223	-200.000	-0.007	0.063
-400.209	-200.000	-0.043	0.236
-399.194	-100.068	0.231	-0.057
-398.179	45.616	-0.119	0.109
-397.165	-106.739	0.502	0.110
-396.150	-200.000	-0.027	0.134
-395.136	-70.777	0.238	0.089
-394.121	408.804	0.047	0.099
-393.106	-200.000	0.020	-0.146
-392.092	44.355	0.068	0.062
-391.077	-84.545	-0.226	0.070
-390.063	-160.720	0.137	-0.007
-389.048	33.035	-0.206	-0.176
-388.033	800.000	0.057	-0.192
-387.019	-137.844	0.276	-0.030
-386.004	-97.201	-0.113	-0.029
-384.990	-55.958	-0.178	0.078
-383.975	-112.199	0.140	-0.028
-382.960	-45.352	0.262	0.128
-381.946	-200.000	-0.068	0.324
-380.931	780.796	0.093	-0.249
-379.917	-200.000	0.013	0.079
-378.902	-200.000	0.000	-0.321
-377.888	-72.766	-0.067	0.024
-376.873	15.903	-0.106	0.082
-375.858	295.181	-0.064	-0.116
-374.844	282.706	-0.259	0.458
-373.829	14.672	-0.166	-0.128
-372.815	391.774	-0.181	0.371
-371.800	-45.847	-0.188	0.091
-370.785	-102.206	0.191	-0.045
-369.771	-156.260	-0.097	-0.006
-368.756	-200.000	-0.015	-0.198
-367.742	-64.598	-0.171	0.068
-366.727	800.000	-0.054	0.212
-365.712	268.257	0.071	0.122
-364.698	-31.771	-0.087	-0.048
-363.683	800.000	0.073	-0.252
-362.669	650.286	-0.079	-0.199
-361.654	-9.624	0.214	-0.140
-360.639	44.248	0.092	0.083
-359.625	161.629	-0.240	-0.331
-358.610	-200.000	-0.005	0.095
-357.596	800.000	-0.037	0.135
-356.581	59.446	0.218	0.212
-355.566	-21.118	0.277	-0.167
-354.552	800.000	0.033	-0.104
-353.537	296.932	0.028	-0.050
-352.523	-79.601	-0.220	-0.073
-351.508	-65.496	-0.225	-0.089
-350.493	138.767	0.129	0.167
-349.479	-200.000	-0.003	-0.183
-348.464	119.867	0.113	-0.138
-347.450	-106.596	0.138	0.030
-346.435	-2.501	-0.298	0.205
-345.420	-11.598	0.246	0.159
-344.406	0.288	-0.164	-0.115
-343.391	-34.343	-0.069	0.037
-342.377	800.000	-0.076	0.248
-341.362	-49.403	-0.261	-0.123
-340.348	-45.242	-0.212	0.103
-339.333	-11.555	-0.033	-0.021
-338.318	800.000	-0.044	-0.129
-337.304	650.418	-0.112	-0.283
-336.289	-76.312	-0.218	-0.075
-335.275	-133.863	-0.075	0.009
-334.260	278.521	-0.028	0.050
-333.245	-200.000	0.012	-0.329
-332.231	-63.879	0.104	0.042
-331.216	255.594	0.124	0.209
-330.202	31.505	0.024	0.020
-329.187	-63.719	-0.187	0.075
-328.172	166.851	-0.077	-0.107
-327.158	-180.519	-0.079	0.002
-326.143	176.680	0.028	0.040
-325.129	-168.424	-0.181	0.007
-324.114	800.000	0.085	-0.234
-323.099	-118.028	-0.088	0.015
-322.085	47.351	-0.183	-0.168
-321.070	-14.395	-0.166	-0.105
-320.056	326.267	-0.045	-0.085
-319.041	-193.873	0.195	0.002
-318.026	87.742	0.039	-0.042
-317.012	-6.738	-0.284	0.190
-315.997	-60.575	0.095	0.040
-314.983	-200.000	-0.027	0.134
-313.968	291.756	0.044	-0.078
-312.953	-200.000	-0.008	-0.035
-311.939	-54.232	-0.184	-0.082
-310.924	-27.854	-0.180	0.103
-309.910	-157.994	0.117	-0.007
-308.895	-200.000	-0.008	-0.097
-307.880	64.306	0.221	0.219
-306.866	-9.059	-0.249	0.164
-305.851	-200.000	-0.016	-0.190
-304.837	-200.000	-0.033	-0.302
-303.822	544.240	-0.086	0.201
-302.807	-29.581	0.309	-0.173
-301.793	188.955	-0.088	-0.129
-300.778	-200.000	0.045	-0.220
-299.764	-77.205	0.091	-0.031
-298.749	-200.000	-0.016	-0.112
-297.735	207.669	-0.057	0.087
-296.720	-200.000	-0.019	0.407
-295.705	-161.462	0.307	0.015
-294.691	-45.676	-0.441	0.214
-293.676	-200.000	0.008	0.205
-292.662	-54.065	0.261	-0.116
-291.647	-200.000	0.035	-0.207
-290.632	87.171	0.231	-0.250
-289.618	246.401	-0.121	0.200
-288.603	-200.000	-0.016	-0.243
-287.589	-163.541	0.146	-0.007
-286.574	425.367	-0.093	0.197
-285.559	-124.374	0.026	0.004
-284.545	190.960	0.084	0.124
-283.530	99.129	0.248	-0.281
-282.516	111.760	-0.123	-0.145
-281.501	-60.434	0.269	0.112
-280.486	528.776	0.050	-0.116
-279.472	-200.000	0.032	0.165
-278.457	-194.008	-0.350	-0.003
-277.443	174.085	0.459	0.651
-276.428	800.000	-0.081	-0.268
-275.413	-39.582	-0.238	-0.122
-274.399	-3.129	0.103	0.071
-273.384	-19.268	0.342	0.208
-272.370	286.935	-0.144	0.254
-271.355	172.938	-0.082	-0.116
-270.340	-110.646	-0.153	-0.031
-269.326	800.000	0.055	-0.201
-268.311	-126.256	0.410	-0.060
-267.297	152.529	-0.121	-0.162
-266.282	80.150	0.200	0.211
-265.267	800.000	-0.018	-0.057
-264.253	-86.175	0.236	0.071
-263.238	-83.317	-0.165	-0.052
-262.224	210.294	0.043	0.066
-261.209	68.820	-0.199	-0.201
-260.195	76.446	0.350	-0.363
-259.180	456.640	-0.024	-0.053
-258.165	800.000	0.043	0.118
-257.151	-8.830	-0.151	-0.099
-256.136	-74.127	0.180	-0.064
-255.122	-200.000	0.024	0.120
-254.107	-94.906	-0.210	0.056
-253.092	398.529	0.025	0.051
-252.078	-98.978	-0.195	0.049
-251.063	16.492	-0.073	-0.057
-250.049	-88.942	0.264	0.077
-249.034	49.085	0.231	0.212
-248.019	-150.469	0.079	0.006
-247.005	12.418	0.233	-0.176
-245.990	83.668	-0.192	-0.205
-244.976	-77.633	-0.244	-0.083
-243.961	800.000	-0.035	0.122
-242.946	-153.931	0.108	-0.007
-241.932	24.820	-0.168	-0.136
-240.917	-57.807	-0.185	0.079
-239.903	218.876	-0.101	0.158
-238.888	-200.000	-0.018	-0.260
-237.873	-200.000	-0.012	-0.060
-236.859	-200.000	-0.010	0.268
-235.844	20.044	0.326	0.257
-234.830	800.000	-0.073	-0.293
-233.815	-200.000	0.025	-0.165
-232.800	226.378	0.093	-0.148
-231.786	-200.000	-0.000	-0.176
-230.771	800.000	-0.105	-0.441
-229.757	-170.854	0.368	-0.012
-228.742	65.244	-0.128	0.127
-227.727	-48.013	-0.162	0.077
-226.713	423.702	-0.118	0.248
-225.698	-38.088	0.202	-0.105
-224.684	-52.964	0.141	-0.063
-223.669	4.161	-0.094	-0.067
-222.655	-34.619	-0.364	-0.195
-221.640	-102.660	-0.187	-0.044
-220.625	-84.507	0.071	0.022
-219.611	-136.336	-0.248	-0.028
-218.596	284.972	0.095	0.166
-217.582	-3.293	-0.114	-0.078
-216.567	-46.517	0.575	0.276
-215.552	-200.000	0.007	0.282
-214.538	-89.217	-0.335	-0.097
-213.523	-200.000	-0.009	-0.192
-212.509	299.155	0.119	-0.215
-211.494	3.402	0.271	0.193
-210.479	-1.065	-0.132	-0.092
-209.465	-62.160	-0.168	-0.069
-208.450	49.413	0.237	-0.218
-207.436	-153.533	0.206	0.014
-206.421	104.149	0.369	-0.425
-205.406	-96.371	0.194	0.050
-204.392	4.159	0.281	0.201
-203.377	23.573	-0.166	-0.134
-202.363	-200.000	-0.040	-0.310
-201.348	-7.908	-0.055	-0.036
-200.333	179.418	0.016	0.023
-199.319	-97.368	-0.083	0.021
-198.304	2.160	-0.348	0.246
-197.290	-57.172	0.338	-0.145
-196.275	210.115	0.118	-0.181
-195.260	800.000	0.070	0.224
-194.246	151.647	0.061	-0.081
-193.231	-152.285	-0.292	0.021
-192.217	-110.243	-0.236	-0.048
-191.202	-66.957	0.447	0.173
-190.187	-79.097	-0.152	0.051
-189.173	-24.076	-0.377	0.220
-188.158	368.525	0.100	-0.198
-187.144	22.557	-0.122	0.098
-186.129	800.000	-0.059	0.164
-185.114	-164.330	0.120	-0.005
-184.100	-80.541	-0.231	0.075
-183.085	-68.578	-0.017	0.006
-182.071	357.017	0.157	-0.305
-181.056	65.373	0.214	0.212
-180.042	800.000	0.055	-0.233
-179.027	624.489	0.031	-0.077
-178.012	800.000	0.087	0.272
-176.998	-200.000	0.018	0.401
-175.983	-168.895	-0.382	0.014
-174.969	125.101	0.118	0.146
-173.954	203.682	0.250	0.378
-172.939	515.637	-0.067	0.154
-171.925	-200.000	-0.057	0.400
-170.910	-118.861	0.216	0.037
-169.896	800.000	-0.056	-0.158
-168.881	31.620	-0.172	0.144
-167.866	-121.100	0.091	0.015
-166.852	176.409	-0.099	-0.141
-165.837	-200.000	-0.022	-0.246
-164.823	180.706	-0.055	0.079
-163.808	-109.543	0.199	0.041
-162.793	258.458	0.100	-0.168
-161.779	800.000	0.119	-0.343
-160.764	-139.144	0.094	0.010
-159.750	-117.691	-0.224	-0.039
-158.735	40.309	0.283	0.248
-157.720	120.923	0.004	-0.005
-156.706	-200.000	-0.015	0.135
-155.691	-25.634	0.148	-0.085
-154.677	-200.000	-0.015	0.070
-153.662	-200.000	-0.016	-0.119
-152.647	-99.703	0.173	-0.042
-151.633	-59.340	-0.204	0.086
-150.618	-109.196	-0.077	-0.016
-149.604	314.421	-0.061	-0.111
-148.589	22.059	0.179	-0.143
-147.574	102.039	-0.076	0.086
-146.560	800.000	0.066	0.265
-145.545	337.558	-0.186	0.353
-144.531	-125.570	-0.164	0.024
-143.516	-12.871	0.104	-0.066
-142.502	-78.423	-0.396	-0.132
-141.487	-31.632	0.148	-0.081
-140.472	407.202	-0.132	-0.272
-139.458	-91.625	0.137	-0.038
-138.443	160.701	0.127	-0.173
-137.429	-200.000	0.017	0.172
-136.414	411.936	0.078	0.161
-135.399	110.907	-0.153	-0.180
-134.385	-95.937	-0.219	-0.057
-133.370	800.000	-0.077	0.283
-132.356	800.000	-0.085	0.250
-131.341	800.000	-0.046	0.189
-130.326	329.038	0.095	-0.177
-129.312	268.665	-0.183	0.313
-128.297	286.031	0.114	0.201
-127.283	-95.078	0.382	-0.100
-126.268	-22.818	-0.203	-0.119
-125.253	-86.081	0.166	-0.050
-124.239	-134.168	0.303	-0.036
-123.224	-67.809	-0.122	0.047
-122.210	-20.147	0.143	-0.086
-121.195	-13.920	0.354	0.223
-120.180	186.307	0.138	-0.201
-119.166	800.000	0.088	-0.266
-118.151	-107.264	0.324	-0.069
-117.137	-58.690	0.108	0.046
-116.122	387.316	-0.155	0.312
-115.107	-200.000	0.067	0.391
-114.093	-200.000	-0.006	-0.083
-113.078	-58.467	-0.207	-0.088
-112.064	-113.844	0.284	0.054
-111.049	-200.000	0.002	-0.072
-110.034	-70.829	-0.155	0.057
-109.020	5.706	0.323	-0.233
-108.005	-39.265	0.148	0.076
-106.991	-66.069	-0.159	-0.062
-105.976	-97.615	0.140	-0.035
-104.962	-66.964	0.275	-0.106
-103.947	62.509	-0.137	-0.133
-102.932	15.276	0.257	0.196
-101.918	800.000	0.094	-0.328
-100.903	457.146	0.179	-0.386
-99.889	-200.000	0.047	0.342
-98.874	-200.000	-0.058	0.259
-97.859	3.916	0.106	0.075
-96.845	721.180	0.002	0.005
-95.830	610.599	0.032	-0.078
-94.816	587.422	0.157	0.376
-93.801	800.000	-0.050	0.161
-92.786	150.920	-0.075	0.100
-91.772	800.000	-0.057	-0.216
-90.757	-66.088	0.220	-0.085
-89.743	-90.806	0.206	0.058
-88.728	187.845	0.046	0.067
-87.713	42.335	0.188	0.166
-86.699	-200.000	0.039	-0.203
-85.684	-120.433	-0.291	0.048
-84.670	-200.000	-0.039	-0.178
-83.655	-88.874	0.180	-0.052
-82.640	-11.322	0.126	-0.081
-81.626	6.940	-0.310	-0.225
-80.611	-200.000	-0.012	-0.120
-79.597	-200.000	0.003	-0.119
-78.582	-73.665	-0.296	0.105
-77.567	163.723	0.163	0.223
-76.553	123.993	0.149	-0.182
-75.538	-110.450	-0.075	-0.015
-74.524	198.606	-0.140	-0.209
-73.509	-73.270	0.283	-0.101
-72.494	-44.796	0.328	0.159
-71.480	10.369	-0.210	0.155
-70.465	742.955	0.072	-0.189
-69.451	262.176	0.083	-0.140
-68.436	278.067	0.112	0.194
-67.422	20.744	-0.084	0.066
-66.407	98.728	0.181	0.203
-65.392	250.458	-0.178	0.294
-64.378	800.000	0.104	0.442
-63.363	800.000	0.053	-0.220
-62.349	295.143	-0.203	0.361
-61.334	100.542	-0.807	-0.911
-60.319	-7.671	0.739	0.485
-59.305	800.000	-0.501	-1.389
-58.290	50.737	1.093	1.006
-57.276	311.757	0.858	1.564
-56.261	-200.000	122.103	647.947
-55.246	438.547	1541.278	3268.731
-54.232	147.800	2700.503	3538.189
-53.217	93.060	2278.353	2502.736
-52.203	33.365	1894.430	1598.261
-51.188	27.189	1692.007	1380.687
-50.173	24.976	1653.118	1332.461
-49.159	45.707	1720.915	1545.576
-48.144	43.739	1732.795	1541.216
-47.130	26.799	1684.640	1371.514
-46.115	24.234	1669.683	1340.023
-45.100	24.135	1664.609	1335.152
-44.086	24.052	1662.185	1332.536
-43.071	24.062	1660.208	1330.971
-42.057	23.986	1657.531	1328.205
-41.042	24.010	1655.701	1326.866
-40.027	24.013	1653.357	1324.957
-39.013	23.983	1651.670	1323.327
-37.998	24.032	1649.795	1322.138
-36.984	23.996	1649.186	1321.333
-35.969	24.058	1647.480	1320.375
-34.954	24.188	1645.883	1320.002
-33.940	24.166	1644.402	1318.603
-32.925	24.181	1642.306	1316.979
-31.911	24.071	1640.976	1315.047
-30.896	24.141	1639.237	1314.117
-29.881	24.230	1636.857	1312.810
-28.867	24.171	1635.956	1311.605
-27.852	24.064	1634.876	1309.900
-26.838	24.092	1633.407	1308.875
-25.823	24.185	1632.269	1308.597
-24.809	24.205	1630.563	1307.320
-23.794	24.138	1629.432	1305.873
-22.779	24.178	1628.280	1305.191
-21.765	24.140	1626.442	1303.386
-20.750	24.159	1624.504	1301.919
-19.736	24.118	1623.252	1300.566
-18.721	24.192	1621.552	1299.692
-17.706	24.156	1620.455	1298.500
-16.692	24.164	1618.627	1297.044
-15.677	24.195	1617.364	1296.205
-14.663	24.224	1616.169	1295.408
-13.648	24.229	1614.819	1294.309
-12.633	24.262	1613.070	1293.092
-11.619	24.145	1611.762	1291.149
-10.604	24.179	1610.107	1290.016
-9.590	24.282	1608.430	1289.363
-8.575	24.180	1607.603	1287.913
-7.560	24.124	1606.568	1286.630
-6.546	24.105	1605.570	1285.646
-5.531	24.084	1604.348	1284.463
-4.517	24.195	1603.092	1284.203
-3.502	24.237	1602.140	1283.691
-2.487	24.237	1600.459	1282.292
-1.473	23.818	1588.541	1269.704
-0.458	20.944	1568.796	1233.566
0.556	16.335	1570.835	1201.945
1.571	14.195	1593.866	1203.988
2.586	13.871	1606.299	1210.914
3.600	12.923	1551.175	1162.570
4.615	7.500	1445.053	1047.248
5.629	1.992	1385.703	969.222
6.644	0.870	1379.204	957.496
7.659	0.756	1377.915	955.793
8.673	0.856	1376.772	955.550
9.688	0.708	1374.732	953.120
10.702	0.717	1370.572	950.205
11.717	3.395	1374.597	969.778
12.731	10.155	1385.215	1019.930
13.746	15.768	1393.372	1061.353
14.761	17.309	1395.054	1072.267
15.775	16.830	1392.742	1067.380
16.790	15.756	1390.490	1058.802
17.804	15.036	1387.504	1051.913
18.819	14.593	1386.638	1048.380
19.834	14.420	1385.075	1046.021
20.848	14.149	1384.450	1043.752
21.863	13.829	1383.344	1040.820
22.877	13.759	1381.301	1038.754
23.892	13.722	1380.215	1037.611
24.907	13.636	1380.008	1036.827
25.921	13.657	1378.692	1035.880
26.936	13.798	1377.659	1035.889
27.950	13.725	1377.273	1035.055
28.965	13.785	1376.180	1034.517
29.980	13.878	1375.101	1034.193
30.994	13.807	1374.277	1033.040
32.009	13.953	1372.778	1032.727
33.023	13.924	1372.030	1031.891
34.038	13.862	1370.785	1030.483
35.053	13.876	1369.460	1029.479
36.067	13.809	1368.689	1028.397
37.082	13.832	1367.762	1027.748
38.096	13.891	1366.610	1027.160
39.111	13.928	1365.923	1026.778
40.126	13.804	1365.333	1025.478
41.140	13.721	1364.140	1023.979
42.155	13.697	1363.953	1023.603
43.169	13.786	1363.181	1023.477
44.184	13.778	1363.018	1023.218
45.199	13.728	1362.511	1022.440
46.213	13.784	1362.069	1022.363
47.228	13.754	1361.248	1021.469
48.242	13.859	1359.596	1020.786
49.257	13.798	1358.274	1019.325
50.271	13.887	1356.665	1018.576
51.286	13.881	1355.407	1017.502
52.301	13.713	1354.523	1015.723
53.315	13.734	1353.469	1014.970
54.330	13.686	1352.163	1013.607
55.344	13.671	1351.420	1012.867
56.359	13.807	1349.761	1012.367
57.374	13.736	1348.857	1011.164
58.388	13.637	1348.301	1010.058
59.403	13.623	1347.877	1009.560
60.417	13.749	1346.598	1009.281
61.432	13.663	1346.296	1008.446
62.447	13.677	1345.045	1007.504
63.461	13.689	1343.557	1006.369
64.476	13.576	1343.082	1005.240
65.490	13.582	1341.469	1003.980
66.505	13.618	1340.049	1003.051
67.520	13.608	1339.339	1002.366
68.534	13.688	1338.029	1001.783
69.549	13.624	1336.948	1000.496
70.563	13.649	1335.632	999.576
71.578	13.526	1335.127	998.369
72.593	13.628	1333.570	997.729
73.607	13.573	1332.894	996.806
74.622	13.631	1331.499	996.023
75.636	13.575	1331.361	995.495
76.651	13.662	1330.376	995.193
77.666	13.476	1330.337	993.956
78.680	13.561	1329.366	993.653
79.695	13.563	1328.484	992.917
80.709	13.576	1328.280	992.758
81.724	13.648	1326.983	992.129
82.739	13.630	1326.115	991.282
83.753	13.741	1324.660	990.772
84.768	13.788	1323.605	990.174
85.782	13.767	1322.827	989.379
86.797	13.801	1320.858	988.023
87.812	13.750	1319.667	986.744
88.826	13.714	1319.076	986.001
89.841	13.687	1317.537	984.600
90.855	13.855	1316.486	984.726
91.870	13.807	1316.020	984.003
92.884	13.758	1315.073	982.917
93.899	13.794	1314.412	982.549
94.914	13.786	1313.578	981.792
95.928	13.812	1312.933	981.380
96.943	13.914	1311.581	980.882
97.957	13.778	1310.658	979.304
98.972	13.818	1309.595	978.660
99.987	13.829	1308.608	977.897
101.001	13.826	1307.800	977.191
102.016	13.816	1306.791	976.292
103.030	13.895	1305.907	976.012
104.045	13.871	1304.560	974.779
105.060	13.794	1303.692	973.588
106.074	13.795	1302.175	972.378
107.089	13.604	1301.267	970.492
108.103	13.660	1300.093	969.860
109.118	13.782	1298.378	969.207
110.133	13.722	1297.548	968.150
111.147	13.682	1296.075	966.735
112.162	13.784	1294.250	965.883
113.176	13.753	1293.384	964.967
114.191	13.729	1292.833	964.332
115.206	13.737	1291.514	963.310
116.220	13.802	1290.374	962.753
117.235	13.600	1289.288	960.685
118.249	13.772	1288.025	960.655
119.264	13.702	1287.088	959.464
120.279	13.783	1285.624	958.758
121.293	13.683	1285.269	957.830
122.308	13.704	1284.120	957.014
123.322	13.665	1282.915	955.806
124.337	13.764	1281.953	955.573
125.352	13.673	1280.805	954.107
126.366	13.795	1279.233	953.555
127.381	13.725	1278.515	952.535
128.395	13.768	1277.370	951.844
129.410	13.812	1276.491	951.355
130.424	13.730	1275.661	950.183
131.439	13.780	1274.546	949.555
132.454	13.798	1273.388	948.713
133.468	13.750	1272.587	947.758
134.483	13.751	1272.139	947.342
135.497	13.798	1270.753	946.497
136.512	13.759	1269.446	945.215
137.527	13.712	1268.259	943.980
138.541	13.643	1266.916	942.505
139.556	13.842	1265.412	942.435
140.570	13.829	1264.582	941.656
141.585	13.854	1262.888	940.455
142.600	13.805	1262.101	939.507
143.614	13.833	1261.124	938.857
144.629	13.911	1260.265	938.574
145.643	13.905	1258.692	937.288
146.658	13.951	1257.373	936.482
147.673	13.866	1256.322	935.136
148.687	13.844	1255.102	934.023
149.702	13.786	1254.320	933.031
150.716	13.816	1253.012	932.144
151.731	13.881	1251.535	931.328
152.746	13.922	1250.144	930.439
153.760	13.760	1249.663	929.094
154.775	14.018	1247.892	929.134
155.789	14.009	1246.633	928.063
156.804	14.006	1245.713	927.281
157.819	14.062	1244.726	926.779
158.833	14.098	1243.896	926.278
159.848	14.123	1242.763	925.494
160.862	14.062	1242.148	924.611
161.877	14.024	1240.766	923.289
162.892	14.094	1239.523	922.675
163.906	14.026	1238.672	921.581
164.921	14.022	1237.637	920.709
165.935	14.093	1236.477	920.154
166.950	14.027	1236.256	919.546
167.964	14.035	1235.607	919.026
168.979	14.127	1234.584	918.692
169.994	13.983	1234.369	917.656
171.008	14.098	1233.367	917.463
172.023	14.127	1232.216	916.685
173.037	14.123	1231.890	916.340
174.052	14.175	1231.057	915.927
175.067	14.035	1230.375	914.566
176.081	14.136	1228.947	913.981
177.096	14.121	1228.086	913.175
178.110	14.188	1226.486	912.273
179.125	14.140	1225.740	911.372
180.140	14.134	1224.098	910.038
181.154	14.229	1222.906	909.590
182.169	14.205	1221.785	908.547
183.183	14.264	1220.769	908.033
184.198	14.313	1219.486	907.263
185.213	14.376	1218.357	906.685
186.227	14.381	1217.166	905.749
187.242	14.206	1216.618	904.307
188.256	14.330	1215.488	904.061
189.271	14.397	1214.068	903.291
190.286	14.335	1213.306	902.305
191.300	14.121	1212.715	900.631
192.315	14.315	1211.591	900.766
193.329	14.327	1211.139	900.411
194.344	14.261	1210.247	899.311
195.359	14.353	1209.704	899.325
196.373	14.318	1209.400	898.833
197.388	14.452	1209.032	899.202
198.402	14.427	1208.552	898.631
199.417	14.449	1207.927	898.205
200.432	14.510	1206.733	897.564
201.446	14.637	1205.947	897.587
202.461	14.576	1204.984	896.463
203.475	14.569	1204.005	895.619
204.490	14.539	1202.868	894.529
205.504	14.641	1201.580	894.038
206.519	14.624	1200.163	892.816
207.534	14.539	1199.320	891.654
208.548	14.593	1198.233	891.057
209.563	14.597	1197.510	890.464
210.577	14.625	1196.918	890.092
211.592	14.560	1195.961	888.953
212.607	14.659	1194.811	888.550
213.621	14.707	1193.744	887.931
214.636	14.721	1193.208	887.527
215.650	14.668	1192.479	886.625
216.665	14.819	1191.306	886.479
217.680	14.717	1190.695	885.404
218.694	14.813	1189.671	885.073
219.709	14.812	1188.664	884.237
220.723	14.894	1187.964	884.072
221.738	14.809	1187.422	883.145
222.753	14.749	1187.025	882.451
223.767	14.848	1186.073	882.189
224.782	14.904	1185.388	881.897
225.796	14.885	1184.590	881.128
226.811	14.852	1183.745	880.245
227.826	14.864	1183.365	879.948
228.840	14.799	1182.812	879.118
229.855	14.876	1181.438	878.422
230.869	14.910	1180.756	878.018
231.884	14.989	1180.006	877.793
232.899	15.000	1179.192	877.168
233.913	14.839	1178.880	876.014
234.928	14.924	1177.666	875.483
235.942	14.810	1177.135	874.415
236.957	14.933	1176.123	874.226
237.972	14.966	1175.590	873.927
238.986	14.948	1175.079	873.372
240.001	14.877	1174.434	872.445
241.015	15.044	1172.847	872.060
242.030	15.073	1171.826	871.376
243.045	15.040	1171.817	871.122
244.059	15.038	1171.013	870.432
245.074	15.034	1169.881	869.496
246.088	15.172	1168.856	869.372
247.103	15.122	1168.200	868.552
248.117	15.173	1167.713	868.373
249.132	15.228	1166.864	867.951
250.147	15.246	1166.029	867.348
251.161	15.221	1165.665	866.868
252.176	15.310	1164.643	866.491
253.190	15.519	1163.769	866.843
254.205	15.353	1163.553	865.750
255.220	15.486	1162.834	865.827
256.234	15.260	1162.772	864.535
257.249	15.390	1161.888	864.474
258.263	15.436	1161.006	863.975
259.278	15.447	1160.471	863.560
260.293	15.430	1159.696	862.820
261.307	15.497	1158.935	862.520
262.322	15.468	1158.391	861.888
263.336	15.587	1157.848	862.018
264.351	15.496	1157.565	861.268
265.366	15.409	1157.050	860.363
266.380	15.550	1155.831	860.098
267.395	15.646	1154.919	859.839
268.409	15.621	1154.574	859.374
269.424	15.408	1154.280	857.995
270.439	15.541	1153.338	857.896
271.453	15.563	1152.597	857.380
272.468	15.488	1151.326	855.975
273.482	15.626	1150.674	856.120
274.497	15.600	1150.407	855.714
275.512	15.602	1149.554	855.014
276.526	15.556	1149.157	854.407
277.541	15.626	1147.893	853.746
278.555	15.644	1147.124	853.193
279.570	15.739	1146.512	853.145
280.585	15.753	1145.570	852.438
281.599	15.704	1144.753	851.506
282.614	15.761	1143.830	851.034
283.628	15.882	1142.538	850.606
284.643	15.749	1141.771	849.288
285.657	15.748	1141.202	848.787
286.672	15.771	1139.859	847.830
287.687	15.840	1139.103	847.538
288.701	15.790	1138.328	846.634
289.716	15.874	1137.486	846.358
290.730	15.968	1136.807	846.249
291.745	15.931	1136.241	845.566
292.760	15.825	1135.539	844.439
293.774	15.923	1135.067	844.503
294.789	15.942	1134.159	843.846
295.803	16.049	1133.554	843.861
296.818	15.957	1133.206	843.067
297.833	16.040	1132.139	842.609
298.847	16.006	1131.113	841.602
299.862	15.933	1130.593	840.779
300.876	16.057	1129.557	840.550
301.891	15.974	1129.330	839.894
302.906	16.038	1128.661	839.643
303.920	16.180	1127.816	839.646
304.935	16.185	1127.321	839.229
305.949	16.094	1126.926	838.406
306.964	16.228	1125.902	838.237
307.979	16.227	1124.979	837.471
308.993	16.186	1124.346	836.721
310.008	16.168	1123.934	836.250
311.022	16.222	1123.006	835.752
312.037	16.288	1122.133	835.359
313.052	16.228	1121.170	834.272
314.066	16.235	1120.300	833.581
315.081	16.123	1119.730	832.532
316.095	16.224	1118.582	832.106
317.110	16.253	1118.082	831.799
318.125	16.180	1117.439	830.890
319.139	16.196	1116.695	830.341
320.154	16.203	1116.140	829.890
321.168	16.175	1115.449	829.162
322.183	16.231	1114.799	828.882
323.197	16.297	1114.497	828.908
324.212	16.296	1113.424	828.035
325.227	16.305	1113.210	827.842
326.241	16.355	1112.043	827.151
327.256	16.275	1111.734	826.454
328.270	16.317	1110.572	825.724
329.285	16.348	1109.432	824.955
330.300	16.346	1108.283	824.016
331.314	16.445	1107.581	823.903
332.329	16.373	1106.824	822.917
333.343	16.422	1105.806	822.327
334.358	16.507	1105.024	822.085
335.373	16.505	1104.514	821.624
336.387	16.384	1103.932	820.527
337.402	16.564	1102.540	820.295
338.416	16.540	1102.207	819.859
339.431	16.557	1101.440	819.299
340.446	16.554	1100.879	818.792
341.460	16.671	1100.120	818.721
342.475	16.619	1099.313	817.800
343.489	16.651	1098.218	817.067
344.504	16.755	1097.378	816.871
345.519	16.706	1096.584	815.968
346.533	16.740	1095.713	815.413
347.548	16.736	1095.328	815.035
348.562	16.845	1094.602	814.948
349.577	16.717	1093.696	813.587
350.592	16.730	1092.884	812.972
351.606	16.789	1091.940	812.484
352.621	16.865	1091.014	812.084
353.635	16.758	1090.976	811.471
354.650	16.858	1089.703	810.933
355.665	16.880	1089.056	810.483
356.679	16.807	1088.881	809.933
357.694	16.709	1088.582	809.169
358.708	16.702	1087.873	808.537
359.723	16.901	1086.919	808.706
360.738	16.907	1086.160	808.100
361.752	16.916	1085.553	807.617
362.767	16.981	1084.859	807.341
363.781	16.926	1084.561	806.785
364.796	17.058	1083.762	806.748
365.810	16.995	1083.599	806.254
366.825	17.000	1082.967	805.740
367.840	16.986	1082.379	805.162
368.854	17.156	1081.497	805.243
369.869	17.159	1080.558	804.487
370.883	17.143	1079.544	803.585
371.898	17.086	1078.866	802.738
372.913	17.105	1078.395	802.407
373.927	17.165	1077.927	802.272
374.942	17.229	1077.256	802.002
375.956	17.163	1077.135	801.528
376.971	17.228	1076.311	801.152
377.986	17.204	1075.844	800.619
379.000	17.272	1075.343	800.498
380.015	17.340	1074.279	799.952
381.029	17.419	1073.668	799.799
382.044	17.286	1073.322	798.844
383.059	17.380	1072.399	798.528
384.073	17.349	1071.636	797.747
385.088	17.424	1070.789	797.398
386.102	17.342	1070.048	796.391
387.117	17.291	1069.225	795.469
388.132	17.363	1068.022	794.840
389.146	17.402	1067.537	794.589
390.161	17.362	1066.721	793.726
391.175	17.479	1065.767	793.489
392.190	17.339	1065.611	792.653
393.205	17.403	1064.747	792.235
394.219	17.510	1063.902	792.034
395.234	17.634	1062.750	791.683
396.248	17.491	1061.946	790.351
397.263	17.330	1061.075	788.888
398.278	17.425	1060.383	788.743
399.292	17.524	1059.610	788.557
400.307	17.442	1058.782	787.493
401.321	17.492	1058.008	787.077
402.336	17.432	1057.765	786.551
403.350	17.534	1056.868	786.284
404.365	17.475	1056.002	785.297
405.380	17.631	1055.587	785.637
406.394	17.601	1054.837	784.871
407.409	17.720	1053.427	784.303
408.423	17.760	1053.155	784.216
409.438	17.721	1052.342	783.359
410.453	17.706	1051.762	782.791
411.467	17.692	1051.094	782.159
412.482	17.615	1050.433	781.248
413.496	17.792	1049.587	781.360
414.511	17.824	1049.209	781.153
415.526	17.886	1049.315	781.449
416.540	17.879	1048.547	780.772
417.555	17.876	1047.917	780.221
418.569	17.897	1047.618	780.024
419.584	17.965	1046.920	779.748
420.599	17.952	1046.381	779.218
421.613	110.033	1329.149	1490.750
422.628	101.256	1370.324	1490.842
