DTS Sentinel unit serial number:	SN413079Multiplexer serial number:	ORYXHardware model number:	OX4-SRSoftware version number:	ORYX F/W v4.00 Oryx Data Collector v3.7.2.0data status	okinstallation	princeton_trtdifferential loss correction	single-endedforward channel	channel 2reverse channel	N/Adate	2019/09/16time	00:35:34forward acquisition time	60.00reverse acquisition time	0.00gamma	496.2192k internal	0.2337k external	0.2337temperature offset calibration	0.9961default loss term (dB/km)	0.3790temperature slope calibration	1.0000multiplexer offset coefficient	1.0000multiplexer slope coefficient	1.0000fibre end	0.00T internal ref (°C)	27.50T ext. ref 1 (°C)	9.61T ext. ref 2 (°C)	21.60length (m)	temperature (°C)	Stokes	anti-Stokes-747.200	66.696	-0.143	0.146
-746.185	-94.405	-0.161	0.044
-745.171	-102.124	-0.111	0.027
-744.156	238.061	-0.339	0.565
-743.142	365.805	-0.134	-0.271
-742.127	266.281	-0.200	0.351
-741.112	-70.661	0.305	0.116
-740.098	424.815	-0.157	0.340
-739.083	-200.000	-0.059	0.535
-738.069	100.872	-0.171	-0.199
-737.054	-178.163	0.130	-0.003
-736.039	35.813	-0.181	0.160
-735.025	-92.254	0.283	-0.080
-734.010	-133.789	-0.197	0.025
-732.996	-200.000	-0.014	-0.081
-731.981	236.568	0.102	-0.170
-730.966	-2.637	0.271	-0.191
-729.952	-52.820	-0.156	-0.072
-728.937	59.983	-0.242	0.240
-727.923	401.082	-0.133	-0.280
-726.908	-200.000	-0.028	-0.170
-725.894	107.670	-0.067	-0.080
-724.879	416.854	-0.096	0.205
-723.864	25.623	0.100	-0.083
-722.850	-47.008	-0.129	-0.063
-721.835	800.000	-0.067	-0.187
-720.821	-200.000	-0.006	-0.031
-719.806	68.304	0.188	0.193
-718.791	-200.000	-0.007	-0.031
-717.777	-13.207	0.125	-0.081
-716.762	800.000	0.102	0.332
-715.748	161.201	-0.146	-0.204
-714.733	134.174	0.155	-0.202
-713.718	74.996	0.128	-0.136
-712.704	800.000	0.010	-0.037
-711.689	-96.578	0.121	0.032
-710.675	-200.000	0.000	0.010
-709.660	656.347	0.054	0.140
-708.645	-55.329	-0.164	0.074
-707.631	-19.339	0.438	-0.272
-706.616	-200.000	0.035	0.439
-705.602	-79.935	0.411	-0.138
-704.587	467.555	-0.146	-0.328
-703.572	800.000	0.098	-0.279
-702.558	-86.197	0.378	0.117
-701.543	-152.998	-0.159	-0.011
-700.529	360.201	0.167	0.335
-699.514	-39.839	0.204	-0.107
-698.499	308.203	-0.135	-0.252
-697.485	120.840	0.110	0.137
-696.470	-88.293	-0.162	-0.048
-695.456	-59.296	-0.337	0.145
-694.441	-52.508	0.175	-0.081
-693.426	-200.000	-0.019	-0.257
-692.412	-200.000	-0.011	-0.286
-691.397	47.994	-0.176	0.165
-690.383	93.541	0.085	-0.097
-689.368	-200.000	0.021	-0.491
-688.354	800.000	-0.109	-0.346
-687.339	-71.533	0.197	0.074
-686.324	45.943	-0.323	0.299
-685.310	65.428	-0.175	-0.177
-684.295	591.231	-0.127	-0.314
-683.281	-91.110	0.267	0.077
-682.266	298.893	-0.180	-0.331
-681.251	-200.000	0.013	-0.254
-680.237	34.524	-0.233	0.204
-679.222	175.369	-0.114	-0.165
-678.208	421.003	-0.252	-0.540
-677.193	-63.442	0.267	-0.110
-676.178	-119.952	0.490	-0.084
-675.164	247.083	0.047	-0.079
-674.149	800.000	-0.084	-0.238
-673.135	386.131	0.102	-0.210
-672.120	189.910	0.080	0.120
-671.105	25.135	0.176	0.147
-670.091	53.928	-0.103	0.099
-669.076	39.968	0.231	0.208
-668.062	-34.125	0.373	-0.205
-667.047	-200.000	0.049	-0.331
-666.032	-150.044	0.144	-0.011
-665.018	-1.731	0.058	-0.041
-664.003	-120.092	-0.139	-0.024
-662.989	-154.666	0.250	0.017
-661.974	70.646	-0.133	0.138
-660.959	-200.000	-0.015	0.122
-659.945	-6.767	0.322	0.220
-658.930	547.016	0.121	-0.290
-657.916	428.978	-0.017	-0.036
-656.901	-200.000	-0.011	-0.121
-655.886	-200.000	0.019	-0.180
-654.872	131.563	0.151	0.194
-653.857	-38.262	0.200	-0.106
-652.843	-66.771	-0.249	0.099
-651.828	-9.980	0.186	-0.124
-650.814	-200.000	0.007	0.212
-649.799	0.597	0.073	-0.052
-648.784	-76.107	-0.514	-0.182
-647.770	281.210	0.050	0.089
-646.755	52.916	-0.233	-0.223
-645.741	348.357	-0.069	-0.136
-644.726	-116.293	0.482	-0.089
-643.711	800.000	-0.031	0.123
-642.697	173.727	0.173	0.250
-641.682	18.271	-0.060	0.048
-640.668	-49.315	-0.203	-0.097
-639.653	178.554	0.098	-0.143
-638.638	-41.584	0.264	-0.136
-637.624	57.435	0.074	-0.073
-636.609	19.626	-0.195	0.157
-635.595	-200.000	0.010	-0.241
-634.580	795.552	0.039	-0.107
-633.565	800.000	0.034	0.124
-632.551	800.000	0.068	-0.198
-631.536	55.127	0.216	0.208
-630.522	6.979	-0.164	0.122
-629.507	688.129	0.113	0.296
-628.492	-200.000	-0.004	-0.038
-627.478	-200.000	-0.007	0.053
-626.463	3.865	0.103	0.075
-625.449	100.043	-0.071	0.082
-624.434	-175.244	0.161	-0.004
-623.419	639.161	0.026	-0.066
-622.405	-101.699	-0.268	0.065
-621.390	800.000	0.005	0.014
-620.376	20.037	0.246	0.198
-619.361	-13.266	0.027	0.017
-618.346	-37.982	-0.150	-0.079
-617.332	-12.713	-0.260	-0.169
-616.317	54.847	-0.136	-0.132
-615.303	-119.103	0.310	0.054
-614.288	-137.731	-0.312	-0.035
-613.273	-200.000	0.024	-0.288
-612.259	-68.007	0.287	0.112
-611.244	-84.349	-0.310	-0.098
-610.230	-7.500	-0.172	-0.117
-609.215	-133.853	-0.169	-0.021
-608.201	68.527	0.227	-0.232
-607.186	181.031	0.147	0.215
-606.171	800.000	-0.050	0.155
-605.157	166.291	-0.136	0.192
-604.142	12.908	0.090	-0.069
-603.128	667.885	-0.133	-0.343
-602.113	-0.622	0.088	0.062
-601.098	-200.000	-0.014	-0.120
-600.084	58.856	-0.151	-0.148
-599.069	-200.000	-0.197	0.001
-598.055	127.878	-0.175	-0.222
-597.040	-58.814	-0.139	0.060
-596.025	-97.541	0.210	0.054
-595.011	336.529	-0.080	0.156
-593.996	121.650	-0.077	-0.096
-592.982	-138.822	0.155	-0.017
-591.967	-72.934	-0.346	-0.127
-590.952	-200.000	-0.006	0.366
-589.938	-43.073	-0.242	0.122
-588.923	-22.939	-0.354	-0.213
-587.909	-200.000	-0.014	0.194
-586.894	92.509	-0.097	-0.110
-585.879	27.964	0.181	0.153
-584.865	-171.723	0.136	0.004
-583.850	202.403	-0.155	-0.239
-582.836	526.276	-0.110	0.259
-581.821	195.994	-0.109	-0.165
-580.806	304.720	0.048	-0.088
-579.792	-78.411	-0.209	0.071
-578.777	-180.103	-0.423	0.009
-577.763	201.293	0.038	-0.059
-576.748	126.037	-0.067	-0.084
-575.733	252.107	-0.060	-0.102
-574.719	-200.000	-0.026	0.135
-573.704	62.564	0.140	-0.140
-572.690	-200.000	0.011	0.148
-571.675	-103.161	0.096	-0.023
-570.661	-22.059	-0.193	-0.117
-569.646	50.209	-0.206	-0.194
-568.631	-200.000	-0.062	-0.297
-567.617	34.223	0.322	-0.280
-566.602	-49.564	-0.135	0.064
-565.588	800.000	-0.014	0.048
-564.573	-44.822	0.292	0.145
-563.558	-29.181	0.328	-0.187
-562.544	564.909	0.084	-0.202
-561.529	-23.260	0.072	0.043
-560.515	155.071	0.072	-0.099
-559.500	246.395	-0.114	0.192
-558.485	132.608	-0.059	-0.076
-557.471	63.455	0.289	-0.289
-556.456	700.164	-0.107	-0.282
-555.442	-18.142	0.315	0.197
-554.427	-164.654	0.224	0.010
-553.412	23.262	0.101	-0.082
-552.398	-200.000	-0.005	-0.032
-551.383	-52.225	-0.177	-0.082
-550.369	256.169	0.088	-0.150
-549.354	14.445	0.272	0.211
-548.339	87.034	-0.352	-0.388
-547.325	88.932	-0.203	0.226
-546.310	74.694	0.182	-0.191
-545.296	276.697	0.100	-0.177
-544.281	-149.101	0.264	0.021
-543.266	42.743	-0.405	-0.367
-542.252	17.262	-0.085	-0.067
-541.237	-80.975	-0.179	-0.059
-540.223	-200.000	0.008	-0.057
-539.208	-104.983	-0.386	0.088
-538.193	-88.096	0.149	-0.044
-537.179	213.589	-0.094	-0.148
-536.164	49.737	-0.334	-0.313
-535.150	-187.972	0.322	-0.004
-534.135	446.469	-0.118	0.258
-533.121	39.642	0.270	0.241
-532.106	87.817	-0.184	-0.203
-531.091	211.603	-0.289	-0.452
-530.077	60.059	-0.113	0.111
-529.062	-200.000	-0.018	-0.153
-528.048	800.000	0.080	-0.250
-527.033	-129.438	-0.192	-0.027
-526.018	-200.000	-0.010	-0.080
-525.004	-34.608	0.187	-0.102
-523.989	-112.003	0.280	-0.056
-522.975	-200.000	0.009	0.209
-521.960	-67.288	0.140	-0.055
-520.945	73.376	0.149	-0.156
-519.931	592.171	-0.045	0.109
-518.916	-45.221	-0.089	0.044
-517.902	3.190	0.274	0.198
-516.887	-49.595	0.238	-0.113
-515.872	-156.112	-0.309	-0.019
-514.858	25.092	0.184	-0.152
-513.843	-22.103	0.300	-0.181
-512.829	-200.000	0.021	-0.248
-511.814	-47.738	0.059	-0.028
-510.799	-121.816	0.106	-0.017
-509.785	346.233	-0.078	-0.152
-508.770	-200.000	-0.025	0.137
-507.756	-13.587	-0.343	-0.221
-506.741	-114.687	-0.133	0.025
-505.726	-200.000	-0.006	0.052
-504.712	-164.655	-0.204	-0.009
-503.697	-78.519	-0.140	0.048
-502.683	-200.000	0.012	0.222
-501.668	384.202	0.042	-0.085
-500.653	-122.683	-0.187	0.030
-499.639	-94.236	-0.185	-0.050
-498.624	800.000	0.057	-0.164
-497.610	2.468	-0.205	0.148
-496.595	-54.691	-0.086	0.039
-495.581	-22.112	-0.212	-0.128
-494.566	-89.152	0.309	0.091
-493.551	800.000	0.050	-0.162
-492.537	-76.553	0.082	0.029
-491.522	800.000	-0.028	0.119
-490.508	-54.497	0.258	-0.116
-489.493	800.000	-0.059	-0.212
-488.478	450.064	-0.023	0.049
-487.464	-200.000	0.031	0.136
-486.449	-99.686	-0.350	-0.087
-485.435	293.691	0.062	-0.112
-484.420	-200.000	0.010	-0.069
-483.405	800.000	-0.038	-0.122
-482.391	-73.429	-0.068	-0.025
-481.376	-101.234	0.140	0.034
-480.362	455.587	0.187	-0.412
-479.347	-137.469	0.186	-0.021
-478.332	800.000	0.076	0.230
-477.318	-200.000	-0.032	-0.223
-476.303	-99.070	-0.129	-0.032
-475.289	800.000	0.062	-0.210
-474.274	-7.012	-0.263	-0.177
-473.259	-200.000	0.010	0.153
-472.245	432.641	-0.102	0.219
-471.230	-149.290	-0.271	-0.021
-470.216	84.543	-0.266	0.289
-469.201	236.196	0.051	0.084
-468.186	-7.591	-0.198	-0.133
-467.172	-27.936	-0.318	-0.183
-466.157	-97.133	0.217	0.056
-465.143	-200.000	-0.028	0.439
-464.128	7.037	-0.177	-0.131
-463.113	238.251	0.080	-0.131
-462.099	125.539	0.093	-0.117
-461.084	-129.023	-0.245	-0.034
-460.070	100.655	-0.071	-0.081
-459.055	-78.792	0.195	-0.066
-458.040	41.223	0.168	0.151
-457.026	-74.684	-0.207	0.074
-456.011	-65.921	-0.223	0.089
-454.997	-90.397	0.155	0.045
-453.982	238.992	-0.082	-0.135
-452.968	-200.000	0.016	-0.258
-451.953	-37.219	-0.215	0.114
-450.938	-16.019	-0.213	-0.134
-449.924	-200.000	0.054	-0.000
-448.909	-17.573	0.152	0.095
-447.895	32.444	-0.179	-0.153
-446.880	-167.397	0.224	0.009
-445.865	127.555	-0.163	-0.205
-444.851	371.636	-0.079	0.159
-443.836	-144.446	-0.073	0.007
-442.822	11.954	0.127	-0.097
-441.807	-200.000	0.010	0.046
-440.792	-200.000	0.007	-0.198
-439.778	-96.391	0.596	-0.156
-438.763	153.384	-0.232	0.315
-437.749	78.500	0.249	0.264
-436.734	606.717	-0.100	0.247
-435.719	799.096	0.104	0.285
-434.705	-32.048	-0.093	-0.052
-433.690	622.562	0.135	-0.337
-432.676	-47.042	-0.176	-0.085
-431.661	-147.568	0.151	0.013
-430.646	800.000	-0.041	-0.119
-429.632	91.699	0.042	0.047
-428.617	-200.000	0.037	-0.206
-427.603	-200.000	0.018	0.185
-426.588	-62.312	-0.153	-0.063
-425.573	-118.661	-0.216	-0.038
-424.559	391.442	-0.058	-0.120
-423.544	18.013	0.151	-0.120
-422.530	-97.876	0.468	-0.120
-421.515	727.799	-0.164	0.434
-420.500	-130.063	0.179	-0.024
-419.486	211.193	-0.163	-0.254
-418.471	231.652	0.088	0.143
-417.457	101.976	-0.185	0.214
-416.442	-200.000	-0.007	0.225
-415.428	47.129	-0.090	-0.083
-414.413	-65.722	-0.158	0.063
-413.398	105.812	-0.118	0.138
-412.384	75.112	-0.211	-0.221
-411.369	14.963	0.276	0.214
-410.355	-49.676	-0.243	-0.114
-409.340	800.000	0.057	-0.221
-408.325	-200.000	-0.005	0.070
-407.311	-3.074	0.472	-0.326
-406.296	-200.000	0.008	-0.087
-405.282	4.283	-0.094	0.068
-404.267	800.000	0.105	-0.350
-403.252	-18.494	0.320	0.198
-402.238	249.255	-0.132	-0.222
-401.223	289.884	0.068	0.122
-400.209	-59.181	0.213	0.091
-399.194	-29.173	0.175	0.099
-398.179	-3.253	0.210	-0.145
-397.165	-150.408	0.239	-0.018
-396.150	-138.724	0.160	-0.017
-395.136	-83.569	-0.161	-0.051
-394.121	-157.289	-0.077	0.005
-393.106	90.055	-0.072	0.080
-392.092	-121.083	-0.132	-0.022
-391.077	66.535	0.324	-0.326
-390.063	785.705	0.101	-0.274
-389.048	800.000	0.078	0.287
-388.033	-200.000	-0.018	-0.346
-387.019	800.000	-0.032	0.138
-386.004	-200.000	-0.018	0.096
-384.990	800.000	-0.145	0.487
-383.975	-57.639	-0.159	0.069
-382.960	-6.502	-0.276	-0.186
-381.946	710.602	0.129	-0.339
-380.931	-63.601	-0.198	0.081
-379.917	230.941	-0.110	0.178
-378.902	800.000	0.159	0.453
-377.888	272.974	-0.058	-0.102
-376.873	102.438	-0.104	-0.120
-375.858	800.000	-0.009	0.033
-374.844	-92.466	-0.114	0.032
-373.829	782.902	-0.051	0.137
-372.815	180.468	-0.177	0.257
-371.800	-36.196	0.211	0.113
-370.785	47.435	0.040	-0.037
-369.771	77.867	-0.165	0.174
-368.756	800.000	0.111	-0.355
-367.742	-50.319	0.067	0.031
-366.727	209.180	-0.199	-0.308
-365.712	-200.000	-0.025	-0.155
-364.698	-157.332	-0.109	0.007
-363.683	-200.000	-0.012	-0.059
-362.669	185.666	0.088	0.129
-361.654	147.815	0.057	-0.076
-360.639	-81.183	-0.433	0.142
-359.625	-200.000	-0.017	0.226
-358.610	77.297	-0.072	0.076
-357.596	-200.000	0.094	0.616
-356.581	427.461	-0.113	-0.241
-355.566	-76.942	0.260	0.090
-354.552	135.063	0.164	-0.211
-353.537	103.295	0.227	-0.263
-352.523	-146.575	0.309	0.027
-351.508	-200.000	-0.011	0.225
-350.493	-200.000	0.062	-0.382
-349.479	75.874	0.349	0.365
-348.464	97.548	-0.130	-0.148
-347.450	-200.000	0.021	-0.103
-346.435	-200.000	0.001	-0.052
-345.420	437.530	0.165	0.355
-344.406	16.605	-0.057	-0.044
-343.391	452.143	0.047	0.103
-342.377	-144.040	-0.429	0.040
-341.362	74.568	-0.097	0.101
-340.348	-200.000	0.008	0.194
-339.333	-78.745	0.226	-0.076
-338.318	-7.011	0.240	0.161
-337.304	-200.000	0.015	0.180
-336.289	-200.000	0.011	0.121
-335.275	111.215	0.136	-0.162
-334.260	-62.047	0.236	-0.097
-333.245	-154.243	-0.114	0.008
-332.231	221.052	-0.077	-0.122
-331.216	-200.000	0.025	0.165
-330.202	-132.313	-0.239	0.031
-329.187	-77.564	-0.187	0.064
-328.172	-54.926	-0.192	0.086
-327.158	70.922	0.112	0.115
-326.143	-70.109	0.237	0.089
-325.129	295.996	-0.097	0.176
-324.114	-123.166	0.193	0.031
-323.099	-52.649	-0.094	-0.043
-322.085	79.273	0.266	0.282
-321.070	307.919	-0.054	0.100
-320.056	-134.024	0.112	-0.014
-319.041	800.000	0.013	0.041
-318.026	163.951	-0.254	0.354
-317.012	-200.000	-0.008	-0.189
-315.997	144.513	0.038	0.050
-314.983	-13.777	-0.127	-0.081
-313.968	-200.000	-0.011	-0.072
-312.953	-118.985	0.079	0.014
-311.939	-84.489	-0.133	-0.041
-310.924	-157.041	0.197	0.012
-309.910	183.129	0.176	-0.257
-308.895	155.858	-0.079	0.107
-307.880	-55.277	0.190	0.084
-306.866	-145.347	0.208	-0.019
-305.851	-200.000	-0.009	-0.205
-304.837	26.165	0.187	0.154
-303.822	-78.384	0.374	0.127
-302.807	-200.000	-0.007	0.130
-301.793	-163.444	0.139	0.007
-300.778	-200.000	0.008	0.459
-299.764	607.143	-0.050	-0.122
-298.749	20.374	0.273	-0.217
-297.735	-200.000	0.040	0.258
-296.720	461.958	0.097	0.214
-295.705	234.487	-0.098	0.160
-294.691	372.801	-0.063	-0.127
-293.676	800.000	-0.046	-0.150
-292.662	570.464	0.058	0.139
-291.647	424.207	0.139	0.295
-290.632	220.097	0.172	-0.271
-289.618	-200.000	0.054	0.238
-288.603	-118.793	0.238	0.041
-287.589	-78.252	-0.076	0.026
-286.574	-200.000	0.218	0.000
-285.559	-63.257	0.167	-0.068
-284.545	-200.000	0.000	-0.334
-283.530	-200.000	-0.001	0.332
-282.516	-28.372	-0.176	0.100
-281.501	-35.755	0.286	0.153
-280.486	-84.366	-0.398	0.124
-279.472	-200.000	-0.007	-0.073
-278.457	800.000	-0.066	0.221
-277.443	-200.000	0.022	0.448
-276.428	800.000	0.019	0.060
-275.413	800.000	0.032	-0.125
-274.399	800.000	-0.048	0.171
-273.384	733.992	-0.090	0.237
-272.370	255.167	0.180	-0.303
-271.355	-200.000	0.010	-0.060
-270.340	-200.000	0.012	-0.051
-269.326	13.138	0.290	0.222
-268.311	527.845	0.163	0.379
-267.297	374.385	0.019	0.038
-266.282	509.875	0.051	-0.117
-265.267	-111.515	-0.246	0.049
-264.253	-200.000	-0.001	0.076
-263.238	-200.000	0.001	0.351
-262.224	-200.000	0.007	-0.066
-261.209	415.050	0.076	-0.159
-260.195	-200.000	-0.009	0.194
-259.180	-92.285	-0.496	0.138
-258.165	-200.000	0.029	0.173
-257.151	160.579	-0.145	0.200
-256.136	326.238	0.040	0.076
-255.122	-152.273	-0.111	0.008
-254.107	-31.864	-0.265	-0.146
-253.092	30.928	-0.197	-0.166
-252.078	294.004	-0.070	0.125
-251.063	-36.420	0.209	-0.111
-250.049	195.968	-0.116	0.173
-249.034	800.000	-0.104	0.309
-248.019	-200.000	-0.005	0.129
-247.005	320.060	0.172	0.322
-245.990	478.568	-0.061	-0.137
-244.976	-200.000	0.071	-0.334
-243.961	1.305	-0.303	-0.215
-242.946	-200.000	-0.020	-0.299
-241.932	603.805	0.037	-0.092
-240.917	-144.127	0.180	0.017
-239.903	302.709	0.098	0.179
-238.888	-0.140	-0.243	-0.170
-237.873	95.827	-0.155	0.175
-236.859	-179.279	0.203	-0.004
-235.844	-146.057	0.198	0.017
-234.830	-110.860	0.236	0.048
-233.815	-90.482	0.354	0.101
-232.800	-153.691	-0.171	-0.012
-231.786	-200.000	-0.020	-0.154
-230.771	-200.000	0.017	-0.264
-229.757	-200.000	0.012	-0.130
-228.742	-88.534	0.082	-0.024
-227.727	-49.425	-0.043	0.020
-226.713	-112.200	-0.030	0.006
-225.698	390.092	0.174	0.355
-224.684	-148.482	0.136	-0.011
-223.669	-101.171	0.530	-0.128
-222.655	186.784	0.131	0.192
-221.640	-161.953	0.135	0.007
-220.625	142.403	-0.118	-0.154
-219.611	-122.346	-0.021	0.003
-218.596	-200.000	0.012	-0.179
-217.582	800.000	0.018	-0.060
-216.567	-200.000	0.033	-0.350
-215.552	-200.000	-0.009	-0.176
-214.538	598.869	-0.058	0.140
-213.523	-65.435	-0.221	-0.087
-212.509	-200.000	0.011	0.110
-211.494	46.440	0.254	0.231
-210.479	-74.977	-0.204	-0.072
-209.465	-72.416	0.266	0.097
-208.450	51.452	-0.218	0.203
-207.436	-200.000	-0.024	0.203
-206.421	118.403	-0.062	0.075
-205.406	-76.204	-0.259	-0.090
-204.392	800.000	0.135	-0.365
-203.377	-167.750	-0.331	-0.013
-202.363	-37.725	-0.576	0.302
-201.348	800.000	-0.124	0.500
-200.333	-128.966	-0.053	-0.007
-199.319	-28.151	0.115	-0.066
-198.304	228.725	-0.219	0.351
-197.290	4.882	0.082	-0.059
-196.275	321.008	0.055	-0.103
-195.260	145.572	-0.041	-0.053
-194.246	-30.559	0.248	0.138
-193.231	-55.982	-0.110	0.048
-192.217	-90.936	0.172	-0.049
-191.202	800.000	0.038	0.148
-190.187	-43.932	0.211	0.104
-189.173	-78.001	-0.219	-0.074
-188.158	167.641	0.043	-0.059
-187.144	350.937	-0.169	0.329
-186.129	-22.125	0.075	-0.045
-185.114	228.445	0.171	-0.274
-184.100	-23.598	0.250	0.147
-183.085	-152.376	-0.118	0.008
-182.071	-72.807	0.275	-0.099
-181.056	234.440	0.218	-0.353
-180.042	101.637	-0.161	0.184
-179.027	-147.793	-0.213	0.018
-178.012	-200.000	0.039	-0.191
-176.998	252.968	-0.061	-0.102
-175.983	800.000	-0.108	-0.361
-174.969	376.641	0.082	-0.165
-173.954	-85.317	-0.042	0.013
-172.939	-64.241	-0.191	0.076
-171.925	-0.953	-0.032	-0.022
-170.910	800.000	0.025	0.100
-169.896	-43.652	0.269	-0.133
-168.881	-200.000	-0.017	0.082
-167.866	244.353	0.119	0.196
-166.852	621.409	0.066	0.162
-165.837	23.281	-0.097	0.078
-164.823	800.000	0.087	0.346
-163.808	25.647	-0.121	0.099
-162.793	472.928	-0.040	-0.089
-161.779	62.266	-0.107	0.104
-160.764	419.578	0.056	0.117
-159.750	-87.648	-0.216	-0.064
-158.735	119.284	0.007	-0.009
-157.720	-200.000	-0.024	0.251
-156.706	-60.536	0.230	-0.096
-155.691	-200.000	0.013	0.060
-154.677	-66.583	0.058	0.023
-153.662	219.501	0.097	-0.152
-152.647	154.939	-0.052	0.070
-151.633	-29.235	-0.122	-0.069
-150.618	72.124	0.106	-0.109
-149.604	358.212	0.208	0.407
-148.589	-136.380	0.139	0.016
-147.574	-43.721	-0.333	-0.165
-146.560	57.254	-0.267	0.255
-145.545	-200.000	-0.015	0.284
-144.531	75.745	0.372	-0.386
-143.516	-61.832	-0.087	-0.036
-142.502	154.475	0.140	0.188
-141.487	53.929	0.127	-0.119
-140.472	800.000	0.107	0.388
-139.458	-200.000	-0.037	-0.162
-138.443	94.443	0.056	-0.063
-137.429	-69.214	-0.280	0.106
-136.414	246.170	-0.202	0.334
-135.399	-92.626	0.593	0.163
-134.385	800.000	0.056	-0.172
-133.370	800.000	0.052	-0.222
-132.356	-11.396	-0.085	-0.055
-131.341	-52.017	0.152	-0.069
-130.326	-51.213	-0.105	-0.048
-129.312	-110.553	0.242	-0.049
-128.297	-6.204	-0.034	0.023
-127.283	32.006	-0.116	-0.098
-126.268	-15.699	-0.205	0.128
-125.253	124.897	0.125	-0.155
-124.239	-162.459	-0.346	0.017
-123.224	500.842	0.121	0.274
-122.210	-76.022	0.170	-0.059
-121.195	-31.032	0.191	-0.106
-120.180	280.614	0.165	-0.289
-119.166	33.526	-0.060	-0.051
-118.151	-200.000	0.024	-0.161
-117.137	20.295	0.251	0.198
-116.122	47.905	0.092	0.084
-115.107	-91.329	-0.173	0.048
-114.093	-20.591	-0.155	0.093
-113.078	-62.093	0.067	0.028
-112.064	800.000	0.065	-0.265
-111.049	104.334	-0.137	0.158
-110.034	-52.511	-0.236	-0.107
-109.020	-200.000	-0.043	0.312
-108.005	-200.000	0.079	0.351
-106.991	-103.623	-0.135	0.031
-105.976	-111.067	0.052	-0.011
-104.962	60.820	0.225	0.219
-103.947	-200.000	-0.010	-0.210
-102.932	-96.684	-0.322	0.083
-101.918	26.719	-0.061	-0.050
-100.903	701.794	0.119	0.308
-99.889	283.298	0.105	-0.185
-98.874	-200.000	0.058	-0.310
-97.859	-120.280	-0.373	-0.062
-96.845	800.000	0.125	0.487
-95.830	186.275	-0.052	0.076
-94.816	-200.000	-0.011	0.088
-93.801	9.592	-0.133	0.098
-92.786	-58.298	-0.172	-0.073
-91.772	-115.102	-0.088	0.016
-90.757	23.079	-0.047	0.037
-89.743	224.481	-0.136	0.215
-88.728	35.542	0.265	0.228
-87.713	800.000	-0.126	-0.433
-86.699	-16.869	0.195	0.120
-85.684	332.225	-0.111	-0.209
-84.670	75.475	0.167	-0.172
-83.655	-71.517	0.568	0.208
-82.640	-92.451	0.201	0.055
-81.626	-200.000	-0.008	-0.052
-80.611	614.900	0.074	0.181
-79.597	-184.196	-0.212	0.003
-78.582	-68.491	0.086	0.033
-77.567	117.782	0.137	-0.165
-76.553	502.894	-0.136	-0.308
-75.538	7.279	-0.084	0.061
-74.524	-128.488	0.070	-0.010
-73.509	-76.060	-0.356	0.123
-72.494	637.205	-0.112	-0.278
-71.480	-200.000	-0.058	0.364
-70.465	-66.418	0.448	-0.174
-69.451	-79.098	-0.162	0.054
-68.436	-200.000	0.058	-0.320
-67.422	96.815	0.152	-0.170
-66.407	800.000	-0.058	0.210
-65.392	269.917	0.113	-0.195
-64.378	-200.000	0.016	0.172
-63.363	6.089	0.174	-0.126
-62.349	-70.013	-0.172	0.064
-61.334	69.680	-1.008	-1.016
-60.319	298.124	0.294	0.529
-59.305	520.156	-0.462	-1.060
-58.290	272.074	0.663	1.142
-57.276	682.137	0.639	1.627
-56.261	-200.000	113.049	651.047
-55.246	488.442	1494.820	3336.359
-54.232	149.219	2665.545	3525.250
-53.217	97.912	2275.656	2558.253
-52.203	36.463	1891.950	1631.031
-51.188	30.630	1686.457	1409.759
-50.173	28.134	1644.981	1356.550
-49.159	49.637	1699.288	1563.779
-48.144	48.606	1714.392	1569.865
-47.130	30.302	1672.904	1395.737
-46.115	27.624	1658.343	1363.537
-45.100	27.416	1653.730	1358.143
-44.086	27.309	1651.552	1355.499
-43.071	27.446	1648.480	1353.945
-42.057	27.334	1646.456	1351.397
-41.042	27.335	1644.358	1349.626
-40.027	27.397	1642.247	1348.300
-39.013	27.436	1640.178	1346.841
-37.998	27.284	1639.280	1344.921
-36.984	27.434	1637.679	1344.667
-35.969	27.433	1636.478	1343.620
-34.954	27.529	1634.599	1342.728
-33.940	27.512	1633.123	1341.336
-32.925	27.489	1631.148	1339.491
-31.911	27.477	1629.394	1337.910
-30.896	27.464	1627.736	1336.405
-29.881	27.514	1625.756	1335.092
-28.867	27.487	1624.616	1333.905
-27.852	27.476	1623.294	1332.685
-26.838	27.415	1621.262	1330.516
-25.823	27.469	1620.550	1330.276
-24.809	27.534	1618.861	1329.308
-23.794	27.482	1617.651	1327.887
-22.779	27.617	1615.819	1327.307
-21.765	27.513	1614.597	1325.499
-20.750	27.459	1613.026	1323.763
-19.736	27.538	1611.472	1323.012
-18.721	27.582	1609.992	1322.059
-17.706	27.586	1608.193	1320.557
-16.692	27.503	1607.652	1319.463
-15.677	27.561	1606.187	1318.629
-14.663	27.560	1604.948	1317.551
-13.648	27.560	1603.495	1316.303
-12.633	27.543	1601.512	1314.504
-11.619	27.557	1600.468	1313.691
-10.604	27.565	1598.463	1312.052
-9.590	27.525	1597.310	1310.766
-8.575	27.602	1595.878	1310.094
-7.560	27.506	1595.016	1308.647
-6.546	27.513	1593.495	1307.394
-5.531	27.521	1593.002	1306.998
-4.517	27.533	1591.684	1305.951
-3.502	27.438	1590.609	1304.335
-2.487	27.558	1588.668	1303.548
-1.473	27.251	1576.737	1291.531
-0.458	24.252	1557.967	1255.024
0.556	18.775	1559.520	1224.123
1.571	16.593	1582.414	1226.187
2.586	16.144	1595.049	1232.589
3.600	15.443	1544.626	1188.558
4.615	12.883	1447.173	1096.463
5.629	10.216	1391.891	1037.405
6.644	9.729	1384.978	1029.056
7.659	9.570	1384.103	1027.302
8.673	9.581	1382.810	1026.323
9.688	9.550	1380.802	1024.546
10.702	9.376	1377.812	1021.128
11.717	10.692	1379.239	1030.452
12.731	13.889	1385.129	1055.112
13.746	16.782	1389.362	1076.650
14.761	17.266	1389.288	1079.573
15.775	16.353	1387.140	1072.021
16.790	15.479	1383.564	1063.624
17.804	14.599	1381.466	1056.349
18.819	13.973	1380.608	1051.636
19.834	13.828	1378.661	1049.146
20.848	13.613	1377.870	1047.090
21.863	13.360	1376.308	1044.218
22.877	13.179	1375.185	1042.131
23.892	13.171	1374.092	1041.161
24.907	13.201	1373.669	1040.932
25.921	13.210	1372.407	1039.944
26.936	13.199	1371.430	1039.042
27.950	13.363	1370.023	1038.918
28.965	13.267	1369.677	1037.957
29.980	13.344	1368.188	1037.219
30.994	13.367	1367.378	1036.660
32.009	13.482	1365.561	1035.911
33.023	13.413	1364.687	1034.722
34.038	13.409	1363.209	1033.488
35.053	13.260	1361.942	1031.505
36.067	13.383	1360.781	1031.302
37.082	13.336	1359.643	1030.051
38.096	13.344	1358.760	1029.341
39.111	13.385	1357.908	1028.862
40.126	13.318	1357.314	1027.907
41.140	13.159	1356.322	1026.077
42.155	13.077	1355.681	1024.991
43.169	13.099	1355.712	1025.061
44.184	13.063	1355.692	1024.729
45.199	13.094	1355.005	1024.313
46.213	13.183	1353.801	1023.860
47.228	13.215	1353.299	1023.594
48.242	13.237	1352.108	1022.738
49.257	13.151	1350.833	1021.146
50.271	13.270	1349.339	1020.662
51.286	13.260	1347.698	1019.270
52.301	13.221	1346.607	1018.114
53.315	13.214	1345.925	1017.465
54.330	13.127	1344.622	1015.859
55.344	13.123	1343.486	1014.885
56.359	13.193	1342.278	1014.309
57.374	13.117	1341.612	1013.254
58.388	13.164	1340.409	1012.543
59.403	13.061	1340.301	1011.740
60.417	13.074	1339.470	1011.104
61.432	12.960	1339.115	1010.048
62.447	12.983	1337.566	1008.927
63.461	13.005	1336.458	1008.141
64.476	12.977	1335.240	1006.958
65.490	13.031	1333.870	1006.169
66.505	13.063	1332.667	1005.363
67.520	13.061	1331.183	1004.144
68.534	13.020	1330.633	1003.395
69.549	13.062	1329.365	1002.604
70.563	12.939	1328.275	1000.947
71.578	12.985	1327.352	1000.443
72.593	12.889	1326.672	999.259
73.607	12.879	1325.893	998.521
74.622	12.798	1325.508	997.652
75.636	12.959	1324.433	997.729
76.651	12.903	1323.881	996.887
77.666	12.892	1323.338	996.322
78.680	12.879	1323.039	995.930
79.695	12.984	1321.901	995.618
80.709	12.911	1321.417	994.728
81.724	13.054	1320.261	994.632
82.739	13.228	1318.971	994.616
83.753	13.231	1318.340	994.069
84.768	13.231	1317.029	992.997
85.782	13.194	1316.261	992.108
86.797	13.268	1314.657	991.254
87.812	13.079	1313.574	989.216
88.826	13.261	1312.369	989.309
89.841	13.348	1311.061	988.760
90.855	13.329	1310.567	988.185
91.870	13.245	1309.621	986.881
92.884	13.278	1308.913	986.458
93.899	13.292	1308.243	985.949
94.914	13.313	1307.524	985.443
95.928	13.345	1306.562	984.825
96.943	13.429	1305.067	984.110
97.957	13.373	1304.422	983.202
98.972	13.339	1303.222	982.008
99.987	13.351	1302.026	981.093
101.001	13.275	1301.260	979.977
102.016	13.308	1300.378	979.422
103.030	13.280	1299.780	978.721
104.045	13.375	1298.437	978.186
105.060	13.348	1297.318	977.097
106.074	13.176	1295.994	974.994
107.089	13.000	1294.923	973.068
108.103	13.094	1293.360	972.362
109.118	13.106	1292.211	971.481
110.133	13.089	1291.235	970.561
111.147	13.088	1289.657	969.285
112.162	13.151	1288.095	968.391
113.176	13.144	1287.182	967.580
114.191	13.132	1286.345	966.794
115.206	13.203	1284.710	965.897
116.220	13.187	1283.747	964.989
117.235	13.100	1282.692	963.608
118.249	13.081	1281.841	962.773
119.264	13.199	1280.179	962.124
120.279	13.158	1279.452	961.256
121.293	13.126	1278.154	960.006
122.308	12.992	1277.237	958.454
123.322	13.083	1275.949	957.933
124.337	13.029	1275.442	957.155
125.352	12.981	1274.598	956.155
126.366	13.054	1273.099	955.372
127.381	13.087	1271.939	954.606
128.395	13.025	1270.910	953.394
129.410	13.124	1269.857	953.087
130.424	13.055	1269.133	952.063
131.439	13.120	1268.104	951.584
132.454	13.192	1266.980	951.070
133.468	13.211	1266.537	950.759
134.483	13.174	1265.820	949.928
135.497	13.124	1264.656	948.679
136.512	13.095	1263.387	947.479
137.527	13.199	1261.917	946.887
138.541	13.118	1260.256	945.093
139.556	13.244	1258.923	944.730
140.570	13.162	1258.400	943.788
141.585	13.289	1256.449	942.963
142.600	13.306	1255.732	942.440
143.614	13.439	1254.883	942.478
144.629	13.381	1254.030	941.427
145.643	13.432	1252.826	940.729
146.658	13.344	1251.339	939.030
147.673	13.337	1249.880	937.810
148.687	13.331	1249.067	937.085
149.702	13.327	1247.271	935.631
150.716	13.204	1246.475	934.255
151.731	13.342	1244.906	933.773
152.746	13.369	1243.772	932.991
153.760	13.332	1242.706	931.903
154.775	13.416	1241.615	931.478
155.789	13.411	1240.691	930.672
156.804	13.400	1240.163	930.131
157.819	13.490	1238.464	929.281
158.833	13.456	1237.627	928.379
159.848	13.587	1236.963	928.532
160.862	13.539	1235.526	927.103
161.877	13.441	1234.760	925.900
162.892	13.427	1233.250	924.606
163.906	13.422	1232.249	923.748
164.921	13.406	1232.020	923.403
165.935	13.401	1230.947	922.488
166.950	13.590	1229.778	922.586
167.964	13.459	1229.605	921.641
168.979	13.529	1228.728	921.295
169.994	13.483	1227.819	920.277
171.008	13.484	1227.135	919.685
172.023	13.484	1226.665	919.252
173.037	13.579	1225.636	918.926
174.052	13.721	1224.122	918.496
175.067	13.528	1223.646	916.989
176.081	13.466	1222.746	915.893
177.096	13.440	1221.723	914.900
178.110	13.574	1220.458	914.613
179.125	13.508	1219.355	913.340
180.140	13.540	1218.150	912.535
181.154	13.540	1217.305	911.819
182.169	13.544	1216.059	910.827
183.183	13.658	1214.923	910.521
184.198	13.659	1213.888	909.673
185.213	13.728	1212.315	908.789
186.227	13.803	1211.132	908.236
187.242	13.622	1210.832	906.940
188.256	13.840	1209.412	906.984
189.271	13.846	1207.946	905.838
190.286	13.654	1207.224	904.171
191.300	13.419	1206.520	902.284
192.315	13.458	1205.660	901.770
193.329	13.561	1204.780	901.596
194.344	13.575	1204.569	901.434
195.359	13.668	1203.897	901.358
196.373	13.746	1203.694	901.549
197.388	13.820	1202.847	901.238
198.402	13.800	1202.599	900.861
199.417	13.923	1201.865	900.900
200.432	13.976	1200.964	900.431
201.446	13.953	1200.150	899.619
202.461	14.062	1199.186	899.406
203.475	14.130	1198.371	899.082
204.490	13.944	1197.161	897.091
205.504	13.834	1196.166	895.674
206.519	13.969	1194.708	895.230
207.534	13.992	1193.394	894.288
208.548	13.978	1192.351	893.350
209.563	13.977	1191.943	892.962
210.577	13.945	1191.478	892.362
211.592	14.120	1189.930	892.061
212.607	14.180	1189.231	891.784
213.621	14.155	1188.398	890.946
214.636	14.093	1187.749	890.045
215.650	14.088	1186.765	889.205
216.665	14.137	1185.514	888.450
217.680	14.143	1184.581	887.704
218.694	14.232	1183.771	887.492
219.709	14.224	1183.303	887.021
220.723	14.215	1182.560	886.335
221.738	14.146	1181.839	885.351
222.753	14.216	1180.942	884.975
223.767	14.231	1180.354	884.535
224.782	14.349	1179.569	884.494
225.796	14.397	1179.111	884.325
226.811	14.448	1177.901	883.611
227.826	14.241	1177.922	882.451
228.840	14.319	1177.052	882.135
229.855	14.223	1176.251	880.951
230.869	14.347	1175.475	880.948
231.884	14.228	1174.740	879.690
232.899	14.265	1173.768	879.079
233.913	14.196	1173.198	878.208
234.928	14.229	1172.366	877.684
235.942	14.269	1171.712	877.328
236.957	14.253	1170.786	876.471
237.972	14.303	1169.741	875.875
238.986	14.343	1169.284	875.664
240.001	14.373	1168.593	875.225
241.015	14.270	1167.700	873.938
242.030	14.305	1166.869	873.426
243.045	14.301	1166.649	873.163
244.059	14.364	1165.489	872.548
245.074	14.369	1164.734	871.931
246.088	14.455	1164.123	871.845
247.103	14.477	1163.180	871.178
248.117	14.662	1162.326	871.428
249.132	14.588	1161.944	870.677
250.147	14.703	1160.909	870.421
251.161	14.758	1160.250	870.138
252.176	14.766	1159.934	869.867
253.190	14.826	1159.345	869.660
254.205	14.900	1158.385	869.248
255.220	14.894	1157.828	868.722
256.234	14.826	1157.401	867.973
257.249	14.801	1156.476	867.073
258.263	14.830	1156.090	866.857
259.278	14.834	1155.540	866.386
260.293	14.940	1154.854	866.345
261.307	14.917	1154.304	865.735
262.322	14.914	1153.406	864.969
263.336	15.081	1152.422	865.021
264.351	15.063	1151.948	864.496
265.366	15.012	1151.562	863.864
266.380	14.995	1150.786	863.117
267.395	15.001	1149.810	862.341
268.409	14.992	1148.887	861.527
269.424	15.034	1148.430	861.323
270.439	15.107	1147.803	861.150
271.453	14.994	1146.849	859.782
272.468	15.034	1146.136	859.375
273.482	14.963	1145.390	858.376
274.497	14.938	1144.840	857.759
275.512	15.011	1144.174	857.557
276.526	15.038	1143.509	857.123
277.541	14.940	1142.570	855.840
278.555	15.132	1142.133	856.421
279.570	15.067	1141.420	855.479
280.585	15.260	1140.345	855.582
281.599	15.197	1139.432	854.498
282.614	15.209	1138.567	853.835
283.628	15.179	1137.056	852.471
284.643	15.266	1136.359	852.318
285.657	15.224	1135.928	851.704
286.672	15.211	1134.962	850.839
287.687	15.138	1133.997	849.673
288.701	15.199	1132.989	849.153
289.716	15.222	1132.725	848.992
290.730	15.149	1132.553	848.419
291.745	15.149	1131.221	847.347
292.760	15.252	1130.607	847.334
293.774	15.476	1129.889	847.852
294.789	15.401	1129.587	847.172
295.803	15.533	1128.452	846.910
296.818	15.367	1127.888	845.575
297.833	15.322	1127.161	844.727
298.847	15.318	1126.341	844.017
299.862	15.452	1125.448	843.947
300.876	15.357	1124.721	842.850
301.891	15.496	1124.242	843.118
302.906	15.390	1123.896	842.253
303.920	15.545	1122.822	842.148
304.935	15.539	1122.369	841.703
305.949	15.661	1121.582	841.652
306.964	15.630	1120.994	840.981
307.979	15.690	1120.196	840.606
308.993	15.613	1119.511	839.632
310.008	15.590	1119.104	839.136
311.022	15.725	1117.926	838.856
312.037	15.738	1117.056	838.193
313.052	15.594	1116.376	836.893
314.066	15.612	1115.226	836.043
315.081	15.583	1114.490	835.275
316.095	15.505	1114.287	834.660
317.110	15.548	1113.452	834.174
318.125	15.429	1112.672	832.925
319.139	15.502	1111.724	832.502
320.154	15.573	1111.138	832.344
321.168	15.528	1110.420	831.508
322.183	15.570	1110.075	831.386
323.197	15.611	1109.111	830.794
324.212	15.622	1108.544	830.351
325.227	15.578	1108.195	829.798
326.241	15.691	1107.318	829.625
327.256	15.651	1106.601	828.816
328.270	15.730	1105.444	828.264
329.285	15.650	1104.480	827.078
330.300	15.620	1103.313	825.981
331.314	15.671	1102.697	825.700
332.329	15.771	1101.612	825.304
333.343	15.808	1100.572	824.630
334.358	15.743	1100.259	824.005
335.373	15.809	1099.342	823.568
336.387	15.814	1098.918	823.203
337.402	15.959	1097.653	822.892
338.416	15.828	1097.763	822.262
339.431	15.958	1096.991	822.247
340.446	16.087	1095.921	822.000
341.460	16.100	1095.658	821.794
342.475	16.145	1094.922	821.387
343.489	16.112	1093.508	820.094
344.504	15.986	1093.066	819.079
345.519	16.044	1091.998	818.487
346.533	16.102	1091.365	818.223
347.548	16.254	1090.812	818.471
348.562	16.288	1089.615	817.665
349.577	16.171	1089.103	816.644
350.592	16.042	1088.391	815.413
351.606	16.091	1087.192	814.676
352.621	16.021	1086.644	813.858
353.635	16.021	1086.224	813.468
354.650	16.021	1085.530	812.881
355.665	16.050	1084.638	812.278
356.679	16.118	1084.252	812.247
357.694	16.080	1083.634	811.529
358.708	16.194	1082.947	811.488
359.723	16.183	1082.443	810.987
360.738	16.168	1081.633	810.239
361.752	16.181	1081.038	809.781
362.767	16.286	1080.312	809.670
363.781	16.345	1079.525	809.292
364.796	16.342	1078.943	808.767
365.810	16.428	1078.771	808.979
366.825	16.418	1078.471	808.634
367.840	16.476	1077.388	808.028
368.854	16.430	1077.157	807.564
369.869	16.457	1076.468	807.103
370.883	16.529	1075.470	806.626
371.898	16.438	1074.753	805.585
372.913	16.353	1074.489	804.913
373.927	16.449	1073.590	804.626
374.942	16.581	1073.138	804.841
375.956	16.615	1072.458	804.423
376.971	16.664	1071.486	803.853
377.986	16.565	1071.282	803.160
379.000	16.728	1070.590	803.344
380.015	16.694	1070.382	802.955
381.029	16.821	1069.543	802.857
382.044	16.660	1068.968	801.593
383.059	16.734	1068.101	801.222
384.073	16.611	1067.636	800.221
385.088	16.850	1066.235	800.226
386.102	16.756	1065.337	799.039
387.117	16.724	1064.880	798.476
388.132	16.639	1063.998	797.344
389.146	16.659	1062.482	796.229
390.161	16.735	1061.689	795.921
391.175	16.606	1061.588	795.169
392.190	16.786	1060.526	795.150
393.205	16.863	1060.047	795.083
394.219	16.873	1059.259	794.466
395.234	16.804	1058.478	793.485
396.248	16.769	1057.156	792.262
397.263	16.743	1056.493	791.574
398.278	16.750	1056.011	791.175
399.292	16.775	1055.046	790.497
400.307	16.695	1054.321	789.511
401.321	16.655	1053.792	788.859
402.336	16.887	1052.549	788.942
403.350	16.843	1051.949	788.217
404.365	16.786	1051.807	787.777
405.380	16.820	1051.176	787.390
406.394	16.826	1050.361	786.740
407.409	16.970	1049.478	786.677
408.423	17.000	1048.639	786.114
409.438	17.085	1048.276	786.169
410.453	17.057	1047.606	785.468
411.467	17.121	1046.675	784.993
412.482	17.128	1046.207	784.608
413.496	17.137	1045.447	784.007
414.511	17.118	1045.121	783.604
415.526	17.199	1044.480	783.432
416.540	17.281	1044.087	783.445
417.555	17.210	1043.819	782.849
418.569	17.155	1042.988	781.901
419.584	17.227	1042.420	781.737
420.599	17.315	1042.043	781.791
421.613	104.892	1325.816	1477.490
422.628	96.298	1367.129	1477.582
