DTS Sentinel unit serial number:	SN413079Multiplexer serial number:	ORYXHardware model number:	OX4-SRSoftware version number:	ORYX F/W v4.00 Oryx Data Collector v3.7.2.0data status	okinstallation	princeton_trtdifferential loss correction	single-endedforward channel	channel 2reverse channel	N/Adate	2019/09/16time	13:11:34forward acquisition time	60.00reverse acquisition time	0.00gamma	496.2192k internal	0.2299k external	0.2299temperature offset calibration	0.9939default loss term (dB/km)	0.3790temperature slope calibration	1.0000multiplexer offset coefficient	1.0000multiplexer slope coefficient	1.0000fibre end	0.00T internal ref (°C)	41.00T ext. ref 1 (°C)	13.66T ext. ref 2 (°C)	38.84length (m)	temperature (°C)	Stokes	anti-Stokes-747.200	-57.088	-0.064	-0.029
-746.185	-35.223	-0.253	0.140
-745.171	696.112	-0.063	-0.169
-744.156	138.762	-0.050	0.067
-743.142	800.000	-0.061	-0.263
-742.127	179.891	-0.115	0.171
-741.112	793.015	0.155	0.435
-740.098	300.196	-0.246	0.463
-739.083	407.024	-0.067	0.145
-738.069	-200.000	-0.015	0.187
-737.054	-32.654	-0.169	0.096
-736.039	557.289	0.070	-0.173
-735.025	58.836	0.111	0.111
-734.010	203.694	0.176	-0.278
-732.996	-77.804	-0.108	-0.038
-731.981	-86.413	-0.194	-0.061
-730.966	-200.000	0.009	0.409
-729.952	-23.623	-0.167	0.102
-728.937	303.829	-0.165	-0.312
-727.923	49.436	0.212	0.203
-726.908	35.573	-0.179	0.160
-725.894	-200.000	0.050	-0.338
-724.879	84.193	-0.158	-0.177
-723.864	-70.428	-0.101	0.039
-722.850	-96.465	0.119	0.032
-721.835	-200.000	-0.058	-0.543
-720.821	-89.904	-0.084	0.025
-719.806	1.941	0.210	0.154
-718.791	-121.662	-0.121	0.020
-717.777	-200.000	0.033	0.293
-716.762	179.557	0.186	-0.277
-715.748	-200.000	-0.024	-0.250
-714.733	649.689	0.095	-0.247
-713.718	230.933	0.170	-0.284
-712.704	-200.000	-0.048	-0.317
-711.689	-200.000	-0.050	-0.292
-710.675	-50.588	-0.045	0.022
-709.660	-17.701	-0.190	0.121
-708.645	-61.567	0.268	-0.115
-707.631	800.000	-0.067	-0.280
-706.616	-200.000	0.016	-0.348
-705.602	-200.000	0.030	0.268
-704.587	71.108	0.163	0.173
-703.572	800.000	-0.039	0.141
-702.558	-109.046	0.359	-0.078
-701.543	-80.572	-0.156	-0.053
-700.529	-200.000	-0.011	0.488
-699.514	-199.632	-0.073	-0.000
-698.499	29.069	0.169	-0.146
-697.485	800.000	0.060	-0.229
-696.470	-117.667	-0.388	-0.071
-695.456	-83.639	0.370	-0.120
-694.441	206.340	-0.194	-0.307
-693.426	-117.342	0.219	0.040
-692.412	93.798	-0.102	0.117
-691.397	-83.550	-0.176	-0.057
-690.383	467.322	0.064	-0.147
-689.368	19.937	-0.077	-0.063
-688.354	-54.260	-0.167	0.077
-687.339	-200.000	0.008	0.138
-686.324	39.532	-0.294	-0.269
-685.310	-126.819	0.178	0.027
-684.295	108.373	0.174	0.211
-683.281	-58.819	-0.148	-0.065
-682.266	-200.000	-0.013	-0.100
-681.251	-122.562	0.370	-0.061
-680.237	-200.000	0.013	-0.118
-679.222	92.645	0.225	-0.258
-678.208	291.942	-0.046	-0.085
-677.193	204.121	-0.219	-0.345
-676.178	-200.000	0.004	-0.085
-675.164	-115.237	0.072	0.014
-674.149	216.185	0.024	0.039
-673.135	654.298	0.070	-0.183
-672.120	-200.000	0.045	-0.467
-671.105	16.547	-0.080	-0.064
-670.091	800.000	0.097	0.347
-669.076	57.814	-0.198	-0.197
-668.062	173.531	-0.175	-0.257
-667.047	-95.961	0.306	0.083
-666.032	-194.113	0.083	-0.001
-665.018	-119.085	0.176	0.031
-664.003	-17.472	0.177	-0.114
-662.989	473.896	0.060	0.138
-661.974	531.890	-0.067	-0.160
-660.959	800.000	-0.029	0.091
-659.945	30.667	0.170	-0.148
-658.930	476.090	0.135	-0.309
-657.916	-152.048	-0.366	-0.027
-656.901	7.385	0.121	0.092
-655.886	-108.012	-0.359	0.079
-654.872	66.392	-0.155	-0.161
-653.857	-14.790	-0.210	-0.137
-652.843	78.734	-0.071	-0.077
-651.828	-200.000	0.022	-0.304
-650.814	-163.235	-0.159	0.008
-649.799	-83.705	0.171	0.055
-648.784	-200.000	-0.004	0.042
-647.770	105.793	-0.126	0.151
-646.755	65.794	-0.013	0.013
-645.741	627.499	0.105	0.271
-644.726	-80.513	-0.116	-0.039
-643.711	-95.806	0.397	-0.108
-642.697	-150.882	0.369	0.028
-641.682	800.000	-0.038	0.140
-640.668	22.192	0.191	0.158
-639.653	6.324	-0.210	-0.158
-638.638	-73.416	0.291	0.108
-637.624	731.596	-0.097	0.262
-636.609	79.930	-0.369	-0.403
-635.595	38.438	-0.245	-0.222
-634.580	291.332	0.063	0.117
-633.565	-200.000	-0.041	-0.228
-632.551	800.000	-0.049	0.150
-631.536	-2.719	-0.122	0.086
-630.522	-60.159	0.067	-0.029
-629.507	600.711	0.028	0.070
-628.492	-200.000	-0.027	0.219
-627.478	98.400	-0.077	-0.090
-626.463	25.175	-0.233	-0.197
-625.449	-9.371	0.423	-0.287
-624.434	-0.375	0.182	-0.131
-623.419	144.458	-0.073	0.099
-622.405	60.100	-0.180	0.181
-621.390	-65.029	0.265	0.109
-620.376	-45.250	-0.179	-0.090
-619.361	-200.000	0.009	-0.208
-618.346	-200.000	0.075	0.414
-617.332	800.000	-0.061	-0.229
-616.317	-107.122	0.190	0.043
-615.303	109.136	-0.073	0.089
-614.288	-200.000	-0.017	0.222
-613.273	32.507	0.368	-0.323
-612.259	13.510	0.272	0.214
-611.244	-163.338	-0.231	-0.011
-610.230	475.161	-0.041	0.093
-609.215	-110.459	0.296	-0.062
-608.201	-95.355	-0.169	-0.046
-607.186	-59.967	-0.288	0.125
-606.171	-110.929	0.155	-0.032
-605.157	-89.847	0.021	-0.006
-604.142	-134.890	0.238	0.029
-603.128	-93.027	0.068	-0.019
-602.113	58.125	-0.081	-0.081
-601.098	27.070	-0.036	-0.030
-600.084	-79.067	0.214	-0.074
-599.069	91.775	-0.280	0.320
-598.055	-145.146	0.083	0.008
-597.040	378.725	-0.099	0.206
-596.025	-66.225	0.211	0.085
-595.011	-200.000	0.025	-0.129
-593.996	-79.090	-0.293	-0.101
-592.982	28.888	-0.143	0.123
-591.967	-113.523	0.203	-0.040
-590.952	-121.255	0.272	0.046
-589.938	-200.000	-0.031	0.177
-588.923	-157.539	0.108	0.007
-587.909	116.906	0.149	0.186
-586.894	667.606	0.112	-0.295
-585.879	-75.652	-0.265	-0.095
-584.865	216.700	-0.099	-0.160
-583.850	105.906	-0.215	-0.258
-582.836	256.655	0.128	0.222
-581.821	-38.555	-0.044	0.023
-580.806	800.000	-0.037	0.155
-579.792	-79.962	0.288	-0.098
-578.777	90.948	0.157	-0.179
-577.763	-77.827	0.106	0.037
-576.748	95.334	0.098	0.113
-575.733	364.557	-0.145	0.295
-574.719	-122.577	0.226	0.037
-573.704	-200.000	0.010	0.247
-572.690	-23.661	0.069	-0.042
-571.675	441.244	0.091	-0.202
-570.661	311.178	-0.088	-0.167
-569.646	57.107	-0.068	0.067
-568.631	-105.326	-0.182	-0.042
-567.617	426.751	-0.118	-0.257
-566.602	800.000	-0.089	-0.312
-565.588	257.996	0.194	0.338
-564.573	179.355	-0.087	0.128
-563.558	-4.792	-0.087	-0.061
-562.544	-178.511	-0.204	0.005
-561.529	-82.929	-0.016	-0.005
-560.515	800.000	0.137	-0.428
-559.500	800.000	0.081	-0.295
-558.485	-123.471	-0.221	0.036
-557.471	-156.966	-0.130	0.008
-556.456	769.595	-0.095	-0.262
-555.442	-200.000	0.010	-0.488
-554.427	-200.000	-0.048	0.226
-553.412	-87.142	-0.084	-0.026
-552.398	15.519	0.112	-0.089
-551.383	577.307	0.101	-0.249
-550.369	800.000	0.028	0.122
-549.354	-180.915	0.105	0.002
-548.339	800.000	-0.016	0.060
-547.325	-80.569	-0.037	-0.012
-546.310	-200.000	0.005	-0.185
-545.296	800.000	-0.020	0.058
-544.281	301.600	0.113	-0.211
-543.266	-200.000	-0.004	0.102
-542.252	20.011	-0.233	0.191
-541.237	-122.698	0.371	0.061
-540.223	-200.000	-0.012	0.082
-539.208	4.431	-0.137	0.102
-538.193	-73.326	-0.081	0.030
-537.179	-200.000	-0.024	0.313
-536.164	230.318	-0.234	0.387
-535.150	-4.477	-0.060	0.042
-534.135	-133.459	0.088	-0.011
-533.121	-51.131	0.143	0.068
-532.106	-134.631	0.242	-0.030
-531.091	1.699	-0.221	0.161
-530.077	-200.000	0.004	0.063
-529.062	800.000	0.012	0.033
-528.048	800.000	0.040	-0.150
-527.033	-140.564	-0.118	-0.012
-526.018	752.713	-0.042	-0.115
-525.004	-38.766	-0.235	-0.125
-523.989	-200.000	0.010	0.056
-522.975	-115.177	-0.417	0.080
-521.960	-200.000	0.052	-0.247
-520.945	125.932	0.115	0.147
-519.931	-73.173	-0.183	-0.068
-518.916	-71.107	0.296	-0.113
-517.902	-78.447	-0.219	0.076
-516.887	269.107	0.042	-0.075
-515.872	287.780	0.037	-0.067
-514.858	101.003	-0.185	0.217
-513.843	-200.000	0.043	-0.203
-512.829	-200.000	-0.022	-0.218
-511.814	-172.320	0.178	-0.006
-510.799	-73.221	-0.466	0.173
-509.785	78.128	0.026	0.028
-508.770	112.164	-0.057	-0.069
-507.756	-135.300	-0.327	-0.040
-506.741	-200.000	0.041	0.253
-505.726	-111.283	-0.190	-0.039
-504.712	-116.324	0.134	-0.025
-503.697	262.990	0.103	-0.180
-502.683	143.251	0.149	0.201
-501.668	-200.000	-0.028	-0.436
-500.653	800.000	0.061	-0.268
-499.639	78.530	0.187	-0.202
-498.624	45.381	-0.189	-0.177
-497.610	22.268	-0.229	-0.189
-496.595	-138.527	0.244	0.027
-495.581	147.881	-0.348	0.474
-494.566	-200.000	0.009	-0.250
-493.551	305.508	-0.156	-0.293
-492.537	-156.792	0.366	0.023
-491.522	438.098	-0.044	-0.097
-490.508	-200.000	-0.073	0.350
-489.493	130.325	-0.077	0.100
-488.478	211.146	0.137	-0.217
-487.464	192.822	0.121	0.185
-486.449	-109.956	-0.147	0.031
-485.435	47.805	-0.268	-0.253
-484.420	800.000	0.070	-0.211
-483.405	799.532	-0.075	0.210
-482.391	800.000	0.098	0.360
-481.376	-145.720	-0.150	0.014
-480.362	-6.948	-0.173	0.118
-479.347	-103.498	-0.077	-0.018
-478.332	-200.000	0.020	0.380
-477.318	78.276	0.272	0.293
-476.303	796.610	-0.022	0.061
-475.289	60.484	0.063	0.063
-474.274	716.531	0.097	-0.259
-473.259	-149.084	0.202	-0.016
-472.245	335.633	-0.032	-0.062
-471.230	117.002	-0.233	0.289
-470.216	155.766	-0.162	-0.225
-469.201	-155.699	0.358	0.023
-468.186	113.293	0.221	0.270
-467.172	274.913	-0.071	-0.127
-466.157	-70.701	0.109	0.042
-465.143	309.045	0.108	-0.204
-464.128	-170.005	0.084	0.003
-463.113	-200.000	0.009	-0.072
-462.099	20.189	0.342	0.279
-461.084	-38.034	-0.207	0.111
-460.070	173.842	-0.133	-0.194
-459.055	-62.556	-0.211	0.089
-458.040	150.817	-0.109	-0.150
-457.026	-37.806	0.101	0.054
-456.011	-11.310	-0.329	-0.219
-454.997	-73.237	0.231	-0.085
-453.982	-23.990	-0.240	0.145
-452.968	800.000	0.112	-0.366
-451.953	10.328	0.339	0.260
-450.938	-59.111	0.226	-0.098
-449.924	50.719	-0.248	-0.236
-448.909	444.421	-0.080	-0.178
-447.895	-179.937	-0.018	-0.000
-446.880	-200.000	-0.027	-0.217
-445.865	555.399	0.161	-0.391
-444.851	-118.014	-0.322	0.058
-443.836	79.931	-0.136	0.147
-442.822	116.626	-0.129	-0.159
-441.807	800.000	-0.012	-0.036
-440.792	-116.108	-0.213	0.040
-439.778	800.000	-0.015	0.058
-438.763	5.483	-0.120	0.089
-437.749	20.960	0.147	0.120
-436.734	112.928	0.096	0.117
-435.719	381.248	0.009	-0.018
-434.705	360.327	0.061	0.123
-433.690	-92.722	-0.400	-0.113
-432.676	-115.345	-0.472	-0.090
-431.661	480.866	0.126	-0.287
-430.646	279.822	0.145	-0.261
-429.632	-142.171	-0.131	0.013
-428.617	800.000	-0.054	-0.154
-427.603	-78.907	0.100	0.034
-426.588	-60.724	0.051	-0.022
-425.573	63.662	-0.172	-0.174
-424.559	100.408	0.107	-0.125
-423.544	602.960	0.023	0.057
-422.530	-112.702	0.079	-0.016
-421.515	-108.524	0.041	0.009
-420.500	317.830	-0.058	0.111
-419.486	-3.698	0.147	0.103
-418.471	-10.874	0.216	-0.144
-417.457	800.000	-0.003	-0.012
-416.442	-200.000	0.004	-0.244
-415.428	168.791	0.054	-0.077
-414.413	-45.180	-0.230	-0.115
-413.398	19.408	0.057	-0.046
-412.384	-30.923	0.192	0.109
-411.369	-200.000	-0.012	0.089
-410.355	-200.000	0.034	-0.227
-409.340	-81.697	-0.307	-0.101
-408.325	-121.336	-0.261	0.044
-407.311	49.954	-0.232	0.220
-406.296	223.636	0.061	0.099
-405.282	-200.000	-0.012	-0.082
-404.267	800.000	-0.069	-0.255
-403.252	-200.000	-0.051	-0.270
-402.238	800.000	-0.027	0.101
-401.223	-73.353	0.078	-0.029
-400.209	310.592	-0.062	0.116
-399.194	-146.994	-0.267	0.023
-398.179	-65.835	0.226	0.091
-397.165	195.795	0.169	-0.259
-396.150	-18.677	-0.220	-0.138
-395.136	-151.975	-0.178	0.013
-394.121	-3.234	-0.162	0.113
-393.106	-171.444	-0.479	0.016
-392.092	-200.000	-0.050	0.239
-391.077	34.060	0.280	-0.245
-390.063	-53.051	-0.123	0.057
-389.048	-120.416	0.283	0.048
-388.033	34.458	-0.091	-0.080
-387.019	-159.642	-0.169	-0.009
-386.004	-9.224	-0.198	-0.133
-384.990	104.612	0.192	-0.227
-383.975	-200.000	-0.056	-0.247
-382.960	-93.853	-0.181	-0.050
-381.946	-200.000	-0.027	-0.198
-380.931	-200.000	-0.004	-0.227
-379.917	321.130	0.092	-0.175
-378.902	103.670	-0.142	0.168
-377.888	142.610	-0.085	0.114
-376.873	480.574	-0.176	-0.403
-375.858	-136.775	-0.134	0.015
-374.844	439.322	-0.162	0.357
-373.829	-53.726	-0.037	-0.017
-372.815	-30.480	-0.328	-0.187
-371.800	-106.312	-0.206	0.046
-370.785	64.822	-0.138	-0.140
-369.771	-15.235	-0.236	0.152
-368.756	103.612	0.047	0.056
-367.742	-95.876	-0.208	0.056
-366.727	800.000	0.015	-0.055
-365.712	-181.537	0.131	0.003
-364.698	-34.201	-0.013	-0.007
-363.683	186.668	0.093	0.140
-362.669	-200.000	0.016	-0.411
-361.654	17.680	0.170	0.136
-360.639	-111.613	-0.132	-0.027
-359.625	694.347	0.161	-0.424
-358.610	186.748	0.045	0.068
-357.596	373.488	-0.119	-0.243
-356.581	-149.642	0.248	-0.020
-355.566	-200.000	-0.047	0.278
-354.552	712.055	-0.078	0.208
-353.537	-81.041	0.242	-0.080
-352.523	-51.691	0.235	-0.110
-351.508	-70.204	0.180	-0.069
-350.493	52.972	-0.205	0.197
-349.479	800.000	-0.009	-0.036
-348.464	-70.801	-0.078	0.030
-347.450	-35.208	0.343	0.188
-346.435	54.170	-0.215	0.207
-345.420	55.436	0.025	-0.025
-344.406	-200.000	-0.010	-0.211
-343.391	59.483	-0.019	0.018
-342.377	407.292	-0.119	-0.252
-341.362	12.876	0.110	-0.085
-340.348	-166.911	0.398	-0.016
-339.333	551.582	0.065	0.158
-338.318	36.357	-0.225	0.199
-337.304	-99.411	0.327	-0.083
-336.289	268.575	0.017	-0.030
-335.275	-146.321	-0.132	0.012
-334.260	0.348	0.162	-0.116
-333.245	800.000	-0.065	-0.201
-332.231	-200.000	0.018	-0.171
-331.216	-200.000	0.002	0.071
-330.202	638.780	0.198	-0.505
-329.187	-88.318	0.271	-0.081
-328.172	800.000	0.035	0.115
-327.158	-110.260	0.131	0.027
-326.143	800.000	-0.041	-0.169
-325.129	-146.302	0.175	-0.015
-324.114	352.987	-0.050	-0.099
-323.099	-150.271	-0.250	-0.019
-322.085	-77.396	-0.439	0.153
-321.070	-19.432	-0.545	0.339
-320.056	-200.000	0.013	0.064
-319.041	-81.223	0.162	-0.054
-318.026	-200.000	0.008	-0.179
-317.012	11.824	0.576	0.444
-315.997	81.901	0.173	0.188
-314.983	230.819	0.153	0.252
-313.968	-9.949	-0.139	0.093
-312.953	-200.000	0.049	0.222
-311.939	-200.000	0.024	0.222
-310.924	-168.305	-0.178	0.007
-309.910	-115.708	-0.086	-0.016
-308.895	-112.366	0.235	-0.047
-307.880	-31.483	0.158	-0.089
-306.866	-200.000	0.140	-0.001
-305.851	124.142	-0.266	0.336
-304.837	-44.238	-0.282	0.142
-303.822	-25.950	0.285	-0.169
-302.807	-200.000	-0.008	0.153
-301.793	-82.525	0.328	0.107
-300.778	-125.738	0.045	0.007
-299.764	18.209	-0.459	-0.367
-298.749	800.000	-0.022	-0.064
-297.735	194.933	-0.208	-0.317
-296.720	15.660	-0.162	-0.128
-295.705	-115.190	0.129	0.025
-294.691	-16.405	0.210	0.134
-293.676	763.770	-0.035	0.094
-292.662	-200.000	0.015	-0.072
-291.647	594.586	-0.089	-0.222
-290.632	-69.770	0.269	0.103
-289.618	-138.004	-0.055	0.006
-288.603	-200.000	0.045	0.437
-287.589	156.834	0.058	0.080
-286.574	255.658	0.123	0.212
-285.559	800.000	-0.024	0.077
-284.545	-141.434	0.078	0.008
-283.530	-200.000	0.026	0.308
-282.516	-106.091	0.162	0.036
-281.501	-55.372	-0.282	0.127
-280.486	-200.000	0.018	-0.080
-279.472	-18.218	0.034	0.021
-278.457	-140.100	0.197	-0.021
-277.443	12.983	0.246	0.191
-276.428	-74.622	-0.099	-0.036
-275.413	-200.000	0.018	0.468
-274.399	159.231	0.111	-0.155
-273.384	800.000	-0.038	0.109
-272.370	328.080	-0.099	-0.190
-271.355	-43.347	0.258	0.131
-270.340	-151.848	-0.058	-0.004
-269.326	800.000	-0.082	0.249
-268.311	-124.666	0.245	0.038
-267.297	214.760	-0.042	-0.067
-266.282	217.508	-0.218	0.348
-265.267	800.000	0.086	0.275
-264.253	800.000	-0.095	-0.357
-263.238	-200.000	-0.013	-0.322
-262.224	46.605	0.092	-0.086
-261.209	-200.000	0.011	-0.114
-260.195	296.885	0.055	0.101
-259.180	-7.739	0.037	-0.025
-258.165	111.269	-0.151	0.183
-257.151	800.000	-0.108	0.371
-256.136	800.000	0.022	-0.077
-255.122	177.148	0.179	0.261
-254.107	270.932	-0.204	0.360
-253.092	342.968	-0.056	-0.109
-252.078	-200.000	0.002	0.049
-251.063	80.735	0.132	0.142
-250.049	-1.028	0.111	0.079
-249.034	-54.466	-0.296	0.134
-248.019	-165.060	0.192	-0.009
-247.005	-158.065	0.465	-0.027
-245.990	34.710	-0.228	0.199
-244.976	-34.161	-0.187	-0.103
-243.961	800.000	-0.067	0.229
-242.946	41.287	0.199	-0.180
-241.932	800.000	0.146	0.406
-240.917	220.183	-0.107	0.171
-239.903	-200.000	-0.039	0.331
-238.888	241.658	0.050	0.084
-237.873	27.745	-0.111	-0.094
-236.859	-13.489	0.119	0.077
-235.844	26.881	0.120	-0.101
-234.830	-182.954	-0.269	0.005
-233.815	-32.569	-0.286	0.159
-232.800	525.195	0.136	-0.321
-231.786	9.196	-0.261	-0.197
-230.771	-200.000	0.030	-0.376
-229.757	26.012	-0.059	0.049
-228.742	654.735	0.084	0.216
-227.727	-200.000	-0.025	-0.302
-226.713	276.777	0.026	-0.046
-225.698	-73.850	0.248	0.090
-224.684	-119.316	0.229	0.040
-223.669	-21.685	0.137	-0.083
-222.655	-119.172	-0.243	0.042
-221.640	-106.159	-0.068	-0.015
-220.625	-56.733	-0.095	0.042
-219.611	-200.000	0.015	-0.107
-218.596	107.113	-0.242	-0.288
-217.582	800.000	-0.078	0.260
-216.567	469.708	0.210	0.471
-215.552	-86.446	0.074	0.023
-214.538	55.908	-0.084	0.081
-213.523	-63.159	0.050	0.021
-212.509	84.245	-0.128	-0.140
-211.494	615.485	-0.109	-0.273
-210.479	562.276	0.077	0.187
-209.465	-81.531	0.119	-0.039
-208.450	30.493	-0.049	0.042
-207.436	59.388	0.179	-0.177
-206.421	-127.280	0.233	-0.034
-205.406	-86.069	-0.041	0.013
-204.392	800.000	0.057	0.213
-203.377	500.696	-0.026	0.061
-202.363	579.773	-0.115	0.281
-201.348	584.075	-0.069	-0.170
-200.333	800.000	-0.066	-0.198
-199.319	-7.897	0.195	-0.132
-198.304	-120.743	0.125	-0.021
-197.290	498.332	-0.118	0.271
-196.275	-8.283	-0.187	0.126
-195.260	322.294	0.162	-0.307
-194.246	-2.104	0.158	0.111
-193.231	158.929	0.114	-0.158
-192.217	-66.267	0.160	-0.064
-191.202	118.409	0.116	-0.143
-190.187	800.000	-0.085	-0.255
-189.173	205.587	0.022	-0.033
-188.158	141.981	-0.093	0.123
-187.144	-109.361	-0.301	0.064
-186.129	558.956	0.199	-0.479
-185.114	-19.256	0.138	0.086
-184.100	733.121	0.072	0.192
-183.085	709.352	-0.119	0.314
-182.071	114.145	-0.121	-0.147
-181.056	-200.000	-0.082	0.648
-180.042	413.031	0.074	0.157
-179.027	612.967	0.030	-0.076
-178.012	65.120	-0.187	-0.189
-176.998	-197.098	0.062	-0.000
-175.983	-81.853	-0.300	-0.098
-174.969	499.938	0.100	0.230
-173.954	-23.234	0.043	0.026
-172.939	243.906	-0.114	0.191
-171.925	-169.816	0.308	-0.011
-170.910	16.266	0.083	0.065
-169.896	-80.481	0.162	0.054
-168.881	311.778	0.131	0.245
-167.866	11.216	0.245	-0.187
-166.852	-90.016	0.198	-0.057
-165.837	-69.587	0.279	-0.106
-164.823	157.571	-0.190	-0.263
-163.808	800.000	0.024	0.068
-162.793	800.000	-0.014	0.045
-161.779	800.000	0.047	-0.170
-160.764	644.163	0.048	0.122
-159.750	800.000	0.085	-0.236
-158.735	-200.000	-0.020	-0.161
-157.720	-36.555	0.063	-0.034
-156.706	17.890	0.144	0.115
-155.691	-135.268	0.184	-0.022
-154.677	26.733	-0.226	-0.188
-153.662	31.278	-0.123	0.105
-152.647	107.113	0.186	0.221
-151.633	-200.000	0.034	0.159
-150.618	-36.123	0.241	-0.130
-149.604	99.774	0.254	0.294
-148.589	427.284	0.035	-0.076
-147.574	800.000	-0.026	-0.114
-146.560	7.353	0.326	0.243
-145.545	-94.826	0.361	-0.098
-144.531	157.153	-0.120	-0.166
-143.516	-200.000	0.000	0.143
-142.502	-167.142	0.367	0.015
-141.487	-200.000	-0.023	-0.224
-140.472	-139.981	0.046	0.005
-139.458	-200.000	-0.042	0.504
-138.443	-200.000	0.009	0.081
-137.429	469.438	-0.138	0.309
-136.414	194.801	-0.049	0.075
-135.399	17.382	0.222	-0.176
-134.385	-200.000	-0.032	-0.214
-133.370	374.301	0.141	0.286
-132.356	-88.029	-0.194	0.058
-131.341	492.241	0.075	0.171
-130.326	633.110	0.044	0.111
-129.312	56.896	-0.102	-0.099
-128.297	169.896	0.245	0.350
-127.283	-24.907	0.199	0.117
-126.268	-122.153	0.195	0.032
-125.253	99.676	-0.203	0.234
-124.239	500.140	0.029	0.066
-123.224	132.797	0.031	-0.040
-122.210	-83.905	-0.431	0.137
-121.195	745.863	-0.068	0.182
-120.180	-12.440	0.355	0.231
-119.166	-200.000	0.031	0.244
-118.151	-35.599	0.201	-0.108
-117.137	-6.629	0.039	0.026
-116.122	-12.570	0.189	-0.123
-115.107	30.285	0.055	0.047
-114.093	247.978	0.062	0.104
-113.078	74.838	-0.197	-0.206
-112.064	31.081	0.127	-0.109
-111.049	83.055	0.210	-0.227
-110.034	-3.867	0.041	0.029
-109.020	123.843	-0.025	0.032
-108.005	800.000	-0.033	-0.144
-106.991	-154.198	-0.290	-0.020
-105.976	-146.957	-0.141	0.012
-104.962	-71.410	0.459	0.171
-103.947	164.160	-0.132	-0.185
-102.932	800.000	0.056	-0.216
-101.918	137.777	0.113	-0.147
-100.903	-131.359	0.061	0.008
-99.889	82.392	0.180	0.195
-98.874	35.551	-0.178	0.155
-97.859	372.710	0.155	-0.314
-96.845	188.635	-0.029	0.043
-95.830	-88.339	0.122	-0.036
-94.816	-200.000	-0.123	0.000
-93.801	19.701	0.040	0.032
-92.786	221.395	-0.135	-0.216
-91.772	-93.021	-0.029	-0.008
-90.757	-200.000	0.006	-0.061
-89.743	-33.531	-0.405	-0.222
-88.728	509.020	-0.157	0.364
-87.713	51.447	-0.252	-0.238
-86.699	-35.062	0.151	-0.082
-85.684	800.000	-0.049	-0.135
-84.670	-195.554	0.216	-0.002
-83.655	53.538	0.123	0.117
-82.640	-200.000	0.000	0.243
-81.626	-63.745	0.139	-0.056
-80.611	189.967	0.181	-0.270
-79.597	-88.590	-0.313	0.093
-78.582	16.780	0.135	-0.106
-77.567	456.076	-0.060	0.132
-76.553	55.858	-0.092	0.089
-75.538	-200.000	-0.033	0.183
-74.524	330.498	-0.064	-0.123
-73.509	-200.000	0.009	0.163
-72.494	75.644	0.114	-0.120
-71.480	500.647	0.004	0.009
-70.465	-51.234	0.334	-0.156
-69.451	495.324	-0.086	-0.197
-68.436	800.000	-0.122	0.434
-67.422	159.453	0.218	0.302
-66.407	-122.944	-0.246	0.039
-65.392	-200.000	0.010	-0.103
-64.378	-46.138	0.244	0.119
-63.363	-161.052	0.280	0.015
-62.349	-77.866	0.344	0.118
-61.334	98.531	-0.730	-0.836
-60.319	800.000	-0.110	0.413
-59.305	-200.000	-0.145	-0.882
-58.290	56.599	0.556	0.538
-57.276	606.920	0.555	1.374
-56.261	-200.000	76.058	515.754
-55.246	517.478	1338.538	3109.849
-54.232	141.263	2598.759	3415.128
-53.217	110.284	2377.073	2835.638
-52.203	50.348	1988.086	1865.924
-51.188	44.201	1775.912	1617.934
-50.173	41.366	1729.813	1553.820
-49.159	55.515	1763.875	1695.699
-48.144	60.847	1782.154	1754.999
-47.130	44.302	1745.928	1591.157
-46.115	41.027	1732.423	1553.263
-45.100	40.845	1727.918	1547.746
-44.086	40.885	1724.620	1545.045
-43.071	40.956	1722.109	1543.281
-42.057	40.851	1720.026	1540.544
-41.042	40.874	1717.501	1538.397
-40.027	40.793	1716.284	1536.618
-39.013	40.884	1713.774	1535.012
-37.998	40.832	1712.344	1533.275
-36.984	40.933	1710.859	1532.658
-35.969	41.041	1708.808	1531.596
-34.954	41.090	1707.314	1530.569
-33.940	40.994	1705.659	1528.285
-32.925	40.934	1703.836	1526.136
-31.911	41.061	1701.704	1525.137
-30.896	41.063	1699.739	1523.332
-29.881	41.004	1698.285	1521.519
-28.867	41.049	1696.325	1520.045
-27.852	41.062	1694.821	1518.738
-26.838	40.969	1694.016	1517.246
-25.823	40.987	1692.532	1515.993
-24.809	41.065	1691.030	1515.183
-23.794	41.067	1689.585	1513.840
-22.779	41.133	1687.148	1512.094
-21.765	40.980	1686.542	1510.333
-20.750	41.024	1684.479	1508.763
-19.736	41.070	1682.811	1507.556
-18.721	41.096	1681.341	1506.376
-17.706	41.011	1679.966	1504.438
-16.692	41.017	1678.476	1503.090
-15.677	41.067	1676.622	1501.747
-14.663	41.025	1675.160	1500.065
-13.648	40.964	1674.369	1498.833
-12.633	40.982	1672.787	1497.498
-11.619	40.901	1671.387	1495.572
-10.604	40.960	1669.886	1494.616
-9.590	40.915	1668.371	1492.857
-8.575	41.019	1666.411	1491.830
-7.560	41.014	1665.641	1491.041
-6.546	41.013	1664.145	1489.635
-5.531	41.036	1663.315	1489.002
-4.517	41.099	1661.652	1487.930
-3.502	41.043	1661.145	1486.995
-2.487	41.009	1659.751	1485.440
-1.473	41.092	1648.375	1475.811
-0.458	38.920	1628.748	1442.241
0.556	32.616	1627.533	1405.355
1.571	29.747	1651.555	1404.215
2.586	28.541	1664.185	1405.597
3.600	25.937	1613.197	1343.041
4.615	20.085	1504.677	1211.791
5.629	14.946	1438.019	1123.569
6.644	13.717	1428.951	1108.177
7.659	13.714	1427.320	1106.795
8.673	13.642	1426.135	1105.299
9.688	13.577	1424.237	1103.297
10.702	13.427	1421.717	1100.249
11.717	15.798	1426.234	1119.438
12.731	20.166	1434.076	1154.648
13.746	20.305	1431.913	1153.730
14.761	17.735	1425.655	1131.552
15.775	16.342	1422.302	1119.569
16.790	15.201	1419.835	1109.972
17.804	14.317	1417.596	1102.271
18.819	13.838	1415.614	1097.472
19.834	13.578	1414.162	1094.531
20.848	13.262	1412.643	1091.172
21.863	12.993	1411.562	1088.466
22.877	12.823	1410.454	1086.397
23.892	12.846	1409.422	1085.654
24.907	12.773	1408.812	1084.608
25.921	12.781	1407.694	1083.705
26.936	12.892	1406.783	1083.636
27.950	12.895	1405.813	1082.814
28.965	12.824	1404.725	1081.411
29.980	12.863	1403.852	1080.899
30.994	13.014	1402.037	1080.396
32.009	13.134	1400.908	1080.214
33.023	12.986	1399.897	1078.372
34.038	12.921	1398.573	1076.831
35.053	12.945	1397.078	1075.742
36.067	12.973	1395.973	1074.982
37.082	12.985	1394.569	1073.883
38.096	13.057	1393.319	1073.294
39.111	13.001	1392.447	1072.165
40.126	12.939	1391.447	1070.894
41.140	12.863	1391.054	1070.007
42.155	12.712	1390.560	1068.552
43.169	12.711	1390.291	1068.239
44.184	12.832	1389.870	1068.611
45.199	12.777	1389.796	1068.098
46.213	12.748	1389.084	1067.272
47.228	12.864	1387.828	1066.963
48.242	12.896	1386.661	1066.175
49.257	12.884	1385.227	1064.900
50.271	12.897	1383.807	1063.801
51.286	12.887	1382.109	1062.338
52.301	12.936	1380.819	1061.571
53.315	12.791	1380.047	1059.948
54.330	12.755	1379.317	1059.060
55.344	12.656	1377.985	1057.309
56.359	12.711	1376.807	1056.662
57.374	12.785	1375.545	1056.080
58.388	12.744	1374.775	1055.132
59.403	12.671	1374.317	1054.220
60.417	12.806	1373.064	1054.027
61.432	12.686	1372.685	1052.874
62.447	12.660	1371.536	1051.733
63.461	12.617	1370.361	1050.464
64.476	12.658	1369.177	1049.725
65.490	12.677	1368.014	1048.866
66.505	12.664	1366.492	1047.524
67.520	12.744	1364.916	1046.731
68.534	12.726	1364.167	1045.951
69.549	12.696	1363.293	1044.992
70.563	12.629	1362.363	1043.766
71.578	12.595	1360.970	1042.387
72.593	12.610	1359.692	1041.410
73.607	12.576	1359.305	1040.807
74.622	12.599	1358.495	1040.245
75.636	12.622	1358.101	1039.996
76.651	12.613	1356.765	1038.819
77.666	12.661	1356.696	1038.979
78.680	12.622	1355.614	1037.816
79.695	12.654	1355.246	1037.640
80.709	12.686	1354.561	1037.225
81.724	12.745	1353.453	1036.659
82.739	12.730	1352.766	1035.947
83.753	12.760	1352.119	1035.547
84.768	12.821	1350.813	1034.838
85.782	12.967	1349.269	1034.482
86.797	12.977	1348.178	1033.613
87.812	12.863	1347.291	1032.131
88.826	12.834	1345.829	1030.739
89.841	12.786	1345.029	1029.731
90.855	12.965	1343.609	1029.675
91.870	12.846	1343.105	1028.455
92.884	12.942	1342.030	1028.135
93.899	12.969	1340.931	1027.374
94.914	12.991	1340.364	1026.981
95.928	12.995	1339.460	1026.228
96.943	12.969	1338.344	1025.120
97.957	12.951	1337.461	1024.235
98.972	12.919	1336.468	1023.188
99.987	12.913	1335.700	1022.474
101.001	12.952	1334.685	1021.848
102.016	12.841	1333.297	1020.007
103.030	12.885	1332.807	1019.816
104.045	13.006	1331.615	1019.559
105.060	12.878	1330.046	1017.477
106.074	12.915	1328.615	1016.524
107.089	12.700	1327.500	1014.257
108.103	12.798	1325.806	1013.471
109.118	12.775	1324.704	1012.399
110.133	12.860	1323.140	1011.635
111.147	12.687	1321.961	1009.583
112.162	12.788	1320.797	1009.223
113.176	12.828	1319.736	1008.569
114.191	12.834	1318.660	1007.694
115.206	12.826	1317.203	1006.442
116.220	12.716	1316.295	1004.991
117.235	12.771	1315.201	1004.403
118.249	12.785	1314.217	1003.645
119.264	12.835	1312.872	1002.836
120.279	12.787	1311.307	1001.258
121.293	12.690	1310.938	1000.300
122.308	12.684	1310.308	999.696
123.322	12.623	1308.901	998.164
124.337	12.750	1307.650	997.889
125.352	12.759	1306.377	996.882
126.366	12.715	1304.964	995.452
127.381	12.744	1303.992	994.800
128.395	12.657	1303.392	993.729
129.410	12.755	1302.281	993.379
130.424	12.784	1301.800	993.100
131.439	12.891	1300.429	992.611
132.454	12.851	1299.252	991.386
133.468	12.874	1298.736	991.040
134.483	12.813	1298.023	990.043
135.497	12.890	1296.475	989.239
136.512	12.813	1295.617	988.034
137.527	12.961	1293.989	987.590
138.541	12.913	1292.999	986.460
139.556	12.968	1291.071	985.232
140.570	12.975	1290.394	984.669
141.585	12.984	1289.349	983.839
142.600	13.029	1287.621	982.700
143.614	12.945	1287.104	981.720
144.629	13.069	1285.535	981.174
145.643	13.107	1284.587	980.590
146.658	13.073	1283.197	979.239
147.673	12.950	1281.903	977.438
148.687	12.976	1280.514	976.446
149.702	12.969	1278.842	975.041
150.716	12.968	1277.756	974.121
151.731	12.908	1276.684	972.864
152.746	12.892	1275.414	971.716
153.760	12.980	1273.991	971.064
154.775	13.021	1272.817	970.324
155.789	13.029	1272.159	969.783
156.804	12.968	1271.117	968.544
157.819	13.056	1269.773	967.949
158.833	13.141	1268.515	967.404
159.848	13.137	1267.972	966.882
160.862	13.083	1267.259	965.935
161.877	13.106	1265.805	964.879
162.892	13.000	1264.795	963.404
163.906	12.993	1263.707	962.449
164.921	12.970	1262.775	961.520
165.935	13.002	1261.968	961.005
166.950	13.035	1261.077	960.432
167.964	13.086	1260.523	960.226
168.979	13.116	1259.354	959.423
169.994	13.170	1258.286	958.840
171.008	13.080	1258.246	958.199
172.023	13.094	1257.080	957.309
173.037	13.227	1256.301	957.400
174.052	13.163	1255.553	956.374
175.067	13.126	1254.033	954.922
176.081	13.065	1253.225	953.869
177.096	13.082	1252.507	953.335
178.110	13.053	1251.460	952.285
179.125	13.144	1249.942	951.573
180.140	13.214	1248.650	950.904
181.154	13.290	1247.182	950.144
182.169	13.186	1246.222	948.729
183.183	13.212	1245.123	947.955
184.198	13.353	1243.575	947.503
185.213	13.431	1242.406	946.976
186.227	13.336	1241.358	945.547
187.242	13.436	1240.676	945.518
188.256	13.459	1239.525	944.687
189.271	13.436	1238.798	943.919
190.286	13.242	1237.935	942.074
191.300	13.152	1236.789	940.606
192.315	13.120	1236.171	939.867
193.329	13.068	1235.621	939.069
194.344	13.190	1234.450	938.794
195.359	13.349	1233.701	939.041
196.373	13.376	1233.497	938.956
197.388	13.413	1233.309	938.939
198.402	13.449	1232.688	938.591
199.417	13.621	1231.744	938.761
200.432	13.553	1230.939	937.680
201.446	13.588	1230.202	937.233
202.461	13.718	1229.042	936.998
203.475	13.740	1227.957	936.215
204.490	13.727	1226.770	935.154
205.504	13.602	1225.611	933.481
206.519	13.599	1224.173	932.288
207.534	13.583	1223.133	931.322
208.548	13.544	1222.339	930.418
209.563	13.549	1221.860	930.001
210.577	13.579	1220.649	929.163
211.592	13.581	1219.935	928.549
212.607	13.648	1219.065	928.180
213.621	13.679	1217.901	927.385
214.636	13.738	1216.859	926.838
215.650	13.666	1216.190	925.848
216.665	13.773	1215.089	925.521
217.680	13.759	1214.374	924.816
218.694	13.885	1212.821	924.256
219.709	13.862	1212.255	923.616
220.723	13.824	1211.872	923.027
221.738	13.774	1211.078	922.063
222.753	13.728	1210.813	921.525
223.767	13.839	1209.796	921.284
224.782	13.774	1209.228	920.413
225.796	13.946	1208.414	920.667
226.811	13.973	1207.604	920.117
227.826	13.865	1206.770	918.799
228.840	13.895	1206.086	918.366
229.855	13.907	1205.168	917.652
230.869	13.909	1204.287	916.907
231.884	13.892	1203.652	916.254
232.899	13.865	1202.922	915.467
233.913	13.785	1202.120	914.335
234.928	13.891	1201.190	914.127
235.942	13.732	1200.459	912.617
236.957	13.956	1199.262	912.855
237.972	13.829	1199.130	911.976
238.986	13.912	1198.113	911.580
240.001	13.819	1197.837	910.777
241.015	13.934	1196.392	910.230
242.030	13.959	1195.593	909.678
243.045	13.980	1195.100	909.340
244.059	14.047	1194.052	908.823
245.074	13.987	1193.363	907.891
246.088	14.070	1192.507	907.616
247.103	14.120	1191.218	906.824
248.117	14.158	1190.901	906.710
249.132	14.291	1189.849	906.553
250.147	14.178	1189.673	905.722
251.161	14.260	1188.804	905.429
252.176	14.288	1188.062	904.938
253.190	14.233	1188.284	904.728
254.205	14.338	1187.261	904.435
255.220	14.405	1186.404	904.071
256.234	14.403	1185.637	903.391
257.249	14.518	1184.813	903.310
258.263	14.446	1184.447	902.562
259.278	14.467	1183.604	901.952
260.293	14.558	1182.702	901.675
261.307	14.551	1182.117	901.113
262.322	14.494	1181.729	900.427
263.336	14.544	1181.119	900.154
264.351	14.606	1180.219	899.724
265.366	14.564	1179.785	899.083
266.380	14.576	1178.689	898.233
267.395	14.558	1177.653	897.269
268.409	14.543	1176.933	896.563
269.424	14.528	1176.259	895.886
270.439	14.598	1175.899	895.909
271.453	14.487	1174.966	894.526
272.468	14.521	1173.714	893.677
273.482	14.545	1173.307	893.416
274.497	14.588	1172.763	893.153
275.512	14.609	1172.014	892.613
276.526	14.585	1171.202	891.791
277.541	14.711	1169.933	891.416
278.555	14.519	1169.930	890.311
279.570	14.676	1168.741	890.164
280.585	14.732	1168.207	889.975
281.599	14.748	1167.193	889.211
282.614	14.671	1166.110	887.899
283.628	14.672	1165.150	887.092
284.643	14.704	1163.919	886.244
285.657	14.713	1163.346	885.782
286.672	14.708	1162.110	884.731
287.687	14.806	1161.277	884.538
288.701	14.819	1160.671	884.068
289.716	14.811	1159.737	883.236
290.730	14.731	1159.263	882.374
291.745	14.849	1158.513	882.347
292.760	14.842	1157.989	881.833
293.774	14.853	1157.430	881.390
294.789	14.973	1156.428	881.181
295.803	14.971	1155.713	880.545
296.818	14.901	1155.015	879.571
297.833	14.773	1154.646	878.538
298.847	14.823	1153.765	878.052
299.862	14.902	1152.782	877.643
300.876	14.899	1151.736	876.751
301.891	15.045	1151.229	877.051
302.906	15.002	1150.855	876.466
303.920	15.088	1150.021	876.200
304.935	15.166	1149.248	875.944
305.949	15.182	1148.645	875.488
306.964	15.225	1147.531	874.787
307.979	15.148	1147.224	874.075
308.993	15.237	1146.064	873.576
310.008	15.211	1145.427	872.878
311.022	15.198	1144.546	872.065
312.037	15.271	1143.515	871.579
313.052	15.212	1142.799	870.652
314.066	15.093	1142.118	869.439
315.081	15.173	1140.987	868.913
316.095	15.058	1140.519	867.885
317.110	15.132	1139.667	867.543
318.125	15.118	1139.138	866.990
319.139	15.220	1137.991	866.567
320.154	15.147	1137.614	865.830
321.168	15.175	1136.835	865.304
322.183	15.155	1136.540	864.901
323.197	15.195	1135.423	864.179
324.212	15.214	1134.959	863.846
325.227	15.208	1134.727	863.560
326.241	15.272	1134.140	863.369
327.256	15.288	1133.072	862.559
328.270	15.179	1132.357	861.379
329.285	15.248	1131.406	860.936
330.300	15.364	1130.086	860.450
331.314	15.322	1129.076	859.392
332.329	15.303	1128.208	858.556
333.343	15.279	1127.549	857.855
334.358	15.297	1126.547	857.107
335.373	15.366	1125.988	856.963
336.387	15.393	1125.078	856.329
337.402	15.415	1124.452	855.887
338.416	15.442	1123.626	855.325
339.431	15.495	1122.973	855.020
340.446	15.492	1122.348	854.451
341.460	15.546	1121.755	854.202
342.475	15.568	1120.769	853.484
343.489	15.616	1119.962	853.039
344.504	15.615	1118.845	852.107
345.519	15.714	1117.783	851.724
346.533	15.709	1117.580	851.472
347.548	15.693	1116.612	850.578
348.562	15.765	1115.576	850.075
349.577	15.730	1114.758	849.204
350.592	15.615	1114.432	848.298
351.606	15.586	1113.358	847.257
352.621	15.573	1112.741	846.649
353.635	15.536	1112.141	845.928
354.650	15.736	1110.989	845.983
355.665	15.752	1110.573	845.677
356.679	15.622	1110.263	844.711
357.694	15.745	1109.379	844.582
358.708	15.736	1108.662	843.916
359.723	15.817	1108.002	843.743
360.738	15.844	1107.402	843.348
361.752	15.784	1107.085	842.729
362.767	15.847	1106.322	842.390
363.781	15.872	1105.815	842.053
364.796	15.784	1105.418	841.240
365.810	15.975	1104.825	841.668
366.825	15.931	1103.960	840.714
367.840	16.015	1103.522	840.726
368.854	16.048	1102.761	840.236
369.869	15.953	1102.012	839.116
370.883	16.061	1100.888	838.722
371.898	16.050	1100.290	838.142
372.913	15.984	1100.085	837.582
373.927	16.032	1099.057	836.962
374.942	16.136	1098.573	837.036
375.956	16.050	1098.354	836.370
376.971	16.125	1097.452	835.981
377.986	16.163	1096.896	835.670
379.000	16.237	1096.150	835.396
380.015	16.291	1095.604	835.172
381.029	16.275	1094.970	834.534
382.044	16.253	1094.253	833.804
383.059	16.290	1093.693	833.487
384.073	16.259	1092.749	832.542
385.088	16.364	1091.796	832.261
386.102	16.358	1091.108	831.634
387.117	16.370	1089.483	830.380
388.132	16.226	1089.198	829.382
389.146	16.288	1088.446	829.038
390.161	16.206	1087.755	828.036
391.175	16.192	1086.921	827.262
392.190	16.284	1086.329	827.186
393.205	16.354	1085.567	826.878
394.219	16.390	1084.339	826.043
395.234	16.531	1083.308	825.874
396.248	16.488	1082.683	825.117
397.263	16.356	1081.487	823.490
398.278	16.333	1081.091	823.000
399.292	16.271	1080.346	822.057
400.307	16.259	1079.582	821.345
401.321	16.274	1079.048	820.940
402.336	16.279	1078.318	820.337
403.350	16.343	1077.458	819.920
404.365	16.429	1076.660	819.657
405.380	16.395	1076.146	819.030
406.394	16.426	1075.522	818.634
407.409	16.490	1074.638	818.199
408.423	16.559	1074.025	817.991
409.438	16.473	1073.243	816.905
410.453	16.649	1072.443	817.075
411.467	16.684	1071.888	816.749
412.482	16.604	1071.431	815.945
413.496	16.569	1070.761	815.195
414.511	16.744	1069.884	815.295
415.526	16.649	1069.691	814.619
416.540	16.816	1068.773	814.650
417.555	16.835	1068.265	814.282
418.569	16.807	1067.968	813.849
419.584	16.829	1067.364	813.423
420.599	16.761	1067.149	812.862
421.613	84.602	1297.396	1367.061
422.628	78.185	1330.936	1367.196
