DTS Sentinel unit serial number:	SN413079Multiplexer serial number:	ORYXHardware model number:	OX4-SRSoftware version number:	ORYX F/W v4.00 Oryx Data Collector v3.7.2.0data status	okinstallation	princeton_trtdifferential loss correction	single-endedforward channel	channel 2reverse channel	N/Adate	2019/09/13time	04:55:35forward acquisition time	60.00reverse acquisition time	0.00gamma	496.2192k internal	0.2336k external	0.2336temperature offset calibration	1.0189default loss term (dB/km)	0.3790temperature slope calibration	1.0000multiplexer offset coefficient	1.0000multiplexer slope coefficient	1.0000fibre end	0.00T internal ref (°C)	26.52T ext. ref 1 (°C)	4.06T ext. ref 2 (°C)	20.98length (m)	temperature (°C)	Stokes	anti-Stokes-747.200	-29.267	0.095	0.055
-746.185	-83.815	-0.437	-0.140
-745.171	-131.236	-0.052	0.007
-744.156	-113.723	0.381	-0.075
-743.142	-200.000	0.006	0.112
-742.127	-200.000	0.015	0.262
-741.112	-65.231	0.242	-0.098
-740.098	800.000	-0.080	0.225
-739.083	-54.903	0.166	0.075
-738.069	124.547	-0.221	0.280
-737.054	91.867	0.049	0.055
-736.039	-200.000	0.010	-0.085
-735.025	-121.929	0.374	0.062
-734.010	154.878	0.077	-0.107
-732.996	-53.797	-0.444	-0.203
-731.981	-200.000	0.012	-0.114
-730.966	-11.250	0.174	-0.115
-729.952	-119.311	-0.308	0.054
-728.937	-200.000	0.053	-0.245
-727.923	-64.509	-0.199	-0.081
-726.908	-14.381	-0.266	-0.172
-725.894	-68.083	-0.423	-0.165
-724.879	-53.312	0.231	-0.106
-723.864	499.593	-0.080	-0.185
-722.850	-73.868	0.268	-0.098
-721.835	506.085	-0.023	-0.054
-720.821	-21.496	0.021	-0.013
-719.806	21.597	0.156	-0.127
-718.791	-169.877	0.092	-0.003
-717.777	-99.591	-0.177	-0.045
-716.762	-160.311	0.111	-0.006
-715.748	103.963	-0.052	-0.061
-714.733	-200.000	0.007	-0.218
-713.718	-79.002	0.281	0.096
-712.704	800.000	-0.040	-0.169
-711.689	39.670	-0.397	-0.357
-710.675	398.194	-0.163	0.342
-709.660	-9.306	0.361	0.242
-708.645	98.869	-0.157	-0.181
-707.631	-127.823	-0.215	-0.031
-706.616	449.390	-0.134	-0.297
-705.602	106.691	0.106	0.126
-704.587	-78.004	0.182	0.063
-703.572	-10.078	0.262	-0.174
-702.558	-75.863	-0.127	0.045
-701.543	194.178	-0.120	0.182
-700.529	45.065	0.222	0.205
-699.514	-200.000	0.030	-0.134
-698.499	-200.000	-0.020	-0.332
-697.485	-52.698	-0.410	0.190
-696.470	-200.000	-0.006	0.207
-695.456	-35.401	-0.516	0.281
-694.441	19.766	-0.199	0.161
-693.426	-142.882	0.267	-0.026
-692.412	87.702	-0.164	0.182
-691.397	-32.908	-0.232	-0.129
-690.383	-19.832	0.167	-0.103
-689.368	213.309	0.104	0.164
-688.354	-33.210	-0.110	0.061
-687.339	-93.409	-0.173	0.048
-686.324	28.575	-0.166	-0.141
-685.310	72.233	0.144	-0.151
-684.295	-87.589	-0.169	-0.051
-683.281	800.000	0.054	0.154
-682.266	727.540	-0.055	-0.147
-681.251	330.323	-0.193	-0.373
-680.237	800.000	-0.070	-0.283
-679.222	-200.000	-0.049	-0.249
-678.208	-200.000	0.006	0.234
-677.193	-95.347	-0.321	-0.087
-676.178	-200.000	0.049	-0.232
-675.164	-11.324	-0.068	0.045
-674.149	-200.000	0.003	-0.130
-673.135	20.920	-0.278	0.226
-672.120	-200.000	-0.020	0.356
-671.105	-139.828	-0.100	0.011
-670.091	-200.000	0.019	0.223
-669.076	-93.510	0.044	-0.012
-668.062	-61.331	0.190	0.080
-667.047	-200.000	-0.011	-0.486
-666.032	3.835	0.071	-0.052
-665.018	196.040	0.090	0.137
-664.003	800.000	0.033	0.122
-662.989	-200.000	-0.016	0.340
-661.974	-150.201	0.267	0.021
-660.959	-29.572	0.085	-0.049
-659.945	800.000	-0.019	-0.072
-658.930	-200.000	0.004	-0.105
-657.916	597.955	0.080	-0.199
-656.901	-150.877	0.222	-0.017
-655.886	-51.313	0.267	-0.125
-654.872	-200.000	-0.016	-0.257
-653.857	-91.573	0.387	-0.110
-652.843	-127.866	-0.226	-0.033
-651.828	167.234	0.203	-0.289
-650.814	-200.000	-0.508	-0.002
-649.799	-43.207	-0.203	-0.103
-648.784	190.862	0.038	0.057
-647.770	-119.852	0.184	-0.032
-646.755	181.654	0.055	0.081
-645.741	-15.627	-0.259	0.166
-644.726	-34.674	-0.164	0.090
-643.711	170.750	0.112	0.160
-642.697	0.077	-0.187	-0.133
-641.682	-14.086	-0.055	0.036
-640.668	-92.192	-0.062	-0.018
-639.653	-63.993	0.083	0.034
-638.638	-161.678	0.094	-0.005
-637.624	-200.000	0.001	0.278
-636.609	-140.132	-0.074	-0.008
-635.595	77.668	-0.185	0.197
-634.580	267.702	-0.094	0.164
-633.565	-108.812	-0.150	0.032
-632.551	421.615	-0.114	-0.244
-631.536	-7.194	-0.272	0.185
-630.522	-83.043	-0.141	0.045
-629.507	-56.064	-0.167	-0.074
-628.492	10.998	-0.173	-0.132
-627.478	217.739	0.087	-0.139
-626.463	26.516	0.149	-0.125
-625.449	441.475	0.102	-0.222
-624.434	78.275	-0.146	-0.155
-623.419	-1.780	0.256	-0.180
-622.405	140.577	0.096	-0.126
-621.390	-151.526	-0.053	0.004
-620.376	34.904	0.133	0.116
-619.361	-152.091	-0.282	-0.021
-618.346	-40.411	0.169	0.088
-617.332	-92.611	-0.126	-0.035
-616.317	-185.903	0.125	0.002
-615.303	800.000	0.025	-0.081
-614.288	356.198	0.086	0.172
-613.273	-140.137	-0.537	-0.056
-612.259	800.000	0.063	-0.180
-611.244	-200.000	-0.033	-0.294
-610.230	-200.000	0.077	-0.352
-609.215	-81.212	0.158	-0.052
-608.201	-46.321	-0.047	0.023
-607.186	-13.188	-0.082	0.053
-606.171	-37.960	0.273	-0.145
-605.157	-200.000	0.009	-0.246
-604.142	800.000	-0.053	0.195
-603.128	800.000	0.159	0.450
-602.113	341.563	-0.015	-0.030
-601.098	-63.984	0.198	-0.081
-600.084	-200.000	-0.040	0.222
-599.069	-40.769	-0.162	0.084
-598.055	-61.655	-0.025	-0.011
-597.040	140.437	0.203	0.267
-596.025	-61.443	-0.102	-0.043
-595.011	800.000	-0.076	-0.229
-593.996	-200.000	-0.033	-0.450
-592.982	-98.556	0.240	-0.061
-591.967	546.956	-0.159	0.380
-590.952	-122.262	0.063	-0.010
-589.938	-200.000	-0.034	0.162
-588.923	-89.896	-0.154	0.045
-587.909	-200.000	-0.005	-0.080
-586.894	-200.000	-0.070	0.408
-585.879	731.266	0.062	-0.165
-584.865	-98.370	-0.271	-0.069
-583.850	256.294	-0.057	-0.097
-582.836	800.000	-0.082	-0.322
-581.821	-69.961	-0.233	0.088
-580.806	-195.700	-0.048	-0.000
-579.792	683.893	-0.110	0.287
-578.777	-200.000	0.003	0.017
-577.763	128.102	-0.049	-0.062
-576.748	-90.334	-0.152	-0.044
-575.733	-100.892	-0.137	0.034
-574.719	-80.520	-0.106	-0.035
-573.704	-139.823	-0.407	0.043
-572.690	240.319	0.057	-0.094
-571.675	-133.627	-0.310	0.039
-570.661	23.785	0.141	-0.116
-569.646	299.476	0.225	-0.413
-568.631	20.572	-0.287	-0.232
-567.617	-30.331	0.305	-0.173
-566.602	-200.000	-0.100	0.459
-565.588	-200.000	0.047	0.333
-564.573	-200.000	-0.013	0.421
-563.558	-93.988	0.189	0.052
-562.544	800.000	-0.060	-0.238
-561.529	67.459	-0.191	-0.194
-560.515	177.291	-0.324	-0.470
-559.500	-200.000	-0.011	-0.206
-558.485	262.685	0.195	-0.337
-557.471	-78.006	-0.106	-0.036
-556.456	-39.712	0.232	-0.121
-555.442	-200.000	0.069	0.364
-554.427	32.922	0.266	0.230
-553.412	-56.659	0.164	-0.073
-552.398	800.000	-0.029	0.089
-551.383	-173.551	-0.498	-0.015
-550.369	-77.221	0.072	0.025
-549.354	70.282	0.308	-0.318
-548.339	163.285	-0.191	-0.267
-547.325	-200.000	-0.054	-0.384
-546.310	119.088	0.046	0.056
-545.296	32.352	-0.047	0.040
-544.281	-80.189	-0.043	-0.014
-543.266	-58.634	-0.084	0.036
-542.252	-129.566	-0.254	-0.035
-541.237	-34.400	-0.076	-0.041
-540.223	372.156	-0.051	0.103
-539.208	-200.000	-0.024	0.233
-538.193	800.000	0.044	-0.164
-537.179	326.281	-0.059	0.113
-536.164	-200.000	0.004	0.167
-535.150	-3.939	0.364	-0.252
-534.135	-35.352	-0.137	-0.074
-533.121	-200.000	-0.017	0.163
-532.106	-92.203	-0.065	-0.018
-531.091	332.119	-0.110	0.212
-530.077	791.012	0.071	0.194
-529.062	-77.761	-0.072	-0.025
-528.048	35.466	-0.119	-0.104
-527.033	41.823	-0.107	-0.097
-526.018	-200.000	0.019	0.167
-525.004	-200.000	-0.009	0.320
-523.989	-56.599	0.048	0.021
-522.975	-2.823	-0.036	-0.025
-521.960	-131.342	0.116	-0.015
-520.945	4.904	-0.243	0.178
-519.931	75.460	0.056	-0.059
-518.916	-74.408	-0.065	0.023
-517.902	3.331	-0.230	-0.166
-516.887	627.182	0.073	-0.183
-515.872	138.521	-0.103	0.135
-514.858	-200.000	0.018	0.218
-513.843	800.000	0.097	0.303
-512.829	75.281	0.106	-0.111
-511.814	-46.248	0.399	0.195
-510.799	-200.000	-0.055	-0.282
-509.785	161.348	0.102	0.143
-508.770	133.103	-0.087	0.111
-507.756	-13.802	-0.152	0.098
-506.741	-122.431	-0.253	-0.041
-505.726	-200.000	-0.036	-0.243
-504.712	343.633	-0.065	-0.126
-503.697	-119.930	0.224	0.038
-502.683	171.493	0.022	-0.032
-501.668	18.211	-0.196	-0.155
-500.653	-2.212	-0.145	-0.101
-499.639	-111.013	0.110	-0.022
-498.624	158.071	0.090	0.124
-497.610	9.491	0.040	0.030
-496.595	177.056	0.151	-0.219
-495.581	576.274	-0.049	-0.119
-494.566	225.725	0.158	-0.255
-493.551	334.079	0.109	-0.211
-492.537	111.333	0.097	-0.117
-491.522	800.000	0.039	-0.135
-490.508	-30.176	0.174	0.098
-489.493	-117.431	-0.374	-0.067
-488.478	378.753	0.034	-0.070
-487.464	758.226	-0.114	0.307
-486.449	-83.850	-0.131	0.042
-485.435	-96.218	0.229	-0.060
-484.420	-200.000	-0.021	-0.191
-483.405	375.169	0.175	0.355
-482.391	800.000	0.054	0.184
-481.376	-200.000	0.019	-0.091
-480.362	102.827	-0.095	0.111
-479.347	-93.921	-0.117	-0.032
-478.332	-91.983	0.133	-0.037
-477.318	-200.000	0.014	-0.120
-476.303	-200.000	-0.021	-0.364
-475.289	690.669	0.071	-0.184
-474.274	-71.853	-0.064	-0.024
-473.259	-123.629	0.055	0.009
-472.245	-47.827	0.139	0.067
-471.230	-70.694	-0.019	-0.007
-470.216	-32.494	-0.144	-0.080
-469.201	800.000	-0.059	-0.213
-468.186	497.448	-0.120	-0.274
-467.172	69.565	0.087	0.089
-466.157	-200.000	-0.035	0.270
-465.143	-136.635	0.279	-0.032
-464.128	-200.000	-0.017	0.221
-463.113	-200.000	-0.024	-0.165
-462.099	-106.577	0.386	-0.085
-461.084	416.029	0.224	-0.474
-460.070	235.270	0.098	0.161
-459.055	-109.970	-0.121	0.025
-458.040	-99.033	0.194	-0.049
-457.026	-151.830	0.213	0.016
-456.011	-44.254	0.207	-0.103
-454.997	539.937	-0.133	0.315
-453.982	-47.210	-0.306	0.148
-452.968	-160.642	-0.341	0.018
-451.953	-85.798	-0.605	-0.186
-450.938	800.000	-0.095	0.306
-449.924	-157.312	0.182	0.011
-448.909	-200.000	-0.052	-0.230
-447.895	-52.069	0.287	0.132
-446.880	-65.688	-0.190	0.076
-445.865	800.000	0.076	0.272
-444.851	448.487	-0.037	0.082
-443.836	96.775	0.074	0.084
-442.822	-200.000	0.007	-0.079
-441.807	118.388	0.104	-0.127
-440.792	11.375	-0.162	-0.123
-439.778	-200.000	-0.008	0.066
-438.763	-37.680	0.261	0.138
-437.749	-23.721	-0.361	0.214
-436.734	-58.454	-0.133	0.057
-435.719	13.872	-0.179	0.138
-434.705	64.383	0.162	-0.161
-433.690	1.162	-0.089	0.064
-432.676	13.088	-0.365	0.280
-431.661	-198.376	0.429	-0.002
-430.646	-62.124	-0.518	-0.214
-429.632	228.676	-0.219	0.354
-428.617	-23.889	0.031	-0.018
-427.603	89.419	0.218	-0.241
-426.588	-200.000	-0.061	0.407
-425.573	86.570	-0.102	-0.112
-424.559	631.819	0.094	-0.237
-423.544	251.208	-0.039	-0.066
-422.530	63.160	0.262	0.260
-421.515	126.814	0.034	-0.042
-420.500	-54.831	-0.071	0.032
-419.486	9.984	0.343	0.258
-418.471	-118.519	0.249	0.044
-417.457	-80.586	0.371	0.123
-416.442	66.648	0.163	-0.164
-415.428	-200.000	0.039	-0.231
-414.413	-166.620	-0.253	-0.010
-413.398	239.749	0.042	-0.069
-412.384	41.680	0.065	0.058
-411.369	291.243	-0.128	-0.230
-410.355	-56.564	-0.168	0.074
-409.340	207.708	-0.034	0.053
-408.325	-99.362	-0.070	0.018
-407.311	56.784	-0.052	-0.050
-406.296	-96.963	-0.242	-0.063
-405.282	121.079	-0.107	0.132
-404.267	-200.000	0.015	0.083
-403.252	-104.897	-0.185	-0.042
-402.238	83.940	0.434	-0.470
-401.223	800.000	-0.101	-0.303
-400.209	94.578	-0.096	-0.108
-399.194	800.000	0.018	0.052
-398.179	-69.332	-0.077	-0.029
-397.165	-200.000	0.015	0.156
-396.150	51.713	-0.106	-0.100
-395.136	50.365	0.406	-0.380
-394.121	-200.000	-0.009	-0.213
-393.106	180.998	0.111	0.161
-392.092	102.225	-0.197	0.228
-391.077	-120.834	0.335	0.056
-390.063	244.237	-0.070	-0.116
-389.048	256.640	-0.029	-0.049
-388.033	4.069	0.090	0.065
-387.019	800.000	-0.048	-0.145
-386.004	-93.251	0.456	-0.126
-384.990	-134.453	0.216	-0.026
-383.975	-109.232	0.331	-0.070
-382.960	266.468	-0.067	0.117
-381.946	-102.254	0.202	0.048
-380.931	-72.990	-0.083	-0.030
-379.917	-119.530	0.096	-0.017
-378.902	-29.978	0.107	-0.060
-377.888	-98.517	0.249	-0.063
-376.873	707.410	-0.142	-0.371
-375.858	-138.304	0.234	0.026
-374.844	800.000	0.028	0.078
-373.829	-12.729	-0.150	-0.097
-372.815	-200.000	0.076	0.408
-371.800	-200.000	0.004	-0.278
-370.785	-87.113	0.292	0.088
-369.771	-200.000	-0.052	0.359
-368.756	-63.662	0.046	0.019
-367.742	-141.601	-0.286	-0.029
-366.727	610.364	-0.079	-0.196
-365.712	74.287	0.066	0.069
-364.698	-112.294	-0.106	-0.021
-363.683	-52.659	-0.152	-0.070
-362.669	800.000	0.062	-0.255
-361.654	29.510	0.102	-0.086
-360.639	-147.477	-0.269	-0.022
-359.625	-149.649	-0.093	0.007
-358.610	172.601	-0.142	-0.202
-357.596	-200.000	0.013	-0.060
-356.581	19.589	-0.070	-0.056
-355.566	244.831	-0.122	-0.203
-354.552	39.704	-0.159	-0.141
-353.537	-74.837	-0.152	-0.054
-352.523	-200.000	-0.002	-0.059
-351.508	706.149	0.058	-0.151
-350.493	-187.026	0.180	-0.002
-349.479	-200.000	-0.009	0.107
-348.464	12.736	0.039	0.030
-347.450	74.396	-0.124	-0.128
-346.435	308.194	-0.102	0.189
-345.420	43.089	-0.203	0.183
-344.406	800.000	0.053	-0.171
-343.391	-44.378	0.228	-0.113
-342.377	113.327	-0.214	0.257
-341.362	-139.847	0.412	0.043
-340.348	1.745	-0.085	0.060
-339.333	263.541	-0.195	0.334
-338.318	369.242	0.033	-0.065
-337.304	-175.436	-0.222	-0.006
-336.289	131.709	0.159	-0.202
-335.275	-126.702	-0.334	0.049
-334.260	475.253	-0.033	-0.073
-333.245	-200.000	0.032	0.327
-332.231	77.239	-0.049	0.052
-331.216	800.000	0.100	0.332
-330.202	18.320	0.132	-0.104
-329.187	-15.499	0.172	0.108
-328.172	137.944	-0.166	0.216
-327.158	-126.950	-0.023	-0.003
-326.143	-32.274	-0.219	-0.121
-325.129	-200.000	-0.005	0.062
-324.114	-14.987	-0.164	0.104
-323.099	-64.591	0.069	0.028
-322.085	800.000	0.092	-0.364
-321.070	173.183	0.196	0.279
-320.056	-200.000	-0.093	0.526
-319.041	-100.177	0.345	0.085
-318.026	429.879	-0.091	-0.195
-317.012	77.806	0.151	-0.159
-315.997	-66.067	-0.236	-0.093
-314.983	-92.428	0.037	0.010
-313.968	-200.000	0.378	-0.000
-312.953	-160.526	0.318	-0.017
-311.939	433.292	0.141	0.302
-310.924	-200.000	0.005	0.356
-309.910	-140.720	0.297	0.030
-308.895	-46.388	-0.202	-0.098
-307.880	-200.000	-0.005	0.090
-306.866	-29.386	-0.282	-0.159
-305.851	-77.341	0.276	-0.095
-304.837	-5.347	-0.298	-0.202
-303.822	24.186	0.126	0.102
-302.807	101.459	0.107	0.123
-301.793	236.605	-0.126	-0.206
-300.778	800.000	-0.052	-0.190
-299.764	-200.000	0.045	0.247
-298.749	116.834	0.068	-0.083
-297.735	-88.661	-0.118	0.035
-296.720	-78.303	0.349	0.118
-295.705	64.666	0.083	-0.082
-294.691	445.840	0.182	-0.394
-293.676	287.365	-0.195	-0.348
-292.662	-15.607	0.135	0.085
-291.647	-200.000	0.037	0.291
-290.632	-79.645	0.241	0.080
-289.618	83.046	-0.113	-0.121
-288.603	214.131	-0.143	0.223
-287.589	562.299	-0.128	0.306
-286.574	-200.000	0.039	-0.193
-285.559	-160.472	0.086	-0.005
-284.545	388.114	-0.076	-0.155
-283.530	-200.000	-0.021	0.098
-282.516	-70.816	0.450	0.168
-281.501	-200.000	0.027	0.226
-280.486	88.063	-0.064	0.071
-279.472	-24.316	0.293	0.172
-278.457	-14.870	-0.153	0.097
-277.443	-36.340	-0.060	-0.032
-276.428	221.519	-0.109	-0.173
-275.413	-96.026	-0.179	-0.047
-274.399	15.075	-0.313	-0.242
-273.384	571.500	-0.038	-0.091
-272.370	-200.000	0.043	0.222
-271.355	-69.778	0.256	0.096
-270.340	-47.329	-0.233	0.112
-269.326	-12.398	0.009	-0.006
-268.311	-200.000	-0.028	0.200
-267.297	151.558	-0.209	0.280
-266.282	426.075	-0.108	0.229
-265.267	-7.792	0.256	0.170
-264.253	648.226	0.049	-0.123
-263.238	-156.153	-0.140	-0.009
-262.224	81.045	0.192	-0.204
-261.209	-79.062	0.169	0.057
-260.195	-200.000	-0.010	-0.154
-259.180	-75.488	0.177	0.062
-258.165	-124.117	-0.276	0.043
-257.151	-151.140	-0.031	-0.002
-256.136	711.118	0.092	0.241
-255.122	80.300	-0.182	0.193
-254.107	800.000	0.135	-0.409
-253.092	-1.645	0.112	0.078
-252.078	-118.548	-0.108	0.019
-251.063	-126.795	-0.098	-0.014
-250.049	-200.000	-0.052	0.394
-249.034	3.629	-0.437	0.314
-248.019	-111.810	-0.222	-0.044
-247.005	490.969	0.036	0.080
-245.990	800.000	-0.166	0.475
-244.976	-200.000	-0.020	-0.255
-243.961	137.233	0.170	-0.219
-242.946	-135.006	0.343	-0.041
-241.932	-161.948	0.284	-0.014
-240.917	800.000	-0.088	-0.294
-239.903	-102.559	0.155	-0.037
-238.888	441.812	-0.108	0.233
-237.873	-98.998	0.189	-0.047
-236.859	31.738	-0.365	0.309
-235.844	-147.940	-0.218	0.018
-234.830	-153.865	-0.257	-0.017
-233.815	-128.096	0.207	-0.029
-232.800	681.110	-0.054	0.138
-231.786	-200.000	0.080	0.510
-230.771	-194.922	-0.049	-0.000
-229.757	800.000	-0.111	-0.412
-228.742	457.431	-0.113	-0.247
-227.727	-79.984	-0.213	-0.070
-226.713	110.204	-0.135	-0.160
-225.698	37.560	0.233	-0.204
-224.684	-74.871	-0.143	-0.050
-223.669	-170.563	0.389	0.013
-222.655	-25.981	-0.355	-0.206
-221.640	325.946	-0.056	-0.106
-220.625	-10.539	0.215	0.140
-219.611	-172.420	0.401	0.013
-218.596	-113.676	-0.196	0.038
-217.582	-200.000	-0.024	-0.107
-216.567	-46.810	0.163	-0.078
-215.552	800.000	-0.048	0.199
-214.538	87.794	-0.206	-0.224
-213.523	181.123	0.008	-0.011
-212.509	-118.985	-0.183	-0.032
-211.494	-200.000	-0.027	0.524
-210.479	234.294	0.063	-0.102
-209.465	-80.864	0.112	-0.037
-208.450	29.213	0.165	0.138
-207.436	-146.230	0.327	-0.028
-206.421	345.657	0.105	-0.202
-205.406	-63.287	0.228	0.092
-204.392	4.235	0.116	0.083
-203.377	15.588	-0.132	-0.102
-202.363	-129.178	0.205	-0.028
-201.348	-200.000	-0.040	0.255
-200.333	-88.304	0.054	0.016
-199.319	-115.265	0.222	0.041
-198.304	-66.471	0.206	0.080
-197.290	-200.000	-0.019	-0.334
-196.275	3.949	0.109	-0.078
-195.260	-200.000	0.026	-0.188
-194.246	273.236	-0.066	0.115
-193.231	-107.026	0.230	0.050
-192.217	106.040	0.303	0.353
-191.202	131.506	-0.169	-0.214
-190.187	229.513	-0.094	-0.150
-189.173	-83.345	-0.079	0.025
-188.158	-81.950	0.122	-0.039
-187.144	136.157	0.277	0.354
-186.129	-79.628	0.222	-0.073
-185.114	-32.596	-0.124	0.068
-184.100	156.849	0.077	0.104
-183.085	-116.223	-0.207	-0.038
-182.071	302.967	-0.182	0.331
-181.056	18.663	-0.252	0.198
-180.042	-53.183	0.179	0.081
-179.027	104.664	0.117	-0.136
-178.012	-200.000	0.034	-0.242
-176.998	-21.359	-0.197	0.118
-175.983	139.062	0.284	0.366
-174.969	-30.912	-0.250	-0.139
-173.954	-200.000	-0.045	-0.197
-172.939	-135.097	-0.202	0.024
-171.925	134.546	0.078	-0.099
-170.910	42.424	0.190	0.170
-169.896	800.000	-0.060	0.215
-168.881	189.038	-0.012	-0.018
-167.866	-91.685	-0.194	-0.054
-166.852	-200.000	-0.003	0.084
-165.837	-180.491	0.069	0.001
-164.823	64.709	0.163	-0.161
-163.808	41.117	0.183	-0.162
-162.793	-118.576	0.054	-0.009
-161.779	87.957	0.241	-0.262
-160.764	306.357	-0.027	-0.049
-159.750	-41.039	-0.171	0.087
-158.735	-192.679	0.219	-0.002
-157.720	52.359	-0.101	0.094
-156.706	-9.320	-0.136	-0.089
-155.691	-200.000	0.006	0.212
-154.677	-200.000	-0.022	-0.189
-153.662	-120.241	0.320	-0.054
-152.647	109.295	0.022	0.025
-151.633	-200.000	-0.023	0.125
-150.618	-55.371	0.175	0.077
-149.604	-116.563	0.198	-0.036
-148.589	227.847	0.060	-0.096
-147.574	800.000	0.081	-0.295
-146.560	24.753	-0.155	0.126
-145.545	6.671	0.199	-0.146
-144.531	96.352	-0.111	-0.125
-143.516	-63.275	-0.177	0.072
-142.502	382.717	0.046	-0.092
-141.487	354.729	0.124	-0.241
-140.472	326.648	-0.064	-0.120
-139.458	-200.000	-0.000	-0.180
-138.443	-134.264	0.260	-0.031
-137.429	800.000	-0.039	0.115
-136.414	800.000	-0.111	0.345
-135.399	-113.258	0.240	0.046
-134.385	56.720	0.190	0.182
-133.370	38.726	-0.168	0.147
-132.356	18.855	0.167	0.131
-131.341	800.000	-0.040	-0.124
-130.326	417.279	-0.130	0.272
-129.312	-102.133	-0.298	-0.070
-128.297	632.140	-0.134	-0.334
-127.283	349.591	0.032	0.063
-126.268	112.072	0.134	0.159
-125.253	3.303	-0.361	-0.258
-124.239	21.254	0.210	-0.167
-123.224	-157.644	-0.136	-0.008
-122.210	800.000	0.017	0.063
-121.195	102.961	-0.080	-0.092
-120.180	65.875	-0.232	0.231
-119.166	317.743	-0.080	-0.149
-118.151	571.958	-0.028	-0.066
-117.137	-200.000	-0.002	0.188
-116.122	12.136	0.255	0.192
-115.107	33.807	-0.355	-0.303
-114.093	52.166	0.198	0.185
-113.078	-200.000	-0.022	0.336
-112.064	-29.326	-0.303	-0.170
-111.049	607.257	-0.061	0.148
-110.034	-126.409	-0.360	0.053
-109.020	-53.605	-0.183	-0.082
-108.005	394.536	0.066	0.136
-106.991	-12.703	0.049	0.031
-105.976	-37.822	-0.146	0.076
-104.962	-200.000	0.008	-0.055
-103.947	220.156	-0.134	0.210
-102.932	508.140	0.155	-0.351
-101.918	-164.589	0.091	-0.004
-100.903	252.455	-0.160	-0.266
-99.889	-145.083	0.081	0.007
-98.874	405.047	0.097	0.201
-97.859	-45.952	-0.416	0.201
-96.845	-200.000	0.033	-0.220
-95.830	135.606	0.250	-0.318
-94.816	9.818	0.161	0.119
-93.801	97.999	0.200	0.225
-92.786	-200.000	-0.071	-0.402
-91.772	800.000	0.074	-0.222
-90.757	-106.259	0.146	0.032
-89.743	50.893	0.050	0.046
-88.728	132.399	0.190	-0.239
-87.713	-200.000	-0.016	0.205
-86.699	109.187	0.169	-0.198
-85.684	-38.637	-0.203	-0.105
-84.670	-200.000	0.015	0.157
-83.655	619.849	-0.065	-0.161
-82.640	42.987	0.159	-0.142
-81.626	-200.000	0.019	0.185
-80.611	-10.802	0.148	0.096
-79.597	191.341	0.140	0.206
-78.582	-200.000	-0.013	0.105
-77.567	-26.543	-0.245	-0.141
-76.553	-119.910	-0.283	0.048
-75.538	-104.578	-0.107	0.024
-74.524	-46.936	0.182	-0.087
-73.509	82.755	-0.096	0.102
-72.494	416.217	-0.033	0.068
-71.480	-58.148	0.425	0.181
-70.465	32.308	0.313	-0.264
-69.451	-200.000	-0.022	0.110
-68.436	30.090	-0.270	-0.225
-67.422	-46.372	0.272	0.131
-66.407	-151.664	0.244	0.018
-65.392	494.447	0.046	-0.104
-64.378	394.750	0.039	0.080
-63.363	22.513	0.094	-0.075
-62.349	-26.368	0.225	0.129
-61.334	30.704	-1.354	-1.133
-60.319	-13.911	0.579	0.366
-59.305	391.942	-0.411	-0.836
-58.290	376.281	0.613	1.223
-57.276	503.113	0.659	1.489
-56.261	-200.000	116.952	653.573
-55.246	507.880	1544.214	3503.433
-54.232	174.151	2721.264	3843.032
-53.217	99.395	2291.039	2589.648
-52.203	35.531	1897.190	1627.879
-51.188	29.657	1690.263	1405.737
-50.173	27.220	1649.444	1353.618
-49.159	47.787	1706.824	1557.074
-48.144	46.322	1720.528	1558.418
-47.130	29.223	1677.409	1391.546
-46.115	26.617	1663.067	1360.053
-45.100	26.487	1658.118	1354.978
-44.086	26.333	1655.968	1352.019
-43.071	26.416	1653.105	1350.246
-42.057	26.311	1650.961	1347.659
-41.042	26.460	1648.664	1346.840
-40.027	26.510	1646.900	1345.718
-39.013	26.346	1644.962	1342.860
-37.998	26.368	1643.160	1341.497
-36.984	26.491	1641.335	1340.869
-35.969	26.474	1640.652	1340.133
-34.954	26.544	1638.924	1339.181
-33.940	26.497	1637.453	1337.582
-32.925	26.437	1635.844	1335.774
-31.911	26.551	1633.760	1334.857
-30.896	26.522	1632.398	1333.476
-29.881	26.524	1630.497	1331.887
-28.867	26.576	1628.752	1330.793
-27.852	26.460	1627.844	1329.144
-26.838	26.463	1625.891	1327.515
-25.823	26.550	1624.658	1327.098
-24.809	26.577	1623.334	1326.158
-23.794	26.478	1621.950	1324.250
-22.779	26.598	1619.740	1323.271
-21.765	26.586	1618.561	1322.166
-20.750	26.482	1617.118	1320.181
-19.736	26.570	1615.875	1319.752
-18.721	26.568	1614.106	1318.241
-17.706	26.598	1612.721	1317.274
-16.692	26.412	1611.758	1315.087
-15.677	26.509	1610.204	1314.473
-14.663	26.603	1608.854	1313.995
-13.648	26.551	1607.598	1312.540
-12.633	26.569	1605.885	1311.226
-11.619	26.501	1604.260	1309.351
-10.604	26.553	1602.905	1308.573
-9.590	26.586	1601.534	1307.637
-8.575	26.540	1600.168	1306.137
-7.560	26.482	1599.189	1304.867
-6.546	26.592	1597.830	1304.500
-5.531	26.616	1596.439	1303.484
-4.517	26.546	1595.703	1302.327
-3.502	26.558	1594.377	1301.284
-2.487	26.629	1592.488	1300.197
-1.473	26.307	1580.774	1288.288
-0.458	23.315	1561.754	1251.630
0.556	21.634	1562.839	1219.455
1.571	19.204	1586.709	1220.768
2.586	18.668	1599.079	1226.346
3.600	17.051	1545.268	1173.801
4.615	10.765	1438.511	1052.021
5.629	5.088	1379.165	973.197
6.644	4.039	1372.817	962.119
7.659	4.005	1371.493	960.892
8.673	4.116	1370.155	960.557
9.688	4.070	1368.485	959.020
10.702	4.049	1365.342	956.602
11.717	6.777	1370.706	977.172
12.731	14.167	1384.263	1032.781
13.746	20.843	1395.105	1082.406
14.761	22.852	1397.017	1096.281
15.775	22.262	1395.411	1091.267
16.790	21.308	1392.954	1083.338
17.804	20.662	1390.925	1077.665
18.819	20.224	1389.893	1074.055
19.834	20.164	1389.236	1073.080
20.848	20.274	1387.916	1072.647
21.863	20.093	1387.035	1070.756
22.877	20.009	1385.533	1068.983
23.892	19.961	1384.510	1067.799
24.907	19.859	1383.759	1066.495
25.921	19.814	1383.015	1065.553
26.936	19.831	1381.654	1064.517
27.950	19.908	1380.593	1064.077
28.965	20.129	1379.668	1064.624
29.980	20.219	1379.256	1064.769
30.994	20.396	1377.962	1064.758
32.009	20.430	1377.108	1064.215
33.023	20.361	1375.894	1062.758
34.038	20.090	1374.913	1060.247
35.053	20.048	1373.599	1058.886
36.067	20.021	1372.738	1057.961
37.082	20.163	1371.462	1057.751
38.096	20.187	1370.546	1057.101
39.111	20.258	1369.490	1056.625
40.126	20.003	1368.680	1054.354
41.140	19.736	1367.476	1051.707
42.155	19.564	1367.129	1050.301
43.169	19.368	1367.110	1049.003
44.184	19.481	1366.329	1048.999
45.199	19.603	1366.146	1049.506
46.213	19.695	1365.995	1049.858
47.228	19.937	1365.367	1050.748
48.242	20.004	1363.907	1049.940
49.257	20.036	1362.018	1048.583
50.271	19.937	1361.389	1047.407
51.286	19.931	1360.027	1046.231
52.301	19.890	1358.496	1044.712
53.315	19.807	1357.541	1043.385
54.330	19.596	1356.389	1041.137
55.344	19.581	1354.782	1039.720
56.359	19.594	1354.144	1039.218
57.374	19.613	1352.892	1038.281
58.388	19.534	1352.202	1037.186
59.403	19.505	1351.818	1036.621
60.417	19.499	1350.797	1035.711
61.432	19.420	1349.893	1034.454
62.447	19.209	1349.459	1032.764
63.461	19.186	1348.080	1031.482
64.476	19.206	1346.814	1030.539
65.490	19.237	1345.718	1029.798
66.505	19.225	1343.717	1028.104
67.520	19.316	1342.877	1027.912
68.534	19.241	1341.883	1026.613
69.549	19.175	1341.161	1025.576
70.563	19.117	1339.927	1024.197
71.578	19.030	1338.671	1022.631
72.593	18.992	1337.412	1021.352
73.607	18.938	1337.025	1020.644
74.622	18.992	1336.622	1020.564
75.636	19.004	1335.941	1020.029
76.651	19.073	1335.237	1019.809
77.666	19.098	1334.949	1019.644
78.680	19.291	1334.287	1020.191
79.695	19.353	1333.360	1019.760
80.709	19.496	1332.835	1020.113
81.724	19.586	1332.141	1020.022
82.739	19.661	1331.318	1019.746
83.753	19.893	1330.815	1020.638
84.768	20.018	1329.811	1020.513
85.782	20.262	1329.153	1021.357
86.797	20.186	1327.769	1019.757
87.812	20.014	1326.959	1018.032
88.826	20.019	1325.134	1016.573
89.841	19.991	1324.454	1015.794
90.855	20.206	1323.383	1016.145
91.870	20.221	1322.845	1015.731
92.884	20.205	1322.119	1014.990
93.899	20.265	1321.230	1014.569
94.914	20.307	1320.605	1014.245
95.928	20.132	1320.125	1012.763
96.943	20.223	1318.684	1012.096
97.957	20.131	1317.816	1010.806
98.972	19.990	1317.136	1009.375
99.987	20.123	1315.665	1008.928
101.001	20.167	1314.737	1008.386
102.016	20.105	1313.924	1007.311
103.030	20.201	1312.975	1007.052
104.045	20.050	1312.177	1005.478
105.060	19.987	1310.316	1003.595
106.074	19.685	1308.693	1000.514
107.089	19.336	1307.148	997.231
108.103	19.347	1305.881	996.234
109.118	19.253	1304.673	994.687
110.133	19.227	1303.670	993.681
111.147	19.351	1301.948	992.998
112.162	19.471	1301.027	992.899
113.176	19.462	1300.083	992.035
114.191	19.519	1299.643	991.940
115.206	19.479	1298.178	990.506
116.220	19.431	1296.997	989.243
117.235	19.399	1295.804	988.060
118.249	19.388	1294.629	987.014
119.264	19.296	1293.167	985.283
120.279	19.279	1292.224	984.382
121.293	19.125	1291.026	982.502
122.308	19.112	1289.842	981.444
123.322	18.951	1289.097	979.870
124.337	18.981	1287.661	978.866
125.352	18.883	1286.832	977.589
126.366	18.986	1285.478	977.057
127.381	18.964	1284.501	976.107
128.395	18.872	1284.017	975.132
129.410	19.009	1282.749	974.856
130.424	18.997	1282.250	974.320
131.439	19.236	1281.467	974.993
132.454	19.415	1280.292	975.025
133.468	19.440	1279.796	974.706
134.483	19.332	1278.972	973.380
135.497	19.351	1277.902	972.586
136.512	19.446	1276.755	972.165
137.527	19.468	1275.606	971.324
138.541	19.551	1274.213	970.647
139.556	19.517	1273.213	969.606
140.570	19.635	1272.512	969.649
141.585	19.714	1271.621	969.328
142.600	19.912	1270.099	969.194
143.614	19.936	1269.824	969.029
144.629	20.145	1268.516	969.113
145.643	20.028	1267.465	967.576
146.658	19.819	1266.023	965.219
147.673	19.668	1264.689	963.274
148.687	19.659	1263.148	961.967
149.702	19.533	1261.660	960.047
150.716	19.448	1260.627	958.707
151.731	19.459	1259.752	958.018
152.746	19.503	1258.336	957.098
153.760	19.677	1256.893	956.882
154.775	19.568	1256.947	956.230
155.789	19.772	1255.465	956.147
156.804	19.846	1254.414	955.672
157.819	19.838	1253.848	955.111
158.833	19.972	1253.343	955.385
159.848	20.132	1252.236	955.335
160.862	20.026	1251.238	953.908
161.877	19.786	1249.203	950.951
162.892	19.473	1248.208	948.388
163.906	19.417	1247.054	947.120
164.921	19.380	1246.819	946.658
165.935	19.608	1245.546	946.854
166.950	19.737	1244.797	946.910
167.964	19.599	1244.436	945.796
168.979	19.648	1243.496	945.268
169.994	19.673	1242.721	944.729
171.008	19.493	1242.087	943.178
172.023	19.829	1241.409	944.417
173.037	19.958	1240.836	944.603
174.052	19.938	1239.457	943.359
175.067	19.557	1238.650	940.586
176.081	19.421	1236.932	938.456
177.096	19.476	1236.280	938.180
178.110	19.336	1235.759	936.940
179.125	19.557	1234.218	936.886
180.140	19.664	1233.069	936.512
181.154	19.851	1232.407	936.940
182.169	19.799	1231.629	935.986
183.183	20.034	1230.027	935.954
184.198	20.079	1228.847	935.216
185.213	20.067	1228.004	934.425
186.227	20.059	1227.322	933.781
187.242	20.164	1226.213	933.422
188.256	20.235	1224.962	932.771
189.271	20.262	1224.403	932.407
190.286	19.895	1223.238	929.463
191.300	19.503	1221.619	926.049
192.315	19.399	1220.735	924.739
193.329	19.493	1220.479	924.967
194.344	19.546	1219.782	924.642
195.359	19.678	1219.450	925.015
196.373	19.661	1219.090	924.567
197.388	19.859	1218.642	925.206
198.402	20.071	1218.434	926.100
199.417	20.276	1218.087	926.852
200.432	20.507	1217.112	927.260
201.446	20.505	1216.645	926.807
202.461	20.684	1215.795	927.036
203.475	20.547	1214.907	925.546
204.490	20.296	1213.047	922.711
205.504	20.064	1211.635	920.325
206.519	19.999	1210.514	919.045
207.534	19.926	1209.481	917.792
208.548	19.930	1208.522	917.006
209.563	20.053	1208.116	917.268
210.577	19.976	1206.793	915.773
211.592	20.136	1206.268	916.139
212.607	20.227	1205.580	916.017
213.621	20.277	1204.747	915.570
214.636	20.254	1203.342	914.299
215.650	20.219	1202.816	913.632
216.665	20.415	1202.203	914.117
217.680	20.564	1201.517	914.299
218.694	20.639	1200.810	914.077
219.709	20.483	1199.882	912.467
220.723	20.484	1198.921	911.664
221.738	20.503	1198.042	911.011
222.753	20.503	1197.221	910.311
223.767	20.470	1196.808	909.743
224.782	20.659	1196.190	910.181
225.796	20.656	1195.732	909.738
226.811	20.596	1195.182	908.923
227.826	20.423	1193.979	907.024
228.840	20.292	1193.361	905.788
229.855	20.435	1192.409	905.734
230.869	20.446	1191.881	905.311
231.884	20.191	1190.647	902.966
232.899	20.134	1189.310	901.575
233.913	20.061	1189.042	900.912
234.928	20.042	1188.246	900.130
235.942	20.012	1187.406	899.261
236.957	20.099	1186.533	898.967
237.972	20.029	1185.621	897.836
238.986	19.977	1185.148	897.131
240.001	20.023	1184.543	896.827
241.015	20.088	1183.752	896.489
242.030	20.185	1183.286	896.556
243.045	20.351	1182.530	896.763
244.059	20.324	1181.593	895.834
245.074	20.404	1181.031	895.741
246.088	20.467	1180.514	895.595
247.103	20.648	1180.014	896.065
248.117	20.652	1179.575	895.674
249.132	20.973	1178.732	896.609
250.147	21.250	1178.247	897.581
251.161	21.340	1177.713	897.558
252.176	21.310	1177.108	896.863
253.190	21.379	1176.593	896.746
254.205	21.564	1175.859	897.057
255.220	21.694	1174.949	896.947
256.234	21.456	1174.992	895.681
257.249	21.399	1173.917	894.491
258.263	21.424	1173.119	893.933
259.278	21.407	1172.689	893.437
260.293	21.445	1172.174	893.160
261.307	21.573	1171.761	893.421
262.322	21.518	1170.955	892.446
263.336	21.662	1170.533	892.779
264.351	21.632	1169.437	891.712
265.366	21.594	1169.061	891.153
266.380	21.481	1168.910	890.387
267.395	21.477	1167.333	889.085
268.409	21.304	1166.846	887.758
269.424	21.233	1165.843	886.556
270.439	21.356	1164.879	886.368
271.453	21.300	1164.171	885.463
272.468	21.117	1163.298	883.798
273.482	21.030	1162.643	882.781
274.497	20.972	1161.904	881.848
275.512	21.075	1161.054	881.647
276.526	21.040	1161.011	881.358
277.541	21.125	1159.629	880.658
278.555	21.161	1159.363	880.563
279.570	21.356	1158.995	881.187
280.585	21.660	1158.042	881.916
281.599	21.639	1157.030	880.961
282.614	21.362	1156.051	878.746
283.628	21.246	1154.142	876.633
284.643	21.297	1153.610	876.407
285.657	21.158	1152.805	875.023
286.672	21.198	1152.234	874.713
287.687	21.233	1151.538	874.284
288.701	21.287	1150.588	873.755
289.716	21.278	1149.896	873.107
290.730	21.402	1148.663	872.710
291.745	21.346	1148.335	872.104
292.760	21.310	1147.928	871.541
293.774	21.537	1147.663	872.393
294.789	21.706	1146.989	872.647
295.803	21.634	1146.213	871.621
296.818	21.365	1145.301	869.510
297.833	21.268	1144.276	868.173
298.847	21.355	1143.498	867.937
299.862	21.363	1143.210	867.683
300.876	21.463	1141.883	867.092
301.891	21.551	1141.666	867.287
302.906	21.655	1141.184	867.359
303.920	21.767	1140.707	867.477
304.935	21.910	1140.098	867.646
305.949	21.950	1139.387	867.221
306.964	22.035	1138.617	866.979
307.979	21.818	1137.979	865.345
308.993	21.827	1136.974	864.548
310.008	21.825	1136.723	864.273
311.022	21.964	1135.783	864.167
312.037	21.948	1134.979	863.398
313.052	21.597	1133.849	860.737
314.066	21.490	1132.376	859.018
315.081	21.391	1131.187	857.553
316.095	21.270	1130.738	856.545
317.110	21.228	1130.207	855.861
318.125	21.275	1129.786	855.696
319.139	21.282	1129.119	855.149
320.154	21.289	1128.093	854.333
321.168	21.300	1127.529	853.884
322.183	21.354	1127.029	853.691
323.197	21.330	1126.685	853.239
324.212	21.550	1125.727	853.510
325.227	21.513	1125.321	852.947
326.241	21.490	1125.081	852.576
327.256	21.493	1123.743	851.505
328.270	21.393	1122.560	850.045
329.285	21.516	1121.477	849.746
330.300	21.409	1120.826	848.661
331.314	21.347	1119.988	847.650
332.329	21.435	1118.854	847.145
333.343	21.453	1118.600	846.964
334.358	21.656	1117.504	847.040
335.373	21.808	1117.225	847.488
336.387	21.825	1116.468	846.921
337.402	21.858	1115.557	846.315
338.416	21.931	1115.036	846.195
339.431	22.014	1114.124	845.826
340.446	22.211	1113.948	846.569
341.460	22.353	1113.331	846.708
342.475	22.497	1112.627	846.788
343.489	22.333	1111.872	845.354
344.504	22.528	1110.852	845.440
345.519	22.488	1110.415	844.838
346.533	22.606	1109.609	844.718
347.548	22.627	1109.134	844.381
348.562	22.493	1108.241	842.986
349.577	22.327	1106.538	840.821
350.592	22.033	1105.546	838.592
351.606	21.829	1105.021	837.145
352.621	21.768	1104.222	836.175
353.635	21.831	1103.213	835.635
354.650	21.797	1102.863	835.133
355.665	21.882	1102.382	835.102
356.679	22.019	1101.942	835.348
357.694	22.108	1101.144	835.092
358.708	22.212	1100.316	834.881
359.723	22.209	1100.077	834.611
360.738	22.139	1099.422	833.708
361.752	22.242	1098.572	833.482
362.767	22.302	1098.059	833.300
363.781	22.251	1097.519	832.575
364.796	22.466	1097.162	833.247
365.810	22.539	1097.045	833.432
366.825	22.618	1096.538	833.347
367.840	22.811	1095.892	833.692
368.854	22.931	1095.061	833.553
369.869	22.867	1094.819	832.992
370.883	22.772	1093.451	831.434
371.898	22.598	1092.555	829.859
372.913	22.467	1092.040	828.774
373.927	22.569	1091.792	828.993
374.942	22.671	1091.668	829.308
375.956	22.742	1090.761	828.878
376.971	22.699	1089.726	827.816
377.986	22.668	1089.545	827.458
379.000	22.969	1088.945	828.342
380.015	22.902	1088.772	827.823
381.029	22.981	1087.986	827.524
382.044	22.974	1087.536	827.074
383.059	22.994	1086.162	826.051
384.073	22.991	1085.201	825.230
385.088	22.960	1084.597	824.553
386.102	23.013	1083.743	824.080
387.117	22.806	1082.165	821.842
388.132	22.547	1081.435	820.010
389.146	22.514	1080.749	819.267
390.161	22.395	1080.007	818.078
391.175	22.359	1079.488	817.445
392.190	22.608	1078.726	817.951
393.205	22.793	1078.179	818.319
394.219	22.800	1077.389	817.683
395.234	22.624	1076.206	815.897
396.248	22.596	1075.298	815.005
397.263	22.553	1074.064	813.802
398.278	22.520	1073.332	813.020
399.292	22.302	1073.115	811.780
400.307	22.268	1071.805	810.559
401.321	22.297	1071.031	810.036
402.336	22.308	1070.312	809.470
403.350	22.258	1069.732	808.734
404.365	22.319	1069.567	808.815
405.380	22.449	1069.057	808.958
406.394	22.661	1067.927	809.002
407.409	22.795	1067.390	809.139
408.423	22.865	1066.791	808.935
409.438	22.950	1066.592	809.099
410.453	23.114	1065.760	809.146
411.467	23.175	1064.997	808.776
412.482	23.240	1064.320	808.486
413.496	23.251	1063.980	808.205
414.511	23.353	1063.253	808.049
415.526	23.497	1063.339	808.701
416.540	23.552	1062.808	808.473
417.555	23.484	1062.010	807.485
418.569	23.332	1061.530	806.356
419.584	23.277	1060.923	805.577
420.599	23.385	1060.054	805.334
421.613	157.812	1404.046	1797.546
422.628	145.125	1454.136	1797.616
