DTS Sentinel unit serial number:	SN413079Multiplexer serial number:	ORYXHardware model number:	OX4-SRSoftware version number:	ORYX F/W v4.00 Oryx Data Collector v3.7.2.0data status	okinstallation	princeton_trtdifferential loss correction	single-endedforward channel	channel 2reverse channel	N/Adate	2019/09/17time	08:35:35forward acquisition time	60.00reverse acquisition time	0.00gamma	496.2192k internal	0.2332k external	0.2332temperature offset calibration	0.9975default loss term (dB/km)	0.3790temperature slope calibration	1.0000multiplexer offset coefficient	1.0000multiplexer slope coefficient	1.0000fibre end	0.00T internal ref (°C)	27.62T ext. ref 1 (°C)	0.14T ext. ref 2 (°C)	23.18length (m)	temperature (°C)	Stokes	anti-Stokes-747.200	-174.769	-0.198	-0.006
-746.185	800.000	-0.105	0.353
-745.171	489.658	0.020	-0.047
-744.156	10.438	-0.186	-0.142
-743.142	21.598	0.172	0.141
-742.127	185.588	-0.194	0.290
-741.112	-200.000	0.034	-0.210
-740.098	800.000	0.021	0.080
-739.083	-200.000	0.017	-0.112
-738.069	-200.000	0.001	0.242
-737.054	-114.102	-0.176	0.034
-736.039	-83.540	0.081	0.026
-735.025	-98.174	-0.064	0.017
-734.010	-200.000	0.005	-0.078
-732.996	-12.098	0.080	0.053
-731.981	4.118	-0.262	-0.193
-730.966	324.446	-0.162	-0.311
-729.952	-59.452	-0.302	-0.130
-728.937	460.443	-0.036	0.080
-727.923	-200.000	0.010	0.129
-726.908	-38.733	-0.216	-0.115
-725.894	160.246	-0.122	0.171
-724.879	2.704	0.100	-0.073
-723.864	98.907	-0.082	-0.095
-722.850	800.000	-0.097	-0.296
-721.835	-119.600	-0.037	0.006
-720.821	-95.955	-0.056	0.015
-719.806	341.919	-0.064	-0.125
-718.791	90.110	-0.021	0.024
-717.777	723.705	0.039	-0.105
-716.762	-37.836	0.295	0.158
-715.748	63.847	-0.165	0.167
-714.733	11.777	-0.093	-0.072
-713.718	800.000	0.041	-0.122
-712.704	171.377	-0.122	-0.176
-711.689	-167.010	-0.090	-0.004
-710.675	112.821	-0.056	-0.069
-709.660	-101.104	0.171	-0.042
-708.645	-37.883	-0.206	0.110
-707.631	436.381	-0.039	-0.085
-706.616	63.203	-0.214	-0.215
-705.602	-158.638	-0.147	0.008
-704.587	-83.843	-0.168	0.054
-703.572	148.281	-0.227	-0.308
-702.558	800.000	0.029	-0.127
-701.543	112.955	-0.236	-0.287
-700.529	800.000	-0.021	0.064
-699.514	177.956	0.068	0.099
-698.499	543.387	0.030	0.073
-697.485	-158.162	-0.200	0.012
-696.470	-81.889	-0.149	0.049
-695.456	101.521	-0.157	0.184
-694.441	-36.689	0.156	0.084
-693.426	290.715	0.086	0.157
-692.412	-95.512	0.176	-0.047
-691.397	-126.279	-0.332	0.050
-690.383	1.489	0.136	-0.098
-689.368	243.114	0.073	-0.123
-688.354	-200.000	-0.034	-0.313
-687.339	512.976	-0.048	-0.113
-686.324	-62.854	0.313	-0.130
-685.310	24.060	-0.216	-0.179
-684.295	800.000	-0.022	0.078
-683.281	-101.301	-0.372	0.091
-682.266	-200.000	0.049	0.419
-681.251	-69.682	0.216	0.083
-680.237	-188.039	0.114	-0.001
-679.222	-147.956	-0.168	-0.014
-678.208	-200.000	0.031	0.148
-677.193	-115.574	-0.177	-0.033
-676.178	345.805	-0.101	-0.199
-675.164	-200.000	0.016	-0.144
-674.149	-182.729	-0.131	0.002
-673.135	-84.821	0.170	0.053
-672.120	800.000	0.072	0.233
-671.105	145.798	0.144	-0.193
-670.091	509.990	0.031	-0.073
-669.076	-125.330	-0.112	0.017
-668.062	800.000	0.093	-0.262
-667.047	-200.000	-0.031	-0.277
-666.032	-193.243	0.167	-0.001
-665.018	-48.346	0.324	0.157
-664.003	-200.000	0.020	0.144
-662.989	137.673	-0.287	0.377
-661.974	63.349	-0.040	0.040
-660.959	-164.629	-0.200	0.009
-659.945	186.577	0.242	0.361
-658.930	4.434	0.171	-0.125
-657.916	-200.000	0.033	-0.179
-656.901	-200.000	0.035	0.324
-655.886	766.175	0.052	-0.141
-654.872	266.670	-0.276	-0.484
-653.857	-200.000	-0.020	0.223
-652.843	354.981	-0.149	-0.296
-651.828	800.000	0.089	-0.374
-650.814	-200.000	-0.006	0.241
-649.799	112.747	-0.043	0.052
-648.784	83.020	0.068	0.075
-647.770	-101.335	-0.264	0.065
-646.755	-22.374	0.275	-0.167
-645.741	60.216	-0.156	0.154
-644.726	419.827	-0.057	0.121
-643.711	-90.572	0.087	-0.025
-642.697	86.836	-0.107	-0.118
-641.682	-32.540	-0.206	-0.115
-640.668	-145.571	0.357	-0.032
-639.653	204.580	-0.219	0.340
-638.638	-200.000	-0.219	-0.001
-637.624	800.000	0.024	0.086
-636.609	800.000	0.036	-0.135
-635.595	-147.075	-0.147	0.013
-634.580	143.592	0.082	0.109
-633.565	-84.831	-0.365	0.115
-632.551	266.608	0.088	0.155
-631.536	800.000	0.084	0.258
-630.522	-121.415	-0.270	-0.045
-629.507	21.474	0.134	-0.109
-628.492	-29.593	0.239	0.137
-627.478	-82.302	0.080	0.026
-626.463	-81.046	-0.148	0.049
-625.449	-200.000	0.034	0.253
-624.434	800.000	-0.080	-0.243
-623.419	-34.851	-0.201	-0.110
-622.405	-141.330	-0.173	-0.018
-621.390	-46.583	0.085	-0.042
-620.376	-200.000	-0.025	-0.145
-619.361	-145.145	0.491	-0.045
-618.346	27.366	-0.138	-0.116
-617.332	-122.515	-0.312	0.051
-616.317	11.077	-0.131	0.100
-615.303	800.000	0.043	0.158
-614.288	-134.060	-0.088	-0.011
-613.273	-200.000	-0.041	-0.194
-612.259	-200.000	0.022	-0.116
-611.244	-89.064	0.076	-0.023
-610.230	575.516	0.123	-0.301
-609.215	555.592	0.107	-0.257
-608.201	-4.026	-0.165	0.115
-607.186	-61.350	-0.164	-0.069
-606.171	800.000	0.024	-0.068
-605.157	-148.249	-0.290	0.024
-604.142	800.000	0.083	0.317
-603.128	60.288	0.205	-0.203
-602.113	150.538	-0.156	-0.212
-601.098	307.929	0.105	0.195
-600.084	-200.000	0.016	-0.070
-599.069	-177.655	0.348	-0.008
-598.055	-109.020	-0.395	-0.084
-597.040	-200.000	0.005	-0.282
-596.025	71.790	-0.159	-0.165
-595.011	-62.978	-0.171	-0.071
-593.996	800.000	-0.094	-0.344
-592.982	18.189	-0.422	-0.337
-591.967	64.959	0.147	0.149
-590.952	-97.229	0.211	-0.055
-589.938	800.000	-0.073	-0.269
-588.923	-0.182	0.017	-0.012
-587.909	280.368	0.061	-0.109
-586.894	-164.976	0.180	0.008
-585.879	262.702	-0.120	-0.208
-584.865	-200.000	0.026	0.260
-583.850	800.000	-0.089	-0.362
-582.836	-116.992	-0.168	-0.031
-581.821	128.477	0.101	0.129
-580.806	-200.000	0.067	-0.462
-579.792	800.000	0.123	-0.376
-578.777	-145.963	-0.411	-0.036
-577.763	800.000	0.101	0.373
-576.748	-97.012	-0.200	-0.052
-575.733	800.000	-0.030	-0.128
-574.719	132.052	0.103	-0.133
-573.704	210.793	-0.129	-0.203
-572.690	-52.830	0.184	-0.085
-571.675	-200.000	0.009	0.148
-570.661	-200.000	-0.039	-0.177
-569.646	-200.000	0.014	-0.420
-568.631	-49.258	0.089	-0.043
-567.617	-200.000	0.008	0.060
-566.602	800.000	0.041	0.158
-565.588	216.337	0.071	0.113
-564.573	-192.331	0.188	-0.002
-563.558	-134.847	0.285	-0.035
-562.544	-200.000	-0.021	-0.118
-561.529	-46.027	-0.163	0.080
-560.515	800.000	-0.112	-0.311
-559.500	-71.342	-0.187	-0.070
-558.485	-55.362	-0.429	-0.192
-557.471	62.263	0.160	-0.160
-556.456	3.072	-0.141	0.103
-555.442	-78.557	-0.324	-0.111
-554.427	-54.925	-0.313	0.141
-553.412	104.113	-0.102	0.120
-552.398	800.000	-0.021	-0.074
-551.383	-122.314	-0.232	-0.038
-550.369	-117.857	0.175	0.031
-549.354	-200.000	0.041	0.219
-548.339	-139.499	-0.163	0.017
-547.325	-200.000	-0.003	-0.397
-546.310	-61.644	0.128	0.054
-545.296	-14.856	0.020	0.013
-544.281	-133.735	-0.172	-0.021
-543.266	427.170	0.049	0.107
-542.252	-148.294	-0.354	-0.029
-541.237	113.786	0.106	-0.129
-540.223	-200.000	-0.012	-0.087
-539.208	363.120	0.103	0.206
-538.193	-82.570	-0.356	-0.115
-537.179	149.790	0.153	-0.207
-536.164	450.711	0.128	-0.281
-535.150	-56.812	0.037	0.016
-534.135	-110.176	0.140	-0.029
-533.121	64.137	-0.332	-0.333
-532.106	168.083	-0.072	0.102
-531.091	316.385	0.046	-0.087
-530.077	-200.000	-0.031	-0.181
-529.062	-200.000	-0.027	0.196
-528.048	-9.364	-0.115	-0.077
-527.033	405.893	0.075	-0.158
-526.018	-16.692	-0.119	-0.075
-525.004	421.671	0.259	0.554
-523.989	800.000	-0.045	0.151
-522.975	59.680	-0.234	-0.230
-521.960	-94.294	-0.174	0.047
-520.945	470.305	0.141	-0.315
-519.931	800.000	-0.045	-0.164
-518.916	-59.845	-0.105	0.045
-517.902	-111.495	0.190	-0.039
-516.887	-200.000	0.047	0.391
-515.872	30.439	0.077	-0.065
-514.858	-79.608	-0.346	-0.116
-513.843	35.358	-0.054	-0.047
-512.829	547.338	-0.101	0.242
-511.814	76.043	-0.083	0.087
-510.799	64.642	0.134	0.135
-509.785	-200.000	0.046	-0.268
-508.770	-130.231	-0.385	-0.052
-507.756	22.630	-0.168	0.137
-506.741	-31.621	0.093	0.052
-505.726	722.931	0.014	0.038
-504.712	-7.563	-0.154	0.104
-503.697	328.872	-0.077	0.147
-502.683	-200.000	-0.046	0.264
-501.668	156.040	-0.153	-0.211
-500.653	-200.000	-0.012	0.193
-499.639	-81.815	-0.201	0.066
-498.624	-115.276	0.103	0.019
-497.610	-119.601	0.222	-0.038
-496.595	-82.582	0.229	-0.074
-495.581	53.413	-0.051	0.049
-494.566	-200.000	-0.030	-0.185
-493.551	136.995	0.122	0.159
-492.537	-200.000	-0.014	-0.063
-491.522	76.669	0.046	-0.049
-490.508	-116.237	0.224	-0.041
-489.493	-127.331	-0.218	-0.032
-488.478	-186.094	0.181	-0.003
-487.464	-83.446	0.140	-0.045
-486.449	-32.200	0.094	0.053
-485.435	-89.007	0.213	0.063
-484.420	800.000	-0.036	-0.104
-483.405	-47.398	0.195	0.094
-482.391	-94.885	0.148	0.040
-481.376	284.528	0.015	0.026
-480.362	161.347	0.205	0.285
-479.347	58.917	0.044	0.043
-478.332	172.476	-0.157	-0.225
-477.318	-102.845	-0.114	-0.027
-476.303	636.435	-0.120	0.304
-475.289	-200.000	-0.042	-0.315
-474.274	118.728	-0.081	0.099
-473.259	-200.000	0.006	-0.169
-472.245	800.000	0.054	0.176
-471.230	-200.000	-0.062	-0.272
-470.216	56.501	0.020	0.020
-469.201	800.000	-0.074	0.213
-468.186	-166.738	-0.325	0.013
-467.172	-68.725	-0.243	-0.094
-466.157	536.595	0.106	0.250
-465.143	-38.952	-0.284	0.149
-464.128	-200.000	-0.005	0.021
-463.113	-108.534	0.487	-0.104
-462.099	172.281	-0.077	-0.110
-461.084	-78.546	0.207	-0.070
-460.070	800.000	0.066	0.183
-459.055	-142.180	-0.087	-0.009
-458.040	261.603	-0.074	0.128
-457.026	42.560	-0.171	0.155
-456.011	15.322	-0.260	0.203
-454.997	-126.880	-0.242	0.035
-453.982	119.359	0.162	0.200
-452.968	800.000	0.096	0.310
-451.953	-139.162	-0.320	-0.034
-450.938	-115.647	0.073	0.014
-449.924	148.934	-0.053	0.071
-448.909	213.558	-0.071	0.111
-447.895	44.831	-0.178	0.163
-446.880	-200.000	0.019	-0.321
-445.865	-200.000	-0.034	-0.279
-444.851	323.271	0.057	-0.107
-443.836	374.850	0.182	0.369
-442.822	-117.775	-0.188	-0.034
-441.807	-98.071	0.089	0.023
-440.792	-99.499	-0.257	-0.064
-439.778	117.757	0.144	0.177
-438.763	-162.530	0.221	-0.011
-437.749	-200.000	0.068	-0.349
-436.734	800.000	0.047	-0.184
-435.719	-11.822	-0.180	0.117
-434.705	-97.677	-0.182	0.047
-433.690	-200.000	0.017	-0.215
-432.676	-139.109	-0.251	-0.027
-431.661	-73.110	0.213	-0.078
-430.646	114.270	-0.051	-0.061
-429.632	137.800	-0.172	0.223
-428.617	171.118	0.208	0.296
-427.603	163.373	0.134	-0.188
-426.588	-127.265	-0.057	-0.008
-425.573	-200.000	0.002	-0.046
-424.559	91.228	-0.099	0.110
-423.544	800.000	-0.056	0.203
-422.530	-55.424	0.269	-0.120
-421.515	-65.929	0.165	-0.065
-420.500	800.000	0.059	0.176
-419.486	61.868	-0.157	0.155
-418.471	-109.348	-0.154	0.032
-417.457	-200.000	-0.004	0.240
-416.442	-79.222	-0.254	0.085
-415.428	195.636	-0.073	-0.110
-414.413	-141.029	0.295	0.030
-413.398	-64.772	0.167	0.067
-412.384	-62.622	-0.201	0.083
-411.369	-164.161	0.304	-0.014
-410.355	146.114	0.115	0.153
-409.340	121.223	-0.178	0.220
-408.325	-56.806	0.186	-0.082
-407.311	-108.145	-0.180	0.039
-406.296	-139.080	0.186	-0.020
-405.282	71.284	-0.144	0.148
-404.267	-200.000	-0.033	0.157
-403.252	262.268	0.163	0.281
-402.238	78.241	0.114	0.121
-401.223	279.121	0.232	0.411
-400.209	412.665	-0.016	0.034
-399.194	-133.954	0.257	0.032
-398.179	42.703	-0.202	0.183
-397.165	157.071	-0.115	-0.158
-396.150	-200.000	-0.030	-0.286
-395.136	-151.109	-0.153	-0.011
-394.121	55.275	0.174	-0.167
-393.106	329.072	-0.176	0.336
-392.092	-200.000	0.027	0.324
-391.077	-200.000	0.003	-0.050
-390.063	40.441	0.087	-0.077
-389.048	-200.000	-0.026	-0.177
-388.033	-56.050	0.115	0.051
-387.019	-120.281	0.212	0.036
-386.004	42.362	0.228	0.206
-384.990	800.000	-0.091	0.349
-383.975	36.774	0.161	0.141
-382.960	60.621	0.007	-0.007
-381.946	-15.575	-0.283	-0.179
-380.931	302.171	0.046	-0.084
-379.917	-123.864	0.048	0.008
-378.902	311.314	0.063	-0.118
-377.888	-69.592	0.211	0.080
-376.873	-200.000	-0.016	0.237
-375.858	-33.595	0.154	-0.084
-374.844	121.802	0.135	-0.167
-373.829	-26.951	-0.239	0.138
-372.815	800.000	0.058	0.188
-371.800	-200.000	0.061	0.268
-370.785	-37.107	-0.145	0.077
-369.771	-200.000	-0.005	0.308
-368.756	-24.267	0.299	-0.177
-367.742	261.467	-0.039	-0.068
-366.727	-56.121	-0.160	-0.071
-365.712	800.000	0.003	-0.010
-364.698	-200.000	0.054	0.351
-363.683	-200.000	-0.006	-0.192
-362.669	-55.109	-0.051	-0.023
-361.654	-132.724	-0.083	0.011
-360.639	-200.000	-0.317	0.000
-359.625	-100.433	0.288	-0.071
-358.610	48.273	-0.025	0.023
-357.596	-12.689	-0.130	-0.084
-356.581	555.365	0.051	0.122
-355.566	28.829	-0.127	-0.107
-354.552	44.984	-0.225	0.206
-353.537	7.491	0.196	-0.145
-352.523	800.000	-0.053	-0.151
-351.508	-137.374	0.256	-0.029
-350.493	-18.436	0.146	0.090
-349.479	-66.976	0.456	-0.178
-348.464	-10.611	0.295	0.193
-347.450	-119.072	0.233	-0.040
-346.435	29.931	-0.185	-0.156
-345.420	-110.857	0.098	0.020
-344.406	585.380	0.050	0.122
-343.391	800.000	0.033	-0.141
-342.377	718.799	0.042	-0.110
-341.362	92.894	0.089	0.099
-340.348	-165.827	-0.224	0.010
-339.333	-59.269	-0.141	0.060
-338.318	-77.277	0.327	0.113
-337.304	436.657	-0.145	-0.313
-336.289	-133.241	0.203	0.025
-335.275	-39.587	-0.249	-0.129
-334.260	217.708	-0.133	-0.210
-333.245	-119.226	0.279	-0.048
-332.231	-34.575	-0.135	-0.073
-331.216	330.009	0.067	0.127
-330.202	-103.964	-0.178	0.041
-329.187	335.756	0.053	0.101
-328.172	-119.700	0.244	0.042
-327.158	-157.984	0.216	-0.013
-326.143	232.660	0.394	-0.640
-325.129	95.283	-0.143	0.161
-324.114	800.000	-0.026	0.105
-323.099	-108.598	-0.212	-0.045
-322.085	171.575	0.151	0.215
-321.070	68.111	-0.076	0.077
-320.056	800.000	-0.051	0.178
-319.041	800.000	-0.083	-0.246
-318.026	169.827	-0.069	0.097
-317.012	-115.129	0.149	-0.028
-315.997	-148.523	-0.120	0.010
-314.983	2.098	-0.144	0.103
-313.968	-200.000	-0.007	0.100
-312.953	18.537	0.243	0.192
-311.939	-75.951	0.226	0.079
-310.924	-8.153	0.323	0.215
-309.910	-82.153	0.037	-0.012
-308.895	-119.013	0.320	0.055
-307.880	800.000	0.055	-0.199
-306.866	-104.599	0.117	0.027
-305.851	800.000	0.042	-0.116
-304.837	-200.000	-0.031	0.161
-303.822	-200.000	-0.028	0.173
-302.807	784.516	-0.086	0.232
-301.793	-54.670	-0.166	0.074
-300.778	-200.000	-0.004	0.348
-299.764	28.764	0.235	0.196
-298.749	-41.522	-0.279	0.142
-297.735	62.408	0.096	0.095
-296.720	363.695	0.087	0.172
-295.705	-175.824	0.214	0.006
-294.691	-124.244	0.139	-0.022
-293.676	307.268	-0.141	-0.260
-292.662	11.550	-0.266	0.201
-291.647	198.029	-0.103	-0.156
-290.632	-42.854	-0.209	0.105
-289.618	6.336	0.185	-0.135
-288.603	-42.706	0.135	0.068
-287.589	-200.000	0.004	0.051
-286.574	91.188	0.106	-0.117
-285.559	344.200	0.075	-0.145
-284.545	32.861	-0.093	0.079
-283.530	-158.329	0.137	0.008
-282.516	-200.000	-0.002	0.236
-281.501	-82.649	0.335	0.107
-280.486	800.000	0.067	0.201
-279.472	-20.928	0.054	-0.032
-278.457	-61.931	0.157	-0.065
-277.443	-43.590	-0.076	-0.038
-276.428	-200.000	-0.037	-0.228
-275.413	78.185	0.237	-0.250
-274.399	-50.923	0.216	0.100
-273.384	-33.428	0.137	-0.075
-272.370	-41.358	-0.166	-0.084
-271.355	-29.704	0.110	0.062
-270.340	800.000	0.071	-0.248
-269.326	-127.742	-0.146	0.021
-268.311	312.540	0.146	0.271
-267.297	19.697	0.057	0.046
-266.282	730.367	0.045	0.118
-265.267	-164.111	0.212	0.010
-264.253	-9.510	0.253	0.166
-263.238	15.156	-0.258	0.199
-262.224	-101.031	0.073	-0.018
-261.209	-60.585	0.419	-0.175
-260.195	11.557	-0.233	-0.177
-259.180	-200.000	0.031	-0.215
-258.165	800.000	-0.032	0.093
-257.151	510.215	-0.065	-0.149
-256.136	-168.699	0.199	0.007
-255.122	127.233	-0.128	0.161
-254.107	-56.736	-0.310	0.135
-253.092	20.929	-0.102	0.081
-252.078	800.000	0.034	0.097
-251.063	-200.000	-0.053	-0.370
-250.049	-32.816	-0.498	0.273
-249.034	800.000	0.045	-0.179
-248.019	42.470	0.237	0.213
-247.005	-200.000	0.022	0.220
-245.990	86.558	0.156	-0.170
-244.976	-153.882	0.072	-0.005
-243.961	312.362	0.136	-0.252
-242.946	-5.420	-0.375	-0.254
-241.932	-151.479	-0.154	-0.011
-240.917	-128.259	-0.244	0.034
-239.903	-5.012	0.096	-0.065
-238.888	-81.038	-0.186	-0.061
-237.873	-37.737	0.032	0.017
-236.859	326.485	0.132	0.249
-235.844	-200.000	0.021	0.093
-234.830	-100.355	-0.401	-0.098
-233.815	-200.000	-0.022	0.154
-232.800	800.000	-0.016	-0.051
-231.786	-200.000	-0.022	0.573
-230.771	-200.000	-0.013	0.272
-229.757	696.317	-0.093	0.240
-228.742	5.515	-0.156	-0.113
-227.727	-120.010	-0.161	0.027
-226.713	-88.042	-0.359	0.106
-225.698	-152.587	-0.341	0.024
-224.684	187.391	0.080	-0.118
-223.669	649.963	-0.036	0.092
-222.655	-200.000	0.002	0.110
-221.640	-80.411	-0.372	-0.122
-220.625	-8.756	0.266	-0.176
-219.611	38.683	-0.207	0.182
-218.596	59.529	-0.115	0.112
-217.582	34.517	-0.207	0.178
-216.567	-200.000	0.032	-0.186
-215.552	439.958	-0.118	-0.255
-214.538	800.000	0.048	-0.177
-213.523	474.085	-0.093	0.206
-212.509	800.000	0.062	-0.181
-211.494	-23.323	0.173	-0.103
-210.479	-200.000	0.004	0.153
-209.465	-117.821	0.439	0.078
-208.450	276.868	0.238	-0.417
-207.436	20.062	0.079	-0.063
-206.421	-101.790	0.263	0.063
-205.406	524.546	0.170	-0.394
-204.392	-77.217	0.009	-0.003
-203.377	-31.501	0.217	-0.120
-202.363	215.300	0.127	0.199
-201.348	-200.000	0.021	-0.290
-200.333	660.297	-0.127	-0.323
-199.319	2.718	0.262	0.187
-198.304	800.000	-0.111	0.344
-197.290	449.786	0.023	-0.051
-196.275	800.000	-0.065	-0.178
-195.260	800.000	0.044	0.134
-194.246	-200.000	-0.074	0.447
-193.231	-200.000	-0.003	0.028
-192.217	614.004	-0.087	0.213
-191.202	-39.461	0.297	0.153
-190.187	283.801	-0.077	0.136
-189.173	-200.000	0.015	-0.198
-188.158	0.340	-0.121	-0.085
-187.144	38.832	-0.020	0.018
-186.129	-200.000	0.009	-0.070
-185.114	124.493	-0.216	-0.267
-184.100	-200.000	0.035	0.179
-183.085	-6.108	0.104	-0.070
-182.071	-164.001	-0.106	-0.005
-181.056	800.000	0.039	-0.140
-180.042	719.917	-0.097	-0.255
-179.027	91.324	0.045	0.050
-178.012	3.469	-0.086	-0.062
-176.998	800.000	0.064	-0.226
-175.983	-58.681	0.269	0.115
-174.969	-29.763	-0.162	-0.091
-173.954	-114.125	-0.044	0.008
-172.939	236.154	0.071	-0.115
-171.925	800.000	-0.030	-0.087
-170.910	-41.129	-0.089	-0.045
-169.896	52.097	0.080	-0.075
-168.881	54.491	0.129	-0.122
-167.866	403.263	-0.174	-0.360
-166.852	3.844	0.265	-0.190
-165.837	65.644	0.175	-0.174
-164.823	20.909	0.077	-0.061
-163.808	-119.130	0.274	-0.047
-162.793	52.810	-0.207	0.194
-161.779	-200.000	0.004	0.339
-160.764	-90.020	0.123	-0.035
-159.750	-95.239	-0.087	-0.023
-158.735	341.010	0.215	-0.413
-157.720	-105.018	0.262	-0.059
-156.706	-143.740	0.070	0.007
-155.691	39.101	-0.087	0.077
-154.677	-109.656	0.355	0.073
-153.662	-200.000	-0.088	-0.393
-152.647	-118.293	-0.189	-0.033
-151.633	-109.749	0.064	-0.013
-150.618	-200.000	0.002	-0.264
-149.604	189.682	-0.070	0.103
-148.589	23.848	-0.060	0.048
-147.574	31.075	-0.103	-0.087
-146.560	178.627	-0.023	-0.033
-145.545	800.000	0.040	0.159
-144.531	249.478	0.169	-0.282
-143.516	-47.022	0.135	-0.065
-142.502	-107.364	0.042	-0.009
-141.487	129.040	0.119	0.149
-140.472	683.242	0.043	-0.110
-139.458	800.000	-0.023	0.085
-138.443	9.097	-0.133	-0.098
-137.429	-6.180	0.311	-0.209
-136.414	163.392	0.086	0.119
-135.399	-12.264	-0.175	0.112
-134.385	-88.484	-0.232	-0.068
-133.370	153.868	0.147	0.198
-132.356	-59.684	-0.040	0.017
-131.341	79.161	-0.073	0.077
-130.326	-200.000	-0.036	-0.260
-129.312	66.708	0.225	0.225
-128.297	-200.000	-0.008	0.125
-127.283	-60.873	-0.168	-0.070
-126.268	-131.792	0.240	0.031
-125.253	128.478	0.109	-0.136
-124.239	37.650	0.167	-0.145
-123.224	485.935	-0.134	-0.300
-122.210	399.095	0.128	-0.263
-121.195	-200.000	-0.022	0.108
-120.180	-146.368	0.194	0.017
-119.166	800.000	-0.090	0.288
-118.151	-200.000	0.010	0.234
-117.137	-53.105	-0.018	0.008
-116.122	-121.012	0.342	-0.056
-115.107	401.904	0.019	0.040
-114.093	-200.000	0.027	-0.164
-113.078	-200.000	0.041	0.186
-112.064	800.000	-0.036	-0.144
-111.049	148.010	0.129	0.170
-110.034	-70.902	0.299	-0.110
-109.020	800.000	0.043	-0.119
-108.005	-30.428	0.168	0.093
-106.991	620.191	-0.121	-0.297
-105.976	-92.199	-0.069	-0.019
-104.962	341.846	0.111	-0.213
-103.947	81.506	0.229	0.243
-102.932	-122.480	0.102	0.016
-101.918	-109.527	-0.380	0.079
-100.903	182.935	0.177	0.256
-99.889	153.222	-0.087	-0.117
-98.874	-146.138	-0.230	0.020
-97.859	-76.459	0.201	-0.069
-96.845	-140.900	0.150	-0.015
-95.830	-138.765	0.153	0.016
-94.816	736.707	0.152	0.400
-93.801	-151.525	-0.063	0.005
-92.786	216.030	0.094	0.147
-91.772	-67.267	-0.037	0.014
-90.757	-164.465	0.149	-0.007
-89.743	-36.744	-0.303	0.160
-88.728	33.541	-0.039	-0.033
-87.713	-90.360	0.225	0.064
-86.699	-200.000	-0.002	0.021
-85.684	800.000	-0.053	-0.151
-84.670	-55.563	-0.158	0.069
-83.655	164.656	0.084	0.116
-82.640	61.460	0.397	-0.387
-81.626	250.651	-0.130	0.216
-80.611	-156.243	-0.411	-0.025
-79.597	-200.000	0.040	0.199
-78.582	-105.211	-0.176	-0.039
-77.567	194.843	0.103	0.154
-76.553	-61.744	-0.407	0.167
-75.538	-37.533	-0.179	0.094
-74.524	-200.000	0.001	-0.221
-73.509	-51.573	0.044	0.020
-72.494	-200.000	0.016	0.222
-71.480	800.000	-0.022	0.091
-70.465	-136.466	-0.210	-0.024
-69.451	-157.497	0.328	0.019
-68.436	-200.000	-0.007	0.209
-67.422	373.898	-0.048	0.097
-66.407	800.000	-0.056	-0.199
-65.392	-200.000	0.021	-0.302
-64.378	-101.240	0.069	0.016
-63.363	800.000	-0.020	-0.065
-62.349	-105.151	0.150	-0.034
-61.334	-7.833	-0.978	-0.647
-60.319	8.332	0.572	0.421
-59.305	800.000	-0.391	-1.086
-58.290	455.499	0.549	1.192
-57.276	-200.000	0.275	1.528
-56.261	-200.000	112.280	636.460
-55.246	472.606	1503.922	3316.588
-54.232	147.064	2677.621	3526.368
-53.217	98.442	2291.938	2586.177
-52.203	36.826	1901.645	1645.464
-51.188	30.798	1690.799	1417.243
-50.173	28.254	1648.477	1362.808
-49.159	49.489	1702.439	1568.429
-48.144	48.699	1716.680	1575.526
-47.130	30.439	1675.663	1401.628
-46.115	27.719	1661.289	1369.164
-45.100	27.546	1656.508	1363.872
-44.086	27.695	1653.352	1362.337
-43.071	27.537	1651.286	1359.399
-42.057	27.547	1648.728	1357.315
-41.042	27.463	1646.809	1355.056
-40.027	27.449	1644.788	1353.239
-39.013	27.434	1642.553	1351.236
-37.998	27.407	1641.210	1349.870
-36.984	27.549	1640.215	1350.053
-35.969	27.659	1638.590	1349.480
-34.954	27.650	1636.870	1347.938
-33.940	27.569	1635.013	1345.756
-32.925	27.587	1633.413	1344.521
-31.911	27.575	1631.569	1342.866
-30.896	27.593	1629.927	1341.591
-29.881	27.592	1627.952	1339.901
-28.867	27.580	1625.934	1338.099
-27.852	27.604	1624.660	1337.173
-26.838	27.567	1623.304	1335.735
-25.823	27.688	1622.129	1335.603
-24.809	27.645	1620.537	1333.927
-23.794	27.663	1619.234	1332.930
-22.779	27.713	1617.983	1332.214
-21.765	27.666	1616.145	1330.306
-20.750	27.637	1614.685	1328.834
-19.736	27.737	1613.330	1328.399
-18.721	27.680	1612.004	1326.841
-17.706	27.601	1610.670	1325.110
-16.692	27.595	1609.119	1323.741
-15.677	27.631	1607.739	1322.816
-14.663	27.657	1606.716	1322.108
-13.648	27.649	1605.190	1320.744
-12.633	27.761	1603.129	1319.802
-11.619	27.583	1602.441	1317.896
-10.604	27.660	1600.487	1316.798
-9.590	27.674	1599.173	1315.766
-8.575	27.817	1597.672	1315.503
-7.560	27.677	1596.739	1313.680
-6.546	27.778	1595.456	1313.298
-5.531	27.623	1594.994	1311.750
-4.517	27.689	1593.678	1311.094
-3.502	27.706	1592.475	1310.173
-2.487	27.753	1590.777	1309.057
-1.473	27.524	1579.204	1297.855
-0.458	24.815	1560.073	1262.988
0.556	19.722	1561.867	1233.273
1.571	17.362	1585.183	1234.462
2.586	17.067	1597.470	1241.762
3.600	15.647	1544.811	1190.669
4.615	8.708	1435.978	1060.855
5.629	1.564	1373.088	968.908
6.644	0.268	1364.967	954.884
7.659	0.117	1363.166	952.586
8.673	0.122	1362.680	952.193
9.688	0.033	1360.749	950.194
10.702	-0.109	1357.757	947.127
11.717	3.333	1362.898	972.384
12.731	11.368	1375.104	1032.009
13.746	16.566	1382.670	1070.574
14.761	17.006	1382.121	1072.838
15.775	16.261	1379.715	1066.172
16.790	15.162	1376.867	1056.946
17.804	14.468	1375.178	1051.181
18.819	14.092	1373.594	1047.512
19.834	13.820	1371.941	1044.443
20.848	13.435	1371.332	1041.468
21.863	13.356	1369.363	1039.385
22.877	13.228	1368.363	1037.732
23.892	13.060	1367.475	1035.912
24.907	13.202	1366.355	1035.857
25.921	13.086	1365.984	1034.761
26.936	13.209	1364.859	1034.586
27.950	13.225	1363.885	1033.858
28.965	13.248	1362.883	1033.151
29.980	13.379	1361.903	1033.130
30.994	13.396	1361.127	1032.562
32.009	13.298	1360.349	1031.268
33.023	13.528	1358.651	1031.318
34.038	13.363	1357.763	1029.526
35.053	13.334	1356.522	1028.318
36.067	13.282	1355.811	1027.363
37.082	13.394	1354.751	1027.164
38.096	13.314	1353.940	1025.964
39.111	13.332	1353.242	1025.452
40.126	13.311	1352.502	1024.671
41.140	13.228	1351.277	1023.139
42.155	13.111	1351.114	1022.202
43.169	13.163	1351.014	1022.356
44.184	13.095	1350.798	1021.683
45.199	13.167	1350.190	1021.579
46.213	13.156	1349.825	1021.140
47.228	13.228	1348.519	1020.509
48.242	13.311	1347.380	1020.071
49.257	13.216	1345.701	1018.121
50.271	13.332	1344.649	1017.950
51.286	13.283	1343.168	1016.440
52.301	13.203	1342.209	1015.133
53.315	13.217	1341.214	1014.374
54.330	13.170	1340.035	1013.105
55.344	13.194	1338.830	1012.254
56.359	13.148	1337.597	1010.948
57.374	13.170	1336.607	1010.244
58.388	13.066	1335.902	1008.989
59.403	13.110	1335.573	1008.918
60.417	13.117	1334.579	1008.119
61.432	13.070	1333.788	1007.150
62.447	13.038	1332.826	1006.136
63.461	12.975	1331.669	1004.789
64.476	13.070	1330.739	1004.577
65.490	13.069	1329.614	1003.635
66.505	13.113	1327.484	1002.201
67.520	13.089	1326.681	1001.361
68.534	13.052	1325.599	1000.235
69.549	13.103	1324.527	999.646
70.563	13.074	1323.547	998.641
71.578	13.077	1322.302	997.634
72.593	12.928	1321.631	996.136
73.607	12.997	1320.678	995.749
74.622	13.056	1319.658	995.244
75.636	13.097	1319.435	995.239
76.651	13.030	1318.672	994.167
77.666	12.919	1318.251	993.099
78.680	13.041	1317.646	993.288
79.695	13.036	1317.000	992.680
80.709	13.087	1315.262	991.589
81.724	13.175	1314.586	991.522
82.739	13.084	1314.127	990.543
83.753	13.146	1313.051	990.014
84.768	13.314	1311.855	990.031
85.782	13.412	1310.791	989.725
86.797	13.298	1309.717	988.146
87.812	13.233	1308.167	986.504
88.826	13.171	1307.524	985.562
89.841	13.224	1306.484	985.002
90.855	13.241	1305.481	984.260
91.870	13.254	1304.976	983.874
92.884	13.341	1303.604	983.265
93.899	13.350	1303.292	983.000
94.914	13.329	1302.491	982.182
95.928	13.370	1301.595	981.663
96.943	13.348	1299.859	980.134
97.957	13.298	1299.421	979.424
98.972	13.327	1298.441	978.769
99.987	13.360	1297.433	978.119
101.001	13.189	1296.564	976.370
102.016	13.321	1295.375	976.164
103.030	13.297	1294.683	975.418
104.045	13.313	1293.803	974.762
105.060	13.237	1292.440	973.201
106.074	13.189	1291.068	971.796
107.089	13.112	1289.644	970.186
108.103	13.145	1288.533	969.461
109.118	13.128	1287.783	968.709
110.133	13.111	1286.093	967.251
111.147	13.081	1284.885	966.083
112.162	13.188	1283.443	965.542
113.176	13.210	1282.321	964.741
114.191	13.262	1281.294	964.186
115.206	13.228	1280.465	963.274
116.220	13.181	1278.933	961.764
117.235	13.111	1278.120	960.660
118.249	13.278	1276.526	960.352
119.264	13.123	1275.995	958.965
120.279	13.215	1274.736	958.467
121.293	13.196	1273.701	957.491
122.308	13.175	1272.394	956.304
123.322	13.170	1271.711	955.680
124.337	13.079	1271.050	954.571
125.352	13.130	1269.431	953.565
126.366	13.076	1268.441	952.428
127.381	13.069	1267.571	951.650
128.395	13.083	1266.546	950.873
129.410	13.237	1265.274	950.722
130.424	13.141	1264.612	949.590
131.439	13.083	1264.019	948.726
132.454	13.115	1262.705	947.838
133.468	13.181	1261.555	947.268
134.483	13.123	1261.379	946.722
135.497	13.288	1259.899	946.473
136.512	13.171	1258.722	944.834
137.527	13.153	1257.688	943.871
138.541	13.201	1255.749	942.609
139.556	13.305	1254.503	942.184
140.570	13.400	1253.154	941.625
141.585	13.392	1252.251	940.817
142.600	13.354	1251.196	939.727
143.614	13.287	1250.883	939.030
144.629	13.273	1249.869	938.103
145.643	13.399	1248.236	937.511
146.658	13.256	1247.212	935.848
147.673	13.360	1245.678	935.202
148.687	13.398	1244.364	934.348
149.702	13.301	1242.937	932.645
150.716	13.230	1241.643	931.194
151.731	13.338	1240.800	931.088
152.746	13.348	1239.488	930.076
153.760	13.349	1238.166	929.005
154.775	13.367	1236.881	928.062
155.789	13.394	1235.946	927.432
156.804	13.548	1234.880	927.408
157.819	13.455	1233.977	926.128
158.833	13.571	1232.894	925.882
159.848	13.577	1232.279	925.373
160.862	13.480	1231.342	924.047
161.877	13.554	1229.711	923.155
162.892	13.349	1229.190	921.540
163.906	13.422	1227.849	920.858
164.921	13.451	1227.359	920.570
165.935	13.499	1226.323	919.976
166.950	13.576	1225.351	919.594
167.964	13.520	1224.772	918.770
168.979	13.546	1223.984	918.241
169.994	13.580	1223.821	918.222
171.008	13.531	1222.903	917.182
172.023	13.475	1221.780	915.952
173.037	13.563	1221.254	915.962
174.052	13.657	1220.239	915.635
175.067	13.527	1219.381	914.196
176.081	13.500	1218.356	913.195
177.096	13.560	1217.300	912.655
178.110	13.730	1215.856	912.425
179.125	13.639	1215.183	911.342
180.140	13.612	1213.847	910.110
181.154	13.535	1212.608	908.677
182.169	13.688	1211.170	908.361
183.183	13.678	1210.349	907.610
184.198	13.678	1209.014	906.529
185.213	13.733	1207.668	905.737
186.227	13.732	1207.082	905.214
187.242	13.829	1205.858	904.742
188.256	13.828	1204.661	903.759
189.271	13.787	1203.867	902.859
190.286	13.782	1202.723	901.894
191.300	13.605	1201.677	900.072
192.315	13.557	1201.321	899.463
193.329	13.661	1200.595	899.404
194.344	13.643	1200.129	898.879
195.359	13.758	1199.612	899.033
196.373	13.771	1199.382	898.855
197.388	13.841	1198.197	898.266
198.402	13.998	1197.819	898.753
199.417	14.017	1196.738	897.964
200.432	14.069	1195.901	897.536
201.446	14.214	1194.842	897.442
202.461	14.160	1194.218	896.603
203.475	14.009	1193.673	895.300
204.490	14.020	1192.006	894.035
205.504	13.960	1191.163	892.999
206.519	14.048	1189.493	892.142
207.534	14.091	1188.528	891.567
208.548	13.877	1188.268	890.149
209.563	13.963	1187.347	889.840
210.577	14.053	1186.245	889.418
211.592	14.046	1185.315	888.600
212.607	14.115	1184.529	888.306
213.621	14.175	1183.637	887.876
214.636	14.108	1182.863	886.859
215.650	14.176	1181.787	886.334
216.665	14.175	1180.851	885.550
217.680	14.294	1180.176	885.600
218.694	14.260	1178.979	884.440
219.709	14.342	1178.250	884.251
220.723	14.252	1177.496	883.129
221.738	14.274	1177.107	882.877
222.753	14.201	1176.457	881.927
223.767	14.309	1175.406	881.629
224.782	14.350	1174.877	881.372
225.796	14.316	1174.480	880.819
226.811	14.440	1173.214	880.447
227.826	14.397	1172.670	879.732
228.840	14.365	1171.897	878.903
229.855	14.441	1171.130	878.652
230.869	14.435	1170.279	877.905
231.884	14.438	1169.097	876.956
232.899	14.217	1168.946	875.601
233.913	14.265	1168.463	875.416
234.928	14.304	1167.832	875.073
235.942	14.289	1166.515	873.928
236.957	14.354	1166.120	873.895
237.972	14.448	1165.307	873.703
238.986	14.389	1164.847	872.969
240.001	14.385	1163.890	872.156
241.015	14.474	1162.686	871.639
242.030	14.476	1161.848	870.945
243.045	14.437	1161.611	870.485
244.059	14.545	1160.630	870.240
245.074	14.434	1160.031	869.134
246.088	14.545	1159.098	868.938
247.103	14.480	1158.270	867.899
248.117	14.549	1157.851	867.869
249.132	14.710	1156.897	867.913
250.147	14.630	1156.406	867.056
251.161	14.741	1155.455	866.838
252.176	14.681	1154.736	865.913
253.190	14.845	1153.976	866.114
254.205	14.720	1153.974	865.389
255.220	14.879	1152.975	865.389
256.234	14.833	1152.216	864.501
257.249	14.902	1151.431	864.192
258.263	14.964	1150.502	863.738
259.278	14.878	1150.333	863.093
260.293	14.956	1150.036	863.197
261.307	14.905	1149.225	862.247
262.322	14.991	1148.543	862.104
263.336	14.940	1147.929	861.305
264.351	15.040	1147.391	861.339
265.366	14.982	1146.786	860.511
266.380	15.056	1145.902	860.152
267.395	15.131	1145.028	859.803
268.409	15.087	1143.988	858.721
269.424	14.984	1143.773	857.955
270.439	15.083	1143.273	858.011
271.453	14.997	1142.629	857.012
272.468	15.015	1141.486	856.169
273.482	15.038	1140.859	855.741
274.497	15.028	1140.149	855.085
275.512	15.017	1139.261	854.284
276.526	15.079	1138.698	854.104
277.541	15.147	1138.290	854.070
278.555	15.163	1137.242	853.288
279.570	15.137	1136.857	852.793
280.585	15.243	1135.890	852.528
281.599	15.304	1134.937	852.052
282.614	15.200	1134.025	850.763
283.628	15.225	1132.662	849.788
284.643	15.221	1132.104	849.279
285.657	15.310	1130.975	848.806
286.672	15.244	1130.742	848.218
287.687	15.333	1129.602	847.738
288.701	15.373	1128.744	847.225
289.716	15.283	1128.135	846.238
290.730	15.355	1126.925	845.616
291.745	15.370	1126.551	845.337
292.760	15.313	1126.000	844.562
293.774	15.421	1125.541	844.690
294.789	15.464	1124.807	844.277
295.803	15.468	1124.009	843.623
296.818	15.426	1123.160	842.701
297.833	15.487	1122.150	842.176
298.847	15.384	1121.876	841.376
299.862	15.472	1120.722	840.878
300.876	15.447	1120.649	840.624
301.891	15.463	1119.663	839.890
302.906	15.542	1118.878	839.625
303.920	15.502	1118.395	838.985
304.935	15.656	1117.205	838.789
305.949	15.732	1116.523	838.580
306.964	15.674	1116.284	838.037
307.979	15.708	1115.370	837.449
308.993	15.586	1114.734	836.286
310.008	15.735	1114.105	836.483
311.022	15.627	1113.602	835.496
312.037	15.772	1111.972	834.919
313.052	15.600	1111.628	833.732
314.066	15.655	1110.225	832.877
315.081	15.629	1109.726	832.299
316.095	15.596	1108.603	831.224
317.110	15.655	1108.193	831.134
318.125	15.697	1107.246	830.555
319.139	15.777	1106.654	830.432
320.154	15.676	1106.071	829.423
321.168	15.629	1105.719	828.858
322.183	15.652	1105.418	828.671
323.197	15.698	1104.269	827.961
324.212	15.756	1103.645	827.705
325.227	15.672	1103.178	826.867
326.241	15.811	1102.543	827.006
327.256	15.763	1101.498	825.910
328.270	15.768	1100.906	825.421
329.285	15.735	1099.859	824.399
330.300	15.866	1098.761	824.143
331.314	15.812	1097.839	823.115
332.329	15.777	1097.384	822.528
333.343	15.857	1096.432	822.136
334.358	15.831	1095.472	821.217
335.373	15.879	1094.665	820.774
336.387	15.828	1094.293	820.174
337.402	15.903	1093.416	819.807
338.416	15.973	1092.766	819.586
339.431	15.949	1092.236	819.003
340.446	16.058	1091.639	819.010
341.460	16.129	1090.701	818.581
342.475	16.076	1089.961	817.695
343.489	16.071	1088.935	816.826
344.504	16.231	1088.085	816.891
345.519	16.211	1087.289	816.128
346.533	16.236	1086.662	815.702
347.548	16.235	1085.826	814.999
348.562	16.206	1084.982	814.155
349.577	16.148	1084.508	813.444
350.592	16.193	1083.767	813.037
351.606	16.242	1082.737	812.428
352.621	16.143	1082.312	811.557
353.635	16.188	1081.633	811.196
354.650	16.136	1080.946	810.357
355.665	16.228	1079.898	809.942
356.679	16.135	1079.833	809.377
357.694	16.196	1079.290	809.189
358.708	16.163	1078.705	808.520
359.723	16.246	1077.853	808.206
360.738	16.250	1077.040	807.545
361.752	16.387	1076.466	807.699
362.767	16.430	1075.948	807.446
363.781	16.291	1075.613	806.461
364.796	16.344	1074.968	806.156
365.810	16.580	1073.978	806.468
366.825	16.560	1073.512	805.950
367.840	16.592	1072.797	805.496
368.854	16.538	1072.076	804.624
369.869	16.516	1071.746	804.203
370.883	16.510	1070.959	803.513
371.898	16.509	1070.278	802.925
372.913	16.496	1069.694	802.355
373.927	16.614	1068.850	802.211
374.942	16.614	1068.578	801.936
375.956	16.720	1067.965	801.904
376.971	16.752	1067.282	801.474
377.986	16.701	1066.702	800.728
379.000	16.751	1066.355	800.632
380.015	16.738	1065.817	800.095
381.029	16.682	1065.349	799.410
382.044	16.794	1064.365	799.126
383.059	16.884	1063.343	798.712
384.073	16.795	1062.836	797.845
385.088	16.797	1061.980	797.138
386.102	16.822	1060.693	796.220
387.117	16.768	1059.850	795.265
388.132	16.656	1059.304	794.255
389.146	16.680	1058.485	793.688
390.161	16.774	1057.585	793.383
391.175	16.806	1056.863	792.920
392.190	16.912	1056.266	792.895
393.205	16.876	1055.261	791.905
394.219	16.975	1054.854	791.989
395.234	16.949	1053.645	790.890
396.248	16.828	1053.028	789.793
397.263	16.774	1052.020	788.717
398.278	16.846	1051.231	788.392
399.292	16.969	1050.353	788.236
400.307	16.842	1050.058	787.355
401.321	16.901	1048.909	786.698
402.336	16.863	1048.671	786.273
403.350	16.890	1047.985	785.811
404.365	16.847	1047.404	785.106
405.380	16.957	1046.668	784.996
406.394	16.996	1045.824	784.476
407.409	16.876	1045.496	783.605
408.423	17.142	1044.106	783.720
409.438	17.124	1043.346	782.998
410.453	17.008	1043.237	782.313
411.467	17.243	1042.295	782.617
412.482	17.151	1041.549	781.567
413.496	17.205	1040.940	781.289
414.511	17.226	1040.039	780.641
415.526	17.311	1040.085	780.994
416.540	17.349	1039.771	780.864
417.555	17.283	1039.105	779.991
418.569	17.347	1038.510	779.772
419.584	17.369	1038.131	779.516
420.599	17.312	1037.601	778.788
421.613	105.252	1324.489	1478.514
422.628	96.545	1366.256	1478.624
