DTS Sentinel unit serial number:	SN413079Multiplexer serial number:	ORYXHardware model number:	OX4-SRSoftware version number:	ORYX F/W v4.00 Oryx Data Collector v3.7.2.0data status	okinstallation	princeton_trtdifferential loss correction	single-endedforward channel	channel 2reverse channel	N/Adate	2019/09/18time	20:23:34forward acquisition time	60.00reverse acquisition time	0.00gamma	496.2192k internal	0.2336k external	0.2336temperature offset calibration	1.0023default loss term (dB/km)	0.3790temperature slope calibration	1.0000multiplexer offset coefficient	1.0000multiplexer slope coefficient	1.0000fibre end	0.00T internal ref (°C)	28.70T ext. ref 1 (°C)	0.88T ext. ref 2 (°C)	19.46length (m)	temperature (°C)	Stokes	anti-Stokes-747.200	-36.227	-0.109	0.059
-746.185	93.048	-0.330	0.374
-745.171	736.203	0.086	0.233
-744.156	378.678	-0.139	-0.285
-743.142	-162.572	-0.252	0.012
-742.127	-124.608	-0.240	-0.037
-741.112	583.454	-0.060	-0.148
-740.098	4.454	-0.107	0.079
-739.083	-42.842	-0.096	-0.049
-738.069	-200.000	0.028	0.244
-737.054	-15.734	0.094	-0.060
-736.039	-105.983	0.113	0.025
-735.025	370.152	-0.062	0.125
-734.010	578.166	0.019	-0.047
-732.996	303.897	-0.142	-0.264
-731.981	2.870	-0.291	-0.212
-730.966	553.587	0.034	0.081
-729.952	0.837	-0.214	0.154
-728.937	6.112	0.124	0.092
-727.923	800.000	-0.139	-0.495
-726.908	136.384	0.189	0.247
-725.894	86.040	-0.205	-0.227
-724.879	-200.000	0.050	0.237
-723.864	316.569	-0.053	-0.100
-722.850	-43.484	0.229	-0.116
-721.835	-200.000	0.002	-0.258
-720.821	-135.173	-0.369	0.045
-719.806	-41.997	0.066	-0.034
-718.791	-200.000	0.056	0.339
-717.777	276.799	-0.054	0.097
-716.762	800.000	0.043	-0.130
-715.748	-182.741	-0.230	-0.004
-714.733	-124.351	-0.102	0.016
-713.718	27.637	0.243	-0.205
-712.704	4.787	0.212	-0.156
-711.689	800.000	0.059	-0.227
-710.675	-45.578	-0.216	-0.107
-709.660	-94.522	0.139	-0.038
-708.645	-43.840	-0.125	-0.063
-707.631	111.740	-0.069	0.083
-706.616	257.786	-0.174	-0.301
-705.602	24.573	-0.106	0.088
-704.587	51.676	0.159	-0.152
-703.572	-80.224	0.140	0.047
-702.558	-200.000	0.010	0.147
-701.543	643.481	0.104	0.265
-700.529	-200.000	0.021	-0.245
-699.514	151.339	-0.113	0.154
-698.499	-124.252	0.215	-0.034
-697.485	-200.000	-0.018	-0.311
-696.470	42.079	0.111	0.101
-695.456	-7.331	-0.317	-0.215
-694.441	-200.000	0.002	-0.025
-693.426	800.000	-0.045	0.158
-692.412	-117.825	0.199	-0.036
-691.397	91.179	-0.118	-0.132
-690.383	23.030	-0.140	0.115
-689.368	147.717	-0.142	0.192
-688.354	89.998	-0.239	-0.268
-687.339	800.000	0.116	-0.500
-686.324	-24.280	0.279	-0.167
-685.310	800.000	0.048	0.141
-684.295	-200.000	0.042	-0.242
-683.281	512.196	-0.140	-0.326
-682.266	339.131	-0.156	-0.304
-681.251	800.000	0.045	-0.134
-680.237	-96.337	0.205	0.054
-679.222	33.105	-0.022	-0.019
-678.208	800.000	-0.099	0.281
-677.193	-111.859	-0.290	-0.059
-676.178	-77.199	0.172	0.060
-675.164	800.000	-0.121	-0.500
-674.149	71.047	-0.228	0.237
-673.135	196.290	-0.181	-0.276
-672.120	800.000	-0.031	0.101
-671.105	-87.456	-0.073	0.022
-670.091	-45.176	-0.356	-0.177
-669.076	20.080	-0.221	-0.178
-668.062	284.110	-0.147	0.264
-667.047	800.000	-0.017	0.059
-666.032	-140.881	-0.165	-0.017
-665.018	-5.069	0.161	0.111
-664.003	43.622	-0.235	0.216
-662.989	19.340	-0.138	-0.111
-661.974	-200.000	0.018	0.205
-660.959	-1.904	0.217	0.153
-659.945	-124.652	0.296	0.046
-658.930	-33.426	0.091	-0.050
-657.916	-93.248	-0.336	0.093
-656.901	-107.108	-0.395	0.087
-655.886	384.514	-0.071	-0.146
-654.872	472.622	-0.126	0.285
-653.857	45.575	-0.156	0.144
-652.843	800.000	-0.038	0.124
-651.828	70.515	-0.135	0.139
-650.814	-46.807	0.195	0.096
-649.799	-200.000	0.068	0.576
-648.784	-200.000	0.039	-0.278
-647.770	40.490	0.311	0.280
-646.755	-200.000	-0.024	0.122
-645.741	-98.391	0.137	0.035
-644.726	-124.553	0.302	0.047
-643.711	-87.378	0.390	-0.118
-642.697	-200.000	0.022	0.383
-641.682	432.692	-0.068	-0.147
-640.668	-66.787	0.098	0.039
-639.653	104.177	-0.254	0.299
-638.638	-61.713	0.278	-0.117
-637.624	456.398	0.219	0.486
-636.609	-83.069	0.310	0.100
-635.595	-29.951	-0.273	-0.155
-634.580	460.932	-0.054	-0.121
-633.565	800.000	-0.039	0.134
-632.551	59.805	0.211	0.208
-631.536	-200.000	-0.036	-0.205
-630.522	-87.682	-0.374	-0.113
-629.507	244.623	0.151	0.254
-628.492	800.000	-0.093	-0.307
-627.478	-39.515	-0.013	-0.007
-626.463	-2.291	-0.097	0.068
-625.449	-102.403	0.049	0.012
-624.434	-200.000	-0.083	0.379
-623.419	-125.008	-0.368	-0.057
-622.405	-200.000	0.075	0.332
-621.390	158.292	0.026	0.037
-620.376	161.880	0.126	0.176
-619.361	96.686	0.140	0.160
-618.346	155.794	-0.204	-0.281
-617.332	157.941	-0.081	0.112
-616.317	-40.743	0.323	-0.167
-615.303	181.676	-0.162	-0.238
-614.288	-83.053	0.153	0.049
-613.273	-200.000	0.011	0.340
-612.259	-132.671	0.009	-0.001
-611.244	0.426	-0.027	-0.019
-610.230	113.116	0.138	-0.167
-609.215	-200.000	-0.072	0.374
-608.201	256.109	0.086	-0.147
-607.186	-117.306	-0.313	0.057
-606.171	-148.514	0.133	-0.011
-605.157	0.670	0.390	-0.279
-604.142	-200.000	-0.035	-0.158
-603.128	0.427	0.235	-0.168
-602.113	83.159	0.292	0.318
-601.098	-58.099	-0.082	0.036
-600.084	-200.000	-0.017	0.174
-599.069	-133.482	-0.163	-0.020
-598.055	-200.000	0.018	0.295
-597.040	800.000	-0.140	0.577
-596.025	-200.000	-0.017	0.196
-595.011	216.305	0.086	-0.137
-593.996	84.441	-0.051	0.056
-592.982	-108.118	-0.344	-0.074
-591.967	-166.891	0.173	0.007
-590.952	-58.446	0.152	-0.066
-589.938	-200.000	-0.015	0.113
-588.923	-111.848	-0.439	0.089
-587.909	14.330	0.284	-0.221
-586.894	26.873	-0.244	0.204
-585.879	-76.748	-0.093	-0.032
-584.865	800.000	-0.101	0.309
-583.850	-63.431	0.296	0.121
-582.836	-99.721	0.286	0.072
-581.821	-71.629	0.225	-0.084
-580.806	20.672	-0.170	0.137
-579.792	207.439	-0.046	0.072
-578.777	220.076	0.251	-0.402
-577.763	238.835	-0.220	-0.366
-576.748	388.087	0.082	-0.170
-575.733	217.830	0.137	-0.218
-574.719	72.390	0.046	-0.047
-573.704	-93.487	-0.172	0.047
-572.690	14.572	-0.094	-0.073
-571.675	-200.000	0.084	-0.546
-570.661	-200.000	-0.001	0.108
-569.646	-61.460	0.212	0.089
-568.631	181.308	-0.058	-0.085
-567.617	800.000	0.089	-0.268
-566.602	-39.478	-0.208	0.109
-565.588	173.510	0.127	0.182
-564.573	800.000	0.074	-0.247
-563.558	62.358	-0.242	-0.241
-562.544	-200.000	0.041	-0.200
-561.529	800.000	0.094	-0.285
-560.515	-200.000	-0.008	0.038
-559.500	-111.368	-0.095	-0.019
-558.485	800.000	0.071	-0.215
-557.471	35.236	-0.124	0.108
-556.456	2.359	0.085	0.062
-555.442	296.411	0.120	0.219
-554.427	118.692	0.127	0.156
-553.412	1.470	-0.229	0.164
-552.398	800.000	-0.030	-0.101
-551.383	-130.587	0.314	0.042
-550.369	504.064	-0.016	-0.038
-549.354	114.115	-0.239	0.290
-548.339	800.000	-0.060	-0.193
-547.325	68.535	-0.092	0.094
-546.310	-200.000	-0.042	-0.252
-545.296	588.615	-0.147	0.361
-544.281	62.827	-0.117	0.117
-543.266	352.726	0.057	0.112
-542.252	-200.000	-0.102	-0.450
-541.237	-77.955	0.185	0.064
-540.223	13.804	0.199	0.154
-539.208	64.840	-0.133	-0.134
-538.193	800.000	0.020	-0.073
-537.179	800.000	-0.056	-0.154
-536.164	145.972	0.237	0.317
-535.150	800.000	0.038	-0.104
-534.135	-66.465	-0.300	-0.119
-533.121	-14.415	0.151	0.097
-532.106	23.540	0.289	0.237
-531.091	-22.570	-0.191	-0.115
-530.077	-110.114	-0.483	-0.101
-529.062	186.905	0.160	0.238
-528.048	-83.663	0.182	-0.058
-527.033	800.000	-0.121	-0.338
-526.018	178.310	-0.155	-0.226
-525.004	-111.756	-0.197	-0.040
-523.989	-39.222	-0.141	0.074
-522.975	183.249	0.203	-0.299
-521.960	-200.000	-0.011	0.258
-520.945	85.560	0.136	0.148
-519.931	211.515	0.203	-0.319
-518.916	289.974	-0.071	-0.128
-517.902	-200.000	0.005	-0.235
-516.887	-200.000	0.016	-0.142
-515.872	-1.463	0.230	-0.161
-514.858	-104.625	-0.365	-0.084
-513.843	59.130	-0.282	-0.276
-512.829	48.395	0.093	-0.087
-511.814	-180.887	-0.168	-0.003
-510.799	58.337	-0.113	0.110
-509.785	-156.809	-0.320	0.020
-508.770	725.739	0.098	0.261
-507.756	44.640	-0.241	0.221
-506.741	732.609	0.025	0.067
-505.726	-60.429	-0.142	-0.060
-504.712	25.603	-0.276	-0.229
-503.697	25.558	0.179	-0.148
-502.683	-3.578	-0.154	0.106
-501.668	-92.348	0.098	-0.027
-500.653	-200.000	0.026	-0.174
-499.639	-90.205	0.254	-0.074
-498.624	800.000	-0.179	0.577
-497.610	-71.761	0.305	0.113
-496.595	-149.888	-0.031	-0.002
-495.581	-59.632	0.339	0.144
-494.566	1.698	-0.184	0.132
-493.551	-200.000	0.004	-0.128
-492.537	-200.000	0.023	0.136
-491.522	-43.706	0.112	0.056
-490.508	20.761	-0.108	-0.087
-489.493	-58.752	0.106	-0.045
-488.478	-167.371	-0.160	-0.006
-487.464	-200.000	0.052	0.334
-486.449	420.570	-0.109	0.231
-485.435	-151.139	0.467	-0.035
-484.420	-100.078	-0.135	-0.034
-483.405	225.974	0.039	-0.063
-482.391	100.413	-0.096	-0.111
-481.376	-200.000	-0.029	0.187
-480.362	-200.000	0.015	0.153
-479.347	-64.010	0.175	-0.071
-478.332	-53.458	-0.191	-0.087
-477.318	-200.000	-0.002	0.056
-476.303	-177.177	0.463	-0.011
-475.289	-60.249	0.041	-0.017
-474.274	-113.897	0.176	-0.034
-473.259	-200.000	-0.009	0.443
-472.245	124.754	-0.179	0.224
-471.230	127.222	0.113	0.142
-470.216	46.990	0.315	0.291
-469.201	11.550	-0.255	0.194
-468.186	-93.149	0.351	0.097
-467.172	800.000	0.019	-0.073
-466.157	-200.000	0.041	-0.330
-465.143	160.002	0.105	-0.145
-464.128	7.298	-0.218	-0.162
-463.113	375.662	0.153	-0.309
-462.099	-14.533	0.074	0.047
-461.084	-4.263	0.039	0.027
-460.070	317.238	-0.023	-0.043
-459.055	-70.464	-0.299	-0.113
-458.040	-130.421	0.131	-0.018
-457.026	-15.154	-0.121	0.077
-456.011	68.985	0.147	-0.150
-454.997	800.000	0.023	0.080
-453.982	-95.865	0.348	-0.092
-452.968	64.631	-0.075	0.075
-451.953	0.973	0.112	-0.080
-450.938	-171.062	0.230	0.008
-449.924	-200.000	-0.009	-0.103
-448.909	69.667	0.162	-0.166
-447.895	-200.000	-0.052	0.325
-446.880	-149.835	0.120	-0.009
-445.865	-62.695	-0.497	-0.205
-444.851	527.847	0.169	-0.395
-443.836	237.973	0.140	-0.231
-442.822	206.525	-0.034	-0.053
-441.807	-52.947	-0.182	-0.083
-440.792	-130.198	-0.397	0.054
-439.778	-100.883	0.113	-0.027
-438.763	-147.743	0.241	0.020
-437.749	-138.344	-0.133	-0.015
-436.734	526.659	0.098	0.230
-435.719	-180.582	-0.412	0.008
-434.705	5.093	0.099	-0.072
-433.690	-95.255	0.232	-0.062
-432.676	353.000	-0.149	0.293
-431.661	-26.489	0.200	-0.117
-430.646	-44.707	-0.187	-0.093
-429.632	-0.173	-0.060	0.042
-428.617	-78.209	0.330	-0.112
-427.603	203.129	-0.237	0.364
-426.588	-56.727	-0.178	-0.078
-425.573	503.310	-0.075	-0.172
-424.559	271.704	0.095	-0.166
-423.544	-43.711	0.306	-0.153
-422.530	-19.056	0.288	-0.177
-421.515	-8.334	0.223	-0.149
-420.500	-200.000	-0.007	0.302
-419.486	219.105	-0.168	0.266
-418.471	-21.589	0.255	0.154
-417.457	-119.906	0.220	-0.038
-416.442	-112.431	-0.271	-0.054
-415.428	-109.864	-0.236	0.049
-414.413	-87.269	0.076	0.023
-413.398	703.541	0.048	-0.125
-412.384	36.993	-0.089	-0.078
-411.369	-200.000	-0.005	-0.151
-410.355	507.644	-0.073	0.167
-409.340	68.102	0.139	0.141
-408.325	-200.000	-0.024	0.170
-407.311	181.844	-0.178	0.260
-406.296	-200.000	-0.021	-0.222
-405.282	-160.721	0.370	-0.019
-404.267	-178.427	-0.224	-0.005
-403.252	59.646	-0.075	0.073
-402.238	-108.633	-0.109	-0.023
-401.223	-58.988	-0.262	-0.112
-400.209	-200.000	-0.004	-0.268
-399.194	-104.985	0.243	-0.055
-398.179	5.853	-0.088	0.065
-397.165	114.841	0.194	0.235
-396.150	284.708	0.076	-0.136
-395.136	-68.046	0.154	-0.059
-394.121	-41.981	-0.258	0.131
-393.106	800.000	-0.049	0.207
-392.092	366.443	-0.145	0.290
-391.077	-89.110	-0.103	0.030
-390.063	126.748	0.123	-0.154
-389.048	79.575	-0.054	0.057
-388.033	-200.000	0.006	-0.274
-387.019	162.217	0.081	0.112
-386.004	122.868	-0.185	0.229
-384.990	-200.000	-0.002	-0.093
-383.975	3.704	0.092	-0.066
-382.960	29.468	-0.068	0.057
-381.946	800.000	-0.092	-0.316
-380.931	800.000	-0.050	-0.146
-379.917	-200.000	-0.030	0.136
-378.902	350.477	-0.123	-0.241
-377.888	-200.000	0.033	-0.204
-376.873	-200.000	-0.028	-0.160
-375.858	-114.517	0.174	0.033
-374.844	-166.169	0.199	-0.008
-373.829	-91.830	-0.123	-0.035
-372.815	-200.000	0.003	0.156
-371.800	-95.315	-0.262	0.070
-370.785	-130.879	0.153	0.020
-369.771	-200.000	0.025	-0.152
-368.756	-67.466	-0.135	0.052
-367.742	-200.000	-0.004	0.034
-366.727	800.000	-0.013	0.036
-365.712	458.546	-0.030	-0.066
-364.698	66.939	0.191	-0.192
-363.683	-68.665	0.435	0.167
-362.669	105.055	0.239	-0.279
-361.654	465.060	0.065	-0.144
-360.639	-149.442	-0.138	-0.011
-359.625	-74.437	-0.159	-0.057
-358.610	-34.755	-0.148	0.080
-357.596	479.269	0.078	-0.176
-356.581	-200.000	0.030	-0.179
-355.566	301.150	-0.089	-0.163
-354.552	-200.000	-0.038	-0.263
-353.537	-200.000	0.003	0.230
-352.523	-150.051	-0.135	-0.010
-351.508	110.879	-0.199	0.237
-350.493	-50.943	-0.202	0.094
-349.479	-200.000	0.005	0.180
-348.464	800.000	-0.115	-0.411
-347.450	114.883	-0.309	-0.372
-346.435	36.706	-0.168	-0.146
-345.420	-196.623	-0.242	-0.002
-344.406	-37.835	0.133	-0.070
-343.391	-174.525	-0.137	0.004
-342.377	-153.154	0.203	0.014
-341.362	432.821	0.126	-0.271
-340.348	-31.900	-0.265	0.147
-339.333	-71.060	0.226	0.084
-338.318	314.602	0.095	0.176
-337.304	15.685	0.145	0.112
-336.289	800.000	0.070	-0.277
-335.275	-135.604	0.255	0.030
-334.260	65.501	-0.311	-0.312
-333.245	-200.000	-0.002	-0.190
-332.231	378.150	0.068	0.138
-331.216	-136.796	-0.388	-0.044
-330.202	-112.009	0.238	0.047
-329.187	-88.698	-0.151	0.045
-328.172	69.004	-0.171	0.173
-327.158	-145.600	-0.471	0.042
-326.143	800.000	-0.066	-0.214
-325.129	-200.000	0.037	0.217
-324.114	428.196	-0.016	0.035
-323.099	-200.000	0.027	0.170
-322.085	340.864	-0.245	-0.474
-321.070	-73.273	0.242	-0.087
-320.056	-57.169	-0.219	-0.095
-319.041	-10.470	-0.385	-0.252
-318.026	327.510	-0.044	0.083
-317.012	-200.000	-0.004	-0.197
-315.997	384.697	-0.134	-0.272
-314.983	309.349	0.117	0.215
-313.968	-89.062	-0.212	-0.062
-312.953	60.134	0.084	0.082
-311.939	162.014	0.082	-0.114
-310.924	37.678	-0.447	-0.392
-309.910	390.485	0.067	0.137
-308.895	759.172	-0.127	0.340
-307.880	58.322	0.197	0.191
-306.866	-102.695	-0.072	-0.017
-305.851	605.437	0.064	0.158
-304.837	-74.818	-0.321	0.114
-303.822	-200.000	-0.048	-0.255
-302.807	800.000	0.043	0.184
-301.793	-200.000	-0.032	0.292
-300.778	-50.288	0.290	0.135
-299.764	61.067	0.161	-0.158
-298.749	-143.929	-0.188	-0.017
-297.735	-200.000	-0.010	-0.055
-296.720	-49.275	0.135	0.064
-295.705	426.622	0.112	-0.237
-294.691	34.846	0.132	0.114
-293.676	-82.541	-0.219	0.070
-292.662	-63.553	0.215	0.087
-291.647	143.450	-0.313	0.411
-290.632	-200.000	-0.017	-0.149
-289.618	-22.636	0.201	-0.120
-288.603	77.277	0.165	0.173
-287.589	-63.926	0.052	-0.021
-286.574	-200.000	0.007	-0.146
-285.559	-11.416	-0.042	0.027
-284.545	-60.173	0.279	-0.117
-283.530	76.202	-0.180	0.188
-282.516	-157.374	0.072	-0.004
-281.501	-200.000	-0.043	0.277
-280.486	-19.551	0.136	-0.083
-279.472	-200.000	0.009	-0.195
-278.457	139.697	-0.055	0.072
-277.443	-164.540	-0.244	0.011
-276.428	651.871	0.103	-0.261
-275.413	-55.097	-0.176	0.078
-274.399	-130.911	-0.027	-0.004
-273.384	493.901	0.109	-0.247
-272.370	-17.680	-0.059	-0.037
-271.355	-200.000	0.031	-0.233
-270.340	-200.000	-0.014	0.080
-269.326	-152.293	-0.230	-0.016
-268.311	-200.000	0.011	-0.069
-267.297	-120.321	-0.166	-0.028
-266.282	323.073	-0.037	0.069
-265.267	164.662	-0.045	-0.063
-264.253	-84.553	-0.044	-0.014
-263.238	22.922	-0.188	0.152
-262.224	-200.000	0.007	-0.172
-261.209	341.433	0.024	0.047
-260.195	-121.292	-0.131	0.022
-259.180	-200.000	0.009	-0.057
-258.165	526.588	-0.055	-0.128
-257.151	101.265	-0.263	0.302
-256.136	-21.826	0.100	0.060
-255.122	-200.000	0.087	-0.545
-254.107	-26.348	-0.234	0.135
-253.092	-62.671	0.100	0.041
-252.078	128.891	0.125	0.157
-251.063	-167.769	0.161	-0.006
-250.049	-200.000	0.048	0.288
-249.034	800.000	0.078	-0.337
-248.019	-72.479	-0.331	-0.121
-247.005	-32.907	-0.393	0.215
-245.990	-200.000	-0.029	0.310
-244.976	12.568	0.192	-0.146
-243.961	-94.669	-0.247	-0.066
-242.946	-100.088	-0.206	0.051
-241.932	-200.000	-0.032	-0.167
-240.917	560.623	0.048	0.113
-239.903	41.483	-0.024	-0.021
-238.888	478.944	-0.094	0.210
-237.873	800.000	0.064	-0.176
-236.859	-200.000	-0.031	0.341
-235.844	23.762	-0.160	0.129
-234.830	90.808	-0.098	-0.108
-233.815	-63.366	-0.139	-0.056
-232.800	134.959	0.098	0.126
-231.786	800.000	-0.038	0.157
-230.771	-200.000	-0.001	-0.159
-229.757	151.898	0.164	-0.220
-228.742	31.129	-0.158	-0.133
-227.727	184.680	0.058	-0.085
-226.713	507.698	0.161	0.368
-225.698	49.186	-0.017	-0.016
-224.684	-200.000	0.000	0.114
-223.669	539.719	0.061	-0.142
-222.655	-124.588	-0.319	0.049
-221.640	-55.275	0.428	-0.189
-220.625	-200.000	-0.019	0.098
-219.611	123.048	-0.143	-0.176
-218.596	140.963	0.081	0.106
-217.582	-143.215	0.425	0.040
-216.567	-200.000	-0.085	-0.411
-215.552	134.943	0.027	-0.035
-214.538	800.000	0.118	0.359
-213.523	76.032	-0.148	0.154
-212.509	101.831	0.101	0.116
-211.494	800.000	0.028	-0.076
-210.479	-169.892	-0.340	0.012
-209.465	800.000	0.011	0.038
-208.450	800.000	-0.014	0.049
-207.436	116.285	0.141	0.170
-206.421	-102.519	-0.281	-0.066
-205.406	-73.767	0.178	-0.064
-204.392	-16.791	0.147	-0.092
-203.377	800.000	0.029	0.085
-202.363	105.337	-0.151	0.176
-201.348	-127.328	0.235	0.034
-200.333	610.806	0.066	-0.161
-199.319	21.571	0.232	-0.185
-198.304	6.213	-0.100	0.073
-197.290	800.000	0.090	-0.307
-196.275	-43.743	0.288	0.143
-195.260	-200.000	-0.026	0.419
-194.246	293.158	0.106	0.189
-193.231	-111.922	-0.100	-0.020
-192.217	72.943	0.159	0.164
-191.202	-103.636	-0.253	-0.058
-190.187	-200.000	-0.004	0.424
-189.173	173.168	-0.069	0.097
-188.158	-80.927	-0.320	0.104
-187.144	-121.734	0.080	0.013
-186.129	-104.565	0.261	0.059
-185.114	800.000	-0.084	0.332
-184.100	304.923	0.125	0.229
-183.085	604.178	-0.001	-0.002
-182.071	2.598	0.159	0.113
-181.056	-121.128	-0.197	-0.032
-180.042	800.000	0.022	-0.072
-179.027	58.556	-0.044	-0.043
-178.012	800.000	-0.020	-0.082
-176.998	498.085	-0.087	-0.196
-175.983	146.785	0.055	-0.072
-174.969	246.128	-0.099	0.164
-173.954	-200.000	0.008	-0.059
-172.939	325.611	-0.222	-0.417
-171.925	-161.385	-0.385	0.020
-170.910	-2.406	-0.081	-0.056
-169.896	-46.680	-0.092	0.044
-168.881	-200.000	-0.006	0.190
-167.866	-92.762	0.147	-0.041
-166.852	72.427	0.142	0.146
-165.837	156.909	0.169	0.230
-164.823	-25.090	0.143	-0.083
-163.808	24.814	-0.099	-0.081
-162.793	589.164	0.107	0.260
-161.779	717.140	0.163	-0.426
-160.764	-200.000	0.029	-0.324
-159.750	69.944	0.270	-0.273
-158.735	-110.031	0.214	-0.044
-157.720	-75.994	0.309	0.107
-156.706	33.872	-0.143	0.122
-155.691	-60.464	0.123	0.051
-154.677	-130.392	0.388	-0.052
-153.662	-16.029	-0.071	-0.044
-152.647	75.619	0.135	-0.140
-151.633	-200.000	0.009	0.071
-150.618	48.632	-0.105	-0.097
-149.604	-72.649	-0.357	-0.129
-148.589	-81.569	0.261	-0.084
-147.574	206.645	-0.047	-0.073
-146.560	-79.785	-0.065	-0.022
-145.545	-78.747	-0.144	0.048
-144.531	-43.090	0.219	-0.109
-143.516	-172.787	-0.224	-0.007
-142.502	-200.000	-0.093	0.433
-141.487	-52.808	-0.069	0.031
-140.472	340.710	0.073	0.140
-139.458	800.000	0.030	-0.098
-138.443	-200.000	-0.033	-0.183
-137.429	-16.042	-0.169	0.106
-136.414	-85.115	-0.203	-0.062
-135.399	-83.990	-0.160	-0.050
-134.385	-17.173	0.165	-0.102
-133.370	262.889	-0.104	0.178
-132.356	-119.344	0.290	-0.050
-131.341	-151.731	-0.300	-0.022
-130.326	800.000	-0.039	-0.156
-129.312	800.000	0.123	-0.469
-128.297	-90.329	0.187	-0.053
-127.283	800.000	-0.053	-0.185
-126.268	181.096	-0.036	-0.052
-125.253	200.935	-0.103	0.156
-124.239	5.708	0.219	0.159
-123.224	-138.065	0.408	0.044
-122.210	800.000	0.061	0.247
-121.195	-130.211	0.287	0.038
-120.180	34.466	-0.188	0.160
-119.166	-80.392	0.209	0.068
-118.151	-103.910	-0.284	-0.065
-117.137	77.745	0.135	-0.141
-116.122	-119.611	0.157	-0.027
-115.107	483.810	0.089	0.197
-114.093	-134.844	0.241	-0.029
-113.078	151.364	0.105	0.140
-112.064	317.271	-0.016	-0.030
-111.049	-200.000	-0.007	0.076
-110.034	44.045	-0.042	-0.037
-109.020	-200.000	0.011	0.145
-108.005	21.624	0.422	0.336
-106.991	619.696	0.075	0.185
-105.976	104.141	-0.113	-0.131
-104.962	-123.542	0.227	-0.035
-103.947	-50.575	-0.126	-0.058
-102.932	13.270	0.258	-0.196
-101.918	-200.000	0.032	-0.202
-100.903	15.881	-0.247	-0.191
-99.889	-97.854	-0.112	0.028
-98.874	12.345	-0.224	0.169
-97.859	-200.000	0.069	-0.310
-96.845	-121.398	0.117	-0.019
-95.830	-2.633	-0.287	-0.197
-94.816	-102.217	-0.396	-0.093
-93.801	741.663	-0.158	0.415
-92.786	333.143	0.032	0.060
-91.772	73.570	-0.130	-0.133
-90.757	-200.000	-0.022	-0.116
-89.743	325.519	-0.117	0.220
-88.728	-200.000	-0.008	0.268
-87.713	-60.707	0.143	-0.059
-86.699	-151.998	0.310	-0.022
-85.684	-193.617	0.216	0.002
-84.670	-76.068	0.287	-0.099
-83.655	800.000	-0.015	-0.057
-82.640	-1.141	-0.167	0.116
-81.626	-200.000	-0.019	0.110
-80.611	26.009	-0.102	-0.084
-79.597	0.123	-0.232	-0.162
-78.582	186.060	-0.039	0.057
-77.567	800.000	-0.077	-0.273
-76.553	-200.000	0.023	-0.279
-75.538	-200.000	-0.002	0.250
-74.524	-71.819	0.175	0.064
-73.509	-182.606	-0.347	-0.006
-72.494	676.631	-0.095	0.242
-71.480	129.449	-0.123	0.154
-70.465	-170.686	-0.176	-0.006
-69.451	-200.000	0.031	0.224
-68.436	27.317	-0.109	0.090
-67.422	262.344	0.105	-0.178
-66.407	208.209	0.009	-0.014
-65.392	-103.708	0.231	0.053
-64.378	-200.000	-0.043	-0.418
-63.363	54.992	0.368	0.347
-62.349	-168.850	0.068	0.002
-61.334	89.415	-1.259	-1.373
-60.319	-137.645	0.764	0.084
-59.305	360.224	-0.463	-0.907
-58.290	569.425	0.574	1.364
-57.276	282.212	0.785	1.376
-56.261	-200.000	113.284	686.537
-55.246	526.513	1475.586	3398.800
-54.232	152.130	2643.478	3525.956
-53.217	100.954	2272.449	2583.802
-52.203	37.827	1894.095	1645.172
-51.188	31.828	1689.032	1421.670
-50.173	29.375	1647.177	1368.216
-49.159	51.788	1703.025	1583.997
-48.144	51.094	1717.009	1591.728
-47.130	31.710	1675.194	1408.909
-46.115	28.856	1661.471	1375.984
-45.100	28.628	1656.656	1370.240
-44.086	28.599	1654.014	1367.789
-43.071	28.542	1651.653	1365.357
-42.057	28.489	1649.747	1363.334
-41.042	28.540	1647.517	1361.813
-40.027	28.483	1645.908	1360.004
-39.013	28.559	1643.562	1358.575
-37.998	28.557	1642.147	1357.337
-36.984	28.519	1640.989	1356.044
-35.969	28.649	1639.061	1355.358
-34.954	28.629	1637.923	1354.215
-33.940	28.720	1635.587	1352.900
-32.925	28.711	1634.382	1351.789
-31.911	28.757	1632.220	1350.283
-30.896	28.711	1630.632	1348.577
-29.881	28.721	1629.138	1347.364
-28.867	28.716	1627.218	1345.686
-27.852	28.609	1626.368	1344.145
-26.838	28.727	1624.595	1343.491
-25.823	28.719	1623.343	1342.338
-24.809	28.694	1622.162	1341.128
-23.794	28.757	1620.394	1340.077
-22.779	28.732	1619.204	1338.853
-21.765	28.631	1618.072	1337.125
-20.750	28.647	1616.338	1335.762
-19.736	28.728	1614.636	1334.890
-18.721	28.815	1613.403	1334.444
-17.706	28.730	1611.712	1332.377
-16.692	28.694	1610.713	1331.239
-15.677	28.824	1608.763	1330.514
-14.663	28.813	1607.380	1329.242
-13.648	28.734	1606.610	1327.977
-12.633	28.840	1604.384	1326.852
-11.619	28.796	1603.584	1325.824
-10.604	28.718	1602.088	1323.968
-9.590	28.773	1600.872	1323.305
-8.575	28.754	1599.291	1321.812
-7.560	28.704	1598.810	1321.002
-6.546	28.742	1597.284	1319.960
-5.531	28.717	1596.484	1319.069
-4.517	28.725	1595.096	1317.924
-3.502	28.730	1594.456	1317.381
-2.487	28.800	1591.907	1315.725
-1.473	28.135	1579.298	1300.528
-0.458	24.157	1557.892	1254.887
0.556	18.550	1556.654	1213.320
1.571	15.547	1578.246	1208.468
2.586	14.798	1589.990	1211.918
3.600	13.587	1537.361	1163.207
4.615	7.935	1432.348	1046.595
5.629	2.153	1371.159	965.329
6.644	0.984	1364.088	952.917
7.659	0.898	1362.438	951.140
8.673	0.833	1362.006	950.343
9.688	0.825	1359.828	948.688
10.702	0.628	1356.908	945.339
11.717	3.376	1360.285	964.825
12.731	10.458	1370.624	1016.625
13.746	16.075	1378.754	1057.910
14.761	17.487	1379.705	1067.404
15.775	16.890	1377.865	1062.148
16.790	15.846	1375.567	1053.751
17.804	15.116	1372.875	1047.031
18.819	14.792	1371.336	1043.742
19.834	14.434	1370.642	1040.883
20.848	14.154	1369.614	1038.263
21.863	14.036	1367.562	1035.882
22.877	13.769	1366.428	1033.267
23.892	13.713	1365.932	1032.451
24.907	13.701	1365.163	1031.703
25.921	13.779	1363.833	1031.095
26.936	13.784	1363.518	1030.798
27.950	13.702	1362.553	1029.465
28.965	13.855	1361.298	1029.375
29.980	13.865	1360.584	1028.809
30.994	13.933	1359.521	1028.335
32.009	13.975	1358.393	1027.651
33.023	13.811	1358.087	1026.312
34.038	13.874	1356.539	1025.442
35.053	13.926	1354.805	1024.359
36.067	13.913	1353.965	1023.555
37.082	13.904	1353.088	1022.744
38.096	13.948	1351.884	1022.016
39.111	13.926	1351.620	1021.588
40.126	13.861	1350.477	1020.238
41.140	13.727	1350.231	1019.133
42.155	13.810	1349.215	1018.789
43.169	13.810	1349.292	1018.755
44.184	13.811	1348.381	1017.985
45.199	13.659	1348.639	1017.155
46.213	13.730	1348.103	1017.100
47.228	13.890	1346.907	1017.088
48.242	13.857	1345.517	1015.748
49.257	13.747	1344.702	1014.370
50.271	13.843	1342.697	1013.349
51.286	13.838	1341.963	1012.674
52.301	13.849	1340.298	1011.395
53.315	13.719	1339.550	1009.950
54.330	13.729	1338.273	1008.960
55.344	13.821	1337.201	1008.622
56.359	13.711	1336.580	1007.395
57.374	13.614	1335.379	1005.816
58.388	13.711	1334.693	1005.794
59.403	13.657	1334.442	1005.193
60.417	13.700	1333.071	1004.331
61.432	13.528	1333.006	1003.152
62.447	13.552	1331.694	1002.219
63.461	13.724	1329.851	1001.781
64.476	13.733	1328.838	1000.986
65.490	13.717	1327.933	1000.115
66.505	13.695	1326.262	998.636
67.520	13.725	1324.716	997.568
68.534	13.715	1324.241	997.062
69.549	13.708	1323.266	996.197
70.563	13.556	1322.275	994.450
71.578	13.664	1320.722	993.841
72.593	13.574	1319.993	992.662
73.607	13.496	1319.604	991.815
74.622	13.519	1318.549	991.077
75.636	13.632	1317.158	990.616
76.651	13.577	1316.764	989.902
77.666	13.602	1316.437	989.718
78.680	13.561	1316.014	989.067
79.695	13.559	1315.195	988.352
80.709	13.603	1313.655	987.371
81.724	13.651	1313.055	987.118
82.739	13.738	1311.852	986.648
83.753	13.804	1310.675	986.063
84.768	13.823	1309.939	985.537
85.782	13.723	1309.302	984.378
86.797	13.841	1307.710	983.794
87.812	13.795	1306.326	982.393
88.826	13.733	1305.309	981.176
89.841	13.755	1304.436	980.561
90.855	13.783	1303.714	980.099
91.870	13.877	1302.468	979.629
92.884	13.830	1301.657	978.652
93.899	13.866	1300.588	977.977
94.914	13.894	1299.765	977.433
95.928	13.877	1299.033	976.700
96.943	13.866	1298.152	975.885
97.957	13.846	1297.630	975.288
98.972	13.987	1295.951	974.769
99.987	13.805	1295.486	973.264
101.001	13.795	1294.428	972.326
102.016	13.855	1293.550	971.933
103.030	13.913	1292.509	971.403
104.045	13.785	1291.584	969.873
105.060	13.812	1290.262	968.950
106.074	13.773	1289.095	967.762
107.089	13.797	1287.529	966.643
108.103	13.787	1286.327	965.597
109.118	13.753	1285.373	964.598
110.133	13.638	1284.091	962.882
111.147	13.778	1282.231	962.213
112.162	13.793	1281.613	961.752
113.176	13.809	1280.206	960.699
114.191	13.778	1279.265	959.731
115.206	13.848	1277.835	958.979
116.220	13.830	1276.610	957.867
117.235	13.847	1275.662	957.173
118.249	13.750	1274.606	955.738
119.264	13.839	1273.373	955.238
120.279	13.720	1272.366	953.713
121.293	13.796	1271.499	953.417
122.308	13.830	1270.285	952.619
123.322	13.854	1269.565	952.129
124.337	13.728	1268.416	950.462
125.352	13.810	1266.692	949.555
126.366	13.741	1266.319	948.797
127.381	13.703	1265.234	947.685
128.395	13.770	1263.860	946.954
129.410	13.833	1262.995	946.579
130.424	13.835	1262.632	946.234
131.439	13.804	1261.494	945.122
132.454	13.788	1260.618	944.294
133.468	13.935	1259.195	943.980
134.483	13.821	1258.884	943.014
135.497	13.902	1257.604	942.429
136.512	13.757	1256.508	940.706
137.527	13.787	1255.385	939.953
138.541	13.791	1254.076	938.909
139.556	13.910	1252.419	938.261
140.570	13.893	1251.537	937.421
141.585	13.889	1250.212	936.320
142.600	13.954	1249.050	935.732
143.614	14.009	1248.098	935.251
144.629	13.892	1247.215	933.848
145.643	14.018	1245.874	933.466
146.658	13.951	1244.629	932.077
147.673	13.983	1243.171	931.083
148.687	13.849	1242.621	929.833
149.702	13.915	1240.876	928.817
150.716	13.879	1239.613	927.588
151.731	13.959	1238.062	926.794
152.746	13.947	1237.156	925.965
153.760	14.006	1236.250	925.532
154.775	14.058	1235.060	924.848
155.789	14.071	1233.990	924.040
156.804	14.027	1233.201	923.122
157.819	14.008	1231.885	921.948
158.833	14.118	1230.911	921.749
159.848	14.133	1229.966	921.043
160.862	14.226	1228.997	920.753
161.877	14.093	1227.934	919.137
162.892	14.099	1226.842	918.270
163.906	14.140	1225.975	917.766
164.921	14.048	1225.151	916.560
165.935	14.049	1224.511	916.010
166.950	14.097	1223.778	915.641
167.964	14.134	1222.883	915.096
168.979	14.122	1222.447	914.621
169.994	14.171	1221.340	913.983
171.008	14.243	1220.571	913.721
172.023	14.242	1219.928	913.153
173.037	14.318	1218.915	912.730
174.052	14.159	1218.158	911.215
175.067	14.259	1216.787	910.656
176.081	14.158	1215.928	909.377
177.096	14.198	1215.309	909.055
178.110	14.136	1213.961	907.629
179.125	14.246	1212.768	907.253
180.140	14.225	1211.618	906.200
181.154	14.296	1210.599	905.743
182.169	14.209	1209.088	904.062
183.183	14.359	1207.986	903.969
184.198	14.343	1206.913	903.001
185.213	14.353	1205.595	901.990
186.227	14.381	1204.561	901.284
187.242	14.360	1203.760	900.492
188.256	14.465	1202.406	899.969
189.271	14.472	1201.516	899.262
190.286	14.284	1200.892	897.700
191.300	14.317	1199.853	897.023
192.315	14.267	1199.119	896.126
193.329	14.266	1199.153	896.062
194.344	14.312	1198.203	895.523
195.359	14.324	1197.674	895.112
196.373	14.389	1197.090	894.945
197.388	14.428	1196.341	894.517
198.402	14.459	1195.745	894.159
199.417	14.553	1195.175	894.158
200.432	14.556	1194.261	893.410
201.446	14.594	1193.252	892.781
202.461	14.626	1192.115	892.020
203.475	14.667	1191.032	891.352
204.490	14.646	1190.359	890.657
205.504	14.653	1188.542	889.255
206.519	14.624	1187.718	888.408
207.534	14.565	1186.614	887.186
208.548	14.590	1185.591	886.475
209.563	14.570	1184.922	885.791
210.577	14.561	1184.450	885.313
211.592	14.728	1183.328	885.282
212.607	14.676	1182.265	884.131
213.621	14.719	1181.377	883.620
214.636	14.732	1180.676	883.084
215.650	14.757	1179.914	882.566
216.665	14.792	1178.816	881.855
217.680	14.829	1177.994	881.356
218.694	14.857	1177.124	880.772
219.709	14.805	1176.500	879.955
220.723	14.887	1175.489	879.553
221.738	14.842	1175.078	878.931
222.753	14.910	1173.942	878.362
223.767	14.845	1173.722	877.776
224.782	14.902	1173.003	877.462
225.796	15.006	1171.636	876.906
226.811	14.922	1171.323	876.153
227.826	14.954	1170.425	875.570
228.840	14.994	1169.807	875.239
229.855	14.916	1169.065	874.203
230.869	14.974	1168.275	873.836
231.884	14.901	1167.871	873.078
232.899	14.919	1166.531	872.092
233.913	14.868	1166.017	871.361
234.928	14.916	1165.040	870.803
235.942	15.022	1164.125	870.594
236.957	14.908	1163.934	869.782
237.972	14.946	1163.075	869.261
238.986	14.944	1162.563	868.794
240.001	14.907	1161.948	868.064
241.015	15.086	1160.683	867.969
242.030	15.000	1160.087	867.002
243.045	14.954	1159.235	866.049
244.059	15.081	1158.125	865.803
245.074	15.111	1157.666	865.537
246.088	15.061	1156.831	864.577
247.103	15.110	1156.063	864.179
248.117	15.219	1155.500	864.246
249.132	15.181	1154.873	863.503
250.147	15.246	1153.711	862.890
251.161	15.299	1153.434	862.882
252.176	15.338	1152.216	862.092
253.190	15.345	1151.840	861.772
254.205	15.367	1151.492	861.550
255.220	15.314	1151.000	860.831
256.234	15.418	1150.233	860.717
257.249	15.517	1149.361	860.493
258.263	15.528	1148.562	859.877
259.278	15.386	1148.191	858.798
260.293	15.472	1147.372	858.548
261.307	15.535	1147.362	858.785
262.322	15.618	1146.196	858.260
263.336	15.603	1146.020	857.979
264.351	15.520	1145.194	856.861
265.366	15.611	1144.623	856.819
266.380	15.664	1143.275	856.004
267.395	15.683	1142.604	855.525
268.409	15.615	1142.063	854.697
269.424	15.509	1141.735	853.837
270.439	15.615	1140.983	853.738
271.453	15.493	1140.365	852.578
272.468	15.481	1139.674	851.930
273.482	15.639	1138.517	851.788
274.497	15.659	1137.965	851.399
275.512	15.602	1137.597	850.761
276.526	15.723	1136.557	850.521
277.541	15.650	1135.729	849.456
278.555	15.648	1135.041	848.858
279.570	15.789	1134.393	849.006
280.585	15.867	1133.177	848.415
281.599	15.808	1132.492	847.532
282.614	15.802	1131.405	846.611
283.628	15.804	1130.222	845.660
284.643	15.852	1129.300	845.141
285.657	15.840	1128.979	844.762
286.672	15.856	1127.818	843.900
287.687	15.909	1127.159	843.597
288.701	15.960	1125.998	842.908
289.716	15.898	1125.572	842.208
290.730	15.975	1124.746	841.896
291.745	16.071	1123.666	841.493
292.760	15.871	1123.661	840.420
293.774	15.929	1123.140	840.247
294.789	15.939	1122.565	839.788
295.803	16.051	1121.572	839.529
296.818	15.990	1120.956	838.690
297.833	15.956	1120.212	837.893
298.847	16.005	1119.612	837.612
299.862	15.887	1119.079	836.552
300.876	16.107	1118.217	836.924
301.891	15.964	1117.644	835.713
302.906	16.135	1116.633	835.734
303.920	16.135	1115.952	835.148
304.935	16.188	1115.151	834.735
305.949	16.280	1114.449	834.592
306.964	16.270	1113.767	833.958
307.979	16.250	1113.177	833.345
308.993	16.169	1112.786	832.579
310.008	16.341	1111.336	832.265
311.022	16.217	1111.079	831.389
312.037	16.144	1110.218	830.311
313.052	16.385	1109.077	830.571
314.066	16.240	1108.413	829.286
315.081	16.254	1107.667	828.727
316.095	16.200	1106.753	827.701
317.110	16.326	1105.998	827.684
318.125	16.262	1105.600	827.000
319.139	16.238	1105.159	826.479
320.154	16.287	1104.138	825.879
321.168	16.277	1103.616	825.367
322.183	16.405	1102.619	825.174
323.197	16.249	1102.422	824.193
324.212	16.310	1102.022	824.118
325.227	16.345	1101.079	823.513
326.241	16.348	1100.584	823.081
327.256	16.246	1099.727	821.870
328.270	16.332	1098.374	821.204
329.285	16.498	1097.615	821.373
330.300	16.393	1096.430	819.905
331.314	16.353	1095.557	818.982
332.329	16.328	1095.169	818.500
333.343	16.389	1094.069	817.903
334.358	16.474	1093.126	817.534
335.373	16.609	1092.412	817.582
336.387	16.580	1091.787	816.901
337.402	16.467	1091.398	815.991
338.416	16.631	1090.515	816.049
339.431	16.614	1089.526	815.157
340.446	16.703	1089.110	815.199
341.460	16.800	1088.294	814.986
342.475	16.687	1087.757	813.965
343.489	16.629	1086.876	812.957
344.504	16.766	1085.579	812.575
345.519	16.760	1084.875	811.948
346.533	16.849	1084.228	811.818
347.548	16.772	1083.758	811.025
348.562	16.811	1082.870	810.476
349.577	16.789	1082.084	809.708
350.592	16.860	1081.224	809.334
351.606	16.780	1080.519	808.352
352.621	16.779	1079.864	807.784
353.635	16.851	1079.041	807.441
354.650	16.864	1078.239	806.830
355.665	16.901	1077.433	806.331
356.679	16.798	1077.264	805.646
357.694	16.836	1076.670	805.312
358.708	16.887	1076.077	805.039
359.723	16.921	1075.130	804.419
360.738	17.046	1074.813	804.705
361.752	16.876	1074.445	803.554
362.767	16.889	1073.815	803.072
363.781	17.044	1072.947	803.083
364.796	17.077	1072.237	802.639
365.810	16.948	1072.055	801.820
366.825	17.170	1070.894	801.927
367.840	17.278	1070.304	801.928
368.854	17.163	1069.802	800.936
369.869	17.174	1069.386	800.605
370.883	17.222	1068.712	800.255
371.898	17.111	1067.371	798.660
372.913	17.131	1067.172	798.533
373.927	17.181	1066.703	798.348
374.942	17.353	1065.989	798.552
375.956	17.270	1065.581	797.786
376.971	17.229	1065.211	797.244
377.986	17.319	1064.287	796.906
379.000	17.399	1063.559	796.665
380.015	17.348	1063.241	796.115
381.029	17.424	1062.652	795.959
382.044	17.332	1061.979	794.954
383.059	17.396	1061.036	794.477
384.073	17.362	1060.526	793.867
385.088	17.358	1059.435	792.962
386.102	17.380	1058.770	792.495
387.117	17.331	1057.596	791.318
388.132	17.519	1056.609	791.383
389.146	17.345	1056.147	790.160
390.161	17.462	1055.068	789.824
391.175	17.417	1054.374	789.027
392.190	17.369	1053.850	788.343
393.205	17.465	1053.610	788.538
394.219	17.504	1052.371	787.721
395.234	17.434	1051.389	786.594
396.248	17.505	1050.085	785.878
397.263	17.432	1049.385	784.948
398.278	17.447	1048.856	784.553
399.292	17.538	1048.033	784.285
400.307	17.424	1047.601	783.368
401.321	17.494	1046.704	782.949
402.336	17.358	1046.492	782.098
403.350	17.421	1045.744	781.757
404.365	17.432	1044.839	781.062
405.380	17.778	1043.719	781.744
406.394	17.779	1043.005	781.144
407.409	17.595	1042.453	779.817
408.423	17.683	1041.927	779.756
409.438	17.629	1041.053	778.787
410.453	17.789	1040.387	778.950
411.467	17.871	1039.530	778.615
412.482	17.793	1039.418	778.104
413.496	17.807	1038.667	777.541
414.511	17.892	1037.893	777.278
415.526	17.857	1037.797	776.976
416.540	17.927	1036.950	776.592
417.555	17.973	1036.411	776.330
418.569	17.988	1035.896	775.943
419.584	17.960	1035.559	775.498
420.599	17.931	1034.856	774.770
421.613	106.900	1324.762	1478.118
422.628	98.022	1366.977	1478.195
