DTS Sentinel unit serial number:	SN413079Multiplexer serial number:	ORYXHardware model number:	OX4-SRSoftware version number:	ORYX F/W v4.00 Oryx Data Collector v3.7.2.0data status	okinstallation	princeton_trtdifferential loss correction	single-endedforward channel	channel 2reverse channel	N/Adate	2019/09/19time	03:07:34forward acquisition time	60.00reverse acquisition time	0.00gamma	496.2192k internal	0.2353k external	0.2353temperature offset calibration	1.0013default loss term (dB/km)	0.3790temperature slope calibration	1.0000multiplexer offset coefficient	1.0000multiplexer slope coefficient	1.0000fibre end	0.00T internal ref (°C)	20.81T ext. ref 1 (°C)	0.66T ext. ref 2 (°C)	14.41length (m)	temperature (°C)	Stokes	anti-Stokes-747.200	-67.942	-0.190	-0.074
-746.185	-81.418	-0.120	0.039
-745.171	536.329	-0.110	0.259
-744.156	-200.000	-0.042	0.532
-743.142	20.600	0.347	-0.280
-742.127	-200.000	-0.035	0.191
-741.112	-11.984	-0.115	0.075
-740.098	800.000	0.037	0.121
-739.083	-176.141	-0.249	0.007
-738.069	-114.849	-0.340	-0.065
-737.054	800.000	0.033	-0.119
-736.039	-45.384	-0.113	0.056
-735.025	161.649	0.222	-0.310
-734.010	235.076	0.104	-0.170
-732.996	-60.203	-0.177	-0.075
-731.981	104.417	-0.226	0.265
-730.966	207.640	-0.077	-0.120
-729.952	-5.267	-0.036	-0.025
-728.937	-13.352	-0.248	0.160
-727.923	-46.914	0.065	-0.032
-726.908	-187.175	-0.283	0.004
-725.894	282.735	-0.070	-0.124
-724.879	-73.484	-0.113	-0.041
-723.864	-57.304	0.269	-0.118
-722.850	255.388	-0.120	-0.205
-721.835	-30.749	-0.414	-0.233
-720.821	450.913	0.116	-0.255
-719.806	69.658	0.125	-0.128
-718.791	191.137	-0.255	-0.382
-717.777	-68.657	-0.063	0.024
-716.762	266.184	0.041	0.071
-715.748	-1.799	-0.149	-0.104
-714.733	-4.675	0.086	-0.059
-713.718	760.951	0.076	-0.206
-712.704	86.034	-0.136	0.149
-711.689	-29.348	0.044	-0.025
-710.675	414.705	0.034	-0.073
-709.660	-182.513	-0.198	-0.004
-708.645	-99.725	0.005	0.001
-707.631	-200.000	-0.023	0.136
-706.616	395.434	0.021	0.044
-705.602	800.000	0.084	-0.271
-704.587	40.582	0.155	-0.139
-703.572	-106.237	-0.166	0.037
-702.558	-47.144	0.315	-0.153
-701.543	-29.948	0.094	-0.053
-700.529	100.746	0.214	-0.247
-699.514	-102.394	-0.301	0.072
-698.499	14.499	-0.308	-0.240
-697.485	-45.875	0.106	-0.052
-696.470	277.038	0.179	-0.316
-695.456	-20.641	-0.125	0.076
-694.441	64.616	-0.043	0.043
-693.426	-200.000	-0.011	0.065
-692.412	111.122	-0.204	-0.244
-691.397	-200.000	-0.020	-0.337
-690.383	331.051	0.067	-0.128
-689.368	668.005	-0.048	-0.124
-688.354	684.904	0.058	-0.151
-687.339	-114.510	-0.309	-0.059
-686.324	-154.029	-0.083	-0.006
-685.310	38.058	-0.107	0.095
-684.295	-161.072	0.242	-0.013
-683.281	103.173	-0.257	-0.300
-682.266	637.631	-0.173	-0.437
-681.251	60.563	0.214	0.211
-680.237	-41.308	-0.077	0.039
-679.222	324.530	0.032	-0.061
-678.208	800.000	0.055	-0.184
-677.193	-33.783	0.082	0.045
-676.178	-200.000	0.044	-0.312
-675.164	18.483	0.148	0.117
-674.149	-200.000	0.068	-0.427
-673.135	19.167	0.202	-0.161
-672.120	-95.122	-0.448	0.120
-671.105	191.385	-0.032	0.049
-670.091	538.757	0.051	0.121
-669.076	265.918	-0.079	-0.136
-668.062	19.712	-0.014	-0.011
-667.047	-78.674	0.135	-0.046
-666.032	-200.000	0.079	-0.520
-665.018	460.507	0.024	0.054
-664.003	-164.091	0.377	0.017
-662.989	-200.000	0.046	0.220
-661.974	-200.000	-0.007	0.250
-660.959	-200.000	-0.001	0.121
-659.945	-0.785	0.096	-0.068
-658.930	800.000	0.053	-0.196
-657.916	218.454	-0.150	0.239
-656.901	-37.430	-0.318	0.169
-655.886	-46.210	0.221	0.108
-654.872	38.571	0.144	0.127
-653.857	-50.376	-0.285	0.134
-652.843	-62.428	-0.309	-0.128
-651.828	-37.609	-0.239	0.126
-650.814	-200.000	0.042	-0.299
-649.799	800.000	-0.085	-0.245
-648.784	101.166	-0.101	0.117
-647.770	-124.898	0.093	-0.014
-646.755	157.251	0.171	0.235
-645.741	56.007	0.368	-0.355
-644.726	-122.130	-0.160	0.026
-643.711	-154.603	-0.179	-0.012
-642.697	800.000	-0.028	0.083
-641.682	618.324	-0.169	0.422
-640.668	-31.486	-0.315	-0.176
-639.653	-58.159	-0.385	0.166
-638.638	-188.520	0.236	0.003
-637.624	-200.000	0.016	-0.152
-636.609	644.996	0.101	-0.255
-635.595	9.640	0.156	-0.118
-634.580	34.578	-0.215	0.186
-633.565	276.868	0.061	0.107
-632.551	800.000	0.073	0.220
-631.536	-154.518	-0.291	0.019
-630.522	98.261	0.106	0.121
-629.507	800.000	0.070	0.256
-628.492	-200.000	0.008	0.121
-627.478	-200.000	-0.032	-0.524
-626.463	-78.324	-0.227	-0.077
-625.449	-200.000	-0.007	0.064
-624.434	-200.000	0.098	-0.490
-623.419	-200.000	0.009	-0.172
-622.405	64.123	-0.117	0.117
-621.390	6.763	-0.113	-0.083
-620.376	-172.438	0.129	-0.004
-619.361	800.000	0.102	-0.310
-618.346	179.155	0.124	-0.180
-617.332	800.000	0.057	0.162
-616.317	321.526	0.193	0.363
-615.303	-68.814	-0.069	0.027
-614.288	73.895	-0.109	0.114
-613.273	86.169	-0.299	-0.326
-612.259	-170.188	-0.299	0.010
-611.244	-125.383	0.225	0.034
-610.230	-200.000	-0.023	0.237
-609.215	589.166	-0.172	0.419
-608.201	-30.218	0.215	-0.121
-607.186	65.067	-0.154	-0.154
-606.171	-80.621	-0.166	-0.055
-605.157	-200.000	-0.024	-0.164
-604.142	-4.588	0.185	0.127
-603.128	-169.614	-0.148	-0.005
-602.113	-88.079	-0.120	0.036
-601.098	800.000	-0.049	0.162
-600.084	-200.000	-0.001	0.013
-599.069	-200.000	-0.089	0.570
-598.055	486.862	0.159	-0.358
-597.040	63.452	0.135	-0.134
-596.025	272.304	0.101	0.176
-595.011	-137.990	0.429	-0.047
-593.996	355.582	0.178	-0.351
-592.982	-110.165	0.388	0.080
-591.967	21.877	-0.063	0.051
-590.952	180.903	-0.161	0.235
-589.938	-169.653	0.048	0.002
-588.923	-92.489	-0.206	-0.057
-587.909	-21.558	0.218	-0.132
-586.894	-105.572	-0.267	0.060
-585.879	161.988	0.085	-0.117
-584.865	37.776	-0.131	-0.115
-583.850	447.836	-0.065	-0.142
-582.836	35.165	0.090	-0.078
-581.821	27.318	0.133	0.111
-580.806	287.796	0.092	0.165
-579.792	-62.904	-0.137	-0.056
-578.777	-63.899	0.177	0.072
-577.763	-99.571	0.183	0.045
-576.748	-53.975	-0.191	0.086
-575.733	-146.146	0.283	-0.025
-574.719	-200.000	0.012	-0.294
-573.704	0.906	-0.200	0.142
-572.690	-200.000	0.008	0.217
-571.675	-200.000	-0.025	-0.127
-570.661	239.513	-0.124	0.204
-569.646	395.534	-0.220	0.455
-568.631	-10.314	0.085	-0.056
-567.617	229.326	0.080	0.129
-566.602	142.582	-0.097	-0.128
-565.588	-200.000	0.012	-0.280
-564.573	90.409	-0.048	0.053
-563.558	56.425	0.133	-0.128
-562.544	800.000	0.080	-0.226
-561.529	215.976	-0.062	0.097
-560.515	-200.000	-0.008	0.103
-559.500	85.624	0.139	0.152
-558.485	-14.147	-0.238	-0.152
-557.471	-200.000	0.015	-0.109
-556.456	193.206	0.167	0.250
-555.442	-163.573	-0.056	0.003
-554.427	-200.000	0.043	-0.228
-553.412	-189.241	-0.249	0.003
-552.398	800.000	-0.026	-0.076
-551.383	28.920	0.198	-0.166
-550.369	377.434	-0.034	-0.068
-549.354	251.781	0.095	-0.160
-548.339	72.286	0.178	-0.184
-547.325	275.821	0.043	-0.076
-546.310	-200.000	-0.004	-0.362
-545.296	-143.077	-0.181	-0.017
-544.281	-140.970	-0.115	0.012
-543.266	800.000	0.110	-0.343
-542.252	80.214	0.231	-0.246
-541.237	-200.000	0.004	0.188
-540.223	25.170	0.090	0.074
-539.208	-143.353	-0.246	-0.023
-538.193	87.703	0.344	-0.377
-537.179	10.456	-0.155	-0.117
-536.164	-112.233	-0.170	0.034
-535.150	27.221	0.161	-0.134
-534.135	-200.000	-0.013	0.124
-533.121	-124.332	0.065	0.010
-532.106	43.742	-0.081	0.074
-531.091	-157.433	-0.306	0.018
-530.077	-15.638	0.158	0.100
-529.062	-74.367	-0.070	-0.025
-528.048	-29.225	-0.151	0.085
-527.033	559.579	-0.116	0.276
-526.018	800.000	-0.059	-0.229
-525.004	121.928	0.122	0.150
-523.989	69.610	0.227	0.231
-522.975	-129.765	0.101	0.014
-521.960	-2.060	0.185	-0.129
-520.945	75.181	-0.093	-0.097
-519.931	516.282	0.155	-0.357
-518.916	-147.747	-0.269	-0.022
-517.902	173.467	0.209	-0.298
-516.887	-73.006	-0.042	0.015
-515.872	7.580	0.097	-0.071
-514.858	-36.656	-0.132	0.070
-513.843	-102.288	-0.313	-0.074
-512.829	13.003	0.202	0.154
-511.814	-1.983	-0.270	0.187
-510.799	-200.000	0.006	0.274
-509.785	-15.968	0.328	0.206
-508.770	16.278	0.054	-0.042
-507.756	89.940	0.132	0.145
-506.741	97.080	-0.173	-0.196
-505.726	800.000	0.075	-0.237
-504.712	267.988	0.174	0.302
-503.697	-200.000	0.030	0.452
-502.683	-76.233	0.003	-0.001
-501.668	-37.080	-0.180	0.095
-500.653	800.000	0.086	0.246
-499.639	-47.008	0.246	-0.118
-498.624	-200.000	-0.015	-0.156
-497.610	-200.000	-0.049	-0.216
-496.595	50.330	0.152	-0.142
-495.581	-130.757	-0.238	-0.032
-494.566	-125.850	0.182	0.027
-493.551	65.642	-0.152	0.152
-492.537	37.984	0.118	0.104
-491.522	27.485	-0.153	-0.127
-490.508	83.776	0.058	-0.063
-489.493	-99.373	0.093	-0.023
-488.478	-161.360	-0.111	-0.006
-487.464	66.836	-0.243	-0.244
-486.449	168.101	0.155	0.217
-485.435	60.282	0.182	0.178
-484.420	234.997	0.097	-0.158
-483.405	498.933	0.073	-0.165
-482.391	89.349	0.079	0.087
-481.376	-9.285	-0.184	-0.121
-480.362	-62.692	0.080	-0.033
-479.347	-3.500	0.256	0.176
-478.332	143.951	0.262	0.345
-477.318	-200.000	0.006	0.092
-476.303	248.672	-0.115	-0.193
-475.289	725.436	-0.219	-0.576
-474.274	340.328	0.051	-0.099
-473.259	630.956	0.024	0.061
-472.245	-200.000	-0.011	-0.099
-471.230	800.000	0.017	0.067
-470.216	-19.082	-0.172	0.106
-469.201	-11.106	-0.282	0.184
-468.186	-128.361	-0.020	-0.003
-467.172	255.671	-0.083	0.141
-466.157	-11.727	-0.253	0.164
-465.143	800.000	0.084	0.233
-464.128	-200.000	-0.008	-0.226
-463.113	-48.424	0.174	-0.083
-462.099	-23.615	-0.203	0.120
-461.084	800.000	-0.027	0.103
-460.070	-200.000	-0.002	0.042
-459.055	-69.499	-0.333	0.126
-458.040	-3.759	0.284	0.194
-457.026	-200.000	-0.047	0.297
-456.011	-88.516	0.266	-0.078
-454.997	177.774	0.089	-0.127
-453.982	119.497	0.333	-0.406
-452.968	800.000	-0.023	0.077
-451.953	133.457	-0.169	-0.215
-450.938	-15.199	-0.143	-0.090
-449.924	-200.000	-0.013	-0.099
-448.909	-137.939	0.139	0.015
-447.895	507.618	-0.136	0.312
-446.880	-200.000	0.033	0.319
-445.865	-184.589	-0.202	0.003
-444.851	385.104	0.107	0.218
-443.836	-200.000	-0.034	-0.356
-442.822	-115.111	-0.066	0.012
-441.807	85.372	-0.048	-0.052
-440.792	-200.000	-0.000	0.051
-439.778	75.853	0.237	0.247
-438.763	-161.776	0.278	-0.014
-437.749	-140.268	0.239	-0.025
-436.734	-92.811	-0.079	-0.022
-435.719	-200.000	-0.228	0.000
-434.705	-54.318	0.284	0.127
-433.690	-200.000	-0.008	0.184
-432.676	70.176	-0.182	-0.186
-431.661	-80.167	-0.070	0.023
-430.646	68.840	0.210	0.212
-429.632	-129.632	-0.484	-0.066
-428.617	528.708	0.011	0.026
-427.603	-61.409	-0.522	0.216
-426.588	-200.000	0.014	0.505
-425.573	-88.248	-0.251	-0.074
-424.559	-200.000	-0.013	-0.104
-423.544	-200.000	-0.053	-0.360
-422.530	292.365	0.069	0.124
-421.515	140.207	-0.069	0.090
-420.500	224.502	-0.077	0.122
-419.486	326.222	0.098	-0.184
-418.471	45.102	0.211	-0.191
-417.457	-67.266	-0.182	-0.071
-416.442	52.717	0.200	-0.188
-415.428	-73.141	-0.290	-0.105
-414.413	363.500	0.095	-0.187
-413.398	-33.353	-0.095	-0.052
-412.384	-8.428	-0.355	0.235
-411.369	368.917	-0.121	-0.241
-410.355	-158.908	0.193	0.011
-409.340	418.676	-0.088	0.185
-408.325	-54.899	-0.050	-0.022
-407.311	59.288	0.114	-0.111
-406.296	269.677	-0.068	0.118
-405.282	125.360	-0.099	0.123
-404.267	800.000	-0.015	0.044
-403.252	-123.655	0.109	0.017
-402.238	-200.000	-0.022	-0.122
-401.223	-4.063	0.212	-0.144
-400.209	-88.864	0.233	-0.068
-399.194	418.112	0.090	-0.189
-398.179	-37.914	-0.111	-0.058
-397.165	-200.000	-0.058	-0.477
-396.150	-29.773	0.236	0.132
-395.136	106.770	-0.145	0.169
-394.121	-200.000	-0.040	0.222
-393.106	-200.000	-0.023	-0.342
-392.092	-20.601	-0.326	-0.197
-391.077	-200.000	-0.026	0.276
-390.063	-200.000	0.052	0.284
-389.048	-52.233	-0.340	0.155
-388.033	800.000	0.036	0.145
-387.019	-18.906	0.202	0.124
-386.004	-200.000	0.005	0.158
-384.990	179.038	0.096	-0.138
-383.975	-200.000	0.001	0.180
-382.960	38.238	-0.048	-0.042
-381.946	3.611	-0.086	-0.062
-380.931	-102.922	0.286	-0.067
-379.917	221.708	0.046	0.073
-378.902	-25.309	-0.215	0.125
-377.888	-52.909	-0.370	-0.167
-376.873	350.803	0.095	-0.185
-375.858	-53.644	0.163	0.073
-374.844	-200.000	0.006	-0.292
-373.829	80.370	0.195	-0.206
-372.815	800.000	0.032	-0.114
-371.800	93.369	-0.042	0.047
-370.785	-200.000	0.017	0.160
-369.771	426.949	0.143	-0.303
-368.756	800.000	-0.077	0.224
-367.742	35.934	0.102	0.088
-366.727	-200.000	0.010	-0.163
-365.712	-200.000	0.017	0.077
-364.698	376.199	-0.051	-0.103
-363.683	-146.908	0.362	0.031
-362.669	-200.000	0.003	0.120
-361.654	218.327	-0.062	-0.097
-360.639	-39.268	0.124	0.064
-359.625	-45.752	0.209	0.101
-358.610	800.000	-0.095	-0.390
-357.596	-176.260	0.272	-0.007
-356.581	-43.421	0.154	0.076
-355.566	397.470	-0.056	0.115
-354.552	167.028	0.254	0.354
-353.537	-78.134	0.177	0.060
-352.523	6.076	-0.231	-0.168
-351.508	-143.765	-0.268	0.025
-350.493	-161.519	0.107	-0.005
-349.479	-83.575	-0.245	-0.077
-348.464	503.501	0.089	0.202
-347.450	185.692	-0.063	0.091
-346.435	-23.110	-0.114	-0.067
-345.420	-4.520	0.361	-0.245
-344.406	207.446	-0.112	0.171
-343.391	-72.834	-0.185	-0.067
-342.377	-87.258	-0.179	-0.053
-341.362	53.907	0.120	-0.113
-340.348	-200.000	-0.050	-0.344
-339.333	-7.257	-0.036	0.024
-338.318	-200.000	0.010	-0.160
-337.304	-38.710	0.366	-0.189
-336.289	-200.000	-0.046	-0.239
-335.275	-5.600	-0.040	-0.027
-334.260	-65.265	-0.450	-0.178
-333.245	-52.957	-0.102	0.046
-332.231	33.803	-0.059	0.050
-331.216	5.376	0.284	-0.206
-330.202	-28.236	-0.444	-0.252
-329.187	-55.212	-0.153	-0.068
-328.172	-9.486	0.180	0.118
-327.158	58.213	-0.177	0.170
-326.143	-117.671	0.199	0.035
-325.129	107.198	0.120	0.140
-324.114	148.550	-0.342	0.453
-323.099	-200.000	-0.002	0.220
-322.085	-26.944	0.141	-0.081
-321.070	-39.521	-0.210	0.108
-320.056	800.000	-0.059	0.170
-319.041	75.531	-0.210	0.217
-318.026	164.328	-0.076	0.104
-317.012	-34.186	0.152	0.082
-315.997	450.136	-0.160	0.345
-314.983	219.336	0.106	-0.167
-313.968	653.125	-0.068	0.170
-312.953	540.981	-0.137	-0.320
-311.939	273.083	0.106	0.183
-310.924	106.872	0.116	0.135
-309.910	-127.716	0.132	-0.019
-308.895	608.977	-0.018	0.045
-307.880	-129.866	0.065	-0.009
-306.866	-40.405	-0.119	0.061
-305.851	-200.000	0.001	-0.122
-304.837	-23.284	-0.153	-0.090
-303.822	-200.000	0.028	0.176
-302.807	101.287	0.210	-0.240
-301.793	-135.171	0.317	0.037
-300.778	307.319	-0.114	-0.209
-299.764	-33.176	0.149	0.081
-298.749	53.532	0.077	-0.072
-297.735	-156.719	-0.114	0.007
-296.720	521.810	0.050	0.115
-295.705	-111.055	0.048	-0.010
-294.691	-51.728	0.257	-0.117
-293.676	436.130	0.035	-0.074
-292.662	569.416	-0.057	0.136
-291.647	-144.462	-0.197	0.018
-290.632	-56.591	0.284	-0.123
-289.618	138.510	0.182	0.234
-288.603	-77.642	0.086	-0.029
-287.589	297.688	0.220	-0.396
-286.574	-56.772	-0.355	-0.154
-285.559	-128.297	-0.396	0.055
-284.545	740.389	0.055	-0.144
-283.530	-200.000	0.009	-0.068
-282.516	-90.689	0.292	-0.083
-281.501	113.156	-0.228	0.270
-280.486	151.337	-0.217	0.289
-279.472	800.000	0.083	0.226
-278.457	-53.396	-0.276	-0.124
-277.443	-92.558	-0.264	0.072
-276.428	-200.000	-0.043	0.271
-275.413	30.265	0.203	-0.170
-274.399	45.930	0.141	-0.128
-273.384	111.527	0.145	0.171
-272.370	22.302	-0.104	0.083
-271.355	-200.000	0.015	-0.391
-270.340	131.737	0.213	0.268
-269.326	96.785	-0.233	-0.261
-268.311	181.917	0.103	-0.149
-267.297	800.000	0.071	-0.229
-266.282	-55.896	-0.392	-0.171
-265.267	-50.108	0.225	0.104
-264.253	-200.000	-0.015	-0.324
-263.238	121.879	-0.056	0.068
-262.224	-31.410	0.441	-0.243
-261.209	-200.000	-0.031	-0.174
-260.195	-8.781	0.210	-0.138
-259.180	-200.000	-0.005	-0.208
-258.165	22.915	0.118	-0.094
-257.151	-48.010	0.101	0.048
-256.136	139.022	-0.136	-0.175
-255.122	-22.080	0.131	0.078
-254.107	-161.227	0.157	0.008
-253.092	109.579	0.085	-0.099
-252.078	-200.000	0.003	-0.174
-251.063	31.421	0.159	-0.134
-250.049	67.005	0.121	-0.120
-249.034	355.824	-0.196	-0.382
-248.019	52.852	-0.082	0.077
-247.005	-84.726	0.249	0.077
-245.990	-6.929	-0.168	-0.112
-244.976	196.818	-0.108	-0.161
-243.961	-200.000	0.022	0.311
-242.946	-148.284	0.378	-0.030
-241.932	183.802	-0.187	0.271
-240.917	514.110	-0.024	-0.054
-239.903	298.556	-0.082	0.147
-238.888	-13.250	0.187	-0.119
-237.873	98.171	0.125	0.141
-236.859	41.498	-0.316	0.279
-235.844	40.949	-0.191	-0.169
-234.830	800.000	0.015	0.058
-233.815	-17.408	-0.338	-0.208
-232.800	199.618	0.292	-0.437
-231.786	-200.000	0.027	0.244
-230.771	-35.669	0.365	0.194
-229.757	163.532	-0.200	-0.275
-228.742	80.735	0.162	-0.170
-227.727	31.224	-0.282	0.237
-226.713	491.912	0.030	-0.067
-225.698	188.982	-0.168	0.246
-224.684	-100.619	-0.086	0.021
-223.669	-100.255	-0.330	0.080
-222.655	-157.402	-0.077	0.005
-221.640	141.129	-0.074	-0.096
-220.625	-200.000	-0.006	0.267
-219.611	-200.000	-0.006	0.168
-218.596	-200.000	0.030	0.145
-217.582	-200.000	-0.032	-0.242
-216.567	-200.000	0.018	0.083
-215.552	148.765	0.171	-0.226
-214.538	-104.542	0.154	-0.035
-213.523	0.303	-0.339	0.236
-212.509	-135.690	0.190	0.022
-211.494	-200.000	-0.045	-0.221
-210.479	107.198	0.077	0.090
-209.465	67.446	-0.131	-0.131
-208.450	-62.617	-0.072	0.029
-207.436	251.601	-0.039	-0.065
-206.421	38.107	-0.061	0.053
-205.406	-155.613	-0.116	-0.007
-204.392	-200.000	0.040	-0.237
-203.377	-132.693	0.134	0.017
-202.363	496.830	0.120	0.269
-201.348	42.913	0.182	0.162
-200.333	-88.135	-0.131	-0.038
-199.319	-133.410	-0.234	-0.029
-198.304	-46.909	0.141	0.067
-197.290	800.000	-0.070	0.248
-196.275	115.206	0.105	-0.126
-195.260	-19.228	0.154	-0.093
-194.246	356.165	-0.122	-0.236
-193.231	58.393	-0.273	0.262
-192.217	633.624	-0.123	0.305
-191.202	151.068	-0.041	0.054
-190.187	186.714	0.065	0.094
-189.173	429.425	-0.060	-0.126
-188.158	20.004	-0.037	-0.029
-187.144	216.392	-0.090	-0.139
-186.129	-133.730	0.224	-0.027
-185.114	39.613	0.195	0.171
-184.100	534.375	-0.077	0.177
-183.085	-200.000	-0.029	-0.158
-182.071	-8.833	-0.092	0.060
-181.056	52.309	0.130	-0.121
-180.042	-102.667	-0.133	0.031
-179.027	-51.967	-0.102	0.046
-178.012	-78.472	0.144	-0.048
-176.998	489.527	0.043	-0.095
-175.983	-73.605	0.410	0.146
-174.969	-200.000	0.029	0.233
-173.954	-200.000	-0.059	0.286
-172.939	32.907	0.051	0.043
-171.925	800.000	-0.107	0.372
-170.910	91.431	0.324	0.355
-169.896	-36.098	0.202	-0.107
-168.881	-200.000	0.013	0.408
-167.866	-68.591	-0.138	0.052
-166.852	60.798	0.195	-0.188
-165.837	-200.000	0.045	-0.321
-164.823	-119.846	0.240	0.040
-163.808	516.383	-0.099	0.226
-162.793	547.608	-0.113	-0.264
-161.779	187.231	-0.150	0.218
-160.764	-39.984	0.124	-0.063
-159.750	-200.000	0.005	0.344
-158.735	800.000	0.074	0.314
-157.720	-122.572	-0.338	-0.053
-156.706	-56.075	-0.099	0.043
-155.691	722.271	-0.067	0.175
-154.677	151.552	-0.111	-0.147
-153.662	-90.462	0.140	-0.040
-152.647	49.305	-0.101	0.092
-151.633	231.311	0.071	-0.114
-150.618	108.371	0.132	0.154
-149.604	762.731	-0.151	0.398
-148.589	800.000	0.020	-0.063
-147.574	119.940	-0.086	-0.104
-146.560	34.927	0.280	-0.239
-145.545	-104.531	-0.325	0.073
-144.531	268.402	-0.179	0.306
-143.516	-54.621	0.106	-0.047
-142.502	766.781	-0.184	0.487
-141.487	-67.818	0.583	0.222
-140.472	-155.552	-0.206	-0.013
-139.458	426.626	-0.058	0.122
-138.443	25.685	0.250	0.203
-137.429	-200.000	-0.026	0.157
-136.414	-147.334	0.138	-0.011
-135.399	-200.000	0.071	-0.355
-134.385	56.222	0.125	-0.118
-133.370	-124.583	0.269	-0.041
-132.356	800.000	0.079	-0.268
-131.341	-200.000	-0.002	-0.162
-130.326	-23.339	0.172	0.100
-129.312	105.321	0.159	0.183
-128.297	432.938	-0.130	-0.274
-127.283	-25.040	0.267	0.154
-126.268	-70.480	0.297	0.110
-125.253	-200.000	-0.028	-0.157
-124.239	127.519	-0.091	-0.113
-123.224	10.407	0.208	0.154
-122.210	-200.000	-0.010	-0.130
-121.195	800.000	-0.031	-0.128
-120.180	-162.332	0.129	0.006
-119.166	-200.000	-0.047	-0.223
-118.151	168.047	-0.083	-0.115
-117.137	8.893	-0.133	0.098
-116.122	800.000	0.082	0.300
-115.107	109.396	0.069	-0.080
-114.093	282.282	0.193	0.336
-113.078	-62.682	0.203	0.082
-112.064	-139.826	0.163	0.017
-111.049	800.000	0.081	0.257
-110.034	346.573	0.214	-0.410
-109.020	-64.328	-0.108	-0.043
-108.005	-66.846	0.332	0.128
-106.991	53.502	0.180	0.168
-105.976	-189.354	0.247	-0.003
-104.962	-200.000	-0.037	0.203
-103.947	-31.345	0.158	0.087
-102.932	5.244	-0.183	-0.131
-101.918	124.632	-0.160	-0.196
-100.903	537.558	-0.098	0.225
-99.889	-30.584	-0.310	0.171
-98.874	200.628	0.118	-0.177
-97.859	800.000	-0.079	-0.228
-96.845	4.686	-0.209	0.149
-95.830	207.544	0.022	0.033
-94.816	396.586	0.094	-0.191
-93.801	-200.000	0.064	-0.323
-92.786	800.000	-0.015	0.047
-91.772	139.376	0.233	0.298
-90.757	-189.883	-0.113	-0.001
-89.743	-200.000	-0.025	0.116
-88.728	800.000	-0.040	-0.170
-87.713	-21.039	-0.287	0.171
-86.699	247.984	-0.164	-0.269
-85.684	160.615	0.132	0.178
-84.670	148.570	-0.090	0.118
-83.655	-31.800	-0.159	0.087
-82.640	93.541	0.107	-0.118
-81.626	-93.032	0.137	-0.037
-80.611	-93.762	-0.237	0.064
-79.597	-44.575	0.323	-0.157
-78.582	-200.000	-0.013	-0.164
-77.567	-22.381	-0.227	-0.133
-76.553	-200.000	0.030	-0.138
-75.538	-38.246	-0.252	-0.130
-74.524	800.000	-0.050	0.148
-73.509	202.192	-0.083	-0.124
-72.494	604.386	0.109	-0.265
-71.480	-200.000	0.028	0.157
-70.465	-135.237	0.175	-0.020
-69.451	-200.000	-0.050	-0.351
-68.436	-22.884	-0.107	0.063
-67.422	-200.000	-0.051	-0.309
-66.407	-79.000	0.081	-0.027
-65.392	800.000	-0.030	-0.111
-64.378	800.000	0.054	0.172
-63.363	695.157	-0.022	-0.055
-62.349	-44.363	0.241	0.117
-61.334	96.475	-1.265	-1.406
-60.319	217.844	0.571	0.884
-59.305	-200.000	-0.220	-1.476
-58.290	412.952	0.583	1.203
-57.276	515.602	0.710	1.610
-56.261	-200.000	135.883	677.694
-55.246	340.120	1678.321	3177.705
-54.232	134.076	2814.418	3538.423
-53.217	82.480	2313.971	2437.721
-52.203	29.665	1911.740	1578.865
-51.188	23.843	1706.937	1365.110
-50.173	21.921	1669.129	1320.365
-49.159	43.858	1742.504	1548.467
-48.144	40.862	1751.503	1533.334
-47.130	23.396	1702.467	1357.888
-46.115	20.897	1687.355	1326.782
-45.100	20.746	1682.115	1321.462
-44.086	20.759	1679.919	1319.780
-43.071	20.720	1676.895	1317.057
-42.057	20.698	1675.122	1315.446
-41.042	20.729	1673.112	1314.054
-40.027	20.770	1671.151	1312.769
-39.013	20.692	1669.862	1311.119
-37.998	20.572	1668.583	1309.155
-36.984	20.728	1666.972	1309.016
-35.969	20.782	1665.384	1308.121
-34.954	20.803	1663.801	1306.981
-33.940	20.719	1662.472	1305.258
-32.925	20.726	1660.208	1303.479
-31.911	20.791	1658.731	1302.756
-30.896	20.811	1656.913	1301.429
-29.881	20.815	1654.890	1299.818
-28.867	20.770	1653.803	1298.572
-27.852	20.778	1652.528	1297.580
-26.838	20.802	1650.929	1296.455
-25.823	20.820	1649.670	1295.550
-24.809	20.898	1648.337	1295.026
-23.794	20.827	1647.169	1293.534
-22.779	20.867	1645.231	1292.252
-21.765	20.823	1643.792	1290.750
-20.750	20.845	1642.032	1289.474
-19.736	20.874	1641.295	1289.065
-18.721	20.828	1639.896	1287.570
-17.706	20.861	1638.133	1286.377
-16.692	20.918	1636.556	1285.513
-15.677	20.883	1635.519	1284.388
-14.663	20.887	1634.259	1283.379
-13.648	20.821	1632.956	1281.817
-12.633	20.857	1630.991	1280.491
-11.619	20.863	1629.420	1279.248
-10.604	20.897	1628.117	1278.422
-9.590	20.851	1626.839	1277.028
-8.575	20.855	1625.597	1276.039
-7.560	20.844	1624.132	1274.751
-6.546	20.895	1623.274	1274.407
-5.531	20.843	1622.245	1273.164
-4.517	20.839	1620.718	1271.883
-3.502	20.829	1619.884	1271.110
-2.487	20.924	1617.627	1269.980
-1.473	20.540	1605.233	1257.418
-0.458	17.498	1586.027	1220.555
0.556	12.858	1588.598	1189.398
1.571	10.731	1612.741	1191.771
2.586	10.444	1624.564	1198.282
3.600	9.770	1569.874	1153.023
4.615	5.541	1464.847	1047.533
5.629	1.412	1409.139	980.985
6.644	0.750	1402.373	971.935
7.659	0.650	1401.597	970.664
8.673	0.597	1400.689	969.613
9.688	0.633	1398.098	967.966
10.702	0.517	1394.436	964.601
11.717	2.681	1396.709	979.928
12.731	8.594	1406.168	1024.435
13.746	14.793	1415.292	1070.836
14.761	17.134	1418.467	1088.163
15.775	16.555	1417.364	1083.511
16.790	15.683	1414.077	1075.329
17.804	14.940	1411.897	1068.824
18.819	14.504	1410.572	1064.943
19.834	14.176	1409.641	1062.053
20.848	14.060	1407.925	1059.928
21.863	13.823	1406.692	1057.396
22.877	13.689	1405.194	1055.323
23.892	13.599	1404.670	1054.267
24.907	13.605	1403.624	1053.427
25.921	13.635	1402.384	1052.593
26.936	13.561	1402.024	1051.758
27.950	13.694	1400.653	1051.480
28.965	13.695	1399.919	1050.843
29.980	13.669	1399.067	1049.943
30.994	13.815	1397.629	1049.696
32.009	13.847	1397.167	1049.458
33.023	13.860	1395.672	1048.326
34.038	13.784	1394.579	1046.933
35.053	13.687	1393.600	1045.494
36.067	13.683	1392.628	1044.648
37.082	13.757	1391.199	1043.946
38.096	13.784	1390.223	1043.291
39.111	13.740	1389.579	1042.443
40.126	13.670	1389.132	1041.575
41.140	13.648	1388.105	1040.575
42.155	13.603	1387.453	1039.706
43.169	13.550	1387.451	1039.281
44.184	13.575	1387.225	1039.182
45.199	13.621	1387.004	1039.211
46.213	13.617	1386.290	1038.556
47.228	13.687	1385.456	1038.279
48.242	13.785	1384.219	1037.872
49.257	13.706	1382.221	1035.789
50.271	13.736	1380.600	1034.668
51.286	13.725	1379.676	1033.819
52.301	13.736	1378.036	1032.566
53.315	13.618	1377.726	1031.509
54.330	13.641	1376.376	1030.551
55.344	13.700	1374.744	1029.604
56.359	13.643	1373.955	1028.570
57.374	13.688	1372.935	1027.993
58.388	13.606	1372.095	1026.763
59.403	13.554	1371.709	1026.065
60.417	13.541	1371.166	1025.483
61.432	13.499	1369.929	1024.211
62.447	13.533	1368.995	1023.627
63.461	13.479	1367.622	1022.179
64.476	13.500	1366.548	1021.417
65.490	13.576	1365.296	1020.861
66.505	13.595	1363.522	1019.560
67.520	13.591	1362.478	1018.661
68.534	13.515	1361.764	1017.571
69.549	13.508	1361.094	1016.941
70.563	13.585	1359.302	1015.982
71.578	13.612	1358.042	1015.117
72.593	13.498	1357.672	1014.052
73.607	13.481	1356.572	1013.033
74.622	13.440	1355.850	1012.154
75.636	13.432	1355.607	1011.838
76.651	13.540	1353.906	1011.134
77.666	13.510	1353.480	1010.545
78.680	13.503	1353.132	1010.155
79.695	13.560	1352.170	1009.695
80.709	13.466	1351.511	1008.539
81.724	13.567	1350.481	1008.294
82.739	13.519	1349.982	1007.540
83.753	13.586	1348.776	1006.961
84.768	13.727	1347.790	1006.990
85.782	13.832	1346.380	1006.484
86.797	13.685	1345.260	1004.671
87.812	13.630	1343.942	1003.260
88.826	13.602	1343.086	1002.365
89.841	13.782	1341.479	1002.165
90.855	13.718	1340.539	1000.985
91.870	13.834	1339.168	1000.574
92.884	13.755	1338.563	999.557
93.899	13.795	1337.731	999.091
94.914	13.790	1337.166	998.547
95.928	13.812	1336.493	998.088
96.943	13.870	1335.050	997.274
97.957	13.689	1334.546	995.722
98.972	13.709	1333.289	994.812
99.987	13.782	1332.436	994.530
101.001	13.695	1331.536	993.247
102.016	13.845	1330.282	993.119
103.030	13.791	1329.155	991.870
104.045	13.772	1328.224	990.971
105.060	13.736	1327.069	989.811
106.074	13.663	1326.221	988.653
107.089	13.624	1324.669	987.179
108.103	13.713	1323.326	986.620
109.118	13.738	1321.247	985.132
110.133	13.660	1320.086	983.711
111.147	13.738	1318.739	983.086
112.162	13.657	1318.088	982.034
113.176	13.754	1316.276	981.172
114.191	13.718	1315.947	980.624
115.206	13.672	1314.889	979.476
116.220	13.713	1313.344	978.483
117.235	13.737	1312.281	977.744
118.249	13.729	1311.484	977.019
119.264	13.679	1310.312	975.762
120.279	13.668	1309.223	974.804
121.293	13.573	1308.174	973.379
122.308	13.644	1307.003	972.835
123.322	13.614	1305.798	971.678
124.337	13.593	1304.975	970.853
125.352	13.516	1304.327	969.840
126.366	13.635	1302.512	969.100
127.381	13.640	1301.437	968.241
128.395	13.622	1300.261	967.173
129.410	13.740	1298.840	966.724
130.424	13.724	1298.428	966.234
131.439	13.631	1297.851	965.178
132.454	13.723	1296.593	964.696
133.468	13.626	1295.688	963.373
134.483	13.705	1295.013	963.244
135.497	13.618	1293.932	961.850
136.512	13.670	1292.819	961.238
137.527	13.600	1291.636	959.867
138.541	13.727	1289.605	959.007
139.556	13.824	1288.191	958.434
140.570	13.698	1288.044	957.510
141.585	13.755	1285.835	956.114
142.600	13.782	1285.192	955.702
143.614	13.881	1283.895	955.225
144.629	13.898	1283.172	954.698
145.643	13.903	1281.848	953.659
146.658	13.872	1280.553	952.436
147.673	13.874	1279.440	951.532
148.687	13.966	1277.992	950.898
149.702	13.905	1276.721	949.522
150.716	13.826	1275.899	948.375
151.731	13.802	1274.797	947.333
152.746	13.863	1273.626	946.728
153.760	13.903	1271.929	945.610
154.775	13.967	1270.737	945.007
155.789	13.926	1269.837	944.016
156.804	13.979	1268.449	943.202
157.819	13.967	1267.847	942.607
158.833	14.036	1266.663	942.031
159.848	14.037	1265.862	941.358
160.862	14.078	1264.971	940.847
161.877	14.076	1263.312	939.519
162.892	13.917	1262.905	938.233
163.906	14.010	1261.748	937.818
164.921	14.024	1261.056	937.299
165.935	13.979	1259.930	936.123
166.950	14.170	1258.946	936.384
167.964	14.121	1258.448	935.657
168.979	14.132	1257.637	935.034
169.994	13.916	1257.348	933.522
171.008	14.095	1256.480	933.795
172.023	14.104	1255.510	933.047
173.037	14.170	1254.374	932.489
174.052	14.124	1253.415	931.433
175.067	14.102	1252.673	930.677
176.081	14.031	1251.803	929.553
177.096	14.049	1250.515	928.614
178.110	14.092	1249.552	928.059
179.125	14.137	1248.281	927.280
180.140	14.137	1246.794	926.097
181.154	14.209	1245.592	925.519
182.169	14.175	1244.445	924.398
183.183	14.322	1242.820	923.925
184.198	14.295	1242.149	923.197
185.213	14.326	1240.799	922.280
186.227	14.273	1239.773	921.141
187.242	14.383	1238.890	921.013
188.256	14.486	1237.570	920.521
189.271	14.464	1236.718	919.683
190.286	14.286	1235.606	917.794
191.300	14.200	1234.609	916.500
192.315	14.132	1234.694	916.108
193.329	14.190	1233.540	915.489
194.344	14.177	1232.853	914.828
195.359	14.284	1232.692	915.214
196.373	14.350	1231.939	914.936
197.388	14.358	1231.766	914.768
198.402	14.478	1230.970	914.755
199.417	14.552	1230.433	914.682
200.432	14.468	1229.861	913.718
201.446	14.607	1228.936	913.712
202.461	14.541	1227.841	912.456
203.475	14.598	1226.705	911.841
204.490	14.452	1225.406	909.998
205.504	14.581	1224.123	909.665
206.519	14.646	1223.225	909.273
207.534	14.549	1221.872	907.657
208.548	14.561	1220.765	906.820
209.563	14.568	1220.280	906.421
210.577	14.631	1219.465	906.077
211.592	14.642	1218.829	905.584
212.607	14.621	1217.438	904.356
213.621	14.632	1216.576	903.694
214.636	14.635	1215.848	903.090
215.650	14.701	1214.933	902.687
216.665	14.690	1213.686	901.621
217.680	14.815	1212.870	901.611
218.694	14.790	1212.054	900.791
219.709	14.759	1211.193	899.905
220.723	14.702	1210.623	899.092
221.738	14.781	1209.637	898.706
222.753	14.742	1208.920	897.882
223.767	14.821	1208.080	897.605
224.782	14.897	1207.802	897.724
225.796	14.906	1207.289	897.315
226.811	14.920	1205.908	896.281
227.826	14.973	1205.157	895.931
228.840	14.936	1204.791	895.380
229.855	15.001	1203.763	894.883
230.869	14.911	1203.336	894.009
231.884	14.923	1202.356	893.264
232.899	14.865	1201.553	892.279
233.913	14.958	1200.601	891.991
234.928	14.896	1200.198	891.280
235.942	14.815	1199.285	890.090
236.957	14.937	1198.308	889.938
237.972	14.854	1197.930	889.137
238.986	14.910	1196.970	888.640
240.001	14.960	1196.178	888.242
241.015	14.992	1195.465	887.804
242.030	15.021	1194.494	887.158
243.045	14.982	1193.887	886.419
244.059	14.952	1193.365	885.798
245.074	14.919	1192.347	884.788
246.088	15.136	1191.048	884.892
247.103	15.168	1190.368	884.475
248.117	15.065	1190.056	883.624
249.132	15.104	1189.572	883.392
250.147	15.285	1188.818	883.707
251.161	15.170	1187.954	882.384
252.176	15.261	1186.923	882.014
253.190	15.265	1186.353	881.537
254.205	15.444	1185.324	881.635
255.220	15.353	1185.057	880.878
256.234	15.314	1184.499	880.181
257.249	15.326	1184.119	879.883
258.263	15.421	1182.896	879.394
259.278	15.341	1182.499	878.601
260.293	15.574	1181.461	878.972
261.307	15.395	1181.499	877.988
262.322	15.468	1180.427	877.494
263.336	15.460	1179.774	876.892
264.351	15.459	1179.418	876.545
265.366	15.614	1178.289	876.434
266.380	15.536	1177.793	875.581
267.395	15.648	1176.811	875.356
268.409	15.645	1176.204	874.814
269.424	15.560	1175.351	873.658
270.439	15.599	1175.032	873.545
271.453	15.581	1174.158	872.727
272.468	15.480	1173.421	871.579
273.482	15.592	1172.707	871.554
274.497	15.573	1172.197	870.995
275.512	15.557	1171.312	870.179
276.526	15.665	1170.815	870.293
277.541	15.653	1169.702	869.326
278.555	15.652	1169.151	868.832
279.570	15.778	1168.261	868.746
280.585	15.722	1167.365	867.713
281.599	15.651	1166.505	866.630
282.614	15.713	1165.362	866.024
283.628	15.665	1164.534	865.086
284.643	15.709	1163.342	864.350
285.657	15.726	1162.783	863.947
286.672	15.846	1161.714	863.693
287.687	15.825	1160.705	862.757
288.701	15.830	1160.271	862.385
289.716	15.691	1159.369	860.925
290.730	15.835	1158.607	861.023
291.745	15.913	1158.027	860.914
292.760	15.959	1157.299	860.529
293.774	15.935	1156.806	859.965
294.789	15.975	1156.313	859.726
295.803	15.826	1155.825	858.524
296.818	15.971	1154.689	858.344
297.833	15.974	1153.822	857.642
298.847	15.908	1153.265	856.815
299.862	16.000	1152.343	856.519
300.876	16.119	1151.737	856.603
301.891	16.001	1151.371	855.650
302.906	16.148	1150.083	855.366
303.920	16.080	1149.516	854.522
304.935	16.141	1149.335	854.621
305.949	16.165	1148.423	853.990
306.964	16.191	1147.497	853.356
307.979	16.152	1146.963	852.689
308.993	16.120	1146.284	851.948
310.008	16.215	1145.293	851.616
311.022	16.220	1144.323	850.843
312.037	16.362	1143.383	850.782
313.052	16.265	1142.631	849.661
314.066	16.253	1141.824	848.926
315.081	16.248	1140.931	848.162
316.095	16.188	1140.275	847.297
317.110	16.293	1139.528	847.195
318.125	16.205	1138.632	846.011
319.139	16.258	1138.233	845.905
320.154	16.220	1137.455	845.062
321.168	16.159	1137.368	844.618
322.183	16.229	1136.177	844.007
323.197	16.327	1135.502	843.920
324.212	16.321	1135.006	843.449
325.227	16.267	1134.641	842.831
326.241	16.358	1133.292	842.207
327.256	16.442	1132.646	842.074
328.270	16.397	1131.815	841.156
329.285	16.390	1130.673	840.202
330.300	16.419	1129.721	839.564
331.314	16.319	1128.938	838.411
332.329	16.389	1128.085	838.047
333.343	16.386	1127.374	837.434
334.358	16.442	1126.291	836.829
335.373	16.466	1125.629	836.385
336.387	16.522	1124.384	835.661
337.402	16.523	1123.897	835.229
338.416	16.491	1123.379	834.615
339.431	16.630	1122.674	834.700
340.446	16.547	1122.594	834.157
341.460	16.521	1121.790	833.361
342.475	16.617	1120.423	832.741
343.489	16.585	1119.665	831.946
344.504	16.729	1118.538	831.742
345.519	16.669	1117.586	830.667
346.533	16.671	1117.216	830.331
347.548	16.777	1116.318	830.107
348.562	16.755	1115.773	829.524
349.577	16.647	1115.292	828.560
350.592	16.679	1113.948	827.645
351.606	16.824	1113.048	827.614
352.621	16.752	1112.568	826.830
353.635	16.677	1112.011	825.980
354.650	16.789	1111.012	825.708
355.665	16.919	1110.266	825.712
356.679	16.746	1109.752	824.420
357.694	17.024	1108.697	824.913
358.708	16.810	1108.829	823.898
359.723	16.850	1107.607	823.112
360.738	16.898	1107.042	822.853
361.752	16.901	1106.901	822.687
362.767	16.940	1106.106	822.212
363.781	16.925	1105.507	821.622
364.796	17.073	1104.447	821.476
365.810	17.048	1104.236	821.129
366.825	17.026	1103.335	820.277
367.840	17.065	1102.999	820.145
368.854	17.128	1102.382	819.919
369.869	17.153	1101.386	819.227
370.883	17.055	1100.959	818.362
371.898	17.111	1100.018	817.860
372.913	17.062	1099.667	817.289
373.927	17.109	1098.718	816.738
374.942	17.088	1098.415	816.342
375.956	17.203	1097.523	816.159
376.971	17.168	1097.143	815.636
377.986	17.288	1096.537	815.690
379.000	17.312	1095.936	815.286
380.015	17.283	1095.274	814.580
381.029	17.366	1094.320	814.196
382.044	17.326	1093.934	813.648
383.059	17.491	1093.152	813.780
384.073	17.487	1092.486	813.192
385.088	17.308	1091.560	811.579
386.102	17.414	1090.691	811.363
387.117	17.374	1089.714	810.375
388.132	17.398	1088.298	809.366
389.146	17.410	1088.124	809.223
390.161	17.441	1087.256	808.652
391.175	17.348	1086.439	807.529
392.190	17.500	1085.648	807.596
393.205	17.438	1085.225	806.916
394.219	17.481	1084.121	806.223
395.234	17.502	1083.172	805.548
396.248	17.455	1082.264	804.580
397.263	17.520	1081.226	804.042
398.278	17.539	1081.016	803.903
399.292	17.396	1080.482	802.760
400.307	17.587	1079.510	802.868
401.321	17.485	1078.824	801.807
402.336	17.550	1078.392	801.721
403.350	17.595	1077.411	801.131
404.365	17.486	1076.847	800.130
405.380	17.470	1076.389	799.644
406.394	17.725	1074.997	799.737
407.409	17.557	1074.403	798.437
408.423	17.602	1074.064	798.325
409.438	17.688	1072.696	797.638
410.453	17.851	1072.056	797.856
411.467	17.773	1071.167	796.757
412.482	17.821	1070.644	796.523
413.496	17.777	1070.296	795.987
414.511	17.763	1069.669	795.383
415.526	17.849	1069.213	795.375
416.540	17.998	1068.684	795.609
417.555	17.931	1067.925	794.658
418.569	17.974	1067.722	794.639
419.584	17.867	1067.150	793.647
420.599	17.774	1066.877	792.939
421.613	109.727	1333.006	1492.185
422.628	101.497	1371.710	1492.280
