DTS Sentinel unit serial number:	SN413079Multiplexer serial number:	ORYXHardware model number:	OX4-SRSoftware version number:	ORYX F/W v4.00 Oryx Data Collector v3.7.2.0data status	okinstallation	princeton_trtdifferential loss correction	single-endedforward channel	channel 2reverse channel	N/Adate	2019/09/16time	23:03:34forward acquisition time	60.00reverse acquisition time	0.00gamma	496.2192k internal	0.2329k external	0.2329temperature offset calibration	0.9974default loss term (dB/km)	0.3790temperature slope calibration	1.0000multiplexer offset coefficient	1.0000multiplexer slope coefficient	1.0000fibre end	0.00T internal ref (°C)	30.30T ext. ref 1 (°C)	0.09T ext. ref 2 (°C)	23.93length (m)	temperature (°C)	Stokes	anti-Stokes-747.200	-135.892	0.165	-0.020
-746.185	45.532	0.247	0.230
-745.171	-200.000	0.004	-0.085
-744.156	-42.193	-0.153	-0.079
-743.142	-32.106	0.186	0.105
-742.127	-140.528	-0.355	0.037
-741.112	-8.510	-0.309	0.209
-740.098	-200.000	0.045	0.277
-739.083	-200.000	-0.016	-0.157
-738.069	-200.000	-0.025	-0.124
-737.054	138.923	0.118	0.156
-736.039	88.649	0.027	-0.030
-735.025	-25.019	-0.110	0.066
-734.010	-200.000	0.025	-0.232
-732.996	91.645	-0.153	0.173
-731.981	17.161	-0.123	-0.098
-730.966	573.616	-0.083	-0.204
-729.952	46.346	-0.090	-0.084
-728.937	629.439	-0.112	-0.285
-727.923	-200.000	0.059	-0.332
-726.908	-77.809	-0.044	0.015
-725.894	-70.869	0.265	-0.101
-724.879	-45.637	-0.014	-0.007
-723.864	800.000	-0.036	-0.142
-722.850	-200.000	0.005	0.021
-721.835	401.669	0.049	-0.103
-720.821	-62.256	0.438	0.184
-719.806	186.702	0.013	-0.020
-718.791	-200.000	-0.009	0.070
-717.777	-200.000	-0.043	-0.220
-716.762	161.155	-0.207	0.291
-715.748	-82.220	-0.054	-0.018
-714.733	-200.000	0.009	-0.126
-713.718	379.699	0.094	0.193
-712.704	36.961	-0.218	0.194
-711.689	800.000	-0.102	-0.310
-710.675	-200.000	-0.028	0.216
-709.660	395.680	-0.117	-0.247
-708.645	158.691	-0.152	0.212
-707.631	-103.460	-0.196	0.046
-706.616	-61.069	0.261	-0.111
-705.602	-200.000	-0.080	0.376
-704.587	13.768	-0.145	0.113
-703.572	800.000	0.128	-0.360
-702.558	82.768	-0.084	-0.092
-701.543	-200.000	0.081	-0.519
-700.529	37.730	0.160	-0.143
-699.514	-122.938	-0.084	-0.014
-698.499	-141.492	0.211	-0.021
-697.485	-9.007	-0.190	-0.128
-696.470	88.073	0.084	0.094
-695.456	-123.671	0.037	0.006
-694.441	-90.123	-0.102	0.030
-693.426	29.150	0.029	-0.025
-692.412	35.311	-0.160	0.141
-691.397	-116.872	-0.095	-0.018
-690.383	386.083	0.191	-0.397
-689.368	800.000	0.023	0.095
-688.354	800.000	-0.076	-0.249
-687.339	-71.603	0.222	0.083
-686.324	-136.990	0.193	-0.022
-685.310	-200.000	0.001	-0.073
-684.295	431.851	-0.005	0.010
-683.281	107.675	0.222	0.265
-682.266	-15.991	-0.373	0.238
-681.251	80.811	0.065	0.071
-680.237	230.692	-0.201	0.330
-679.222	-96.186	-0.222	0.059
-678.208	199.476	-0.021	0.032
-677.193	-74.480	0.060	0.022
-676.178	-200.000	0.020	0.307
-675.164	30.421	-0.218	-0.187
-674.149	41.056	0.388	0.352
-673.135	-10.809	-0.197	0.131
-672.120	-172.357	-0.088	0.003
-671.105	800.000	-0.032	-0.136
-670.091	561.107	0.030	-0.072
-669.076	379.329	-0.196	-0.404
-668.062	-125.628	0.272	-0.041
-667.047	-135.166	0.100	-0.012
-666.032	-58.408	0.282	-0.123
-665.018	34.006	0.242	-0.212
-664.003	-67.464	-0.138	0.054
-662.989	-103.394	0.108	0.026
-661.974	-106.227	0.127	0.029
-660.959	-47.338	0.159	-0.078
-659.945	-87.152	0.242	0.074
-658.930	622.025	0.013	-0.034
-657.916	-110.750	0.112	-0.023
-656.901	-131.266	0.182	0.024
-655.886	-76.749	-0.230	0.081
-654.872	-115.047	0.186	0.035
-653.857	-39.025	-0.218	0.115
-652.843	101.736	-0.050	0.059
-651.828	220.333	0.046	-0.074
-650.814	800.000	0.052	-0.163
-649.799	-100.109	0.198	0.049
-648.784	-200.000	0.014	-0.251
-647.770	120.639	0.050	-0.062
-646.755	-187.214	-0.221	-0.003
-645.741	-200.000	-0.037	0.191
-644.726	47.582	-0.400	0.375
-643.711	800.000	-0.032	-0.100
-642.697	-102.899	-0.387	0.092
-641.682	3.260	-0.085	0.062
-640.668	-69.783	0.131	0.050
-639.653	-10.178	-0.182	0.121
-638.638	-41.572	0.240	-0.124
-637.624	106.384	-0.153	0.182
-636.609	20.687	0.121	-0.098
-635.595	-111.276	-0.229	0.047
-634.580	-73.698	-0.075	0.027
-633.565	285.369	0.016	-0.029
-632.551	800.000	-0.071	0.263
-631.536	149.789	-0.085	-0.116
-630.522	320.361	0.093	0.178
-629.507	-46.543	-0.192	0.094
-628.492	-161.853	0.278	-0.014
-627.478	-79.458	0.395	-0.134
-626.463	205.191	0.146	-0.227
-625.449	482.068	0.071	-0.161
-624.434	-77.927	0.353	-0.122
-623.419	129.124	0.035	0.044
-622.405	129.938	-0.064	0.083
-621.390	-54.043	-0.200	-0.091
-620.376	24.254	-0.285	-0.236
-619.361	319.458	0.140	-0.267
-618.346	-172.519	0.203	-0.006
-617.332	-46.515	0.167	0.082
-616.317	-100.563	0.182	0.045
-615.303	498.495	-0.193	0.446
-614.288	-200.000	-0.029	-0.161
-613.273	-150.484	0.278	-0.021
-612.259	75.555	-0.354	0.375
-611.244	464.338	-0.101	-0.226
-610.230	-3.101	-0.338	-0.236
-609.215	-122.491	-0.126	0.020
-608.201	30.472	-0.160	0.137
-607.186	-34.071	-0.319	0.176
-606.171	391.202	-0.017	-0.036
-605.157	-93.733	0.248	0.069
-604.142	95.100	0.093	-0.106
-603.128	-200.000	0.051	0.361
-602.113	-67.324	0.143	0.056
-601.098	800.000	-0.035	-0.134
-600.084	-51.054	0.144	0.068
-599.069	136.209	-0.224	-0.293
-598.055	-121.548	0.056	-0.009
-597.040	-89.537	0.063	0.018
-596.025	124.208	-0.058	0.073
-595.011	-57.360	0.070	0.031
-593.996	800.000	0.058	-0.181
-592.982	-108.033	-0.421	-0.091
-591.967	-147.822	0.244	0.020
-590.952	-9.792	-0.277	0.185
-589.938	-200.000	-0.007	0.096
-588.923	158.258	-0.157	-0.218
-587.909	-84.007	-0.304	-0.097
-586.894	-200.000	0.025	0.129
-585.879	800.000	-0.034	-0.136
-584.865	372.665	-0.058	-0.119
-583.850	-200.000	0.028	0.356
-582.836	-26.685	-0.154	0.090
-581.821	200.292	0.086	-0.133
-580.806	-154.129	0.396	0.027
-579.792	65.687	-0.186	-0.188
-578.777	800.000	-0.072	-0.309
-577.763	-200.000	-0.012	0.099
-576.748	-200.000	-0.018	-0.245
-575.733	-88.209	0.238	0.071
-574.719	-200.000	0.009	0.044
-573.704	-92.994	-0.097	-0.027
-572.690	-200.000	-0.033	0.159
-571.675	800.000	0.077	0.296
-570.661	-200.000	0.026	0.146
-569.646	71.830	-0.224	0.233
-568.631	-49.643	0.027	-0.013
-567.617	-200.000	-0.019	-0.237
-566.602	-42.013	0.271	0.139
-565.588	447.634	0.065	0.144
-564.573	188.868	0.222	-0.332
-563.558	-50.491	-0.354	-0.167
-562.544	37.792	0.331	-0.294
-561.529	80.555	0.131	-0.141
-560.515	239.429	0.060	-0.100
-559.500	498.448	-0.058	-0.133
-558.485	-4.623	0.181	0.125
-557.471	751.620	-0.061	-0.165
-556.456	294.047	0.053	-0.098
-555.442	-200.000	-0.007	-0.438
-554.427	255.848	-0.104	-0.178
-553.412	-145.354	0.299	0.027
-552.398	-12.162	-0.065	0.043
-551.383	-200.000	0.010	-0.324
-550.369	111.121	0.078	0.094
-549.354	800.000	-0.076	-0.283
-548.339	218.389	-0.085	0.136
-547.325	97.558	0.216	-0.248
-546.310	-147.142	-0.335	0.029
-545.296	-200.000	0.032	-0.289
-544.281	800.000	0.030	0.129
-543.266	99.964	-0.356	-0.412
-542.252	195.632	-0.078	0.119
-541.237	405.751	-0.141	0.297
-540.223	-14.483	0.274	0.176
-539.208	800.000	-0.069	0.197
-538.193	-200.000	0.011	0.134
-537.179	-163.422	-0.241	-0.011
-536.164	-200.000	-0.063	-0.391
-535.150	411.130	-0.102	-0.216
-534.135	-200.000	-0.003	0.043
-533.121	-105.837	-0.075	-0.017
-532.106	146.338	0.245	0.329
-531.091	800.000	-0.028	0.116
-530.077	284.954	-0.076	0.137
-529.062	-200.000	-0.002	-0.496
-528.048	-136.245	0.301	-0.035
-527.033	800.000	-0.085	-0.360
-526.018	800.000	0.050	0.177
-525.004	-200.000	0.072	-0.382
-523.989	440.056	-0.184	-0.401
-522.975	800.000	0.080	0.280
-521.960	-56.241	-0.066	0.030
-520.945	-70.131	-0.151	-0.057
-519.931	205.441	-0.049	-0.077
-518.916	800.000	0.075	-0.230
-517.902	62.289	-0.092	0.092
-516.887	55.453	-0.107	0.103
-515.872	485.127	-0.092	-0.210
-514.858	-109.820	-0.220	0.046
-513.843	-145.779	0.209	0.019
-512.829	-75.804	-0.320	-0.113
-511.814	-200.000	0.048	0.311
-510.799	-29.068	0.182	-0.104
-509.785	800.000	0.054	0.199
-508.770	-44.189	0.304	-0.152
-507.756	-44.669	-0.198	-0.099
-506.741	-91.252	0.290	-0.083
-505.726	-117.305	0.201	0.036
-504.712	110.594	0.252	0.302
-503.697	764.126	0.148	0.402
-502.683	36.852	-0.051	-0.045
-501.668	725.030	0.035	-0.092
-500.653	11.018	-0.383	0.292
-499.639	12.127	-0.279	-0.214
-498.624	151.106	-0.149	0.202
-497.610	65.329	-0.143	-0.144
-496.595	56.729	0.140	0.136
-495.581	-31.309	-0.161	0.090
-494.566	800.000	-0.068	0.297
-493.551	37.021	0.043	0.038
-492.537	13.343	-0.090	0.070
-491.522	33.598	-0.114	-0.099
-490.508	125.037	-0.144	-0.181
-489.493	800.000	0.122	0.527
-488.478	52.012	0.274	-0.260
-487.464	-200.000	-0.001	-0.485
-486.449	123.907	0.227	0.284
-485.435	226.175	-0.078	-0.127
-484.420	-88.354	0.319	-0.095
-483.405	310.970	-0.049	-0.091
-482.391	-200.000	0.005	0.249
-481.376	109.123	0.099	0.119
-480.362	-58.878	-0.073	0.031
-479.347	-25.200	-0.170	-0.100
-478.332	14.234	-0.193	-0.150
-477.318	10.422	-0.127	-0.096
-476.303	9.878	0.066	-0.050
-475.289	118.238	-0.114	-0.141
-474.274	-76.243	0.074	0.026
-473.259	201.470	-0.055	-0.085
-472.245	-36.413	-0.313	-0.168
-471.230	-200.000	-0.060	0.304
-470.216	-182.333	-0.182	0.003
-469.201	-9.626	-0.229	0.152
-468.186	-200.000	0.004	-0.047
-467.172	120.606	-0.114	-0.141
-466.157	129.041	-0.046	0.059
-465.143	-47.270	-0.307	0.149
-464.128	6.103	0.264	-0.195
-463.113	-121.778	-0.241	-0.040
-462.099	-159.243	0.174	0.010
-461.084	319.126	-0.025	0.046
-460.070	-200.000	0.017	-0.142
-459.055	-200.000	-0.003	0.125
-458.040	-200.000	0.019	0.181
-457.026	176.987	-0.159	-0.230
-456.011	18.297	0.266	0.211
-454.997	-200.000	0.140	0.000
-453.982	-168.806	-0.219	-0.008
-452.968	629.072	-0.127	0.319
-451.953	-55.319	0.193	0.086
-450.938	-70.659	-0.241	-0.091
-449.924	-166.702	0.084	-0.003
-448.909	-200.000	-0.047	-0.245
-447.895	-9.613	0.083	0.055
-446.880	800.000	0.022	0.066
-445.865	-156.056	0.145	0.009
-444.851	17.606	0.058	-0.046
-443.836	-200.000	0.007	0.046
-442.822	84.759	-0.034	-0.037
-441.807	165.871	0.122	-0.171
-440.792	-19.591	0.158	0.097
-439.778	800.000	-0.071	0.224
-438.763	403.969	0.083	-0.174
-437.749	-200.000	-0.047	-0.353
-436.734	-200.000	-0.042	-0.266
-435.719	426.180	0.069	0.149
-434.705	562.352	0.126	0.304
-433.690	155.226	-0.144	0.197
-432.676	15.092	-0.244	-0.190
-431.661	717.759	-0.092	0.243
-430.646	-200.000	-0.016	-0.118
-429.632	250.464	0.088	0.148
-428.617	71.693	0.097	-0.100
-427.603	593.000	0.063	0.154
-426.588	-32.910	-0.139	-0.077
-425.573	-200.000	0.028	0.167
-424.559	800.000	-0.054	0.161
-423.544	80.351	0.076	-0.082
-422.530	-200.000	-0.017	0.095
-421.515	-9.087	-0.092	0.061
-420.500	800.000	-0.073	0.249
-419.486	178.876	-0.183	0.265
-418.471	152.116	-0.038	-0.051
-417.457	317.763	0.087	0.163
-416.442	-200.000	-0.036	-0.226
-415.428	475.792	-0.125	-0.280
-414.413	-200.000	0.010	0.564
-413.398	-116.034	-0.183	0.034
-412.384	518.507	0.108	-0.251
-411.369	48.947	0.148	0.138
-410.355	77.044	0.114	0.121
-409.340	-109.104	-0.225	-0.048
-408.325	15.124	0.119	0.093
-407.311	-87.109	-0.279	-0.084
-406.296	28.154	-0.173	0.145
-405.282	118.701	-0.264	0.324
-404.267	161.043	-0.125	-0.174
-403.252	-200.000	-0.000	0.036
-402.238	800.000	-0.100	-0.323
-401.223	-200.000	-0.022	0.114
-400.209	-97.805	0.175	-0.045
-399.194	-200.000	0.077	-0.374
-398.179	-200.000	0.060	-0.262
-397.165	256.094	0.090	0.153
-396.150	-105.831	-0.103	0.023
-395.136	66.545	0.140	0.142
-394.121	800.000	-0.066	0.279
-393.106	299.697	0.024	-0.044
-392.092	124.233	0.105	0.131
-391.077	438.050	0.076	-0.165
-390.063	352.640	0.051	0.100
-389.048	-44.859	-0.149	0.074
-388.033	70.654	-0.127	-0.130
-387.019	-25.786	0.385	0.225
-386.004	95.014	-0.109	0.123
-384.990	238.745	-0.038	-0.062
-383.975	-200.000	-0.084	-0.569
-382.960	-2.484	0.330	-0.230
-381.946	-163.722	-0.209	-0.010
-380.931	-192.051	-0.114	-0.001
-379.917	7.722	0.242	0.180
-378.902	130.434	-0.147	-0.187
-377.888	199.015	0.059	-0.089
-376.873	140.221	0.138	0.181
-375.858	285.421	-0.113	-0.202
-374.844	-28.726	-0.157	0.090
-373.829	800.000	0.108	0.312
-372.815	-7.620	0.098	0.066
-371.800	-37.054	0.288	-0.153
-370.785	204.465	0.150	-0.231
-369.771	-38.961	0.403	-0.211
-368.756	16.872	-0.085	0.067
-367.742	-114.384	0.204	-0.039
-366.727	129.261	-0.219	-0.277
-365.712	-200.000	-0.035	-0.206
-364.698	-200.000	-0.024	0.163
-363.683	59.288	-0.086	0.084
-362.669	-107.009	0.144	-0.031
-361.654	401.980	-0.080	0.166
-360.639	100.161	0.228	-0.262
-359.625	800.000	0.039	-0.125
-358.610	-200.000	-0.035	-0.196
-357.596	-27.781	-0.101	-0.058
-356.581	65.774	-0.228	-0.230
-355.566	-136.747	0.237	-0.027
-354.552	-200.000	-0.017	0.115
-353.537	-11.278	-0.330	0.215
-352.523	-200.000	0.040	-0.381
-351.508	43.943	0.390	-0.354
-350.493	0.284	0.347	-0.246
-349.479	-164.176	-0.120	-0.005
-348.464	47.776	-0.181	-0.168
-347.450	113.848	0.136	-0.164
-346.435	-200.000	0.003	-0.061
-345.420	-161.243	0.397	-0.020
-344.406	-200.000	-0.006	-0.050
-343.391	578.824	-0.043	0.103
-342.377	-200.000	-0.020	0.203
-341.362	-128.895	0.384	-0.054
-340.348	-200.000	-0.051	0.257
-339.333	115.628	-0.104	0.126
-338.318	147.455	-0.308	0.411
-337.304	6.714	-0.058	0.043
-336.289	606.993	0.046	0.113
-335.275	376.945	0.100	0.203
-334.260	-55.899	0.031	-0.014
-333.245	67.456	-0.162	0.163
-332.231	466.767	0.122	-0.272
-331.216	135.134	0.237	-0.305
-330.202	800.000	0.053	-0.161
-329.187	357.534	-0.171	0.338
-328.172	-59.015	-0.223	0.095
-327.158	-103.310	0.138	0.032
-326.143	-53.171	0.103	0.047
-325.129	-101.564	0.123	0.030
-324.114	-176.913	0.271	0.007
-323.099	-76.908	-0.091	0.032
-322.085	20.575	0.108	0.086
-321.070	-200.000	0.022	-0.277
-320.056	16.625	-0.158	-0.124
-319.041	-200.000	-0.025	-0.211
-318.026	800.000	-0.125	0.409
-317.012	-6.593	-0.298	0.201
-315.997	-0.483	-0.209	0.147
-314.983	-60.344	-0.156	-0.066
-313.968	800.000	-0.033	-0.107
-312.953	18.857	-0.209	-0.166
-311.939	-200.000	0.028	0.208
-310.924	-137.356	0.066	0.007
-309.910	12.368	-0.294	-0.224
-308.895	-200.000	0.018	0.234
-307.880	800.000	0.053	0.148
-306.866	-67.672	-0.163	0.063
-305.851	-200.000	-0.007	0.167
-304.837	61.153	-0.223	0.219
-303.822	269.534	-0.132	-0.229
-302.807	98.285	-0.065	-0.074
-301.793	800.000	-0.073	0.201
-300.778	-123.994	-0.257	-0.040
-299.764	-162.621	-0.382	-0.019
-298.749	65.304	0.042	0.042
-297.735	-164.641	0.125	0.006
-296.720	83.701	0.144	-0.155
-295.705	-200.000	-0.011	-0.113
-294.691	72.327	-0.118	0.122
-293.676	-144.566	-0.119	-0.011
-292.662	40.840	0.250	-0.223
-291.647	156.023	0.163	-0.222
-290.632	-200.000	0.031	-0.143
-289.618	-42.532	0.084	-0.042
-288.603	78.806	0.092	-0.097
-287.589	327.695	-0.118	-0.223
-286.574	800.000	-0.091	-0.254
-285.559	-188.271	-0.114	0.001
-284.545	-200.000	-0.028	-0.131
-283.530	250.656	-0.052	0.087
-282.516	-200.000	-0.053	0.310
-281.501	624.118	0.112	0.279
-280.486	335.089	0.111	0.213
-279.472	800.000	-0.159	0.487
-278.457	-142.857	-0.125	0.012
-277.443	-200.000	0.016	0.213
-276.428	126.131	-0.109	-0.136
-275.413	126.617	-0.086	0.108
-274.399	-200.000	0.033	-0.157
-273.384	168.541	0.066	0.092
-272.370	70.703	0.066	0.067
-271.355	73.580	-0.085	-0.088
-270.340	7.077	-0.141	-0.104
-269.326	746.631	0.051	0.136
-268.311	800.000	-0.018	-0.062
-267.297	2.661	-0.153	-0.110
-266.282	-200.000	-0.075	-0.364
-265.267	9.079	-0.083	-0.062
-264.253	-60.821	0.385	0.161
-263.238	293.086	0.019	-0.035
-262.224	64.912	0.131	-0.131
-261.209	800.000	0.058	-0.169
-260.195	28.137	-0.349	0.291
-259.180	-32.710	0.178	-0.098
-258.165	-200.000	-0.009	0.441
-257.151	-56.558	0.270	-0.118
-256.136	-100.093	0.322	0.079
-255.122	-200.000	-0.012	0.111
-254.107	800.000	-0.062	-0.258
-253.092	800.000	0.048	0.186
-252.078	165.941	-0.036	-0.051
-251.063	-145.333	-0.183	-0.016
-250.049	800.000	0.052	0.141
-249.034	746.022	0.081	-0.217
-248.019	800.000	0.197	-0.564
-247.005	150.098	0.204	0.273
-245.990	-28.987	0.141	0.080
-244.976	-55.874	-0.149	0.066
-243.961	308.097	0.132	0.243
-242.946	312.044	-0.051	0.095
-241.932	73.060	-0.100	0.104
-240.917	44.924	-0.157	0.143
-239.903	415.237	0.168	0.354
-238.888	800.000	-0.074	-0.291
-237.873	-118.705	0.119	-0.021
-236.859	-54.973	0.141	0.063
-235.844	-191.721	0.105	-0.001
-234.830	-69.955	0.154	-0.058
-233.815	89.767	0.197	-0.218
-232.800	-102.234	0.140	0.033
-231.786	800.000	-0.097	0.383
-230.771	-33.239	-0.286	0.156
-229.757	119.059	-0.072	0.088
-228.742	411.983	0.146	0.306
-227.727	800.000	-0.024	0.080
-226.713	-88.240	0.244	-0.072
-225.698	-200.000	0.020	0.118
-224.684	-200.000	-0.219	0.000
-223.669	800.000	0.042	-0.124
-222.655	155.788	-0.028	-0.038
-221.640	-62.732	0.230	0.094
-220.625	-102.786	0.448	0.105
-219.611	70.597	0.137	-0.140
-218.596	244.285	-0.104	0.173
-217.582	800.000	0.031	-0.091
-216.567	-92.898	-0.235	-0.065
-215.552	-200.000	-0.016	-0.370
-214.538	169.663	0.176	-0.248
-213.523	-200.000	-0.067	-0.293
-212.509	56.133	-0.087	-0.083
-211.494	25.522	0.231	0.190
-210.479	74.654	0.402	-0.418
-209.465	171.308	-0.112	0.159
-208.450	800.000	0.018	-0.051
-207.436	124.094	-0.070	-0.087
-206.421	-200.000	0.039	-0.222
-205.406	-68.117	0.305	-0.117
-204.392	532.657	-0.038	0.090
-203.377	114.007	0.147	0.176
-202.363	-172.194	-0.097	0.003
-201.348	-129.735	-0.143	-0.019
-200.333	420.201	0.043	0.091
-199.319	-40.159	-0.186	0.095
-198.304	-51.861	-0.191	-0.088
-197.290	-200.000	-0.072	0.487
-196.275	-188.788	0.287	-0.003
-195.260	202.306	0.244	-0.371
-194.246	-200.000	0.023	0.305
-193.231	-110.559	-0.378	0.077
-192.217	-41.807	-0.258	-0.130
-191.202	409.216	0.082	-0.172
-190.187	26.101	0.032	0.026
-189.173	-62.218	0.095	0.039
-188.158	-90.509	0.151	-0.043
-187.144	448.361	0.083	-0.180
-186.129	800.000	-0.037	-0.102
-185.114	-22.765	0.162	0.097
-184.100	-77.760	-0.236	0.080
-183.085	-59.238	0.249	0.106
-182.071	141.576	0.247	0.322
-181.056	82.838	0.165	-0.177
-180.042	-21.713	-0.149	-0.089
-179.027	174.406	0.154	-0.220
-178.012	70.778	0.341	0.348
-176.998	-58.670	0.126	0.054
-175.983	76.377	-0.113	-0.118
-174.969	52.317	-0.236	0.222
-173.954	339.784	0.154	0.296
-172.939	-30.929	0.139	0.077
-171.925	-60.365	0.250	-0.105
-170.910	144.072	-0.368	0.483
-169.896	-17.081	0.048	-0.030
-168.881	-41.747	0.073	0.037
-167.866	74.515	-0.131	-0.136
-166.852	-63.347	-0.236	-0.096
-165.837	-27.574	-0.046	-0.026
-164.823	-68.819	0.200	0.076
-163.808	141.913	-0.220	0.288
-162.793	-16.722	0.141	0.088
-161.779	709.415	0.062	-0.160
-160.764	-118.650	0.069	-0.012
-159.750	-200.000	0.036	0.295
-158.735	800.000	-0.039	0.108
-157.720	800.000	0.042	0.128
-156.706	648.989	0.029	-0.073
-155.691	800.000	0.028	-0.081
-154.677	31.828	-0.142	-0.121
-153.662	149.708	0.216	0.288
-152.647	-102.076	-0.251	0.059
-151.633	-31.182	0.521	-0.289
-150.618	800.000	0.170	-0.509
-149.604	800.000	-0.077	-0.280
-148.589	123.736	0.079	-0.098
-147.574	216.921	-0.134	-0.209
-146.560	800.000	0.098	-0.319
-145.545	-24.670	-0.250	0.146
-144.531	-200.000	-0.028	-0.130
-143.516	800.000	-0.077	0.234
-142.502	211.824	-0.146	0.226
-141.487	-134.036	0.348	-0.042
-140.472	-144.148	0.239	0.022
-139.458	29.035	0.104	-0.086
-138.443	19.483	0.182	0.144
-137.429	13.473	-0.055	0.042
-136.414	10.551	0.181	0.136
-135.399	-181.951	0.402	0.008
-134.385	94.551	0.160	0.179
-133.370	522.779	-0.107	0.247
-132.356	-200.000	-0.033	0.218
-131.341	-200.000	0.018	-0.248
-130.326	363.496	-0.066	-0.130
-129.312	-200.000	0.013	0.334
-128.297	165.662	0.094	0.131
-127.283	-85.703	0.033	0.010
-126.268	14.220	0.245	0.187
-125.253	127.786	-0.224	-0.280
-124.239	-9.144	0.154	0.101
-123.224	-67.992	0.116	0.045
-122.210	-200.000	-0.014	-0.119
-121.195	-200.000	0.024	-0.233
-120.180	-80.410	0.281	0.092
-119.166	100.886	0.187	0.213
-118.151	-131.702	-0.233	-0.030
-117.137	-106.068	-0.403	-0.089
-116.122	800.000	0.121	-0.357
-115.107	-200.000	0.017	-0.167
-114.093	578.906	-0.125	-0.301
-113.078	-149.891	0.408	-0.031
-112.064	708.025	-0.135	0.351
-111.049	-137.293	0.162	0.018
-110.034	-200.000	0.029	0.238
-109.020	388.718	0.032	-0.065
-108.005	-200.000	0.056	-0.272
-106.991	-200.000	0.014	-0.205
-105.976	800.000	0.025	-0.090
-104.962	-119.464	-0.311	0.053
-103.947	-33.930	-0.103	0.056
-102.932	159.448	0.042	0.057
-101.918	597.603	0.092	0.224
-100.903	112.896	0.220	-0.262
-99.889	200.074	-0.086	0.130
-98.874	276.309	0.041	-0.071
-97.859	168.627	0.057	0.080
-96.845	-54.516	0.250	0.111
-95.830	-200.000	-0.016	-0.308
-94.816	-200.000	-0.018	0.141
-93.801	-77.638	-0.193	0.066
-92.786	-115.541	-0.396	0.073
-91.772	800.000	-0.073	0.235
-90.757	-176.824	0.317	-0.008
-89.743	-16.976	0.116	-0.072
-88.728	6.847	-0.242	-0.177
-87.713	382.933	0.082	0.166
-86.699	182.301	-0.099	0.143
-85.684	-200.000	0.070	0.446
-84.670	27.318	0.181	0.150
-83.655	-200.000	0.048	-0.422
-82.640	-57.963	-0.222	-0.095
-81.626	-151.220	-0.259	0.019
-80.611	-200.000	-0.047	0.253
-79.597	-31.839	-0.228	-0.125
-78.582	-61.035	-0.319	-0.132
-77.567	-77.609	-0.321	-0.109
-76.553	-200.000	-0.000	0.153
-75.538	193.844	-0.113	-0.169
-74.524	-68.055	-0.031	-0.012
-73.509	-200.000	0.013	-0.069
-72.494	46.202	0.124	0.113
-71.480	180.798	0.218	0.314
-70.465	196.211	-0.121	0.181
-69.451	19.496	0.103	-0.081
-68.436	314.953	0.099	0.183
-67.422	-200.000	-0.085	0.405
-66.407	278.299	0.112	0.196
-65.392	125.800	-0.126	-0.156
-64.378	-169.113	0.075	-0.003
-63.363	-200.000	-0.028	0.247
-62.349	-137.304	0.192	-0.021
-61.334	99.619	-0.945	-1.072
-60.319	221.656	0.421	0.663
-59.305	-200.000	0.048	-0.873
-58.290	162.894	0.798	1.098
-57.276	234.262	0.857	1.385
-56.261	-200.000	106.254	580.257
-55.246	464.602	1453.915	3187.805
-54.232	150.472	2639.565	3514.456
-53.217	101.030	2279.400	2599.615
-52.203	39.274	1895.742	1663.438
-51.188	33.637	1685.386	1436.267
-50.173	30.936	1642.152	1379.408
-49.159	49.621	1694.279	1564.125
-48.144	50.091	1711.020	1583.053
-47.130	33.010	1668.732	1417.143
-46.115	30.365	1654.371	1385.192
-45.100	30.241	1649.947	1380.508
-44.086	30.226	1647.094	1377.953
-43.071	30.224	1643.978	1375.281
-42.057	30.189	1641.800	1373.146
-41.042	30.186	1640.382	1371.884
-40.027	30.215	1638.348	1370.341
-39.013	30.199	1635.999	1368.205
-37.998	30.105	1634.887	1366.525
-36.984	30.268	1633.004	1366.096
-35.969	30.223	1632.144	1364.996
-34.954	30.291	1630.283	1363.880
-33.940	30.345	1627.893	1362.222
-32.925	30.288	1626.672	1360.734
-31.911	30.317	1624.771	1359.300
-30.896	30.366	1622.945	1358.073
-29.881	30.190	1621.837	1355.807
-28.867	30.278	1619.800	1354.692
-27.852	30.320	1618.367	1353.748
-26.838	30.227	1617.382	1352.194
-25.823	30.235	1616.035	1351.072
-24.809	30.422	1613.983	1350.665
-23.794	30.335	1613.107	1349.240
-22.779	30.286	1611.580	1347.554
-21.765	30.307	1609.793	1346.163
-20.750	30.276	1608.105	1344.469
-19.736	30.383	1606.589	1343.927
-18.721	30.452	1605.098	1343.125
-17.706	30.303	1604.223	1341.264
-16.692	30.300	1602.420	1339.678
-15.677	30.281	1601.701	1338.889
-14.663	30.330	1599.549	1337.388
-13.648	30.315	1598.686	1336.507
-12.633	30.397	1596.806	1335.473
-11.619	30.239	1595.564	1333.244
-10.604	30.405	1593.853	1332.952
-9.590	30.368	1592.707	1331.677
-8.575	30.350	1591.746	1330.689
-7.560	30.326	1590.707	1329.598
-6.546	30.348	1589.610	1328.788
-5.531	30.255	1588.619	1327.239
-4.517	30.326	1587.125	1326.447
-3.502	30.294	1585.845	1325.095
-2.487	30.439	1584.158	1324.668
-1.473	30.008	1572.216	1311.577
-0.458	27.010	1552.676	1274.224
0.556	21.484	1553.644	1241.225
1.571	19.173	1576.410	1242.648
2.586	18.689	1589.127	1249.042
3.600	16.918	1536.891	1195.400
4.615	9.511	1427.991	1061.915
5.629	1.799	1363.686	965.285
6.644	0.236	1355.434	949.509
7.659	0.090	1353.764	947.336
8.673	0.003	1353.268	946.357
9.688	0.041	1351.332	945.158
10.702	-0.097	1348.088	941.943
11.717	3.555	1353.904	968.885
12.731	12.091	1366.740	1031.900
13.746	17.282	1374.306	1070.285
14.761	17.223	1373.204	1068.965
15.775	16.382	1369.260	1060.520
16.790	15.261	1367.085	1051.712
17.804	14.482	1365.037	1045.164
18.819	14.182	1363.859	1042.289
19.834	13.877	1362.217	1039.034
20.848	13.564	1361.192	1036.206
21.863	13.260	1360.086	1033.373
22.877	13.205	1358.772	1031.934
23.892	13.113	1358.001	1030.688
24.907	13.102	1357.306	1029.995
25.921	13.188	1356.183	1029.591
26.936	13.176	1355.406	1028.837
27.950	13.223	1354.351	1028.236
28.965	13.322	1352.873	1027.640
29.980	13.393	1352.433	1027.654
30.994	13.365	1351.880	1026.966
32.009	13.370	1350.825	1026.109
33.023	13.428	1349.804	1025.601
34.038	13.362	1348.214	1023.892
35.053	13.269	1347.448	1022.645
36.067	13.369	1346.288	1022.294
37.082	13.399	1345.501	1021.789
38.096	13.382	1345.040	1021.244
39.111	13.407	1343.665	1020.266
40.126	13.220	1342.988	1018.506
41.140	13.221	1342.257	1017.866
42.155	13.159	1341.837	1017.078
43.169	13.161	1341.665	1016.870
44.184	13.203	1340.930	1016.483
45.199	13.212	1340.587	1016.186
46.213	13.127	1340.626	1015.607
47.228	13.191	1339.729	1015.226
48.242	13.313	1337.885	1014.489
49.257	13.234	1336.673	1012.997
50.271	13.286	1335.112	1012.045
51.286	13.192	1334.341	1010.795
52.301	13.245	1332.824	1009.881
53.315	13.152	1332.139	1008.703
54.330	13.244	1330.494	1007.926
55.344	13.118	1329.519	1006.335
56.359	13.168	1328.562	1005.822
57.374	13.139	1327.893	1005.052
58.388	13.155	1326.715	1004.170
59.403	13.058	1326.465	1003.298
60.417	13.105	1325.216	1002.555
61.432	12.997	1325.062	1001.692
62.447	13.070	1323.575	1000.922
63.461	12.916	1322.938	999.418
64.476	13.001	1321.933	999.087
65.490	13.150	1319.871	998.342
66.505	13.152	1318.657	997.344
67.520	13.025	1317.503	995.617
68.534	13.223	1316.083	995.648
69.549	13.079	1315.603	994.330
70.563	13.081	1314.106	993.124
71.578	13.030	1313.293	992.114
72.593	13.089	1312.015	991.417
73.607	12.985	1311.619	990.406
74.622	12.964	1310.628	989.444
75.636	12.997	1310.285	989.297
76.651	12.970	1309.341	988.333
77.666	13.008	1308.803	988.069
78.680	12.980	1308.263	987.404
79.695	13.093	1306.899	986.965
80.709	13.047	1306.502	986.298
81.724	13.116	1305.573	985.921
82.739	13.127	1304.732	985.270
83.753	13.213	1303.804	984.992
84.768	13.216	1302.921	984.257
85.782	13.341	1301.597	983.910
86.797	13.254	1300.407	982.406
87.812	13.250	1299.117	981.321
88.826	13.227	1297.850	980.144
89.841	13.284	1296.967	979.727
90.855	13.362	1295.994	979.365
91.870	13.360	1295.379	978.806
92.884	13.358	1294.244	977.846
93.899	13.418	1293.175	977.310
94.914	13.410	1292.530	976.685
95.928	13.319	1292.051	975.700
96.943	13.260	1291.086	974.538
97.957	13.264	1290.442	973.992
98.972	13.341	1288.966	973.240
99.987	13.220	1288.732	972.266
101.001	13.326	1287.070	971.553
102.016	13.221	1286.281	970.254
103.030	13.337	1285.087	969.947
104.045	13.262	1284.401	968.903
105.060	13.236	1283.232	967.781
106.074	13.155	1281.931	966.245
107.089	13.082	1280.491	964.644
108.103	13.030	1279.581	963.574
109.118	13.142	1278.251	963.138
110.133	13.181	1276.898	962.262
111.147	13.200	1274.888	960.771
112.162	13.232	1273.972	960.182
113.176	13.239	1273.425	959.726
114.191	13.241	1271.954	958.541
115.206	13.254	1270.956	957.781
116.220	13.192	1270.019	956.631
117.235	13.218	1268.753	955.747
118.249	13.199	1268.014	954.991
119.264	13.220	1266.598	953.963
120.279	13.108	1266.049	952.817
121.293	13.120	1264.346	951.523
122.308	13.114	1263.316	950.631
123.322	13.110	1262.621	949.997
124.337	13.089	1261.454	948.917
125.352	13.102	1260.158	947.929
126.366	13.208	1258.943	947.541
127.381	13.127	1258.321	946.527
128.395	13.224	1256.684	945.764
129.410	13.161	1255.979	944.788
130.424	13.302	1255.090	944.845
131.439	13.239	1254.681	944.095
132.454	13.254	1253.540	943.239
133.468	13.253	1252.878	942.651
134.483	13.301	1251.763	942.002
135.497	13.380	1250.408	941.345
136.512	13.298	1249.160	939.856
137.527	13.228	1248.117	938.590
138.541	13.139	1247.318	937.402
139.556	13.298	1245.496	936.852
140.570	13.273	1244.571	935.932
141.585	13.377	1243.366	935.532
142.600	13.375	1241.993	934.402
143.614	13.422	1240.962	933.811
144.629	13.488	1240.346	933.639
145.643	13.457	1239.162	932.490
146.658	13.331	1237.882	930.736
147.673	13.293	1236.212	929.184
148.687	13.343	1235.221	928.635
149.702	13.237	1234.238	927.220
150.716	13.233	1233.139	926.290
151.731	13.215	1231.768	925.077
152.746	13.231	1230.795	924.354
153.760	13.284	1229.512	923.608
154.775	13.348	1228.232	922.920
155.789	13.404	1227.271	922.427
156.804	13.420	1226.333	921.731
157.819	13.499	1225.003	921.087
158.833	13.556	1224.107	920.652
159.848	13.492	1223.849	920.016
160.862	13.501	1222.569	919.022
161.877	13.406	1221.268	917.441
162.892	13.448	1220.056	916.682
163.906	13.438	1219.373	916.031
164.921	13.506	1218.336	915.547
165.935	13.507	1217.599	914.916
166.950	13.536	1216.818	914.409
167.964	13.453	1216.315	913.493
168.979	13.563	1215.301	913.258
169.994	13.396	1214.844	911.912
171.008	13.516	1214.020	911.875
172.023	13.505	1213.386	911.256
173.037	13.569	1212.426	910.805
174.052	13.591	1211.115	909.863
175.067	13.630	1210.430	909.480
176.081	13.584	1209.507	908.457
177.096	13.610	1208.577	907.821
178.110	13.543	1207.498	906.561
179.125	13.571	1206.331	905.760
180.140	13.596	1204.915	904.753
181.154	13.650	1203.868	904.177
182.169	13.646	1202.844	903.310
183.183	13.708	1201.513	902.569
184.198	13.736	1200.712	902.036
185.213	13.764	1199.207	900.977
186.227	13.760	1198.459	900.313
187.242	13.661	1197.832	899.229
188.256	13.823	1196.472	899.007
189.271	13.814	1195.745	898.330
190.286	13.735	1194.717	897.052
191.300	13.657	1193.469	895.611
192.315	13.579	1193.340	895.018
193.329	13.678	1192.519	894.857
194.344	13.630	1192.124	894.222
195.359	13.692	1191.268	893.833
196.373	13.795	1190.446	893.692
197.388	13.750	1189.963	893.007
198.402	13.851	1189.871	893.402
199.417	13.903	1188.725	892.743
200.432	13.959	1188.046	892.456
201.446	13.964	1187.262	891.816
202.461	13.978	1186.196	891.011
203.475	14.178	1184.870	891.009
204.490	14.010	1183.924	889.319
205.504	14.075	1182.600	888.593
206.519	13.977	1181.858	887.431
207.534	13.989	1180.697	886.549
208.548	14.000	1180.009	886.008
209.563	14.087	1178.827	885.507
210.577	14.110	1177.996	884.929
211.592	14.026	1177.082	883.715
212.607	14.206	1176.156	883.900
213.621	14.166	1175.145	882.849
214.636	14.134	1174.476	882.098
215.650	14.171	1173.294	881.328
216.665	14.248	1172.722	881.229
217.680	14.236	1171.526	880.187
218.694	14.274	1171.088	879.980
219.709	14.259	1170.086	879.073
220.723	14.286	1169.198	878.467
221.738	14.357	1168.319	878.104
222.753	14.310	1167.913	877.474
223.767	14.302	1167.246	876.852
224.782	14.378	1166.601	876.691
225.796	14.284	1166.301	875.895
226.811	14.288	1165.533	875.262
227.826	14.362	1164.538	874.822
228.840	14.374	1163.885	874.318
229.855	14.306	1163.155	873.337
230.869	14.362	1162.670	873.191
231.884	14.373	1161.500	872.290
232.899	14.401	1160.455	871.576
233.913	14.349	1159.839	870.762
234.928	14.334	1159.468	870.329
235.942	14.279	1159.183	869.752
236.957	14.232	1158.221	868.709
237.972	14.347	1156.950	868.280
238.986	14.337	1156.554	867.854
240.001	14.249	1156.266	867.099
241.015	14.424	1155.055	867.023
242.030	14.319	1154.581	866.045
243.045	14.447	1153.606	865.904
244.059	14.517	1152.627	865.454
245.074	14.387	1152.135	864.335
246.088	14.474	1150.819	863.725
247.103	14.668	1150.259	864.231
248.117	14.581	1149.549	863.171
249.132	14.662	1148.922	863.043
250.147	14.750	1148.493	863.096
251.161	14.630	1147.809	861.889
252.176	14.815	1146.506	861.786
253.190	14.825	1145.877	861.288
254.205	14.771	1145.950	860.990
255.220	14.892	1145.045	860.855
256.234	14.818	1144.615	860.076
257.249	14.944	1143.471	859.788
258.263	14.961	1142.811	859.302
259.278	14.984	1142.349	858.998
260.293	15.060	1141.637	858.779
261.307	14.834	1141.344	857.322
262.322	15.022	1140.299	857.426
263.336	15.041	1139.975	857.201
264.351	15.055	1139.689	856.983
265.366	15.006	1138.541	855.795
266.380	15.116	1137.993	855.868
267.395	15.013	1137.386	854.809
268.409	14.971	1136.709	854.012
269.424	14.986	1135.952	853.443
270.439	15.122	1135.067	853.397
271.453	15.069	1134.511	852.632
272.468	15.130	1133.408	852.040
273.482	15.089	1132.776	851.279
274.497	15.057	1132.488	850.823
275.512	15.111	1131.376	850.186
276.526	15.070	1130.687	849.385
277.541	15.096	1129.854	848.819
278.555	15.038	1129.621	848.274
279.570	15.118	1128.721	847.926
280.585	15.091	1128.268	847.375
281.599	15.207	1127.137	847.037
282.614	15.079	1126.422	845.781
283.628	15.314	1124.699	845.596
284.643	15.192	1123.952	844.343
285.657	15.182	1123.133	843.604
286.672	15.185	1122.504	843.071
287.687	15.239	1121.683	842.651
288.701	15.272	1120.655	841.969
289.716	15.236	1119.742	841.032
290.730	15.228	1119.439	840.690
291.745	15.297	1118.283	840.089
292.760	15.304	1118.078	839.896
293.774	15.454	1117.129	839.863
294.789	15.370	1116.634	838.994
295.803	15.500	1116.141	839.200
296.818	15.370	1115.293	837.840
297.833	15.442	1114.675	837.657
298.847	15.468	1114.114	837.293
299.862	15.389	1113.454	836.329
300.876	15.381	1112.474	835.479
301.891	15.498	1111.598	835.329
302.906	15.547	1111.074	835.105
303.920	15.577	1110.662	834.871
304.935	15.611	1109.884	834.380
305.949	15.767	1108.807	834.272
306.964	15.751	1108.452	833.849
307.979	15.567	1108.107	832.606
308.993	15.709	1106.971	832.380
310.008	15.594	1106.420	831.324
311.022	15.797	1105.025	831.206
312.037	15.829	1104.398	830.819
313.052	15.611	1104.071	829.425
314.066	15.650	1103.031	828.761
315.081	15.594	1101.988	827.631
316.095	15.539	1101.537	826.947
317.110	15.480	1101.040	826.207
318.125	15.702	1100.121	826.537
319.139	15.687	1099.430	825.873
320.154	15.724	1098.653	825.397
321.168	15.795	1097.751	824.993
322.183	15.704	1097.705	824.439
323.197	15.640	1097.129	823.621
324.212	15.685	1096.378	823.206
325.227	15.806	1095.456	823.034
326.241	15.717	1095.338	822.435
327.256	15.739	1093.975	821.448
328.270	15.685	1093.542	820.783
329.285	15.829	1092.312	820.493
330.300	15.720	1091.485	819.266
331.314	15.681	1090.785	818.478
332.329	15.840	1089.580	818.275
333.343	15.770	1088.989	817.419
334.358	15.948	1088.010	817.474
335.373	15.846	1087.399	816.452
336.387	15.827	1086.619	815.699
337.402	15.974	1085.882	815.784
338.416	15.905	1085.644	815.201
339.431	16.090	1084.477	815.146
340.446	16.076	1084.093	814.721
341.460	16.101	1083.764	814.519
342.475	16.108	1082.412	813.467
343.489	16.097	1081.418	812.594
344.504	16.306	1080.490	812.833
345.519	16.229	1080.110	812.104
346.533	16.193	1079.295	811.243
347.548	16.169	1079.059	810.881
348.562	16.297	1077.515	810.264
349.577	16.265	1076.830	809.524
350.592	16.094	1076.489	808.375
351.606	16.049	1075.629	807.441
352.621	16.078	1075.176	807.170
353.635	16.150	1074.183	806.697
354.650	16.177	1073.809	806.473
355.665	16.111	1072.966	805.455
356.679	16.120	1072.452	805.040
357.694	16.158	1071.752	804.622
358.708	16.284	1070.700	804.364
359.723	16.162	1070.389	803.475
360.738	16.353	1069.388	803.564
361.752	16.340	1069.096	803.210
362.767	16.347	1068.295	802.570
363.781	16.358	1067.723	802.122
364.796	16.460	1067.417	802.307
365.810	16.415	1066.938	801.664
366.825	16.439	1066.116	801.086
367.840	16.518	1065.609	801.010
368.854	16.639	1065.242	801.235
369.869	16.565	1064.129	799.976
370.883	16.610	1063.191	799.413
371.898	16.413	1062.731	798.069
372.913	16.420	1062.556	797.897
373.927	16.576	1061.812	798.007
374.942	16.663	1060.845	797.617
375.956	16.555	1060.491	796.772
376.971	16.668	1060.207	797.023
377.986	16.730	1059.090	796.402
379.000	16.734	1058.733	796.080
380.015	16.823	1058.196	796.025
381.029	16.774	1057.297	795.048
382.044	16.737	1057.085	794.646
383.059	16.821	1056.291	794.372
384.073	16.791	1055.393	793.487
385.088	16.928	1054.407	793.318
386.102	16.676	1053.614	791.470
387.117	16.889	1052.333	791.433
388.132	16.793	1051.595	790.362
389.146	16.716	1050.676	789.241
390.161	16.727	1050.536	789.115
391.175	16.732	1049.847	788.552
392.190	16.767	1049.076	788.066
393.205	16.862	1048.344	787.887
394.219	16.937	1047.389	787.449
395.234	16.879	1046.751	786.632
396.248	16.864	1045.836	785.805
397.263	16.843	1044.573	784.690
398.278	16.792	1044.220	784.119
399.292	16.929	1043.728	784.313
400.307	16.976	1042.626	783.632
401.321	16.856	1042.077	782.594
402.336	16.867	1041.425	782.089
403.350	16.933	1040.834	781.880
404.365	16.954	1040.138	781.383
405.380	17.025	1039.006	780.793
406.394	16.956	1038.637	780.129
407.409	17.112	1037.898	780.219
408.423	17.074	1037.199	779.450
409.438	17.118	1036.395	778.980
410.453	17.165	1035.569	778.506
411.467	17.167	1035.165	778.141
412.482	17.281	1034.578	778.155
413.496	17.246	1033.627	777.210
414.511	17.133	1033.427	776.472
415.526	17.406	1032.977	777.317
416.540	17.248	1032.668	776.292
417.555	17.449	1031.775	776.470
418.569	17.282	1031.376	775.337
419.584	17.398	1030.463	775.113
420.599	17.309	1030.382	774.576
421.613	103.051	1321.786	1466.529
422.628	94.296	1364.205	1466.634
