DTS Sentinel unit serial number:	SN413079Multiplexer serial number:	ORYXHardware model number:	OX4-SRSoftware version number:	ORYX F/W v4.00 Oryx Data Collector v3.7.2.0data status	okinstallation	princeton_trtdifferential loss correction	single-endedforward channel	channel 2reverse channel	N/Adate	2019/09/15time	21:59:35forward acquisition time	60.00reverse acquisition time	0.00gamma	496.2192k internal	0.2334k external	0.2334temperature offset calibration	0.9942default loss term (dB/km)	0.3790temperature slope calibration	1.0000multiplexer offset coefficient	1.0000multiplexer slope coefficient	1.0000fibre end	0.00T internal ref (°C)	29.87T ext. ref 1 (°C)	8.53T ext. ref 2 (°C)	23.02length (m)	temperature (°C)	Stokes	anti-Stokes-747.200	-142.065	0.216	0.022
-746.185	-128.932	-0.231	0.033
-745.171	610.091	-0.051	0.128
-744.156	368.895	-0.128	0.260
-743.142	-36.515	0.138	-0.075
-742.127	390.823	-0.164	0.342
-741.112	-63.043	0.116	0.048
-740.098	463.100	0.081	0.181
-739.083	-75.478	0.208	0.075
-738.069	358.194	0.138	0.278
-737.054	-36.401	0.040	0.021
-736.039	-200.000	-0.025	0.126
-735.025	-109.090	0.285	0.061
-734.010	-36.533	-0.329	0.178
-732.996	671.250	-0.088	0.228
-731.981	-152.072	-0.518	0.038
-730.966	36.399	0.123	0.109
-729.952	-122.848	-0.168	0.027
-728.937	-2.214	0.246	0.174
-727.923	-54.805	0.224	-0.102
-726.908	-200.000	-0.062	-0.386
-725.894	124.295	0.058	0.073
-724.879	-6.284	-0.261	0.179
-723.864	-57.896	-0.178	0.078
-722.850	180.481	-0.154	-0.226
-721.835	-103.829	-0.337	-0.079
-720.821	-69.617	-0.378	0.145
-719.806	-84.679	0.215	-0.068
-718.791	382.185	-0.086	0.178
-717.777	-69.893	-0.064	-0.024
-716.762	-200.000	0.019	-0.160
-715.748	-200.000	-0.033	-0.248
-714.733	-59.069	-0.557	0.241
-713.718	625.924	-0.088	-0.222
-712.704	498.248	-0.021	-0.048
-711.689	-156.424	-0.033	-0.002
-710.675	91.842	-0.173	-0.195
-709.660	800.000	-0.028	-0.122
-708.645	-112.989	-0.183	-0.036
-707.631	800.000	-0.096	-0.270
-706.616	55.306	0.099	-0.096
-705.602	-136.252	-0.053	-0.006
-704.587	-20.398	0.101	0.062
-703.572	-107.929	-0.160	0.035
-702.558	42.068	0.214	0.194
-701.543	-200.000	-0.018	-0.303
-700.529	-89.252	0.126	0.037
-699.514	-200.000	0.003	-0.186
-698.499	-82.828	-0.237	0.077
-697.485	19.647	0.092	0.074
-696.470	-200.000	0.004	-0.220
-695.456	-100.369	-0.179	0.044
-694.441	116.477	0.184	0.226
-693.426	578.599	-0.209	0.514
-692.412	26.638	0.101	-0.085
-691.397	-200.000	0.001	-0.069
-690.383	-41.617	-0.242	0.125
-689.368	-24.957	-0.059	0.035
-688.354	-136.114	0.120	-0.014
-687.339	-160.288	-0.192	-0.010
-686.324	334.101	-0.041	-0.079
-685.310	-38.207	-0.046	-0.025
-684.295	30.512	-0.286	-0.245
-683.281	-130.251	-0.493	-0.067
-682.266	-100.231	-0.352	-0.088
-681.251	-47.312	-0.219	-0.107
-680.237	38.045	-0.074	0.066
-679.222	691.378	-0.096	-0.252
-678.208	199.064	-0.040	-0.061
-677.193	210.718	-0.119	-0.187
-676.178	333.873	0.128	-0.249
-675.164	-200.000	-0.034	0.356
-674.149	800.000	-0.027	0.084
-673.135	535.950	0.095	-0.226
-672.120	435.876	0.045	0.097
-671.105	144.420	-0.168	-0.225
-670.091	-200.000	0.007	-0.234
-669.076	-13.106	-0.156	0.102
-668.062	-52.624	0.088	-0.041
-667.047	115.485	0.272	-0.334
-666.032	118.443	0.004	-0.005
-665.018	343.675	-0.121	0.237
-664.003	-146.992	0.518	-0.045
-662.989	105.655	0.110	0.131
-661.974	-60.900	-0.098	-0.042
-660.959	-200.000	0.015	-0.531
-659.945	-23.384	-0.039	-0.023
-658.930	-118.283	0.141	0.025
-657.916	-77.829	0.115	-0.040
-656.901	19.717	0.283	0.228
-655.886	-45.449	0.271	-0.135
-654.872	-200.000	-0.053	-0.299
-653.857	117.314	-0.111	0.137
-652.843	115.505	-0.087	0.107
-651.828	135.409	-0.165	-0.215
-650.814	557.103	-0.105	-0.253
-649.799	30.983	0.170	0.146
-648.784	-100.722	0.251	-0.062
-647.770	256.649	-0.058	-0.099
-646.755	-110.158	-0.226	0.047
-645.741	81.011	-0.206	0.222
-644.726	-111.344	-0.192	0.039
-643.711	-2.990	-0.051	-0.036
-642.697	149.352	0.139	0.188
-641.682	-200.000	0.009	-0.125
-640.668	-71.773	-0.039	-0.015
-639.653	252.521	-0.025	0.042
-638.638	-200.000	-0.008	-0.168
-637.624	-36.662	-0.113	-0.061
-636.609	-118.073	0.493	-0.088
-635.595	-70.671	0.326	-0.123
-634.580	-154.834	0.204	-0.013
-633.565	254.504	-0.072	-0.123
-632.551	-158.806	0.047	-0.003
-631.536	-88.910	0.343	-0.102
-630.522	-55.283	-0.298	-0.134
-629.507	-117.100	0.347	-0.063
-628.492	113.253	-0.070	-0.085
-627.478	-43.574	-0.186	-0.094
-626.463	-128.966	-0.178	0.025
-625.449	1.484	0.221	-0.159
-624.434	-30.372	-0.147	0.083
-623.419	-169.592	-0.051	0.002
-622.405	800.000	0.035	-0.121
-621.390	738.570	0.122	0.326
-620.376	97.908	0.128	-0.148
-619.361	177.303	-0.086	-0.126
-618.346	800.000	0.056	0.171
-617.332	310.754	-0.080	-0.150
-616.317	62.968	-0.102	0.102
-615.303	800.000	0.038	0.141
-614.288	-78.440	-0.415	0.142
-613.273	155.098	-0.227	0.312
-612.259	631.634	0.048	-0.123
-611.244	-173.081	-0.287	0.009
-610.230	12.475	-0.197	-0.152
-609.215	-2.733	-0.202	-0.141
-608.201	-98.732	-0.182	0.046
-607.186	34.965	-0.055	-0.048
-606.171	-19.172	-0.246	0.153
-605.157	-200.000	0.027	0.223
-604.142	-84.659	0.400	0.126
-603.128	35.091	0.238	0.208
-602.113	800.000	-0.091	-0.266
-601.098	327.048	-0.044	0.085
-600.084	247.327	0.216	-0.364
-599.069	-138.341	-0.128	0.014
-598.055	-142.096	-0.091	-0.009
-597.040	34.706	0.194	-0.170
-596.025	99.152	0.218	0.252
-595.011	10.802	0.149	-0.114
-593.996	7.133	0.239	-0.178
-592.982	-200.000	0.010	-0.340
-591.967	-68.662	-0.126	-0.049
-590.952	-135.880	-0.091	-0.011
-589.938	67.635	-0.128	-0.131
-588.923	800.000	0.056	-0.163
-587.909	-85.040	0.269	-0.084
-586.894	615.814	-0.076	0.190
-585.879	265.301	0.055	-0.095
-584.865	148.198	0.031	-0.042
-583.850	-118.971	0.197	0.035
-582.836	386.802	-0.147	-0.304
-581.821	-137.057	0.136	-0.016
-580.806	-200.000	-0.026	-0.191
-579.792	800.000	-0.113	-0.313
-578.777	-166.011	0.190	0.008
-577.763	-25.862	0.160	0.094
-576.748	-200.000	0.057	-0.372
-575.733	56.808	0.020	-0.019
-574.719	121.210	-0.034	0.042
-573.704	-200.000	0.031	-0.184
-572.690	-4.934	-0.199	-0.137
-571.675	-200.000	0.016	-0.111
-570.661	-87.114	0.194	0.059
-569.646	66.134	-0.337	0.342
-568.631	800.000	-0.113	-0.356
-567.617	800.000	-0.066	-0.278
-566.602	-112.187	-0.276	0.055
-565.588	77.452	-0.280	0.297
-564.573	-200.000	0.050	-0.259
-563.558	-200.000	-0.073	0.398
-562.544	-123.540	0.299	0.047
-561.529	-128.488	0.144	-0.020
-560.515	-200.000	0.006	-0.058
-559.500	-83.004	-0.384	-0.123
-558.485	800.000	-0.043	0.126
-557.471	-121.647	-0.144	0.024
-556.456	-103.750	0.231	-0.054
-555.442	-34.695	0.165	0.090
-554.427	-57.440	0.155	-0.068
-553.412	-119.184	0.220	-0.038
-552.398	-42.681	-0.158	-0.080
-551.383	84.526	-0.175	0.191
-550.369	254.186	0.051	-0.087
-549.354	800.000	-0.056	0.198
-548.339	-200.000	0.041	-0.192
-547.325	48.388	-0.081	0.076
-546.310	-200.000	-0.023	0.286
-545.296	407.456	-0.081	-0.170
-544.281	-137.365	-0.315	-0.036
-543.266	22.768	0.407	-0.332
-542.252	-200.000	0.033	0.294
-541.237	-95.963	0.084	-0.022
-540.223	-27.377	0.259	0.150
-539.208	-200.000	-0.034	-0.166
-538.193	-98.420	0.228	0.058
-537.179	-150.783	-0.088	-0.007
-536.164	65.835	-0.249	-0.252
-535.150	-67.293	-0.298	-0.117
-534.135	-200.000	-0.034	-0.418
-533.121	-30.127	-0.005	0.003
-532.106	-101.376	-0.131	0.032
-531.091	19.819	0.143	-0.115
-530.077	-200.000	-0.048	0.420
-529.062	132.137	0.249	0.319
-528.048	264.340	-0.219	-0.379
-527.033	-200.000	-0.041	-0.275
-526.018	480.664	0.159	0.360
-525.004	765.416	0.081	0.218
-523.989	-192.454	0.375	0.003
-522.975	-57.699	-0.253	-0.110
-521.960	-196.295	-0.334	-0.002
-520.945	800.000	0.034	0.140
-519.931	-34.240	-0.177	-0.097
-518.916	-18.505	0.102	-0.063
-517.902	800.000	0.105	0.376
-516.887	-147.184	0.119	0.010
-515.872	64.967	0.063	0.063
-514.858	-74.725	-0.327	-0.117
-513.843	136.901	-0.086	-0.112
-512.829	-200.000	-0.021	-0.136
-511.814	10.891	0.106	0.080
-510.799	-167.450	-0.030	-0.001
-509.785	-200.000	-0.020	-0.279
-508.770	606.044	-0.037	0.093
-507.756	61.566	-0.166	-0.165
-506.741	93.685	0.082	0.092
-505.726	24.218	-0.170	-0.140
-504.712	-83.339	0.371	0.119
-503.697	331.967	0.136	0.262
-502.683	68.728	-0.046	0.047
-501.668	31.635	-0.079	-0.068
-500.653	-200.000	-0.043	0.212
-499.639	158.261	-0.092	0.127
-498.624	323.030	-0.194	-0.369
-497.610	-200.000	0.001	-0.231
-496.595	-62.441	0.180	0.074
-495.581	-120.578	0.167	-0.028
-494.566	190.465	-0.169	-0.252
-493.551	42.342	-0.195	-0.176
-492.537	-98.152	-0.288	-0.074
-491.522	-200.000	0.088	-0.470
-490.508	385.377	-0.186	-0.381
-489.493	274.650	0.057	0.101
-488.478	-31.834	-0.142	-0.079
-487.464	67.627	-0.141	-0.143
-486.449	231.118	-0.013	-0.021
-485.435	512.500	0.058	-0.133
-484.420	-60.696	0.318	-0.134
-483.405	13.457	0.095	-0.073
-482.391	-72.948	0.125	0.046
-481.376	-200.000	-0.047	0.430
-480.362	286.230	-0.253	0.455
-479.347	-101.198	0.100	-0.024
-478.332	-179.150	0.147	0.003
-477.318	506.429	0.086	-0.198
-476.303	30.760	-0.179	0.152
-475.289	-26.749	0.125	-0.073
-474.274	-200.000	0.042	0.214
-473.259	-80.023	0.046	-0.015
-472.245	-200.000	0.020	-0.332
-471.230	-62.451	-0.072	-0.030
-470.216	53.239	-0.063	-0.060
-469.201	44.488	0.146	0.134
-468.186	607.260	0.023	0.057
-467.172	-200.000	-0.014	-0.169
-466.157	-123.857	0.229	0.036
-465.143	-37.559	-0.312	0.165
-464.128	-127.066	0.245	-0.036
-463.113	-1.683	0.004	0.003
-462.099	82.647	0.135	0.145
-461.084	41.188	-0.232	-0.209
-460.070	328.713	0.063	-0.120
-459.055	139.940	-0.129	0.169
-458.040	481.575	0.070	0.159
-457.026	800.000	0.062	0.248
-456.011	-69.823	0.293	0.111
-454.997	445.034	0.162	0.353
-453.982	-123.868	-0.365	-0.057
-452.968	289.760	0.117	-0.211
-451.953	141.411	0.124	0.164
-450.938	-105.706	0.320	0.072
-449.924	800.000	-0.124	0.374
-448.909	203.899	-0.208	0.320
-447.895	478.240	-0.077	0.174
-446.880	-200.000	-0.047	-0.217
-445.865	-15.287	0.251	-0.160
-444.851	800.000	-0.083	-0.313
-443.836	359.967	-0.148	-0.295
-442.822	-48.250	-0.192	-0.092
-441.807	400.965	-0.061	0.126
-440.792	-36.406	0.152	-0.081
-439.778	167.295	0.084	-0.118
-438.763	87.820	0.091	0.100
-437.749	348.409	-0.080	0.157
-436.734	-46.134	-0.228	-0.112
-435.719	16.026	-0.240	-0.188
-434.705	178.325	-0.112	0.163
-433.690	-200.000	0.002	0.151
-432.676	-127.089	0.476	0.069
-431.661	-79.644	0.077	-0.026
-430.646	-200.000	0.014	0.088
-429.632	403.687	0.076	-0.158
-428.617	-70.517	0.236	-0.089
-427.603	140.342	-0.101	0.133
-426.588	-200.000	-0.017	-0.109
-425.573	150.209	0.132	0.178
-424.559	20.386	-0.251	0.201
-423.544	-60.160	0.377	0.160
-422.530	360.655	0.066	0.131
-421.515	242.447	-0.064	-0.106
-420.500	-115.983	0.115	0.021
-419.486	-76.035	0.257	-0.090
-418.471	6.973	-0.162	-0.120
-417.457	-120.832	0.177	-0.030
-416.442	-20.738	-0.068	0.041
-415.428	-200.000	-0.053	-0.232
-414.413	567.656	0.073	-0.176
-413.398	-140.465	-0.089	-0.009
-412.384	507.752	0.076	0.176
-411.369	-39.690	-0.243	0.126
-410.355	-200.000	0.007	0.274
-409.340	109.618	0.090	-0.107
-408.325	627.424	0.043	0.108
-407.311	-16.481	-0.279	-0.176
-406.296	-88.732	-0.204	-0.060
-405.282	276.600	0.074	0.131
-404.267	-89.550	0.060	0.018
-403.252	106.165	0.039	0.045
-402.238	-53.638	0.231	-0.105
-401.223	-136.685	-0.087	0.010
-400.209	-91.232	-0.107	-0.030
-399.194	43.728	-0.198	0.179
-398.179	-103.131	0.258	0.060
-397.165	800.000	0.122	-0.480
-396.150	-138.106	-0.189	-0.021
-395.136	-11.772	-0.048	0.031
-394.121	53.773	0.144	0.137
-393.106	-200.000	0.003	0.338
-392.092	-138.211	-0.088	-0.010
-391.077	-200.000	-0.023	0.343
-390.063	259.556	-0.148	-0.254
-389.048	-25.243	0.139	0.081
-388.033	-74.399	-0.064	0.023
-387.019	-200.000	-0.065	-0.287
-386.004	80.045	0.071	0.076
-384.990	-200.000	-0.008	0.166
-383.975	136.302	0.060	0.077
-382.960	-200.000	0.018	0.150
-381.946	46.207	-0.070	-0.064
-380.931	-154.459	0.051	0.003
-379.917	-123.491	-0.033	-0.005
-378.902	800.000	-0.056	-0.180
-377.888	28.898	-0.121	0.101
-376.873	350.207	0.114	0.224
-375.858	390.263	0.096	-0.198
-374.844	282.180	-0.235	-0.418
-373.829	-59.410	-0.131	0.056
-372.815	84.040	-0.063	-0.068
-371.800	-113.514	0.091	-0.018
-370.785	-54.174	-0.146	0.066
-369.771	-128.760	-0.148	-0.021
-368.756	-200.000	0.014	-0.092
-367.742	-109.907	-0.233	0.048
-366.727	7.549	-0.123	0.091
-365.712	300.842	0.102	0.186
-364.698	36.898	-0.178	-0.156
-363.683	-82.951	0.264	-0.084
-362.669	-65.918	-0.150	-0.059
-361.654	391.092	-0.115	0.236
-360.639	800.000	0.104	-0.313
-359.625	800.000	0.035	0.103
-358.610	-200.000	-0.049	-0.269
-357.596	-200.000	-0.084	-0.467
-356.581	-92.414	-0.234	-0.065
-355.566	-136.528	-0.556	-0.064
-354.552	-58.251	0.222	0.096
-353.537	-54.894	-0.220	-0.098
-352.523	-5.729	0.324	-0.220
-351.508	-103.400	-0.152	-0.035
-350.493	306.196	-0.074	0.137
-349.479	34.977	-0.117	-0.101
-348.464	-137.210	0.216	-0.024
-347.450	-200.000	-0.031	0.237
-346.435	800.000	0.100	0.280
-345.420	-200.000	-0.013	0.122
-344.406	800.000	-0.078	0.256
-343.391	215.933	-0.123	-0.194
-342.377	-154.209	-0.100	0.007
-341.362	-141.893	-0.217	0.021
-340.348	-81.841	-0.138	-0.045
-339.333	32.328	0.120	-0.103
-338.318	-107.126	0.014	0.003
-337.304	-200.000	-0.009	0.212
-336.289	-200.000	0.203	0.001
-335.275	-43.043	-0.056	0.028
-334.260	-127.276	-0.221	0.032
-333.245	-17.266	0.240	0.150
-332.231	725.406	0.067	-0.177
-331.216	261.478	-0.091	-0.156
-330.202	-2.322	0.038	0.026
-329.187	-52.641	0.229	-0.104
-328.172	800.000	0.094	-0.354
-327.158	-64.495	0.092	-0.037
-326.143	176.322	0.148	0.212
-325.129	-16.499	-0.207	0.130
-324.114	156.153	0.051	-0.070
-323.099	54.748	0.146	0.139
-322.085	-200.000	-0.010	-0.094
-321.070	-90.749	0.266	-0.076
-320.056	67.865	-0.051	-0.052
-319.041	209.477	0.128	-0.199
-318.026	90.374	0.114	-0.126
-317.012	74.082	0.185	0.192
-315.997	800.000	0.060	0.256
-314.983	-24.644	-0.278	-0.163
-313.968	-133.396	0.173	0.022
-312.953	75.081	-0.178	0.185
-311.939	-70.371	0.182	0.068
-310.924	-200.000	0.032	0.160
-309.910	249.864	-0.115	-0.193
-308.895	-141.006	0.155	0.016
-307.880	-11.975	-0.156	-0.101
-306.866	-161.352	0.190	-0.010
-305.851	-46.540	0.229	-0.111
-304.837	-118.785	0.117	0.020
-303.822	221.721	-0.079	-0.126
-302.807	-132.744	0.165	-0.021
-301.793	599.773	-0.086	-0.211
-300.778	-23.288	-0.159	-0.095
-299.764	-164.297	-0.236	0.011
-298.749	137.244	-0.104	0.134
-297.735	136.728	-0.108	-0.140
-296.720	13.829	-0.113	-0.087
-295.705	68.758	0.069	-0.070
-294.691	800.000	0.092	-0.295
-293.676	-85.663	-0.431	-0.132
-292.662	800.000	-0.098	-0.308
-291.647	-32.986	0.164	-0.090
-290.632	-177.938	0.141	-0.003
-289.618	27.844	-0.163	0.136
-288.603	-61.628	-0.301	0.125
-287.589	15.808	-0.248	-0.192
-286.574	800.000	0.039	0.168
-285.559	52.133	-0.033	0.031
-284.545	270.812	-0.092	0.160
-283.530	54.808	0.142	0.136
-282.516	-200.000	0.004	0.093
-281.501	-45.026	0.048	0.023
-280.486	43.359	-0.195	-0.176
-279.472	-62.863	-0.157	0.064
-278.457	-200.000	-0.047	-0.298
-277.443	-26.749	0.140	0.081
-276.428	-108.713	0.436	0.092
-275.413	-200.000	-0.049	0.292
-274.399	-200.000	-0.021	-0.158
-273.384	102.685	-0.198	-0.229
-272.370	113.521	0.179	0.215
-271.355	81.304	0.120	-0.128
-270.340	-129.442	0.299	0.041
-269.326	508.948	0.102	0.234
-268.311	243.997	-0.096	-0.159
-267.297	644.940	-0.015	0.038
-266.282	122.149	0.014	0.018
-265.267	800.000	0.027	-0.072
-264.253	-159.012	0.280	-0.016
-263.238	368.984	-0.174	0.348
-262.224	-178.620	-0.356	0.008
-261.209	51.753	-0.260	0.244
-260.195	182.242	-0.100	-0.145
-259.180	800.000	0.062	0.212
-258.165	-52.819	0.275	0.125
-257.151	-91.735	-0.229	-0.064
-256.136	-189.213	-0.031	-0.000
-255.122	-146.897	0.219	0.019
-254.107	-117.379	0.310	0.055
-253.092	52.962	0.198	-0.186
-252.078	-99.590	-0.233	-0.058
-251.063	149.226	-0.121	-0.161
-250.049	-74.117	-0.252	-0.090
-249.034	15.506	0.120	-0.093
-248.019	-12.048	0.103	-0.066
-247.005	-40.567	0.099	-0.051
-245.990	21.151	0.204	0.163
-244.976	-123.201	-0.087	-0.014
-243.961	-116.369	0.116	0.021
-242.946	38.962	0.037	0.032
-241.932	-101.379	0.159	0.038
-240.917	371.913	-0.118	0.237
-239.903	-22.498	-0.151	0.090
-238.888	465.998	0.040	-0.088
-237.873	70.113	-0.187	-0.190
-236.859	424.983	-0.030	0.064
-235.844	-200.000	-0.013	0.248
-234.830	-140.831	0.260	-0.026
-233.815	-200.000	-0.071	0.342
-232.800	-98.935	0.123	-0.031
-231.786	304.012	0.114	0.209
-230.771	-108.294	-0.195	0.042
-229.757	-12.899	-0.232	-0.149
-228.742	800.000	-0.030	-0.096
-227.727	-133.091	0.188	0.024
-226.713	-4.279	-0.015	-0.010
-225.698	800.000	0.113	-0.388
-224.684	612.721	-0.121	0.299
-223.669	-59.837	-0.123	0.052
-222.655	800.000	0.088	0.250
-221.640	-200.000	0.030	-0.176
-220.625	-53.916	-0.322	0.145
-219.611	-61.932	-0.147	0.060
-218.596	800.000	-0.052	0.152
-217.582	82.666	0.104	0.111
-216.567	-119.407	0.290	0.050
-215.552	-115.301	0.096	0.018
-214.538	-200.000	0.010	0.099
-213.523	-26.998	0.118	-0.068
-212.509	-108.094	0.296	-0.063
-211.494	112.407	0.089	-0.106
-210.479	-200.000	-0.041	0.226
-209.465	-200.000	0.050	0.232
-208.450	800.000	0.098	-0.314
-207.436	544.076	-0.024	-0.056
-206.421	-162.517	-0.082	-0.004
-205.406	-200.000	-0.003	0.037
-204.392	-29.979	-0.298	0.167
-203.377	107.788	0.174	-0.204
-202.363	601.784	-0.011	-0.028
-201.348	419.175	0.091	-0.191
-200.333	603.483	-0.092	0.226
-199.319	-200.000	0.020	0.183
-198.304	800.000	-0.157	0.489
-197.290	55.879	-0.169	0.161
-196.275	-175.605	0.451	-0.012
-195.260	-121.416	-0.239	-0.039
-194.246	-200.000	-0.035	0.182
-193.231	240.704	0.062	0.102
-192.217	329.000	-0.089	0.167
-191.202	-123.358	-0.371	-0.058
-190.187	71.919	0.216	-0.221
-189.173	800.000	-0.110	0.316
-188.158	800.000	0.064	-0.209
-187.144	-200.000	0.006	0.066
-186.129	-200.000	-0.019	-0.097
-185.114	341.408	-0.116	0.222
-184.100	172.500	0.161	0.228
-183.085	-29.478	-0.043	0.024
-182.071	-200.000	0.020	0.318
-181.056	569.667	0.253	0.605
-180.042	265.951	0.070	0.120
-179.027	-200.000	-0.034	0.198
-178.012	-142.591	0.162	0.016
-176.998	-163.327	0.040	0.002
-175.983	355.432	-0.092	0.180
-174.969	762.919	0.114	-0.305
-173.954	-34.311	-0.073	0.039
-172.939	-200.000	-0.069	0.337
-171.925	37.209	0.230	-0.200
-170.910	-5.525	-0.056	-0.038
-169.896	-160.826	0.143	-0.007
-168.881	-200.000	-0.015	-0.204
-167.866	99.046	-0.122	-0.138
-166.852	572.172	0.036	0.087
-165.837	-200.000	-0.031	-0.146
-164.823	800.000	-0.021	0.060
-163.808	31.461	-0.060	-0.051
-162.793	-200.000	-0.001	0.336
-161.779	-67.133	-0.277	-0.107
-160.764	210.575	0.086	0.133
-159.750	61.680	0.231	0.226
-158.735	30.760	0.128	0.108
-157.720	-200.000	-0.022	0.201
-156.706	47.212	-0.110	0.100
-155.691	-174.139	0.254	-0.007
-154.677	29.909	0.129	-0.108
-153.662	389.784	0.086	-0.175
-152.647	-200.000	-0.002	0.026
-151.633	-200.000	-0.017	-0.267
-150.618	-200.000	-0.033	-0.453
-149.604	-18.406	0.278	-0.170
-148.589	-200.000	0.003	-0.061
-147.574	251.774	0.201	-0.337
-146.560	-200.000	-0.066	0.395
-145.545	800.000	0.045	-0.143
-144.531	-36.941	-0.031	0.017
-143.516	214.641	0.068	0.106
-142.502	26.436	0.397	0.326
-141.487	800.000	-0.052	0.203
-140.472	289.151	-0.020	0.035
-139.458	7.917	-0.075	0.055
-138.443	91.785	-0.102	-0.113
-137.429	-104.971	-0.258	0.058
-136.414	193.860	0.132	0.196
-135.399	300.286	-0.251	0.454
-134.385	202.661	-0.039	-0.060
-133.370	-35.108	0.161	0.086
-132.356	126.149	0.046	-0.057
-131.341	-130.222	0.190	0.025
-130.326	-64.812	-0.338	-0.134
-129.312	800.000	0.064	0.175
-128.297	10.159	-0.228	0.170
-127.283	-22.435	0.186	0.110
-126.268	-112.976	0.306	-0.059
-125.253	-62.920	-0.096	-0.039
-124.239	-0.854	-0.236	0.164
-123.224	800.000	0.016	0.059
-122.210	147.065	0.151	0.199
-121.195	-84.504	0.139	0.043
-120.180	-89.390	-0.374	-0.108
-119.166	-25.999	0.039	0.022
-118.151	-200.000	-0.038	0.402
-117.137	226.267	-0.255	0.406
-116.122	-75.719	0.251	-0.087
-115.107	-200.000	0.086	0.462
-114.093	-160.940	0.323	-0.017
-113.078	-32.776	-0.331	0.181
-112.064	129.002	-0.271	-0.338
-111.049	-200.000	-0.013	0.124
-110.034	-19.022	-0.248	-0.151
-109.020	-200.000	-0.062	0.272
-108.005	470.009	0.106	0.233
-106.991	44.250	-0.264	-0.238
-105.976	275.022	0.250	-0.434
-104.962	228.273	0.054	-0.086
-103.947	-70.793	0.413	0.153
-102.932	-33.278	0.272	0.148
-101.918	-139.394	-0.083	0.009
-100.903	240.142	0.099	0.162
-99.889	-200.000	-0.014	0.128
-98.874	800.000	-0.067	0.245
-97.859	125.060	0.152	0.188
-96.845	-200.000	0.005	-0.039
-95.830	0.056	-0.292	0.204
-94.816	-77.784	0.257	-0.087
-93.801	-200.000	0.036	0.262
-92.786	-157.900	-0.312	-0.018
-91.772	-128.628	-0.138	0.019
-90.757	800.000	0.122	0.394
-89.743	144.913	0.142	-0.186
-88.728	800.000	-0.131	0.429
-87.713	-40.605	-0.110	-0.056
-86.699	-200.000	-0.058	0.252
-85.684	-57.876	-0.084	0.036
-84.670	-8.167	-0.201	-0.132
-83.655	-200.000	-0.011	-0.206
-82.640	-87.452	-0.093	-0.028
-81.626	-6.985	0.258	0.172
-80.611	157.020	0.047	0.063
-79.597	274.622	0.119	0.207
-78.582	-75.330	0.294	-0.103
-77.567	97.379	-0.248	0.279
-76.553	-7.098	-0.034	0.023
-75.538	-151.365	0.231	0.017
-74.524	25.097	-0.168	-0.136
-73.509	73.686	0.164	0.168
-72.494	-63.036	0.025	-0.010
-71.480	69.738	0.290	-0.293
-70.465	-153.203	0.110	0.008
-69.451	-200.000	0.075	0.325
-68.436	800.000	-0.085	0.303
-67.422	-92.589	0.374	-0.103
-66.407	-76.946	0.372	0.127
-65.392	-200.000	0.045	0.000
-64.378	-200.000	-0.067	-0.321
-63.363	286.436	-0.180	0.318
-62.349	420.237	-0.141	0.296
-61.334	76.102	-1.078	-1.116
-60.319	-29.830	0.307	0.171
-59.305	760.808	-0.394	-1.044
-58.290	168.748	0.818	1.141
-57.276	300.432	0.856	1.544
-56.261	-200.000	107.933	596.437
-55.246	456.556	1479.230	3211.976
-54.232	148.631	2662.802	3519.236
-53.217	100.757	2271.097	2581.721
-52.203	38.790	1887.987	1648.777
-51.188	33.154	1679.662	1424.473
-50.173	30.540	1636.801	1368.851
-49.159	50.027	1691.079	1560.610
-48.144	50.286	1706.799	1576.993
-47.130	32.604	1664.655	1407.412
-46.115	29.972	1649.497	1375.028
-45.100	29.833	1644.964	1370.164
-44.086	29.762	1642.312	1367.377
-43.071	29.705	1639.740	1364.760
-42.057	29.691	1637.585	1362.808
-41.042	29.779	1635.283	1361.494
-40.027	29.745	1633.727	1359.888
-39.013	29.763	1631.392	1358.025
-37.998	29.789	1630.216	1357.182
-36.984	29.741	1629.121	1355.865
-35.969	29.810	1627.522	1354.987
-34.954	29.899	1625.895	1354.230
-33.940	29.890	1623.830	1352.392
-32.925	29.907	1622.039	1350.966
-31.911	29.850	1620.781	1349.455
-30.896	29.929	1618.779	1348.305
-29.881	29.880	1616.931	1346.358
-28.867	29.826	1615.703	1344.890
-27.852	29.940	1614.012	1344.259
-26.838	29.828	1613.165	1342.684
-25.823	29.839	1611.175	1341.056
-24.809	29.919	1610.233	1340.794
-23.794	29.919	1608.571	1339.362
-22.779	29.893	1606.974	1337.791
-21.765	29.891	1605.773	1336.719
-20.750	29.844	1603.870	1334.745
-19.736	29.886	1602.745	1334.062
-18.721	29.864	1601.317	1332.660
-17.706	29.892	1599.629	1331.400
-16.692	29.949	1597.957	1330.366
-15.677	29.927	1597.051	1329.406
-14.663	30.003	1595.321	1328.458
-13.648	29.788	1594.572	1326.237
-12.633	29.886	1592.608	1325.251
-11.619	29.855	1591.510	1324.063
-10.604	29.908	1589.807	1322.971
-9.590	29.947	1588.371	1322.002
-8.575	29.966	1587.406	1321.288
-7.560	29.995	1586.213	1320.449
-6.546	29.888	1585.066	1318.678
-5.531	29.889	1583.967	1317.718
-4.517	29.862	1582.852	1316.545
-3.502	29.852	1581.742	1315.500
-2.487	29.978	1580.000	1314.894
-1.473	29.557	1567.875	1301.785
-0.458	26.274	1548.540	1262.777
0.556	19.960	1548.940	1227.789
1.571	17.639	1571.295	1228.683
2.586	16.958	1583.999	1233.556
3.600	16.015	1533.565	1187.534
4.615	12.702	1435.229	1089.408
5.629	9.378	1378.667	1025.227
6.644	8.615	1371.777	1015.168
7.659	8.547	1370.848	1013.965
8.673	8.515	1369.733	1012.846
9.688	8.433	1367.504	1010.592
10.702	8.262	1364.549	1007.237
11.717	9.830	1367.193	1019.006
12.731	13.902	1373.896	1049.703
13.746	16.826	1378.197	1071.409
14.761	16.970	1377.994	1072.068
15.775	16.039	1375.124	1063.863
16.790	15.095	1372.385	1055.704
17.804	14.294	1370.383	1049.027
18.819	13.716	1368.964	1044.210
19.834	13.492	1367.364	1041.488
20.848	13.244	1366.439	1039.131
21.863	13.012	1365.049	1036.525
22.877	12.880	1363.504	1034.429
23.892	12.939	1362.414	1033.882
24.907	12.890	1362.096	1033.240
25.921	12.868	1361.117	1032.273
26.936	12.936	1359.818	1031.616
27.950	12.867	1359.416	1030.789
28.965	13.007	1358.227	1030.675
29.980	13.081	1356.665	1029.860
30.994	13.083	1355.943	1029.233
32.009	13.089	1354.813	1028.322
33.023	13.118	1353.072	1027.091
34.038	13.026	1352.056	1025.657
35.053	13.014	1350.685	1024.451
36.067	12.956	1350.015	1023.493
37.082	12.978	1348.931	1022.714
38.096	13.088	1347.575	1022.277
39.111	13.044	1347.125	1021.572
40.126	13.055	1346.073	1020.754
41.140	12.881	1345.106	1018.857
42.155	12.832	1344.693	1018.148
43.169	12.728	1344.585	1017.336
44.184	12.802	1344.497	1017.637
45.199	12.833	1343.989	1017.351
46.213	12.925	1343.218	1017.242
47.228	12.920	1342.344	1016.464
48.242	12.912	1341.525	1015.704
49.257	13.088	1339.619	1015.252
50.271	12.970	1338.423	1013.535
51.286	12.988	1336.815	1012.334
52.301	13.006	1335.649	1011.474
53.315	12.869	1335.252	1010.245
54.330	12.876	1333.593	1008.942
55.344	12.856	1332.449	1007.862
56.359	13.017	1330.818	1007.526
57.374	12.855	1330.728	1006.379
58.388	12.868	1329.576	1005.497
59.403	12.782	1329.463	1004.797
60.417	12.713	1328.679	1003.695
61.432	12.794	1327.999	1003.586
62.447	12.726	1326.883	1002.239
63.461	12.729	1325.149	1000.861
64.476	12.679	1324.052	999.638
65.490	12.772	1323.296	999.546
66.505	12.798	1321.503	998.262
67.520	12.778	1320.259	997.109
68.534	12.657	1319.742	995.901
69.549	12.801	1318.964	996.094
70.563	12.752	1317.821	994.851
71.578	12.623	1316.709	993.140
72.593	12.592	1315.804	992.187
73.607	12.622	1314.945	991.629
74.622	12.602	1314.635	991.187
75.636	12.636	1313.846	990.711
76.651	12.750	1312.531	990.315
77.666	12.680	1312.672	989.912
78.680	12.652	1311.719	988.941
79.695	12.599	1311.077	988.049
80.709	12.788	1310.264	988.481
81.724	12.867	1309.166	988.044
82.739	12.836	1308.122	986.980
83.753	12.871	1307.792	986.855
84.768	12.983	1306.604	986.541
85.782	13.132	1305.292	986.351
86.797	12.924	1304.545	984.460
87.812	12.899	1303.354	983.326
88.826	12.921	1301.888	982.264
89.841	12.976	1300.994	981.828
90.855	12.963	1300.039	980.945
91.870	13.077	1298.950	980.714
92.884	13.050	1297.938	979.702
93.899	13.021	1297.785	979.326
94.914	13.213	1296.472	979.384
95.928	13.142	1295.810	978.382
96.943	13.088	1295.125	977.455
97.957	13.096	1293.998	976.565
98.972	13.080	1292.951	975.597
99.987	13.105	1291.517	974.577
101.001	13.137	1290.618	974.001
102.016	12.986	1290.036	972.584
103.030	13.095	1288.957	972.326
104.045	13.057	1287.959	971.262
105.060	12.936	1286.758	969.557
106.074	12.845	1285.789	968.208
107.089	12.830	1284.018	966.705
108.103	12.793	1282.886	965.548
109.118	12.799	1281.653	964.568
110.133	12.891	1279.931	963.724
111.147	12.798	1278.636	962.121
112.162	12.844	1277.429	961.395
113.176	12.879	1276.216	960.605
114.191	12.828	1275.906	959.990
115.206	12.884	1274.484	959.157
116.220	12.893	1273.296	958.233
117.235	12.904	1272.364	957.513
118.249	12.880	1271.022	956.275
119.264	12.826	1270.118	955.200
120.279	12.811	1269.156	954.304
121.293	12.884	1268.212	953.935
122.308	12.747	1267.333	952.392
123.322	12.828	1266.139	951.881
124.337	12.736	1265.015	950.421
125.352	12.760	1264.058	949.759
126.366	12.727	1263.137	948.788
127.381	12.743	1261.987	947.936
128.395	12.794	1260.873	947.309
129.410	12.767	1260.272	946.614
130.424	12.857	1259.114	946.183
131.439	12.870	1258.365	945.610
132.454	12.979	1257.327	945.370
133.468	12.933	1256.470	944.380
134.483	12.975	1255.492	943.800
135.497	12.922	1254.846	942.929
136.512	12.831	1253.683	941.448
137.527	12.972	1252.156	941.027
138.541	12.937	1250.478	939.479
139.556	12.848	1249.527	938.178
140.570	12.923	1248.635	937.853
141.585	13.087	1247.227	937.642
142.600	13.150	1246.191	937.136
143.614	13.137	1245.172	936.211
144.629	13.076	1244.252	935.095
145.643	13.124	1243.220	934.510
146.658	13.074	1241.921	933.164
147.673	13.005	1240.597	931.698
148.687	13.144	1238.876	931.106
149.702	12.936	1237.944	929.155
150.716	13.059	1236.194	928.449
151.731	13.009	1235.554	927.604
152.746	13.125	1234.670	927.509
153.760	13.020	1233.726	926.130
154.775	13.122	1232.007	925.331
155.789	13.152	1231.136	924.762
156.804	13.081	1230.313	923.666
157.819	13.168	1229.389	923.377
158.833	13.192	1228.210	922.539
159.848	13.247	1227.542	922.263
160.862	13.308	1226.189	921.505
161.877	13.134	1225.249	919.753
162.892	13.069	1223.976	918.350
163.906	12.967	1223.456	917.312
164.921	13.134	1222.303	917.295
165.935	13.198	1221.062	916.639
166.950	13.174	1220.546	916.037
167.964	13.108	1219.983	915.166
168.979	13.165	1219.777	915.249
169.994	13.138	1218.788	914.272
171.008	13.260	1217.628	913.995
172.023	13.307	1217.147	913.817
173.037	13.358	1216.163	913.276
174.052	13.336	1215.359	912.474
175.067	13.219	1214.362	910.996
176.081	13.170	1213.250	909.810
177.096	13.280	1212.417	909.713
178.110	13.291	1210.892	908.551
179.125	13.287	1209.889	907.695
180.140	13.205	1208.924	906.439
181.154	13.256	1207.839	905.825
182.169	13.311	1206.863	905.314
183.183	13.417	1205.424	904.733
184.198	13.351	1204.829	903.845
185.213	13.415	1203.064	902.795
186.227	13.497	1202.174	902.493
187.242	13.489	1201.205	901.638
188.256	13.497	1200.303	900.928
189.271	13.414	1199.298	899.645
190.286	13.386	1197.837	898.313
191.300	13.237	1197.378	897.084
192.315	13.256	1196.538	896.476
193.329	13.143	1196.252	895.573
194.344	13.296	1195.227	895.552
195.359	13.215	1194.872	894.770
196.373	13.307	1194.332	894.785
197.388	13.546	1194.030	895.771
198.402	13.707	1193.070	895.839
199.417	13.590	1193.025	895.095
200.432	13.742	1191.802	894.918
201.446	13.771	1191.145	894.501
202.461	13.691	1190.621	893.598
203.475	13.754	1189.174	892.774
204.490	13.683	1188.010	891.438
205.504	13.689	1186.515	890.270
206.519	13.626	1185.489	889.086
207.534	13.629	1184.253	888.094
208.548	13.591	1183.478	887.232
209.563	13.694	1182.334	886.843
210.577	13.781	1181.458	886.574
211.592	13.755	1180.756	885.832
212.607	13.715	1180.066	885.022
213.621	13.846	1179.060	884.889
214.636	13.735	1178.061	883.468
215.650	13.787	1177.455	883.212
216.665	13.822	1176.605	882.684
217.680	13.917	1175.443	882.238
218.694	13.910	1174.762	881.611
219.709	13.909	1173.926	880.901
220.723	13.845	1173.474	880.144
221.738	13.892	1172.533	879.611
222.753	13.879	1172.063	879.109
223.767	14.053	1170.974	879.135
224.782	14.036	1170.545	878.644
225.796	14.146	1169.482	878.351
226.811	14.142	1168.772	877.720
227.826	14.020	1168.527	876.812
228.840	13.944	1168.038	875.967
229.855	13.974	1167.360	875.541
230.869	13.954	1166.253	874.530
231.884	14.011	1165.652	874.299
232.899	13.995	1164.389	873.188
233.913	13.965	1163.728	872.462
234.928	13.930	1163.169	871.781
235.942	13.909	1162.552	871.131
236.957	13.978	1161.467	870.601
237.972	13.936	1160.840	869.837
238.986	13.981	1160.331	869.613
240.001	13.909	1159.712	868.695
241.015	14.024	1159.052	868.725
242.030	14.092	1158.084	868.275
243.045	14.074	1157.309	867.525
244.059	14.161	1156.198	867.067
245.074	14.215	1155.172	866.503
246.088	14.129	1155.164	865.972
247.103	14.264	1153.667	865.477
248.117	14.285	1153.492	865.378
249.132	14.415	1152.600	865.308
250.147	14.429	1152.020	864.867
251.161	14.504	1151.305	864.644
252.176	14.361	1150.817	863.459
253.190	14.448	1150.110	863.304
254.205	14.507	1149.379	862.985
255.220	14.623	1148.897	863.143
256.234	14.527	1148.130	861.996
257.249	14.609	1147.619	861.961
258.263	14.661	1147.204	861.838
259.278	14.542	1146.037	860.275
260.293	14.639	1145.691	860.437
261.307	14.755	1145.033	860.465
262.322	14.695	1144.208	859.462
263.336	14.670	1144.021	859.117
264.351	14.907	1142.686	859.258
265.366	14.619	1142.955	857.903
266.380	14.751	1141.943	857.740
267.395	14.734	1140.977	856.855
268.409	14.759	1140.118	856.264
269.424	14.675	1139.544	855.327
270.439	14.865	1138.944	855.774
271.453	14.748	1138.083	854.448
272.468	14.750	1137.015	853.583
273.482	14.595	1136.797	852.551
274.497	14.695	1136.239	852.570
275.512	14.704	1135.469	851.961
276.526	14.779	1134.609	851.625
277.541	14.719	1133.780	850.622
278.555	14.654	1133.619	850.091
279.570	14.894	1132.426	850.345
280.585	14.887	1131.664	849.659
281.599	14.942	1130.704	849.142
282.614	14.820	1129.895	847.840
283.628	14.876	1128.755	847.193
284.643	14.807	1128.148	846.313
285.657	14.790	1127.485	845.655
286.672	14.842	1126.615	845.194
287.687	14.876	1125.627	844.547
288.701	14.987	1124.534	844.215
289.716	14.925	1124.005	843.427
290.730	14.817	1123.329	842.301
291.745	14.905	1122.431	841.999
292.760	15.002	1121.853	841.978
293.774	15.036	1121.231	841.609
294.789	15.147	1120.689	841.684
295.803	15.163	1120.199	841.325
296.818	15.095	1119.341	840.261
297.833	15.031	1118.488	839.227
298.847	15.151	1117.515	839.023
299.862	15.055	1116.862	837.977
300.876	15.115	1116.121	837.648
301.891	15.177	1115.477	837.403
302.906	15.262	1114.937	837.348
303.920	15.209	1114.696	836.828
304.935	15.235	1114.078	836.417
305.949	15.362	1113.257	836.361
306.964	15.467	1112.429	836.187
307.979	15.347	1111.343	834.702
308.993	15.310	1110.853	834.076
310.008	15.373	1110.363	833.945
311.022	15.393	1109.702	833.473
312.037	15.319	1108.693	832.278
313.052	15.396	1107.414	831.625
314.066	15.358	1106.296	830.525
315.081	15.342	1105.799	829.998
316.095	15.215	1105.135	828.800
317.110	15.332	1104.284	828.664
318.125	15.266	1103.824	827.919
319.139	15.332	1103.053	827.595
320.154	15.271	1102.266	826.629
321.168	15.350	1102.066	826.796
322.183	15.238	1101.345	825.631
323.197	15.272	1101.132	825.562
324.212	15.251	1100.288	824.756
325.227	15.427	1099.449	824.917
326.241	15.310	1098.823	823.802
327.256	15.377	1098.222	823.604
328.270	15.440	1096.933	822.877
329.285	15.351	1096.243	821.847
330.300	15.334	1095.244	820.946
331.314	15.540	1093.615	820.659
332.329	15.412	1093.141	819.602
333.343	15.424	1092.398	819.033
334.358	15.473	1091.862	818.801
335.373	15.500	1090.845	818.094
336.387	15.582	1090.265	817.988
337.402	15.696	1089.418	817.831
338.416	15.555	1088.761	816.581
339.431	15.587	1088.339	816.349
340.446	15.652	1087.444	815.921
341.460	15.718	1087.030	815.858
342.475	15.762	1086.154	815.341
343.489	15.737	1085.327	814.527
344.504	15.866	1084.290	814.300
345.519	15.883	1083.320	813.585
346.533	15.809	1082.587	812.601
347.548	16.024	1081.648	812.865
348.562	15.793	1081.465	811.540
349.577	15.850	1080.472	810.998
350.592	15.863	1079.702	810.410
351.606	15.759	1079.067	809.365
352.621	15.755	1078.548	808.883
353.635	15.635	1077.800	807.671
354.650	15.772	1077.114	807.745
355.665	15.795	1076.503	807.323
356.679	15.812	1075.706	806.740
357.694	15.771	1075.541	806.347
358.708	15.868	1074.841	806.212
359.723	15.946	1073.843	805.770
360.738	15.964	1072.929	805.097
361.752	15.988	1072.568	804.870
362.767	15.896	1072.295	804.153
363.781	15.891	1071.838	803.714
364.796	16.112	1070.680	803.829
365.810	16.115	1070.135	803.366
366.825	16.091	1069.729	802.873
367.840	16.233	1069.179	803.068
368.854	16.245	1068.631	802.642
369.869	16.248	1067.901	802.033
370.883	16.254	1066.604	801.019
371.898	16.325	1066.065	800.881
372.913	16.118	1065.544	799.439
373.927	16.238	1065.346	799.786
374.942	16.256	1065.061	799.585
375.956	16.070	1064.708	798.370
376.971	16.170	1063.709	798.024
377.986	16.208	1063.080	797.660
379.000	16.341	1062.360	797.677
380.015	16.381	1062.222	797.694
381.029	16.418	1061.104	796.955
382.044	16.484	1060.643	796.853
383.059	16.509	1059.884	796.326
384.073	16.463	1059.249	795.564
385.088	16.479	1058.326	794.877
386.102	16.474	1057.257	793.981
387.117	16.454	1056.079	792.932
388.132	16.336	1055.284	791.709
389.146	16.311	1054.719	791.097
390.161	16.347	1053.953	790.621
391.175	16.391	1053.482	790.406
392.190	16.400	1052.742	789.821
393.205	16.479	1051.822	789.430
394.219	16.572	1050.763	789.002
395.234	16.568	1049.778	788.175
396.248	16.493	1049.073	787.225
397.263	16.476	1048.095	786.340
398.278	16.402	1047.492	785.474
399.292	16.482	1046.917	785.346
400.307	16.414	1046.315	784.508
401.321	16.488	1045.484	784.161
402.336	16.611	1044.662	784.044
403.350	16.615	1043.920	783.436
404.365	16.547	1043.475	782.721
405.380	16.476	1043.268	782.165
406.394	16.506	1042.631	781.760
407.409	16.564	1041.800	781.335
408.423	16.746	1040.598	781.202
409.438	16.678	1040.058	780.415
410.453	16.721	1039.387	780.040
411.467	16.783	1039.029	779.986
412.482	16.854	1038.319	779.712
413.496	16.847	1037.346	778.880
414.511	16.892	1036.916	778.695
415.526	16.972	1036.399	778.604
416.540	17.105	1035.741	778.652
417.555	17.058	1035.284	778.026
418.569	16.915	1034.971	777.065
419.584	16.877	1034.518	776.482
420.599	17.018	1034.037	776.698
421.613	103.489	1322.904	1471.356
422.628	94.799	1364.937	1471.466
