DTS Sentinel unit serial number:	SN413079Multiplexer serial number:	ORYXHardware model number:	OX4-SRSoftware version number:	ORYX F/W v4.00 Oryx Data Collector v3.7.2.0data status	okinstallation	princeton_trtdifferential loss correction	single-endedforward channel	channel 2reverse channel	N/Adate	2019/09/15time	01:19:35forward acquisition time	60.00reverse acquisition time	0.00gamma	496.2192k internal	0.2325k external	0.2325temperature offset calibration	1.0035default loss term (dB/km)	0.3790temperature slope calibration	1.0000multiplexer offset coefficient	1.0000multiplexer slope coefficient	1.0000fibre end	0.00T internal ref (°C)	31.94T ext. ref 1 (°C)	4.52T ext. ref 2 (°C)	26.85length (m)	temperature (°C)	Stokes	anti-Stokes-747.200	-54.038	-0.383	-0.176
-746.185	114.347	-0.091	0.112
-745.171	-153.985	0.047	-0.003
-744.156	44.086	0.261	0.241
-743.142	215.837	0.136	0.218
-742.127	-106.806	0.010	0.002
-741.112	-140.517	-0.230	0.024
-740.098	-200.000	-0.026	0.414
-739.083	-133.255	-0.365	-0.047
-738.069	115.100	-0.196	0.242
-737.054	-200.000	-0.020	0.159
-736.039	800.000	0.012	0.045
-735.025	-31.877	0.187	0.106
-734.010	127.008	0.040	-0.052
-732.996	-112.524	-0.439	-0.088
-731.981	-91.526	0.129	0.037
-730.966	-91.376	-0.198	-0.057
-729.952	485.302	0.132	-0.302
-728.937	-83.957	-0.122	0.039
-727.923	-137.691	-0.190	-0.022
-726.908	25.340	-0.278	-0.233
-725.894	-200.000	-0.023	-0.103
-724.879	-158.842	-0.393	0.023
-723.864	-200.000	0.006	-0.055
-722.850	79.662	-0.052	-0.056
-721.835	457.484	-0.129	0.290
-720.821	285.280	0.072	-0.131
-719.806	21.445	-0.092	0.075
-718.791	-76.885	-0.078	-0.027
-717.777	-128.870	-0.129	-0.018
-716.762	800.000	-0.046	-0.159
-715.748	-37.824	0.298	0.160
-714.733	800.000	-0.054	-0.187
-713.718	-125.751	0.166	0.025
-712.704	525.934	0.093	0.222
-711.689	-102.906	-0.402	0.096
-710.675	91.262	0.244	-0.277
-709.660	322.053	-0.077	0.148
-708.645	-101.328	0.175	-0.043
-707.631	-91.443	-0.037	-0.011
-706.616	193.883	-0.189	-0.288
-705.602	800.000	-0.058	-0.213
-704.587	102.397	-0.068	-0.080
-703.572	177.257	-0.066	-0.097
-702.558	56.829	0.195	0.192
-701.543	633.791	0.051	-0.130
-700.529	-200.000	0.004	-0.036
-699.514	106.884	0.053	0.064
-698.499	17.277	-0.309	-0.247
-697.485	800.000	-0.088	0.311
-696.470	338.391	-0.092	0.180
-695.456	800.000	0.084	0.308
-694.441	752.748	0.084	0.228
-693.426	19.086	-0.115	0.093
-692.412	-200.000	0.014	0.096
-691.397	-93.104	-0.076	0.021
-690.383	-200.000	-0.046	0.267
-689.368	-132.884	-0.293	0.038
-688.354	291.069	0.092	-0.168
-687.339	71.264	-0.157	0.164
-686.324	-200.000	0.015	0.080
-685.310	-172.213	0.130	-0.004
-684.295	800.000	-0.059	-0.254
-683.281	-200.000	0.061	-0.459
-682.266	-24.098	-0.315	-0.189
-681.251	-153.867	0.127	0.009
-680.237	-104.008	0.110	0.026
-679.222	465.540	-0.063	0.142
-678.208	86.834	-0.375	0.417
-677.193	-102.402	-0.145	-0.035
-676.178	94.296	-0.193	0.220
-675.164	550.196	0.110	0.265
-674.149	481.902	0.124	0.284
-673.135	29.310	0.194	0.165
-672.120	-200.000	0.002	0.119
-671.105	-200.000	-0.054	0.249
-670.091	41.958	-0.135	0.124
-669.076	-200.000	-0.016	-0.222
-668.062	800.000	-0.079	0.249
-667.047	-115.536	-0.231	0.044
-666.032	-200.000	0.022	0.167
-665.018	-160.616	0.207	0.011
-664.003	290.230	-0.161	0.295
-662.989	-95.329	-0.242	0.066
-661.974	800.000	-0.027	0.101
-660.959	-200.000	0.008	-0.090
-659.945	-58.840	-0.361	0.157
-658.930	-103.816	-0.122	0.029
-657.916	-168.477	-0.310	0.012
-656.901	-150.378	0.073	-0.006
-655.886	30.110	-0.139	0.120
-654.872	10.911	-0.148	0.113
-653.857	-40.608	-0.029	-0.015
-652.843	-200.000	0.018	0.242
-651.828	180.542	0.118	0.174
-650.814	-9.385	-0.284	0.191
-649.799	396.450	0.105	0.220
-648.784	-106.990	0.126	-0.028
-647.770	4.587	-0.169	-0.125
-646.755	-48.933	-0.272	0.131
-645.741	-163.189	0.149	-0.007
-644.726	26.692	0.145	-0.122
-643.711	-32.830	0.282	-0.158
-642.697	63.774	-0.130	-0.132
-641.682	-88.125	0.221	-0.067
-640.668	800.000	0.086	-0.260
-639.653	161.548	-0.209	0.294
-638.638	-99.667	0.225	0.057
-637.624	-94.273	0.164	-0.045
-636.609	0.188	-0.155	-0.111
-635.595	-48.695	0.174	-0.084
-634.580	92.681	-0.049	0.055
-633.565	-25.515	-0.320	0.190
-632.551	-4.991	0.189	-0.131
-631.536	-34.422	0.113	0.062
-630.522	-62.186	-0.302	0.126
-629.507	-200.000	-0.024	-0.305
-628.492	-21.958	-0.081	0.049
-627.478	-126.783	0.152	0.023
-626.463	123.790	0.194	0.244
-625.449	800.000	-0.036	0.160
-624.434	518.836	-0.094	0.221
-623.419	378.558	0.148	0.305
-622.405	-155.968	-0.120	0.008
-621.390	147.915	0.087	-0.118
-620.376	148.026	-0.119	-0.161
-619.361	174.878	-0.066	0.095
-618.346	591.208	-0.084	0.209
-617.332	112.436	0.096	-0.116
-616.317	700.220	0.043	0.114
-615.303	-98.181	0.118	-0.030
-614.288	800.000	-0.044	-0.183
-613.273	-80.914	-0.207	0.069
-612.259	-137.068	0.206	0.024
-611.244	245.906	0.101	0.171
-610.230	-200.000	0.017	-0.448
-609.215	-71.571	-0.286	0.107
-608.201	624.086	0.070	-0.177
-607.186	-55.027	0.167	-0.075
-606.171	-77.981	0.101	0.035
-605.157	-200.000	-0.004	-0.143
-604.142	800.000	0.128	-0.359
-603.128	248.130	-0.125	0.212
-602.113	-50.984	-0.116	0.055
-601.098	-7.493	-0.264	-0.179
-600.084	-58.108	0.482	-0.211
-599.069	-80.726	0.229	0.076
-598.055	-200.000	-0.028	-0.188
-597.040	800.000	-0.066	-0.204
-596.025	561.806	-0.064	-0.156
-595.011	167.115	0.116	0.165
-593.996	800.000	0.084	-0.275
-592.982	-104.820	-0.303	-0.070
-591.967	-94.037	0.306	0.084
-590.952	-51.111	0.242	-0.114
-589.938	-200.000	-0.029	0.195
-588.923	-43.102	-0.360	-0.183
-587.909	800.000	0.026	-0.074
-586.894	800.000	0.092	-0.292
-585.879	-64.247	0.078	-0.032
-584.865	-71.260	-0.054	-0.020
-583.850	63.456	-0.186	-0.187
-582.836	800.000	0.027	0.118
-581.821	19.487	-0.161	0.129
-580.806	-29.022	0.148	-0.085
-579.792	299.690	0.065	0.120
-578.777	-200.000	0.167	0.000
-577.763	118.383	0.072	-0.089
-576.748	31.357	-0.275	0.237
-575.733	800.000	0.025	-0.104
-574.719	2.981	-0.073	-0.053
-573.704	800.000	0.048	-0.206
-572.690	-200.000	0.053	-0.234
-571.675	-200.000	-0.068	0.298
-570.661	800.000	0.040	-0.159
-569.646	800.000	0.058	-0.211
-568.631	-142.355	0.161	0.016
-567.617	544.649	0.117	-0.280
-566.602	93.245	0.101	-0.114
-565.588	800.000	0.049	0.175
-564.573	57.520	0.279	-0.273
-563.558	-96.476	-0.297	-0.078
-562.544	51.842	-0.075	0.072
-561.529	361.714	0.075	-0.151
-560.515	-99.598	0.082	-0.021
-559.500	-200.000	0.017	0.332
-558.485	206.461	0.037	-0.058
-557.471	-200.000	-0.009	-0.094
-556.456	304.167	0.235	-0.436
-555.442	386.284	0.113	-0.233
-554.427	-200.000	0.042	-0.190
-553.412	-69.033	-0.230	-0.089
-552.398	-78.139	-0.085	0.029
-551.383	-9.829	-0.159	0.106
-550.369	185.734	0.041	0.061
-549.354	-4.698	0.194	0.134
-548.339	-200.000	0.008	-0.144
-547.325	-200.000	0.003	-0.145
-546.310	166.748	-0.225	0.320
-545.296	-200.000	-0.032	-0.422
-544.281	437.552	-0.232	-0.507
-543.266	40.920	-0.261	-0.236
-542.252	-200.000	-0.000	-0.179
-541.237	800.000	-0.103	-0.404
-540.223	683.662	0.069	0.181
-539.208	169.629	-0.109	-0.156
-538.193	1.693	-0.154	-0.111
-537.179	336.086	-0.092	0.178
-536.164	151.757	-0.277	-0.378
-535.150	-147.512	-0.100	0.008
-534.135	15.966	-0.222	0.175
-533.121	-177.840	0.181	-0.004
-532.106	136.253	-0.178	-0.233
-531.091	800.000	0.016	0.068
-530.077	48.755	0.161	0.151
-529.062	800.000	-0.009	0.037
-528.048	-200.000	-0.013	-0.294
-527.033	531.533	0.025	-0.059
-526.018	-31.761	-0.136	-0.076
-525.004	-60.603	0.225	0.095
-523.989	-187.095	-0.241	0.003
-522.975	46.312	-0.160	-0.148
-521.960	256.161	-0.120	0.205
-520.945	177.556	-0.050	0.073
-519.931	-1.167	0.072	-0.051
-518.916	-200.000	0.036	-0.274
-517.902	41.858	-0.184	-0.167
-516.887	64.317	-0.032	-0.033
-515.872	-200.000	-0.011	0.073
-514.858	800.000	-0.017	-0.052
-513.843	169.393	0.043	0.061
-512.829	142.268	-0.187	-0.248
-511.814	563.681	-0.093	0.226
-510.799	771.018	-0.041	-0.111
-509.785	800.000	0.028	-0.106
-508.770	-130.268	-0.530	0.072
-507.756	-62.715	0.201	0.083
-506.741	-200.000	0.041	0.262
-505.726	-136.015	0.134	0.016
-504.712	-66.964	-0.088	0.035
-503.697	-173.990	0.239	0.007
-502.683	361.456	-0.072	-0.144
-501.668	-71.879	-0.078	0.029
-500.653	572.955	-0.080	-0.195
-499.639	29.030	0.211	0.179
-498.624	800.000	0.080	-0.320
-497.610	526.597	0.068	-0.161
-496.595	-200.000	0.056	-0.371
-495.581	29.378	0.165	0.140
-494.566	327.199	0.105	0.202
-493.551	356.118	-0.081	0.160
-492.537	101.817	-0.124	-0.145
-491.522	-200.000	0.012	-0.130
-490.508	-200.000	-0.004	0.048
-489.493	-200.000	-0.001	0.054
-488.478	-200.000	0.006	-0.078
-487.464	-53.247	0.104	0.048
-486.449	-200.000	-0.027	0.154
-485.435	117.394	0.315	-0.386
-484.420	-200.000	0.001	-0.169
-483.405	43.232	0.208	-0.190
-482.391	187.917	0.058	-0.086
-481.376	88.559	0.138	0.153
-480.362	-32.505	0.332	0.185
-479.347	-158.966	0.249	0.014
-478.332	302.403	-0.060	-0.112
-477.318	-79.013	0.213	0.072
-476.303	-200.000	-0.031	-0.364
-475.289	-151.621	0.422	-0.031
-474.274	495.462	-0.040	-0.092
-473.259	-200.000	0.003	0.077
-472.245	-85.709	0.209	0.065
-471.230	30.183	-0.262	-0.223
-470.216	183.880	-0.108	-0.160
-469.201	66.400	-0.039	-0.039
-468.186	-99.145	-0.308	0.078
-467.172	308.750	0.117	0.218
-466.157	-35.472	-0.103	-0.056
-465.143	-2.215	-0.209	0.147
-464.128	-200.000	-0.025	-0.169
-463.113	-187.425	-0.240	-0.003
-462.099	-153.133	0.171	0.012
-461.084	295.576	0.228	-0.417
-460.070	800.000	-0.125	0.373
-459.055	-200.000	0.019	0.113
-458.040	-200.000	-0.010	0.249
-457.026	-179.166	0.249	0.006
-456.011	-27.768	-0.205	-0.119
-454.997	24.302	-0.113	-0.093
-453.982	-136.870	-0.150	0.017
-452.968	10.952	-0.090	0.069
-451.953	120.017	-0.118	-0.146
-450.938	-108.138	-0.080	-0.017
-449.924	11.318	0.124	-0.095
-448.909	-83.895	0.201	-0.064
-447.895	-54.389	-0.445	-0.201
-446.880	-200.000	0.044	0.237
-445.865	-113.687	0.115	-0.022
-444.851	-19.394	-0.323	-0.200
-443.836	25.753	0.078	0.064
-442.822	61.756	0.122	0.121
-441.807	-59.072	-0.199	0.086
-440.792	-19.271	-0.107	0.066
-439.778	133.517	-0.085	-0.109
-438.763	-52.803	-0.375	-0.172
-437.749	15.849	0.126	0.099
-436.734	-200.000	-0.333	0.002
-435.719	-115.469	0.223	-0.042
-434.705	774.179	-0.189	0.513
-433.690	607.015	-0.150	0.372
-432.676	-4.574	-0.102	-0.071
-431.661	-108.841	0.169	-0.036
-430.646	-200.000	0.017	0.188
-429.632	-109.816	-0.166	0.035
-428.617	800.000	0.059	0.195
-427.603	-200.000	0.011	-0.079
-426.588	-200.000	0.000	-0.076
-425.573	-8.963	0.199	-0.133
-424.559	628.507	0.056	-0.141
-423.544	45.566	0.322	-0.296
-422.530	-178.359	-0.170	-0.004
-421.515	43.909	0.123	-0.112
-420.500	-76.606	0.167	0.058
-419.486	58.521	0.121	-0.118
-418.471	-75.210	-0.371	0.132
-417.457	800.000	-0.028	-0.097
-416.442	274.369	-0.116	-0.204
-415.428	-10.637	0.079	-0.052
-414.413	-97.298	0.101	-0.026
-413.398	-200.000	-0.005	0.095
-412.384	181.980	-0.135	0.198
-411.369	-123.021	0.063	-0.010
-410.355	-200.000	0.022	-0.145
-409.340	-77.217	-0.237	-0.082
-408.325	367.049	-0.056	-0.112
-407.311	60.592	-0.165	0.162
-406.296	545.566	-0.103	0.246
-405.282	9.838	-0.207	-0.156
-404.267	800.000	-0.146	0.409
-403.252	83.441	0.136	-0.148
-402.238	800.000	0.131	-0.439
-401.223	-118.850	-0.476	0.083
-400.209	-200.000	-0.069	0.352
-399.194	-126.064	-0.122	-0.018
-398.179	77.297	0.062	-0.066
-397.165	-31.486	0.178	0.100
-396.150	252.990	-0.133	-0.226
-395.136	13.356	-0.114	0.088
-394.121	800.000	0.082	-0.232
-393.106	-200.000	-0.032	0.165
-392.092	-61.291	-0.036	-0.015
-391.077	744.951	0.052	-0.138
-390.063	-200.000	-0.014	-0.333
-389.048	-200.000	-0.028	-0.198
-388.033	-34.078	-0.103	-0.056
-387.019	232.762	-0.152	0.248
-386.004	224.291	-0.121	-0.194
-384.990	-46.641	0.279	0.136
-383.975	148.653	-0.042	-0.056
-382.960	800.000	0.026	0.106
-381.946	-200.000	-0.006	0.212
-380.931	-64.728	-0.162	-0.065
-379.917	-124.281	0.153	-0.024
-378.902	-90.350	0.047	0.013
-377.888	-117.745	-0.257	-0.046
-376.873	54.172	0.299	0.286
-375.858	-200.000	-0.029	0.247
-374.844	398.690	0.127	0.263
-373.829	-151.157	0.106	0.008
-372.815	800.000	-0.096	0.324
-371.800	139.515	-0.159	0.208
-370.785	417.769	-0.120	-0.255
-369.771	509.102	0.064	-0.148
-368.756	-102.142	-0.162	-0.039
-367.742	-200.000	0.020	0.167
-366.727	-57.002	-0.040	0.018
-365.712	-45.678	0.115	-0.056
-364.698	-21.352	-0.095	0.057
-363.683	-200.000	-0.013	-0.101
-362.669	-63.522	0.258	-0.105
-361.654	-138.006	-0.243	-0.027
-360.639	-28.561	0.340	0.195
-359.625	27.062	0.052	-0.044
-358.610	160.595	-0.090	-0.125
-357.596	5.839	-0.095	0.070
-356.581	-38.021	-0.173	-0.091
-355.566	-200.000	-0.179	-0.001
-354.552	761.708	0.128	0.346
-353.537	264.300	0.093	0.161
-352.523	724.338	0.055	0.146
-351.508	-200.000	0.049	0.395
-350.493	376.261	0.198	0.402
-349.479	640.206	0.039	0.099
-348.464	501.927	-0.182	0.417
-347.450	-200.000	-0.006	0.087
-346.435	484.128	0.050	0.112
-345.420	-24.708	-0.099	0.058
-344.406	322.478	0.118	0.223
-343.391	71.818	0.150	0.155
-342.377	56.251	0.189	0.182
-341.362	-200.000	0.001	0.044
-340.348	-99.671	-0.075	0.019
-339.333	800.000	-0.054	0.224
-338.318	-152.072	0.226	-0.016
-337.304	-84.667	-0.417	-0.130
-336.289	-79.422	-0.240	0.081
-335.275	-200.000	0.004	-0.023
-334.260	-81.414	0.300	0.098
-333.245	43.247	0.090	0.082
-332.231	420.847	-0.030	-0.064
-331.216	265.141	-0.126	-0.217
-330.202	-200.000	-0.003	-0.359
-329.187	31.967	0.241	-0.206
-328.172	-104.840	0.210	-0.048
-327.158	-34.658	0.121	-0.066
-326.143	-200.000	-0.014	0.082
-325.129	106.691	0.225	0.264
-324.114	233.750	0.122	0.199
-323.099	72.290	-0.103	-0.107
-322.085	63.512	-0.073	0.072
-321.070	-126.583	-0.284	-0.042
-320.056	768.437	-0.051	-0.139
-319.041	230.464	0.216	-0.351
-318.026	304.736	-0.038	-0.070
-317.012	324.323	0.161	0.305
-315.997	-27.472	-0.151	-0.087
-314.983	-70.560	-0.110	-0.041
-313.968	-200.000	-0.005	-0.162
-312.953	-161.811	-0.139	0.007
-311.939	-51.941	0.166	0.077
-310.924	-41.320	-0.293	-0.150
-309.910	292.431	-0.187	-0.338
-308.895	-144.481	0.166	-0.015
-307.880	280.615	0.141	0.250
-306.866	-126.097	-0.266	-0.040
-305.851	-54.557	-0.368	-0.165
-304.837	-53.821	-0.270	0.122
-303.822	78.935	0.027	0.029
-302.807	-68.835	-0.104	-0.040
-301.793	-179.958	-0.233	-0.005
-300.778	-136.301	-0.102	0.012
-299.764	165.781	-0.181	0.255
-298.749	-200.000	-0.004	-0.176
-297.735	-79.210	0.130	0.044
-296.720	-168.651	0.147	0.006
-295.705	2.469	-0.117	0.084
-294.691	-70.723	-0.029	0.011
-293.676	-86.307	0.137	0.042
-292.662	-163.135	-0.148	-0.007
-291.647	800.000	-0.066	0.233
-290.632	-128.553	0.093	0.013
-289.618	388.770	-0.034	-0.069
-288.603	87.987	-0.216	0.237
-287.589	-200.000	0.037	0.262
-286.574	-88.212	0.237	-0.070
-285.559	-13.773	0.102	-0.065
-284.545	-16.803	0.073	-0.046
-283.530	-53.585	0.156	0.071
-282.516	-54.165	-0.396	-0.178
-281.501	-14.370	-0.166	-0.106
-280.486	-106.637	-0.281	-0.062
-279.472	403.034	0.096	-0.200
-278.457	112.400	-0.158	-0.189
-277.443	100.038	0.069	0.080
-276.428	138.484	0.160	0.208
-275.413	800.000	0.056	0.171
-274.399	-66.307	-0.102	0.040
-273.384	325.090	-0.276	0.523
-272.370	794.649	-0.040	-0.108
-271.355	-198.985	-0.035	-0.000
-270.340	93.030	0.161	-0.180
-269.326	-16.446	-0.168	0.105
-268.311	148.473	-0.176	0.236
-267.297	412.805	0.040	-0.085
-266.282	800.000	0.021	-0.081
-265.267	13.402	0.385	-0.296
-264.253	341.813	-0.143	0.277
-263.238	43.613	-0.107	0.097
-262.224	-165.079	-0.116	0.005
-261.209	185.347	-0.093	-0.137
-260.195	-120.606	0.304	0.051
-259.180	-72.386	-0.090	-0.033
-258.165	-18.732	0.246	0.152
-257.151	164.199	-0.232	0.323
-256.136	-44.631	-0.262	0.130
-255.122	-61.119	0.159	0.067
-254.107	-86.221	0.189	0.058
-253.092	-75.267	-0.146	-0.052
-252.078	-123.655	0.314	0.049
-251.063	-120.644	-0.197	-0.033
-250.049	-13.390	0.295	0.189
-249.034	-200.000	-0.025	-0.160
-248.019	64.359	0.128	0.127
-247.005	-188.864	0.472	-0.006
-245.990	-200.000	-0.036	-0.335
-244.976	-161.782	-0.129	0.006
-243.961	-27.092	0.252	-0.146
-242.946	-28.113	0.133	0.076
-241.932	800.000	0.021	-0.084
-240.917	-55.317	0.382	-0.170
-239.903	142.248	0.203	0.267
-238.888	38.871	0.260	-0.230
-237.873	-26.078	0.144	-0.084
-236.859	-110.703	0.096	-0.020
-235.844	-63.445	0.302	-0.123
-234.830	213.493	0.190	0.297
-233.815	139.064	-0.055	0.072
-232.800	672.500	-0.097	0.248
-231.786	-19.680	-0.276	0.169
-230.771	-200.000	-0.006	0.078
-229.757	-200.000	0.038	0.171
-228.742	-16.792	0.155	0.097
-227.727	800.000	-0.094	-0.367
-226.713	-200.000	-0.027	-0.159
-225.698	-167.211	-0.249	0.010
-224.684	-0.289	0.246	0.173
-223.669	800.000	0.065	0.272
-222.655	-43.826	0.219	0.109
-221.640	-117.779	0.186	-0.033
-220.625	800.000	0.063	-0.209
-219.611	-200.000	0.022	-0.141
-218.596	-200.000	0.002	0.346
-217.582	-200.000	0.000	0.190
-216.567	130.006	0.071	0.090
-215.552	-185.632	0.205	-0.003
-214.538	-200.000	-0.044	0.252
-213.523	-200.000	0.013	-0.160
-212.509	-200.000	-0.018	-0.125
-211.494	241.886	-0.022	0.037
-210.479	79.980	0.225	0.239
-209.465	122.374	0.020	0.024
-208.450	-108.034	0.106	0.023
-207.436	539.120	0.039	0.092
-206.421	-64.470	0.091	-0.037
-205.406	-49.040	0.451	-0.213
-204.392	329.548	0.128	0.243
-203.377	800.000	0.017	0.061
-202.363	747.788	0.037	0.100
-201.348	-48.169	-0.388	-0.185
-200.333	309.318	-0.238	-0.439
-199.319	-200.000	0.030	-0.133
-198.304	-200.000	-0.018	0.201
-197.290	-200.000	0.012	-0.119
-196.275	23.469	0.082	-0.067
-195.260	-1.757	-0.097	-0.067
-194.246	-99.129	0.154	-0.039
-193.231	-200.000	-0.035	0.372
-192.217	-28.648	0.114	-0.065
-191.202	800.000	0.155	0.517
-190.187	-6.114	0.114	0.077
-189.173	62.958	-0.093	-0.092
-188.158	-200.000	-0.007	-0.188
-187.144	-133.705	0.133	-0.016
-186.129	388.932	-0.185	0.377
-185.114	-200.000	-0.022	0.226
-184.100	324.132	0.131	0.247
-183.085	-145.490	0.359	-0.032
-182.071	-119.941	-0.328	0.056
-181.056	-200.000	-0.011	0.073
-180.042	225.442	0.060	0.096
-179.027	-200.000	-0.026	0.118
-178.012	-33.307	0.282	0.154
-176.998	-55.194	-0.285	0.127
-175.983	-163.263	-0.366	0.017
-174.969	379.691	0.042	0.084
-173.954	50.726	-0.274	-0.256
-172.939	-200.000	0.019	-0.204
-171.925	-44.310	-0.083	0.041
-170.910	187.191	0.050	0.074
-169.896	-95.591	-0.079	-0.021
-168.881	31.807	-0.044	0.037
-167.866	441.374	-0.081	0.174
-166.852	335.785	0.207	0.397
-165.837	-200.000	0.043	-0.250
-164.823	-40.445	0.147	0.075
-163.808	1.926	-0.258	0.184
-162.793	-106.742	-0.009	0.002
-161.779	638.027	0.084	0.211
-160.764	-35.954	-0.214	-0.114
-159.750	127.231	-0.126	-0.158
-158.735	288.170	0.008	0.015
-157.720	-200.000	-0.014	0.354
-156.706	9.866	-0.304	0.227
-155.691	-139.260	-0.083	0.009
-154.677	4.966	0.301	-0.219
-153.662	38.297	0.156	0.137
-152.647	75.022	0.224	-0.232
-151.633	-200.000	0.012	-0.175
-150.618	-55.249	0.101	-0.045
-149.604	540.880	0.030	0.071
-148.589	-64.650	-0.160	0.064
-147.574	504.151	0.065	0.149
-146.560	-14.597	-0.067	-0.043
-145.545	258.723	-0.084	0.142
-144.531	-200.000	0.009	0.125
-143.516	-128.031	0.058	0.008
-142.502	800.000	-0.065	-0.278
-141.487	9.053	0.133	0.099
-140.472	-95.803	0.145	0.038
-139.458	-128.913	0.034	0.005
-138.443	104.751	-0.201	-0.233
-137.429	-66.504	-0.117	0.046
-136.414	-200.000	0.030	-0.229
-135.399	-48.264	0.239	0.114
-134.385	126.387	-0.225	0.280
-133.370	0.607	0.282	0.199
-132.356	76.758	-0.116	0.121
-131.341	90.943	0.108	-0.119
-130.326	-99.654	-0.426	0.105
-129.312	197.299	-0.124	0.186
-128.297	20.549	0.162	0.129
-127.283	-198.897	0.199	-0.001
-126.268	-109.668	-0.153	-0.032
-125.253	-43.225	-0.275	-0.137
-124.239	-23.298	0.063	0.037
-123.224	71.919	0.170	-0.174
-122.210	100.779	-0.063	-0.072
-121.195	-101.964	-0.192	-0.046
-120.180	-22.152	-0.084	0.050
-119.166	-82.556	0.230	0.073
-118.151	-57.604	0.493	0.213
-117.137	800.000	0.055	0.193
-116.122	-200.000	0.042	-0.508
-115.107	-49.466	0.253	0.119
-114.093	-121.470	0.085	-0.014
-113.078	-35.909	0.109	0.058
-112.064	-99.131	0.496	0.124
-111.049	491.036	-0.080	-0.179
-110.034	477.940	-0.179	0.400
-109.020	106.397	-0.223	0.261
-108.005	19.186	-0.111	0.088
-106.991	-200.000	0.033	0.280
-105.976	800.000	0.037	0.118
-104.962	-3.054	-0.125	0.086
-103.947	-200.000	-0.024	-0.153
-102.932	32.409	-0.157	-0.133
-101.918	-48.463	-0.119	0.056
-100.903	800.000	0.043	-0.140
-99.889	74.594	-0.203	-0.210
-98.874	42.896	0.151	-0.135
-97.859	-200.000	-0.059	-0.320
-96.845	135.561	0.104	-0.133
-95.830	55.513	0.052	0.050
-94.816	-19.097	0.182	-0.111
-93.801	143.410	0.132	0.173
-92.786	-0.592	-0.231	-0.162
-91.772	-200.000	-0.004	-0.028
-90.757	122.552	-0.164	-0.202
-89.743	-200.000	-0.042	0.187
-88.728	98.594	0.323	0.366
-87.713	-200.000	-0.029	0.126
-86.699	36.504	-0.196	-0.170
-85.684	3.966	-0.300	-0.216
-84.670	447.233	-0.122	0.263
-83.655	-29.360	0.083	0.047
-82.640	-111.231	-0.099	-0.020
-81.626	-200.000	0.044	0.274
-80.611	-41.737	0.098	-0.050
-79.597	255.536	-0.215	-0.362
-78.582	38.606	0.056	-0.049
-77.567	800.000	-0.042	0.171
-76.553	-7.211	-0.107	0.071
-75.538	-200.000	0.027	0.177
-74.524	-18.683	0.099	0.061
-73.509	800.000	-0.135	-0.398
-72.494	-12.029	0.055	0.036
-71.480	246.012	0.034	-0.057
-70.465	57.577	-0.069	-0.066
-69.451	-129.360	-0.486	-0.066
-68.436	106.672	0.130	-0.152
-67.422	-34.772	0.219	-0.117
-66.407	171.977	0.159	0.225
-65.392	-200.000	0.046	0.379
-64.378	4.182	0.212	0.152
-63.363	800.000	0.056	-0.206
-62.349	-146.498	0.229	-0.020
-61.334	60.614	-0.964	-0.939
-60.319	-45.988	0.586	0.284
-59.305	-200.000	-0.084	-0.713
-58.290	800.000	0.329	1.273
-57.276	800.000	0.306	1.109
-56.261	-200.000	95.884	595.278
-55.246	659.172	1368.836	3459.835
-54.232	199.152	2553.639	3843.339
-53.217	113.635	2268.879	2706.816
-52.203	41.509	1897.067	1686.545
-51.188	35.295	1686.421	1452.334
-50.173	32.559	1642.794	1394.485
-49.159	50.097	1688.676	1565.335
-48.144	51.628	1705.817	1592.640
-47.130	34.873	1666.605	1431.881
-46.115	32.093	1652.375	1398.927
-45.100	31.847	1647.926	1393.271
-44.086	31.843	1645.177	1390.862
-43.071	31.913	1642.335	1388.925
-42.057	31.804	1640.196	1386.259
-41.042	31.961	1637.750	1385.296
-40.027	31.806	1636.329	1382.892
-39.013	31.820	1633.934	1380.915
-37.998	31.784	1632.622	1379.489
-36.984	31.737	1631.822	1378.408
-35.969	31.977	1629.699	1378.330
-34.954	31.973	1627.990	1376.799
-33.940	31.972	1626.210	1375.231
-32.925	32.006	1624.528	1374.003
-31.911	31.965	1623.085	1372.428
-30.896	31.943	1621.018	1370.466
-29.881	31.941	1619.512	1369.126
-28.867	31.860	1618.183	1367.350
-27.852	31.891	1617.016	1366.542
-26.838	31.908	1614.749	1364.690
-25.823	31.908	1613.242	1363.365
-24.809	31.910	1612.096	1362.359
-23.794	31.954	1610.562	1361.329
-22.779	31.964	1608.747	1359.808
-21.765	31.884	1607.440	1358.074
-20.750	31.966	1605.696	1357.135
-19.736	31.951	1604.801	1356.222
-18.721	31.987	1603.273	1355.132
-17.706	31.991	1601.481	1353.593
-16.692	31.908	1600.127	1351.797
-15.677	31.895	1598.965	1350.667
-14.663	31.988	1597.862	1350.351
-13.648	32.086	1595.751	1349.218
-12.633	32.057	1594.476	1347.879
-11.619	31.999	1592.748	1345.947
-10.604	32.006	1590.991	1344.462
-9.590	32.008	1590.049	1343.627
-8.575	32.029	1588.685	1342.574
-7.560	32.027	1587.936	1341.871
-6.546	31.933	1586.799	1340.186
-5.531	31.884	1585.976	1339.089
-4.517	31.988	1584.280	1338.341
-3.502	32.018	1583.173	1337.566
-2.487	31.983	1581.938	1336.220
-1.473	31.647	1570.167	1323.850
-0.458	29.007	1550.527	1288.778
0.556	24.879	1550.690	1257.426
1.571	22.446	1574.264	1259.056
2.586	21.940	1587.206	1265.645
3.600	19.433	1534.019	1205.632
4.615	11.751	1426.594	1070.989
5.629	5.547	1364.407	985.264
6.644	4.682	1356.743	974.228
7.659	4.445	1355.411	971.701
8.673	4.430	1354.597	970.938
9.688	4.533	1352.882	970.263
10.702	4.442	1349.665	967.305
11.717	7.361	1354.630	989.004
12.731	14.527	1368.203	1043.821
13.746	19.166	1375.020	1078.044
14.761	18.908	1373.691	1075.294
15.775	17.952	1370.590	1066.799
16.790	16.815	1368.353	1057.867
17.804	15.991	1366.112	1050.903
18.819	15.703	1364.791	1048.003
19.834	15.312	1363.645	1044.592
20.848	15.063	1362.592	1042.146
21.863	14.902	1360.778	1039.663
22.877	14.701	1359.920	1037.667
23.892	14.645	1358.943	1036.483
24.907	14.735	1358.546	1036.649
25.921	14.739	1357.460	1035.754
26.936	14.840	1355.969	1035.146
27.950	14.829	1355.570	1034.680
28.965	14.875	1354.716	1034.227
29.980	15.018	1353.151	1033.822
30.994	15.102	1352.090	1033.440
32.009	14.980	1351.283	1031.980
33.023	15.107	1349.471	1031.285
34.038	15.024	1348.317	1029.801
35.053	14.820	1347.702	1027.985
36.067	14.890	1346.507	1027.411
37.082	14.939	1345.184	1026.610
38.096	14.929	1344.470	1025.915
39.111	15.038	1343.450	1025.717
40.126	14.888	1342.802	1024.208
41.140	14.742	1342.140	1022.718
42.155	14.609	1341.729	1021.502
43.169	14.590	1341.572	1021.175
44.184	14.654	1341.074	1021.100
45.199	14.645	1340.451	1020.480
46.213	14.794	1339.789	1020.797
47.228	14.859	1339.080	1020.561
48.242	14.855	1337.974	1019.603
49.257	14.896	1336.229	1018.431
50.271	14.794	1335.023	1016.804
51.286	14.906	1333.629	1016.330
52.301	14.889	1332.711	1015.438
53.315	14.776	1331.339	1013.617
54.330	14.683	1330.402	1012.250
55.344	14.780	1329.097	1011.758
56.359	14.624	1328.476	1010.249
57.374	14.730	1327.055	1009.723
58.388	14.663	1326.373	1008.712
59.403	14.633	1326.087	1008.219
60.417	14.654	1325.338	1007.686
61.432	14.601	1324.328	1006.513
62.447	14.608	1323.272	1005.665
63.461	14.580	1322.020	1004.452
64.476	14.502	1321.387	1003.417
65.490	14.525	1320.102	1002.489
66.505	14.666	1318.153	1001.768
67.520	14.617	1317.031	1000.531
68.534	14.666	1316.158	1000.073
69.549	14.673	1314.840	999.026
70.563	14.576	1313.804	997.567
71.578	14.541	1312.685	996.423
72.593	14.497	1312.254	995.746
73.607	14.529	1311.258	995.090
74.622	14.435	1310.291	993.706
75.636	14.385	1309.946	993.063
76.651	14.482	1308.808	992.691
77.666	14.499	1308.882	992.755
78.680	14.485	1308.057	991.960
79.695	14.496	1307.621	991.608
80.709	14.621	1306.185	991.172
81.724	14.569	1306.218	990.799
82.739	14.612	1305.530	990.446
83.753	14.814	1303.773	990.223
84.768	14.887	1302.692	989.749
85.782	14.910	1301.962	989.244
86.797	14.993	1300.723	988.701
87.812	14.813	1299.888	986.919
88.826	14.751	1298.391	985.328
89.841	14.810	1297.543	984.944
90.855	14.849	1296.674	984.426
91.870	14.919	1295.608	983.945
92.884	14.919	1294.932	983.343
93.899	14.870	1294.412	982.574
94.914	15.102	1293.093	982.846
95.928	15.010	1292.741	981.950
96.943	14.939	1291.723	980.676
97.957	15.012	1290.427	980.036
98.972	14.957	1289.318	978.783
99.987	14.970	1288.458	978.118
101.001	14.994	1287.424	977.385
102.016	14.926	1286.773	976.410
103.030	14.916	1286.111	975.766
104.045	14.968	1284.993	975.132
105.060	14.865	1283.429	973.259
106.074	14.759	1282.039	971.504
107.089	14.736	1280.669	970.244
108.103	14.606	1279.431	968.465
109.118	14.586	1278.408	967.490
110.133	14.558	1276.683	965.935
111.147	14.595	1275.878	965.456
112.162	14.646	1274.786	964.839
113.176	14.687	1273.327	963.886
114.191	14.712	1272.636	963.423
115.206	14.729	1271.471	962.551
116.220	14.679	1269.987	961.055
117.235	14.699	1268.692	960.110
118.249	14.696	1267.920	959.421
119.264	14.706	1266.623	958.409
120.279	14.716	1265.749	957.725
121.293	14.590	1264.747	956.158
122.308	14.561	1263.741	955.146
123.322	14.537	1262.881	954.275
124.337	14.580	1261.719	953.558
125.352	14.540	1260.393	952.242
126.366	14.508	1259.097	950.999
127.381	14.601	1258.206	950.771
128.395	14.624	1257.281	950.118
129.410	14.484	1256.919	948.963
130.424	14.545	1255.979	948.517
131.439	14.734	1254.187	948.155
132.454	14.670	1253.690	947.332
133.468	14.872	1252.550	947.533
134.483	14.704	1252.209	946.238
135.497	14.772	1251.058	945.666
136.512	14.736	1249.757	944.398
137.527	14.771	1248.389	943.476
138.541	14.686	1247.021	941.880
139.556	14.747	1245.829	941.240
140.570	14.808	1244.679	940.631
141.585	14.920	1243.650	940.400
142.600	14.940	1242.869	939.842
143.614	14.973	1241.715	939.068
144.629	15.046	1240.384	938.386
145.643	14.997	1239.250	937.176
146.658	14.891	1238.089	935.618
147.673	14.914	1236.543	934.498
148.687	14.729	1235.981	932.954
149.702	14.816	1233.746	931.672
150.716	14.772	1233.128	930.880
151.731	14.885	1231.821	930.438
152.746	14.822	1230.838	929.260
153.760	14.921	1229.259	928.538
154.775	14.906	1228.320	927.662
155.789	15.012	1227.712	927.708
156.804	15.021	1226.476	926.746
157.819	14.931	1225.923	925.747
158.833	15.028	1224.546	925.157
159.848	15.132	1224.078	925.300
160.862	15.043	1223.399	924.212
161.877	15.023	1221.636	922.691
162.892	14.867	1221.050	921.302
163.906	14.842	1219.982	920.278
164.921	14.899	1219.302	919.999
165.935	15.062	1218.368	920.106
166.950	15.008	1217.037	918.727
167.964	14.908	1216.882	917.980
168.979	14.978	1216.279	917.826
169.994	14.919	1215.217	916.621
171.008	14.987	1214.635	916.474
172.023	15.080	1213.609	916.129
173.037	15.257	1212.443	916.131
174.052	15.145	1211.805	914.956
175.067	15.020	1211.047	913.621
176.081	14.941	1209.706	912.101
177.096	14.991	1209.028	911.778
178.110	15.023	1207.828	910.969
179.125	15.069	1206.668	910.263
180.140	14.927	1205.531	908.551
181.154	15.169	1203.962	908.602
182.169	15.150	1202.613	907.404
183.183	15.171	1201.821	906.839
184.198	15.272	1200.411	906.238
185.213	15.234	1199.725	905.433
186.227	15.230	1198.875	904.694
187.242	15.246	1197.389	903.578
188.256	15.388	1196.219	903.379
189.271	15.320	1195.543	902.425
190.286	15.178	1194.759	900.988
191.300	14.934	1193.934	898.976
192.315	14.939	1193.420	898.533
193.329	15.011	1192.344	898.033
194.344	15.059	1191.572	897.629
195.359	15.193	1191.056	897.876
196.373	15.183	1190.456	897.294
197.388	15.333	1189.822	897.541
198.402	15.392	1189.485	897.519
199.417	15.505	1189.027	897.700
200.432	15.529	1188.235	897.148
201.446	15.588	1187.546	896.865
202.461	15.604	1186.305	895.934
203.475	15.687	1185.332	895.562
204.490	15.553	1184.294	893.987
205.504	15.374	1183.604	892.435
206.519	15.412	1181.719	891.136
207.534	15.461	1180.820	890.639
208.548	15.455	1179.643	889.643
209.563	15.455	1179.238	889.254
210.577	15.454	1178.368	888.515
211.592	15.538	1177.442	888.184
212.607	15.705	1176.350	888.161
213.621	15.605	1175.573	886.969
214.636	15.596	1174.754	886.227
215.650	15.665	1173.807	885.800
216.665	15.700	1172.378	884.823
217.680	15.780	1171.932	884.833
218.694	15.709	1171.352	883.939
219.709	15.701	1170.604	883.255
220.723	15.795	1169.721	883.006
221.738	15.839	1169.028	882.635
222.753	15.779	1168.154	881.583
223.767	15.820	1167.910	881.533
224.782	15.878	1167.190	881.220
225.796	15.958	1166.285	880.876
226.811	15.898	1166.209	880.428
227.826	15.854	1165.073	879.262
228.840	15.870	1164.315	878.693
229.855	15.783	1163.773	877.755
230.869	15.745	1163.003	876.896
231.884	15.768	1161.790	876.022
232.899	15.746	1161.157	875.354
233.913	15.639	1160.596	874.300
234.928	15.698	1159.482	873.688
235.942	15.646	1158.996	872.976
236.957	15.735	1157.922	872.552
237.972	15.726	1156.988	871.723
238.986	15.700	1156.886	871.435
240.001	15.730	1155.907	870.775
241.015	15.842	1155.122	870.685
242.030	15.843	1154.276	869.976
243.045	15.877	1153.894	869.785
244.059	15.871	1153.231	869.178
245.074	16.022	1151.950	868.914
246.088	15.945	1151.377	868.011
247.103	16.023	1150.554	867.715
248.117	15.967	1149.838	866.809
249.132	16.193	1149.067	867.310
250.147	16.281	1148.637	867.366
251.161	16.399	1147.623	867.129
252.176	16.322	1147.230	866.356
253.190	16.462	1146.758	866.641
254.205	16.427	1146.119	865.902
255.220	16.432	1145.388	865.299
256.234	16.405	1144.846	864.679
257.249	16.382	1144.390	864.137
258.263	16.384	1143.691	863.544
259.278	16.415	1143.077	863.164
260.293	16.544	1142.286	863.149
261.307	16.444	1141.920	862.283
262.322	16.497	1141.269	861.985
263.336	16.469	1140.567	861.234
264.351	16.680	1139.974	861.786
265.366	16.433	1139.384	860.009
266.380	16.665	1138.225	860.237
267.395	16.599	1137.894	859.574
268.409	16.497	1137.027	858.324
269.424	16.620	1136.145	858.208
270.439	16.463	1135.674	856.982
271.453	16.558	1134.643	856.610
272.468	16.444	1134.069	855.521
273.482	16.467	1133.304	854.983
274.497	16.461	1132.332	854.148
275.512	16.647	1131.601	854.456
276.526	16.620	1131.482	854.158
277.541	16.565	1130.743	853.246
278.555	16.580	1130.097	852.757
279.570	16.646	1128.978	852.170
280.585	16.698	1128.625	852.089
281.599	16.710	1127.479	851.210
282.614	16.754	1126.195	850.387
283.628	16.775	1124.962	849.485
284.643	16.608	1124.326	848.093
285.657	16.648	1123.578	847.654
286.672	16.779	1122.149	847.159
287.687	16.809	1121.509	846.746
288.701	16.687	1120.982	845.664
289.716	16.795	1120.053	845.429
290.730	16.820	1119.193	844.828
291.745	16.820	1118.965	844.582
292.760	16.815	1118.507	844.140
293.774	16.860	1117.851	843.794
294.789	16.982	1117.486	844.048
295.803	16.943	1116.670	843.163
296.818	16.871	1115.591	841.917
297.833	16.751	1115.071	840.854
298.847	16.790	1114.404	840.472
299.862	16.908	1113.544	840.335
300.876	16.920	1112.713	839.692
301.891	16.983	1112.044	839.423
302.906	16.958	1111.606	838.893
303.920	17.044	1110.992	838.782
304.935	17.126	1110.150	838.474
305.949	17.291	1109.279	838.559
306.964	17.150	1108.992	837.570
307.979	17.181	1107.786	836.742
308.993	17.067	1107.683	836.026
310.008	17.124	1106.574	835.397
311.022	17.131	1105.860	834.820
312.037	17.246	1105.002	834.664
313.052	17.084	1104.248	833.222
314.066	17.092	1103.224	832.414
315.081	16.957	1102.736	831.312
316.095	16.990	1101.812	830.702
317.110	17.032	1101.168	830.348
318.125	17.101	1100.428	830.058
319.139	17.059	1099.258	828.897
320.154	17.036	1098.601	828.214
321.168	17.123	1098.109	828.194
322.183	17.070	1097.799	827.629
323.197	17.170	1097.212	827.601
324.212	17.203	1096.384	827.063
325.227	17.145	1096.344	826.676
326.241	17.156	1095.274	825.852
327.256	17.206	1094.946	825.774
328.270	17.068	1093.857	824.210
329.285	17.051	1092.904	823.336
330.300	17.141	1091.988	823.009
331.314	17.143	1090.931	822.148
332.329	17.160	1090.100	821.533
333.343	17.094	1089.596	820.761
334.358	17.279	1088.288	820.594
335.373	17.322	1088.180	820.651
336.387	17.380	1086.979	819.950
337.402	17.362	1086.197	819.201
338.416	17.379	1085.835	818.937
339.431	17.472	1085.078	818.742
340.446	17.594	1084.310	818.675
341.460	17.521	1084.049	818.055
342.475	17.635	1082.654	817.480
343.489	17.613	1082.315	817.042
344.504	17.619	1081.300	816.236
345.519	17.713	1080.392	815.924
346.533	17.684	1079.566	815.090
347.548	17.744	1078.847	814.764
348.562	17.685	1078.277	813.978
349.577	17.767	1077.095	813.406
350.592	17.599	1076.609	812.167
351.606	17.483	1075.985	811.073
352.621	17.494	1075.246	810.494
353.635	17.536	1074.731	810.233
354.650	17.521	1073.701	809.314
355.665	17.594	1073.292	809.283
356.679	17.602	1072.447	808.611
357.694	17.661	1071.982	808.468
358.708	17.718	1071.174	808.060
359.723	17.698	1070.688	807.525
360.738	17.760	1069.725	807.019
361.752	17.730	1069.290	806.480
362.767	17.872	1068.637	806.586
363.781	17.793	1068.012	805.672
364.796	17.876	1067.650	805.716
365.810	17.980	1067.355	805.914
366.825	17.914	1067.049	805.299
367.840	18.017	1066.165	805.048
368.854	18.038	1065.789	804.794
369.869	18.081	1064.506	803.952
370.883	18.098	1063.930	803.525
371.898	18.040	1063.183	802.620
372.913	17.862	1062.713	801.360
373.927	18.012	1062.859	802.102
374.942	18.126	1061.622	801.632
375.956	18.038	1061.206	800.833
376.971	18.070	1060.249	800.191
377.986	18.181	1060.064	800.498
379.000	18.136	1059.805	800.025
380.015	18.296	1058.763	799.913
381.029	18.273	1058.462	799.507
382.044	18.210	1057.862	798.691
383.059	18.296	1057.061	798.416
384.073	18.277	1056.389	797.751
385.088	18.216	1055.552	796.764
386.102	18.176	1054.654	795.829
387.117	18.207	1053.347	794.913
388.132	18.156	1052.295	793.813
389.146	18.168	1051.578	793.258
390.161	18.297	1050.416	792.908
391.175	18.332	1049.679	792.443
392.190	18.226	1049.412	791.683
393.205	18.424	1048.552	791.877
394.219	18.235	1048.049	790.558
395.234	18.369	1046.943	790.271
396.248	18.284	1046.080	789.158
397.263	18.233	1044.997	788.037
398.278	18.283	1044.156	787.563
399.292	18.229	1043.521	786.765
400.307	17.947	1043.703	785.534
401.321	18.144	1042.296	785.312
402.336	18.188	1041.679	784.977
403.350	18.243	1040.680	784.409
404.365	18.162	1040.341	783.712
405.380	18.175	1039.910	783.381
406.394	18.328	1039.298	783.546
407.409	18.527	1038.158	783.530
408.423	18.568	1037.433	783.099
409.438	18.555	1037.009	782.651
410.453	18.591	1036.297	782.208
411.467	18.621	1035.398	781.597
412.482	18.646	1034.845	781.227
413.496	18.726	1034.239	781.061
414.511	18.770	1033.518	780.649
415.526	18.872	1033.371	780.933
416.540	18.732	1032.890	779.862
417.555	18.861	1032.105	779.788
418.569	18.668	1032.042	778.795
419.584	18.648	1031.660	778.349
420.599	18.782	1030.561	778.055
421.613	150.896	1400.909	1795.976
422.628	137.673	1454.897	1796.083
