DTS Sentinel unit serial number:	SN413079Multiplexer serial number:	ORYXHardware model number:	OX4-SRSoftware version number:	ORYX F/W v4.00 Oryx Data Collector v3.7.2.0data status	okinstallation	princeton_trtdifferential loss correction	single-endedforward channel	channel 2reverse channel	N/Adate	2019/09/14time	19:59:35forward acquisition time	60.00reverse acquisition time	0.00gamma	496.2192k internal	0.2320k external	0.2320temperature offset calibration	1.0098default loss term (dB/km)	0.3790temperature slope calibration	1.0000multiplexer offset coefficient	1.0000multiplexer slope coefficient	1.0000fibre end	0.00T internal ref (°C)	34.09T ext. ref 1 (°C)	4.90T ext. ref 2 (°C)	28.38length (m)	temperature (°C)	Stokes	anti-Stokes-747.200	112.972	-0.197	-0.241
-746.185	-200.000	0.079	0.440
-745.171	70.420	-0.109	-0.114
-744.156	-145.037	-0.075	-0.007
-743.142	-200.000	-0.000	-0.143
-742.127	-152.537	0.098	-0.007
-741.112	137.158	0.271	0.358
-740.098	-2.670	-0.311	0.220
-739.083	-200.000	0.050	0.426
-738.069	292.054	0.201	0.370
-737.054	228.243	0.208	-0.343
-736.039	-89.707	-0.435	-0.129
-735.025	40.754	0.227	-0.207
-734.010	800.000	-0.049	-0.182
-732.996	-150.407	-0.445	-0.035
-731.981	-157.046	0.120	-0.007
-730.966	-48.711	-0.054	-0.026
-729.952	-123.363	-0.100	0.016
-728.937	-130.795	-0.165	-0.022
-727.923	-200.000	-0.009	-0.272
-726.908	53.991	0.144	-0.139
-725.894	800.000	0.067	0.245
-724.879	-29.316	-0.257	0.148
-723.864	-17.126	-0.171	-0.109
-722.850	76.994	0.081	0.087
-721.835	401.851	-0.138	-0.293
-720.821	-200.000	-0.033	0.281
-719.806	-50.606	-0.282	-0.134
-718.791	-200.000	0.027	0.337
-717.777	-3.212	-0.273	0.192
-716.762	221.297	-0.140	-0.227
-715.748	800.000	0.018	-0.052
-714.733	-7.735	-0.162	0.111
-713.718	38.909	-0.342	0.308
-712.704	-90.160	-0.263	-0.077
-711.689	2.039	-0.107	0.078
-710.675	692.791	0.093	-0.245
-709.660	800.000	-0.108	-0.314
-708.645	-93.369	0.223	0.062
-707.631	-113.410	-0.107	0.021
-706.616	-67.426	0.169	0.067
-705.602	-166.468	0.268	0.011
-704.587	-146.327	0.245	0.022
-703.572	-91.892	-0.083	-0.024
-702.558	-84.685	0.437	0.139
-701.543	397.719	-0.024	-0.050
-700.529	-200.000	-0.004	-0.153
-699.514	252.041	-0.104	0.179
-698.499	-64.438	0.381	-0.156
-697.485	-114.967	0.129	-0.025
-696.470	-34.866	0.319	0.176
-695.456	-104.759	0.147	-0.034
-694.441	68.723	0.212	0.219
-693.426	20.119	0.357	-0.290
-692.412	-13.600	-0.231	-0.151
-691.397	706.043	0.046	-0.123
-690.383	-105.792	0.055	0.013
-689.368	-144.492	-0.173	0.016
-688.354	-78.718	0.176	0.060
-687.339	454.480	0.086	-0.193
-686.324	281.935	0.068	0.123
-685.310	111.479	-0.132	-0.161
-684.295	800.000	0.038	-0.115
-683.281	24.214	0.106	-0.088
-682.266	55.886	0.120	-0.118
-681.251	224.823	-0.085	0.139
-680.237	17.897	0.163	-0.131
-679.222	72.302	-0.463	-0.486
-678.208	800.000	-0.096	-0.307
-677.193	272.379	0.042	0.075
-676.178	71.642	0.069	-0.073
-675.164	-12.444	-0.299	-0.197
-674.149	-96.197	-0.097	0.026
-673.135	-200.000	0.005	0.208
-672.120	-69.033	0.145	0.056
-671.105	-16.384	-0.054	-0.035
-670.091	-28.537	0.126	-0.073
-669.076	-9.807	0.130	0.087
-668.062	-192.133	-0.142	-0.001
-667.047	68.727	-0.422	-0.436
-666.032	84.768	-0.202	0.223
-665.018	800.000	0.035	-0.103
-664.003	-29.141	-0.014	0.008
-662.989	-200.000	-0.035	0.227
-661.974	35.413	0.226	0.200
-660.959	-125.003	0.250	0.039
-659.945	-80.090	0.390	-0.132
-658.930	419.435	0.079	0.170
-657.916	41.725	-0.103	0.094
-656.901	-150.675	-0.377	0.029
-655.886	203.917	-0.053	0.083
-654.872	-47.313	0.188	0.092
-653.857	64.911	-0.144	0.147
-652.843	-200.000	-0.015	-0.296
-651.828	800.000	0.021	-0.066
-650.814	-195.857	-0.139	-0.001
-649.799	255.535	-0.178	-0.308
-648.784	-200.000	0.341	-0.001
-647.770	-77.608	0.310	-0.108
-646.755	64.349	0.120	0.122
-645.741	42.715	-0.124	0.114
-644.726	636.843	0.082	-0.209
-643.711	83.261	0.151	-0.165
-642.697	-1.520	0.106	0.075
-641.682	-31.930	0.172	-0.097
-640.668	800.000	-0.054	0.207
-639.653	53.188	-0.147	0.142
-638.638	648.290	0.027	0.069
-637.624	36.333	-0.189	0.168
-636.609	-126.914	-0.230	0.034
-635.595	800.000	-0.045	0.160
-634.580	-200.000	0.026	0.181
-633.565	800.000	0.032	-0.134
-632.551	-55.441	-0.346	-0.156
-631.536	-200.000	-0.041	-0.317
-630.522	-149.100	-0.297	-0.024
-629.507	505.397	-0.092	0.215
-628.492	-200.000	0.015	-0.207
-627.478	31.012	-0.217	-0.187
-626.463	-200.000	-0.011	-0.055
-625.449	800.000	-0.056	0.229
-624.434	85.461	0.184	0.204
-623.419	-26.425	-0.070	0.041
-622.405	111.370	0.015	-0.018
-621.390	103.968	0.079	0.093
-620.376	-64.804	0.241	-0.098
-619.361	50.025	0.152	-0.144
-618.346	747.898	-0.111	0.301
-617.332	-42.235	-0.066	0.034
-616.317	71.826	-0.439	-0.459
-615.303	30.021	-0.254	-0.218
-614.288	3.081	0.169	0.124
-613.273	-52.154	0.155	-0.072
-612.259	29.847	-0.094	0.080
-611.244	74.078	-0.082	0.086
-610.230	-43.710	-0.271	-0.137
-609.215	606.034	-0.183	0.459
-608.201	12.339	0.075	-0.058
-607.186	-145.598	0.152	-0.014
-606.171	5.783	-0.303	-0.226
-605.157	-69.757	0.114	0.044
-604.142	-30.061	0.233	-0.133
-603.128	800.000	-0.058	0.231
-602.113	800.000	0.014	0.055
-601.098	729.052	0.058	0.157
-600.084	-95.844	-0.200	0.054
-599.069	-158.552	-0.411	0.024
-598.055	73.420	0.033	0.035
-597.040	-200.000	-0.001	0.102
-596.025	106.039	0.155	0.185
-595.011	800.000	0.065	-0.267
-593.996	-200.000	-0.043	-0.196
-592.982	102.873	0.202	-0.238
-591.967	221.297	-0.080	0.129
-590.952	164.664	0.027	0.039
-589.938	-40.737	0.187	0.097
-588.923	-128.420	-0.292	0.042
-587.909	32.960	-0.075	0.065
-586.894	-200.000	-0.035	0.248
-585.879	-29.400	0.128	-0.073
-584.865	-105.364	0.251	-0.057
-583.850	-12.175	-0.147	0.097
-582.836	-62.015	-0.177	0.074
-581.821	-11.165	-0.202	-0.134
-580.806	51.047	-0.198	0.189
-579.792	-49.631	-0.199	-0.095
-578.777	-200.000	-0.001	0.071
-577.763	513.064	0.140	0.328
-576.748	653.447	-0.050	-0.128
-575.733	-200.000	0.001	-0.033
-574.719	-200.000	0.035	-0.250
-573.704	-200.000	-0.057	-0.511
-572.690	-200.000	0.018	-0.091
-571.675	-150.939	-0.216	-0.016
-570.661	-115.818	-0.217	0.041
-569.646	-178.312	0.200	-0.005
-568.631	-63.619	-0.128	0.053
-567.617	-123.828	0.098	0.015
-566.602	-36.346	-0.357	-0.193
-565.588	18.215	0.322	0.258
-564.573	-200.000	-0.009	0.305
-563.558	57.377	0.044	-0.043
-562.544	513.454	-0.008	-0.019
-561.529	-74.467	-0.222	-0.081
-560.515	-200.000	-0.027	0.130
-559.500	-200.000	0.013	0.252
-558.485	70.966	-0.116	-0.120
-557.471	-200.000	-0.014	-0.084
-556.456	788.625	0.055	0.151
-555.442	-74.477	0.165	0.060
-554.427	-127.628	-0.064	0.009
-553.412	-85.324	-0.339	-0.106
-552.398	312.816	-0.190	-0.358
-551.383	327.618	-0.045	0.086
-550.369	-200.000	-0.044	0.267
-549.354	-200.000	0.009	-0.248
-548.339	-175.607	0.269	-0.007
-547.325	25.342	0.273	0.227
-546.310	-12.668	0.137	0.090
-545.296	-123.934	-0.077	0.012
-544.281	118.215	-0.058	-0.072
-543.266	-61.868	0.137	0.057
-542.252	-200.000	-0.002	-0.391
-541.237	-28.710	-0.246	-0.142
-540.223	-32.406	-0.133	-0.074
-539.208	-64.465	-0.173	0.070
-538.193	88.542	0.137	0.153
-537.179	-111.855	-0.224	-0.045
-536.164	110.900	-0.145	-0.175
-535.150	29.820	0.209	-0.179
-534.135	-144.726	0.162	0.015
-533.121	-182.813	0.105	-0.002
-532.106	-48.220	0.218	-0.106
-531.091	-129.533	-0.091	0.013
-530.077	165.732	-0.099	-0.140
-529.062	-200.000	0.032	-0.312
-528.048	-132.701	-0.268	0.034
-527.033	96.653	-0.061	0.070
-526.018	-136.521	0.039	-0.004
-525.004	-25.636	0.222	-0.131
-523.989	302.705	0.047	0.088
-522.975	-117.112	0.364	0.066
-521.960	247.391	0.165	0.279
-520.945	103.770	-0.110	-0.129
-519.931	398.352	-0.046	-0.096
-518.916	247.451	-0.198	0.336
-517.902	-104.049	0.040	0.009
-516.887	-3.757	-0.227	0.158
-515.872	14.491	-0.299	-0.234
-514.858	-200.000	0.002	-0.273
-513.843	-200.000	0.016	0.078
-512.829	-65.171	-0.157	-0.063
-511.814	-86.290	-0.146	-0.045
-510.799	-200.000	-0.054	-0.470
-509.785	-158.929	0.336	-0.019
-508.770	605.249	-0.058	0.145
-507.756	-200.000	0.040	0.196
-506.741	119.801	-0.142	0.176
-505.726	-200.000	0.019	0.105
-504.712	-200.000	-0.007	-0.148
-503.697	233.097	0.135	-0.222
-502.683	10.410	0.115	-0.088
-501.668	53.685	-0.163	0.156
-500.653	43.888	0.166	0.152
-499.639	-200.000	0.009	-0.123
-498.624	333.248	-0.065	-0.126
-497.610	-200.000	-0.027	-0.161
-496.595	-200.000	0.053	-0.250
-495.581	-71.231	-0.111	-0.042
-494.566	241.789	-0.123	0.205
-493.551	-88.363	0.283	-0.085
-492.537	-132.086	0.103	0.013
-491.522	77.313	-0.152	-0.162
-490.508	-43.886	0.141	-0.071
-489.493	402.741	-0.070	0.148
-488.478	-38.190	-0.220	-0.117
-487.464	-99.676	0.112	0.028
-486.449	96.872	-0.237	-0.272
-485.435	-19.618	0.074	-0.046
-484.420	-117.609	0.248	0.045
-483.405	800.000	-0.147	-0.419
-482.391	-31.550	-0.107	0.060
-481.376	-54.629	-0.241	-0.109
-480.362	274.337	0.108	-0.191
-479.347	201.679	0.125	-0.193
-478.332	-40.128	0.206	0.107
-477.318	81.647	-0.186	0.202
-476.303	-116.283	-0.132	0.025
-475.289	-165.633	0.073	-0.003
-474.274	284.734	-0.106	0.190
-473.259	-143.865	-0.297	0.028
-472.245	-200.000	0.033	-0.195
-471.230	-142.108	0.111	-0.011
-470.216	506.327	0.024	0.055
-469.201	579.635	0.028	0.069
-468.186	45.613	0.128	-0.119
-467.172	800.000	0.126	0.503
-466.157	347.802	-0.032	-0.062
-465.143	325.693	0.124	0.236
-464.128	-114.302	-0.257	-0.050
-463.113	-105.285	0.282	0.064
-462.099	-200.000	-0.013	0.061
-461.084	-84.002	-0.252	0.080
-460.070	-152.143	0.199	0.014
-459.055	-200.000	-0.003	-0.350
-458.040	227.225	-0.186	-0.302
-457.026	-90.945	0.154	-0.044
-456.011	-165.191	0.293	0.013
-454.997	210.240	-0.117	-0.184
-453.982	-23.647	-0.147	-0.088
-452.968	103.897	0.235	0.276
-451.953	109.474	0.152	-0.182
-450.938	175.315	0.085	-0.124
-449.924	-200.000	-0.048	-0.592
-448.909	-119.037	0.185	-0.032
-447.895	34.905	0.178	0.155
-446.880	222.238	0.041	0.066
-445.865	7.945	-0.084	-0.063
-444.851	-175.387	-0.270	0.007
-443.836	390.595	-0.096	0.199
-442.822	2.844	0.131	0.095
-441.807	-200.000	-0.051	0.238
-440.792	128.780	0.121	0.154
-439.778	72.816	0.243	0.254
-438.763	625.070	0.010	-0.026
-437.749	-81.688	0.128	-0.042
-436.734	58.315	0.226	0.222
-435.719	-87.665	-0.058	-0.017
-434.705	-23.800	-0.018	-0.011
-433.690	-100.711	0.174	0.043
-432.676	-59.893	0.049	-0.021
-431.661	-200.000	0.006	0.085
-430.646	-200.000	-0.005	0.063
-429.632	196.485	0.007	0.010
-428.617	293.051	0.078	-0.142
-427.603	177.285	-0.047	-0.068
-426.588	-200.000	0.022	-0.191
-425.573	151.404	0.163	0.222
-424.559	69.980	-0.423	-0.436
-423.544	59.218	-0.186	0.183
-422.530	-72.938	-0.214	-0.079
-421.515	-149.469	0.371	0.029
-420.500	800.000	-0.044	-0.128
-419.486	509.452	0.111	-0.259
-418.471	800.000	0.123	0.404
-417.457	321.345	-0.074	0.140
-416.442	376.747	-0.173	0.353
-415.428	412.117	0.034	0.071
-414.413	800.000	0.091	-0.298
-413.398	-49.118	0.269	0.128
-412.384	-71.487	-0.222	-0.083
-411.369	800.000	0.155	0.435
-410.355	-72.367	0.248	0.091
-409.340	47.839	0.192	0.179
-408.325	-98.230	-0.030	0.008
-407.311	-113.725	0.250	0.049
-406.296	-153.346	-0.201	-0.014
-405.282	-200.000	-0.008	0.295
-404.267	-22.943	0.073	0.044
-403.252	-85.690	-0.357	-0.111
-402.238	800.000	0.009	-0.039
-401.223	-200.000	-0.052	0.288
-400.209	-3.129	0.047	-0.033
-399.194	-69.005	0.118	-0.045
-398.179	-98.455	0.526	0.134
-397.165	338.670	0.043	0.084
-396.150	-170.888	0.066	-0.002
-395.136	-168.029	0.264	0.010
-394.121	0.019	-0.156	0.111
-393.106	35.955	-0.253	-0.222
-392.092	107.542	0.077	-0.092
-391.077	146.812	-0.237	-0.317
-390.063	-200.000	-0.062	-0.315
-389.048	800.000	-0.023	-0.071
-388.033	800.000	0.088	0.258
-387.019	37.272	-0.120	0.106
-386.004	800.000	-0.182	0.545
-384.990	-170.559	0.031	0.001
-383.975	800.000	-0.037	0.155
-382.960	800.000	0.037	0.154
-381.946	-200.000	0.034	-0.213
-380.931	-163.587	0.188	-0.009
-379.917	-84.431	0.092	-0.029
-378.902	-103.509	0.255	0.060
-377.888	-200.000	0.004	-0.071
-376.873	499.584	-0.042	-0.096
-375.858	-40.328	0.319	-0.165
-374.844	180.197	0.171	-0.250
-373.829	-105.481	0.179	-0.041
-372.815	-73.093	-0.132	-0.048
-371.800	800.000	-0.067	-0.202
-370.785	14.579	0.103	0.080
-369.771	-164.430	-0.399	-0.018
-368.756	118.559	0.095	0.117
-367.742	531.721	0.074	0.174
-366.727	-55.352	-0.062	0.028
-365.712	-200.000	0.050	0.252
-364.698	-128.429	0.278	-0.039
-363.683	52.843	-0.098	0.093
-362.669	-200.000	0.032	0.346
-361.654	-200.000	0.059	-0.284
-360.639	68.179	0.248	-0.253
-359.625	-46.645	0.096	-0.047
-358.610	115.871	-0.106	-0.129
-357.596	-15.306	0.026	0.016
-356.581	-141.236	-0.134	-0.014
-355.566	-200.000	-0.007	-0.267
-354.552	800.000	-0.063	-0.216
-353.537	-103.198	0.114	-0.027
-352.523	6.705	-0.046	0.034
-351.508	800.000	0.069	-0.224
-350.493	-133.138	-0.114	-0.014
-349.479	468.657	-0.037	0.083
-348.464	770.842	0.123	-0.335
-347.450	-67.017	-0.128	-0.050
-346.435	800.000	-0.124	0.364
-345.420	-200.000	-0.008	0.430
-344.406	-152.918	-0.255	-0.018
-343.391	-200.000	0.049	-0.220
-342.377	-200.000	-0.001	0.389
-341.362	227.316	-0.087	-0.141
-340.348	-39.044	-0.101	0.053
-339.333	-200.000	0.024	0.191
-338.318	800.000	0.027	-0.087
-337.304	603.512	-0.066	-0.165
-336.289	388.609	0.152	0.312
-335.275	-200.000	0.009	-0.056
-334.260	750.120	-0.104	-0.280
-333.245	-150.332	0.239	0.018
-332.231	234.610	0.130	-0.213
-331.216	-200.000	0.071	0.327
-330.202	-64.384	-0.208	-0.084
-329.187	-200.000	-0.025	0.110
-328.172	-109.233	-0.316	0.067
-327.158	-200.000	-0.007	-0.138
-326.143	-144.584	0.247	0.023
-325.129	363.314	0.066	-0.132
-324.114	582.728	-0.102	0.249
-323.099	123.007	0.108	0.134
-322.085	-63.246	-0.225	0.092
-321.070	-192.546	0.173	0.002
-320.056	-106.329	-0.256	-0.057
-319.041	172.722	-0.040	-0.057
-318.026	-34.342	-0.091	0.050
-317.012	267.633	0.041	0.071
-315.997	-54.417	0.098	0.044
-314.983	-18.776	-0.333	-0.206
-313.968	-200.000	0.013	-0.255
-312.953	-74.891	0.084	0.030
-311.939	-200.000	0.034	0.194
-310.924	-81.873	0.238	-0.077
-309.910	123.200	-0.051	0.064
-308.895	800.000	-0.044	-0.171
-307.880	800.000	0.077	-0.234
-306.866	800.000	-0.061	0.223
-305.851	66.690	-0.103	0.104
-304.837	800.000	0.044	0.162
-303.822	639.864	-0.062	0.158
-302.807	-100.125	0.187	-0.046
-301.793	-22.607	0.311	0.187
-300.778	127.593	0.135	0.171
-299.764	-75.241	-0.269	-0.095
-298.749	33.909	0.315	-0.273
-297.735	-27.883	0.317	0.183
-296.720	-113.743	0.110	-0.021
-295.705	324.036	0.023	-0.044
-294.691	-113.057	-0.186	-0.037
-293.676	37.714	-0.093	0.082
-292.662	-101.883	-0.189	-0.045
-291.647	800.000	-0.039	0.130
-290.632	-53.412	0.312	-0.142
-289.618	715.358	0.094	0.248
-288.603	422.696	0.123	-0.263
-287.589	181.463	-0.061	-0.089
-286.574	47.254	0.099	0.091
-285.559	-0.791	0.261	-0.183
-284.545	-71.242	0.336	-0.125
-283.530	-81.858	-0.092	-0.030
-282.516	94.536	-0.167	0.189
-281.501	-13.805	0.280	0.180
-280.486	-97.096	-0.363	-0.094
-279.472	-99.462	-0.160	0.040
-278.457	-123.292	0.107	-0.017
-277.443	-126.708	-0.152	-0.022
-276.428	117.430	-0.212	-0.258
-275.413	-94.137	0.142	-0.039
-274.399	23.977	0.173	0.141
-273.384	23.489	0.239	-0.195
-272.370	-58.300	0.402	0.174
-271.355	774.153	-0.063	0.169
-270.340	360.870	0.140	0.278
-269.326	42.460	-0.029	-0.026
-268.311	-40.383	0.251	-0.129
-267.297	468.181	0.124	-0.277
-266.282	-200.000	0.001	0.007
-265.267	363.066	-0.255	0.509
-264.253	-132.917	0.179	-0.023
-263.238	133.780	-0.135	-0.173
-262.224	-99.726	-0.163	0.040
-261.209	533.130	-0.101	0.237
-260.195	144.618	-0.193	0.255
-259.180	-122.457	-0.285	-0.046
-258.165	67.574	-0.239	-0.242
-257.151	-28.462	-0.046	-0.027
-256.136	304.207	0.256	0.472
-255.122	28.340	0.154	0.129
-254.107	40.612	-0.189	0.169
-253.092	81.812	0.094	0.101
-252.078	800.000	-0.005	0.022
-251.063	-97.875	0.237	-0.061
-250.049	-71.253	-0.072	-0.027
-249.034	-200.000	-0.014	-0.621
-248.019	-137.449	0.326	0.037
-247.005	800.000	0.079	0.299
-245.990	360.405	-0.154	0.305
-244.976	276.545	0.101	0.177
-243.961	-200.000	0.021	0.209
-242.946	88.526	-0.276	-0.304
-241.932	-108.019	-0.232	-0.050
-240.917	302.532	-0.008	0.014
-239.903	42.028	-0.132	0.119
-238.888	800.000	0.095	-0.346
-237.873	800.000	-0.093	-0.327
-236.859	128.849	-0.028	-0.036
-235.844	800.000	-0.052	-0.180
-234.830	-46.392	0.203	0.099
-233.815	-152.012	0.158	0.011
-232.800	-134.298	0.085	-0.010
-231.786	-200.000	0.018	0.116
-230.771	61.079	-0.089	-0.088
-229.757	-29.703	0.055	0.031
-228.742	-69.955	0.369	0.139
-227.727	1.376	-0.144	0.103
-226.713	21.157	0.130	-0.105
-225.698	214.807	-0.019	-0.030
-224.684	-148.153	0.075	0.006
-223.669	124.564	-0.142	0.178
-222.655	-200.000	0.025	0.116
-221.640	-38.988	-0.492	-0.257
-220.625	758.477	-0.047	-0.125
-219.611	52.923	0.282	-0.267
-218.596	83.974	-0.195	-0.211
-217.582	-200.000	-0.028	-0.128
-216.567	-177.984	-0.196	0.005
-215.552	800.000	0.027	-0.073
-214.538	-71.603	-0.175	-0.065
-213.523	62.227	0.134	-0.133
-212.509	-103.220	-0.182	-0.043
-211.494	-200.000	-0.024	-0.144
-210.479	800.000	-0.059	0.221
-209.465	733.832	-0.071	0.187
-208.450	-80.219	0.120	0.040
-207.436	32.776	-0.338	0.290
-206.421	-200.000	-0.006	-0.061
-205.406	605.006	0.039	-0.096
-204.392	83.586	-0.166	0.179
-203.377	-200.000	0.014	0.280
-202.363	70.564	-0.195	-0.199
-201.348	49.357	0.033	0.030
-200.333	-31.894	0.333	-0.185
-199.319	-200.000	0.004	0.095
-198.304	800.000	-0.075	-0.219
-197.290	-93.259	-0.078	0.021
-196.275	-109.931	-0.176	0.037
-195.260	298.798	0.095	0.174
-194.246	-200.000	-0.051	-0.251
-193.231	-15.014	0.186	-0.118
-192.217	148.565	-0.088	0.117
-191.202	74.729	0.267	-0.278
-190.187	-142.826	0.087	0.008
-189.173	22.195	0.190	0.153
-188.158	280.669	0.153	-0.270
-187.144	-200.000	-0.034	0.271
-186.129	-200.000	0.065	0.678
-185.114	57.989	-0.110	0.106
-184.100	16.256	-0.118	0.092
-183.085	-200.000	0.091	-0.479
-182.071	-200.000	-0.049	-0.335
-181.056	247.884	0.172	0.287
-180.042	-80.509	0.114	-0.037
-179.027	800.000	-0.059	0.244
-178.012	7.666	-0.139	-0.103
-176.998	-83.302	-0.179	0.057
-175.983	124.510	0.209	0.260
-174.969	8.554	-0.119	-0.088
-173.954	-200.000	-0.008	0.296
-172.939	107.755	-0.161	0.190
-171.925	84.871	0.171	-0.186
-170.910	601.655	0.065	-0.161
-169.896	206.579	0.101	-0.155
-168.881	130.099	-0.192	-0.243
-167.866	-93.518	0.064	-0.017
-166.852	372.363	0.099	-0.199
-165.837	346.586	-0.125	0.244
-164.823	800.000	0.086	-0.354
-163.808	168.406	-0.232	0.327
-162.793	428.900	0.132	-0.283
-161.779	26.162	0.169	0.139
-160.764	-114.831	-0.106	-0.020
-159.750	-126.558	-0.229	0.034
-158.735	-150.803	0.119	-0.009
-157.720	21.979	-0.101	-0.081
-156.706	-200.000	-0.065	0.438
-155.691	800.000	-0.032	0.090
-154.677	-178.094	-0.103	-0.002
-153.662	144.972	0.224	-0.296
-152.647	-169.926	-0.188	0.007
-151.633	258.015	-0.075	0.127
-150.618	-86.143	-0.089	0.027
-149.604	-118.515	0.232	-0.041
-148.589	218.229	0.123	0.193
-147.574	-200.000	0.025	-0.217
-146.560	83.399	0.141	-0.152
-145.545	-48.490	-0.216	0.103
-144.531	33.334	-0.086	-0.074
-143.516	-27.676	-0.192	0.110
-142.502	-148.198	0.310	-0.025
-141.487	-92.218	0.439	-0.122
-140.472	-159.630	-0.037	0.002
-139.458	-200.000	-0.045	0.238
-138.443	750.281	-0.081	0.215
-137.429	566.670	0.058	-0.139
-136.414	800.000	0.068	0.260
-135.399	-200.000	0.004	-0.041
-134.385	-152.240	-0.425	0.030
-133.370	-141.877	0.556	-0.055
-132.356	-200.000	0.013	0.100
-131.341	-107.452	0.082	0.018
-130.326	-175.083	-0.212	-0.006
-129.312	-11.786	-0.209	-0.135
-128.297	325.262	0.121	-0.228
-127.283	800.000	0.008	0.023
-126.268	-97.610	-0.159	-0.041
-125.253	303.579	0.090	-0.164
-124.239	177.121	-0.192	0.276
-123.224	-200.000	-0.082	0.424
-122.210	800.000	-0.013	-0.043
-121.195	226.645	0.327	-0.524
-120.180	-118.286	0.461	-0.081
-119.166	-140.326	0.291	0.030
-118.151	353.247	-0.057	0.112
-117.137	-200.000	0.058	0.327
-116.122	800.000	-0.108	0.344
-115.107	125.806	0.045	-0.056
-114.093	-1.118	0.176	-0.123
-113.078	-92.201	0.247	-0.069
-112.064	-200.000	0.016	0.196
-111.049	-200.000	-0.003	0.059
-110.034	15.130	-0.248	0.192
-109.020	-142.342	0.138	-0.013
-108.005	-34.041	-0.150	0.081
-106.991	-84.393	-0.221	-0.069
-105.976	-200.000	-0.011	0.066
-104.962	-50.014	0.064	0.030
-103.947	152.750	0.208	-0.281
-102.932	292.938	0.073	0.131
-101.918	-32.010	0.363	-0.200
-100.903	72.729	0.216	-0.222
-99.889	189.752	0.099	0.147
-98.874	-95.501	0.596	-0.158
-97.859	-17.082	0.238	0.148
-96.845	202.276	0.120	0.182
-95.830	-83.688	0.265	0.083
-94.816	-183.715	0.227	-0.004
-93.801	316.010	0.202	-0.377
-92.786	-200.000	0.038	0.350
-91.772	110.072	-0.112	0.133
-90.757	-200.000	-0.030	-0.143
-89.743	-67.849	-0.126	-0.048
-88.728	3.302	-0.246	-0.176
-87.713	169.599	0.135	0.190
-86.699	800.000	0.139	-0.482
-85.684	259.605	-0.128	-0.219
-84.670	39.094	-0.075	0.066
-83.655	-183.235	0.199	-0.003
-82.640	-200.000	-0.005	0.227
-81.626	-200.000	-0.335	0.001
-80.611	-137.115	0.432	-0.049
-79.597	-200.000	-0.030	0.135
-78.582	139.238	-0.026	0.034
-77.567	-122.891	0.106	-0.017
-76.553	-11.287	0.053	0.035
-75.538	13.443	0.101	0.077
-74.524	291.299	0.230	-0.412
-73.509	-200.000	-0.075	-0.425
-72.494	-200.000	0.016	-0.095
-71.480	800.000	-0.048	0.163
-70.465	278.941	0.048	-0.084
-69.451	-53.758	-0.144	0.065
-68.436	501.408	0.074	0.169
-67.422	-30.397	0.075	0.042
-66.407	-4.676	0.116	-0.079
-65.392	-200.000	0.058	0.351
-64.378	-21.650	0.513	-0.308
-63.363	-200.000	0.053	-0.243
-62.349	-200.000	0.062	0.491
-61.334	62.108	-0.796	-0.782
-60.319	-0.251	0.587	0.411
-59.305	-200.000	-0.092	-0.766
-58.290	241.564	0.537	0.883
-57.276	800.000	0.367	1.307
-56.261	-200.000	96.496	573.107
-55.246	632.253	1391.626	3469.090
-54.232	190.780	2593.927	3838.255
-53.217	113.425	2284.784	2729.304
-52.203	43.268	1903.818	1710.844
-51.188	37.283	1694.748	1477.547
-50.173	34.618	1650.344	1419.001
-49.159	52.445	1697.422	1594.114
-48.144	54.755	1714.435	1627.407
-47.130	36.942	1672.576	1455.423
-46.115	34.213	1657.909	1422.254
-45.100	34.002	1652.966	1416.382
-44.086	33.933	1650.527	1413.724
-43.071	33.956	1648.056	1411.723
-42.057	34.001	1645.162	1409.524
-41.042	33.963	1643.389	1407.669
-40.027	33.932	1641.551	1405.804
-39.013	33.878	1639.970	1404.001
-37.998	33.920	1637.912	1402.492
-36.984	34.113	1636.570	1402.710
-35.969	34.084	1635.424	1401.458
-34.954	34.110	1633.777	1400.185
-33.940	34.104	1631.818	1398.402
-32.925	34.052	1630.276	1396.644
-31.911	34.027	1628.428	1394.820
-30.896	34.103	1626.030	1393.267
-29.881	34.080	1625.147	1392.289
-28.867	34.125	1622.737	1390.501
-27.852	34.077	1621.580	1389.101
-26.838	34.059	1620.428	1387.928
-25.823	34.139	1618.500	1386.807
-24.809	34.167	1617.103	1385.760
-23.794	34.058	1615.889	1383.866
-22.779	34.124	1614.331	1382.959
-21.765	34.103	1613.160	1381.747
-20.750	34.108	1611.401	1380.221
-19.736	34.098	1609.907	1378.816
-18.721	34.123	1608.619	1377.842
-17.706	34.059	1606.862	1375.814
-16.692	34.125	1605.468	1375.046
-15.677	34.248	1603.482	1374.181
-14.663	34.134	1602.761	1372.685
-13.648	34.142	1601.468	1371.576
-12.633	34.131	1599.947	1370.143
-11.619	34.060	1598.202	1368.085
-10.604	34.096	1596.646	1366.957
-9.590	34.228	1595.354	1366.745
-8.575	34.268	1594.172	1365.961
-7.560	34.012	1593.310	1363.336
-6.546	34.097	1591.925	1362.706
-5.531	34.185	1591.075	1362.551
-4.517	34.107	1589.702	1360.765
-3.502	34.116	1588.477	1359.726
-2.487	34.213	1586.621	1358.778
-1.473	33.874	1574.529	1345.969
-0.458	30.726	1555.375	1307.465
0.556	27.357	1554.861	1272.781
1.571	24.813	1578.331	1273.787
2.586	24.260	1591.111	1280.021
3.600	21.399	1537.909	1217.226
4.615	13.112	1429.560	1077.515
5.629	6.041	1365.365	984.840
6.644	5.007	1356.630	972.006
7.659	4.799	1355.989	970.167
8.673	4.893	1354.719	969.755
9.688	4.892	1353.403	968.720
10.702	4.879	1350.262	966.306
11.717	7.857	1356.131	988.951
12.731	15.619	1370.130	1047.636
13.746	20.442	1376.811	1082.790
14.761	19.957	1375.311	1078.493
15.775	18.899	1372.548	1069.655
16.790	17.823	1369.818	1060.743
17.804	17.126	1367.398	1054.453
18.819	16.664	1366.625	1050.893
19.834	16.489	1364.840	1048.343
20.848	16.302	1363.713	1046.226
21.863	16.010	1362.828	1043.648
22.877	15.866	1361.527	1041.667
23.892	15.815	1360.490	1040.468
24.907	15.825	1359.604	1039.755
25.921	15.790	1359.343	1039.253
26.936	15.799	1358.256	1038.383
27.950	15.859	1357.143	1037.807
28.965	15.999	1355.896	1037.624
29.980	16.145	1354.749	1037.555
30.994	16.142	1354.026	1036.891
32.009	16.142	1352.879	1035.920
33.023	16.209	1351.486	1035.173
34.038	16.211	1349.866	1033.853
35.053	16.080	1348.579	1031.977
36.067	16.021	1347.851	1030.965
37.082	16.068	1346.499	1030.129
38.096	16.016	1346.056	1029.381
39.111	16.055	1345.447	1029.059
40.126	15.896	1344.773	1027.484
41.140	15.752	1343.609	1025.628
42.155	15.713	1342.711	1024.611
43.169	15.747	1342.662	1024.693
44.184	15.663	1342.844	1024.225
45.199	15.799	1341.785	1024.158
46.213	15.749	1341.236	1023.343
47.228	15.810	1340.580	1023.120
48.242	15.914	1339.499	1022.840
49.257	15.959	1337.778	1021.706
50.271	15.953	1336.326	1020.471
51.286	15.936	1335.353	1019.537
52.301	15.988	1333.771	1018.552
53.315	15.897	1333.117	1017.415
54.330	15.832	1332.054	1016.116
55.344	15.814	1330.627	1014.831
56.359	15.830	1329.614	1014.065
57.374	15.865	1328.626	1013.437
58.388	15.616	1328.698	1011.899
59.403	15.617	1327.804	1011.134
60.417	15.730	1326.921	1011.050
61.432	15.763	1325.672	1010.210
62.447	15.701	1324.658	1008.976
63.461	15.570	1323.984	1007.585
64.476	15.623	1322.771	1006.891
65.490	15.589	1321.712	1005.793
66.505	15.546	1320.118	1004.234
67.520	15.669	1318.888	1003.942
68.534	15.591	1318.132	1002.813
69.549	15.695	1316.930	1002.431
70.563	15.663	1315.879	1001.351
71.578	15.616	1314.528	999.956
72.593	15.501	1313.828	998.650
73.607	15.405	1313.156	997.483
74.622	15.524	1312.372	997.507
75.636	15.497	1312.011	996.980
76.651	15.494	1311.424	996.429
77.666	15.538	1310.990	996.275
78.680	15.582	1310.266	995.893
79.695	15.655	1309.236	995.455
80.709	15.648	1308.912	995.078
81.724	15.778	1307.890	994.984
82.739	15.692	1307.059	993.758
83.753	15.904	1306.302	994.341
84.768	15.968	1305.176	993.775
85.782	16.057	1304.087	993.385
86.797	16.087	1303.066	992.697
87.812	15.809	1302.038	990.186
88.826	15.873	1300.868	989.585
89.841	15.881	1299.747	988.695
90.855	16.000	1298.526	988.379
91.870	16.043	1297.605	987.838
92.884	16.029	1297.404	987.515
93.899	16.065	1296.369	986.854
94.914	16.113	1295.525	986.401
95.928	16.070	1294.900	985.588
96.943	16.151	1293.341	984.787
97.957	16.109	1292.207	983.593
98.972	16.078	1291.398	982.712
99.987	16.107	1290.725	982.280
101.001	15.983	1289.678	980.671
102.016	15.984	1288.743	979.882
103.030	16.055	1288.142	979.752
104.045	16.029	1287.379	978.935
105.060	15.928	1285.647	976.943
106.074	15.816	1284.518	975.351
107.089	15.765	1282.449	973.395
108.103	15.735	1281.266	972.242
109.118	15.716	1280.375	971.371
110.133	15.625	1279.353	969.982
111.147	15.708	1277.257	968.783
112.162	15.754	1276.220	968.176
113.176	15.806	1275.066	967.515
114.191	15.871	1274.333	967.249
115.206	15.822	1273.303	966.098
116.220	15.771	1271.890	964.650
117.235	15.718	1270.708	963.365
118.249	15.642	1269.807	962.161
119.264	15.660	1269.157	961.683
120.279	15.666	1267.699	960.531
121.293	15.621	1266.897	959.579
122.308	15.669	1265.503	958.714
123.322	15.639	1264.353	957.588
124.337	15.654	1263.196	956.710
125.352	15.575	1262.308	955.504
126.366	15.584	1261.122	954.576
127.381	15.658	1260.124	954.155
128.395	15.630	1259.299	953.288
129.410	15.650	1258.204	952.482
130.424	15.747	1257.471	952.395
131.439	15.801	1256.526	951.900
132.454	15.693	1256.238	950.985
133.468	15.781	1254.847	950.349
134.483	15.825	1254.179	950.005
135.497	15.914	1252.991	949.526
136.512	15.874	1251.846	948.347
137.527	15.709	1251.141	946.801
138.541	15.775	1249.371	945.750
139.556	15.938	1247.672	945.293
140.570	15.907	1247.313	944.761
141.585	15.977	1245.505	943.701
142.600	16.031	1244.791	943.378
143.614	16.190	1243.919	943.526
144.629	16.236	1242.079	942.304
145.643	16.032	1241.267	940.465
146.658	15.883	1240.650	939.082
147.673	15.901	1238.957	937.820
148.687	15.885	1237.898	936.845
149.702	15.882	1236.856	935.957
150.716	15.720	1235.804	934.177
151.731	15.776	1234.105	933.124
152.746	15.791	1232.970	932.264
153.760	15.946	1231.997	932.304
154.775	15.943	1230.951	931.417
155.789	16.027	1229.826	930.946
156.804	15.997	1228.769	929.894
157.819	16.047	1227.633	929.233
158.833	16.029	1227.021	928.584
159.848	16.250	1226.011	928.957
160.862	16.133	1225.115	927.550
161.877	16.041	1224.191	926.263
162.892	15.788	1223.216	924.057
163.906	15.908	1221.956	923.682
164.921	16.034	1221.217	923.733
165.935	16.031	1220.416	923.026
166.950	16.124	1219.309	922.618
167.964	16.104	1218.930	922.140
168.979	16.034	1218.173	921.100
169.994	15.967	1217.497	920.143
171.008	16.076	1216.669	920.029
172.023	16.161	1215.876	919.814
173.037	16.233	1215.329	919.707
174.052	16.142	1214.473	918.485
175.067	16.042	1213.452	917.089
176.081	15.979	1212.127	915.665
177.096	16.050	1210.967	915.091
178.110	16.093	1210.342	914.772
179.125	16.173	1208.581	913.791
180.140	16.162	1207.903	913.142
181.154	16.168	1206.567	912.080
182.169	16.118	1205.963	911.272
183.183	16.253	1204.755	911.009
184.198	16.407	1203.233	910.610
185.213	16.329	1202.317	909.411
186.227	16.325	1201.179	908.452
187.242	16.459	1200.422	908.519
188.256	16.464	1199.609	907.848
189.271	16.407	1198.571	906.678
190.286	16.263	1197.526	905.037
191.300	16.033	1196.634	903.047
192.315	15.941	1195.708	901.778
193.329	16.002	1195.360	901.764
194.344	16.172	1194.628	902.036
195.359	16.160	1194.258	901.617
196.373	16.238	1194.058	901.801
197.388	16.415	1193.244	902.050
198.402	16.448	1193.370	902.245
199.417	16.586	1192.299	902.088
200.432	16.720	1191.700	902.272
201.446	16.715	1190.555	901.297
202.461	16.601	1189.833	900.065
203.475	16.657	1189.255	899.844
204.490	16.673	1187.363	898.418
205.504	16.478	1186.743	896.835
206.519	16.501	1185.057	895.606
207.534	16.569	1183.864	894.983
208.548	16.567	1183.038	894.270
209.563	16.549	1182.417	893.628
210.577	16.576	1181.474	892.978
211.592	16.642	1180.834	892.763
212.607	16.749	1179.800	892.463
213.621	16.698	1179.132	891.614
214.636	16.750	1178.271	891.155
215.650	16.708	1177.340	890.151
216.665	16.719	1176.337	889.370
217.680	16.798	1175.510	889.084
218.694	16.857	1174.725	888.718
219.709	16.820	1174.132	887.996
220.723	16.818	1173.175	887.186
221.738	16.914	1172.164	886.845
222.753	16.773	1171.772	885.731
223.767	16.824	1171.010	885.343
224.782	16.891	1170.062	884.898
225.796	17.013	1169.899	885.336
226.811	17.031	1169.076	884.729
227.826	16.910	1168.327	883.453
228.840	16.833	1167.628	882.446
229.855	16.935	1166.673	882.178
230.869	16.886	1166.001	881.333
231.884	16.862	1165.323	880.620
232.899	16.804	1164.365	879.517
233.913	16.762	1163.800	878.794
234.928	16.687	1163.296	877.947
235.942	16.893	1162.018	877.969
236.957	16.664	1161.616	876.406
237.972	16.817	1160.600	876.350
238.986	16.816	1160.037	875.842
240.001	16.791	1159.440	875.186
241.015	16.839	1158.563	874.695
242.030	16.808	1157.728	873.825
243.045	17.014	1156.975	874.242
244.059	17.013	1156.546	873.835
245.074	17.036	1155.568	873.138
246.088	17.009	1154.882	872.406
247.103	17.133	1153.694	872.064
248.117	17.174	1153.339	871.931
249.132	17.245	1152.686	871.723
250.147	17.409	1151.961	871.941
251.161	17.519	1150.879	871.608
252.176	17.482	1150.510	871.061
253.190	17.542	1150.042	870.937
254.205	17.517	1149.544	870.356
255.220	17.623	1148.701	870.181
256.234	17.563	1148.320	869.506
257.249	17.500	1147.662	868.613
258.263	17.564	1146.860	868.257
259.278	17.540	1146.270	867.606
260.293	17.476	1146.132	867.101
261.307	17.674	1145.108	867.259
262.322	17.718	1144.651	867.056
263.336	17.577	1144.075	865.830
264.351	17.783	1143.079	866.045
265.366	17.732	1142.533	865.292
266.380	17.614	1142.146	864.327
267.395	17.568	1141.403	863.452
268.409	17.634	1140.397	862.950
269.424	17.582	1139.864	862.209
270.439	17.730	1138.829	862.099
271.453	17.625	1138.369	861.140
272.468	17.574	1137.406	860.080
273.482	17.559	1136.882	859.532
274.497	17.465	1136.281	858.526
275.512	17.596	1135.583	858.583
276.526	17.598	1134.622	857.790
277.541	17.509	1134.128	856.897
278.555	17.705	1133.363	857.227
279.570	17.802	1132.428	856.931
280.585	17.833	1131.801	856.536
281.599	17.818	1130.563	855.449
282.614	17.723	1129.787	854.312
283.628	17.790	1128.594	853.668
284.643	17.868	1127.994	853.530
285.657	17.778	1127.138	852.353
286.672	17.752	1126.161	851.409
287.687	17.878	1124.988	851.076
288.701	17.752	1124.567	850.055
289.716	17.921	1123.430	849.961
290.730	17.908	1122.997	849.493
291.745	17.781	1122.472	848.393
292.760	17.904	1121.935	848.523
293.774	17.932	1121.299	848.105
294.789	18.106	1120.484	848.275
295.803	17.915	1120.364	847.162
296.818	17.797	1119.469	845.828
297.833	17.876	1118.401	845.337
298.847	17.880	1117.273	844.428
299.862	17.986	1116.733	844.468
300.876	18.003	1116.140	844.031
301.891	18.074	1115.578	843.883
302.906	17.995	1115.061	843.026
303.920	18.121	1114.148	842.882
304.935	18.286	1113.502	843.133
305.949	18.203	1113.187	842.411
306.964	18.296	1112.179	842.029
307.979	18.173	1111.488	840.827
308.993	18.167	1110.760	840.173
310.008	18.249	1109.882	839.836
311.022	18.348	1109.062	839.628
312.037	18.455	1107.964	839.243
313.052	18.164	1107.365	837.294
314.066	18.132	1106.479	836.394
315.081	18.237	1105.205	835.870
316.095	18.106	1104.598	834.695
317.110	18.045	1104.062	833.919
318.125	18.019	1103.692	833.441
319.139	18.140	1102.706	833.211
320.154	18.010	1102.227	832.141
321.168	18.002	1101.567	831.529
322.183	18.133	1100.745	831.474
323.197	18.202	1099.869	831.072
324.212	18.290	1099.637	831.252
325.227	18.244	1099.057	830.517
326.241	18.162	1098.524	829.642
327.256	18.315	1097.520	829.552
328.270	18.240	1096.368	828.245
329.285	18.171	1095.648	827.293
330.300	18.210	1094.655	826.660
331.314	18.103	1094.033	825.601
332.329	18.209	1093.102	825.338
333.343	18.178	1092.186	824.421
334.358	18.387	1091.286	824.676
335.373	18.369	1090.914	824.237
336.387	18.370	1089.891	823.397
337.402	18.411	1089.263	823.046
338.416	18.466	1088.535	822.686
339.431	18.459	1088.252	822.365
340.446	18.582	1087.253	822.129
341.460	18.651	1086.837	822.071
342.475	18.751	1085.825	821.712
343.489	18.769	1084.957	821.068
344.504	18.772	1084.036	820.312
345.519	18.772	1083.380	819.745
346.533	18.811	1082.758	819.384
347.548	18.887	1081.675	818.856
348.562	18.829	1081.164	818.119
349.577	18.605	1080.525	816.500
350.592	18.661	1079.697	816.066
351.606	18.563	1078.683	814.763
352.621	18.618	1078.245	814.621
353.635	18.593	1077.780	814.081
354.650	18.624	1076.563	813.236
355.665	18.612	1075.810	812.538
356.679	18.716	1075.125	812.438
357.694	18.796	1074.927	812.600
358.708	18.764	1074.133	811.776
359.723	18.766	1073.526	811.255
360.738	18.810	1072.647	810.724
361.752	18.767	1072.694	810.484
362.767	18.840	1072.341	810.489
363.781	18.865	1071.113	809.610
364.796	18.870	1070.840	809.353
365.810	18.981	1070.113	809.258
366.825	19.006	1069.690	808.984
367.840	19.193	1069.089	809.336
368.854	19.306	1068.396	809.269
369.869	19.119	1068.004	808.025
370.883	19.114	1066.979	807.151
371.898	19.037	1066.197	806.130
372.913	19.231	1065.273	806.269
373.927	19.140	1064.917	805.501
374.942	19.179	1064.730	805.469
375.956	19.204	1064.049	805.001
376.971	19.073	1063.358	803.795
377.986	19.187	1063.117	804.072
379.000	19.278	1062.482	803.945
380.015	19.287	1062.302	803.780
381.029	19.336	1061.671	803.461
382.044	19.274	1060.545	802.247
383.059	19.405	1059.909	802.307
384.073	19.416	1058.999	801.598
385.088	19.448	1057.911	800.852
386.102	19.545	1056.946	800.501
387.117	19.359	1056.029	798.873
388.132	19.365	1054.873	797.957
389.146	19.228	1054.495	796.966
390.161	19.159	1053.968	796.180
391.175	19.210	1053.070	795.665
392.190	19.314	1052.353	795.532
393.205	19.380	1051.963	795.473
394.219	19.314	1051.428	794.693
395.234	19.408	1050.256	794.167
396.248	19.363	1049.228	793.115
397.263	19.380	1047.703	791.970
398.278	19.254	1047.695	791.313
399.292	19.178	1046.871	790.271
400.307	19.252	1046.111	789.970
401.321	19.252	1045.735	789.613
402.336	19.222	1044.916	788.790
403.350	19.407	1044.020	788.888
404.365	19.251	1043.392	787.634
405.380	19.313	1042.650	787.286
406.394	19.474	1041.844	787.343
407.409	19.509	1041.416	787.108
408.423	19.603	1040.453	786.740
409.438	19.611	1039.943	786.321
410.453	19.684	1039.633	786.349
411.467	19.809	1038.288	785.830
412.482	19.593	1037.851	784.448
413.496	19.724	1037.546	784.741
414.511	19.937	1036.345	784.733
415.526	19.840	1036.681	784.479
416.540	19.861	1035.975	783.970
417.555	19.951	1035.455	783.911
418.569	19.781	1035.311	782.963
419.584	19.818	1034.123	782.164
420.599	19.776	1034.023	781.828
421.613	151.435	1401.097	1791.196
422.628	138.299	1454.567	1791.290
