DTS Sentinel unit serial number:	SN413079Multiplexer serial number:	ORYXHardware model number:	OX4-SRSoftware version number:	ORYX F/W v4.00 Oryx Data Collector v3.7.2.0data status	okinstallation	princeton_trtdifferential loss correction	single-endedforward channel	channel 2reverse channel	N/Adate	2019/09/13time	04:19:35forward acquisition time	60.00reverse acquisition time	0.00gamma	496.2192k internal	0.2336k external	0.2336temperature offset calibration	1.0187default loss term (dB/km)	0.3790temperature slope calibration	1.0000multiplexer offset coefficient	1.0000multiplexer slope coefficient	1.0000fibre end	0.00T internal ref (°C)	26.81T ext. ref 1 (°C)	4.05T ext. ref 2 (°C)	21.19length (m)	temperature (°C)	Stokes	anti-Stokes-747.200	79.214	0.038	0.041
-746.185	-153.322	0.061	0.004
-745.171	10.356	0.257	-0.197
-744.156	800.000	-0.039	0.118
-743.142	-73.757	0.160	0.058
-742.127	-166.039	0.166	0.007
-741.112	-71.043	-0.028	0.011
-740.098	-94.028	-0.429	0.118
-739.083	800.000	-0.021	0.061
-738.069	-132.419	-0.208	-0.027
-737.054	-60.719	-0.151	0.064
-736.039	37.367	-0.237	-0.211
-735.025	-200.000	-0.001	0.277
-734.010	-138.920	-0.234	0.025
-732.996	35.229	0.149	-0.131
-731.981	-26.226	-0.122	0.072
-730.966	78.376	0.097	-0.104
-729.952	153.534	-0.165	0.227
-728.937	800.000	-0.015	0.048
-727.923	141.074	0.212	-0.281
-726.908	-37.059	-0.161	0.086
-725.894	-107.233	0.348	0.077
-724.879	-109.592	-0.083	-0.017
-723.864	-200.000	0.016	0.272
-722.850	479.273	0.126	0.286
-721.835	-200.000	0.030	-0.192
-720.821	-105.356	-0.114	0.026
-719.806	-103.372	-0.213	0.050
-718.791	345.640	0.039	-0.077
-717.777	102.928	-0.231	-0.272
-716.762	207.378	0.138	-0.215
-715.748	45.967	0.036	0.034
-714.733	657.965	0.136	0.351
-713.718	-200.000	0.026	-0.212
-712.704	180.979	0.192	-0.283
-711.689	-91.893	-0.340	0.097
-710.675	58.391	0.118	-0.116
-709.660	-52.765	-0.232	0.107
-708.645	93.960	-0.111	0.127
-707.631	227.813	0.172	0.281
-706.616	-106.697	0.342	0.076
-705.602	-114.692	0.277	-0.053
-704.587	-17.115	-0.062	-0.039
-703.572	-107.265	0.275	-0.061
-702.558	-200.000	0.000	-0.082
-701.543	92.652	0.051	0.058
-700.529	-200.000	0.011	0.074
-699.514	14.853	0.156	-0.123
-698.499	78.651	-0.054	-0.058
-697.485	297.216	0.096	0.176
-696.470	-96.680	-0.242	-0.064
-695.456	-200.000	0.026	0.115
-694.441	22.919	-0.171	-0.141
-693.426	443.505	-0.089	0.195
-692.412	26.842	0.059	0.049
-691.397	281.192	-0.199	-0.356
-690.383	-108.825	-0.276	-0.059
-689.368	11.958	-0.155	0.120
-688.354	35.106	0.204	0.179
-687.339	-165.002	0.362	0.016
-686.324	-59.006	-0.167	-0.072
-685.310	246.451	-0.048	0.082
-684.295	-25.632	-0.246	0.146
-683.281	248.063	-0.147	-0.250
-682.266	-13.216	0.028	-0.018
-681.251	-100.946	-0.269	0.066
-680.237	157.715	-0.082	-0.114
-679.222	358.721	0.018	-0.037
-678.208	95.656	0.037	-0.043
-677.193	304.023	0.204	-0.379
-676.178	40.438	0.302	0.273
-675.164	-2.992	-0.110	-0.077
-674.149	-36.382	0.303	-0.164
-673.135	-102.753	-0.239	-0.057
-672.120	50.967	-0.047	0.045
-671.105	-130.479	-0.312	0.042
-670.091	81.761	0.101	-0.109
-669.076	94.695	-0.014	0.016
-668.062	32.900	-0.139	0.121
-667.047	-6.770	0.067	-0.046
-666.032	475.213	0.124	-0.280
-665.018	-200.000	-0.011	0.173
-664.003	-67.037	0.099	0.039
-662.989	-61.730	-0.429	0.180
-661.974	-31.579	-0.166	0.093
-660.959	-200.000	0.036	-0.206
-659.945	-1.115	-0.098	-0.070
-658.930	-200.000	-0.012	-0.134
-657.916	121.543	-0.123	-0.154
-656.901	-200.000	-0.044	0.406
-655.886	-200.000	0.039	-0.399
-654.872	-93.918	0.156	-0.043
-653.857	200.827	0.142	-0.218
-652.843	800.000	0.061	-0.228
-651.828	137.617	-0.208	0.273
-650.814	800.000	0.031	0.093
-649.799	30.684	-0.220	-0.189
-648.784	-3.908	-0.351	0.244
-647.770	-200.000	0.029	-0.136
-646.755	-77.334	-0.209	-0.073
-645.741	18.384	-0.087	-0.069
-644.726	620.452	0.062	-0.156
-643.711	-32.342	0.187	-0.104
-642.697	44.176	0.077	0.070
-641.682	41.728	0.081	-0.073
-640.668	-200.000	0.009	-0.120
-639.653	53.594	0.125	-0.120
-638.638	225.555	-0.163	0.264
-637.624	-200.000	-0.010	0.120
-636.609	800.000	-0.058	-0.167
-635.595	-37.937	0.061	-0.032
-634.580	-49.665	-0.103	0.049
-633.565	800.000	0.052	-0.201
-632.551	2.719	0.045	0.032
-631.536	-127.729	0.168	0.024
-630.522	295.604	0.095	0.173
-629.507	244.892	0.084	-0.142
-628.492	-81.580	-0.206	-0.068
-627.478	360.970	-0.109	-0.219
-626.463	-173.846	0.165	0.005
-625.449	-66.493	-0.104	-0.041
-624.434	563.286	0.090	-0.217
-623.419	-70.195	0.239	-0.091
-622.405	26.581	-0.310	0.259
-621.390	51.437	0.235	0.223
-620.376	800.000	0.085	0.329
-619.361	-152.635	0.071	0.005
-618.346	-57.870	-0.096	-0.042
-617.332	13.308	0.187	-0.145
-616.317	-57.193	0.221	-0.097
-615.303	59.051	-0.101	-0.100
-614.288	-111.606	-0.074	-0.015
-613.273	-13.656	-0.193	-0.125
-612.259	-36.166	0.025	0.013
-611.244	84.302	-0.122	0.133
-610.230	800.000	-0.050	0.210
-609.215	45.539	-0.122	-0.112
-608.201	29.251	-0.296	0.251
-607.186	-104.820	-0.033	0.008
-606.171	52.972	-0.249	-0.238
-605.157	182.358	-0.124	0.183
-604.142	-200.000	0.064	-0.305
-603.128	-90.331	-0.310	-0.090
-602.113	462.729	0.135	-0.300
-601.098	-200.000	-0.005	-0.108
-600.084	33.036	0.089	0.077
-599.069	-89.758	-0.232	-0.068
-598.055	-200.000	-0.007	-0.216
-597.040	-92.803	-0.062	0.017
-596.025	800.000	-0.031	0.111
-595.011	-92.674	0.044	0.012
-593.996	48.212	0.073	0.068
-592.982	-191.074	-0.133	0.001
-591.967	-200.000	0.036	0.326
-590.952	-51.332	0.200	-0.094
-589.938	-200.000	-0.011	0.163
-588.923	-200.000	0.023	0.177
-587.909	800.000	0.096	0.337
-586.894	-200.000	0.062	0.281
-585.879	-129.608	0.116	0.016
-584.865	-200.000	-0.052	-0.236
-583.850	800.000	-0.035	-0.154
-582.836	168.617	-0.079	-0.112
-581.821	275.673	-0.141	-0.250
-580.806	-200.000	0.015	-0.072
-579.792	65.761	0.424	-0.429
-578.777	402.923	0.140	0.294
-577.763	-120.264	0.172	0.029
-576.748	-120.508	0.228	-0.039
-575.733	-83.508	-0.314	-0.100
-574.719	-0.738	0.115	-0.081
-573.704	-200.000	0.002	-0.034
-572.690	-200.000	0.031	-0.276
-571.675	-200.000	0.052	-0.310
-570.661	-200.000	-0.033	0.149
-569.646	123.586	0.139	-0.173
-568.631	-123.331	0.253	0.040
-567.617	-114.306	0.201	-0.039
-566.602	800.000	-0.039	0.133
-565.588	279.596	-0.066	0.117
-564.573	214.286	0.185	0.293
-563.558	132.984	-0.098	-0.126
-562.544	-183.317	-0.355	-0.006
-561.529	52.798	0.300	0.286
-560.515	26.953	0.141	0.118
-559.500	474.040	-0.027	0.060
-558.485	800.000	-0.022	-0.074
-557.471	-4.780	0.179	-0.123
-556.456	800.000	0.044	0.132
-555.442	434.737	-0.056	-0.122
-554.427	96.790	0.188	0.214
-553.412	-148.341	0.178	-0.015
-552.398	-153.199	-0.216	-0.015
-551.383	12.195	-0.073	0.056
-550.369	-12.270	-0.205	0.134
-549.354	-163.800	0.191	-0.009
-548.339	800.000	0.012	0.039
-547.325	-13.867	0.244	-0.157
-546.310	102.084	-0.179	0.208
-545.296	270.207	0.091	-0.159
-544.281	-26.466	0.127	-0.074
-543.266	101.591	0.142	-0.165
-542.252	160.343	-0.299	0.416
-541.237	-200.000	-0.005	0.083
-540.223	26.755	0.010	0.008
-539.208	-70.147	-0.327	0.124
-538.193	39.247	-0.292	-0.260
-537.179	-117.158	0.327	0.059
-536.164	662.675	-0.077	0.197
-535.150	79.506	-0.046	0.049
-534.135	-200.000	0.006	0.268
-533.121	384.056	0.123	-0.252
-532.106	428.054	-0.081	-0.174
-531.091	-161.730	-0.219	0.011
-530.077	-47.271	0.238	0.115
-529.062	361.259	0.073	0.146
-528.048	-61.765	-0.128	-0.053
-527.033	-151.332	0.174	-0.013
-526.018	-15.110	-0.078	0.050
-525.004	-200.000	0.014	-0.086
-523.989	800.000	0.069	0.228
-522.975	-33.296	-0.376	-0.207
-521.960	-200.000	-0.052	-0.287
-520.945	-200.000	0.056	-0.429
-519.931	-200.000	0.019	-0.082
-518.916	-107.968	-0.111	0.024
-517.902	-20.068	0.208	0.128
-516.887	-200.000	0.001	-0.166
-515.872	-77.455	-0.309	0.107
-514.858	81.308	0.101	0.109
-513.843	-72.841	0.157	-0.058
-512.829	800.000	0.091	-0.304
-511.814	-161.553	0.121	-0.006
-510.799	-29.111	-0.172	0.098
-509.785	800.000	-0.025	-0.086
-508.770	149.626	0.129	-0.174
-507.756	-200.000	-0.011	-0.150
-506.741	-54.141	0.178	0.081
-505.726	657.391	0.104	0.265
-504.712	-199.072	-0.162	0.001
-503.697	2.295	0.211	-0.152
-502.683	-28.662	-0.206	-0.118
-501.668	-200.000	0.006	-0.125
-500.653	-124.972	-0.065	-0.010
-499.639	-200.000	0.004	-0.233
-498.624	-15.273	0.079	-0.050
-497.610	-200.000	-0.039	-0.232
-496.595	-200.000	0.026	0.179
-495.581	2.889	-0.320	0.231
-494.566	-200.000	0.030	-0.442
-493.551	-97.588	-0.335	-0.086
-492.537	-200.000	0.029	-0.209
-491.522	-200.000	0.017	-0.283
-490.508	-171.269	-0.089	-0.003
-489.493	-200.000	-0.021	0.214
-488.478	413.178	0.119	-0.251
-487.464	95.382	-0.112	0.127
-486.449	718.484	0.064	0.169
-485.435	-16.504	-0.358	-0.226
-484.420	-4.088	0.068	0.047
-483.405	386.256	0.058	-0.119
-482.391	-200.000	0.023	0.281
-481.376	107.984	0.197	0.233
-480.362	800.000	-0.093	-0.310
-479.347	85.450	0.147	0.161
-478.332	-63.378	0.075	0.031
-477.318	-31.419	0.083	0.046
-476.303	-200.000	0.002	-0.155
-475.289	800.000	0.036	-0.138
-474.274	21.381	-0.300	0.242
-473.259	-70.148	0.121	0.046
-472.245	7.221	-0.257	0.191
-471.230	-128.606	0.440	-0.062
-470.216	-200.000	0.074	-0.436
-469.201	-15.769	0.155	-0.098
-468.186	-99.129	0.052	0.013
-467.172	289.185	0.080	0.145
-466.157	98.282	-0.058	-0.067
-465.143	-72.941	-0.260	-0.095
-464.128	116.723	-0.196	0.239
-463.113	216.824	0.059	0.094
-462.099	81.446	0.048	-0.051
-461.084	398.362	-0.070	-0.146
-460.070	0.734	-0.225	-0.160
-459.055	378.736	-0.069	-0.139
-458.040	567.977	0.100	0.241
-457.026	242.743	0.106	0.177
-456.011	-13.586	-0.144	0.092
-454.997	-200.000	0.031	-0.186
-453.982	164.795	0.147	0.206
-452.968	-200.000	0.014	-0.150
-451.953	193.043	-0.126	-0.189
-450.938	-111.662	-0.328	0.066
-449.924	-57.818	-0.165	0.072
-448.909	-200.000	0.045	-0.276
-447.895	40.772	0.254	-0.227
-446.880	-115.946	0.278	-0.051
-445.865	142.773	0.088	-0.116
-444.851	800.000	-0.061	-0.202
-443.836	604.972	0.157	0.388
-442.822	195.451	0.088	0.133
-441.807	-200.000	-0.013	0.248
-440.792	77.066	-0.075	-0.079
-439.778	87.925	-0.105	-0.115
-438.763	282.977	-0.022	-0.039
-437.749	-89.192	0.224	0.066
-436.734	-200.000	0.001	-0.137
-435.719	277.579	-0.047	-0.084
-434.705	484.407	0.174	0.393
-433.690	800.000	0.098	-0.351
-432.676	82.306	0.156	-0.168
-431.661	-200.000	0.014	-0.166
-430.646	800.000	0.056	0.155
-429.632	-20.380	-0.248	0.151
-428.617	-200.000	-0.001	0.044
-427.603	-65.638	-0.236	-0.094
-426.588	-200.000	-0.021	-0.233
-425.573	-200.000	0.083	0.412
-424.559	300.211	-0.051	0.093
-423.544	-200.000	-0.005	-0.216
-422.530	-22.268	0.242	0.145
-421.515	-75.217	-0.073	-0.026
-420.500	8.774	0.028	-0.021
-419.486	631.428	-0.090	0.225
-418.471	-200.000	0.017	-0.233
-417.457	-104.012	-0.214	0.049
-416.442	-15.207	-0.195	0.124
-415.428	162.116	-0.082	-0.114
-414.413	149.555	-0.101	0.135
-413.398	-200.000	0.030	-0.298
-412.384	3.665	0.309	-0.224
-411.369	89.909	0.030	0.033
-410.355	269.700	0.092	0.159
-409.340	800.000	0.059	0.187
-408.325	-170.067	0.230	-0.008
-407.311	-21.099	0.071	-0.043
-406.296	-200.000	0.090	-0.418
-405.282	111.010	0.245	-0.293
-404.267	513.803	0.055	0.127
-403.252	-23.522	0.284	0.169
-402.238	168.361	0.033	-0.046
-401.223	-104.635	0.177	0.040
-400.209	-29.899	-0.130	0.073
-399.194	-157.414	-0.157	-0.009
-398.179	-120.904	-0.082	0.014
-397.165	-102.452	-0.101	0.024
-396.150	-200.000	-0.048	0.242
-395.136	-109.834	0.198	-0.041
-394.121	-200.000	-0.012	0.256
-393.106	-13.340	0.111	-0.071
-392.092	-95.749	-0.371	-0.098
-391.077	-9.836	-0.130	-0.086
-390.063	-126.471	-0.562	-0.083
-389.048	192.553	-0.012	0.018
-388.033	0.777	0.146	0.104
-387.019	-18.501	-0.207	0.128
-386.004	-200.000	-0.015	0.132
-384.990	668.106	0.012	-0.031
-383.975	194.335	-0.118	-0.177
-382.960	-4.686	-0.162	-0.111
-381.946	571.851	0.073	-0.177
-380.931	67.940	0.160	-0.162
-379.917	121.090	-0.196	0.241
-378.902	-200.000	0.027	0.300
-377.888	-83.035	-0.217	-0.069
-376.873	-93.457	-0.117	-0.032
-375.858	-109.119	0.142	0.030
-374.844	-200.000	0.028	-0.153
-373.829	-200.000	-0.011	0.269
-372.815	100.294	-0.186	-0.213
-371.800	-55.890	0.142	-0.063
-370.785	-73.459	-0.143	0.052
-369.771	800.000	-0.062	0.227
-368.756	382.618	-0.051	0.104
-367.742	42.275	0.094	-0.084
-366.727	-200.000	0.017	0.078
-365.712	78.922	0.284	-0.301
-364.698	16.061	-0.301	-0.235
-363.683	226.355	0.205	0.329
-362.669	-26.447	-0.126	0.073
-361.654	-100.122	0.025	0.006
-360.639	-89.341	-0.384	0.112
-359.625	201.706	-0.108	0.165
-358.610	-200.000	-0.000	0.223
-357.596	-200.000	-0.047	-0.342
-356.581	-127.087	-0.133	0.019
-355.566	62.330	0.309	0.305
-354.552	-66.195	-0.127	0.050
-353.537	-35.915	0.154	0.083
-352.523	17.577	0.076	-0.060
-351.508	-200.000	-0.008	-0.095
-350.493	-200.000	-0.167	0.000
-349.479	-154.873	0.161	-0.010
-348.464	-132.305	-0.298	-0.038
-347.450	-185.725	-0.247	-0.004
-346.435	-3.691	-0.323	-0.222
-345.420	800.000	0.050	0.137
-344.406	-115.856	0.375	-0.069
-343.391	-66.681	0.152	0.060
-342.377	-37.710	0.248	0.131
-341.362	-12.292	-0.090	0.058
-340.348	402.696	-0.008	-0.016
-339.333	800.000	0.090	0.262
-338.318	274.106	-0.167	0.292
-337.304	-4.792	-0.290	0.197
-336.289	-200.000	-0.042	0.268
-335.275	-151.154	0.295	0.022
-334.260	-95.015	-0.377	0.101
-333.245	-76.217	-0.155	0.054
-332.231	61.290	-0.110	-0.108
-331.216	-95.747	0.212	-0.056
-330.202	311.273	0.199	0.368
-329.187	-200.000	0.023	0.229
-328.172	-120.368	0.133	-0.022
-327.158	-73.938	-0.092	-0.033
-326.143	248.836	-0.117	-0.195
-325.129	-4.899	0.190	-0.129
-324.114	-103.018	-0.261	0.061
-323.099	393.163	-0.038	-0.077
-322.085	800.000	0.091	0.335
-321.070	349.541	0.045	0.088
-320.056	-56.802	0.190	-0.083
-319.041	217.397	0.143	0.224
-318.026	479.400	-0.230	0.515
-317.012	-83.049	-0.267	-0.085
-315.997	-79.637	0.379	-0.126
-314.983	-200.000	0.020	-0.196
-313.968	185.847	0.213	0.312
-312.953	85.279	-0.346	0.375
-311.939	128.427	-0.045	-0.057
-310.924	129.971	-0.104	0.132
-309.910	-200.000	0.019	-0.363
-308.895	-97.773	0.125	-0.032
-307.880	58.227	0.177	0.171
-306.866	215.490	-0.259	-0.406
-305.851	-200.000	0.019	-0.107
-304.837	-75.938	0.217	0.076
-303.822	268.508	0.152	0.263
-302.807	-133.118	0.195	-0.024
-301.793	-126.904	0.322	0.047
-300.778	53.164	0.074	0.070
-299.764	-14.153	-0.240	0.153
-298.749	57.931	0.193	0.187
-297.735	-200.000	0.013	0.060
-296.720	-67.931	-0.197	-0.076
-295.705	62.099	0.126	0.124
-294.691	-200.000	0.009	-0.138
-293.676	-33.573	0.099	-0.054
-292.662	-166.886	0.164	-0.007
-291.647	36.168	-0.230	0.199
-290.632	29.167	0.131	-0.110
-289.618	-68.030	0.045	-0.017
-288.603	800.000	-0.083	0.243
-287.589	-164.837	-0.234	0.010
-286.574	42.352	-0.144	0.129
-285.559	586.821	-0.061	-0.148
-284.545	-22.535	-0.167	0.099
-283.530	27.985	-0.226	-0.188
-282.516	654.096	-0.148	-0.374
-281.501	14.213	-0.287	-0.220
-280.486	-112.909	-0.187	-0.037
-279.472	26.331	0.115	0.095
-278.457	-124.678	0.221	-0.034
-277.443	479.256	0.088	-0.197
-276.428	-200.000	0.042	-0.183
-275.413	730.081	-0.029	-0.075
-274.399	640.741	0.145	-0.363
-273.384	1.769	0.154	-0.109
-272.370	611.175	0.119	-0.292
-271.355	-56.896	-0.244	0.106
-270.340	-94.516	0.029	-0.008
-269.326	250.926	-0.032	-0.054
-268.311	800.000	0.050	0.162
-267.297	58.284	-0.200	-0.193
-266.282	-18.829	-0.434	0.266
-265.267	469.320	0.082	0.181
-264.253	800.000	-0.083	0.276
-263.238	-200.000	0.015	0.365
-262.224	382.150	0.128	-0.259
-261.209	-200.000	0.005	-0.181
-260.195	-68.614	0.308	0.117
-259.180	-156.358	0.291	-0.018
-258.165	-200.000	-0.074	-0.454
-257.151	800.000	0.063	0.204
-256.136	-20.249	-0.036	0.022
-255.122	-95.670	-0.309	0.081
-254.107	666.168	-0.070	0.179
-253.092	-200.000	0.010	0.169
-252.078	-58.344	-0.132	0.057
-251.063	42.243	-0.273	0.245
-250.049	-200.000	-0.017	0.078
-249.034	-31.477	0.142	0.079
-248.019	203.380	-0.275	0.420
-247.005	-90.470	-0.048	0.014
-245.990	-49.850	-0.089	0.042
-244.976	-122.902	0.170	-0.027
-243.961	213.881	0.053	-0.083
-242.946	-200.000	0.007	0.137
-241.932	-200.000	-0.012	-0.106
-240.917	533.112	-0.098	0.228
-239.903	-181.139	0.353	-0.007
-238.888	-176.593	0.310	0.008
-237.873	-49.450	0.322	0.151
-236.859	142.097	0.224	0.293
-235.844	800.000	-0.131	-0.369
-234.830	378.023	-0.070	-0.140
-233.815	800.000	-0.131	0.358
-232.800	-200.000	0.010	-0.340
-231.786	-200.000	0.090	-0.404
-230.771	76.661	0.093	-0.097
-229.757	761.061	0.070	-0.185
-228.742	434.754	-0.145	-0.310
-227.727	-167.206	-0.276	0.011
-226.713	-200.000	0.036	-0.303
-225.698	800.000	-0.055	0.210
-224.684	-100.969	0.298	0.072
-223.669	574.102	0.123	0.295
-222.655	-99.523	-0.143	0.035
-221.640	205.456	-0.126	0.192
-220.625	75.932	-0.111	0.116
-219.611	173.658	-0.004	0.006
-218.596	-96.062	0.196	-0.051
-217.582	4.729	0.248	0.179
-216.567	-50.015	-0.045	-0.021
-215.552	-61.055	-0.341	-0.141
-214.538	13.647	0.150	-0.114
-213.523	-200.000	-0.009	-0.066
-212.509	-200.000	0.024	0.140
-211.494	229.665	-0.123	-0.198
-210.479	-200.000	-0.019	-0.107
-209.465	29.042	0.111	0.093
-208.450	-200.000	-0.007	-0.062
-207.436	-76.534	0.124	0.043
-206.421	-102.545	-0.292	-0.069
-205.406	29.085	0.221	0.185
-204.392	303.530	-0.052	-0.096
-203.377	-200.000	-0.026	-0.122
-202.363	-21.922	-0.149	-0.089
-201.348	200.945	-0.140	-0.212
-200.333	-26.653	0.163	0.094
-199.319	-200.000	-0.010	0.075
-198.304	-105.929	0.257	-0.057
-197.290	-200.000	0.004	-0.258
-196.275	155.067	-0.066	-0.089
-195.260	-128.125	-0.252	-0.035
-194.246	-135.446	0.214	-0.025
-193.231	20.087	0.111	-0.088
-192.217	-110.175	0.345	-0.071
-191.202	-93.629	0.191	0.052
-190.187	-71.359	-0.339	-0.125
-189.173	15.853	0.252	-0.195
-188.158	61.774	0.115	0.112
-187.144	-73.611	0.248	0.089
-186.129	800.000	-0.106	-0.310
-185.114	78.339	0.091	-0.095
-184.100	145.468	0.166	-0.219
-183.085	-200.000	-0.044	-0.344
-182.071	-134.272	-0.118	0.014
-181.056	51.558	0.128	0.120
-180.042	-41.485	-0.086	0.043
-179.027	125.946	-0.203	-0.252
-178.012	-6.064	0.260	0.174
-176.998	-47.189	-0.390	-0.187
-175.983	76.747	-0.157	0.163
-174.969	-19.973	-0.214	0.130
-173.954	95.755	0.047	-0.053
-172.939	-3.280	0.111	0.076
-171.925	800.000	-0.022	0.076
-170.910	-73.087	-0.251	0.091
-169.896	-113.880	0.142	-0.027
-168.881	106.992	0.004	-0.004
-167.866	-132.008	0.364	0.047
-166.852	-180.520	0.239	-0.005
-165.837	-109.123	-0.080	0.017
-164.823	-98.905	-0.310	-0.077
-163.808	-75.036	0.208	-0.073
-162.793	-100.540	-0.321	0.078
-161.779	-73.350	0.352	0.126
-160.764	-200.000	-0.023	0.286
-159.750	-9.070	0.298	0.196
-158.735	-200.000	-0.043	0.292
-157.720	-135.338	-0.067	-0.008
-156.706	-126.230	0.272	0.040
-155.691	-200.000	-0.031	0.471
-154.677	-135.827	-0.042	-0.005
-153.662	-29.867	-0.257	0.144
-152.647	-200.000	0.029	-0.236
-151.633	557.351	0.175	0.414
-150.618	52.264	0.124	-0.116
-149.604	229.360	-0.167	-0.268
-148.589	-105.160	-0.137	0.031
-147.574	-167.251	0.168	0.007
-146.560	-133.136	-0.329	0.041
-145.545	800.000	-0.039	-0.125
-144.531	160.719	-0.177	0.242
-143.516	169.775	0.064	0.090
-142.502	-156.215	-0.367	-0.023
-141.487	338.916	0.013	0.026
-140.472	-200.000	0.016	0.221
-139.458	-166.436	-0.260	-0.011
-138.443	76.275	-0.252	-0.261
-137.429	242.761	0.171	0.281
-136.414	296.393	-0.119	0.214
-135.399	317.514	0.054	-0.100
-134.385	456.416	0.178	0.387
-133.370	-58.053	-0.112	0.048
-132.356	-90.221	-0.223	-0.063
-131.341	-15.988	-0.098	0.061
-130.326	45.116	0.303	0.274
-129.312	800.000	0.064	0.225
-128.297	-116.375	-0.145	-0.026
-127.283	5.766	0.287	0.208
-126.268	-200.000	0.026	0.228
-125.253	-7.450	-0.241	0.160
-124.239	-180.399	0.165	-0.003
-123.224	126.766	0.103	0.128
-122.210	196.266	0.143	0.214
-121.195	-146.478	-0.118	0.010
-120.180	149.307	0.100	0.132
-119.166	615.955	-0.126	0.310
-118.151	85.679	0.062	-0.067
-117.137	-22.846	-0.071	-0.042
-116.122	128.643	-0.128	-0.160
-115.107	224.841	-0.257	-0.407
-114.093	117.260	-0.154	-0.186
-113.078	-28.435	0.205	0.116
-112.064	-35.690	0.317	-0.168
-111.049	-38.307	0.286	-0.149
-110.034	-200.000	0.005	-0.080
-109.020	-200.000	0.024	-0.196
-108.005	31.850	-0.133	-0.112
-106.991	-19.869	0.035	0.021
-105.976	800.000	0.102	0.305
-104.962	-200.000	0.007	-0.221
-103.947	-155.721	0.087	-0.005
-102.932	-107.585	0.175	-0.038
-101.918	-7.104	-0.136	0.090
-100.903	-145.628	-0.324	-0.028
-99.889	-187.539	-0.247	-0.003
-98.874	615.662	0.068	0.168
-97.859	-45.655	-0.256	-0.124
-96.845	1.189	0.159	0.112
-95.830	662.907	-0.086	0.218
-94.816	46.020	0.057	-0.052
-93.801	164.970	0.296	-0.409
-92.786	-3.781	-0.267	0.182
-91.772	-93.335	0.312	0.085
-90.757	-39.029	0.031	0.016
-89.743	716.768	0.027	0.070
-88.728	12.264	0.196	0.148
-87.713	800.000	0.063	0.261
-86.699	-63.846	-0.183	0.073
-85.684	370.161	-0.137	-0.272
-84.670	108.291	0.052	0.060
-83.655	-53.461	-0.135	-0.061
-82.640	-127.945	0.195	-0.027
-81.626	-200.000	0.004	0.137
-80.611	-200.000	-0.029	0.156
-79.597	176.715	0.022	-0.032
-78.582	-143.516	0.108	-0.010
-77.567	-1.450	-0.131	-0.091
-76.553	800.000	0.039	-0.107
-75.538	-200.000	0.245	0.001
-74.524	-115.999	0.076	0.014
-73.509	800.000	0.105	0.310
-72.494	-200.000	-0.056	-0.326
-71.480	-62.826	-0.553	-0.224
-70.465	-200.000	0.026	0.241
-69.451	65.469	-0.147	0.146
-68.436	800.000	-0.048	-0.202
-67.422	653.051	-0.025	-0.064
-66.407	405.127	0.135	-0.279
-65.392	160.133	0.143	0.195
-64.378	-158.375	-0.055	0.003
-63.363	-72.616	-0.265	-0.095
-62.349	-200.000	0.024	-0.164
-61.334	83.281	-1.044	-1.112
-60.319	30.352	0.788	0.658
-59.305	553.024	-0.531	-1.247
-58.290	565.940	0.666	1.578
-57.276	379.261	0.916	1.833
-56.261	-200.000	116.788	660.200
-55.246	524.558	1539.550	3539.786
-54.232	174.867	2716.694	3843.631
-53.217	100.620	2289.715	2599.640
-52.203	35.952	1895.482	1630.079
-51.188	29.924	1686.574	1404.784
-50.173	27.470	1644.658	1351.634
-49.159	48.795	1702.127	1560.418
-48.144	47.260	1715.561	1561.107
-47.130	29.444	1673.292	1389.891
-46.115	26.814	1658.562	1357.934
-45.100	26.670	1653.640	1352.775
-44.086	26.700	1650.821	1350.636
-43.071	26.583	1649.049	1348.259
-42.057	26.639	1646.076	1346.197
-41.042	26.742	1643.593	1344.875
-40.027	26.626	1642.443	1343.024
-39.013	26.613	1640.188	1341.025
-37.998	26.617	1638.990	1340.025
-36.984	26.678	1637.333	1339.065
-35.969	26.840	1635.429	1338.651
-34.954	26.868	1634.158	1337.765
-33.940	26.764	1632.969	1335.974
-32.925	26.757	1630.668	1333.989
-31.911	26.849	1628.695	1332.992
-30.896	26.813	1627.046	1331.327
-29.881	26.818	1625.475	1330.023
-28.867	26.743	1623.941	1328.169
-27.852	26.861	1622.655	1327.928
-26.838	26.879	1621.111	1326.741
-25.823	26.898	1619.767	1325.726
-24.809	26.762	1619.332	1324.327
-23.794	26.773	1617.433	1322.800
-22.779	26.802	1615.925	1321.729
-21.765	26.831	1613.926	1320.249
-20.750	26.853	1612.015	1318.796
-19.736	26.938	1611.067	1318.588
-18.721	26.894	1609.693	1317.087
-17.706	26.889	1608.090	1315.693
-16.692	26.780	1606.816	1313.802
-15.677	26.889	1605.475	1313.442
-14.663	26.896	1604.071	1312.296
-13.648	26.939	1602.362	1311.155
-12.633	26.808	1601.355	1309.332
-11.619	26.781	1599.911	1307.905
-10.604	26.827	1598.445	1306.988
-9.590	26.885	1596.660	1305.894
-8.575	26.826	1595.252	1304.267
-7.560	26.853	1594.528	1303.817
-6.546	26.792	1593.683	1302.632
-5.531	26.842	1591.841	1301.435
-4.517	26.880	1591.184	1301.123
-3.502	26.892	1589.892	1300.098
-2.487	26.909	1588.136	1298.732
-1.473	26.450	1576.404	1285.825
-0.458	23.523	1556.706	1249.128
0.556	21.721	1558.452	1216.919
1.571	19.280	1581.965	1217.939
2.586	18.801	1594.050	1223.729
3.600	17.094	1540.755	1170.945
4.615	10.701	1435.400	1049.578
5.629	4.987	1376.311	970.782
6.644	3.950	1368.906	959.050
7.659	4.057	1367.603	958.715
8.673	4.147	1366.931	958.717
9.688	4.056	1365.238	956.878
10.702	3.980	1362.623	954.493
11.717	6.747	1367.530	974.950
12.731	14.459	1380.310	1031.883
13.746	20.942	1391.973	1080.845
14.761	22.845	1394.371	1094.419
15.775	22.286	1392.518	1089.408
16.790	21.506	1389.346	1082.007
17.804	20.699	1387.751	1075.686
18.819	20.452	1386.505	1073.098
19.834	20.261	1386.147	1071.547
20.848	20.242	1385.073	1070.505
21.863	20.211	1383.803	1069.233
22.877	20.087	1382.830	1067.623
23.892	19.965	1381.986	1066.131
24.907	19.904	1381.069	1064.954
25.921	19.864	1379.804	1063.634
26.936	19.947	1379.048	1063.468
27.950	20.022	1377.488	1062.630
28.965	20.173	1376.894	1063.005
29.980	20.272	1376.272	1063.038
30.994	20.469	1375.269	1063.376
32.009	20.515	1373.842	1062.459
33.023	20.360	1373.178	1060.902
34.038	20.275	1371.077	1058.666
35.053	20.178	1370.304	1057.386
36.067	20.060	1369.033	1055.595
37.082	20.180	1368.121	1055.526
38.096	20.296	1367.247	1055.465
39.111	20.250	1366.471	1054.494
40.126	20.046	1365.695	1052.559
41.140	19.800	1364.204	1049.828
42.155	19.661	1363.451	1048.311
43.169	19.578	1363.592	1047.821
44.184	19.583	1363.275	1047.517
45.199	19.683	1363.087	1047.888
46.213	19.721	1363.154	1048.076
47.228	20.046	1362.145	1049.174
48.242	20.051	1360.978	1048.212
49.257	20.072	1359.667	1047.239
50.271	20.069	1358.118	1045.937
51.286	20.112	1356.482	1044.839
52.301	19.914	1355.946	1043.144
53.315	19.830	1354.385	1041.341
54.330	19.807	1353.071	1040.102
55.344	19.815	1351.625	1038.946
56.359	19.719	1350.771	1037.622
57.374	19.661	1349.878	1036.495
58.388	19.497	1349.267	1034.951
59.403	19.504	1348.743	1034.500
60.417	19.542	1347.605	1033.767
61.432	19.390	1346.848	1032.184
62.447	19.329	1346.135	1031.180
63.461	19.294	1344.668	1029.755
64.476	19.303	1343.267	1028.646
65.490	19.279	1342.735	1028.005
66.505	19.316	1340.644	1026.531
67.520	19.287	1339.370	1025.295
68.534	19.280	1338.815	1024.740
69.549	19.367	1337.209	1023.936
70.563	19.153	1336.345	1021.910
71.578	19.056	1335.102	1020.297
72.593	19.000	1334.232	1019.211
73.607	18.938	1333.766	1018.397
74.622	19.121	1332.762	1018.620
75.636	19.178	1331.950	1018.249
76.651	19.243	1331.046	1017.851
77.666	19.238	1331.077	1017.754
78.680	19.313	1330.924	1017.993
79.695	19.362	1329.700	1017.254
80.709	19.508	1329.850	1018.136
81.724	19.664	1328.607	1018.019
82.739	19.704	1328.186	1017.841
83.753	19.974	1327.196	1018.579
84.768	20.135	1326.460	1018.871
85.782	20.310	1325.351	1018.957
86.797	20.295	1324.093	1017.811
87.812	20.074	1322.911	1015.516
88.826	20.056	1322.183	1014.763
89.841	20.125	1321.247	1014.359
90.855	20.291	1319.847	1014.166
91.870	20.259	1319.387	1013.535
92.884	20.348	1317.935	1012.847
93.899	20.381	1317.960	1012.971
94.914	20.391	1317.173	1012.332
95.928	20.265	1316.541	1011.023
96.943	20.341	1315.626	1010.674
97.957	20.290	1314.466	1009.398
98.972	20.199	1313.372	1007.940
99.987	20.241	1312.562	1007.473
101.001	20.236	1311.373	1006.442
102.016	20.177	1311.082	1005.786
103.030	20.228	1309.903	1005.090
104.045	20.211	1308.953	1004.173
105.060	19.998	1307.111	1001.438
106.074	19.626	1305.465	997.941
107.089	19.351	1303.648	994.876
108.103	19.338	1302.363	993.733
109.118	19.263	1301.071	992.228
110.133	19.324	1299.719	991.460
111.147	19.326	1298.586	990.523
112.162	19.471	1297.312	990.290
113.176	19.516	1296.446	989.803
114.191	19.553	1295.352	989.089
115.206	19.646	1294.229	988.682
116.220	19.541	1293.165	987.176
117.235	19.564	1292.005	986.338
118.249	19.399	1290.796	984.386
119.264	19.298	1289.594	982.807
120.279	19.278	1288.539	981.799
121.293	19.189	1287.595	980.486
122.308	19.119	1286.020	978.806
123.322	19.020	1285.141	977.486
124.337	19.070	1284.035	976.841
125.352	18.999	1282.947	975.525
126.366	19.015	1281.736	974.609
127.381	18.839	1281.236	973.146
128.395	18.911	1279.945	972.483
129.410	19.146	1278.628	972.725
130.424	19.219	1277.942	972.530
131.439	19.351	1277.165	972.600
132.454	19.422	1276.492	972.400
133.468	19.450	1275.769	971.923
134.483	19.491	1275.283	971.694
135.497	19.394	1274.660	970.590
136.512	19.546	1273.418	970.414
137.527	19.581	1272.072	969.495
138.541	19.662	1270.427	968.611
139.556	19.633	1269.810	967.891
140.570	19.762	1269.177	968.047
141.585	19.866	1267.838	967.521
142.600	20.001	1266.739	967.349
143.614	20.203	1265.862	967.725
144.629	20.125	1265.420	966.866
145.643	20.171	1264.052	965.992
146.658	19.982	1262.883	963.961
147.673	19.802	1261.304	961.668
148.687	19.687	1259.603	959.647
149.702	19.583	1258.111	957.851
150.716	19.501	1257.072	956.522
151.731	19.462	1255.313	954.883
152.746	19.505	1254.688	954.558
153.760	19.648	1253.399	954.282
154.775	19.668	1253.087	954.073
155.789	19.789	1252.031	953.852
156.804	19.899	1250.783	953.420
157.819	20.044	1249.746	953.346
158.833	20.103	1249.281	953.229
159.848	20.241	1248.429	953.252
160.862	20.332	1247.089	952.647
161.877	19.818	1246.058	948.957
162.892	19.619	1244.289	946.433
163.906	19.505	1243.425	945.070
164.921	19.535	1242.810	944.682
165.935	19.585	1242.121	944.349
166.950	19.607	1241.536	943.941
167.964	19.777	1240.512	944.008
168.979	19.629	1239.714	942.509
169.994	19.666	1239.174	942.215
171.008	19.650	1238.495	941.530
172.023	19.858	1237.582	941.881
173.037	20.088	1237.002	942.611
174.052	20.021	1236.413	941.713
175.067	19.715	1234.760	938.709
176.081	19.446	1233.425	936.154
177.096	19.621	1232.444	936.275
178.110	19.582	1231.479	935.246
179.125	19.649	1230.569	934.835
180.140	19.722	1230.020	934.730
181.154	19.864	1228.831	934.509
182.169	19.949	1227.901	934.181
183.183	20.007	1226.331	933.215
184.198	20.226	1225.105	933.380
185.213	20.082	1224.740	932.241
186.227	20.173	1223.510	931.711
187.242	20.209	1222.622	931.148
188.256	20.342	1221.847	931.187
189.271	20.395	1220.982	930.730
190.286	20.199	1218.899	928.010
191.300	19.575	1218.229	924.084
192.315	19.451	1217.503	922.784
193.329	19.607	1216.708	922.936
194.344	19.794	1216.145	923.427
195.359	19.738	1215.614	922.640
196.373	19.667	1216.011	922.485
197.388	19.869	1215.520	923.104
198.402	20.206	1215.198	924.579
199.417	20.289	1214.832	924.659
200.432	20.473	1213.960	924.894
201.446	20.661	1213.213	925.241
202.461	20.690	1212.313	924.626
203.475	20.582	1211.856	923.626
204.490	20.283	1210.018	920.556
205.504	20.213	1208.129	918.666
206.519	20.157	1207.107	917.513
207.534	20.044	1205.924	915.933
208.548	20.108	1205.081	915.552
209.563	20.167	1204.415	915.272
210.577	20.175	1203.641	914.649
211.592	20.149	1203.068	913.996
212.607	20.379	1202.397	914.616
213.621	20.441	1201.409	914.109
214.636	20.301	1200.502	912.603
215.650	20.311	1199.832	912.066
216.665	20.471	1198.899	912.113
217.680	20.633	1198.497	912.577
218.694	20.764	1197.802	912.655
219.709	20.658	1196.490	911.019
220.723	20.563	1196.001	910.067
221.738	20.569	1194.899	909.179
222.753	20.558	1194.105	908.440
223.767	20.465	1194.175	907.925
224.782	20.735	1193.183	908.499
225.796	20.809	1192.789	908.507
226.811	20.780	1191.791	907.516
227.826	20.535	1190.879	905.465
228.840	20.434	1190.453	904.536
229.855	20.538	1189.099	903.968
230.869	20.483	1187.999	902.764
231.884	20.296	1187.641	901.442
232.899	20.285	1186.543	900.470
233.913	20.253	1185.304	899.285
234.928	20.007	1185.143	897.811
235.942	20.001	1183.867	896.730
236.957	19.945	1183.468	896.060
237.972	19.974	1183.176	895.911
238.986	20.003	1182.218	895.253
240.001	20.166	1180.974	895.077
241.015	20.252	1180.644	895.190
242.030	20.262	1179.997	894.670
243.045	20.403	1179.029	894.584
244.059	20.582	1178.447	894.986
245.074	20.405	1178.113	893.744
246.088	20.548	1177.183	893.693
247.103	20.615	1177.057	893.864
248.117	20.886	1175.678	894.125
249.132	21.039	1175.293	894.539
250.147	21.270	1175.033	895.448
251.161	21.382	1174.796	895.761
252.176	21.440	1173.907	895.301
253.190	21.442	1173.602	894.997
254.205	21.577	1172.959	895.120
255.220	21.619	1172.047	894.560
256.234	21.596	1171.475	893.926
257.249	21.574	1170.946	893.332
258.263	21.513	1170.099	892.293
259.278	21.390	1169.195	890.901
260.293	21.500	1169.016	891.243
261.307	21.502	1168.827	891.030
262.322	21.707	1167.793	891.209
263.336	21.638	1166.920	890.113
264.351	21.649	1166.395	889.688
265.366	21.570	1165.810	888.763
266.380	21.580	1165.478	888.483
267.395	21.632	1164.034	887.565
268.409	21.452	1162.873	885.689
269.424	21.445	1162.414	885.229
270.439	21.430	1162.204	884.914
271.453	21.272	1161.126	883.215
272.468	21.105	1159.917	881.374
273.482	21.085	1159.504	880.882
274.497	21.178	1158.785	880.728
275.512	21.189	1157.964	880.078
276.526	21.123	1157.230	879.110
277.541	21.211	1156.325	878.791
278.555	21.207	1155.951	878.409
279.570	21.436	1155.386	879.050
280.585	21.792	1154.639	880.193
281.599	21.730	1153.550	878.976
282.614	21.420	1152.413	876.477
283.628	21.310	1151.669	875.280
284.643	21.218	1150.673	873.988
285.657	21.311	1149.481	873.470
286.672	21.417	1148.608	873.256
287.687	21.422	1147.814	872.601
288.701	21.302	1147.356	871.580
289.716	21.430	1146.219	871.276
290.730	21.467	1145.329	870.706
291.745	21.525	1145.039	870.694
292.760	21.431	1145.040	870.151
293.774	21.629	1144.491	870.645
294.789	21.688	1143.994	870.482
295.803	21.656	1142.997	869.484
296.818	21.402	1142.100	867.469
297.833	21.272	1141.406	866.221
298.847	21.403	1140.263	865.922
299.862	21.427	1139.604	865.464
300.876	21.498	1139.037	865.311
301.891	21.622	1138.256	865.252
302.906	21.826	1137.384	865.517
303.920	21.969	1137.239	866.038
304.935	22.049	1136.690	865.938
305.949	22.097	1136.287	865.790
306.964	22.136	1135.510	865.315
307.979	21.927	1134.490	863.432
308.993	21.797	1133.615	862.051
310.008	21.972	1132.810	862.224
311.022	22.017	1132.056	861.791
312.037	21.939	1131.574	860.967
313.052	21.598	1130.710	858.560
314.066	21.561	1129.366	857.286
315.081	21.292	1128.352	855.120
316.095	21.346	1127.308	854.520
317.110	21.325	1126.907	854.039
318.125	21.452	1125.696	853.664
319.139	21.380	1125.277	852.920
320.154	21.422	1124.618	852.550
321.168	21.314	1124.246	851.664
322.183	21.326	1123.816	851.324
323.197	21.403	1123.552	851.422
324.212	21.616	1122.442	851.539
325.227	21.656	1121.882	851.238
326.241	21.627	1121.457	850.699
327.256	21.536	1120.437	849.409
328.270	21.462	1119.731	848.438
329.285	21.384	1118.550	847.090
330.300	21.490	1117.681	846.870
331.314	21.425	1116.741	845.766
332.329	21.451	1116.119	845.347
333.343	21.603	1114.944	845.115
334.358	21.720	1114.623	845.364
335.373	21.905	1113.836	845.581
336.387	21.945	1113.361	845.339
337.402	21.979	1112.512	844.786
338.416	21.923	1112.367	844.332
339.431	22.129	1111.413	844.523
340.446	22.153	1111.200	844.401
341.460	22.399	1110.576	845.031
342.475	22.421	1109.906	844.554
343.489	22.487	1108.858	843.999
344.504	22.590	1107.844	843.643
345.519	22.567	1107.167	842.945
346.533	22.634	1106.488	842.671
347.548	22.758	1105.926	842.761
348.562	22.598	1104.978	841.202
349.577	22.383	1103.681	839.113
350.592	21.988	1103.401	836.944
351.606	22.058	1101.951	836.104
352.621	21.842	1101.486	834.649
353.635	21.817	1100.788	833.929
354.650	21.840	1100.013	833.376
355.665	21.946	1099.140	833.144
356.679	22.042	1098.764	833.242
357.694	22.219	1098.321	833.671
358.708	22.255	1097.926	833.466
359.723	22.218	1096.960	832.488
360.738	22.253	1096.575	832.287
361.752	22.240	1096.045	831.746
362.767	22.284	1095.321	831.335
363.781	22.289	1094.841	830.920
364.796	22.378	1094.313	830.866
365.810	22.611	1094.294	831.875
366.825	22.842	1093.382	832.200
367.840	22.878	1093.187	832.147
368.854	22.887	1092.590	831.658
369.869	22.959	1091.696	831.244
370.883	22.722	1090.732	829.325
371.898	22.681	1089.767	828.323
372.913	22.700	1089.085	827.821
373.927	22.802	1088.367	827.679
374.942	22.793	1088.558	827.709
375.956	22.803	1087.891	827.177
376.971	22.761	1087.047	826.266
377.986	22.940	1086.315	826.472
379.000	22.983	1086.115	826.449
380.015	23.109	1085.764	826.699
381.029	23.057	1085.293	826.025
382.044	23.164	1084.210	825.625
383.059	23.053	1083.653	824.611
384.073	22.965	1083.126	823.728
385.088	23.022	1081.978	823.045
386.102	22.905	1081.293	821.908
387.117	22.708	1079.887	819.849
388.132	22.636	1078.444	818.348
389.146	22.517	1078.126	817.484
390.161	22.558	1077.305	816.977
391.175	22.494	1076.768	816.203
392.190	22.678	1076.304	816.630
393.205	22.928	1075.273	816.931
394.219	22.874	1074.723	816.192
395.234	22.620	1073.910	814.328
396.248	22.676	1072.619	813.536
397.263	22.466	1071.848	811.912
398.278	22.449	1070.798	810.967
399.292	22.483	1069.669	810.197
400.307	22.318	1069.227	809.033
401.321	22.287	1068.541	808.296
402.336	22.368	1067.745	807.995
403.350	22.344	1067.083	807.314
404.365	22.380	1066.859	807.236
405.380	22.567	1066.187	807.513
406.394	22.735	1065.171	807.440
407.409	22.820	1064.992	807.624
408.423	23.094	1064.303	808.282
409.438	23.185	1063.380	807.927
410.453	23.174	1062.985	807.504
411.467	23.371	1062.235	807.761
412.482	23.279	1061.682	806.847
413.496	23.361	1061.357	806.906
414.511	23.528	1060.725	807.114
415.526	23.521	1060.744	807.023
416.540	23.604	1060.276	806.974
417.555	23.621	1059.317	806.248
418.569	23.364	1058.759	804.586
419.584	23.318	1058.353	803.996
420.599	23.338	1057.510	803.379
421.613	157.553	1404.949	1797.875
422.628	144.774	1455.522	1797.959
