DTS Sentinel unit serial number:	SN413079Multiplexer serial number:	ORYXHardware model number:	OX4-SRSoftware version number:	ORYX F/W v4.00 Oryx Data Collector v3.7.2.0data status	okinstallation	princeton_trtdifferential loss correction	single-endedforward channel	channel 2reverse channel	N/Adate	2019/09/13time	20:15:35forward acquisition time	60.00reverse acquisition time	0.00gamma	496.2192k internal	0.2334k external	0.2334temperature offset calibration	1.0140default loss term (dB/km)	0.3790temperature slope calibration	1.0000multiplexer offset coefficient	1.0000multiplexer slope coefficient	1.0000fibre end	0.00T internal ref (°C)	29.42T ext. ref 1 (°C)	3.34T ext. ref 2 (°C)	23.83length (m)	temperature (°C)	Stokes	anti-Stokes-747.200	136.631	0.227	0.297
-746.185	135.846	-0.205	0.268
-745.171	-58.206	0.234	-0.102
-744.156	-200.000	0.023	0.138
-743.142	-89.347	0.195	0.058
-742.127	-200.000	-0.018	0.095
-741.112	-74.913	-0.302	0.109
-740.098	-37.418	-0.114	0.061
-739.083	-17.832	-0.118	-0.074
-738.069	-97.296	-0.152	0.040
-737.054	228.480	-0.135	-0.222
-736.039	9.527	-0.174	-0.132
-735.025	800.000	0.028	0.099
-734.010	-193.714	-0.273	-0.002
-732.996	-133.115	-0.282	0.036
-731.981	-200.000	-0.006	0.092
-730.966	-39.646	-0.120	-0.063
-729.952	-200.000	0.011	-0.097
-728.937	800.000	-0.042	-0.149
-727.923	53.657	-0.190	-0.183
-726.908	800.000	0.051	0.208
-725.894	-88.247	0.156	-0.047
-724.879	-151.087	0.243	0.018
-723.864	-200.000	0.022	0.155
-722.850	800.000	-0.053	-0.191
-721.835	-51.034	0.161	0.076
-720.821	368.932	0.051	-0.104
-719.806	-136.195	-0.178	-0.021
-718.791	-123.110	-0.249	0.040
-717.777	116.744	0.043	0.053
-716.762	114.972	-0.104	-0.127
-715.748	-116.732	-0.078	-0.014
-714.733	7.488	-0.105	0.079
-713.718	-169.201	0.297	0.011
-712.704	-200.000	0.007	0.083
-711.689	423.310	0.059	0.128
-710.675	15.200	0.312	-0.246
-709.660	-126.734	0.137	-0.020
-708.645	-200.000	0.007	0.136
-707.631	-128.803	0.116	-0.016
-706.616	-111.907	0.137	-0.028
-705.602	8.105	-0.028	0.021
-704.587	-59.087	0.197	-0.085
-703.572	-77.783	-0.284	-0.099
-702.558	-200.000	0.024	-0.122
-701.543	-97.052	-0.161	0.042
-700.529	0.104	0.101	-0.072
-699.514	-87.880	-0.335	-0.101
-698.499	481.990	-0.120	0.273
-697.485	52.040	0.135	-0.129
-696.470	-66.985	0.191	-0.075
-695.456	44.493	-0.191	-0.176
-694.441	-97.317	-0.249	0.065
-693.426	-114.553	-0.179	0.034
-692.412	723.767	0.032	-0.086
-691.397	123.647	-0.022	0.028
-690.383	-156.213	-0.162	0.010
-689.368	-200.000	0.001	-0.149
-688.354	-200.000	0.028	-0.355
-687.339	-31.606	0.117	-0.066
-686.324	16.874	-0.045	0.036
-685.310	-55.144	0.068	-0.031
-684.295	344.997	-0.145	0.285
-683.281	-79.798	-0.244	-0.082
-682.266	800.000	-0.033	-0.110
-681.251	764.972	0.092	0.250
-680.237	-200.000	0.013	-0.061
-679.222	189.909	-0.199	-0.300
-678.208	-200.000	-0.032	0.212
-677.193	-117.351	-0.129	-0.023
-676.178	250.042	0.151	-0.258
-675.164	74.878	-0.241	-0.254
-674.149	39.438	0.185	-0.166
-673.135	-200.000	0.034	-0.192
-672.120	-200.000	-0.005	0.184
-671.105	-80.717	-0.231	-0.077
-670.091	-27.386	-0.201	0.117
-669.076	104.117	-0.127	0.150
-668.062	-200.000	0.004	0.033
-667.047	-200.000	-0.049	0.380
-666.032	-200.000	-0.020	-0.169
-665.018	52.139	-0.169	0.161
-664.003	-118.478	0.130	0.023
-662.989	-196.820	0.188	0.001
-661.974	-90.935	-0.330	-0.095
-660.959	-200.000	0.002	0.083
-659.945	-200.000	-0.020	0.178
-658.930	-43.467	-0.221	-0.112
-657.916	800.000	0.060	-0.252
-656.901	313.464	0.098	-0.185
-655.886	101.204	-0.123	-0.143
-654.872	610.766	-0.066	0.164
-653.857	-90.984	0.090	-0.026
-652.843	-200.000	0.046	0.307
-651.828	-200.000	-0.023	0.162
-650.814	-72.590	-0.245	0.090
-649.799	-19.298	0.240	0.149
-648.784	-160.281	0.026	0.001
-647.770	-200.000	0.002	-0.334
-646.755	-154.804	0.196	-0.013
-645.741	-109.804	-0.096	-0.020
-644.726	235.766	0.173	-0.286
-643.711	-200.000	0.008	-0.296
-642.697	-61.838	-0.163	-0.068
-641.682	-6.227	0.077	-0.053
-640.668	94.117	0.308	-0.350
-639.653	107.129	-0.147	-0.175
-638.638	-200.000	0.033	-0.369
-637.624	5.350	0.471	-0.348
-636.609	36.162	0.054	-0.048
-635.595	235.068	0.084	0.139
-634.580	-54.970	-0.118	0.053
-633.565	-114.857	0.533	-0.102
-632.551	36.879	-0.160	0.142
-631.536	-200.000	0.007	-0.242
-630.522	-147.311	-0.161	0.014
-629.507	-200.000	0.008	0.042
-628.492	800.000	0.050	-0.185
-627.478	-68.147	-0.142	0.055
-626.463	65.328	0.060	-0.061
-625.449	-69.447	-0.099	0.038
-624.434	185.015	0.065	0.096
-623.419	142.562	-0.263	-0.350
-622.405	-42.669	0.275	0.140
-621.390	-134.604	-0.534	0.065
-620.376	-137.129	-0.162	0.018
-619.361	-75.865	-0.071	-0.025
-618.346	-200.000	-0.012	0.206
-617.332	-28.869	0.052	0.030
-616.317	564.476	-0.087	0.211
-615.303	-200.000	-0.053	-0.317
-614.288	800.000	-0.016	-0.049
-613.273	463.361	-0.042	0.094
-612.259	-116.393	-0.365	0.067
-611.244	-106.901	0.322	0.071
-610.230	-28.601	-0.299	-0.172
-609.215	136.982	0.083	-0.109
-608.201	-92.619	0.090	0.025
-607.186	-92.377	-0.059	-0.017
-606.171	417.491	0.123	-0.262
-605.157	-188.397	0.110	-0.001
-604.142	53.877	0.287	-0.276
-603.128	6.727	-0.023	0.017
-602.113	-96.560	0.446	-0.118
-601.098	-200.000	0.021	-0.335
-600.084	342.674	0.062	0.122
-599.069	-94.439	0.082	0.022
-598.055	114.267	-0.119	0.145
-597.040	-101.423	0.423	-0.103
-596.025	2.120	-0.264	0.191
-595.011	-200.000	0.006	-0.079
-593.996	-135.759	0.180	-0.021
-592.982	69.291	0.119	0.122
-591.967	66.906	-0.054	-0.055
-590.952	-200.000	0.012	-0.263
-589.938	627.105	0.108	-0.272
-588.923	7.211	-0.120	-0.089
-587.909	462.047	-0.103	-0.230
-586.894	800.000	-0.032	0.108
-585.879	227.529	-0.088	0.143
-584.865	-78.846	0.255	0.087
-583.850	-104.714	0.166	0.038
-582.836	-28.233	-0.035	-0.020
-581.821	800.000	0.021	-0.063
-580.806	-200.000	0.052	-0.265
-579.792	-200.000	0.003	-0.110
-578.777	-200.000	0.003	-0.069
-577.763	-200.000	0.033	-0.192
-576.748	2.128	-0.252	0.182
-575.733	-200.000	0.023	0.127
-574.719	-153.360	0.244	-0.017
-573.704	-96.240	0.047	0.012
-572.690	800.000	-0.051	0.182
-571.675	471.527	-0.036	0.081
-570.661	800.000	0.051	0.213
-569.646	-200.000	0.020	0.000
-568.631	155.338	0.058	0.079
-567.617	322.854	-0.116	0.221
-566.602	-18.530	-0.208	0.130
-565.588	-24.233	0.200	-0.119
-564.573	-200.000	0.004	0.165
-563.558	-168.310	-0.195	-0.008
-562.544	-86.051	-0.350	0.108
-561.529	123.714	0.079	0.099
-560.515	25.442	0.301	0.250
-559.500	-200.000	0.010	-0.056
-558.485	197.642	-0.252	-0.384
-557.471	-98.627	-0.354	-0.090
-556.456	310.964	0.050	-0.094
-555.442	-200.000	-0.017	0.508
-554.427	80.785	-0.207	0.222
-553.412	-200.000	0.051	0.592
-552.398	-52.552	-0.086	-0.040
-551.383	-200.000	0.101	-0.539
-550.369	-115.542	0.146	-0.027
-549.354	-102.541	0.360	0.086
-548.339	-91.944	-0.406	0.115
-547.325	-62.174	-0.222	-0.092
-546.310	246.941	-0.158	0.266
-545.296	147.110	-0.046	0.061
-544.281	-72.854	-0.157	0.057
-543.266	66.770	0.175	-0.178
-542.252	800.000	-0.067	0.234
-541.237	-200.000	-0.016	-0.194
-540.223	-186.162	-0.217	-0.003
-539.208	22.415	0.206	-0.168
-538.193	330.281	-0.120	-0.230
-537.179	24.940	-0.148	-0.122
-536.164	-186.430	0.184	0.003
-535.150	153.417	0.043	-0.059
-534.135	-65.026	0.069	-0.028
-533.121	-108.891	-0.090	0.019
-532.106	-77.324	-0.236	0.082
-531.091	204.991	-0.021	-0.033
-530.077	-103.648	0.175	0.041
-529.062	-112.238	0.197	0.039
-528.048	-200.000	0.009	0.076
-527.033	800.000	-0.109	-0.392
-526.018	271.601	0.024	-0.042
-525.004	569.528	-0.104	0.251
-523.989	-120.527	-0.428	0.072
-522.975	800.000	-0.062	0.259
-521.960	-35.948	-0.178	0.096
-520.945	-132.589	-0.228	-0.029
-519.931	800.000	-0.099	0.298
-518.916	186.140	0.023	0.035
-517.902	-200.000	-0.379	-0.001
-516.887	-106.157	-0.328	-0.073
-515.872	-69.685	-0.125	0.048
-514.858	73.556	0.164	-0.171
-513.843	133.960	0.167	0.216
-512.829	-101.137	-0.345	0.084
-511.814	26.819	0.085	-0.071
-510.799	-140.223	-0.028	0.003
-509.785	-65.688	0.144	-0.058
-508.770	-109.179	-0.298	-0.063
-507.756	376.182	0.064	-0.130
-506.741	68.168	-0.131	-0.133
-505.726	-200.000	-0.011	-0.545
-504.712	-174.764	0.139	0.004
-503.697	-200.000	-0.020	-0.115
-502.683	-15.795	-0.118	0.075
-501.668	-92.765	-0.114	0.032
-500.653	-146.202	0.136	0.012
-499.639	-200.000	0.015	-0.120
-498.624	-14.549	-0.027	0.017
-497.610	72.995	-0.272	0.283
-496.595	-200.000	-0.008	-0.208
-495.581	-152.854	0.151	0.011
-494.566	-44.645	-0.070	0.035
-493.551	-13.968	0.053	-0.034
-492.537	-44.161	-0.144	-0.072
-491.522	-141.001	0.072	0.007
-490.508	96.290	-0.126	-0.143
-489.493	49.612	-0.126	0.118
-488.478	-6.604	0.180	-0.122
-487.464	-200.000	0.014	0.212
-486.449	-200.000	-0.024	0.254
-485.435	-92.027	-0.255	-0.072
-484.420	786.438	0.140	0.383
-483.405	9.067	-0.290	0.218
-482.391	68.971	0.164	0.167
-481.376	91.766	-0.038	0.043
-480.362	800.000	-0.056	-0.186
-479.347	-59.713	-0.214	0.091
-478.332	-200.000	-0.064	0.308
-477.318	42.417	-0.103	0.093
-476.303	-12.603	-0.215	-0.139
-475.289	-197.578	-0.356	0.002
-474.274	-200.000	0.025	0.145
-473.259	-200.000	-0.008	-0.149
-472.245	-200.000	0.043	0.233
-471.230	798.300	-0.032	-0.088
-470.216	629.116	-0.078	-0.195
-469.201	57.448	-0.143	-0.139
-468.186	-12.929	-0.221	-0.143
-467.172	800.000	-0.112	0.320
-466.157	-2.345	-0.195	0.136
-465.143	-200.000	-0.004	-0.047
-464.128	-78.321	-0.217	-0.074
-463.113	-122.279	0.297	-0.048
-462.099	-46.928	0.426	0.207
-461.084	-26.040	-0.162	0.095
-460.070	-200.000	0.010	-0.070
-459.055	-78.547	-0.495	0.168
-458.040	-128.378	0.370	-0.052
-457.026	-200.000	-0.045	0.303
-456.011	-33.233	-0.047	-0.026
-454.997	-200.000	0.022	0.226
-453.982	-41.580	0.128	0.066
-452.968	-151.018	-0.159	-0.012
-451.953	-160.600	-0.113	0.006
-450.938	100.922	0.099	0.114
-449.924	-159.980	0.368	0.020
-448.909	-39.544	0.099	-0.052
-447.895	-135.076	0.398	-0.048
-446.880	-182.727	-0.456	-0.008
-445.865	-31.424	0.149	0.083
-444.851	-16.223	0.184	0.116
-443.836	-83.763	0.231	0.073
-442.822	800.000	0.074	0.251
-441.807	-103.850	-0.101	-0.024
-440.792	-200.000	0.018	0.223
-439.778	-127.751	0.070	-0.010
-438.763	97.475	-0.171	-0.195
-437.749	-21.271	-0.148	-0.090
-436.734	-51.975	0.209	-0.096
-435.719	-151.238	0.275	-0.020
-434.705	-5.409	0.177	0.121
-433.690	-97.907	0.289	-0.074
-432.676	-5.120	0.263	-0.180
-431.661	-200.000	-0.015	-0.155
-430.646	-127.261	-0.120	0.017
-429.632	311.268	-0.130	0.242
-428.617	-136.342	0.231	-0.027
-427.603	800.000	-0.021	-0.084
-426.588	-39.431	0.316	-0.164
-425.573	-57.136	0.082	0.036
-424.559	-200.000	-0.026	0.166
-423.544	553.255	0.014	0.033
-422.530	-17.238	0.107	0.067
-421.515	-27.318	-0.052	-0.030
-420.500	-58.402	0.212	0.091
-419.486	-66.176	-0.212	0.084
-418.471	-28.002	0.207	-0.119
-417.457	800.000	0.028	-0.115
-416.442	-200.000	0.195	-0.001
-415.428	-200.000	-0.011	0.081
-414.413	-200.000	0.000	-0.018
-413.398	-200.000	-0.018	-0.122
-412.384	590.865	-0.095	-0.232
-411.369	154.243	-0.063	-0.086
-410.355	-200.000	-0.064	-0.341
-409.340	-32.558	0.280	0.155
-408.325	-200.000	-0.032	0.208
-407.311	-200.000	-0.010	-0.428
-406.296	-154.793	0.279	-0.018
-405.282	800.000	0.065	-0.263
-404.267	348.080	-0.158	-0.310
-403.252	-123.053	-0.458	-0.073
-402.238	-71.452	0.026	-0.010
-401.223	462.118	0.108	-0.239
-400.209	-81.520	0.146	0.048
-399.194	-81.273	0.219	-0.072
-398.179	-14.789	-0.201	-0.128
-397.165	84.353	-0.062	0.067
-396.150	85.247	0.135	-0.147
-395.136	176.675	-0.117	-0.168
-394.121	-101.988	0.291	-0.070
-393.106	-104.774	-0.281	0.064
-392.092	81.394	-0.110	-0.118
-391.077	-18.084	-0.349	0.217
-390.063	-200.000	0.006	0.249
-389.048	-34.702	0.093	0.051
-388.033	-200.000	0.011	0.062
-387.019	101.758	0.305	0.352
-386.004	93.358	0.025	0.028
-384.990	-200.000	0.027	0.202
-383.975	-38.211	0.435	0.229
-382.960	116.105	0.141	-0.171
-381.946	262.620	0.176	-0.303
-380.931	94.679	-0.196	-0.221
-379.917	-59.591	-0.055	-0.023
-378.902	-97.205	-0.170	0.044
-377.888	52.682	-0.370	0.350
-376.873	-200.000	-0.012	-0.150
-375.858	800.000	-0.056	-0.180
-374.844	-200.000	0.009	0.057
-373.829	62.816	-0.088	0.087
-372.815	-141.182	0.164	-0.017
-371.800	74.295	0.354	-0.368
-370.785	169.000	-0.313	-0.442
-369.771	123.372	0.160	0.199
-368.756	-162.698	0.170	-0.008
-367.742	-82.717	-0.111	0.036
-366.727	-27.642	-0.084	0.048
-365.712	117.603	-0.265	0.323
-364.698	-200.000	0.046	-0.239
-363.683	-135.250	-0.225	-0.027
-362.669	506.480	-0.057	-0.131
-361.654	800.000	0.040	-0.133
-360.639	24.673	0.169	0.138
-359.625	-200.000	0.027	-0.339
-358.610	134.540	0.186	-0.239
-357.596	309.514	-0.183	0.339
-356.581	222.754	-0.064	-0.103
-355.566	-200.000	-0.017	-0.248
-354.552	-65.818	0.053	0.021
-353.537	322.155	0.221	-0.416
-352.523	800.000	0.057	0.164
-351.508	-28.145	-0.261	-0.150
-350.493	-84.590	-0.150	0.047
-349.479	-200.000	0.017	0.215
-348.464	-77.912	0.243	-0.083
-347.450	101.075	0.009	0.011
-346.435	24.532	-0.167	-0.137
-345.420	-200.000	0.011	-0.167
-344.406	-200.000	0.019	0.181
-343.391	-60.467	-0.180	-0.076
-342.377	-77.952	-0.304	-0.104
-341.362	61.932	0.278	-0.274
-340.348	-56.892	0.040	0.018
-339.333	7.370	0.183	0.135
-338.318	-90.172	-0.231	-0.067
-337.304	-200.000	-0.006	-0.052
-336.289	-16.954	-0.289	-0.181
-335.275	-158.189	0.235	0.014
-334.260	800.000	-0.094	0.276
-333.245	-113.014	0.211	-0.041
-332.231	-127.044	-0.403	-0.058
-331.216	-118.198	0.187	-0.033
-330.202	235.650	-0.042	-0.068
-329.187	-148.320	0.193	0.016
-328.172	-86.365	-0.067	0.020
-327.158	3.436	0.162	0.117
-326.143	-39.218	-0.247	-0.129
-325.129	130.085	0.259	-0.328
-324.114	88.611	-0.041	-0.045
-323.099	-7.424	-0.294	-0.197
-322.085	-179.961	-0.390	0.008
-321.070	126.803	0.119	-0.149
-320.056	-153.664	0.334	0.023
-319.041	4.802	-0.206	0.149
-318.026	119.425	0.182	-0.223
-317.012	-178.309	0.037	0.001
-315.997	-200.000	0.017	0.163
-314.983	800.000	-0.034	-0.099
-313.968	-65.360	-0.141	-0.056
-312.953	-26.962	0.039	-0.022
-311.939	-200.000	-0.039	0.285
-310.924	69.214	0.077	0.078
-309.910	-200.000	0.012	0.244
-308.895	218.547	-0.085	-0.134
-307.880	22.060	-0.069	0.056
-306.866	-2.173	0.109	0.076
-305.851	38.037	-0.113	0.099
-304.837	-200.000	-0.018	0.315
-303.822	-200.000	-0.044	0.236
-302.807	-37.719	-0.312	-0.164
-301.793	-200.000	-0.001	0.232
-300.778	473.843	0.114	0.253
-299.764	-0.894	-0.151	0.106
-298.749	586.776	0.107	0.259
-297.735	800.000	0.098	-0.371
-296.720	4.716	-0.059	-0.043
-295.705	-200.000	0.001	0.120
-294.691	-148.051	-0.185	-0.015
-293.676	134.889	0.165	-0.212
-292.662	-114.329	0.456	0.087
-291.647	-99.425	0.122	-0.030
-290.632	-98.578	0.281	0.071
-289.618	-129.837	0.104	0.014
-288.603	-200.000	0.002	-0.008
-287.589	800.000	0.084	0.304
-286.574	11.157	-0.126	0.095
-285.559	-200.000	-0.001	-0.034
-284.545	521.991	-0.017	-0.039
-283.530	-200.000	0.031	-0.251
-282.516	-200.000	-0.017	-0.265
-281.501	800.000	0.118	0.373
-280.486	-118.071	-0.113	0.020
-279.472	104.597	-0.077	0.089
-278.457	-88.329	0.209	-0.062
-277.443	-200.000	-0.030	-0.266
-276.428	-200.000	0.011	0.067
-275.413	-200.000	-0.006	0.127
-274.399	-105.643	0.273	-0.061
-273.384	-200.000	0.054	0.309
-272.370	-152.904	0.155	0.011
-271.355	-200.000	-0.054	0.261
-270.340	122.589	0.109	0.134
-269.326	78.039	-0.292	-0.308
-268.311	-200.000	-0.011	0.120
-267.297	40.187	-0.174	0.154
-266.282	-108.569	-0.323	0.068
-265.267	114.967	-0.140	-0.169
-264.253	-81.449	-0.273	-0.089
-263.238	800.000	0.098	0.345
-262.224	-59.094	0.152	-0.065
-261.209	232.879	0.228	-0.369
-260.195	-85.952	-0.093	-0.028
-259.180	65.186	0.227	0.226
-258.165	-160.855	0.381	0.020
-257.151	-95.269	0.224	-0.060
-256.136	-90.186	0.376	0.108
-255.122	800.000	-0.098	0.273
-254.107	-16.100	-0.251	0.158
-253.092	79.503	-0.057	-0.061
-252.078	-76.581	-0.291	0.101
-251.063	95.386	0.063	0.071
-250.049	148.112	-0.055	0.073
-249.034	-103.819	0.174	-0.040
-248.019	-3.341	0.214	-0.147
-247.005	-200.000	-0.057	-0.287
-245.990	-38.506	0.264	-0.137
-244.976	606.481	-0.044	0.109
-243.961	-86.493	-0.214	0.065
-242.946	-200.000	-0.011	0.282
-241.932	271.554	0.135	-0.235
-240.917	-166.668	-0.292	0.012
-239.903	-200.000	-0.028	0.168
-238.888	57.884	-0.313	-0.302
-237.873	99.749	-0.097	-0.111
-236.859	-200.000	0.282	0.001
-235.844	-170.925	0.094	-0.003
-234.830	-152.219	0.257	-0.018
-233.815	-30.925	-0.291	-0.162
-232.800	-76.013	-0.137	-0.048
-231.786	-43.192	0.343	0.171
-230.771	420.149	-0.115	0.244
-229.757	539.919	-0.064	0.150
-228.742	9.628	0.236	-0.176
-227.727	-5.287	-0.254	0.172
-226.713	572.087	0.073	0.175
-225.698	-101.495	-0.262	-0.063
-224.684	622.841	-0.150	-0.373
-223.669	800.000	-0.037	0.131
-222.655	-10.555	0.269	0.176
-221.640	48.018	-0.117	-0.108
-220.625	236.662	-0.045	0.074
-219.611	44.135	-0.101	-0.091
-218.596	335.603	-0.153	0.293
-217.582	152.099	-0.028	0.038
-216.567	-103.698	0.163	0.038
-215.552	-200.000	0.008	0.195
-214.538	-109.786	0.385	-0.080
-213.523	800.000	0.042	-0.160
-212.509	68.276	0.200	0.202
-211.494	251.421	0.113	0.189
-210.479	-42.233	0.023	0.011
-209.465	222.858	-0.035	0.056
-208.450	1.924	-0.072	0.051
-207.436	797.551	0.023	-0.062
-206.421	585.663	0.212	0.512
-205.406	70.020	-0.089	-0.090
-204.392	-200.000	-0.031	-0.151
-203.377	51.876	0.193	-0.181
-202.363	800.000	0.064	0.191
-201.348	-10.973	0.562	0.365
-200.333	800.000	-0.041	0.163
-199.319	-157.949	0.186	0.011
-198.304	-68.711	0.223	-0.085
-197.290	-49.251	-0.194	-0.091
-196.275	400.278	0.101	-0.208
-195.260	-200.000	-0.020	0.240
-194.246	-140.308	0.282	0.029
-193.231	-117.180	0.087	-0.016
-192.217	800.000	0.069	0.224
-191.202	-0.891	-0.256	-0.179
-190.187	-40.750	-0.096	0.049
-189.173	-2.779	0.175	-0.120
-188.158	-12.485	0.058	0.037
-187.144	20.793	-0.311	-0.248
-186.129	-200.000	-0.014	-0.135
-185.114	119.362	-0.043	-0.053
-184.100	90.211	-0.114	-0.125
-183.085	-58.030	-0.160	-0.069
-182.071	124.752	-0.144	0.178
-181.056	88.774	-0.328	-0.359
-180.042	800.000	0.084	-0.260
-179.027	800.000	-0.038	0.130
-178.012	-127.863	0.306	0.043
-176.998	-155.768	0.190	-0.012
-175.983	-200.000	0.030	-0.194
-174.969	-189.994	0.535	0.006
-173.954	160.466	-0.134	0.184
-172.939	-95.400	0.167	0.044
-171.925	-16.802	-0.185	0.115
-170.910	-4.823	-0.114	0.077
-169.896	0.720	0.181	0.127
-168.881	-200.000	-0.048	-0.388
-167.866	-200.000	0.007	0.040
-166.852	101.366	0.145	0.166
-165.837	-157.600	-0.334	0.020
-164.823	327.741	-0.106	0.201
-163.808	66.353	-0.055	-0.055
-162.793	99.769	-0.284	0.323
-161.779	247.407	0.128	-0.213
-160.764	507.424	0.143	0.326
-159.750	800.000	0.108	0.424
-158.735	-200.000	-0.036	0.200
-157.720	119.090	0.071	-0.086
-156.706	-187.756	0.296	0.004
-155.691	-62.599	-0.223	0.091
-154.677	-81.680	-0.166	0.054
-153.662	19.828	-0.141	0.111
-152.647	-133.999	-0.368	0.045
-151.633	111.465	-0.123	-0.146
-150.618	800.000	0.023	0.095
-149.604	-88.985	-0.195	-0.057
-148.589	-111.174	-0.132	0.027
-147.574	4.188	-0.228	0.164
-146.560	204.729	-0.120	0.183
-145.545	90.186	-0.164	-0.180
-144.531	-200.000	-0.001	0.234
-143.516	26.922	-0.267	-0.220
-142.502	31.263	0.082	0.069
-141.487	-94.525	0.167	0.045
-140.472	-105.314	-0.176	0.039
-139.458	-32.809	-0.123	-0.067
-138.443	800.000	0.022	-0.080
-137.429	-200.000	-0.011	-0.057
-136.414	-86.952	0.467	-0.140
-135.399	298.682	0.140	-0.253
-134.385	30.601	-0.102	0.086
-133.370	-109.991	0.427	-0.088
-132.356	-101.465	0.266	-0.063
-131.341	207.629	-0.044	0.067
-130.326	175.209	0.131	-0.186
-129.312	-197.781	-0.191	-0.001
-128.297	-14.386	-0.218	-0.138
-127.283	15.473	0.219	-0.169
-126.268	463.154	-0.095	0.207
-125.253	-144.947	0.180	0.016
-124.239	-77.377	0.079	0.027
-123.224	35.143	0.311	0.267
-122.210	800.000	-0.015	0.041
-121.195	-200.000	0.041	0.261
-120.180	83.187	-0.343	0.366
-119.166	-80.443	-0.151	0.049
-118.151	-200.000	-0.003	-0.369
-117.137	322.034	-0.118	-0.221
-116.122	800.000	0.066	-0.252
-115.107	-134.259	0.028	-0.003
-114.093	-156.793	0.176	0.011
-113.078	-200.000	-0.041	0.303
-112.064	-143.294	0.189	0.018
-111.049	497.727	-0.135	0.305
-110.034	-200.000	-0.035	0.178
-109.020	421.444	0.076	0.160
-108.005	352.919	0.064	0.124
-106.991	86.809	0.271	0.294
-105.976	185.100	0.118	0.172
-104.962	-55.655	0.090	0.039
-103.947	642.531	0.128	0.321
-102.932	-38.757	-0.114	0.059
-101.918	426.135	-0.042	0.089
-100.903	-65.584	0.112	-0.044
-99.889	68.870	-0.098	-0.099
-98.874	-170.472	-0.263	-0.009
-97.859	-26.355	-0.154	0.088
-96.845	18.638	0.106	-0.083
-95.830	150.939	-0.146	-0.194
-94.816	800.000	0.026	0.086
-93.801	122.290	-0.031	0.038
-92.786	-27.604	0.096	-0.055
-91.772	126.641	0.250	0.310
-90.757	-70.231	0.238	0.089
-89.743	-97.080	-0.264	-0.068
-88.728	-93.527	0.317	0.086
-87.713	292.208	0.143	-0.255
-86.699	355.354	-0.167	-0.325
-85.684	-188.747	-0.095	0.001
-84.670	106.993	0.176	-0.205
-83.655	-200.000	0.018	-0.078
-82.640	800.000	-0.048	0.176
-81.626	-145.179	-0.071	-0.006
-80.611	-200.000	0.001	-0.117
-79.597	800.000	0.040	-0.116
-78.582	800.000	0.053	0.147
-77.567	-70.846	-0.051	0.019
-76.553	-200.000	0.028	0.246
-75.538	11.142	-0.100	-0.075
-74.524	-200.000	-0.034	-0.158
-73.509	-200.000	-0.021	0.191
-72.494	315.925	0.079	-0.146
-71.480	64.022	0.048	-0.047
-70.465	627.000	-0.052	0.129
-69.451	-121.953	0.151	0.024
-68.436	47.718	0.260	-0.238
-67.422	800.000	-0.045	0.173
-66.407	800.000	-0.125	-0.389
-65.392	-43.758	-0.209	0.103
-64.378	232.474	0.116	0.187
-63.363	214.991	-0.067	-0.104
-62.349	-15.755	-0.322	0.201
-61.334	125.991	-0.932	-1.153
-60.319	194.735	0.344	0.511
-59.305	220.545	-0.631	-0.990
-58.290	464.338	0.514	1.124
-57.276	538.921	0.780	1.816
-56.261	-200.000	110.803	625.486
-55.246	520.745	1509.437	3464.139
-54.232	177.012	2698.911	3843.052
-53.217	104.957	2283.074	2634.876
-52.203	38.494	1893.912	1652.080
-51.188	32.676	1684.285	1425.322
-50.173	30.047	1641.269	1369.467
-49.159	49.320	1697.970	1562.299
-48.144	49.523	1711.780	1576.472
-47.130	32.204	1668.396	1408.115
-46.115	29.501	1654.302	1376.049
-45.100	29.389	1648.480	1370.318
-44.086	29.350	1646.529	1368.357
-43.071	29.247	1643.772	1365.246
-42.057	29.285	1641.227	1363.357
-41.042	29.261	1639.369	1361.583
-40.027	29.307	1637.423	1360.258
-39.013	29.217	1635.478	1357.925
-37.998	29.221	1634.509	1357.097
-36.984	29.339	1632.736	1356.438
-35.969	29.481	1630.716	1355.745
-34.954	29.530	1629.175	1354.772
-33.940	29.465	1627.584	1352.915
-32.925	29.472	1626.039	1351.628
-31.911	29.449	1624.133	1349.828
-30.896	29.383	1622.681	1348.083
-29.881	29.385	1621.335	1346.925
-28.867	29.394	1619.367	1345.301
-27.852	29.417	1618.657	1344.824
-26.838	29.371	1616.871	1342.956
-25.823	29.416	1615.395	1342.004
-24.809	29.480	1613.628	1340.944
-23.794	29.391	1612.878	1339.624
-22.779	29.385	1611.458	1338.348
-21.765	29.358	1609.465	1336.445
-20.750	29.418	1607.514	1335.206
-19.736	29.437	1606.954	1334.822
-18.721	29.584	1604.724	1333.978
-17.706	29.529	1603.477	1332.497
-16.692	29.475	1602.217	1331.007
-15.677	29.476	1600.692	1329.689
-14.663	29.419	1599.533	1328.268
-13.648	29.531	1597.770	1327.557
-12.633	29.463	1596.552	1325.998
-11.619	29.441	1594.913	1324.430
-10.604	29.415	1593.820	1323.281
-9.590	29.502	1592.276	1322.571
-8.575	29.538	1590.791	1321.547
-7.560	29.449	1590.262	1320.415
-6.546	29.469	1588.918	1319.390
-5.531	29.279	1588.243	1317.422
-4.517	29.425	1586.382	1316.865
-3.502	29.394	1585.986	1316.259
-2.487	29.550	1583.607	1315.344
-1.473	29.099	1571.869	1302.354
-0.458	25.890	1552.129	1263.495
0.556	23.227	1552.410	1229.613
1.571	20.622	1575.640	1229.515
2.586	20.098	1588.500	1235.701
3.600	17.679	1534.156	1176.643
4.615	10.409	1427.674	1048.018
5.629	4.322	1367.013	965.610
6.644	3.365	1359.691	954.428
7.659	3.308	1358.330	953.033
8.673	3.344	1357.479	952.575
9.688	3.343	1355.835	951.330
10.702	3.312	1353.164	949.185
11.717	6.077	1357.613	969.296
12.731	13.703	1371.752	1026.680
13.746	19.786	1382.025	1072.104
14.761	20.954	1382.364	1079.510
15.775	20.283	1380.182	1073.561
16.790	19.214	1377.926	1065.109
17.804	18.346	1375.493	1057.771
18.819	18.061	1374.373	1055.058
19.834	17.858	1373.354	1052.931
20.848	17.671	1372.273	1050.854
21.863	17.544	1371.010	1049.010
22.877	17.450	1369.935	1047.518
23.892	17.531	1368.685	1046.966
24.907	17.344	1368.296	1045.431
25.921	17.398	1367.388	1044.972
26.936	17.497	1366.134	1044.533
27.950	17.519	1365.180	1043.840
28.965	17.663	1363.988	1043.720
29.980	17.645	1363.350	1043.033
30.994	17.703	1362.139	1042.366
32.009	17.775	1361.188	1041.989
33.023	17.784	1360.006	1041.043
34.038	17.738	1358.315	1039.379
35.053	17.559	1356.985	1037.177
36.067	17.620	1356.225	1036.874
37.082	17.578	1355.345	1035.855
38.096	17.713	1353.954	1035.523
39.111	17.676	1353.677	1034.992
40.126	17.567	1352.633	1033.441
41.140	17.355	1351.605	1031.283
42.155	17.215	1351.031	1029.900
43.169	17.167	1350.703	1029.269
44.184	17.229	1350.325	1029.267
45.199	17.219	1349.855	1028.758
46.213	17.278	1349.533	1028.780
47.228	17.562	1348.580	1029.674
48.242	17.586	1347.621	1029.000
49.257	17.545	1346.109	1027.507
50.271	17.503	1344.499	1025.931
51.286	17.580	1343.309	1025.398
52.301	17.507	1342.102	1023.947
53.315	17.457	1340.454	1022.301
54.330	17.219	1340.143	1020.541
55.344	17.221	1338.717	1019.377
56.359	17.340	1337.068	1018.748
57.374	17.336	1336.696	1018.349
58.388	17.145	1336.165	1016.712
59.403	17.142	1335.157	1015.835
60.417	17.168	1334.617	1015.486
61.432	17.133	1333.778	1014.554
62.447	17.000	1332.618	1012.787
63.461	16.941	1331.362	1011.388
64.476	16.938	1330.611	1010.713
65.490	16.995	1329.123	1009.833
66.505	16.970	1327.638	1008.466
67.520	16.992	1326.380	1007.552
68.534	17.055	1325.288	1007.006
69.549	17.116	1324.109	1006.381
70.563	17.108	1323.174	1005.535
71.578	16.862	1321.991	1003.089
72.593	16.792	1320.963	1001.812
73.607	16.835	1320.477	1001.607
74.622	16.952	1319.303	1001.321
75.636	16.887	1319.055	1000.658
76.651	16.902	1318.537	1000.262
77.666	16.962	1317.833	999.998
78.680	16.960	1318.071	1000.078
79.695	16.925	1317.297	999.193
80.709	17.147	1316.354	999.696
81.724	17.387	1315.198	1000.139
82.739	17.297	1314.693	999.142
83.753	17.420	1314.028	999.270
84.768	17.545	1312.744	998.940
85.782	17.676	1311.822	998.914
86.797	17.636	1311.036	997.996
87.812	17.588	1309.240	996.260
88.826	17.428	1308.620	994.764
89.841	17.526	1307.211	994.176
90.855	17.658	1306.720	994.486
91.870	17.678	1305.849	993.848
92.884	17.667	1305.041	993.084
93.899	17.798	1304.194	993.115
94.914	17.853	1303.184	992.577
95.928	17.858	1302.542	992.027
96.943	17.728	1301.693	990.537
97.957	17.710	1300.448	989.400
98.972	17.625	1300.101	988.557
99.987	17.635	1298.929	987.635
101.001	17.553	1297.508	985.991
102.016	17.611	1296.567	985.528
103.030	17.657	1295.604	984.969
104.045	17.614	1295.196	984.325
105.060	17.574	1293.555	982.762
106.074	17.296	1291.795	979.734
107.089	17.117	1290.632	977.735
108.103	17.077	1289.505	976.568
109.118	17.133	1287.912	975.592
110.133	17.119	1286.550	974.395
111.147	17.049	1285.562	973.158
112.162	17.242	1284.057	973.041
113.176	17.235	1283.203	972.266
114.191	17.298	1282.051	971.671
115.206	17.207	1281.163	970.389
116.220	17.279	1279.981	969.821
117.235	17.224	1278.911	968.609
118.249	17.119	1277.788	967.074
119.264	17.151	1276.169	965.946
120.279	17.061	1275.273	964.670
121.293	17.145	1274.361	964.375
122.308	17.031	1273.130	962.711
123.322	16.846	1272.718	961.263
124.337	16.866	1271.128	960.088
125.352	16.941	1270.182	959.716
126.366	16.956	1268.840	958.703
127.381	16.948	1267.837	957.812
128.395	16.926	1267.218	957.137
129.410	16.975	1266.152	956.521
130.424	17.125	1265.073	956.471
131.439	17.064	1264.907	955.917
132.454	17.131	1263.954	955.489
133.468	17.172	1262.899	954.838
134.483	17.270	1262.169	954.750
135.497	17.210	1261.369	953.722
136.512	17.247	1259.870	952.714
137.527	17.242	1258.525	951.584
138.541	17.248	1257.254	950.572
139.556	17.270	1256.125	949.755
140.570	17.359	1255.246	949.508
141.585	17.477	1253.935	949.087
142.600	17.652	1252.637	948.994
143.614	17.706	1251.845	948.615
144.629	17.660	1251.378	947.920
145.643	17.617	1250.095	946.622
146.658	17.536	1248.700	945.035
147.673	17.482	1247.193	943.510
148.687	17.270	1246.100	941.425
149.702	17.226	1244.828	940.141
150.716	17.331	1242.971	939.232
151.731	17.282	1242.266	938.349
152.746	17.280	1241.373	937.579
153.760	17.380	1239.844	936.891
154.775	17.506	1238.961	936.836
155.789	17.579	1237.672	936.178
156.804	17.523	1236.840	935.161
157.819	17.608	1235.856	934.797
158.833	17.705	1235.117	934.686
159.848	17.822	1234.046	934.435
160.862	17.748	1233.143	933.266
161.877	17.449	1232.495	931.057
162.892	17.456	1230.812	929.743
163.906	17.446	1229.979	928.977
164.921	17.390	1228.783	927.685
165.935	17.412	1228.339	927.387
166.950	17.503	1228.129	927.643
167.964	17.524	1227.283	927.037
168.979	17.459	1226.348	925.892
169.994	17.547	1225.092	925.341
171.008	17.520	1224.673	924.797
172.023	17.680	1223.830	924.949
173.037	17.712	1223.841	925.046
174.052	17.642	1223.065	923.998
175.067	17.501	1221.333	921.846
176.081	17.334	1220.249	920.041
177.096	17.428	1219.630	920.002
178.110	17.393	1218.679	919.016
179.125	17.436	1216.978	917.879
180.140	17.480	1216.230	917.473
181.154	17.539	1214.623	916.496
182.169	17.804	1213.403	916.919
183.183	17.737	1212.960	916.144
184.198	17.773	1211.628	915.252
185.213	17.815	1210.353	914.430
186.227	17.881	1209.479	914.042
187.242	17.892	1208.512	913.290
188.256	17.935	1207.552	912.714
189.271	17.979	1206.834	912.325
190.286	17.598	1205.780	909.417
191.300	17.499	1204.344	907.724
192.315	17.318	1203.679	906.178
193.329	17.266	1203.732	905.858
194.344	17.553	1202.370	906.284
195.359	17.667	1201.852	906.421
196.373	17.632	1201.276	905.721
197.388	17.861	1200.899	906.570
198.402	18.047	1200.679	907.309
199.417	18.111	1199.885	906.973
200.432	18.260	1199.121	907.103
201.446	18.179	1198.912	906.434
202.461	18.156	1198.218	905.710
203.475	18.316	1196.433	905.124
204.490	18.038	1195.516	902.884
205.504	17.953	1193.894	901.130
206.519	17.862	1192.892	899.811
207.534	17.927	1191.639	899.132
208.548	17.910	1190.836	898.355
209.563	17.991	1189.795	897.920
210.577	17.922	1189.379	897.164
211.592	18.011	1188.999	897.263
212.607	18.100	1187.754	896.710
213.621	18.089	1187.043	896.037
214.636	18.104	1185.742	895.055
215.650	18.113	1184.927	894.405
216.665	18.294	1184.411	894.882
217.680	18.256	1184.009	894.304
218.694	18.454	1182.585	894.183
219.709	18.321	1182.142	893.075
220.723	18.290	1180.847	891.853
221.738	18.298	1180.232	891.354
222.753	18.241	1179.978	890.788
223.767	18.308	1179.045	890.349
224.782	18.413	1178.763	890.607
225.796	18.513	1177.544	890.124
226.811	18.372	1177.276	889.114
227.826	18.386	1176.461	888.488
228.840	18.250	1175.473	886.958
229.855	18.265	1174.830	886.476
230.869	18.308	1174.146	886.103
231.884	18.310	1172.750	884.979
232.899	18.157	1172.091	883.614
233.913	18.194	1171.167	883.031
234.928	18.041	1170.719	881.828
235.942	18.103	1169.760	881.344
236.957	18.082	1168.962	880.557
237.972	18.208	1167.932	880.353
238.986	18.103	1167.592	879.479
240.001	18.087	1167.151	878.988
241.015	18.204	1166.185	878.783
242.030	18.373	1165.427	879.002
243.045	18.391	1164.736	878.495
244.059	18.428	1163.958	878.019
245.074	18.404	1163.155	877.210
246.088	18.345	1162.768	876.538
247.103	18.545	1161.833	876.780
248.117	18.621	1161.555	876.883
249.132	18.818	1160.688	877.155
250.147	18.955	1160.335	877.510
251.161	19.137	1159.471	877.709
252.176	19.068	1158.628	876.640
253.190	19.122	1158.313	876.601
254.205	19.067	1157.989	875.997
255.220	19.004	1157.525	875.245
256.234	19.174	1156.194	875.025
257.249	19.174	1155.488	874.416
258.263	19.236	1154.872	874.187
259.278	19.019	1154.571	872.783
260.293	19.020	1153.998	872.278
261.307	19.197	1153.437	872.670
262.322	19.161	1152.715	871.865
263.336	19.234	1151.744	871.425
264.351	19.242	1151.428	871.146
265.366	19.410	1149.971	870.814
266.380	19.315	1149.432	869.851
267.395	19.216	1149.061	868.993
268.409	19.092	1148.043	867.523
269.424	19.048	1147.579	866.872
270.439	19.105	1146.866	866.547
271.453	19.032	1146.291	865.665
272.468	18.997	1144.889	864.357
273.482	19.031	1144.067	863.828
274.497	19.046	1143.996	863.774
275.512	19.050	1143.100	863.041
276.526	19.033	1142.648	862.538
277.541	19.127	1141.926	862.387
278.555	19.046	1140.960	861.178
279.570	19.221	1140.381	861.539
280.585	19.371	1140.020	861.941
281.599	19.430	1138.823	861.252
282.614	19.289	1137.529	859.495
283.628	19.135	1136.653	857.990
284.643	19.147	1136.023	857.501
285.657	19.139	1135.343	856.872
286.672	19.158	1134.051	855.912
287.687	19.263	1133.097	855.641
288.701	19.122	1132.731	854.586
289.716	19.209	1132.038	854.421
290.730	19.239	1131.031	853.732
291.745	19.243	1130.458	853.245
292.760	19.292	1129.784	852.904
293.774	19.379	1129.455	853.008
294.789	19.545	1128.575	853.092
295.803	19.591	1127.954	852.771
296.818	19.265	1127.590	850.811
297.833	19.265	1126.596	849.988
298.847	19.326	1125.623	849.475
299.862	19.294	1125.054	848.817
300.876	19.273	1124.559	848.264
301.891	19.424	1123.692	848.279
302.906	19.506	1122.914	848.020
303.920	19.695	1122.675	848.693
304.935	19.559	1122.346	847.699
305.949	19.769	1121.366	847.913
306.964	19.745	1120.524	847.084
307.979	19.781	1119.787	846.627
308.993	19.653	1119.044	845.366
310.008	19.631	1118.644	844.881
311.022	19.819	1117.621	844.950
312.037	19.768	1116.924	844.100
313.052	19.606	1115.606	842.239
314.066	19.484	1115.046	841.150
315.081	19.294	1113.831	839.234
316.095	19.466	1113.032	839.393
317.110	19.403	1112.612	838.697
318.125	19.353	1112.027	837.938
319.139	19.540	1110.484	837.610
320.154	19.472	1110.146	836.949
321.168	19.507	1109.902	836.860
322.183	19.467	1109.128	836.009
323.197	19.436	1109.009	835.695
324.212	19.494	1108.293	835.361
325.227	19.537	1107.503	834.903
326.241	19.586	1106.889	834.602
327.256	19.545	1106.224	833.827
328.270	19.469	1104.745	832.272
329.285	19.536	1104.295	832.186
330.300	19.541	1103.311	831.395
331.314	19.522	1102.485	830.606
332.329	19.545	1101.761	830.098
333.343	19.574	1100.391	829.133
334.358	19.682	1100.126	829.374
335.373	19.752	1099.506	829.171
336.387	19.821	1098.309	828.528
337.402	19.882	1097.225	827.928
338.416	19.726	1097.380	827.226
339.431	19.952	1096.437	827.520
340.446	20.017	1096.378	827.713
341.460	20.003	1096.015	827.297
342.475	20.076	1094.907	826.738
343.489	20.220	1094.002	826.667
344.504	20.186	1093.169	825.803
345.519	20.404	1092.008	825.891
346.533	20.261	1091.444	824.712
347.548	20.349	1091.095	824.790
348.562	20.295	1090.149	823.745
349.577	20.094	1089.215	822.017
350.592	19.957	1088.367	820.651
351.606	19.978	1087.170	819.777
352.621	19.960	1086.230	818.910
353.635	19.898	1086.087	818.436
354.650	19.930	1085.256	817.888
355.665	20.091	1084.158	817.750
356.679	19.960	1083.884	816.854
357.694	20.027	1083.584	816.868
358.708	20.275	1082.786	817.365
359.723	20.125	1082.126	816.090
360.738	20.209	1081.320	815.804
361.752	20.171	1080.864	815.210
362.767	20.159	1080.282	814.643
363.781	20.236	1079.937	814.671
364.796	20.436	1079.207	814.988
365.810	20.418	1078.635	814.399
366.825	20.590	1078.409	814.962
367.840	20.551	1078.062	814.442
368.854	20.736	1077.294	814.659
369.869	20.772	1076.550	814.192
370.883	20.577	1075.478	812.395
371.898	20.512	1074.579	811.343
372.913	20.574	1074.065	811.173
373.927	20.525	1073.969	810.799
374.942	20.600	1073.271	810.550
375.956	20.599	1072.846	810.155
376.971	20.576	1072.258	809.531
377.986	20.581	1071.935	809.237
379.000	20.845	1071.029	809.712
380.015	20.875	1070.469	809.355
381.029	20.887	1069.842	808.862
382.044	20.927	1069.155	808.458
383.059	20.833	1068.345	807.337
384.073	20.762	1067.679	806.437
385.088	20.946	1066.293	806.168
386.102	20.767	1065.887	804.963
387.117	20.706	1064.802	803.790
388.132	20.676	1063.984	802.962
389.146	20.621	1062.697	801.668
390.161	20.577	1062.672	801.372
391.175	20.632	1061.763	800.871
392.190	20.705	1061.444	800.898
393.205	20.825	1060.575	800.724
394.219	20.730	1060.103	799.859
395.234	20.724	1058.714	798.712
396.248	20.659	1057.922	797.744
397.263	20.710	1056.570	796.889
398.278	20.591	1055.957	795.812
399.292	20.586	1055.009	795.005
400.307	20.525	1054.604	794.349
401.321	20.445	1054.031	793.480
402.336	20.625	1053.139	793.560
403.350	20.567	1052.315	792.604
404.365	20.610	1051.793	792.338
405.380	20.727	1050.970	792.180
406.394	20.714	1050.627	791.794
407.409	20.810	1049.950	791.650
408.423	20.941	1049.302	791.687
409.438	21.052	1048.764	791.713
410.453	21.164	1047.936	791.526
411.467	21.211	1047.219	791.129
412.482	21.210	1046.627	790.607
413.496	21.094	1046.429	789.862
414.511	21.212	1045.865	789.899
415.526	21.267	1045.498	789.801
416.540	21.380	1045.074	789.921
417.555	21.464	1043.900	789.342
418.569	21.247	1043.755	788.187
419.584	21.169	1043.507	787.574
420.599	21.305	1042.846	787.621
421.613	155.553	1403.385	1796.481
422.628	142.417	1455.892	1796.579
