DTS Sentinel unit serial number:	SN413079Multiplexer serial number:	ORYXHardware model number:	OX4-SRSoftware version number:	ORYX F/W v4.00 Oryx Data Collector v3.7.2.0data status	okinstallation	princeton_trtdifferential loss correction	single-endedforward channel	channel 2reverse channel	N/Adate	2019/09/19time	00:35:35forward acquisition time	60.00reverse acquisition time	0.00gamma	496.2192k internal	0.2353k external	0.2353temperature offset calibration	1.0015default loss term (dB/km)	0.3790temperature slope calibration	1.0000multiplexer offset coefficient	1.0000multiplexer slope coefficient	1.0000fibre end	0.00T internal ref (°C)	22.37T ext. ref 1 (°C)	0.74T ext. ref 2 (°C)	15.40length (m)	temperature (°C)	Stokes	anti-Stokes-747.200	-19.320	0.011	-0.007
-746.185	-141.105	-0.162	0.016
-745.171	136.016	0.121	-0.158
-744.156	118.630	0.049	-0.061
-743.142	92.350	0.194	0.218
-742.127	-200.000	0.009	-0.168
-741.112	-200.000	0.020	-0.121
-740.098	800.000	-0.099	0.416
-739.083	-160.617	-0.178	-0.009
-738.069	-200.000	-0.011	-0.176
-737.054	26.142	0.408	0.339
-736.039	-50.003	-0.311	0.147
-735.025	-197.140	0.309	0.002
-734.010	-74.768	-0.427	-0.153
-732.996	-35.964	-0.122	-0.066
-731.981	36.688	-0.188	0.166
-730.966	-51.684	0.037	-0.017
-729.952	164.267	-0.189	0.266
-728.937	93.747	0.166	0.187
-727.923	279.587	-0.195	0.347
-726.908	88.283	-0.153	-0.169
-725.894	80.342	-0.263	-0.282
-724.879	-200.000	0.014	-0.121
-723.864	-109.008	-0.310	0.066
-722.850	-108.552	0.167	-0.036
-721.835	88.885	-0.190	-0.210
-720.821	221.662	0.283	0.454
-719.806	-147.213	-0.050	-0.004
-718.791	585.792	0.038	0.093
-717.777	-4.579	0.153	-0.105
-716.762	-92.585	-0.296	-0.083
-715.748	-59.324	0.187	-0.080
-714.733	718.291	-0.080	0.213
-713.718	800.000	-0.088	-0.289
-712.704	-200.000	-0.399	0.002
-711.689	69.020	-0.049	-0.050
-710.675	-58.738	0.146	0.063
-709.660	239.963	-0.082	-0.137
-708.645	-85.995	0.035	0.011
-707.631	-200.000	-0.001	0.356
-706.616	-200.000	-0.003	0.154
-705.602	-200.000	0.005	0.102
-704.587	800.000	-0.056	0.163
-703.572	51.701	0.027	0.026
-702.558	-196.732	0.330	-0.002
-701.543	-164.907	0.044	0.002
-700.529	598.748	-0.108	-0.266
-699.514	69.335	0.153	-0.156
-698.499	-200.000	-0.006	0.034
-697.485	161.147	0.185	-0.258
-696.470	-200.000	0.015	-0.117
-695.456	800.000	-0.031	-0.127
-694.441	109.717	-0.092	-0.110
-693.426	-68.208	0.094	-0.036
-692.412	36.263	0.138	0.121
-691.397	-58.793	-0.088	-0.038
-690.383	-17.429	-0.292	0.183
-689.368	-200.000	-0.006	0.181
-688.354	224.389	-0.115	-0.185
-687.339	-170.558	-0.305	0.011
-686.324	-200.000	0.009	-0.327
-685.310	-194.792	-0.194	0.002
-684.295	43.102	-0.075	-0.068
-683.281	-99.983	-0.328	0.081
-682.266	64.856	0.211	-0.212
-681.251	204.207	0.237	-0.366
-680.237	47.062	-0.128	-0.118
-679.222	800.000	-0.066	-0.237
-678.208	236.152	-0.154	-0.253
-677.193	-44.734	0.389	-0.193
-676.178	69.397	-0.217	-0.223
-675.164	80.580	-0.356	-0.382
-674.149	76.678	-0.066	-0.070
-673.135	800.000	-0.020	-0.070
-672.120	31.125	-0.216	-0.184
-671.105	-200.000	-0.017	0.514
-670.091	293.305	0.093	0.169
-669.076	317.439	0.184	0.346
-668.062	142.887	-0.044	-0.058
-667.047	62.777	-0.086	-0.086
-666.032	-110.458	0.079	0.016
-665.018	91.848	0.228	-0.255
-664.003	770.643	0.105	0.285
-662.989	52.774	-0.090	-0.086
-661.974	-200.000	-0.007	-0.239
-660.959	-29.055	-0.121	-0.069
-659.945	800.000	-0.091	0.355
-658.930	42.256	0.282	0.255
-657.916	43.436	0.339	0.308
-656.901	-183.244	0.220	-0.004
-655.886	313.953	0.039	0.073
-654.872	-107.069	-0.236	0.052
-653.857	68.802	-0.311	0.317
-652.843	-92.301	-0.135	-0.038
-651.828	3.248	-0.144	0.104
-650.814	-49.736	-0.171	0.081
-649.799	-157.396	-0.358	0.021
-648.784	114.492	0.191	0.231
-647.770	-200.000	-0.006	0.403
-646.755	-194.289	0.150	0.001
-645.741	-30.327	-0.219	-0.124
-644.726	136.476	-0.060	0.077
-643.711	3.214	0.210	0.152
-642.697	-55.489	0.245	0.109
-641.682	637.055	-0.042	0.106
-640.668	732.963	0.024	-0.064
-639.653	-200.000	0.012	-0.117
-638.638	206.838	0.042	0.064
-637.624	185.531	0.068	0.100
-636.609	56.825	0.176	-0.170
-635.595	-200.000	-0.065	-0.308
-634.580	800.000	-0.016	0.046
-633.565	-71.560	0.271	-0.101
-632.551	395.593	0.125	0.260
-631.536	97.688	-0.139	0.158
-630.522	-62.986	-0.197	-0.081
-629.507	-46.613	-0.218	0.106
-628.492	-127.498	0.149	-0.021
-627.478	-200.000	-0.038	-0.283
-626.463	-63.587	-0.162	0.066
-625.449	-17.072	0.099	-0.062
-624.434	523.254	-0.059	0.138
-623.419	-34.801	-0.103	0.056
-622.405	800.000	0.058	0.216
-621.390	2.852	-0.333	-0.240
-620.376	-36.899	0.183	0.097
-619.361	149.954	-0.114	0.153
-618.346	509.403	-0.049	-0.114
-617.332	-200.000	0.087	-0.475
-616.317	-146.905	-0.174	-0.015
-615.303	-104.813	0.220	-0.050
-614.288	629.509	-0.100	0.251
-613.273	-194.308	-0.283	0.002
-612.259	224.462	-0.088	-0.141
-611.244	3.225	0.030	-0.022
-610.230	-200.000	-0.001	0.009
-609.215	14.946	-0.180	0.139
-608.201	-200.000	0.054	-0.245
-607.186	-135.255	0.248	-0.029
-606.171	-200.000	-0.008	0.089
-605.157	-18.778	-0.262	-0.162
-604.142	-92.136	-0.105	0.029
-603.128	-39.164	-0.432	0.225
-602.113	-61.860	0.310	-0.129
-601.098	-200.000	0.039	-0.509
-600.084	-74.896	0.090	-0.032
-599.069	-147.773	0.195	0.016
-598.055	800.000	-0.051	-0.176
-597.040	180.524	-0.096	-0.139
-596.025	519.987	0.095	-0.222
-595.011	800.000	-0.055	0.233
-593.996	-163.332	0.141	0.007
-592.982	-200.000	-0.009	-0.053
-591.967	263.846	-0.183	0.316
-590.952	-30.542	-0.238	0.134
-589.938	-189.023	0.135	-0.002
-588.923	-200.000	-0.014	-0.448
-587.909	-158.065	-0.272	-0.016
-586.894	-200.000	-0.001	-0.249
-585.879	-68.701	-0.285	0.109
-584.865	218.479	-0.091	-0.144
-583.850	-38.945	0.270	0.141
-582.836	-30.218	-0.272	0.153
-581.821	95.380	-0.178	-0.202
-580.806	-86.018	0.049	-0.015
-579.792	-3.563	-0.173	0.119
-578.777	-62.648	-0.101	-0.041
-577.763	-200.000	0.032	-0.285
-576.748	226.844	-0.055	0.088
-575.733	-26.737	-0.324	-0.188
-574.719	604.801	-0.110	0.272
-573.704	-200.000	0.031	-0.195
-572.690	800.000	-0.061	-0.251
-571.675	230.488	-0.172	-0.279
-570.661	-149.410	0.073	-0.006
-569.646	-9.104	0.090	0.060
-568.631	32.625	0.234	0.200
-567.617	38.852	0.240	-0.212
-566.602	115.417	-0.118	-0.143
-565.588	-112.081	0.260	-0.052
-564.573	607.889	-0.095	0.235
-563.558	-126.647	0.212	-0.031
-562.544	-200.000	0.009	0.069
-561.529	-104.148	0.061	0.014
-560.515	-200.000	0.002	-0.031
-559.500	-200.000	-0.051	0.363
-558.485	-130.687	0.177	0.024
-557.471	800.000	-0.053	-0.218
-556.456	800.000	-0.052	0.165
-555.442	5.740	0.140	0.102
-554.427	-200.000	0.009	-0.064
-553.412	-24.732	-0.306	-0.180
-552.398	-200.000	-0.026	-0.434
-551.383	685.950	-0.084	-0.217
-550.369	311.113	-0.335	0.621
-549.354	-12.891	-0.131	-0.085
-548.339	-47.647	0.065	-0.031
-547.325	-80.416	0.119	-0.039
-546.310	-200.000	0.034	-0.194
-545.296	-200.000	0.015	0.074
-544.281	34.058	-0.189	0.163
-543.266	209.855	0.072	-0.111
-542.252	28.747	-0.242	-0.203
-541.237	-142.376	-0.128	-0.012
-540.223	-153.000	-0.378	-0.026
-539.208	693.693	-0.131	-0.339
-538.193	-132.077	0.116	0.015
-537.179	37.469	0.024	0.021
-536.164	75.161	0.031	-0.032
-535.150	91.195	0.149	-0.166
-534.135	800.000	-0.114	-0.320
-533.121	-20.443	-0.131	-0.079
-532.106	-200.000	-0.032	0.339
-531.091	177.348	-0.225	-0.324
-530.077	-200.000	-0.085	-0.389
-529.062	56.195	-0.229	-0.220
-528.048	169.369	0.090	-0.127
-527.033	800.000	0.058	-0.210
-526.018	-64.702	0.320	-0.128
-525.004	27.261	-0.370	-0.307
-523.989	91.450	-0.173	0.192
-522.975	236.742	-0.083	-0.135
-521.960	640.980	0.131	-0.331
-520.945	-129.633	0.238	-0.032
-519.931	718.504	0.093	-0.244
-518.916	-188.648	0.075	0.001
-517.902	376.585	-0.067	0.135
-516.887	800.000	0.087	0.356
-515.872	-122.472	-0.126	-0.020
-514.858	-112.575	-0.554	0.109
-513.843	-60.625	0.212	0.089
-512.829	-12.400	-0.202	0.130
-511.814	800.000	-0.074	0.240
-510.799	-200.000	-0.005	-0.025
-509.785	496.421	-0.063	0.143
-508.770	-200.000	0.047	-0.332
-507.756	-200.000	-0.001	-0.107
-506.741	-200.000	-0.038	-0.166
-505.726	-200.000	0.059	-0.263
-504.712	109.559	0.065	0.077
-503.697	324.553	-0.072	0.136
-502.683	800.000	0.025	-0.074
-501.668	-13.252	0.091	-0.058
-500.653	290.110	0.099	0.178
-499.639	-0.002	0.139	-0.098
-498.624	-107.929	-0.062	0.013
-497.610	-158.269	-0.347	-0.020
-496.595	29.152	0.045	-0.038
-495.581	-182.290	-0.304	-0.006
-494.566	-82.825	0.278	-0.089
-493.551	-155.138	-0.102	0.007
-492.537	155.945	-0.038	-0.051
-491.522	295.869	0.040	-0.072
-490.508	800.000	-0.168	0.459
-489.493	376.110	0.088	0.177
-488.478	-200.000	-0.012	0.203
-487.464	800.000	-0.063	-0.209
-486.449	-99.118	0.121	-0.030
-485.435	-68.670	0.230	-0.088
-484.420	126.555	-0.163	-0.204
-483.405	455.243	0.218	-0.477
-482.391	-22.871	-0.394	0.235
-481.376	358.357	0.217	0.427
-480.362	401.894	-0.155	-0.321
-479.347	-10.158	-0.102	0.067
-478.332	292.360	-0.040	-0.072
-477.318	34.852	0.020	0.017
-476.303	800.000	-0.044	-0.120
-475.289	-62.977	0.140	-0.057
-474.274	366.432	0.055	0.109
-473.259	-200.000	-0.037	0.390
-472.245	513.612	-0.140	0.322
-471.230	-200.000	0.013	-0.244
-470.216	800.000	0.052	-0.156
-469.201	37.933	-0.148	0.130
-468.186	56.256	-0.246	-0.236
-467.172	131.059	0.112	-0.142
-466.157	-105.812	-0.031	0.007
-465.143	81.673	-0.125	-0.133
-464.128	38.411	-0.153	0.135
-463.113	17.218	0.164	-0.128
-462.099	-150.970	0.271	0.020
-461.084	-68.404	-0.121	-0.046
-460.070	800.000	0.029	-0.122
-459.055	800.000	0.087	0.260
-458.040	52.990	-0.103	-0.097
-457.026	800.000	-0.007	0.023
-456.011	800.000	-0.061	0.258
-454.997	-106.197	0.190	-0.042
-453.982	-48.371	-0.038	0.018
-452.968	800.000	-0.085	0.233
-451.953	123.418	-0.198	-0.245
-450.938	20.475	-0.219	-0.175
-449.924	-152.479	-0.344	0.024
-448.909	-107.067	-0.212	0.046
-447.895	-200.000	-0.003	-0.318
-446.880	779.725	0.063	-0.171
-445.865	-17.435	0.146	0.091
-444.851	538.998	0.069	-0.163
-443.836	22.754	-0.135	-0.109
-442.822	-35.101	0.141	-0.076
-441.807	-200.000	0.024	-0.242
-440.792	800.000	0.044	-0.155
-439.778	111.553	0.206	-0.245
-438.763	-150.918	-0.216	-0.016
-437.749	800.000	0.052	-0.152
-436.734	405.902	0.173	-0.360
-435.719	800.000	0.022	-0.063
-434.705	-200.000	0.097	0.423
-433.690	-200.000	-0.002	0.242
-432.676	-23.580	0.066	-0.039
-431.661	800.000	-0.068	0.207
-430.646	-200.000	-0.026	0.189
-429.632	-32.634	0.090	0.049
-428.617	-73.794	-0.179	0.064
-427.603	-33.067	-0.284	0.155
-426.588	-71.555	-0.032	0.012
-425.573	-188.950	-0.288	0.003
-424.559	-119.882	0.220	-0.037
-423.544	140.659	-0.132	0.171
-422.530	86.682	-0.245	0.267
-421.515	800.000	0.059	-0.220
-420.500	-129.750	0.205	0.028
-419.486	-44.330	0.128	0.063
-418.471	401.831	0.043	0.088
-417.457	-150.048	-0.225	0.017
-416.442	-200.000	-0.017	-0.224
-415.428	800.000	0.022	0.074
-414.413	88.278	-0.149	0.163
-413.398	-200.000	0.042	-0.211
-412.384	-17.756	0.081	-0.050
-411.369	133.248	0.357	0.454
-410.355	800.000	-0.062	0.253
-409.340	-61.299	-0.194	0.080
-408.325	81.607	0.142	-0.151
-407.311	227.144	-0.061	-0.097
-406.296	-50.917	-0.017	0.008
-405.282	-200.000	-0.001	-0.154
-404.267	-58.461	0.260	0.111
-403.252	800.000	0.007	0.025
-402.238	75.408	0.176	0.183
-401.223	119.497	-0.254	0.310
-400.209	-200.000	-0.003	0.172
-399.194	-109.077	-0.338	0.071
-398.179	-1.151	0.093	0.065
-397.165	220.849	-0.109	0.173
-396.150	-200.000	-0.048	0.283
-395.136	-117.226	0.055	0.010
-394.121	143.872	0.113	0.148
-393.106	72.195	0.079	-0.081
-392.092	58.073	-0.068	0.066
-391.077	-48.671	0.461	-0.218
-390.063	-80.582	-0.181	0.059
-389.048	-138.382	-0.074	0.008
-388.033	6.238	-0.245	-0.179
-387.019	-200.000	0.008	0.339
-386.004	38.210	-0.261	-0.228
-384.990	-14.673	0.260	0.164
-383.975	-200.000	-0.024	-0.246
-382.960	99.353	0.179	-0.203
-381.946	32.684	-0.143	-0.122
-380.931	-20.762	0.180	-0.109
-379.917	800.000	0.034	0.114
-378.902	-161.285	-0.186	0.010
-377.888	-179.199	-0.178	0.004
-376.873	-159.332	0.202	0.011
-375.858	-102.584	-0.320	-0.075
-374.844	-142.854	0.311	0.030
-373.829	115.522	-0.157	-0.188
-372.815	162.435	-0.112	0.155
-371.800	-60.212	0.260	-0.109
-370.785	800.000	-0.071	0.302
-369.771	-200.000	0.027	0.156
-368.756	-200.000	0.028	0.306
-367.742	-189.213	-0.233	0.003
-366.727	93.616	0.112	0.125
-365.712	-73.385	-0.119	0.043
-364.698	-200.000	0.014	-0.095
-363.683	-130.727	-0.350	0.046
-362.669	-200.000	-0.002	-0.246
-361.654	-69.106	0.219	-0.083
-360.639	-53.794	-0.163	0.073
-359.625	-30.858	0.087	-0.048
-358.610	91.729	0.145	0.160
-357.596	-47.764	0.140	0.067
-356.581	568.389	-0.016	0.039
-355.566	-45.604	-0.072	0.035
-354.552	50.237	0.190	0.176
-353.537	-200.000	-0.058	0.258
-352.523	20.806	0.130	0.104
-351.508	-77.531	0.175	-0.060
-350.493	-76.072	-0.103	0.036
-349.479	343.629	-0.041	0.079
-348.464	-200.000	-0.074	0.325
-347.450	-67.190	-0.108	0.042
-346.435	12.629	0.266	-0.201
-345.420	800.000	-0.020	-0.058
-344.406	-200.000	-0.047	-0.246
-343.391	-137.841	-0.112	0.012
-342.377	359.098	-0.075	0.146
-341.362	129.513	0.266	0.333
-340.348	-200.000	-0.006	-0.266
-339.333	-28.772	-0.051	-0.029
-338.318	-200.000	-0.026	0.139
-337.304	644.547	0.055	-0.138
-336.289	194.092	0.187	0.278
-335.275	33.827	-0.242	0.207
-334.260	-131.440	0.253	-0.033
-333.245	-36.723	-0.004	0.002
-332.231	246.286	-0.132	0.219
-331.216	119.091	0.222	-0.269
-330.202	349.919	-0.131	-0.254
-329.187	-200.000	0.058	0.258
-328.172	49.350	-0.134	0.124
-327.158	-200.000	0.012	-0.145
-326.143	-26.726	0.199	0.114
-325.129	114.808	-0.203	0.243
-324.114	-200.000	-0.026	0.309
-323.099	-122.759	0.248	0.039
-322.085	63.154	-0.131	-0.128
-321.070	38.387	0.211	-0.184
-320.056	-108.037	0.092	0.020
-319.041	-15.664	-0.075	-0.047
-318.026	33.021	0.330	0.281
-317.012	800.000	-0.023	-0.066
-315.997	55.987	0.070	-0.067
-314.983	-150.804	0.296	0.022
-313.968	-200.000	-0.001	-0.158
-312.953	-93.085	-0.012	-0.003
-311.939	68.252	-0.036	0.037
-310.924	26.379	0.126	0.103
-309.910	-121.590	-0.097	-0.016
-308.895	800.000	0.044	0.186
-307.880	-200.000	-0.037	0.440
-306.866	174.170	0.077	-0.108
-305.851	90.585	-0.220	-0.241
-304.837	90.693	-0.303	-0.333
-303.822	-3.919	-0.113	-0.077
-302.807	336.495	0.179	-0.340
-301.793	235.097	0.049	-0.080
-300.778	-200.000	0.005	-0.069
-299.764	-119.571	0.421	-0.071
-298.749	247.937	-0.058	-0.096
-297.735	-200.000	0.066	-0.351
-296.720	136.201	-0.180	-0.230
-295.705	-132.480	0.133	-0.017
-294.691	-106.731	0.265	0.058
-293.676	-5.061	0.332	0.224
-292.662	-115.294	0.532	0.099
-291.647	314.632	0.118	0.217
-290.632	-107.349	0.264	0.057
-289.618	721.115	-0.074	0.193
-288.603	66.194	-0.022	0.022
-287.589	227.244	0.101	-0.160
-286.574	-95.736	-0.151	0.040
-285.559	341.857	0.040	0.076
-284.545	-167.854	0.022	-0.001
-283.530	-200.000	-0.021	0.289
-282.516	-47.622	0.151	0.072
-281.501	155.488	-0.043	0.058
-280.486	145.528	0.194	0.255
-279.472	-29.632	-0.213	0.119
-278.457	-74.055	-0.160	0.057
-277.443	-37.128	-0.159	-0.083
-276.428	800.000	0.121	0.379
-275.413	-7.066	0.264	0.176
-274.399	-17.515	0.196	-0.121
-273.384	102.541	-0.032	0.036
-272.370	148.573	0.061	-0.080
-271.355	-0.145	-0.037	0.026
-270.340	-125.064	0.270	0.041
-269.326	-200.000	0.032	0.180
-268.311	1.192	0.087	-0.061
-267.297	-63.882	0.140	0.056
-266.282	-30.750	-0.249	0.138
-265.267	-200.000	-0.044	0.242
-264.253	-162.996	0.306	-0.014
-263.238	-49.267	-0.220	0.103
-262.224	436.246	0.102	-0.218
-261.209	-200.000	0.083	0.397
-260.195	-36.367	0.244	0.129
-259.180	-160.066	0.045	0.002
-258.165	800.000	0.065	0.198
-257.151	800.000	-0.046	0.128
-256.136	109.070	0.207	-0.242
-255.122	17.961	0.083	-0.064
-254.107	373.664	0.158	0.314
-253.092	57.691	-0.242	0.231
-252.078	-35.930	-0.108	-0.057
-251.063	-134.081	0.280	-0.034
-250.049	-70.277	-0.115	-0.043
-249.034	48.107	0.205	-0.187
-248.019	109.562	-0.063	-0.074
-247.005	189.942	0.196	-0.288
-245.990	553.438	0.139	-0.326
-244.976	53.360	0.241	-0.226
-243.961	133.728	-0.081	0.102
-242.946	-52.171	-0.182	0.082
-241.932	479.319	-0.042	-0.094
-240.917	51.074	-0.186	-0.172
-239.903	150.995	-0.368	-0.489
-238.888	41.872	-0.236	-0.209
-237.873	-172.077	0.168	-0.005
-236.859	1.073	0.081	0.057
-235.844	88.086	0.097	0.106
-234.830	800.000	0.134	-0.425
-233.815	-117.361	0.548	0.097
-232.800	800.000	-0.082	0.250
-231.786	800.000	0.180	0.617
-230.771	800.000	0.077	-0.222
-229.757	-164.517	-0.185	0.008
-228.742	-59.942	0.453	-0.189
-227.727	-120.844	0.089	0.015
-226.713	433.830	-0.183	-0.388
-225.698	800.000	0.032	-0.096
-224.684	672.636	0.164	0.414
-223.669	-200.000	0.038	0.241
-222.655	-77.809	-0.088	-0.030
-221.640	-103.332	-0.200	0.046
-220.625	50.352	0.081	-0.075
-219.611	-200.000	0.004	0.109
-218.596	207.846	-0.068	-0.104
-217.582	129.838	-0.218	-0.272
-216.567	-118.341	0.243	-0.042
-215.552	-44.235	0.161	0.079
-214.538	800.000	-0.077	-0.303
-213.523	409.409	-0.085	0.175
-212.509	35.826	-0.224	0.192
-211.494	-200.000	-0.082	0.362
-210.479	193.785	-0.179	0.264
-209.465	-26.706	-0.094	-0.054
-208.450	-110.339	-0.080	-0.016
-207.436	-90.179	0.270	0.077
-206.421	181.570	0.241	-0.346
-205.406	-200.000	-0.518	0.002
-204.392	-5.079	-0.220	-0.148
-203.377	-33.714	-0.034	0.018
-202.363	800.000	-0.017	-0.049
-201.348	-114.710	0.116	0.022
-200.333	-125.007	-0.300	-0.045
-199.319	-98.225	0.102	-0.026
-198.304	-80.380	0.130	-0.042
-197.290	100.769	-0.077	0.088
-196.275	-200.000	-0.026	0.344
-195.260	-69.150	0.300	-0.113
-194.246	25.680	-0.280	0.228
-193.231	-200.000	-0.019	-0.225
-192.217	247.209	-0.039	-0.064
-191.202	5.517	0.293	-0.211
-190.187	-5.996	0.064	-0.043
-189.173	-200.000	0.017	-0.156
-188.158	26.411	0.240	0.195
-187.144	-67.236	0.407	-0.156
-186.129	-200.000	-0.062	0.328
-185.114	286.627	-0.116	0.204
-184.100	-200.000	0.000	0.259
-183.085	97.572	-0.089	0.099
-182.071	128.714	0.094	0.117
-181.056	-85.693	0.222	0.067
-180.042	68.080	0.089	-0.089
-179.027	61.174	0.169	0.163
-178.012	-34.294	0.349	-0.187
-176.998	-200.000	-0.008	-0.244
-175.983	272.765	0.085	0.147
-174.969	125.245	-0.126	-0.154
-173.954	58.129	0.112	0.107
-172.939	-137.500	0.072	0.008
-171.925	-200.000	0.012	-0.075
-170.910	800.000	-0.094	0.315
-169.896	-115.815	0.068	0.012
-168.881	-127.109	0.204	0.029
-167.866	-98.981	-0.203	-0.050
-166.852	63.319	-0.288	0.282
-165.837	182.980	-0.350	-0.504
-164.823	-200.000	0.001	-0.098
-163.808	222.588	0.073	0.115
-162.793	-200.000	0.005	0.141
-161.779	205.556	-0.055	0.084
-160.764	-200.000	0.007	0.044
-159.750	-147.777	0.213	0.017
-158.735	232.250	0.049	0.078
-157.720	227.548	-0.078	-0.124
-156.706	84.399	-0.124	0.132
-155.691	587.421	0.078	-0.187
-154.677	-63.982	0.004	-0.002
-153.662	-178.406	0.228	-0.005
-152.647	113.100	-0.034	-0.040
-151.633	47.618	-0.246	-0.224
-150.618	800.000	0.082	-0.331
-149.604	-51.600	0.017	0.008
-148.589	-200.000	0.007	-0.192
-147.574	-23.365	-0.116	0.068
-146.560	-103.575	0.208	-0.048
-145.545	-33.179	0.318	0.172
-144.531	154.134	-0.116	-0.155
-143.516	-14.299	0.200	-0.125
-142.502	398.150	0.089	0.181
-141.487	-181.596	0.362	0.007
-140.472	-200.000	-0.026	0.169
-139.458	-57.371	-0.251	0.107
-138.443	-73.178	0.253	0.090
-137.429	75.600	0.252	0.259
-136.414	636.354	-0.073	-0.181
-135.399	-54.732	-0.046	-0.020
-134.385	-78.411	0.250	0.084
-133.370	185.756	0.226	0.328
-132.356	-200.000	0.052	-0.419
-131.341	-1.946	0.288	0.197
-130.326	86.044	-0.031	0.034
-129.312	-200.000	0.058	0.401
-128.297	480.868	0.055	-0.121
-127.283	175.847	0.195	-0.275
-126.268	-35.401	-0.198	-0.105
-125.253	695.972	0.026	-0.066
-124.239	-89.044	-0.112	0.032
-123.224	348.117	0.165	-0.317
-122.210	789.945	0.035	0.093
-121.195	-21.962	-0.251	-0.149
-120.180	800.000	0.073	-0.220
-119.166	-161.313	0.130	0.007
-118.151	229.034	-0.202	-0.321
-117.137	658.298	-0.065	-0.162
-116.122	800.000	-0.039	-0.107
-115.107	-149.662	0.199	-0.015
-114.093	91.692	0.302	0.330
-113.078	-105.520	0.198	0.044
-112.064	-200.000	0.009	0.210
-111.049	-98.852	0.212	-0.052
-110.034	-94.675	-0.034	0.009
-109.020	-105.113	0.289	-0.064
-108.005	-148.680	0.346	-0.027
-106.991	-7.681	-0.237	0.156
-105.976	115.976	-0.082	-0.098
-104.962	-171.712	0.199	-0.006
-103.947	119.214	0.141	0.169
-102.932	-200.000	-0.006	-0.239
-101.918	103.839	-0.151	0.173
-100.903	800.000	0.008	-0.024
-99.889	156.200	0.153	-0.206
-98.874	215.444	0.048	0.073
-97.859	-74.939	0.020	0.007
-96.845	-146.509	-0.200	0.017
-95.830	-200.000	-0.002	0.138
-94.816	-200.000	0.010	-0.153
-93.801	-29.276	0.005	0.003
-92.786	-57.119	0.300	-0.129
-91.772	212.313	-0.075	-0.115
-90.757	-5.302	-0.135	-0.090
-89.743	81.295	-0.086	0.091
-88.728	53.204	-0.101	0.094
-87.713	404.910	-0.090	-0.185
-86.699	-122.826	0.213	0.033
-85.684	191.025	-0.045	-0.066
-84.670	-123.746	-0.093	-0.014
-83.655	-200.000	-0.040	-0.184
-82.640	183.597	0.307	0.441
-81.626	158.433	0.038	-0.052
-80.611	4.512	0.311	0.222
-79.597	800.000	-0.066	0.265
-78.582	-54.837	0.264	0.116
-77.567	-48.664	-0.207	-0.096
-76.553	-200.000	0.002	-0.177
-75.538	-118.019	0.185	0.032
-74.524	251.481	-0.233	-0.385
-73.509	-5.724	0.333	0.222
-72.494	800.000	-0.100	0.299
-71.480	-38.462	0.058	0.030
-70.465	765.516	-0.012	0.031
-69.451	800.000	0.078	-0.297
-68.436	-81.277	-0.194	0.062
-67.422	-90.765	0.275	-0.077
-66.407	-99.580	0.173	0.042
-65.392	59.720	-0.296	-0.283
-64.378	-200.000	-0.028	0.151
-63.363	-47.549	-0.401	-0.189
-62.349	800.000	0.102	0.346
-61.334	132.687	-1.096	-1.372
-60.319	8.472	0.852	0.623
-59.305	800.000	-0.398	-1.311
-58.290	381.667	0.755	1.506
-57.276	603.288	0.632	1.525
-56.261	-200.000	132.556	707.233
-55.246	380.340	1655.914	3295.741
-54.232	134.690	2808.957	3538.447
-53.217	88.783	2303.651	2486.825
-52.203	31.646	1898.436	1584.851
-51.188	25.450	1693.262	1366.553
-50.173	23.405	1654.335	1319.874
-49.159	45.738	1727.185	1549.260
-48.144	42.686	1736.948	1534.705
-47.130	25.018	1686.866	1357.902
-46.115	22.466	1671.582	1326.354
-45.100	22.302	1666.375	1320.937
-44.086	22.270	1663.743	1318.563
-43.071	22.196	1661.794	1316.409
-42.057	22.245	1658.972	1314.486
-41.042	22.260	1657.250	1313.182
-40.027	22.157	1655.878	1311.275
-39.013	22.201	1653.490	1309.661
-37.998	22.233	1652.350	1308.943
-36.984	22.277	1650.742	1307.946
-35.969	22.359	1649.388	1307.430
-34.954	22.380	1647.699	1306.192
-33.940	22.356	1645.678	1304.361
-32.925	22.372	1644.014	1303.113
-31.911	22.307	1642.458	1301.343
-30.896	22.342	1641.301	1300.633
-29.881	22.317	1639.011	1298.583
-28.867	22.282	1638.192	1297.627
-27.852	22.350	1636.440	1296.684
-26.838	22.416	1634.823	1295.842
-25.823	22.367	1633.714	1294.548
-24.809	22.279	1632.586	1292.959
-23.794	22.431	1630.995	1292.762
-22.779	22.393	1629.386	1291.161
-21.765	22.414	1627.892	1290.079
-20.750	22.355	1626.741	1288.682
-19.736	22.530	1624.700	1288.292
-18.721	22.471	1623.355	1286.741
-17.706	22.479	1621.855	1285.559
-16.692	22.416	1620.442	1283.929
-15.677	22.402	1620.083	1283.491
-14.663	22.388	1618.384	1281.998
-13.648	22.431	1616.460	1280.733
-12.633	22.473	1614.766	1279.648
-11.619	22.421	1613.824	1278.469
-10.604	22.448	1611.910	1277.100
-9.590	22.480	1610.886	1276.470
-8.575	22.416	1610.119	1275.345
-7.560	22.384	1608.707	1273.946
-6.546	22.417	1607.513	1273.191
-5.531	22.406	1606.759	1272.458
-4.517	22.320	1605.462	1270.764
-3.502	22.442	1603.623	1270.138
-2.487	22.487	1602.004	1269.126
-1.473	22.080	1589.950	1256.616
-0.458	18.748	1570.146	1217.332
0.556	13.963	1571.544	1184.392
1.571	11.682	1595.405	1185.741
2.586	11.435	1606.718	1192.237
3.600	10.619	1553.037	1146.540
4.615	6.208	1448.461	1040.122
5.629	1.658	1392.064	970.570
6.644	0.835	1385.302	960.548
7.659	0.709	1384.359	959.004
8.673	0.732	1383.909	958.755
9.688	0.664	1381.505	956.577
10.702	0.497	1377.917	952.950
11.717	2.802	1379.987	968.865
12.731	9.057	1389.855	1015.377
13.746	14.944	1399.070	1059.414
14.761	17.137	1401.635	1075.160
15.775	16.701	1399.757	1070.868
16.790	15.659	1397.362	1062.359
17.804	14.900	1394.985	1055.667
18.819	14.584	1393.068	1052.127
19.834	14.445	1391.888	1050.270
20.848	14.069	1390.844	1047.020
21.863	13.916	1389.658	1045.069
22.877	13.744	1388.206	1042.806
23.892	13.563	1387.333	1040.918
24.907	13.648	1386.668	1040.861
25.921	13.648	1385.504	1039.900
26.936	13.787	1383.991	1039.539
27.950	13.703	1384.316	1039.168
28.965	13.802	1382.593	1038.401
29.980	13.852	1381.585	1037.868
30.994	13.891	1380.982	1037.566
32.009	13.963	1379.670	1036.934
33.023	13.931	1378.604	1035.846
34.038	13.820	1378.091	1034.674
35.053	13.864	1376.126	1033.382
36.067	13.749	1375.575	1032.161
37.082	13.850	1374.755	1032.083
38.096	13.887	1373.571	1031.333
39.111	13.834	1373.189	1030.624
40.126	13.764	1372.344	1029.463
41.140	13.800	1371.372	1028.870
42.155	13.609	1371.107	1027.392
43.169	13.669	1371.247	1027.777
44.184	13.695	1370.405	1027.217
45.199	13.705	1370.311	1027.119
46.213	13.760	1369.388	1026.676
47.228	13.815	1368.247	1026.073
48.242	13.769	1367.102	1024.840
49.257	13.730	1365.630	1023.401
50.271	13.791	1363.989	1022.459
51.286	13.767	1362.544	1021.135
52.301	13.795	1361.505	1020.438
53.315	13.781	1360.677	1019.642
54.330	13.715	1359.695	1018.410
55.344	13.748	1358.421	1017.569
56.359	13.689	1357.081	1016.115
57.374	13.655	1356.608	1015.463
58.388	13.665	1355.740	1014.785
59.403	13.705	1355.242	1014.564
60.417	13.644	1354.417	1013.487
61.432	13.644	1353.416	1012.650
62.447	13.648	1352.415	1011.834
63.461	13.542	1351.078	1010.094
64.476	13.581	1350.163	1009.559
65.490	13.637	1348.546	1008.606
66.505	13.641	1347.250	1007.572
67.520	13.673	1346.026	1006.757
68.534	13.712	1344.665	1005.886
69.549	13.764	1343.341	1005.126
70.563	13.660	1342.752	1003.962
71.578	13.634	1341.852	1003.048
72.593	13.597	1340.565	1001.768
73.607	13.595	1339.885	1001.162
74.622	13.477	1339.449	1000.037
75.636	13.516	1338.377	999.382
76.651	13.555	1337.446	998.830
77.666	13.556	1336.953	998.383
78.680	13.601	1336.435	998.178
79.695	13.549	1335.450	997.043
80.709	13.621	1334.729	996.851
81.724	13.817	1333.659	997.136
82.739	13.673	1332.762	995.515
83.753	13.677	1332.110	994.965
84.768	13.749	1330.858	994.371
85.782	13.860	1329.301	993.787
86.797	13.831	1328.017	992.566
87.812	13.732	1327.282	991.335
88.826	13.722	1325.453	989.825
89.841	13.693	1324.913	989.159
90.855	13.807	1323.702	988.846
91.870	13.773	1322.677	987.789
92.884	13.800	1321.743	987.167
93.899	13.808	1321.471	986.926
94.914	13.885	1320.042	986.224
95.928	13.863	1319.423	985.548
96.943	13.897	1318.598	985.041
97.957	13.876	1317.422	983.956
98.972	13.860	1316.529	983.104
99.987	13.716	1316.043	981.801
101.001	13.805	1314.780	981.303
102.016	13.816	1313.574	980.376
103.030	13.772	1312.435	979.180
104.045	13.856	1311.566	978.940
105.060	13.798	1311.122	978.181
106.074	13.813	1309.457	976.944
107.089	13.814	1307.699	975.551
108.103	13.668	1307.338	974.338
109.118	13.724	1305.725	973.377
110.133	13.713	1304.303	972.166
111.147	13.751	1303.042	971.360
112.162	13.857	1301.378	970.657
113.176	13.693	1300.868	969.231
114.191	13.754	1299.598	968.554
115.206	13.849	1298.125	967.926
116.220	13.749	1297.523	966.808
117.235	13.754	1296.180	965.753
118.249	13.796	1295.225	965.197
119.264	13.820	1293.697	964.116
120.279	13.707	1292.765	962.679
121.293	13.732	1291.858	962.060
122.308	13.771	1291.008	961.568
123.322	13.758	1289.624	960.379
124.337	13.684	1288.500	959.029
125.352	13.707	1287.482	958.319
126.366	13.659	1286.424	957.171
127.381	13.647	1285.532	956.353
128.395	13.711	1284.067	955.549
129.410	13.742	1283.063	954.892
130.424	13.729	1281.962	953.916
131.439	13.833	1281.184	953.850
132.454	13.769	1279.963	952.490
133.468	13.872	1279.540	952.680
134.483	13.743	1278.979	951.439
135.497	13.752	1277.517	950.321
136.512	13.644	1276.526	948.882
137.527	13.770	1274.682	948.145
138.541	13.855	1273.379	947.576
139.556	13.788	1272.497	946.456
140.570	13.765	1271.240	945.306
141.585	13.915	1269.447	944.743
142.600	13.842	1269.172	944.037
143.614	13.954	1268.005	943.725
144.629	13.979	1266.737	942.835
145.643	13.926	1265.857	941.801
146.658	13.974	1264.419	940.920
147.673	13.899	1263.058	939.400
148.687	13.963	1262.194	939.035
149.702	13.912	1260.908	937.702
150.716	13.967	1258.990	936.505
151.731	13.994	1258.087	935.901
152.746	13.869	1256.851	934.199
153.760	13.990	1255.682	933.928
154.775	14.022	1254.617	933.233
155.789	14.004	1254.026	932.605
156.804	14.025	1252.886	931.797
157.819	13.999	1251.425	930.482
158.833	14.085	1250.515	930.205
159.848	14.126	1250.033	929.994
160.862	14.095	1248.646	928.704
161.877	14.054	1247.556	927.581
162.892	14.020	1247.052	926.936
163.906	13.977	1245.940	925.790
164.921	14.100	1244.984	925.681
165.935	14.160	1243.886	925.119
166.950	14.110	1243.288	924.309
167.964	14.229	1242.358	924.197
168.979	14.040	1241.947	922.761
169.994	14.081	1241.011	922.215
171.008	14.170	1240.193	922.015
172.023	14.274	1238.850	921.512
173.037	14.294	1238.213	921.070
174.052	14.254	1237.529	920.256
175.067	14.207	1236.320	919.017
176.081	14.200	1235.523	918.302
177.096	14.310	1234.080	917.755
178.110	14.092	1233.563	916.090
179.125	14.197	1232.557	915.838
180.140	14.182	1231.385	914.806
181.154	14.167	1230.284	913.823
182.169	14.371	1228.523	913.556
183.183	14.310	1227.725	912.545
184.198	14.265	1226.616	911.392
185.213	14.332	1225.344	910.734
186.227	14.354	1224.582	910.209
187.242	14.475	1223.077	909.669
188.256	14.524	1222.331	909.303
189.271	14.358	1221.523	907.716
190.286	14.334	1220.302	906.599
191.300	14.316	1219.445	905.780
192.315	14.287	1219.292	905.429
193.329	14.262	1218.371	904.532
194.344	14.261	1217.829	904.044
195.359	14.362	1216.818	903.758
196.373	14.397	1216.413	903.571
197.388	14.327	1216.221	902.966
198.402	14.513	1215.321	903.227
199.417	14.627	1214.312	903.011
200.432	14.571	1213.663	902.148
201.446	14.632	1212.504	901.534
202.461	14.615	1211.744	900.798
203.475	14.546	1211.310	900.025
204.490	14.539	1209.875	898.839
205.504	14.517	1208.532	897.648
206.519	14.630	1207.597	897.480
207.534	14.624	1206.079	896.239
208.548	14.632	1205.313	895.635
209.563	14.637	1204.826	895.220
210.577	14.648	1203.491	894.209
211.592	14.764	1202.644	894.121
212.607	14.707	1201.882	893.168
213.621	14.720	1200.624	892.226
214.636	14.704	1199.489	891.218
215.650	14.697	1198.819	890.603
216.665	14.725	1198.570	890.491
217.680	14.864	1197.167	890.109
218.694	14.820	1196.258	889.120
219.709	14.834	1195.788	888.767
220.723	14.875	1194.764	888.143
221.738	14.839	1194.078	887.362
222.753	14.902	1193.143	886.924
223.767	14.949	1192.594	886.686
224.782	14.932	1192.358	886.343
225.796	14.940	1192.233	886.215
226.811	15.003	1190.512	885.188
227.826	14.871	1190.282	884.242
228.840	14.913	1189.536	883.833
229.855	14.984	1188.513	883.369
230.869	15.015	1187.619	882.790
231.884	14.938	1187.320	882.081
232.899	14.837	1186.403	880.791
233.913	15.013	1185.473	880.949
234.928	14.924	1184.985	880.039
235.942	14.871	1184.160	879.071
236.957	14.875	1183.419	878.467
237.972	14.908	1182.519	877.892
238.986	15.014	1181.691	877.758
240.001	14.994	1180.989	877.054
241.015	14.979	1180.416	876.471
242.030	15.099	1179.238	876.145
243.045	15.077	1178.296	875.254
244.059	15.203	1177.531	875.264
245.074	15.195	1176.386	874.294
246.088	15.127	1176.053	873.618
247.103	15.093	1175.445	872.908
248.117	15.210	1174.434	872.691
249.132	15.288	1173.438	872.282
250.147	15.435	1172.655	872.386
251.161	15.336	1172.459	871.647
252.176	15.305	1171.333	870.573
253.190	15.457	1170.729	870.834
254.205	15.373	1170.492	870.148
255.220	15.431	1170.050	870.043
256.234	15.395	1169.855	869.633
257.249	15.510	1168.348	869.032
258.263	15.534	1167.677	868.579
259.278	15.464	1166.925	867.578
260.293	15.502	1166.384	867.299
261.307	15.568	1165.990	867.267
262.322	15.655	1165.167	867.030
263.336	15.591	1164.596	866.199
264.351	15.576	1163.994	865.597
265.366	15.655	1163.363	865.458
266.380	15.623	1163.177	865.076
267.395	15.648	1161.775	864.086
268.409	15.660	1160.996	863.491
269.424	15.575	1160.527	862.628
270.439	15.718	1159.654	862.640
271.453	15.638	1159.051	861.703
272.468	15.651	1157.934	860.861
273.482	15.573	1157.715	860.226
274.497	15.666	1156.991	860.087
275.512	15.689	1156.363	859.661
276.526	15.606	1155.512	858.527
277.541	15.670	1154.491	858.019
278.555	15.727	1153.947	857.833
279.570	15.786	1153.162	857.474
280.585	15.785	1152.361	856.797
281.599	15.821	1151.399	856.189
282.614	15.786	1150.745	855.450
283.628	15.754	1149.310	854.142
284.643	15.754	1148.539	853.495
285.657	15.838	1147.743	853.256
286.672	15.836	1146.562	852.290
287.687	15.888	1145.785	851.902
288.701	15.962	1144.900	851.539
289.716	15.911	1144.638	851.012
290.730	15.982	1143.408	850.379
291.745	16.007	1142.660	849.876
292.760	15.942	1142.230	849.155
293.774	15.974	1141.680	848.832
294.789	16.001	1141.474	848.739
295.803	16.121	1140.364	848.442
296.818	16.052	1139.212	847.164
297.833	15.983	1138.629	846.306
298.847	15.974	1138.292	845.935
299.862	16.182	1136.451	845.536
300.876	16.137	1136.403	845.199
301.891	16.068	1135.820	844.346
302.906	16.134	1134.967	843.968
303.920	16.230	1133.981	843.639
304.935	16.347	1133.337	843.672
305.949	16.275	1132.963	842.960
306.964	16.158	1132.658	842.074
307.979	16.303	1131.262	841.681
308.993	16.231	1130.892	840.973
310.008	16.322	1130.408	840.993
311.022	16.373	1129.192	840.269
312.037	16.205	1128.994	839.212
313.052	16.245	1127.641	838.331
314.066	16.264	1126.797	837.723
315.081	16.290	1125.777	837.017
316.095	16.297	1125.214	836.563
317.110	16.171	1124.579	835.390
318.125	16.274	1123.693	835.169
319.139	16.347	1122.830	834.811
320.154	16.354	1122.522	834.546
321.168	16.261	1121.756	833.441
322.183	16.365	1120.893	833.239
323.197	16.337	1120.746	832.921
324.212	16.441	1119.948	832.764
325.227	16.392	1119.472	832.097
326.241	16.370	1118.718	831.353
327.256	16.461	1117.913	831.128
328.270	16.326	1116.791	829.560
329.285	16.363	1116.162	829.202
330.300	16.479	1115.031	828.857
331.314	16.441	1113.909	827.763
332.329	16.460	1113.274	827.312
333.343	16.441	1112.283	826.409
334.358	16.463	1111.946	826.194
335.373	16.600	1110.953	826.050
336.387	16.510	1110.251	825.015
337.402	16.659	1109.366	825.009
338.416	16.597	1108.803	824.217
339.431	16.734	1107.870	824.117
340.446	16.691	1107.587	823.625
341.460	16.713	1106.635	822.949
342.475	16.786	1105.611	822.473
343.489	16.794	1104.924	821.924
344.504	16.785	1104.154	821.238
345.519	16.804	1103.017	820.413
346.533	16.734	1102.643	819.719
347.548	16.780	1101.918	819.330
348.562	16.795	1101.178	818.782
349.577	16.848	1100.050	818.129
350.592	16.789	1099.766	817.557
351.606	16.822	1098.808	816.931
352.621	16.743	1098.003	815.882
353.635	16.829	1097.077	815.536
354.650	16.911	1096.900	815.726
355.665	16.772	1096.197	814.464
356.679	16.891	1095.992	814.811
357.694	16.947	1094.997	814.266
358.708	16.928	1094.380	813.643
359.723	16.983	1093.574	813.240
360.738	17.059	1092.697	812.876
361.752	16.984	1092.358	812.195
362.767	16.982	1092.060	811.891
363.781	17.082	1090.923	811.451
364.796	17.048	1090.681	811.039
365.810	17.057	1090.201	810.654
366.825	17.073	1089.825	810.378
367.840	17.069	1089.374	809.951
368.854	17.230	1088.469	809.974
369.869	17.301	1087.094	809.216
370.883	17.131	1086.501	807.894
371.898	17.094	1086.138	807.376
372.913	17.176	1085.654	807.335
373.927	17.208	1084.755	806.750
374.942	17.191	1084.096	806.107
375.956	17.234	1083.723	805.963
376.971	17.249	1083.405	805.724
377.986	17.323	1082.375	805.237
379.000	17.323	1081.844	804.774
380.015	17.334	1081.687	804.638
381.029	17.386	1080.764	804.124
382.044	17.277	1080.188	803.109
383.059	17.485	1079.559	803.553
384.073	17.393	1078.546	802.295
385.088	17.415	1077.842	801.804
386.102	17.468	1076.410	800.914
387.117	17.449	1075.804	800.304
388.132	17.375	1074.680	799.051
389.146	17.393	1074.056	798.599
390.161	17.531	1073.019	798.404
391.175	17.436	1072.716	797.663
392.190	17.525	1072.161	797.598
393.205	17.569	1071.035	796.896
394.219	17.608	1070.203	796.387
395.234	17.563	1069.453	795.548
396.248	17.504	1068.539	794.522
397.263	17.572	1067.538	794.026
398.278	17.587	1066.777	793.459
399.292	17.649	1066.076	793.158
400.307	17.630	1065.598	792.643
401.321	17.634	1064.871	792.051
402.336	17.603	1064.594	791.628
403.350	17.631	1063.899	791.171
404.365	17.642	1062.924	790.428
405.380	17.579	1062.360	789.647
406.394	17.699	1061.683	789.629
407.409	17.591	1060.802	788.407
408.423	17.775	1059.965	788.565
409.438	17.810	1059.388	788.226
410.453	17.902	1058.228	787.717
411.467	17.825	1058.089	787.189
412.482	17.923	1057.158	786.881
413.496	17.836	1056.678	786.052
414.511	17.864	1056.378	785.888
415.526	17.906	1056.015	785.740
416.540	17.928	1055.369	785.290
417.555	17.985	1054.835	785.088
418.569	17.916	1053.901	784.007
419.584	17.924	1053.711	783.831
420.599	18.102	1052.767	783.876
421.613	109.958	1331.049	1491.010
422.628	101.336	1371.542	1491.098
