DTS Sentinel unit serial number:	SN413079Multiplexer serial number:	ORYXHardware model number:	OX4-SRSoftware version number:	ORYX F/W v4.00 Oryx Data Collector v3.7.2.0data status	okinstallation	princeton_trtdifferential loss correction	single-endedforward channel	channel 2reverse channel	N/Adate	2019/09/14time	10:15:35forward acquisition time	60.00reverse acquisition time	0.00gamma	496.2192k internal	0.2316k external	0.2316temperature offset calibration	1.0136default loss term (dB/km)	0.3790temperature slope calibration	1.0000multiplexer offset coefficient	1.0000multiplexer slope coefficient	1.0000fibre end	0.00T internal ref (°C)	33.97T ext. ref 1 (°C)	4.10T ext. ref 2 (°C)	32.69length (m)	temperature (°C)	Stokes	anti-Stokes-747.200	-200.000	-0.050	0.232
-746.185	59.640	-0.250	0.250
-745.171	38.842	-0.051	0.046
-744.156	47.386	0.052	0.049
-743.142	48.134	-0.024	0.023
-742.127	800.000	-0.099	0.333
-741.112	-124.677	-0.311	0.049
-740.098	-200.000	-0.011	-0.108
-739.083	-117.468	0.266	-0.049
-738.069	-64.526	0.066	-0.027
-737.054	200.177	-0.118	-0.184
-736.039	-125.115	0.068	0.011
-735.025	-200.000	0.013	0.060
-734.010	87.250	0.076	-0.085
-732.996	-40.327	-0.170	0.089
-731.981	800.000	-0.056	-0.206
-730.966	197.105	0.253	-0.391
-729.952	116.745	-0.279	0.347
-728.937	12.794	0.073	0.057
-727.923	-60.233	-0.098	-0.042
-726.908	-200.000	0.004	0.094
-725.894	-27.534	-0.459	-0.270
-724.879	-104.121	0.115	-0.027
-723.864	763.602	0.103	-0.283
-722.850	165.921	-0.072	0.102
-721.835	-26.534	0.215	0.128
-720.821	-32.734	-0.098	-0.055
-719.806	244.744	0.126	-0.215
-718.791	147.186	-0.122	0.167
-717.777	-200.000	-0.009	0.075
-716.762	326.150	-0.018	0.035
-715.748	800.000	0.022	0.081
-714.733	1.773	0.163	-0.119
-713.718	687.025	0.047	-0.123
-712.704	19.665	0.110	0.090
-711.689	-128.623	0.159	-0.023
-710.675	-30.480	-0.304	0.175
-709.660	83.894	-0.112	0.124
-708.645	59.139	-0.089	0.088
-707.631	-182.965	0.104	-0.002
-706.616	589.106	0.025	-0.063
-705.602	-90.843	0.065	-0.019
-704.587	-96.112	-0.147	0.040
-703.572	-62.038	-0.194	0.082
-702.558	-70.258	-0.240	0.092
-701.543	-110.706	0.199	-0.042
-700.529	-200.000	-0.033	-0.461
-699.514	230.336	0.049	-0.081
-698.499	359.608	0.079	-0.159
-697.485	-46.571	-0.303	-0.150
-696.470	-153.795	0.047	-0.003
-695.456	-91.749	0.030	-0.009
-694.441	-107.676	0.174	-0.038
-693.426	-20.609	0.255	-0.158
-692.412	307.295	-0.125	-0.236
-691.397	63.189	-0.238	0.241
-690.383	152.407	-0.145	0.201
-689.368	-71.304	0.093	-0.035
-688.354	-73.277	-0.082	-0.030
-687.339	166.415	-0.053	0.076
-686.324	45.305	-0.183	0.171
-685.310	800.000	0.073	-0.229
-684.295	-60.009	0.152	0.066
-683.281	135.794	0.075	0.099
-682.266	-90.594	0.318	0.093
-681.251	-89.944	0.066	0.019
-680.237	-24.143	0.232	-0.140
-679.222	-137.564	0.086	0.010
-678.208	-200.000	-0.017	-0.126
-677.193	-121.619	0.382	-0.064
-676.178	-122.025	-0.257	-0.043
-675.164	736.710	-0.217	-0.588
-674.149	-93.685	-0.225	0.063
-673.135	-14.128	-0.356	-0.232
-672.120	-87.303	0.121	-0.037
-671.105	14.098	-0.208	-0.164
-670.091	-2.327	-0.249	-0.177
-669.076	61.221	-0.135	-0.135
-668.062	228.072	-0.118	0.194
-667.047	14.933	-0.206	0.163
-666.032	70.051	-0.031	-0.032
-665.018	-200.000	0.004	-0.278
-664.003	800.000	0.095	-0.319
-662.989	88.368	-0.113	0.127
-661.974	-39.860	0.189	0.100
-660.959	544.995	-0.063	-0.151
-659.945	800.000	0.049	-0.181
-658.930	-1.532	-0.293	0.208
-657.916	352.844	-0.024	0.048
-656.901	-44.056	0.196	0.099
-655.886	130.536	-0.005	0.007
-654.872	62.125	-0.243	-0.245
-653.857	24.505	0.262	0.219
-652.843	136.734	-0.204	0.269
-651.828	-200.000	-0.000	-0.193
-650.814	-200.000	-0.003	0.178
-649.799	165.918	0.114	-0.163
-648.784	-57.700	-0.218	-0.096
-647.770	-200.000	-0.040	-0.306
-646.755	800.000	0.067	0.189
-645.741	-31.403	-0.290	-0.165
-644.726	800.000	0.125	0.474
-643.711	-26.749	-0.156	0.092
-642.697	-50.031	0.054	-0.026
-641.682	-111.726	-0.185	0.038
-640.668	-200.000	-0.037	0.184
-639.653	-200.000	-0.071	0.465
-638.638	-200.000	0.011	0.102
-637.624	-157.495	0.209	0.013
-636.609	66.885	-0.130	0.133
-635.595	800.000	-0.036	-0.103
-634.580	92.659	-0.047	-0.054
-633.565	-120.531	-0.287	0.049
-632.551	295.707	0.104	0.192
-631.536	-200.000	-0.029	-0.186
-630.522	121.678	-0.112	-0.141
-629.507	1.591	0.348	-0.253
-628.492	-22.255	-0.195	0.119
-627.478	800.000	0.069	-0.257
-626.463	28.523	0.079	-0.067
-625.449	-53.642	-0.348	-0.160
-624.434	176.374	-0.245	-0.359
-623.419	800.000	0.062	0.252
-622.405	-101.887	-0.077	-0.019
-621.390	133.705	-0.254	-0.331
-620.376	-70.830	0.244	0.093
-619.361	-200.000	-0.039	0.361
-618.346	-73.715	0.125	-0.046
-617.332	-200.000	0.236	-0.001
-616.317	-200.000	-0.005	0.106
-615.303	-200.000	-0.020	0.337
-614.288	-41.065	-0.122	-0.063
-613.273	-166.617	0.245	0.010
-612.259	80.674	0.056	-0.061
-611.244	772.348	0.161	-0.443
-610.230	-200.000	0.028	-0.353
-609.215	34.719	-0.110	-0.097
-608.201	-200.000	0.034	-0.194
-607.186	161.765	0.298	0.421
-606.171	-75.909	-0.156	-0.055
-605.157	77.555	-0.127	-0.136
-604.142	800.000	-0.051	-0.142
-603.128	160.844	0.093	0.131
-602.113	641.456	0.110	-0.281
-601.098	148.063	0.186	-0.253
-600.084	26.592	-0.146	0.123
-599.069	-141.717	-0.212	-0.021
-598.055	439.077	0.073	-0.160
-597.040	183.314	-0.203	-0.302
-596.025	800.000	-0.071	0.223
-595.011	-88.491	-0.068	0.020
-593.996	613.086	0.017	0.042
-592.982	-200.000	-0.006	0.103
-591.967	800.000	-0.046	0.173
-590.952	-3.223	-0.298	-0.209
-589.938	92.310	-0.194	0.220
-588.923	226.641	-0.197	-0.321
-587.909	-29.798	-0.164	0.094
-586.894	-2.503	0.100	0.071
-585.879	-58.956	0.201	0.087
-584.865	-87.716	-0.197	-0.060
-583.850	-78.559	0.206	0.071
-582.836	109.782	0.226	0.273
-581.821	655.328	-0.067	-0.172
-580.806	-98.658	0.507	0.130
-579.792	203.405	0.171	0.266
-578.777	346.634	0.054	-0.107
-577.763	-200.000	0.015	0.236
-576.748	-18.950	-0.279	-0.175
-575.733	-76.844	0.302	-0.106
-574.719	-161.528	-0.166	-0.009
-573.704	315.149	0.079	0.150
-572.690	-200.000	-0.007	0.431
-571.675	-55.312	0.126	-0.057
-570.661	800.000	0.033	-0.134
-569.646	386.193	0.050	0.104
-568.631	719.942	-0.133	0.356
-567.617	-200.000	-0.042	0.210
-566.602	-4.503	0.038	0.026
-565.588	28.869	0.081	-0.069
-564.573	-116.605	-0.145	0.027
-563.558	-200.000	0.025	-0.146
-562.544	-200.000	0.045	0.483
-561.529	-121.471	-0.054	0.009
-560.515	-200.000	0.025	0.193
-559.500	-200.000	-0.007	-0.058
-558.485	-49.337	-0.216	0.103
-557.471	-38.045	0.143	-0.076
-556.456	-200.000	0.031	-0.240
-555.442	-31.791	0.266	0.150
-554.427	-61.757	0.067	0.028
-553.412	-49.704	0.248	0.119
-552.398	266.485	-0.068	0.119
-551.383	800.000	0.034	0.137
-550.369	35.747	-0.125	-0.111
-549.354	-108.531	-0.059	0.013
-548.339	319.624	-0.206	0.393
-547.325	165.771	0.158	0.225
-546.310	-50.519	0.139	0.066
-545.296	800.000	-0.073	0.259
-544.281	800.000	-0.030	-0.110
-543.266	-200.000	0.025	-0.176
-542.252	117.892	-0.139	0.172
-541.237	-200.000	0.048	0.218
-540.223	-51.383	0.082	-0.039
-539.208	-178.591	0.239	0.006
-538.193	474.680	0.027	0.062
-537.179	-54.045	0.214	0.098
-536.164	800.000	0.042	-0.138
-535.150	-70.255	-0.271	0.103
-534.135	800.000	-0.082	0.331
-533.121	-59.504	0.328	0.142
-532.106	274.549	-0.130	0.231
-531.091	-56.254	0.182	-0.081
-530.077	-26.352	0.283	-0.167
-529.062	-135.195	-0.289	-0.035
-528.048	800.000	-0.097	0.301
-527.033	160.053	-0.083	-0.116
-526.018	-200.000	0.022	-0.214
-525.004	-39.968	-0.363	0.190
-523.989	238.307	-0.112	0.187
-522.975	590.139	-0.075	0.187
-521.960	292.306	-0.109	-0.199
-520.945	-80.342	0.065	-0.022
-519.931	615.372	0.087	0.218
-518.916	-100.524	-0.283	-0.070
-517.902	800.000	0.070	-0.294
-516.887	422.720	0.054	0.117
-515.872	302.308	-0.107	-0.199
-514.858	-200.000	0.021	-0.155
-513.843	69.764	0.326	0.338
-512.829	-33.041	0.145	-0.081
-511.814	-42.234	0.095	0.049
-510.799	-47.447	0.295	-0.144
-509.785	79.164	-0.050	0.054
-508.770	17.866	0.265	-0.212
-507.756	-200.000	-0.047	-0.271
-506.741	34.678	-0.390	-0.342
-505.726	-115.904	-0.148	-0.028
-504.712	-67.317	0.162	0.064
-503.697	66.804	0.099	0.101
-502.683	447.870	0.111	0.246
-501.668	37.132	0.304	-0.270
-500.653	78.470	0.185	-0.198
-499.639	233.726	0.102	0.168
-498.624	-25.825	-0.143	-0.085
-497.610	800.000	-0.033	0.130
-496.595	-200.000	-0.023	-0.300
-495.581	197.693	-0.208	-0.319
-494.566	301.626	-0.160	0.297
-493.551	113.510	0.067	0.082
-492.537	158.600	-0.104	0.145
-491.522	74.529	0.205	0.216
-490.508	115.736	0.086	-0.106
-489.493	32.029	-0.253	-0.219
-488.478	-200.000	-0.019	0.293
-487.464	-200.000	-0.011	-0.348
-486.449	46.157	0.179	0.166
-485.435	-151.107	-0.257	0.019
-484.420	94.247	0.215	0.245
-483.405	102.738	-0.122	0.143
-482.391	-2.217	-0.070	0.049
-481.376	-169.930	0.241	0.009
-480.362	-97.209	-0.060	-0.016
-479.347	627.681	0.090	-0.227
-478.332	75.287	-0.137	-0.145
-477.318	-111.341	-0.230	0.047
-476.303	-200.000	-0.019	0.131
-475.289	166.195	0.114	0.161
-474.274	146.845	0.291	-0.392
-473.259	464.902	-0.105	-0.235
-472.245	800.000	-0.117	-0.338
-471.230	-78.086	-0.366	0.126
-470.216	-200.000	0.055	0.392
-469.201	-47.714	-0.055	-0.027
-468.186	-88.337	-0.061	0.018
-467.172	44.458	0.244	0.224
-466.157	-200.000	-0.067	0.470
-465.143	28.098	0.048	0.040
-464.128	800.000	-0.062	0.231
-463.113	-16.103	-0.216	0.137
-462.099	53.838	-0.272	-0.262
-461.084	-11.833	-0.370	0.243
-460.070	-200.000	0.040	0.356
-459.055	-200.000	-0.004	0.048
-458.040	-123.631	0.083	-0.013
-457.026	800.000	-0.086	-0.315
-456.011	93.622	-0.098	0.111
-454.997	800.000	0.052	-0.164
-453.982	-200.000	-0.013	-0.449
-452.968	800.000	0.020	0.075
-451.953	-117.939	0.142	0.025
-450.938	-67.277	-0.228	0.090
-449.924	-81.029	0.219	0.072
-448.909	-130.717	-0.281	0.038
-447.895	737.938	0.025	0.066
-446.880	-54.301	0.186	-0.085
-445.865	800.000	-0.007	0.019
-444.851	678.215	-0.173	-0.451
-443.836	196.834	-0.089	-0.136
-442.822	62.224	0.151	-0.151
-441.807	-179.529	-0.201	-0.004
-440.792	-133.795	-0.051	0.006
-439.778	800.000	0.074	0.218
-438.763	-44.224	0.136	0.068
-437.749	-110.046	-0.162	-0.034
-436.734	277.028	0.153	0.273
-435.719	-200.000	0.030	0.314
-434.705	-31.054	-0.197	-0.111
-433.690	-161.221	0.116	-0.006
-432.676	-125.258	-0.135	-0.021
-431.661	187.325	0.147	-0.219
-430.646	-125.533	0.410	-0.062
-429.632	428.300	0.189	-0.408
-428.617	-139.140	-0.264	0.029
-427.603	800.000	0.026	-0.096
-426.588	-47.793	0.376	0.182
-425.573	-84.346	-0.331	0.105
-424.559	-87.293	0.124	-0.038
-423.544	800.000	0.061	-0.237
-422.530	357.562	0.073	-0.145
-421.515	-80.878	-0.343	0.114
-420.500	-30.813	0.035	-0.020
-419.486	-34.334	0.242	0.133
-418.471	3.589	-0.039	0.029
-417.457	-21.376	-0.045	-0.028
-416.442	21.292	0.160	0.130
-415.428	26.677	-0.149	0.125
-414.413	-21.224	-0.093	-0.057
-413.398	-82.485	-0.229	0.074
-412.384	-200.000	0.014	-0.542
-411.369	206.739	0.117	0.183
-410.355	11.449	0.275	0.210
-409.340	-110.593	-0.344	0.071
-408.325	-31.310	-0.226	0.127
-407.311	56.623	-0.049	-0.048
-406.296	-191.357	-0.208	0.002
-405.282	-37.889	-0.259	-0.138
-404.267	34.008	0.163	0.141
-403.252	-160.528	-0.271	-0.014
-402.238	-4.428	0.152	-0.105
-401.223	-106.519	-0.090	-0.020
-400.209	89.815	0.200	-0.223
-399.194	-7.056	-0.087	0.059
-398.179	208.674	0.167	-0.261
-397.165	63.758	-0.076	-0.076
-396.150	800.000	-0.133	-0.421
-395.136	161.953	0.148	-0.208
-394.121	605.568	-0.133	-0.330
-393.106	-200.000	-0.004	0.117
-392.092	228.474	0.220	0.358
-391.077	-200.000	0.027	0.215
-390.063	-146.947	0.205	-0.018
-389.048	800.000	0.051	-0.171
-388.033	-35.400	-0.254	0.138
-387.019	-88.115	-0.276	0.083
-386.004	-79.982	0.293	0.098
-384.990	525.881	-0.061	-0.144
-383.975	765.441	0.068	-0.183
-382.960	30.769	0.150	-0.128
-381.946	-40.509	0.320	0.166
-380.931	800.000	0.065	0.190
-379.917	-127.782	-0.477	0.069
-378.902	257.649	-0.138	-0.237
-377.888	-200.000	-0.008	0.117
-376.873	-159.155	0.333	0.019
-375.858	-137.960	0.067	0.007
-374.844	68.093	0.096	0.098
-373.829	-78.142	-0.097	0.033
-372.815	-8.441	-0.187	0.125
-371.800	61.047	0.069	-0.068
-370.785	106.374	-0.070	-0.083
-369.771	38.270	-0.085	0.076
-368.756	27.698	-0.187	0.157
-367.742	-200.000	0.059	-0.349
-366.727	-83.052	-0.116	0.037
-365.712	17.364	0.179	0.141
-364.698	-200.000	-0.029	0.172
-363.683	-200.000	0.024	0.151
-362.669	-200.000	0.007	-0.143
-361.654	753.260	0.099	0.267
-360.639	-200.000	0.004	-0.351
-359.625	-77.908	-0.312	0.107
-358.610	-22.903	-0.105	0.063
-357.596	-152.816	-0.190	-0.013
-356.581	800.000	0.065	-0.270
-355.566	54.319	-0.108	0.103
-354.552	-71.430	0.189	0.070
-353.537	-11.755	-0.117	0.077
-352.523	230.031	-0.153	-0.249
-351.508	-120.049	-0.252	-0.043
-350.493	-139.462	0.229	-0.024
-349.479	492.282	0.145	-0.330
-348.464	-26.476	0.206	-0.120
-347.450	39.547	-0.008	0.007
-346.435	1.713	-0.273	-0.196
-345.420	302.897	0.131	0.242
-344.406	-200.000	-0.031	0.273
-343.391	-91.877	-0.251	0.071
-342.377	-146.671	-0.045	0.004
-341.362	87.599	0.248	-0.274
-340.348	71.584	-0.190	0.197
-339.333	153.759	0.088	-0.120
-338.318	11.158	-0.103	0.079
-337.304	337.961	0.215	-0.417
-336.289	283.810	0.212	0.380
-335.275	-66.488	-0.075	0.030
-334.260	411.058	0.037	0.079
-333.245	-97.003	-0.128	-0.033
-332.231	800.000	0.030	0.086
-331.216	-78.559	0.135	0.046
-330.202	-65.410	-0.318	-0.128
-329.187	800.000	0.078	-0.318
-328.172	-123.436	0.203	0.032
-327.158	-11.644	0.461	0.302
-326.143	-6.398	-0.276	-0.188
-325.129	459.990	0.039	0.088
-324.114	266.689	-0.166	-0.288
-323.099	100.726	0.091	0.105
-322.085	34.802	0.051	-0.045
-321.070	-186.975	-0.353	-0.005
-320.056	14.584	0.115	-0.090
-319.041	147.610	0.064	-0.085
-318.026	-118.804	0.339	-0.059
-317.012	-76.674	0.235	-0.082
-315.997	-21.597	0.051	0.031
-314.983	-200.000	-0.070	-0.344
-313.968	-161.443	-0.314	-0.016
-312.953	-137.624	0.474	0.053
-311.939	95.267	0.145	-0.164
-310.924	-200.000	-0.034	0.496
-309.910	-20.785	-0.306	0.187
-308.895	522.041	-0.101	-0.236
-307.880	10.471	0.084	-0.064
-306.866	97.119	-0.031	0.035
-305.851	269.577	-0.163	0.285
-304.837	-127.766	0.268	-0.039
-303.822	-167.994	0.125	-0.005
-302.807	-200.000	0.003	0.282
-301.793	-200.000	-0.034	0.380
-300.778	-143.080	-0.041	0.004
-299.764	184.556	0.244	-0.359
-298.749	-56.976	-0.202	-0.089
-297.735	-5.448	-0.300	-0.205
-296.720	-37.339	0.113	0.060
-295.705	12.823	-0.131	-0.101
-294.691	-89.663	-0.259	0.075
-293.676	62.291	-0.178	-0.177
-292.662	-200.000	0.024	-0.219
-291.647	-60.946	0.227	-0.096
-290.632	182.229	-0.164	-0.240
-289.618	-200.000	-0.021	-0.216
-288.603	8.730	0.268	0.201
-287.589	-200.000	0.060	0.394
-286.574	-111.154	-0.468	-0.095
-285.559	666.094	0.130	-0.333
-284.545	-109.389	0.304	0.064
-283.530	-144.442	0.186	0.017
-282.516	74.860	0.186	0.195
-281.501	166.696	0.189	0.266
-280.486	800.000	0.104	-0.302
-279.472	78.006	0.182	-0.193
-278.457	80.858	-0.026	-0.028
-277.443	41.791	0.104	0.094
-276.428	-11.228	0.301	0.197
-275.413	-200.000	0.025	0.121
-274.399	-200.000	-0.034	0.205
-273.384	72.226	0.060	-0.062
-272.370	-65.089	0.093	-0.037
-271.355	-57.135	-0.113	-0.050
-270.340	39.537	0.174	0.155
-269.326	-163.217	-0.141	0.007
-268.311	139.358	0.175	0.230
-267.297	800.000	0.005	-0.019
-266.282	-110.254	-0.102	0.021
-265.267	627.494	-0.131	-0.330
-264.253	140.498	0.109	0.143
-263.238	149.985	0.129	0.174
-262.224	189.864	-0.138	-0.205
-261.209	-200.000	-0.018	0.157
-260.195	-128.963	-0.224	0.031
-259.180	-131.295	-0.110	0.014
-258.165	-117.449	0.246	-0.044
-257.151	602.533	0.153	-0.377
-256.136	-142.795	0.154	0.015
-255.122	-52.987	0.247	0.113
-254.107	-34.327	-0.193	0.105
-253.092	660.667	0.143	-0.366
-252.078	237.221	-0.127	0.210
-251.063	637.831	-0.071	0.180
-250.049	522.796	0.137	0.320
-249.034	-200.000	0.031	0.211
-248.019	-97.854	-0.157	-0.040
-247.005	-48.926	0.142	-0.067
-245.990	305.818	-0.117	0.216
-244.976	395.616	0.059	0.123
-243.961	113.022	-0.199	0.239
-242.946	-31.441	0.397	0.222
-241.932	-73.099	-0.062	0.023
-240.917	-200.000	-0.074	0.392
-239.903	-2.962	-0.183	0.127
-238.888	33.586	0.120	0.104
-237.873	-200.000	-0.020	-0.255
-236.859	-200.000	-0.027	-0.459
-235.844	18.208	-0.211	-0.167
-234.830	-200.000	-0.029	-0.139
-233.815	237.653	0.135	-0.223
-232.800	-170.658	-0.408	0.014
-231.786	349.404	0.061	-0.119
-230.771	573.778	0.066	-0.161
-229.757	13.395	-0.102	0.078
-228.742	435.625	-0.035	0.076
-227.727	800.000	-0.104	-0.284
-226.713	-11.182	0.181	0.118
-225.698	363.261	0.081	-0.162
-224.684	-164.659	-0.230	-0.010
-223.669	-200.000	0.040	-0.207
-222.655	-53.950	0.109	0.049
-221.640	800.000	0.122	0.340
-220.625	-18.699	0.331	0.205
-219.611	70.603	0.136	0.140
-218.596	52.094	-0.262	0.248
-217.582	-120.336	-0.277	0.047
-216.567	800.000	0.077	0.284
-215.552	-18.534	0.127	0.079
-214.538	95.113	0.223	-0.251
-213.523	-127.388	-0.211	0.030
-212.509	235.744	0.128	-0.210
-211.494	-168.744	0.124	0.005
-210.479	800.000	-0.074	-0.256
-209.465	800.000	-0.101	0.394
-208.450	35.366	-0.303	-0.263
-207.436	-69.490	0.416	0.158
-206.421	46.994	-0.273	-0.252
-205.406	-22.391	0.181	-0.109
-204.392	10.195	-0.103	-0.078
-203.377	237.978	-0.107	-0.177
-202.363	-200.000	0.006	-0.293
-201.348	-49.237	-0.286	-0.135
-200.333	85.136	0.182	0.198
-199.319	194.578	-0.133	0.200
-198.304	62.985	-0.268	0.266
-197.290	39.059	0.184	-0.164
-196.275	411.843	0.153	0.321
-195.260	-50.081	0.297	0.139
-194.246	-68.976	-0.149	-0.057
-193.231	23.389	-0.129	0.105
-192.217	-31.175	-0.332	-0.185
-191.202	-61.350	0.153	0.064
-190.187	-113.243	-0.341	-0.067
-189.173	-51.009	-0.284	-0.132
-188.158	-18.844	-0.031	-0.019
-187.144	289.632	0.044	0.079
-186.129	-47.750	0.181	-0.087
-185.114	-30.612	-0.310	-0.174
-184.100	-97.374	0.216	-0.056
-183.085	-108.269	-0.223	-0.048
-182.071	-112.386	0.245	-0.048
-181.056	-142.635	-0.194	-0.019
-180.042	535.081	-0.054	0.128
-179.027	-200.000	-0.001	-0.078
-178.012	-8.856	0.081	-0.054
-176.998	-111.174	0.072	-0.015
-175.983	140.765	0.241	-0.316
-174.969	22.012	0.434	-0.351
-173.954	-68.936	-0.275	0.105
-172.939	-29.887	0.241	0.136
-171.925	-59.625	0.246	-0.104
-170.910	-5.175	-0.099	0.067
-169.896	430.773	0.068	0.146
-168.881	8.883	0.037	-0.027
-167.866	-124.434	-0.307	-0.047
-166.852	-29.975	0.046	0.026
-165.837	-157.998	0.119	-0.007
-164.823	-200.000	0.049	-0.228
-163.808	-59.482	0.259	-0.110
-162.793	-200.000	0.007	0.109
-161.779	64.263	0.114	-0.114
-160.764	203.772	0.166	-0.254
-159.750	-200.000	0.015	0.278
-158.735	171.532	-0.139	0.198
-157.720	-86.151	-0.199	-0.061
-156.706	-61.612	-0.120	-0.050
-155.691	-20.689	0.062	-0.038
-154.677	-33.016	0.303	-0.166
-153.662	286.254	-0.209	-0.374
-152.647	-93.383	-0.064	0.018
-151.633	-200.000	-0.029	-0.293
-150.618	-200.000	-0.012	-0.057
-149.604	228.149	0.042	0.068
-148.589	-200.000	-0.039	0.400
-147.574	38.460	-0.169	0.149
-146.560	385.790	0.099	-0.202
-145.545	800.000	0.143	-0.512
-144.531	47.854	0.080	0.074
-143.516	-200.000	-0.062	-0.404
-142.502	-181.759	-0.275	0.005
-141.487	-77.322	0.125	-0.043
-140.472	748.101	-0.093	0.247
-139.458	-71.254	-0.354	0.131
-138.443	85.025	-0.153	0.166
-137.429	-114.687	0.185	0.035
-136.414	34.575	0.122	0.105
-135.399	-69.584	-0.297	0.112
-134.385	-65.370	0.289	0.115
-133.370	-119.718	0.367	0.063
-132.356	-103.852	0.061	-0.014
-131.341	302.924	0.054	0.098
-130.326	631.292	0.185	-0.463
-129.312	-200.000	-0.005	0.078
-128.297	-200.000	0.007	-0.067
-127.283	-143.379	0.237	0.022
-126.268	207.886	-0.218	-0.337
-125.253	19.594	0.057	0.045
-124.239	-5.560	0.372	0.252
-123.224	-160.453	0.166	0.009
-122.210	-48.235	0.236	0.113
-121.195	-82.621	-0.241	0.077
-120.180	-200.000	-0.018	0.227
-119.166	-127.094	0.297	-0.043
-118.151	15.893	-0.152	0.118
-117.137	-135.102	0.094	0.011
-116.122	-148.398	-0.087	-0.007
-115.107	-107.262	0.240	-0.052
-114.093	427.131	-0.061	-0.129
-113.078	80.112	0.223	0.237
-112.064	-78.323	0.356	-0.121
-111.049	89.003	-0.132	0.145
-110.034	130.499	-0.115	0.146
-109.020	418.995	0.074	0.157
-108.005	-140.520	-0.174	0.018
-106.991	-99.236	0.162	0.040
-105.976	111.092	-0.323	0.385
-104.962	246.114	-0.089	0.147
-103.947	-200.000	0.011	-0.188
-102.932	800.000	-0.045	0.126
-101.918	-200.000	0.037	0.371
-100.903	-144.993	-0.138	-0.012
-99.889	-145.587	-0.168	0.015
-98.874	-125.538	0.259	0.039
-97.859	-0.734	-0.104	-0.073
-96.845	329.910	0.144	0.274
-95.830	220.084	0.148	-0.234
-94.816	-10.841	0.186	-0.121
-93.801	61.872	-0.138	-0.136
-92.786	-115.034	0.424	0.079
-91.772	800.000	-0.056	0.178
-90.757	-200.000	0.017	0.350
-89.743	-123.293	0.465	0.073
-88.728	-55.722	0.257	0.113
-87.713	-43.894	0.250	0.124
-86.699	800.000	0.003	0.008
-85.684	761.474	-0.075	0.201
-84.670	33.878	-0.093	0.080
-83.655	87.549	0.261	-0.285
-82.640	-101.978	0.223	0.053
-81.626	-200.000	-0.324	-0.000
-80.611	800.000	-0.126	0.387
-79.597	-200.000	0.006	0.255
-78.582	-76.139	0.022	-0.008
-77.567	-19.358	-0.197	-0.120
-76.553	118.080	-0.093	-0.113
-75.538	-104.933	0.283	0.064
-74.524	-24.200	0.197	0.116
-73.509	-24.826	-0.316	0.185
-72.494	-200.000	0.055	0.248
-71.480	-200.000	0.031	0.175
-70.465	36.141	0.183	0.159
-69.451	-200.000	-0.034	0.295
-68.436	-158.441	0.404	-0.023
-67.422	496.180	0.119	-0.269
-66.407	800.000	0.137	-0.427
-65.392	-183.390	-0.149	0.003
-64.378	56.819	0.149	-0.143
-63.363	122.884	0.078	-0.097
-62.349	556.113	-0.048	-0.114
-61.334	167.320	-0.902	-1.263
-60.319	289.479	0.198	0.354
-59.305	364.011	-0.443	-0.879
-58.290	198.822	0.588	0.888
-57.276	800.000	0.539	1.852
-56.261	-200.000	95.652	552.805
-55.246	612.382	1398.660	3449.853
-54.232	181.979	2641.817	3835.598
-53.217	112.677	2340.564	2793.718
-52.203	43.481	1947.850	1755.236
-51.188	37.175	1731.910	1511.668
-50.173	34.412	1686.200	1450.727
-49.159	51.047	1734.041	1620.582
-48.144	53.974	1752.354	1660.219
-47.130	36.929	1708.266	1488.903
-46.115	34.009	1693.414	1453.615
-45.100	33.857	1688.271	1447.992
-44.086	33.878	1685.454	1445.673
-43.071	33.901	1682.606	1443.352
-42.057	33.808	1680.953	1441.166
-41.042	33.876	1678.554	1439.566
-40.027	33.962	1676.240	1438.180
-39.013	33.920	1674.532	1436.337
-37.998	33.806	1672.570	1433.737
-36.984	33.841	1671.344	1432.895
-35.969	34.002	1669.581	1432.542
-34.954	33.933	1668.091	1430.686
-33.940	33.986	1666.714	1429.842
-32.925	33.972	1664.545	1427.826
-31.911	34.006	1662.760	1426.491
-30.896	33.959	1660.977	1424.552
-29.881	33.947	1659.281	1422.951
-28.867	33.964	1657.481	1421.475
-27.852	33.963	1656.229	1420.342
-26.838	33.902	1654.760	1418.567
-25.823	33.898	1653.539	1417.433
-24.809	34.008	1651.845	1416.747
-23.794	34.076	1650.212	1415.794
-22.779	34.050	1648.736	1414.279
-21.765	34.006	1647.251	1412.623
-20.750	33.923	1645.492	1410.445
-19.736	33.978	1644.213	1409.699
-18.721	34.164	1642.069	1409.185
-17.706	34.023	1640.816	1407.007
-16.692	33.890	1639.536	1404.873
-15.677	34.011	1637.785	1404.212
-14.663	33.971	1636.486	1402.741
-13.648	33.955	1635.111	1401.395
-12.633	33.972	1633.726	1400.277
-11.619	34.131	1631.755	1399.700
-10.604	34.019	1630.681	1397.896
-9.590	34.049	1629.074	1396.685
-8.575	34.002	1628.129	1395.473
-7.560	34.015	1626.789	1394.370
-6.546	33.926	1625.452	1392.516
-5.531	33.916	1624.513	1391.582
-4.517	33.949	1622.937	1390.416
-3.502	33.922	1622.311	1389.631
-2.487	34.135	1620.583	1389.647
-1.473	34.139	1609.961	1380.516
-0.458	32.331	1591.838	1351.940
0.556	30.415	1593.476	1323.594
1.571	28.335	1618.425	1329.121
2.586	27.512	1631.711	1333.893
3.600	23.651	1575.133	1260.178
4.615	13.643	1458.652	1100.749
5.629	5.494	1392.078	998.591
6.644	4.173	1383.848	984.217
7.659	4.071	1381.769	982.003
8.673	4.066	1381.317	981.561
9.688	4.079	1379.300	980.126
10.702	4.034	1376.977	978.100
11.717	7.630	1383.992	1005.796
12.731	16.701	1400.058	1075.235
13.746	21.646	1407.301	1112.191
14.761	20.934	1405.087	1105.826
15.775	19.895	1402.537	1097.137
16.790	18.880	1399.524	1088.257
17.804	18.054	1397.411	1081.294
18.819	17.709	1396.049	1077.967
19.834	17.372	1394.832	1074.800
20.848	17.188	1393.771	1072.727
21.863	17.009	1392.320	1070.385
22.877	16.957	1390.995	1068.947
23.892	16.911	1390.126	1067.893
24.907	16.965	1389.252	1067.465
25.921	16.805	1388.686	1065.928
26.936	16.944	1387.578	1065.861
27.950	16.954	1386.784	1065.218
28.965	16.982	1385.580	1064.374
29.980	17.138	1384.616	1064.516
30.994	17.139	1383.817	1063.819
32.009	17.317	1381.893	1063.357
33.023	17.277	1380.996	1062.321
34.038	17.110	1379.591	1060.101
35.053	17.023	1378.811	1058.867
36.067	17.055	1377.294	1057.811
37.082	17.087	1376.306	1057.154
38.096	17.104	1375.291	1056.389
39.111	17.106	1374.876	1055.987
40.126	17.038	1373.843	1054.676
41.140	16.837	1372.698	1052.459
42.155	16.778	1372.007	1051.468
43.169	16.581	1372.393	1050.450
44.184	16.619	1372.215	1050.456
45.199	16.815	1371.054	1050.688
46.213	16.821	1371.064	1050.641
47.228	16.945	1369.945	1050.457
48.242	17.008	1368.701	1049.799
49.257	16.988	1367.421	1048.603
50.271	17.091	1365.404	1047.599
51.286	17.049	1364.298	1046.397
52.301	16.989	1362.967	1044.915
53.315	16.866	1361.962	1043.297
54.330	16.845	1360.875	1042.245
55.344	16.765	1359.737	1040.785
56.359	16.790	1358.518	1039.915
57.374	16.827	1357.743	1039.459
58.388	16.709	1357.118	1038.162
59.403	16.691	1356.426	1037.434
60.417	16.700	1355.722	1036.855
61.432	16.592	1354.877	1035.457
62.447	16.668	1353.840	1035.037
63.461	16.520	1352.571	1033.070
64.476	16.561	1351.408	1032.342
65.490	16.497	1350.419	1031.104
66.505	16.561	1348.724	1030.112
67.520	16.598	1347.281	1029.144
68.534	16.638	1346.378	1028.602
69.549	16.644	1345.678	1028.017
70.563	16.620	1344.557	1026.925
71.578	16.385	1343.617	1024.688
72.593	16.404	1342.532	1023.886
73.607	16.385	1341.936	1023.223
74.622	16.412	1341.154	1022.700
75.636	16.446	1340.267	1022.139
76.651	16.416	1340.074	1021.722
77.666	16.509	1339.066	1021.426
78.680	16.550	1338.438	1021.099
79.695	16.548	1338.146	1020.776
80.709	16.804	1336.923	1021.300
81.724	16.680	1336.427	1020.080
82.739	16.741	1335.457	1019.618
83.753	16.957	1334.804	1020.327
84.768	17.040	1333.729	1019.914
85.782	17.077	1332.744	1019.294
86.797	17.054	1331.574	1018.173
87.812	17.026	1330.117	1016.799
88.826	16.965	1329.137	1015.594
89.841	16.989	1327.827	1014.645
90.855	17.096	1326.988	1014.558
91.870	17.060	1326.397	1013.799
92.884	17.199	1325.001	1013.469
93.899	17.177	1324.305	1012.717
94.914	17.214	1323.633	1012.338
95.928	17.190	1322.581	1011.301
96.943	17.066	1321.844	1009.905
97.957	17.120	1320.704	1009.266
98.972	17.050	1320.387	1008.518
99.987	17.103	1319.004	1007.692
101.001	17.067	1317.731	1006.415
102.016	17.061	1316.861	1005.623
103.030	17.143	1315.916	1005.299
104.045	17.087	1315.558	1004.606
105.060	17.043	1313.930	1003.016
106.074	16.739	1312.497	1000.039
107.089	16.736	1310.855	998.682
108.103	16.665	1309.467	997.118
109.118	16.566	1308.380	995.616
110.133	16.600	1307.062	994.724
111.147	16.611	1305.562	993.563
112.162	16.641	1304.446	992.797
113.176	16.695	1303.637	992.412
114.191	16.775	1302.547	991.964
115.206	16.769	1301.358	990.934
116.220	16.753	1300.048	989.754
117.235	16.717	1299.123	988.752
118.249	16.773	1297.519	987.771
119.264	16.724	1296.614	986.713
120.279	16.703	1295.274	985.482
121.293	16.660	1294.538	984.588
122.308	16.600	1293.364	983.255
123.322	16.529	1292.568	982.150
124.337	16.546	1291.337	981.226
125.352	16.581	1290.070	980.383
126.366	16.583	1288.643	979.223
127.381	16.658	1287.701	978.851
128.395	16.594	1286.840	977.745
129.410	16.615	1286.117	977.227
130.424	16.620	1285.409	976.634
131.439	16.667	1284.590	976.195
132.454	16.726	1283.443	975.574
133.468	16.736	1282.664	974.953
134.483	16.918	1281.587	975.096
135.497	16.814	1280.631	973.687
136.512	16.771	1279.637	972.596
137.527	16.860	1277.952	971.743
138.541	16.849	1276.531	970.510
139.556	16.772	1275.603	969.277
140.570	16.889	1274.925	969.346
141.585	17.015	1273.595	968.972
142.600	17.025	1272.446	968.065
143.614	17.076	1271.454	967.516
144.629	17.064	1270.768	966.839
145.643	17.036	1269.635	965.732
146.658	16.964	1268.145	964.106
147.673	16.925	1266.994	962.922
148.687	16.849	1265.475	961.255
149.702	16.936	1263.461	960.135
150.716	16.831	1262.905	959.028
151.731	16.866	1261.761	958.274
152.746	16.877	1260.494	957.289
153.760	16.814	1259.602	956.170
154.775	16.949	1258.037	955.661
155.789	16.989	1257.345	955.273
156.804	16.997	1256.079	954.273
157.819	17.120	1255.031	954.082
158.833	17.098	1254.293	953.318
159.848	17.315	1253.236	953.647
160.862	17.133	1252.515	951.989
161.877	16.979	1251.346	950.159
162.892	16.983	1250.003	949.074
163.906	16.869	1249.161	947.716
164.921	16.952	1247.916	947.150
165.935	16.942	1247.920	947.016
166.950	16.976	1246.826	946.287
167.964	16.997	1246.049	945.729
168.979	17.033	1245.407	945.359
169.994	17.039	1244.633	944.725
171.008	17.080	1243.518	944.022
172.023	17.171	1242.940	944.005
173.037	17.240	1242.087	943.657
174.052	17.164	1241.458	942.676
175.067	17.144	1239.750	941.180
176.081	17.004	1239.095	939.825
177.096	16.962	1238.447	939.018
178.110	17.038	1236.894	938.181
179.125	17.151	1235.596	937.736
180.140	17.035	1234.600	936.260
181.154	17.105	1233.893	936.026
182.169	17.187	1232.806	935.569
183.183	17.288	1231.827	935.297
184.198	17.336	1230.173	934.224
185.213	17.352	1229.086	933.401
186.227	17.412	1228.023	932.844
187.242	17.407	1226.964	931.930
188.256	17.516	1225.817	931.572
189.271	17.535	1225.161	931.097
190.286	17.277	1224.359	928.995
191.300	16.981	1223.245	926.446
192.315	16.975	1222.177	925.524
193.329	16.928	1221.580	924.734
194.344	17.081	1221.364	925.322
195.359	17.057	1220.535	924.482
196.373	17.332	1219.530	925.138
197.388	17.332	1219.641	925.137
198.402	17.499	1219.311	925.713
199.417	17.609	1218.568	925.665
200.432	17.648	1217.862	925.260
201.446	17.661	1216.756	924.406
202.461	17.717	1216.058	924.100
203.475	17.777	1215.114	923.625
204.490	17.623	1213.560	921.531
205.504	17.590	1212.255	920.281
206.519	17.518	1211.148	918.967
207.534	17.495	1209.726	917.684
208.548	17.399	1209.429	916.862
209.563	17.573	1208.351	916.899
210.577	17.454	1207.845	915.791
211.592	17.564	1206.883	915.573
212.607	17.637	1205.845	915.099
213.621	17.772	1204.938	915.055
214.636	17.623	1203.820	913.325
215.650	17.721	1202.871	913.046
216.665	17.772	1201.620	912.292
217.680	17.725	1201.655	911.984
218.694	17.786	1200.723	911.525
219.709	17.856	1199.770	911.090
220.723	17.744	1199.184	909.971
221.738	17.892	1198.224	909.948
222.753	17.760	1197.557	908.657
223.767	17.823	1197.098	908.568
224.782	17.986	1195.641	908.245
225.796	18.004	1195.702	908.307
226.811	17.951	1194.969	907.390
227.826	17.919	1193.849	906.290
228.840	17.784	1193.438	905.181
229.855	17.786	1192.512	904.409
230.869	17.859	1191.822	904.189
231.884	17.807	1190.842	903.092
232.899	17.845	1189.650	902.310
233.913	17.704	1189.247	901.178
234.928	17.780	1188.138	900.663
235.942	17.645	1187.569	899.438
236.957	17.675	1186.816	898.945
237.972	17.698	1186.038	898.396
238.986	17.740	1185.561	898.179
240.001	17.780	1184.815	897.746
241.015	17.744	1184.065	896.904
242.030	17.874	1183.054	896.746
243.045	17.788	1182.308	895.650
244.059	17.843	1181.723	895.417
245.074	17.950	1180.697	895.120
246.088	17.967	1179.627	894.316
247.103	18.052	1178.972	894.185
248.117	18.092	1178.545	893.991
249.132	18.342	1177.689	894.572
250.147	18.350	1177.025	894.031
251.161	18.301	1176.986	893.664
252.176	18.512	1175.338	893.433
253.190	18.522	1175.100	893.224
254.205	18.528	1174.769	892.927
255.220	18.561	1174.071	892.489
256.234	18.551	1173.306	891.777
257.249	18.469	1172.987	891.029
258.263	18.475	1172.121	890.323
259.278	18.589	1171.097	890.060
260.293	18.471	1170.939	889.245
261.307	18.626	1170.342	889.517
262.322	18.711	1169.378	889.146
263.336	18.676	1169.196	888.752
264.351	18.773	1168.399	888.569
265.366	18.750	1167.465	887.659
266.380	18.683	1166.653	886.617
267.395	18.672	1165.810	885.842
268.409	18.539	1165.547	884.877
269.424	18.502	1164.472	883.789
270.439	18.609	1163.623	883.618
271.453	18.627	1162.758	882.976
272.468	18.572	1161.793	881.884
273.482	18.569	1160.815	881.046
274.497	18.556	1160.720	880.830
275.512	18.627	1159.834	880.445
276.526	18.531	1159.190	879.387
277.541	18.596	1158.257	878.934
278.555	18.512	1157.645	877.963
279.570	18.718	1156.872	878.349
280.585	18.766	1156.291	878.080
281.599	18.848	1155.316	877.679
282.614	18.805	1154.244	876.565
283.628	18.710	1153.388	875.356
284.643	18.744	1152.284	874.614
285.657	18.791	1151.046	873.835
286.672	18.693	1150.513	872.852
287.687	18.832	1149.619	872.807
288.701	18.815	1148.802	872.021
289.716	18.823	1148.038	871.408
290.730	18.817	1147.409	870.819
291.745	18.802	1146.850	870.244
292.760	18.825	1145.866	869.535
293.774	18.997	1145.652	870.164
294.789	19.110	1144.897	870.087
295.803	18.963	1144.377	868.874
296.818	18.869	1143.573	867.708
297.833	18.994	1142.399	867.376
298.847	18.922	1141.946	866.588
299.862	18.887	1141.248	865.808
300.876	18.872	1140.839	865.343
301.891	18.987	1139.892	865.126
302.906	19.153	1139.209	865.367
303.920	19.116	1138.524	864.586
304.935	19.283	1137.959	864.918
305.949	19.303	1137.407	864.520
306.964	19.220	1136.887	863.633
307.979	19.263	1135.486	862.706
308.993	19.149	1135.300	861.922
310.008	19.212	1134.194	861.319
311.022	19.308	1133.579	861.254
312.037	19.265	1132.803	860.377
313.052	19.207	1131.748	859.208
314.066	19.153	1130.662	858.037
315.081	18.935	1130.401	856.679
316.095	18.996	1128.915	855.778
317.110	19.083	1128.023	855.459
318.125	18.975	1127.832	854.702
319.139	19.032	1126.998	854.278
320.154	19.071	1126.319	853.884
321.168	18.949	1125.698	852.729
322.183	19.084	1125.180	852.933
323.197	19.101	1124.528	852.446
324.212	19.156	1123.854	852.132
325.227	19.212	1123.329	851.934
326.241	19.228	1122.167	851.059
327.256	19.131	1121.938	850.328
328.270	19.182	1120.609	849.500
329.285	19.139	1119.670	848.499
330.300	19.176	1119.031	848.122
331.314	19.121	1118.248	847.187
332.329	19.139	1116.918	846.191
333.343	19.286	1116.028	846.165
334.358	19.379	1115.400	846.069
335.373	19.480	1114.561	845.853
336.387	19.378	1114.048	844.886
337.402	19.345	1113.482	844.224
338.416	19.412	1112.589	843.797
339.431	19.598	1111.875	844.092
340.446	19.448	1111.644	843.108
341.460	19.718	1110.285	843.320
342.475	19.654	1109.782	842.552
343.489	19.661	1109.072	841.972
344.504	19.769	1108.236	841.788
345.519	19.851	1107.430	841.500
346.533	19.813	1106.577	840.592
347.548	19.887	1105.934	840.390
348.562	19.774	1105.197	839.208
349.577	19.755	1104.339	838.388
350.592	19.555	1103.337	836.586
351.606	19.515	1102.607	835.763
352.621	19.496	1101.790	834.981
353.635	19.483	1100.893	834.164
354.650	19.578	1100.250	834.061
355.665	19.653	1099.427	833.726
356.679	19.626	1099.076	833.253
357.694	19.735	1098.725	833.440
358.708	19.693	1097.990	832.606
359.723	19.775	1097.380	832.465
360.738	19.709	1096.382	831.318
361.752	19.724	1096.003	831.027
362.767	19.767	1095.695	830.929
363.781	19.770	1094.822	830.209
364.796	19.924	1094.154	830.364
365.810	19.959	1093.850	830.232
366.825	20.080	1093.446	830.431
367.840	20.058	1092.803	829.761
368.854	20.244	1091.991	829.960
369.869	20.228	1091.279	829.274
370.883	20.058	1090.758	827.989
371.898	20.021	1090.018	827.180
372.913	20.082	1089.149	826.737
373.927	20.095	1088.540	826.261
374.942	20.173	1088.172	826.284
375.956	20.156	1087.715	825.781
376.971	20.076	1086.825	824.653
377.986	20.225	1086.098	824.736
379.000	20.241	1086.011	824.672
380.015	20.303	1085.331	824.378
381.029	20.356	1084.391	823.841
382.044	20.298	1083.700	822.969
383.059	20.345	1082.822	822.454
384.073	20.308	1082.383	821.870
385.088	20.354	1081.369	821.248
386.102	20.360	1080.310	820.400
387.117	20.289	1079.620	819.465
388.132	20.192	1078.687	818.226
389.146	20.038	1078.127	817.003
390.161	20.080	1077.002	816.276
391.175	20.160	1076.409	816.133
392.190	20.158	1075.806	815.591
393.205	20.381	1074.775	815.785
394.219	20.376	1074.313	815.342
395.234	20.388	1073.265	814.528
396.248	20.209	1072.300	812.885
397.263	20.156	1071.413	811.893
398.278	20.185	1070.167	811.015
399.292	20.155	1069.805	810.529
400.307	20.153	1068.874	809.740
401.321	20.111	1068.259	809.006
402.336	20.206	1067.712	808.962
403.350	20.271	1066.796	808.501
404.365	20.222	1065.985	807.587
405.380	20.236	1065.794	807.438
406.394	20.335	1065.015	807.237
407.409	20.401	1064.449	807.043
408.423	20.526	1063.566	806.880
409.438	20.583	1063.266	806.847
410.453	20.654	1062.339	806.400
411.467	20.692	1061.642	805.979
412.482	20.742	1061.353	805.917
413.496	20.744	1060.446	805.167
414.511	20.836	1059.459	804.772
415.526	20.881	1059.527	804.960
416.540	20.878	1058.977	804.457
417.555	20.874	1058.150	803.738
418.569	20.881	1057.553	803.248
419.584	20.795	1057.120	802.452
420.599	20.868	1056.709	802.405
421.613	151.241	1402.219	1788.060
422.628	138.865	1452.563	1788.174
