DTS Sentinel unit serial number:	SN413079Multiplexer serial number:	ORYXHardware model number:	OX4-SRSoftware version number:	ORYX F/W v4.00 Oryx Data Collector v3.7.2.0data status	okinstallation	princeton_trtdifferential loss correction	single-endedforward channel	channel 2reverse channel	N/Adate	2019/09/14time	01:15:35forward acquisition time	60.00reverse acquisition time	0.00gamma	496.2192k internal	0.2337k external	0.2337temperature offset calibration	1.0127default loss term (dB/km)	0.3790temperature slope calibration	1.0000multiplexer offset coefficient	1.0000multiplexer slope coefficient	1.0000fibre end	0.00T internal ref (°C)	26.37T ext. ref 1 (°C)	3.19T ext. ref 2 (°C)	21.41length (m)	temperature (°C)	Stokes	anti-Stokes-747.200	112.234	0.221	0.269
-746.185	548.503	-0.194	0.468
-745.171	336.787	-0.089	0.173
-744.156	-133.895	-0.178	-0.022
-743.142	-108.227	-0.213	0.046
-742.127	-200.000	-0.039	0.325
-741.112	112.361	0.136	-0.165
-740.098	-138.724	-0.185	0.020
-739.083	-49.792	0.331	0.158
-738.069	-41.547	-0.216	-0.112
-737.054	-200.000	0.032	-0.244
-736.039	-103.135	-0.317	-0.075
-735.025	586.967	0.009	0.022
-734.010	2.582	0.165	0.120
-732.996	-33.111	-0.352	-0.196
-731.981	-117.343	-0.161	0.029
-730.966	-200.000	0.046	0.326
-729.952	-200.000	0.024	0.426
-728.937	68.139	0.130	-0.133
-727.923	536.189	-0.099	-0.237
-726.908	-200.000	-0.019	-0.188
-725.894	-79.446	0.268	-0.091
-724.879	-99.367	-0.292	0.074
-723.864	-86.491	0.267	0.082
-722.850	-133.954	0.262	-0.033
-721.835	-28.586	-0.137	-0.079
-720.821	-200.000	-0.024	0.173
-719.806	76.544	0.130	-0.139
-718.791	-3.647	0.319	-0.222
-717.777	-83.708	-0.083	-0.027
-716.762	370.756	0.067	0.136
-715.748	29.511	-0.122	0.104
-714.733	266.337	0.171	0.299
-713.718	347.105	0.074	-0.146
-712.704	-200.000	-0.024	-0.271
-711.689	-39.378	-0.510	0.268
-710.675	-200.000	-0.001	-0.179
-709.660	-200.000	0.009	0.222
-708.645	-200.000	-0.003	0.262
-707.631	800.000	-0.104	-0.299
-706.616	542.180	-0.275	-0.656
-705.602	-78.965	0.170	-0.058
-704.587	-107.878	0.209	-0.046
-703.572	308.620	-0.137	0.256
-702.558	439.184	-0.041	0.089
-701.543	-69.202	0.306	-0.118
-700.529	-64.991	0.314	-0.127
-699.514	341.362	0.067	-0.132
-698.499	4.981	-0.175	0.129
-697.485	-43.011	-0.087	0.044
-696.470	-149.912	-0.068	-0.005
-695.456	-63.354	-0.273	-0.113
-694.441	-148.651	0.010	0.001
-693.426	-200.000	-0.003	-0.048
-692.412	-74.763	-0.166	0.060
-691.397	717.928	-0.048	-0.128
-690.383	-25.177	-0.244	-0.145
-689.368	-62.793	-0.401	-0.167
-688.354	112.310	0.227	-0.275
-687.339	-15.668	-0.122	-0.078
-686.324	5.077	0.196	-0.144
-685.310	199.799	0.248	-0.381
-684.295	800.000	0.067	0.200
-683.281	-75.689	-0.160	0.057
-682.266	-11.138	0.086	-0.057
-681.251	-181.039	0.318	-0.006
-680.237	186.851	0.135	0.201
-679.222	-167.747	-0.378	-0.015
-678.208	-200.000	0.034	0.165
-677.193	-200.000	-0.034	0.157
-676.178	-73.146	0.307	0.113
-675.164	800.000	0.076	-0.278
-674.149	-106.159	0.072	0.016
-673.135	17.965	-0.021	0.017
-672.120	172.589	-0.103	0.149
-671.105	13.473	-0.087	0.067
-670.091	-89.191	-0.055	0.016
-669.076	584.396	-0.100	-0.246
-668.062	276.442	-0.109	0.193
-667.047	-200.000	-0.013	-0.199
-666.032	-169.139	-0.282	-0.010
-665.018	422.681	0.086	-0.184
-664.003	-46.339	0.194	-0.096
-662.989	-1.136	0.208	0.147
-661.974	-80.498	0.290	0.097
-660.959	800.000	0.048	-0.161
-659.945	126.810	0.181	0.229
-658.930	6.343	-0.468	0.348
-657.916	-62.806	-0.049	0.020
-656.901	-182.587	-0.170	0.003
-655.886	-19.251	0.023	-0.014
-654.872	-55.471	-0.179	0.080
-653.857	130.923	0.136	-0.175
-652.843	110.582	0.092	-0.110
-651.828	-200.000	0.028	-0.364
-650.814	-151.986	-0.248	0.018
-649.799	56.752	-0.211	0.205
-648.784	123.173	-0.315	0.394
-647.770	-200.000	-0.005	-0.076
-646.755	52.651	-0.207	-0.198
-645.741	187.313	0.154	0.230
-644.726	102.014	-0.286	0.334
-643.711	-189.932	-0.082	0.001
-642.697	255.815	0.151	-0.258
-641.682	-184.268	-0.223	-0.004
-640.668	-200.000	-0.005	-0.274
-639.653	800.000	0.128	-0.401
-638.638	-74.820	-0.263	0.094
-637.624	36.861	0.299	0.265
-636.609	-43.615	0.062	-0.031
-635.595	257.746	0.099	-0.170
-634.580	213.461	0.018	-0.028
-633.565	-15.205	-0.196	0.126
-632.551	62.255	-0.077	0.077
-631.536	48.029	-0.126	-0.117
-630.522	-124.598	-0.157	-0.024
-629.507	300.044	0.090	-0.166
-628.492	-68.844	-0.317	-0.122
-627.478	-58.654	-0.078	0.034
-626.463	-200.000	-0.015	-0.135
-625.449	-103.595	-0.275	-0.064
-624.434	-0.626	0.287	0.204
-623.419	-200.000	0.028	-0.534
-622.405	-65.627	-0.210	0.084
-621.390	-31.147	0.068	-0.039
-620.376	-141.253	0.057	0.006
-619.361	800.000	0.073	-0.278
-618.346	393.198	-0.031	-0.064
-617.332	67.114	0.095	-0.097
-616.317	-200.000	-0.004	0.020
-615.303	-33.922	0.072	0.039
-614.288	-184.117	0.464	-0.008
-613.273	235.092	0.204	0.336
-612.259	-77.362	-0.241	0.084
-611.244	-144.146	-0.246	0.023
-610.230	-200.000	-0.042	0.251
-609.215	-85.053	0.371	0.116
-608.201	-70.624	0.163	-0.062
-607.186	49.550	0.083	-0.078
-606.171	-200.000	-0.011	-0.209
-605.157	-10.636	0.108	-0.071
-604.142	-102.266	0.251	0.060
-603.128	-77.904	-0.208	-0.072
-602.113	-200.000	-0.048	0.245
-601.098	42.262	-0.231	-0.209
-600.084	38.500	0.139	-0.124
-599.069	-70.139	-0.102	-0.039
-598.055	-156.089	-0.075	0.005
-597.040	-200.000	0.017	0.204
-596.025	525.777	0.126	0.296
-595.011	9.968	0.049	0.037
-593.996	800.000	-0.014	-0.042
-592.982	-9.206	-0.271	0.181
-591.967	48.913	-0.204	-0.191
-590.952	-55.818	-0.374	0.167
-589.938	188.008	0.144	-0.214
-588.923	-200.000	-0.005	0.029
-587.909	-200.000	0.032	-0.375
-586.894	138.595	0.050	-0.065
-585.879	-200.000	0.023	0.261
-584.865	-50.948	0.138	0.065
-583.850	-148.431	0.154	-0.013
-582.836	745.354	-0.060	0.160
-581.821	-21.468	-0.073	0.044
-580.806	-144.352	0.207	-0.019
-579.792	56.705	-0.114	0.110
-578.777	800.000	0.042	0.143
-577.763	-114.261	0.204	-0.039
-576.748	224.129	-0.172	-0.277
-575.733	604.958	-0.078	-0.195
-574.719	142.821	0.186	-0.246
-573.704	-200.000	-0.024	-0.146
-572.690	43.216	0.114	0.104
-571.675	4.038	-0.125	0.091
-570.661	121.469	0.128	-0.159
-569.646	-194.302	0.055	0.000
-568.631	-200.000	-0.039	0.222
-567.617	141.860	-0.056	-0.074
-566.602	-102.933	0.165	0.039
-565.588	775.918	0.022	-0.060
-564.573	536.294	-0.098	-0.232
-563.558	185.940	0.055	0.082
-562.544	352.383	-0.055	0.109
-561.529	-71.746	-0.178	-0.066
-560.515	22.689	-0.090	0.073
-559.500	-55.634	0.178	-0.079
-558.485	8.661	-0.059	-0.045
-557.471	440.192	0.109	0.238
-556.456	800.000	0.047	-0.169
-555.442	-1.201	-0.297	0.209
-554.427	51.233	-0.332	-0.314
-553.412	-200.000	-0.081	-0.363
-552.398	-93.207	-0.313	-0.087
-551.383	435.484	-0.157	0.339
-550.369	-200.000	-0.006	0.030
-549.354	-200.000	0.017	-0.119
-548.339	-59.663	0.387	-0.165
-547.325	-200.000	-0.080	-0.419
-546.310	3.942	0.101	-0.073
-545.296	370.060	-0.069	-0.140
-544.281	800.000	0.026	-0.111
-543.266	-6.591	-0.202	-0.137
-542.252	257.898	0.074	0.126
-541.237	298.415	-0.262	0.479
-540.223	-68.019	-0.108	-0.042
-539.208	159.747	-0.303	-0.421
-538.193	90.398	0.221	0.246
-537.179	-87.234	-0.148	0.045
-536.164	57.184	-0.193	0.187
-535.150	445.620	-0.041	0.089
-534.135	-200.000	-0.029	0.324
-533.121	72.702	-0.147	-0.153
-532.106	800.000	0.054	-0.166
-531.091	-25.109	-0.382	-0.226
-530.077	-152.430	-0.191	0.014
-529.062	-200.000	-0.014	0.271
-528.048	-200.000	-0.001	-0.162
-527.033	-200.000	-0.003	0.133
-526.018	258.963	0.040	-0.069
-525.004	800.000	-0.095	0.302
-523.989	800.000	-0.121	-0.345
-522.975	128.008	-0.136	-0.172
-521.960	154.852	-0.094	-0.129
-520.945	-166.995	0.153	-0.006
-519.931	-83.275	0.112	0.036
-518.916	-122.391	-0.358	-0.058
-517.902	-52.922	0.107	-0.049
-516.887	91.099	-0.071	-0.079
-515.872	555.162	0.066	0.159
-514.858	67.968	-0.072	0.074
-513.843	227.378	0.062	0.101
-512.829	800.000	0.017	-0.059
-511.814	52.821	-0.118	-0.112
-510.799	800.000	0.075	-0.290
-509.785	43.379	0.187	0.170
-508.770	132.312	0.016	-0.020
-507.756	84.623	-0.044	-0.047
-506.741	190.053	0.067	-0.100
-505.726	-74.914	-0.171	0.061
-504.712	132.253	0.183	0.234
-503.697	-109.927	-0.576	0.120
-502.683	-84.822	-0.063	-0.020
-501.668	-200.000	-0.009	-0.082
-500.653	-200.000	-0.000	-0.143
-499.639	-10.617	0.206	-0.135
-498.624	-200.000	-0.003	0.200
-497.610	-16.653	0.271	0.170
-496.595	-17.823	-0.246	-0.153
-495.581	-103.171	-0.146	-0.034
-494.566	-62.896	0.157	0.064
-493.551	-200.000	0.040	0.368
-492.537	33.908	0.136	0.118
-491.522	109.908	-0.077	0.092
-490.508	306.325	0.066	0.122
-489.493	800.000	0.059	-0.183
-488.478	-153.625	0.071	0.005
-487.464	187.340	-0.127	-0.188
-486.449	-152.955	0.273	0.019
-485.435	48.383	-0.095	0.088
-484.420	463.860	0.070	0.155
-483.405	622.194	0.098	0.246
-482.391	-150.541	-0.228	0.017
-481.376	202.290	0.151	0.231
-480.362	-47.888	-0.091	-0.044
-479.347	-31.541	-0.322	-0.180
-478.332	323.098	0.112	0.211
-477.318	-85.189	-0.079	-0.025
-476.303	-79.961	-0.132	0.044
-475.289	164.111	0.101	0.142
-474.274	273.501	-0.207	0.364
-473.259	449.662	-0.129	0.283
-472.245	800.000	0.047	0.152
-471.230	-200.000	0.000	-0.072
-470.216	-200.000	0.067	0.292
-469.201	-38.023	0.017	0.009
-468.186	-113.534	0.225	-0.044
-467.172	-163.947	-0.158	0.007
-466.157	-200.000	0.018	-0.224
-465.143	-183.872	0.073	0.001
-464.128	-109.040	0.298	0.063
-463.113	-120.042	0.269	0.046
-462.099	-200.000	0.014	-0.133
-461.084	-105.373	-0.146	0.033
-460.070	-200.000	-0.017	-0.233
-459.055	800.000	0.069	-0.190
-458.040	-129.139	-0.359	0.050
-457.026	-129.798	-0.070	0.010
-456.011	-137.944	-0.070	-0.008
-454.997	78.006	-0.173	-0.183
-453.982	50.210	0.207	0.194
-452.968	-134.904	-0.161	0.019
-451.953	-200.000	0.008	0.147
-450.938	-88.527	-0.216	-0.064
-449.924	-92.680	-0.193	0.054
-448.909	-200.000	-0.039	0.571
-447.895	755.525	-0.072	-0.194
-446.880	-53.363	-0.283	-0.129
-445.865	-66.273	0.197	0.078
-444.851	110.460	-0.051	0.060
-443.836	-105.057	0.422	0.096
-442.822	4.498	0.192	-0.140
-441.807	800.000	0.072	0.201
-440.792	800.000	-0.072	0.244
-439.778	585.072	0.160	-0.390
-438.763	-200.000	-0.010	-0.054
-437.749	381.278	0.066	0.134
-436.734	491.321	-0.099	-0.224
-435.719	-99.205	-0.148	0.037
-434.705	66.637	-0.241	-0.243
-433.690	-18.384	0.070	0.044
-432.676	800.000	0.112	-0.332
-431.661	3.577	0.059	0.042
-430.646	-148.404	0.262	-0.021
-429.632	-200.000	0.006	0.070
-428.617	800.000	0.035	0.130
-427.603	-200.000	0.063	-0.299
-426.588	-67.124	0.173	0.068
-425.573	-17.784	-0.171	0.106
-424.559	-14.331	0.280	0.179
-423.544	520.321	-0.046	0.108
-422.530	30.147	0.224	-0.190
-421.515	-44.742	0.062	-0.031
-420.500	-50.537	0.367	0.172
-419.486	-62.629	-0.165	0.068
-418.471	-1.203	-0.228	-0.160
-417.457	76.845	0.190	-0.200
-416.442	-13.087	-0.163	-0.105
-415.428	-187.768	-0.354	0.005
-414.413	800.000	-0.078	0.255
-413.398	-105.785	0.130	-0.029
-412.384	-34.861	-0.236	-0.128
-411.369	-85.510	-0.124	0.038
-410.355	-200.000	-0.036	-0.217
-409.340	-200.000	0.002	-0.223
-408.325	614.250	-0.135	-0.335
-407.311	32.610	0.241	0.207
-406.296	325.379	0.154	-0.291
-405.282	458.581	-0.135	-0.298
-404.267	-8.734	0.222	-0.148
-403.252	-77.055	-0.409	0.141
-402.238	116.977	-0.240	-0.292
-401.223	114.698	-0.131	-0.158
-400.209	-200.000	0.009	-0.157
-399.194	-106.244	0.220	-0.049
-398.179	-40.597	-0.102	-0.052
-397.165	-99.623	-0.241	0.060
-396.150	800.000	0.036	0.107
-395.136	-200.000	0.001	0.208
-394.121	-128.632	-0.214	0.030
-393.106	-200.000	0.002	-0.157
-392.092	800.000	-0.046	-0.141
-391.077	-95.979	0.527	0.139
-390.063	-116.690	-0.154	-0.028
-389.048	-200.000	0.013	-0.175
-388.033	357.912	-0.044	0.087
-387.019	-7.270	0.164	-0.110
-386.004	-146.974	0.106	-0.009
-384.990	363.411	-0.038	0.075
-383.975	-200.000	0.046	-0.367
-382.960	-200.000	0.045	0.456
-381.946	-200.000	-0.034	0.205
-380.931	800.000	-0.029	0.106
-379.917	71.062	-0.076	-0.078
-378.902	610.305	0.034	-0.085
-377.888	-200.000	0.015	-0.106
-376.873	-200.000	0.105	0.566
-375.858	-200.000	0.022	0.187
-374.844	-127.456	0.210	-0.030
-373.829	-186.548	0.308	0.004
-372.815	-59.470	-0.315	0.134
-371.800	-187.470	0.401	-0.005
-370.785	183.741	-0.084	0.124
-369.771	800.000	0.035	0.137
-368.756	-200.000	0.411	-0.002
-367.742	766.185	0.060	-0.161
-366.727	54.880	-0.198	0.189
-365.712	-138.076	0.167	-0.018
-364.698	36.257	-0.111	-0.097
-363.683	69.017	0.083	0.084
-362.669	386.452	0.124	0.252
-361.654	-115.573	0.431	0.080
-360.639	-183.365	-0.301	-0.005
-359.625	-65.068	0.348	0.139
-358.610	-85.003	0.162	-0.050
-357.596	-75.848	-0.337	-0.118
-356.581	318.867	0.017	0.031
-355.566	-169.222	-0.210	-0.008
-354.552	-179.518	-0.240	-0.005
-353.537	-97.080	-0.006	-0.001
-352.523	-107.517	0.312	0.067
-351.508	-143.838	0.168	-0.016
-350.493	-81.453	0.214	-0.070
-349.479	-114.105	-0.211	0.040
-348.464	-157.385	0.065	0.004
-347.450	-200.000	0.011	-0.218
-346.435	286.210	-0.162	-0.289
-345.420	278.986	-0.142	-0.250
-344.406	53.061	0.130	-0.123
-343.391	79.335	-0.045	-0.048
-342.377	-40.740	0.109	0.056
-341.362	24.607	0.212	-0.173
-340.348	267.561	-0.090	-0.156
-339.333	-12.952	-0.073	-0.047
-338.318	-19.205	0.203	0.125
-337.304	-80.789	-0.061	-0.020
-336.289	-119.538	-0.191	-0.033
-335.275	800.000	-0.034	-0.113
-334.260	23.897	-0.175	0.143
-333.245	152.313	0.085	-0.114
-332.231	-92.116	-0.273	0.076
-331.216	-21.145	0.255	0.154
-330.202	-200.000	-0.005	0.219
-329.187	-200.000	0.083	0.443
-328.172	-200.000	-0.030	-0.149
-327.158	-19.802	0.020	-0.012
-326.143	-99.411	0.133	-0.033
-325.129	255.339	-0.253	0.427
-324.114	120.974	0.300	0.368
-323.099	-99.944	-0.306	-0.075
-322.085	-30.660	0.193	-0.108
-321.070	-54.820	-0.291	-0.130
-320.056	-77.741	-0.189	-0.065
-319.041	47.635	-0.165	-0.152
-318.026	-154.613	0.289	0.019
-317.012	-200.000	0.004	0.244
-315.997	316.723	0.044	0.082
-314.983	90.714	-0.078	0.086
-313.968	-200.000	-0.015	-0.082
-312.953	2.391	-0.276	0.197
-311.939	-79.810	0.258	0.086
-310.924	-36.908	-0.212	0.112
-309.910	96.836	0.122	-0.138
-308.895	-132.589	0.176	-0.022
-307.880	12.433	-0.301	-0.229
-306.866	-86.967	0.342	-0.103
-305.851	35.043	0.113	0.098
-304.837	-142.771	-0.131	-0.013
-303.822	308.570	-0.061	0.112
-302.807	48.369	0.020	-0.019
-301.793	800.000	0.053	-0.194
-300.778	54.035	0.354	0.336
-299.764	277.768	-0.208	0.365
-298.749	-147.739	-0.216	0.018
-297.735	468.047	0.056	-0.125
-296.720	162.486	0.265	-0.367
-295.705	76.274	0.225	0.235
-294.691	-142.648	0.298	-0.029
-293.676	-23.935	0.233	-0.137
-292.662	63.653	-0.060	-0.059
-291.647	-200.000	-0.017	-0.300
-290.632	-200.000	-0.013	0.131
-289.618	-200.000	0.022	-0.149
-288.603	130.331	-0.067	0.084
-287.589	-101.608	-0.226	0.054
-286.574	89.255	-0.076	0.084
-285.559	285.897	0.122	-0.216
-284.545	327.488	-0.014	0.026
-283.530	-200.000	-0.050	0.393
-282.516	-94.324	0.285	0.077
-281.501	-24.487	0.043	0.025
-280.486	-200.000	0.003	0.050
-279.472	-200.000	0.033	0.154
-278.457	-119.258	-0.077	-0.013
-277.443	800.000	0.034	-0.092
-276.428	14.299	-0.111	-0.085
-275.413	68.676	0.099	0.100
-274.399	-200.000	0.000	-0.084
-273.384	-150.461	-0.039	-0.003
-272.370	-104.438	0.238	0.054
-271.355	159.428	-0.107	-0.147
-270.340	-43.617	-0.127	0.063
-269.326	-120.598	-0.157	-0.026
-268.311	-177.322	-0.175	-0.004
-267.297	274.928	-0.329	-0.574
-266.282	212.076	0.097	0.151
-265.267	-45.642	0.050	0.024
-264.253	30.465	0.231	0.194
-263.238	-200.000	0.052	-0.297
-262.224	-74.734	-0.139	0.049
-261.209	234.580	0.144	-0.234
-260.195	-26.013	0.145	0.084
-259.180	207.472	0.126	0.193
-258.165	-200.000	-0.009	-0.138
-257.151	-200.000	-0.008	0.137
-256.136	-67.109	-0.505	-0.196
-255.122	-200.000	0.003	0.126
-254.107	160.681	0.070	0.097
-253.092	-130.661	-0.283	0.038
-252.078	-200.000	0.053	0.358
-251.063	68.076	0.126	0.127
-250.049	89.151	-0.079	0.087
-249.034	553.731	0.075	-0.178
-248.019	17.319	-0.185	-0.145
-247.005	-200.000	0.001	-0.022
-245.990	-52.989	-0.101	0.046
-244.976	-80.051	-0.038	-0.012
-243.961	80.400	0.125	-0.133
-242.946	-200.000	-0.008	0.178
-241.932	-129.442	0.254	0.035
-240.917	9.151	-0.247	0.184
-239.903	-64.676	-0.207	0.083
-238.888	-108.936	0.131	0.028
-237.873	29.676	-0.255	0.214
-236.859	210.427	0.096	0.148
-235.844	-33.857	-0.097	0.052
-234.830	-35.137	-0.310	-0.166
-233.815	128.707	-0.069	-0.086
-232.800	698.041	0.071	-0.183
-231.786	-123.326	0.128	-0.020
-230.771	-200.000	0.035	-0.258
-229.757	800.000	0.055	-0.181
-228.742	-65.906	0.397	0.156
-227.727	-166.511	-0.156	0.006
-226.713	-200.000	-0.005	-0.150
-225.698	-154.375	-0.056	-0.004
-224.684	-137.460	-0.088	-0.010
-223.669	-200.000	0.015	0.185
-222.655	524.936	-0.152	-0.352
-221.640	-86.382	-0.194	-0.059
-220.625	162.355	-0.159	0.219
-219.611	800.000	-0.022	0.095
-218.596	-135.205	0.372	0.044
-217.582	246.356	-0.247	0.410
-216.567	-200.000	0.049	-0.249
-215.552	107.866	-0.187	-0.219
-214.538	-7.967	0.331	-0.220
-213.523	175.399	0.193	-0.274
-212.509	800.000	0.099	0.360
-211.494	-33.001	0.291	-0.158
-210.479	-81.753	-0.238	0.077
-209.465	800.000	0.059	-0.172
-208.450	-4.037	0.203	-0.138
-207.436	-200.000	0.007	0.225
-206.421	266.358	0.128	0.220
-205.406	240.431	0.131	0.215
-204.392	19.896	0.285	0.226
-203.377	213.862	0.164	-0.254
-202.363	-178.907	-0.307	-0.007
-201.348	361.388	0.130	-0.257
-200.333	-200.000	0.005	0.211
-199.319	390.145	0.174	0.354
-198.304	-34.156	0.291	-0.157
-197.290	590.479	0.099	-0.240
-196.275	-200.000	-0.004	-0.132
-195.260	118.498	0.229	0.278
-194.246	-51.021	0.280	-0.129
-193.231	800.000	0.058	-0.160
-192.217	86.375	0.049	-0.053
-191.202	-108.311	-0.095	0.020
-190.187	-47.905	-0.330	0.157
-189.173	10.383	-0.227	-0.170
-188.158	130.238	0.079	0.099
-187.144	800.000	0.030	-0.106
-186.129	-50.897	0.430	0.198
-185.114	5.453	0.257	-0.186
-184.100	-48.217	-0.117	-0.056
-183.085	800.000	-0.061	0.241
-182.071	231.114	-0.186	-0.299
-181.056	133.873	0.217	0.276
-180.042	402.995	0.164	0.339
-179.027	4.774	-0.121	0.087
-178.012	-200.000	0.087	0.406
-176.998	292.533	0.127	0.228
-175.983	1.629	-0.164	-0.116
-174.969	-17.431	-0.160	0.099
-173.954	10.853	0.044	0.033
-172.939	-111.686	0.451	-0.090
-171.925	-84.858	-0.419	0.129
-170.910	262.191	0.120	0.204
-169.896	284.870	-0.130	-0.229
-168.881	22.345	0.317	-0.254
-167.866	-30.745	0.306	-0.170
-166.852	41.354	0.268	0.238
-165.837	-124.379	-0.255	0.039
-164.823	-200.000	-0.035	0.293
-163.808	-200.000	0.006	-0.263
-162.793	-15.827	0.163	0.102
-161.779	800.000	0.049	-0.197
-160.764	-152.480	-0.071	-0.005
-159.750	-146.146	-0.180	0.016
-158.735	-66.071	-0.184	-0.072
-157.720	-56.715	0.399	-0.173
-156.706	800.000	0.025	-0.097
-155.691	2.333	-0.159	-0.113
-154.677	-200.000	0.057	0.364
-153.662	260.176	0.225	-0.382
-152.647	-142.922	-0.238	-0.023
-151.633	800.000	0.067	-0.271
-150.618	81.205	0.079	-0.084
-149.604	800.000	-0.026	-0.073
-148.589	489.643	0.082	0.184
-147.574	211.778	0.056	0.086
-146.560	45.408	-0.224	0.202
-145.545	-57.376	-0.082	-0.035
-144.531	185.722	-0.106	-0.154
-143.516	800.000	-0.046	-0.145
-142.502	92.578	-0.097	0.108
-141.487	-69.758	0.166	-0.062
-140.472	-112.502	-0.470	-0.092
-139.458	-93.100	0.022	-0.006
-138.443	-114.127	0.047	-0.009
-137.429	-69.952	-0.157	-0.059
-136.414	-25.631	0.221	0.128
-135.399	393.202	0.052	0.107
-134.385	7.751	-0.215	0.158
-133.370	-119.383	0.272	0.046
-132.356	-16.495	0.172	-0.107
-131.341	395.227	-0.109	-0.224
-130.326	-29.483	-0.171	0.096
-129.312	83.913	-0.084	-0.090
-128.297	-19.448	-0.106	-0.064
-127.283	12.099	0.141	-0.106
-126.268	-147.223	0.337	-0.028
-125.253	-125.659	-0.135	0.020
-124.239	800.000	0.065	-0.224
-123.224	59.941	0.140	-0.135
-122.210	-200.000	-0.088	-0.441
-121.195	-22.774	0.124	0.073
-120.180	-130.567	0.206	0.027
-119.166	-143.543	0.189	0.018
-118.151	-194.943	0.123	0.001
-117.137	-81.664	-0.173	0.055
-116.122	-200.000	0.026	0.264
-115.107	-140.056	-0.160	0.016
-114.093	-200.000	0.013	-0.273
-113.078	-22.576	0.185	0.109
-112.064	-41.023	0.228	0.115
-111.049	-50.464	0.099	-0.046
-110.034	204.230	-0.266	0.403
-109.020	-200.000	0.030	-0.201
-108.005	-5.209	-0.059	-0.040
-106.991	-107.292	0.117	0.025
-105.976	800.000	0.038	-0.108
-104.962	-200.000	-0.008	0.256
-103.947	157.471	-0.128	0.174
-102.932	-111.678	0.185	0.037
-101.918	28.372	0.223	-0.184
-100.903	434.948	0.022	0.047
-99.889	-99.825	0.168	0.041
-98.874	-37.930	-0.257	0.134
-97.859	-4.011	-0.343	-0.233
-96.845	-101.628	0.321	-0.076
-95.830	140.254	0.208	0.268
-94.816	800.000	0.068	-0.234
-93.801	-183.470	0.186	0.003
-92.786	-12.281	-0.059	0.038
-91.772	116.992	0.061	-0.073
-90.757	449.601	-0.015	-0.033
-89.743	274.696	0.070	-0.122
-88.728	116.429	0.094	-0.113
-87.713	-114.019	0.214	0.041
-86.699	-25.703	0.145	0.084
-85.684	136.216	-0.096	-0.122
-84.670	628.974	0.067	-0.165
-83.655	197.975	0.074	-0.111
-82.640	83.137	-0.123	0.131
-81.626	-169.925	0.181	-0.006
-80.611	-200.000	0.016	0.236
-79.597	754.848	-0.081	-0.213
-78.582	-200.000	0.022	-0.388
-77.567	-84.399	0.370	-0.114
-76.553	-200.000	-0.004	-0.086
-75.538	69.464	-0.135	-0.136
-74.524	-102.273	0.467	-0.110
-73.509	532.876	0.113	0.262
-72.494	-39.638	0.278	-0.142
-71.480	-196.648	0.074	0.000
-70.465	-200.000	0.029	0.281
-69.451	-1.590	-0.063	0.043
-68.436	800.000	-0.088	-0.291
-67.422	192.889	0.026	-0.039
-66.407	621.391	-0.038	-0.095
-65.392	-200.000	-0.029	0.188
-64.378	-125.437	0.196	-0.029
-63.363	-93.397	0.371	0.100
-62.349	135.361	-0.065	-0.083
-61.334	44.824	-1.107	-0.995
-60.319	-11.941	0.836	0.535
-59.305	389.507	-0.667	-1.350
-58.290	723.128	0.486	1.264
-57.276	539.274	0.660	1.534
-56.261	-200.000	116.212	642.035
-55.246	498.282	1540.502	3465.925
-54.232	174.479	2719.543	3841.985
-53.217	98.073	2293.575	2579.083
-52.203	35.275	1902.390	1629.421
-51.188	29.556	1695.491	1408.674
-50.173	27.053	1655.176	1356.458
-49.159	46.952	1713.086	1555.786
-48.144	45.623	1726.098	1557.447
-47.130	29.011	1683.168	1394.086
-46.115	26.441	1668.718	1362.730
-45.100	26.312	1663.621	1357.548
-44.086	26.284	1660.959	1355.106
-43.071	26.235	1658.606	1352.772
-42.057	26.206	1655.905	1350.297
-41.042	26.321	1653.795	1349.379
-40.027	26.275	1651.781	1347.342
-39.013	26.281	1649.991	1345.870
-37.998	26.227	1648.457	1344.163
-36.984	26.273	1647.232	1343.454
-35.969	26.383	1646.142	1343.333
-34.954	26.416	1644.219	1341.951
-33.940	26.351	1642.724	1340.198
-32.925	26.376	1641.195	1339.081
-31.911	26.346	1639.595	1337.500
-30.896	26.381	1637.547	1336.036
-29.881	26.388	1635.945	1334.726
-28.867	26.341	1634.780	1333.379
-27.852	26.381	1633.014	1332.181
-26.838	26.415	1631.597	1331.221
-25.823	26.414	1630.044	1329.891
-24.809	26.377	1628.843	1328.589
-23.794	26.351	1627.680	1327.398
-22.779	26.404	1625.660	1326.088
-21.765	26.408	1623.985	1324.694
-20.750	26.361	1622.493	1323.079
-19.736	26.368	1621.465	1322.245
-18.721	26.412	1620.095	1321.396
-17.706	26.336	1618.403	1319.404
-16.692	26.335	1617.014	1318.216
-15.677	26.485	1615.089	1317.688
-14.663	26.557	1613.760	1317.072
-13.648	26.374	1612.827	1314.930
-12.633	26.390	1611.061	1313.551
-11.619	26.374	1609.428	1312.055
-10.604	26.364	1608.227	1310.946
-9.590	26.433	1606.612	1310.079
-8.575	26.433	1605.128	1308.819
-7.560	26.404	1604.109	1307.725
-6.546	26.442	1602.860	1306.932
-5.531	26.413	1602.171	1306.105
-4.517	26.415	1600.979	1305.098
-3.502	26.420	1599.963	1304.251
-2.487	26.459	1598.279	1303.112
-1.473	26.080	1586.475	1290.728
-0.458	23.436	1566.995	1256.119
0.556	20.901	1568.897	1225.885
1.571	18.694	1592.953	1228.785
2.586	18.274	1605.006	1234.944
3.600	16.127	1549.599	1177.235
4.615	9.463	1442.385	1052.255
5.629	4.041	1383.790	975.337
6.644	3.238	1376.337	964.967
7.659	3.154	1375.305	963.630
8.673	3.178	1374.511	963.137
9.688	3.180	1372.956	961.980
10.702	3.187	1369.338	959.402
11.717	5.743	1373.935	978.509
12.731	12.931	1387.354	1033.149
13.746	18.975	1397.556	1078.678
14.761	20.408	1398.927	1088.631
15.775	19.736	1397.024	1082.843
16.790	18.732	1394.231	1074.302
17.804	17.999	1391.755	1067.721
18.819	17.680	1390.126	1064.386
19.834	17.404	1389.851	1062.360
20.848	17.262	1388.949	1060.686
21.863	17.188	1386.863	1058.541
22.877	16.965	1386.396	1056.704
23.892	17.007	1384.543	1055.459
24.907	16.926	1384.621	1054.920
25.921	16.921	1383.556	1053.982
26.936	16.997	1382.329	1053.430
27.950	17.002	1381.736	1052.915
28.965	17.100	1380.582	1052.549
29.980	17.210	1379.599	1052.386
30.994	17.268	1377.966	1051.410
32.009	17.307	1377.105	1050.899
33.023	17.335	1375.909	1050.064
34.038	17.325	1374.804	1049.068
35.053	17.139	1373.771	1047.039
36.067	17.130	1372.389	1045.842
37.082	17.063	1371.529	1044.678
38.096	17.282	1370.507	1045.153
39.111	17.230	1369.629	1044.073
40.126	17.138	1368.726	1042.728
41.140	16.879	1367.583	1040.177
42.155	16.952	1366.802	1039.936
43.169	16.767	1366.792	1038.702
44.184	16.820	1366.374	1038.617
45.199	16.745	1366.324	1038.025
46.213	16.857	1365.957	1038.342
47.228	17.094	1364.588	1038.662
48.242	17.043	1363.874	1037.715
49.257	16.979	1362.112	1035.891
50.271	17.063	1360.455	1035.049
51.286	17.176	1359.123	1034.637
52.301	17.047	1358.074	1032.959
53.315	17.026	1356.848	1031.810
54.330	16.846	1355.783	1029.815
55.344	16.864	1354.474	1028.838
56.359	16.805	1353.310	1027.504
57.374	16.673	1353.146	1026.487
58.388	16.670	1351.882	1025.422
59.403	16.762	1351.309	1025.451
60.417	16.732	1350.933	1024.896
61.432	16.603	1349.780	1023.147
62.447	16.619	1348.868	1022.462
63.461	16.583	1347.802	1021.350
64.476	16.588	1346.307	1020.156
65.490	16.556	1345.027	1018.904
66.505	16.601	1343.667	1018.054
67.520	16.677	1342.191	1017.300
68.534	16.628	1341.401	1016.320
69.549	16.574	1340.477	1015.202
70.563	16.620	1339.457	1014.618
71.578	16.458	1337.877	1012.358
72.593	16.424	1337.249	1011.589
73.607	16.426	1336.566	1011.000
74.622	16.506	1335.411	1010.515
75.636	16.502	1335.135	1010.194
76.651	16.493	1334.081	1009.253
77.666	16.460	1333.790	1008.745
78.680	16.473	1333.578	1008.571
79.695	16.633	1332.524	1008.641
80.709	16.621	1332.000	1008.084
81.724	16.755	1331.266	1008.235
82.739	16.787	1330.238	1007.560
83.753	16.941	1329.371	1007.728
84.768	17.114	1328.722	1008.174
85.782	17.257	1327.066	1007.674
86.797	17.075	1326.271	1005.906
87.812	17.007	1324.791	1004.287
88.826	17.056	1323.433	1003.461
89.841	17.108	1322.527	1002.991
90.855	17.093	1321.802	1002.265
91.870	17.129	1321.303	1002.010
92.884	17.204	1320.400	1001.681
93.899	17.143	1319.781	1000.763
94.914	17.301	1318.754	1000.823
95.928	17.133	1318.111	999.261
96.943	17.246	1316.986	998.982
97.957	17.095	1316.134	997.361
98.972	17.089	1315.126	996.475
99.987	17.179	1314.042	996.090
101.001	17.150	1313.055	995.084
102.016	17.142	1311.981	994.138
103.030	17.154	1310.988	993.366
104.045	17.129	1310.218	992.549
105.060	16.962	1308.723	990.352
106.074	16.877	1307.320	988.711
107.089	16.747	1305.478	986.473
108.103	16.623	1304.669	985.054
109.118	16.608	1303.142	983.724
110.133	16.717	1301.556	983.073
111.147	16.599	1300.580	981.565
112.162	16.646	1299.336	980.812
113.176	16.707	1298.487	980.436
114.191	16.737	1297.463	979.752
115.206	16.729	1296.230	978.684
116.220	16.710	1295.314	977.800
117.235	16.790	1293.706	976.957
118.249	16.642	1293.140	975.589
119.264	16.609	1291.492	974.071
120.279	16.579	1290.456	973.030
121.293	16.539	1289.673	972.125
122.308	16.515	1288.356	970.909
123.322	16.547	1287.479	970.347
124.337	16.562	1286.271	969.439
125.352	16.509	1284.524	967.729
126.366	16.513	1283.898	967.195
127.381	16.487	1282.932	966.235
128.395	16.426	1282.218	965.264
129.410	16.655	1280.829	965.440
130.424	16.571	1280.292	964.470
131.439	16.710	1279.427	964.526
132.454	16.690	1278.624	963.720
133.468	16.724	1278.033	963.381
134.483	16.646	1277.764	962.648
135.497	16.832	1276.153	962.407
136.512	16.690	1274.931	960.596
137.527	16.761	1273.207	959.614
138.541	16.717	1272.025	958.389
139.556	16.924	1270.769	958.526
140.570	17.062	1269.785	958.481
141.585	17.107	1268.744	957.861
142.600	17.164	1267.858	957.430
143.614	17.126	1267.270	956.687
144.629	17.208	1265.776	955.937
145.643	17.259	1264.576	955.231
146.658	17.110	1263.511	953.507
147.673	16.913	1262.207	951.335
148.687	16.950	1260.682	950.309
149.702	16.801	1259.311	948.356
150.716	16.749	1258.420	947.307
151.731	16.820	1257.322	946.796
152.746	16.882	1255.557	945.730
153.760	17.014	1254.646	945.694
154.775	17.085	1253.821	945.383
155.789	17.064	1253.032	944.590
156.804	17.027	1251.789	943.365
157.819	17.083	1251.162	943.117
158.833	17.153	1249.985	942.538
159.848	17.234	1249.527	942.556
160.862	17.252	1248.389	941.716
161.877	17.012	1246.714	939.042
162.892	16.973	1245.231	937.627
163.906	16.947	1244.709	937.007
164.921	16.819	1244.330	935.928
165.935	16.935	1243.519	935.878
166.950	17.089	1242.474	935.854
167.964	17.062	1241.854	935.157
168.979	17.056	1241.042	934.430
169.994	16.982	1240.251	933.343
171.008	17.007	1239.800	933.061
172.023	17.238	1238.657	933.388
173.037	17.221	1238.555	933.135
174.052	17.176	1237.333	931.883
175.067	17.034	1235.759	929.841
176.081	16.824	1234.771	927.864
177.096	16.968	1233.785	927.825
178.110	17.028	1232.716	927.267
179.125	17.115	1231.545	926.781
180.140	17.009	1230.523	925.351
181.154	17.132	1229.388	925.087
182.169	17.251	1228.455	924.952
183.183	17.345	1227.474	924.642
184.198	17.416	1226.064	923.883
185.213	17.353	1225.116	922.746
186.227	17.307	1223.820	921.439
187.242	17.392	1222.650	920.936
188.256	17.490	1221.836	920.769
189.271	17.505	1220.979	920.125
190.286	17.218	1220.200	917.905
191.300	16.996	1219.050	915.764
192.315	16.918	1218.296	914.693
193.329	16.954	1217.337	914.085
194.344	16.986	1217.283	914.139
195.359	17.188	1216.828	914.806
196.373	17.179	1216.123	914.146
197.388	17.315	1216.020	914.718
198.402	17.570	1215.157	915.360
199.417	17.590	1214.720	915.058
200.432	17.830	1213.298	915.193
201.446	17.668	1213.324	914.262
202.461	17.819	1212.316	914.230
203.475	17.781	1211.208	913.108
204.490	17.690	1209.627	911.350
205.504	17.445	1208.273	908.939
206.519	17.576	1206.755	908.419
207.534	17.511	1205.882	907.331
208.548	17.506	1205.246	906.750
209.563	17.438	1204.511	905.751
210.577	17.658	1203.237	905.885
211.592	17.582	1202.865	905.120
212.607	17.700	1201.856	904.906
213.621	17.708	1201.020	904.239
214.636	17.650	1200.238	903.263
215.650	17.651	1199.312	902.491
216.665	17.848	1198.230	902.640
217.680	17.816	1197.527	901.865
218.694	17.916	1196.582	901.598
219.709	17.826	1195.551	900.265
220.723	17.848	1195.272	900.094
221.738	17.699	1194.881	898.933
222.753	17.833	1193.539	898.549
223.767	17.832	1192.834	897.933
224.782	17.962	1192.674	898.419
225.796	18.021	1191.907	898.071
226.811	17.860	1191.572	896.894
227.826	17.892	1190.240	895.978
228.840	17.860	1189.703	895.331
229.855	17.904	1188.554	894.615
230.869	17.783	1188.356	893.751
231.884	17.777	1187.074	892.680
232.899	17.697	1185.968	891.347
233.913	17.803	1185.515	891.482
234.928	17.682	1184.682	890.147
235.942	17.586	1184.210	889.211
236.957	17.628	1183.350	888.705
237.972	17.605	1182.650	887.983
238.986	17.672	1181.998	887.765
240.001	17.728	1180.938	887.181
241.015	17.815	1180.098	886.921
242.030	17.852	1179.825	886.833
243.045	17.820	1179.030	885.987
244.059	17.774	1178.038	884.927
245.074	17.983	1177.156	885.268
246.088	18.000	1176.407	884.716
247.103	18.071	1175.448	884.285
248.117	18.177	1175.017	884.428
249.132	18.117	1174.830	883.900
250.147	18.296	1173.909	884.052
251.161	18.490	1172.869	884.194
252.176	18.612	1172.163	884.209
253.190	18.559	1172.148	883.849
254.205	18.684	1171.638	884.027
255.220	18.691	1171.225	883.676
256.234	18.579	1170.076	882.156
257.249	18.692	1169.313	882.085
258.263	18.681	1168.790	881.554
259.278	18.644	1168.295	880.910
260.293	18.621	1167.806	880.347
261.307	18.637	1167.440	880.073
262.322	18.787	1166.237	879.860
263.336	18.894	1165.473	879.751
264.351	18.733	1165.017	878.506
265.366	18.754	1164.653	878.263
266.380	18.756	1163.676	877.460
267.395	18.644	1162.808	876.156
268.409	18.545	1162.333	875.212
269.424	18.667	1161.359	875.022
270.439	18.565	1160.693	873.924
271.453	18.652	1159.902	873.693
272.468	18.566	1159.024	872.521
273.482	18.570	1158.219	871.857
274.497	18.492	1158.016	871.229
275.512	18.563	1157.060	870.793
276.526	18.605	1156.043	870.166
277.541	18.618	1155.567	869.795
278.555	18.723	1154.616	869.534
279.570	18.874	1154.044	869.791
280.585	18.902	1153.256	869.262
281.599	18.826	1152.398	868.154
282.614	18.831	1151.058	867.094
283.628	18.752	1149.895	865.744
284.643	18.736	1149.121	865.001
285.657	18.641	1148.966	864.329
286.672	18.776	1147.802	864.056
287.687	18.798	1146.494	863.109
288.701	18.648	1146.211	862.064
289.716	18.712	1145.287	861.616
290.730	18.668	1144.629	860.822
291.745	18.788	1144.244	861.060
292.760	18.901	1143.303	860.838
293.774	18.912	1142.871	860.495
294.789	19.050	1142.341	860.708
295.803	19.012	1141.527	859.830
296.818	18.853	1140.885	858.477
297.833	18.808	1139.776	857.338
298.847	18.853	1139.186	857.045
299.862	18.897	1138.018	856.310
300.876	18.940	1137.579	856.116
301.891	18.956	1137.207	855.839
302.906	19.079	1136.364	855.744
303.920	19.145	1136.085	855.786
304.935	19.282	1135.273	855.779
305.949	19.251	1134.673	855.098
306.964	19.303	1134.280	854.984
307.979	19.249	1132.830	853.548
308.993	19.105	1132.446	852.467
310.008	19.293	1131.434	852.561
311.022	19.362	1130.936	852.451
312.037	19.157	1130.244	850.840
313.052	19.182	1128.880	849.862
314.066	18.933	1127.876	847.804
315.081	19.086	1126.813	847.681
316.095	19.003	1126.161	846.708
317.110	19.056	1125.156	846.140
318.125	19.011	1124.924	845.671
319.139	18.968	1123.893	844.608
320.154	19.113	1123.110	844.657
321.168	19.008	1122.731	843.780
322.183	18.982	1122.240	843.212
323.197	18.982	1121.933	842.907
324.212	19.023	1121.305	842.559
325.227	19.084	1120.772	842.385
326.241	19.090	1119.719	841.546
327.256	19.131	1118.846	841.018
328.270	19.135	1117.490	839.941
329.285	19.002	1117.068	838.902
330.300	19.135	1116.288	838.890
331.314	19.024	1114.988	837.300
332.329	19.168	1114.204	837.336
333.343	19.233	1113.525	837.069
334.358	19.236	1112.640	836.342
335.373	19.335	1112.038	836.297
336.387	19.293	1111.893	835.912
337.402	19.351	1110.732	835.245
338.416	19.453	1109.973	835.092
339.431	19.504	1109.100	834.610
340.446	19.586	1108.515	834.489
341.460	19.699	1108.067	834.628
342.475	19.725	1107.404	834.176
343.489	19.667	1106.350	833.033
344.504	19.813	1105.520	833.035
345.519	19.872	1104.581	832.538
346.533	19.793	1103.862	831.540
347.548	19.830	1103.644	831.481
348.562	19.912	1101.910	830.497
349.577	19.742	1101.138	829.025
350.592	19.597	1100.474	827.760
351.606	19.593	1099.641	827.038
352.621	19.557	1099.006	826.318
353.635	19.395	1098.686	825.228
354.650	19.356	1097.846	824.335
355.665	19.539	1097.079	824.563
356.679	19.601	1096.205	824.127
357.694	19.725	1095.381	824.024
358.708	19.749	1095.331	824.032
359.723	19.640	1094.508	822.818
360.738	19.727	1093.821	822.642
361.752	19.674	1093.697	822.223
362.767	19.745	1092.953	821.932
363.781	19.716	1092.236	821.184
364.796	19.832	1092.021	821.500
365.810	20.029	1091.146	821.701
366.825	19.959	1090.879	821.096
367.840	20.155	1090.432	821.616
368.854	20.165	1089.492	820.881
369.869	20.186	1088.710	820.320
370.883	20.138	1087.638	819.211
371.898	20.025	1087.389	818.421
372.913	19.995	1086.786	817.751
373.927	20.159	1086.153	817.977
374.942	20.097	1085.766	817.320
375.956	20.183	1084.899	816.998
376.971	20.037	1084.402	815.867
377.986	20.140	1083.930	815.921
379.000	20.353	1083.282	816.364
380.015	20.265	1083.236	815.846
381.029	20.391	1082.052	815.470
382.044	20.307	1081.584	814.655
383.059	20.291	1080.627	813.784
384.073	20.323	1079.878	813.299
385.088	20.361	1078.846	812.626
386.102	20.439	1077.563	811.956
387.117	20.331	1076.739	810.756
388.132	20.105	1076.263	809.271
389.146	20.101	1075.033	808.257
390.161	20.152	1074.301	807.871
391.175	20.233	1073.415	807.512
392.190	20.293	1072.934	807.356
393.205	20.396	1072.283	807.276
394.219	20.318	1071.734	806.427
395.234	20.239	1070.646	805.170
396.248	20.190	1069.514	804.021
397.263	20.341	1068.272	803.717
398.278	20.171	1068.030	802.677
399.292	20.076	1067.087	801.456
400.307	20.030	1066.563	800.781
401.321	20.094	1065.768	800.407
402.336	20.043	1065.200	799.672
403.350	20.086	1064.755	799.470
404.365	20.156	1063.983	799.141
405.380	20.228	1063.277	798.870
406.394	20.356	1062.278	798.639
407.409	20.448	1061.626	798.501
408.423	20.500	1060.832	798.073
409.438	20.623	1060.654	798.430
410.453	20.579	1059.959	797.638
411.467	20.526	1059.511	796.987
412.482	20.764	1058.597	797.316
413.496	20.854	1058.052	797.246
414.511	20.692	1057.488	796.010
415.526	20.897	1057.028	796.533
416.540	20.877	1056.629	796.072
417.555	20.930	1055.705	795.545
418.569	20.761	1055.488	794.541
419.584	20.790	1054.737	794.036
420.599	20.847	1054.092	793.742
421.613	155.415	1404.796	1796.966
422.628	142.639	1455.856	1797.032
