DTS Sentinel unit serial number:	SN413079Multiplexer serial number:	ORYXHardware model number:	OX4-SRSoftware version number:	ORYX F/W v4.00 Oryx Data Collector v3.7.2.0data status	okinstallation	princeton_trtdifferential loss correction	single-endedforward channel	channel 2reverse channel	N/Adate	2019/09/12time	19:22:49forward acquisition time	15.00reverse acquisition time	0.00gamma	496.2192k internal	0.2325k external	0.2325temperature offset calibration	1.0150default loss term (dB/km)	0.3790temperature slope calibration	1.0000multiplexer offset coefficient	1.0000multiplexer slope coefficient	1.0000fibre end	0.00T internal ref (°C)	32.37T ext. ref 1 (°C)	3.24T ext. ref 2 (°C)	26.93length (m)	temperature (°C)	Stokes	anti-Stokes-747.200	-3.012	0.300	-0.211
-746.185	-69.288	0.684	0.265
-745.171	4.696	0.549	0.407
-744.156	-89.069	-0.172	0.051
-743.142	800.000	-0.113	-0.416
-742.127	34.114	-0.397	-0.349
-741.112	-200.000	0.205	1.044
-740.098	-200.000	-0.012	0.120
-739.083	-85.660	0.101	-0.032
-738.069	-200.000	0.092	0.807
-737.054	-125.942	0.441	-0.067
-736.039	-12.619	-0.263	0.173
-735.025	-169.299	-0.138	0.005
-734.010	21.986	0.700	-0.576
-732.996	281.180	-0.244	-0.441
-731.981	-187.096	0.597	0.008
-730.966	-86.191	0.673	-0.209
-729.952	-86.331	0.143	0.044
-728.937	124.404	-0.673	0.854
-727.923	-200.000	0.026	0.519
-726.908	-171.859	0.811	0.027
-725.894	-26.985	-0.218	0.128
-724.879	-78.556	0.341	0.118
-723.864	119.465	-0.063	-0.079
-722.850	-90.166	0.897	0.263
-721.835	800.000	-0.123	-0.391
-720.821	-26.077	-0.540	0.320
-719.806	-160.724	0.698	0.037
-718.791	-28.101	0.236	-0.137
-717.777	-22.276	0.176	-0.107
-716.762	351.872	-0.105	-0.210
-715.748	206.887	-0.214	0.336
-714.733	-36.886	0.416	-0.225
-713.718	-200.000	-0.066	-0.470
-712.704	-200.000	-0.024	-0.514
-711.689	-60.517	0.837	0.358
-710.675	6.385	-0.364	0.272
-709.660	-17.825	-0.367	0.232
-708.645	123.041	-0.411	0.519
-707.631	90.813	-0.477	0.539
-706.616	-32.175	0.453	-0.255
-705.602	-51.225	-0.807	-0.381
-704.587	-74.384	0.517	-0.188
-703.572	800.000	-0.158	0.551
-702.558	-114.566	0.504	-0.097
-701.543	-111.074	0.642	0.133
-700.529	750.588	0.151	0.411
-699.514	355.018	-0.307	-0.615
-698.499	-24.973	-0.784	0.468
-697.485	-200.000	0.029	-0.649
-696.470	-200.000	-0.033	0.277
-695.456	-16.171	-0.264	0.169
-694.441	-200.000	-0.061	-0.569
-693.426	-200.000	0.038	0.548
-692.412	-65.370	0.613	0.248
-691.397	232.480	0.450	0.744
-690.383	42.932	0.284	0.261
-689.368	-49.791	0.790	-0.378
-688.354	800.000	-0.217	0.701
-687.339	800.000	0.169	-0.476
-686.324	54.946	0.519	-0.504
-685.310	-151.052	-0.099	0.007
-684.295	-58.576	-0.496	0.216
-683.281	117.150	0.507	-0.627
-682.266	-9.300	-0.628	-0.422
-681.251	201.345	0.426	-0.661
-680.237	433.066	-0.380	-0.829
-679.222	175.526	-0.210	-0.307
-678.208	-27.616	0.379	-0.221
-677.193	321.827	-0.429	-0.821
-676.178	-125.668	-0.257	-0.039
-675.164	-200.000	0.026	-0.302
-674.149	402.097	0.147	-0.311
-673.135	-45.932	0.522	-0.259
-672.120	-61.832	-0.321	-0.135
-671.105	773.885	-0.140	-0.383
-670.091	-23.187	-0.263	-0.159
-669.076	-178.471	0.903	0.021
-668.062	-200.000	0.605	0.000
-667.047	-200.000	0.697	0.003
-666.032	29.747	0.249	-0.213
-665.018	800.000	-0.150	-0.462
-664.003	32.516	-0.578	0.503
-662.989	-200.000	-0.008	0.175
-661.974	71.941	0.162	0.170
-660.959	-100.440	0.741	0.184
-659.945	-136.229	-0.941	0.111
-658.930	-200.000	0.126	-0.813
-657.916	2.803	0.259	0.189
-656.901	165.978	0.195	0.277
-655.886	44.437	-0.293	-0.270
-654.872	36.913	-0.352	-0.313
-653.857	-67.454	0.316	0.125
-652.843	-200.000	-0.025	-0.360
-651.828	7.179	-0.239	-0.179
-650.814	1.228	0.572	0.413
-649.799	785.826	0.299	0.826
-648.784	32.899	0.508	0.442
-647.770	41.725	-0.456	-0.415
-646.755	283.821	-0.100	-0.181
-645.741	-200.000	-0.118	0.828
-644.726	-26.024	0.765	-0.452
-643.711	-200.000	0.015	-0.128
-642.697	517.750	0.266	0.626
-641.682	582.253	0.117	0.287
-640.668	42.736	0.600	-0.549
-639.653	-88.756	-0.195	0.058
-638.638	-181.747	-0.828	-0.016
-637.624	-33.631	-0.329	0.183
-636.609	-98.897	-0.499	0.127
-635.595	84.834	0.497	-0.547
-634.580	413.716	0.284	-0.606
-633.565	-200.000	0.007	0.185
-632.551	800.000	0.184	-0.703
-631.536	-119.230	-0.504	-0.088
-630.522	85.168	-0.223	-0.246
-629.507	-183.832	0.667	-0.011
-628.492	-200.000	0.004	0.281
-627.478	-200.000	0.029	0.254
-626.463	-1.231	0.763	-0.541
-625.449	-125.457	-1.253	0.192
-624.434	76.192	0.352	-0.374
-623.419	-5.717	0.118	-0.081
-622.405	-123.112	1.334	0.215
-621.390	-55.427	-0.311	-0.140
-620.376	37.914	0.485	0.433
-619.361	-104.427	-0.723	-0.168
-618.346	-200.000	0.136	0.615
-617.332	11.013	-0.465	-0.357
-616.317	656.133	0.090	0.232
-615.303	485.071	0.074	-0.170
-614.288	48.522	0.498	-0.468
-613.273	-200.000	-0.075	-0.414
-612.259	195.447	0.245	-0.374
-611.244	-74.052	-0.268	-0.098
-610.230	-55.023	-0.206	-0.093
-609.215	-44.384	0.806	-0.405
-608.201	-124.306	0.047	0.007
-607.186	275.873	0.371	-0.661
-606.171	340.833	-0.167	0.327
-605.157	68.896	0.300	0.309
-604.142	-84.856	-0.493	-0.155
-603.128	-7.534	1.098	0.745
-602.113	440.119	-0.058	-0.127
-601.098	-72.242	0.852	-0.317
-600.084	-200.000	0.004	-0.340
-599.069	-150.435	0.492	0.038
-598.055	-200.000	0.022	0.565
-597.040	108.323	0.305	0.366
-596.025	-93.929	-0.155	0.043
-595.011	-127.215	0.174	0.025
-593.996	272.593	0.193	0.342
-592.982	19.034	-0.446	-0.358
-591.967	-85.728	-0.832	-0.259
-590.952	117.974	-0.090	-0.111
-589.938	-84.271	0.248	-0.079
-588.923	-93.594	-0.460	-0.127
-587.909	-34.602	-0.705	0.387
-586.894	800.000	0.288	-0.969
-585.879	-140.591	0.454	-0.047
-584.865	124.434	-0.223	0.282
-583.850	126.370	0.403	0.511
-582.836	-6.926	0.384	-0.261
-581.821	126.279	0.401	-0.508
-580.806	-147.853	-0.418	0.035
-579.792	-172.177	-0.208	0.007
-578.777	-200.000	0.019	0.523
-577.763	88.499	-0.637	0.710
-576.748	-126.730	0.195	-0.029
-575.733	91.366	-0.320	-0.360
-574.719	800.000	-0.235	-0.756
-573.704	237.490	0.324	0.538
-572.690	-8.690	0.574	-0.386
-571.675	-76.902	-0.371	0.130
-570.661	-130.652	1.088	0.147
-569.646	-69.230	-0.853	-0.329
-568.631	-200.000	0.006	-0.821
-567.617	-6.353	-0.994	-0.680
-566.602	-24.342	0.411	0.246
-565.588	800.000	-0.141	-0.603
-564.573	-200.000	-0.020	0.124
-563.558	181.163	0.414	0.610
-562.544	-107.869	0.686	0.149
-561.529	6.726	0.285	0.212
-560.515	59.214	0.359	0.355
-559.500	800.000	0.113	0.437
-558.485	-126.128	0.179	0.027
-557.471	-200.000	-0.151	1.035
-556.456	5.341	0.437	0.323
-555.442	214.484	-0.351	0.557
-554.427	800.000	0.031	-0.124
-553.412	-149.062	-0.388	0.031
-552.398	-136.550	0.176	0.020
-551.383	200.010	-0.511	0.786
-550.369	-64.214	0.418	0.171
-549.354	135.333	0.192	0.249
-548.339	-131.723	-0.661	0.087
-547.325	-23.133	-0.114	-0.069
-546.310	-143.516	0.657	-0.063
-545.296	-200.000	-0.069	-0.385
-544.281	-200.000	0.003	0.157
-543.266	-53.162	0.454	0.209
-542.252	800.000	-0.070	0.305
-541.237	43.845	0.526	0.482
-540.223	270.822	-0.453	0.798
-539.208	800.000	-0.143	0.598
-538.193	-200.000	0.017	0.544
-537.179	26.552	-0.122	-0.102
-536.164	800.000	0.127	0.382
-535.150	-117.588	-0.275	-0.050
-534.135	61.846	0.471	-0.469
-533.121	43.397	0.741	-0.678
-532.106	-75.489	-0.514	0.183
-531.091	144.304	0.211	0.282
-530.077	632.550	0.262	0.665
-529.062	-83.295	0.569	0.183
-528.048	-57.586	-0.828	0.363
-527.033	-102.152	-0.831	-0.200
-526.018	-54.391	-0.188	-0.085
-525.004	-70.350	-0.157	-0.060
-523.989	-117.692	-1.122	0.202
-522.975	-38.870	0.317	-0.167
-521.960	20.537	0.973	0.787
-520.945	229.901	-0.105	0.171
-519.931	72.689	-0.124	-0.130
-518.916	41.557	0.262	-0.237
-517.902	-20.316	-0.298	-0.183
-516.887	196.306	-0.260	0.396
-515.872	800.000	0.055	-0.152
-514.858	8.188	0.554	0.416
-513.843	491.954	0.052	-0.118
-512.829	-200.000	-0.034	0.346
-511.814	800.000	0.105	-0.349
-510.799	-200.000	-0.130	0.640
-509.785	-200.000	0.149	0.774
-508.770	-146.152	0.776	-0.068
-507.756	-154.520	-1.095	-0.073
-506.741	-140.878	0.219	0.023
-505.726	45.221	0.773	0.712
-504.712	-200.000	0.035	-0.193
-503.697	-37.423	-0.447	0.239
-502.683	241.989	-0.117	0.196
-501.668	-153.461	-0.568	0.039
-500.653	129.047	0.454	0.578
-499.639	-27.553	0.948	-0.550
-498.624	-85.526	0.549	-0.171
-497.610	-31.376	-0.269	0.151
-496.595	146.615	-0.382	0.512
-495.581	193.287	-0.232	-0.350
-494.566	-38.046	0.577	-0.306
-493.551	112.636	-0.518	-0.626
-492.537	13.115	-0.672	-0.519
-491.522	800.000	-0.161	0.507
-490.508	498.746	-0.183	0.420
-489.493	-87.755	-0.240	0.072
-488.478	-60.753	0.279	-0.118
-487.464	117.467	-0.292	0.358
-486.449	-200.000	-0.084	0.598
-485.435	-200.000	0.101	-0.483
-484.420	-200.000	-0.075	0.377
-483.405	-16.168	0.137	0.087
-482.391	-60.536	-0.409	-0.173
-481.376	336.931	0.271	-0.525
-480.362	44.094	-1.029	-0.942
-479.347	-140.392	-0.200	0.021
-478.332	-45.540	-0.372	-0.184
-477.318	796.825	-0.206	-0.567
-476.303	-67.497	-0.731	0.286
-475.289	307.638	-0.217	-0.404
-474.274	-2.407	-0.537	0.376
-473.259	44.001	-0.523	0.479
-472.245	-200.000	-0.013	-0.433
-471.230	453.031	-0.256	-0.566
-470.216	-2.156	0.160	0.112
-469.201	-80.767	-0.156	0.052
-468.186	-8.985	-0.548	-0.366
-467.172	169.236	-0.215	0.306
-466.157	-88.986	-0.362	0.107
-465.143	800.000	0.307	-1.067
-464.128	-2.655	0.511	0.357
-463.113	-119.927	-0.631	0.108
-462.099	-88.351	0.366	0.109
-461.084	-25.934	-0.125	0.074
-460.070	-43.652	0.419	0.211
-459.055	156.448	-1.000	-1.377
-458.040	-200.000	0.061	-0.649
-457.026	429.428	-0.134	0.290
-456.011	329.264	-0.143	-0.274
-454.997	-115.227	0.318	-0.060
-453.982	-200.000	-0.033	0.407
-452.968	800.000	0.082	0.243
-451.953	243.311	0.216	-0.360
-450.938	-180.835	1.133	0.023
-449.924	-108.237	0.423	0.091
-448.909	216.019	0.483	0.765
-447.895	18.877	0.697	0.557
-446.880	-179.640	0.272	-0.006
-445.865	-6.291	-0.786	-0.535
-444.851	106.842	-0.166	-0.197
-443.836	-200.000	-0.014	0.246
-442.822	-130.720	0.262	0.035
-441.807	509.034	-0.238	0.552
-440.792	-200.000	-0.144	0.719
-439.778	-177.728	-0.269	0.006
-438.763	111.086	0.064	-0.077
-437.749	-58.895	0.869	-0.374
-436.734	102.236	-0.409	-0.476
-435.719	484.857	-0.158	-0.359
-434.705	21.577	0.534	0.433
-433.690	-99.182	0.628	0.158
-432.676	39.434	0.236	0.211
-431.661	-22.592	0.518	-0.312
-430.646	-106.825	0.679	0.150
-429.632	-53.523	-0.293	-0.134
-428.617	201.966	0.333	-0.511
-427.603	800.000	-0.118	0.467
-426.588	800.000	0.219	0.885
-425.573	474.625	-0.158	0.356
-424.559	-200.000	-0.014	-0.362
-423.544	-40.839	-0.643	-0.332
-422.530	194.231	0.768	1.160
-421.515	-66.421	-0.428	0.169
-420.500	32.540	-0.571	-0.492
-419.486	-200.000	0.176	-0.937
-418.471	-30.466	0.395	-0.223
-417.457	-37.373	-0.261	-0.139
-416.442	-200.000	-0.030	-0.290
-415.428	800.000	-0.215	-0.806
-414.413	-139.989	-0.314	-0.033
-413.398	234.488	0.241	0.396
-412.384	800.000	0.153	0.443
-411.369	-200.000	-0.010	-0.119
-410.355	800.000	0.133	0.371
-409.340	202.163	-0.161	0.247
-408.325	-101.067	0.916	0.223
-407.311	63.638	-0.772	0.772
-406.296	-200.000	-0.022	0.730
-405.282	119.456	-0.511	0.629
-404.267	88.875	0.339	0.376
-403.252	800.000	-0.154	-0.642
-402.238	800.000	0.098	0.293
-401.223	124.745	0.611	-0.766
-400.209	120.034	0.266	0.329
-399.194	800.000	0.209	0.640
-398.179	-200.000	0.020	0.396
-397.165	-16.554	0.675	-0.426
-396.150	-111.857	0.385	0.077
-395.136	-200.000	0.075	-1.133
-394.121	-22.534	-0.728	-0.438
-393.106	-54.790	0.258	0.116
-392.092	-159.179	-0.222	-0.012
-391.077	-200.000	0.031	-0.285
-390.063	-174.731	-0.522	-0.015
-389.048	-2.624	-1.013	-0.706
-388.033	49.138	-0.250	-0.234
-387.019	240.915	0.343	-0.570
-386.004	-146.259	0.235	-0.020
-384.990	201.587	0.198	0.304
-383.975	121.062	0.510	0.632
-382.960	312.029	0.392	-0.732
-381.946	-33.825	0.250	-0.137
-380.931	-48.034	-0.357	0.172
-379.917	-73.565	-0.303	-0.110
-378.902	-171.023	-0.330	0.011
-377.888	-200.000	0.082	0.568
-376.873	35.628	0.180	0.157
-375.858	419.253	0.530	-1.128
-374.844	-200.000	-0.114	-0.962
-373.829	-10.592	0.957	-0.630
-372.815	-160.933	-0.692	0.036
-371.800	-33.216	0.812	0.447
-370.785	-133.317	0.487	-0.061
-369.771	-45.978	-0.587	0.288
-368.756	800.000	-0.055	-0.197
-367.742	-132.232	-0.768	0.099
-366.727	8.856	0.283	-0.212
-365.712	368.768	0.238	-0.480
-364.698	-71.568	0.830	-0.308
-363.683	-198.590	0.238	-0.001
-362.669	480.064	0.231	-0.521
-361.654	-98.441	-0.540	0.137
-360.639	-93.723	-0.710	-0.195
-359.625	-45.073	-0.418	-0.207
-358.610	-200.000	-0.013	-0.398
-357.596	-36.212	0.311	-0.167
-356.581	800.000	0.066	0.265
-355.566	800.000	-0.190	0.780
-354.552	800.000	0.140	0.437
-353.537	800.000	-0.146	0.437
-352.523	197.299	-0.242	0.367
-351.508	-144.623	-0.983	0.090
-350.493	-124.364	0.353	-0.055
-349.479	522.965	-0.239	-0.558
-348.464	-76.942	0.727	-0.252
-347.450	121.528	-0.077	-0.095
-346.435	36.901	0.440	0.387
-345.420	-44.193	0.593	-0.295
-344.406	-200.000	0.008	-0.494
-343.391	-25.961	-0.287	-0.168
-342.377	-142.791	-0.454	0.044
-341.362	-46.839	0.719	0.349
-340.348	-17.349	-0.554	0.346
-339.333	208.528	-0.270	-0.419
-338.318	-200.000	-0.058	-0.577
-337.304	567.430	-0.087	-0.210
-336.289	-100.014	0.478	0.118
-335.275	-200.000	-0.017	-0.178
-334.260	112.314	-0.612	0.735
-333.245	-91.608	0.093	-0.026
-332.231	148.995	0.315	-0.424
-331.216	45.332	-0.355	0.325
-330.202	15.734	-0.787	0.614
-329.187	169.122	0.167	0.236
-328.172	-92.298	-0.141	-0.039
-327.158	-30.506	-0.537	0.302
-326.143	800.000	0.279	0.790
-325.129	239.396	-0.285	0.471
-324.114	-200.000	0.043	-0.313
-323.099	800.000	-0.019	-0.054
-322.085	-200.000	-0.020	0.377
-321.070	-80.025	-0.330	0.110
-320.056	-200.000	0.003	-0.149
-319.041	-63.583	-0.343	0.140
-318.026	-91.876	0.369	0.104
-317.012	-141.719	0.314	-0.031
-315.997	107.843	-0.472	-0.557
-314.983	739.993	-0.196	0.522
-313.968	-135.098	-0.113	-0.014
-312.953	800.000	0.190	-0.776
-311.939	300.789	0.210	-0.384
-310.924	-200.000	0.022	-0.529
-309.910	13.494	-0.553	-0.426
-308.895	203.026	-0.200	-0.307
-307.880	-138.431	-0.432	0.047
-306.866	-200.000	0.140	-1.096
-305.851	560.671	0.085	0.205
-304.837	32.242	-0.266	0.228
-303.822	-200.000	-0.087	-0.447
-302.807	3.979	0.206	-0.149
-301.793	-97.484	-0.917	0.236
-300.778	800.000	0.126	0.367
-299.764	75.731	0.332	-0.348
-298.749	-200.000	-0.027	-0.722
-297.735	800.000	0.129	-0.455
-296.720	-148.291	0.615	-0.050
-295.705	27.612	0.837	0.698
-294.691	-200.000	0.035	0.480
-293.676	321.225	0.215	0.405
-292.662	464.337	-0.400	-0.885
-291.647	-24.127	0.209	0.123
-290.632	177.362	-0.445	-0.642
-289.618	103.897	0.189	-0.220
-288.603	-52.097	0.450	0.207
-287.589	-200.000	-0.061	-0.269
-286.574	800.000	0.156	0.670
-285.559	-88.999	-0.231	-0.068
-284.545	152.592	-0.617	-0.835
-283.530	-74.217	0.600	0.215
-282.516	115.487	-0.217	-0.263
-281.501	-200.000	0.016	0.307
-280.486	-3.060	0.431	-0.298
-279.472	105.909	0.401	-0.470
-278.457	13.990	-0.658	-0.507
-277.443	186.980	-0.103	-0.153
-276.428	-200.000	0.129	0.748
-275.413	-68.185	0.299	-0.115
-274.399	-141.245	-0.976	-0.098
-273.384	11.226	-0.187	0.142
-272.370	-200.000	0.026	0.299
-271.355	182.511	-0.314	-0.458
-270.340	453.814	-0.076	0.168
-269.326	144.313	0.548	0.725
-268.311	289.225	-0.645	1.157
-267.297	70.583	-0.412	0.422
-266.282	-149.730	-0.778	-0.061
-265.267	-157.998	-0.923	-0.054
-264.253	42.877	0.032	-0.028
-263.238	-0.246	-0.344	0.242
-262.224	-154.004	-0.786	0.053
-261.209	77.920	-0.270	-0.285
-260.195	-101.906	0.579	0.139
-259.180	451.986	-0.175	-0.382
-258.165	-95.177	-0.299	0.080
-257.151	536.036	-0.283	-0.664
-256.136	-200.000	0.043	0.400
-255.122	101.349	-0.288	0.332
-254.107	-20.348	0.591	-0.360
-253.092	-3.647	0.779	-0.536
-252.078	33.442	0.160	-0.138
-251.063	333.268	0.538	-1.028
-250.049	88.924	0.296	-0.326
-249.034	-200.000	0.162	-0.806
-248.019	-144.317	0.418	-0.039
-247.005	64.307	1.129	1.125
-245.990	-200.000	0.030	-0.624
-244.976	-128.894	0.501	0.070
-243.961	154.408	0.273	0.371
-242.946	-200.000	0.036	0.323
-241.932	606.487	0.093	0.230
-240.917	-155.332	0.045	0.003
-239.903	-200.000	-0.036	-0.345
-238.888	472.596	0.566	-1.262
-237.873	-52.829	-0.341	0.155
-236.859	111.196	0.225	0.268
-235.844	176.158	0.181	-0.260
-234.830	-136.876	0.152	0.017
-233.815	88.200	-0.277	0.304
-232.800	34.352	-0.300	-0.259
-231.786	43.312	0.118	-0.107
-230.771	255.068	0.367	0.621
-229.757	459.531	-0.357	0.786
-228.742	-58.763	-0.420	0.180
-227.727	28.484	-0.374	-0.312
-226.713	-21.773	0.439	-0.264
-225.698	579.507	-0.235	-0.569
-224.684	-137.695	0.166	0.018
-223.669	77.408	0.595	-0.626
-222.655	132.032	-0.309	0.394
-221.640	22.856	-0.658	-0.533
-220.625	-58.889	0.859	-0.367
-219.611	800.000	0.208	-0.605
-218.596	300.697	-0.519	0.946
-217.582	-200.000	0.050	-0.390
-216.567	-169.890	0.736	0.026
-215.552	-123.281	0.844	-0.133
-214.538	4.770	-0.539	0.391
-213.523	-200.000	0.075	0.467
-212.509	800.000	-0.220	0.849
-211.494	-200.000	0.121	-0.001
-210.479	84.693	-0.306	-0.331
-209.465	-181.802	-0.558	0.011
-208.450	-39.739	-0.779	-0.402
-207.436	240.947	-0.247	0.408
-206.421	-182.993	-0.418	0.007
-205.406	43.854	-0.018	-0.016
-204.392	-171.144	-0.437	0.015
-203.377	164.299	-0.475	-0.661
-202.363	156.510	-0.256	0.349
-201.348	39.478	0.567	-0.501
-200.333	-128.474	0.490	0.069
-199.319	800.000	-0.280	-0.907
-198.304	273.391	-0.290	-0.506
-197.290	140.045	-0.628	-0.818
-196.275	800.000	0.139	0.556
-195.260	-15.570	1.214	0.765
-194.246	104.828	0.021	-0.024
-193.231	-57.931	0.216	-0.093
-192.217	-44.491	-0.599	0.296
-191.202	-51.355	0.532	0.246
-190.187	-186.526	0.983	0.014
-189.173	-135.533	-1.272	0.149
-188.158	223.762	-0.035	-0.055
-187.144	-89.828	-0.275	-0.079
-186.129	-159.856	0.201	-0.011
-185.114	800.000	-0.120	-0.510
-184.100	-37.154	-0.283	-0.149
-183.085	576.920	-0.070	0.169
-182.071	34.622	-0.426	0.368
-181.056	167.596	-0.339	0.475
-180.042	-18.121	0.444	-0.274
-179.027	150.541	-0.326	-0.437
-178.012	372.165	-0.147	0.294
-176.998	-61.151	0.822	0.342
-175.983	800.000	0.082	-0.328
-174.969	-148.835	0.204	-0.016
-173.954	176.378	-0.096	-0.138
-172.939	89.096	-0.355	0.390
-171.925	401.902	-0.224	0.465
-170.910	507.570	-0.385	0.882
-169.896	134.355	-0.286	0.365
-168.881	118.175	0.203	-0.246
-167.866	-57.632	-0.207	-0.089
-166.852	800.000	-0.186	-0.522
-165.837	800.000	-0.076	-0.326
-164.823	-35.521	-0.384	-0.206
-163.808	-173.447	-0.653	-0.019
-162.793	-12.959	0.304	0.195
-161.779	-107.204	0.845	0.183
-160.764	-61.324	0.288	0.119
-159.750	-132.303	-0.948	-0.121
-158.735	-116.734	0.416	0.075
-157.720	-100.998	0.439	-0.106
-156.706	-200.000	-0.023	0.974
-155.691	-200.000	-0.035	0.869
-154.677	77.937	0.469	0.493
-153.662	262.336	-0.130	0.222
-152.647	81.190	-0.175	-0.186
-151.633	236.128	-0.299	-0.488
-150.618	134.051	-0.360	-0.460
-149.604	-32.953	-0.279	0.153
-148.589	101.783	-0.198	0.228
-147.574	800.000	0.354	1.081
-146.560	-92.320	0.292	-0.081
-145.545	-58.242	-0.497	0.213
-144.531	800.000	0.110	-0.402
-143.516	26.476	0.461	0.380
-142.502	-144.008	-0.637	-0.059
-141.487	458.263	0.152	-0.333
-140.472	800.000	-0.067	0.286
-139.458	-200.000	0.065	0.558
-138.443	62.490	-0.278	0.273
-137.429	-46.048	-0.212	0.103
-136.414	-22.810	0.440	0.262
-135.399	-91.315	-0.373	-0.105
-134.385	92.295	-0.616	0.684
-133.370	-200.000	0.079	0.395
-132.356	-200.000	0.041	0.421
-131.341	-200.000	-0.005	0.228
-130.326	91.886	-0.470	0.521
-129.312	237.758	0.166	-0.272
-128.297	715.049	-0.206	0.538
-127.283	649.737	-0.314	0.790
-126.268	-36.212	-0.801	0.425
-125.253	-50.150	0.718	0.334
-124.239	28.841	0.593	0.495
-123.224	-63.838	-0.134	0.054
-122.210	-22.299	-0.747	-0.446
-121.195	-116.373	-0.126	-0.023
-120.180	-44.039	0.264	-0.131
-119.166	-200.000	0.089	0.832
-118.151	-50.884	0.695	0.322
-117.137	-80.982	-0.037	-0.012
-116.122	413.341	0.220	-0.460
-115.107	-92.967	0.449	0.123
-114.093	-52.230	0.591	-0.270
-113.078	62.523	0.116	0.114
-112.064	-77.337	-0.426	0.146
-111.049	-120.861	0.216	0.036
-110.034	40.937	0.450	0.400
-109.020	-200.000	-0.020	0.139
-108.005	-87.963	1.045	0.309
-106.991	-110.080	-0.282	-0.058
-105.976	326.721	-0.281	-0.529
-104.962	273.405	0.326	-0.566
-103.947	9.633	0.221	-0.165
-102.932	800.000	0.050	-0.177
-101.918	-81.914	-0.576	0.185
-100.903	151.917	0.156	0.209
-99.889	241.385	0.127	-0.209
-98.874	107.748	0.124	0.146
-97.859	11.150	0.159	0.120
-96.845	-185.477	-0.769	-0.012
-95.830	104.666	-0.189	-0.219
-94.816	182.408	0.159	0.231
-93.801	-163.169	-0.581	-0.027
-92.786	-76.861	0.771	-0.265
-91.772	-132.532	0.296	0.037
-90.757	54.240	0.231	0.219
-89.743	-96.491	-0.246	0.064
-88.728	-11.122	-0.092	0.060
-87.713	-66.265	-0.743	-0.291
-86.699	596.581	0.428	1.041
-85.684	142.408	0.187	0.244
-84.670	-200.000	0.065	-0.479
-83.655	-85.174	0.781	0.240
-82.640	-200.000	-0.136	-0.661
-81.626	-200.000	-0.007	0.702
-80.611	178.376	0.269	0.386
-79.597	-86.310	-0.350	0.106
-78.582	-172.188	0.309	-0.010
-77.567	671.345	0.106	-0.269
-76.553	645.702	0.165	0.413
-75.538	-98.422	0.402	0.101
-74.524	-52.246	0.355	-0.162
-73.509	93.466	0.127	0.141
-72.494	265.846	-0.190	0.326
-71.480	-7.221	-0.336	0.224
-70.465	48.598	0.562	0.517
-69.451	-200.000	-0.083	0.475
-68.436	284.804	0.388	0.686
-67.422	-200.000	-0.007	-0.345
-66.407	-136.443	0.519	-0.059
-65.392	-159.349	0.927	0.051
-64.378	-200.000	-0.004	0.182
-63.363	-200.000	-0.035	-0.491
-62.349	-200.000	-0.002	0.363
-61.334	161.921	-0.781	-1.074
-60.319	-200.000	0.116	0.725
-59.305	800.000	0.148	-0.484
-58.290	7.651	1.466	1.078
-57.276	-200.000	0.109	1.905
-56.261	-200.000	95.163	598.794
-55.246	680.939	1352.548	3459.668
-54.232	204.018	2524.746	3839.932
-53.217	114.366	2245.252	2684.532
-52.203	42.133	1880.265	1676.465
-51.188	35.719	1672.156	1442.916
-50.173	33.008	1628.816	1385.608
-49.159	51.304	1679.509	1565.405
-48.144	52.258	1692.851	1584.870
-47.130	35.115	1655.503	1423.827
-46.115	32.414	1640.588	1391.014
-45.100	32.444	1636.285	1387.533
-44.086	32.490	1632.932	1384.972
-43.071	32.355	1630.632	1381.974
-42.057	32.159	1628.835	1378.953
-41.042	32.296	1626.789	1378.174
-40.027	32.237	1624.030	1375.353
-39.013	32.147	1623.306	1374.028
-37.998	32.183	1620.353	1371.733
-36.984	32.245	1620.506	1372.259
-35.969	32.344	1618.105	1370.897
-34.954	32.381	1616.635	1369.863
-33.940	32.466	1614.502	1368.618
-32.925	32.343	1614.255	1367.463
-31.911	32.451	1611.170	1365.578
-30.896	32.266	1610.553	1363.660
-29.881	32.404	1607.270	1361.824
-28.867	32.408	1606.966	1361.540
-27.852	32.288	1604.512	1358.540
-26.838	32.455	1603.662	1358.973
-25.823	32.304	1602.474	1356.825
-24.809	32.460	1601.133	1356.759
-23.794	32.259	1600.567	1354.779
-22.779	32.278	1597.105	1351.928
-21.765	32.270	1596.622	1351.410
-20.750	32.405	1594.341	1350.398
-19.736	32.371	1594.141	1349.927
-18.721	32.735	1590.355	1349.271
-17.706	32.487	1590.252	1347.355
-16.692	32.423	1589.823	1346.483
-15.677	32.596	1587.681	1345.850
-14.663	32.306	1585.971	1342.280
-13.648	32.546	1584.491	1342.682
-12.633	32.523	1583.385	1341.533
-11.619	32.534	1581.950	1340.341
-10.604	32.419	1580.877	1338.561
-9.590	32.468	1578.638	1336.957
-8.575	32.291	1579.031	1335.981
-7.560	32.159	1577.418	1333.623
-6.546	32.479	1575.191	1333.956
-5.531	32.314	1575.252	1332.789
-4.517	32.252	1572.904	1330.308
-3.502	32.289	1572.072	1329.815
-2.487	32.617	1569.412	1329.827
-1.473	32.169	1558.120	1317.064
-0.458	29.204	1538.179	1279.604
0.556	26.825	1539.369	1247.218
1.571	24.448	1562.319	1249.088
2.586	23.829	1574.938	1254.693
3.600	21.157	1521.567	1193.821
4.615	12.660	1412.562	1054.015
5.629	4.555	1350.629	957.929
6.644	3.295	1342.226	944.160
7.659	3.193	1340.515	942.252
8.673	3.258	1339.739	942.021
9.688	3.213	1336.973	939.717
10.702	3.103	1334.510	937.233
11.717	6.633	1341.488	963.639
12.731	15.949	1357.864	1032.684
13.746	23.447	1369.172	1087.366
14.761	25.183	1370.660	1099.099
15.775	24.938	1370.364	1097.265
16.790	24.610	1369.012	1094.077
17.804	24.437	1368.969	1092.884
18.819	24.479	1368.310	1092.521
19.834	24.355	1367.061	1090.667
20.848	24.486	1366.204	1090.690
21.863	24.398	1366.011	1089.899
22.877	24.667	1364.765	1090.451
23.892	24.558	1363.937	1089.030
24.907	24.533	1363.434	1088.375
25.921	24.348	1363.386	1087.116
26.936	24.601	1361.711	1087.224
27.950	24.752	1360.674	1087.214
28.965	24.686	1359.756	1085.986
29.980	24.685	1359.074	1085.340
30.994	24.822	1358.235	1085.404
32.009	24.555	1357.389	1083.011
33.023	24.619	1355.834	1082.067
34.038	24.757	1354.170	1081.473
35.053	24.425	1353.642	1078.950
36.067	24.377	1353.297	1078.289
37.082	24.583	1351.229	1077.788
38.096	24.613	1349.985	1076.882
39.111	24.501	1350.172	1076.259
40.126	24.619	1348.505	1075.546
41.140	24.326	1348.639	1073.797
42.155	24.279	1347.111	1072.200
43.169	24.198	1347.577	1071.992
44.184	24.357	1346.339	1071.868
45.199	24.184	1346.960	1071.224
46.213	24.314	1347.218	1072.120
47.228	24.406	1346.310	1071.851
48.242	24.723	1344.645	1072.335
49.257	24.375	1344.114	1069.732
50.271	24.396	1342.578	1068.538
51.286	24.796	1341.480	1069.962
52.301	24.650	1339.493	1067.410
53.315	24.477	1338.929	1065.838
54.330	24.655	1337.463	1065.636
55.344	24.551	1335.535	1063.383
56.359	24.378	1334.774	1061.654
57.374	24.345	1334.804	1061.392
58.388	24.419	1333.779	1060.920
59.403	24.419	1333.810	1060.848
60.417	24.265	1333.747	1059.790
61.432	24.335	1332.175	1058.866
62.447	24.244	1331.512	1057.703
63.461	24.320	1330.338	1057.125
64.476	24.063	1330.013	1055.254
65.490	24.064	1328.001	1053.569
66.505	24.468	1326.037	1054.303
67.520	24.194	1325.948	1052.521
68.534	23.924	1326.141	1050.987
69.549	24.130	1322.905	1049.542
70.563	24.104	1322.258	1048.783
71.578	24.156	1321.113	1048.088
72.593	23.758	1321.846	1046.232
73.607	23.868	1319.992	1045.322
74.622	23.999	1319.884	1045.914
75.636	24.021	1318.993	1045.242
76.651	24.004	1319.177	1045.195
77.666	24.057	1318.751	1045.077
78.680	24.218	1317.387	1044.849
79.695	24.311	1316.016	1044.214
80.709	24.205	1316.706	1044.048
81.724	24.238	1315.574	1043.248
82.739	24.226	1315.123	1042.731
83.753	24.288	1314.361	1042.397
84.768	24.608	1313.844	1043.768
85.782	24.826	1312.358	1043.761
86.797	24.816	1311.128	1042.633
87.812	24.825	1308.832	1040.771
88.826	24.620	1308.792	1039.453
89.841	24.492	1307.840	1037.861
90.855	25.071	1306.506	1040.073
91.870	24.919	1306.300	1038.931
92.884	24.976	1304.966	1038.111
93.899	25.016	1303.357	1036.970
94.914	25.045	1303.686	1037.310
95.928	24.730	1303.271	1035.066
96.943	24.961	1302.020	1035.316
97.957	25.024	1301.503	1035.176
98.972	24.757	1299.876	1032.247
99.987	24.981	1299.151	1032.872
101.001	24.873	1298.513	1031.653
102.016	24.520	1297.850	1029.002
103.030	24.615	1297.458	1029.147
104.045	24.822	1296.734	1029.671
105.060	24.438	1296.053	1026.833
106.074	24.129	1293.905	1023.263
107.089	24.285	1292.496	1022.955
108.103	24.003	1290.544	1019.703
109.118	24.229	1289.839	1020.348
110.133	24.245	1288.317	1019.148
111.147	24.283	1287.473	1018.607
112.162	24.062	1286.243	1016.281
113.176	24.760	1284.020	1018.411
114.191	24.225	1284.519	1015.669
115.206	24.355	1284.193	1016.062
116.220	24.601	1282.821	1016.285
117.235	24.457	1281.314	1014.186
118.249	24.278	1279.328	1011.508
119.264	23.950	1279.078	1009.359
120.279	24.073	1279.311	1010.152
121.293	24.185	1278.554	1010.100
122.308	24.151	1277.342	1008.861
123.322	23.923	1276.473	1006.792
124.337	23.767	1276.034	1005.473
125.352	23.884	1274.587	1004.908
126.366	24.009	1272.847	1004.154
127.381	24.257	1271.397	1004.317
128.395	23.768	1271.937	1001.896
129.410	23.916	1270.161	1001.241
130.424	23.552	1270.372	999.269
131.439	23.971	1269.308	1000.703
132.454	23.871	1269.512	1000.214
133.468	24.269	1268.356	1001.450
134.483	24.353	1268.320	1001.806
135.497	24.064	1267.532	999.470
136.512	24.216	1265.809	998.875
137.527	24.121	1265.055	997.660
138.541	24.036	1263.024	995.493
139.556	24.416	1261.906	996.651
140.570	24.543	1261.432	996.895
141.585	24.619	1260.388	996.404
142.600	24.582	1260.951	996.559
143.614	24.856	1259.387	996.758
144.629	24.616	1259.118	995.123
145.643	24.513	1257.444	993.139
146.658	24.603	1255.632	992.118
147.673	24.788	1253.728	991.552
148.687	24.637	1254.226	991.023
149.702	24.396	1253.169	988.762
150.716	23.776	1250.837	983.402
151.731	23.787	1249.680	982.468
152.746	23.791	1249.632	982.368
153.760	24.323	1248.068	983.985
154.775	24.479	1247.617	984.404
155.789	24.655	1246.142	984.121
156.804	24.730	1245.049	983.584
157.819	24.711	1244.182	982.706
158.833	24.552	1244.562	982.049
159.848	24.790	1242.715	981.808
160.862	24.522	1242.719	980.255
161.877	24.198	1241.853	977.705
162.892	24.367	1239.266	976.508
163.906	24.319	1238.758	975.762
164.921	24.017	1238.581	973.882
165.935	24.286	1237.622	974.515
166.950	24.491	1237.452	975.414
167.964	24.503	1236.119	974.341
168.979	24.555	1235.404	973.977
169.994	24.298	1235.432	972.511
171.008	24.180	1235.243	971.631
172.023	24.416	1234.203	972.011
173.037	24.411	1233.408	971.272
174.052	24.458	1232.320	970.583
175.067	24.784	1230.345	970.716
176.081	24.271	1230.307	967.815
177.096	24.128	1229.077	965.983
178.110	24.274	1228.745	966.430
179.125	24.076	1227.100	963.978
180.140	24.357	1226.457	964.911
181.154	24.421	1225.824	964.669
182.169	24.494	1223.815	963.400
183.183	24.346	1224.182	962.804
184.198	24.437	1222.048	961.528
185.213	24.725	1221.068	962.227
186.227	24.815	1220.093	961.854
187.242	24.576	1220.204	960.570
188.256	24.765	1218.247	959.959
189.271	24.769	1217.833	959.572
190.286	24.724	1217.645	959.098
191.300	24.293	1215.848	955.289
192.315	24.100	1216.625	954.780
193.329	24.505	1215.119	955.682
194.344	24.304	1214.218	953.813
195.359	24.442	1212.903	953.432
196.373	23.904	1212.827	950.415
197.388	23.661	1213.351	949.441
198.402	24.183	1213.063	951.921
199.417	24.706	1211.736	953.588
200.432	24.950	1211.604	954.697
201.446	24.856	1210.528	953.267
202.461	24.831	1209.804	952.480
203.475	24.796	1209.909	952.288
204.490	24.539	1207.682	949.088
205.504	24.254	1206.339	946.435
206.519	24.440	1205.169	946.420
207.534	23.908	1204.803	943.227
208.548	23.929	1205.129	943.512
209.563	24.250	1202.839	943.334
210.577	23.960	1202.627	941.551
211.592	24.166	1201.636	941.780
212.607	24.683	1201.007	943.935
213.621	24.732	1200.760	943.916
214.636	24.195	1199.937	940.353
215.650	24.309	1199.361	940.417
216.665	24.695	1197.481	940.894
217.680	24.861	1197.657	941.819
218.694	24.904	1195.952	940.624
219.709	24.728	1195.260	939.070
220.723	24.643	1194.998	938.336
221.738	24.803	1194.362	938.595
222.753	24.616	1192.929	936.405
223.767	24.457	1191.946	934.716
224.782	24.942	1191.345	936.700
225.796	24.951	1191.378	936.693
226.811	24.626	1191.171	934.747
227.826	24.472	1190.344	933.210
228.840	24.358	1189.791	932.096
229.855	24.381	1189.569	931.963
230.869	24.431	1188.468	931.276
231.884	24.446	1186.447	929.689
232.899	23.940	1186.499	927.011
233.913	23.795	1186.427	926.114
234.928	24.400	1185.000	928.067
235.942	24.147	1184.141	926.000
236.957	24.033	1182.993	924.427
237.972	23.951	1182.564	923.583
238.986	23.963	1182.179	923.263
240.001	23.911	1182.279	922.988
241.015	24.407	1180.179	923.839
242.030	24.093	1180.118	922.084
243.045	24.191	1179.793	922.255
244.059	24.315	1178.972	922.174
245.074	24.358	1178.784	922.165
246.088	24.499	1177.684	921.952
247.103	24.901	1175.968	922.598
248.117	24.912	1175.982	922.583
249.132	24.801	1175.330	921.421
250.147	25.091	1175.514	922.975
251.161	25.417	1173.716	923.158
252.176	25.513	1173.119	923.103
253.190	25.469	1173.491	923.088
254.205	25.666	1172.628	923.337
255.220	25.244	1173.513	921.786
256.234	25.713	1172.243	923.112
257.249	25.645	1171.143	921.816
258.263	25.287	1169.866	918.897
259.278	25.233	1170.239	918.832
260.293	25.624	1169.784	920.394
261.307	25.506	1169.447	919.441
262.322	25.315	1167.873	917.148
263.336	25.272	1168.158	917.073
264.351	25.142	1167.092	915.491
265.366	25.340	1166.104	915.641
266.380	25.386	1166.214	915.884
267.395	25.252	1165.024	914.186
268.409	25.322	1163.813	913.510
269.424	25.060	1162.990	911.453
270.439	25.237	1163.427	912.613
271.453	25.056	1162.643	910.999
272.468	25.138	1160.748	909.848
273.482	25.062	1160.536	909.214
274.497	25.001	1159.572	908.073
275.512	25.159	1158.357	907.840
276.526	24.952	1157.068	905.701
277.541	24.737	1157.388	904.784
278.555	25.097	1157.240	906.408
279.570	25.316	1157.562	907.687
280.585	25.507	1155.667	907.086
281.599	25.463	1154.345	905.745
282.614	25.320	1153.953	904.640
283.628	24.838	1153.206	901.548
284.643	25.095	1151.632	901.528
285.657	24.614	1151.979	899.298
286.672	24.965	1150.225	899.613
287.687	24.988	1149.917	899.409
288.701	24.954	1149.099	898.521
289.716	25.197	1147.532	898.431
290.730	25.239	1147.146	898.262
291.745	25.267	1146.784	898.035
292.760	25.215	1146.016	897.094
293.774	25.257	1146.410	897.533
294.789	25.484	1145.226	897.665
295.803	25.183	1145.179	896.044
296.818	25.123	1144.125	894.839
297.833	25.330	1143.425	895.246
298.847	25.303	1141.940	893.867
299.862	25.164	1141.112	892.449
300.876	24.962	1140.956	891.243
301.891	25.293	1140.699	892.613
302.906	25.375	1140.300	892.629
303.920	25.630	1139.041	892.831
304.935	25.711	1139.208	893.284
305.949	25.617	1138.641	892.293
306.964	25.677	1137.706	891.777
307.979	25.520	1137.397	890.682
308.993	25.566	1135.455	889.308
310.008	25.344	1135.758	888.368
311.022	25.657	1135.409	889.564
312.037	25.623	1134.521	888.621
313.052	25.341	1132.925	885.903
314.066	25.284	1132.712	885.373
315.081	24.974	1131.224	882.605
316.095	24.974	1129.629	881.285
317.110	25.025	1129.224	881.143
318.125	25.052	1128.017	880.252
319.139	25.054	1127.357	879.673
320.154	24.952	1128.074	879.650
321.168	24.904	1126.813	878.355
322.183	24.753	1126.737	877.479
323.197	25.422	1124.751	879.128
324.212	25.243	1124.935	878.319
325.227	25.208	1125.426	878.452
326.241	25.016	1124.381	876.621
327.256	24.917	1123.750	875.566
328.270	25.047	1122.930	875.484
329.285	24.887	1122.069	873.954
330.300	25.262	1120.316	874.337
331.314	25.100	1119.527	872.855
332.329	25.094	1119.361	872.621
333.343	25.304	1117.521	872.129
334.358	25.138	1117.620	871.324
335.373	25.565	1117.272	873.051
336.387	25.518	1117.489	872.913
337.402	25.657	1115.619	872.051
338.416	25.298	1115.265	869.955
339.431	25.778	1113.747	871.015
340.446	25.903	1114.347	872.012
341.460	26.078	1113.442	872.076
342.475	25.793	1113.463	870.635
343.489	26.067	1112.308	870.981
344.504	25.954	1110.423	868.881
345.519	25.841	1111.518	869.114
346.533	26.286	1109.333	869.472
347.548	26.417	1108.943	869.720
348.562	25.997	1108.798	867.509
349.577	25.803	1107.415	865.420
350.592	25.560	1105.509	862.686
351.606	25.489	1104.827	861.739
352.621	25.274	1104.873	860.668
353.635	25.197	1104.180	859.679
354.650	25.274	1102.946	859.013
355.665	25.019	1103.126	857.859
356.679	25.619	1102.456	860.128
357.694	25.884	1101.088	860.252
358.708	25.963	1100.568	860.146
359.723	25.670	1100.538	858.649
360.738	25.433	1100.150	857.141
361.752	25.727	1098.861	857.459
362.767	26.004	1097.888	857.942
363.781	25.594	1098.100	856.079
364.796	25.666	1098.224	856.445
365.810	25.726	1098.148	856.597
366.825	26.313	1096.839	858.286
367.840	26.467	1096.430	858.620
368.854	26.421	1095.634	857.704
369.869	26.207	1095.872	856.797
370.883	26.284	1094.109	855.708
371.898	25.879	1093.435	853.189
372.913	25.829	1092.802	852.383
373.927	25.840	1092.438	852.076
374.942	26.193	1091.567	852.988
375.956	26.377	1091.569	853.783
376.971	26.172	1090.964	852.270
377.986	26.232	1089.680	851.473
379.000	26.376	1089.431	851.880
380.015	26.392	1089.490	851.928
381.029	26.213	1089.556	851.058
382.044	26.532	1088.218	851.441
383.059	26.062	1086.864	848.097
384.073	26.479	1085.980	849.291
385.088	26.477	1085.175	848.577
386.102	25.988	1085.652	846.579
387.117	25.996	1084.327	845.509
388.132	25.596	1082.878	842.431
389.146	25.557	1082.137	841.596
390.161	25.871	1081.278	842.322
391.175	25.716	1080.746	841.111
392.190	25.988	1080.323	841.978
393.205	26.291	1080.105	843.145
394.219	26.314	1078.417	841.861
395.234	25.922	1077.714	839.415
396.248	25.957	1076.850	838.827
397.263	25.836	1076.574	837.975
398.278	25.733	1075.509	836.594
399.292	25.840	1074.636	836.337
400.307	26.023	1074.255	836.815
401.321	25.735	1073.963	835.181
402.336	25.464	1071.710	832.101
403.350	25.428	1071.692	831.844
404.365	25.842	1071.585	833.604
405.380	26.115	1070.634	834.053
406.394	25.993	1069.630	832.634
407.409	26.242	1068.758	833.029
408.423	26.196	1069.520	833.337
409.438	26.256	1068.724	832.920
410.453	26.038	1068.160	831.402
411.467	26.446	1066.384	831.824
412.482	26.317	1065.976	830.836
413.496	26.623	1065.890	832.102
414.511	26.700	1065.447	832.038
415.526	26.591	1065.090	831.184
416.540	26.869	1064.876	832.219
417.555	26.594	1063.582	829.877
418.569	26.512	1063.040	829.002
419.584	26.603	1062.602	829.002
420.599	26.387	1062.483	827.850
421.613	153.779	1403.877	1793.089
422.628	141.416	1453.607	1793.196
