DTS Sentinel unit serial number:	SN413079Multiplexer serial number:	ORYXHardware model number:	OX4-SRSoftware version number:	ORYX F/W v4.00 Oryx Data Collector v3.7.2.0data status	okinstallation	princeton_trtdifferential loss correction	single-endedforward channel	channel 2reverse channel	N/Adate	2019/09/13time	08:31:34forward acquisition time	60.00reverse acquisition time	0.00gamma	496.2192k internal	0.2332k external	0.2332temperature offset calibration	1.0193default loss term (dB/km)	0.3790temperature slope calibration	1.0000multiplexer offset coefficient	1.0000multiplexer slope coefficient	1.0000fibre end	0.00T internal ref (°C)	27.52T ext. ref 1 (°C)	4.27T ext. ref 2 (°C)	24.45length (m)	temperature (°C)	Stokes	anti-Stokes-747.200	-82.952	0.344	0.112
-746.185	800.000	0.068	0.199
-745.171	-200.000	-0.028	-0.212
-744.156	201.677	0.044	-0.068
-743.142	-200.000	-0.044	0.307
-742.127	331.698	0.085	-0.164
-741.112	-82.863	-0.209	0.068
-740.098	20.415	-0.431	0.350
-739.083	52.777	0.094	-0.090
-738.069	32.868	0.332	-0.289
-737.054	107.460	-0.173	0.207
-736.039	-72.377	-0.360	0.134
-735.025	-200.000	0.071	-0.467
-734.010	-200.000	0.048	-0.255
-732.996	800.000	0.030	-0.084
-731.981	-5.421	-0.139	0.096
-730.966	-70.877	0.278	0.105
-729.952	-84.278	-0.110	0.035
-728.937	127.228	-0.083	0.106
-727.923	-200.000	-0.055	-0.359
-726.908	34.205	0.058	-0.051
-725.894	118.585	-0.177	0.220
-724.879	-111.445	-0.410	0.084
-723.864	13.045	-0.176	0.137
-722.850	85.769	-0.038	-0.042
-721.835	800.000	0.042	-0.179
-720.821	29.121	0.087	-0.074
-719.806	-27.038	-0.134	0.079
-718.791	333.858	0.076	-0.148
-717.777	185.282	-0.121	-0.181
-716.762	-200.000	0.014	0.231
-715.748	-119.244	-0.085	-0.015
-714.733	186.071	0.095	0.141
-713.718	-64.297	-0.183	0.075
-712.704	-200.000	-0.074	-0.435
-711.689	-101.704	0.172	0.042
-710.675	-114.039	-0.384	-0.075
-709.660	212.929	-0.096	-0.152
-708.645	89.486	-0.179	-0.200
-707.631	-3.906	-0.076	0.053
-706.616	-133.320	0.191	0.024
-705.602	-200.000	-0.020	-0.104
-704.587	-11.819	-0.391	0.258
-703.572	-12.303	0.128	0.084
-702.558	-86.506	-0.235	-0.072
-701.543	800.000	0.035	-0.131
-700.529	-121.565	0.091	0.015
-699.514	-99.055	0.185	-0.047
-698.499	800.000	-0.100	-0.357
-697.485	-200.000	-0.004	-0.103
-696.470	-200.000	-0.013	0.243
-695.456	45.739	-0.093	-0.087
-694.441	240.738	-0.035	-0.059
-693.426	10.810	-0.111	0.085
-692.412	800.000	-0.100	-0.279
-691.397	-54.992	0.063	-0.028
-690.383	-200.000	-0.003	0.099
-689.368	34.194	0.275	0.241
-688.354	273.268	-0.079	-0.140
-687.339	-48.073	-0.260	-0.126
-686.324	-200.000	-0.022	-0.251
-685.310	800.000	0.019	0.081
-684.295	-133.019	-0.242	-0.031
-683.281	-200.000	-0.021	0.253
-682.266	-165.611	-0.120	0.005
-681.251	143.818	0.183	0.244
-680.237	800.000	-0.044	-0.137
-679.222	68.460	0.106	0.109
-678.208	140.046	0.055	-0.073
-677.193	800.000	-0.084	0.314
-676.178	-125.058	0.264	-0.041
-675.164	28.828	-0.172	0.146
-674.149	555.232	0.075	0.180
-673.135	49.757	0.028	-0.026
-672.120	106.822	0.040	0.048
-671.105	-200.000	-0.049	0.410
-670.091	430.536	-0.088	0.191
-669.076	-85.215	0.130	0.041
-668.062	-91.787	-0.144	-0.041
-667.047	-149.467	0.090	0.007
-666.032	766.547	0.033	-0.089
-665.018	381.794	-0.095	0.195
-664.003	-200.000	-0.048	0.383
-662.989	29.382	-0.049	0.042
-661.974	800.000	0.105	-0.360
-660.959	240.621	0.090	0.151
-659.945	-200.000	0.023	-0.120
-658.930	800.000	-0.094	-0.346
-657.916	-64.609	-0.222	0.090
-656.901	800.000	-0.057	-0.229
-655.886	-200.000	-0.042	0.209
-654.872	98.019	0.052	0.061
-653.857	127.823	-0.158	-0.201
-652.843	-200.000	-0.023	-0.127
-651.828	429.525	-0.053	-0.116
-650.814	447.759	-0.114	0.252
-649.799	110.141	0.143	0.172
-648.784	-50.451	-0.147	-0.070
-647.770	-162.561	0.444	-0.022
-646.755	-164.290	0.283	-0.013
-645.741	-200.000	0.028	0.173
-644.726	-200.000	-0.019	-0.261
-643.711	3.546	-0.405	-0.296
-642.697	-200.000	-0.043	-0.218
-641.682	-150.027	0.213	0.017
-640.668	-29.485	0.160	0.091
-639.653	236.274	-0.126	-0.209
-638.638	-0.781	0.059	-0.042
-637.624	77.439	0.163	-0.174
-636.609	9.016	-0.143	0.108
-635.595	39.210	0.146	-0.131
-634.580	-110.331	-0.125	0.026
-633.565	-74.748	-0.082	-0.029
-632.551	176.583	-0.025	0.036
-631.536	646.848	-0.081	-0.207
-630.522	246.801	0.048	0.081
-629.507	-200.000	-0.017	-0.088
-628.492	691.578	0.073	-0.191
-627.478	181.866	-0.109	0.161
-626.463	-112.094	-0.284	-0.057
-625.449	-200.000	-0.057	0.377
-624.434	800.000	-0.077	-0.247
-623.419	-76.951	-0.267	-0.094
-622.405	18.163	0.265	0.212
-621.390	-57.389	0.283	0.125
-620.376	64.797	-0.039	-0.039
-619.361	136.714	-0.108	-0.141
-618.346	-15.682	0.073	0.047
-617.332	52.048	0.138	0.131
-616.317	-189.325	0.268	0.003
-615.303	-2.517	-0.124	-0.087
-614.288	800.000	0.087	-0.370
-613.273	-21.146	0.335	-0.205
-612.259	-73.050	-0.118	0.043
-611.244	-156.546	0.615	-0.038
-610.230	207.846	-0.184	-0.287
-609.215	800.000	0.021	0.082
-608.201	-67.858	-0.108	0.042
-607.186	24.211	0.079	-0.065
-606.171	-200.000	0.026	0.206
-605.157	254.910	0.139	-0.239
-604.142	-200.000	0.014	0.259
-603.128	423.985	-0.066	0.141
-602.113	203.874	-0.126	-0.196
-601.098	-200.000	0.026	-0.143
-600.084	-95.125	0.375	-0.101
-599.069	-69.994	-0.294	0.112
-598.055	-34.413	-0.077	0.042
-597.040	800.000	0.146	0.402
-596.025	-159.930	0.186	-0.010
-595.011	369.379	0.078	0.157
-593.996	-114.041	-0.120	-0.023
-592.982	-200.000	-0.052	-0.378
-591.967	-200.000	-0.006	-0.140
-590.952	-200.000	0.090	-0.405
-589.938	-37.355	0.077	-0.041
-588.923	41.929	-0.040	-0.036
-587.909	64.049	-0.176	-0.177
-586.894	85.609	0.100	-0.110
-585.879	-105.188	-0.053	-0.012
-584.865	389.151	-0.070	-0.145
-583.850	95.204	-0.229	0.261
-582.836	-30.766	0.076	0.043
-581.821	220.847	-0.068	-0.109
-580.806	674.147	-0.072	-0.187
-579.792	14.094	-0.250	0.195
-578.777	246.176	-0.036	-0.061
-577.763	70.241	0.137	-0.142
-576.748	-122.530	-0.277	-0.045
-575.733	237.390	0.141	0.233
-574.719	95.696	-0.043	-0.050
-573.704	-200.000	0.038	0.189
-572.690	-200.000	0.013	-0.084
-571.675	-96.811	0.222	-0.058
-570.661	-60.989	0.185	-0.078
-569.646	503.897	0.005	-0.011
-568.631	248.329	-0.144	-0.244
-567.617	255.529	0.057	-0.098
-566.602	-54.708	-0.264	-0.119
-565.588	-94.690	-0.111	-0.030
-564.573	407.074	0.164	0.346
-563.558	-161.765	0.237	0.012
-562.544	-200.000	-0.005	0.241
-561.529	-28.684	0.184	-0.106
-560.515	715.645	0.061	0.162
-559.500	645.696	0.030	0.076
-558.485	-162.087	-0.311	0.016
-557.471	73.801	-0.270	0.282
-556.456	-44.579	0.229	0.114
-555.442	-55.617	0.231	0.103
-554.427	-98.737	-0.289	-0.073
-553.412	30.030	0.230	0.196
-552.398	713.118	0.124	0.329
-551.383	36.499	-0.354	-0.312
-550.369	140.465	0.021	-0.028
-549.354	197.744	-0.141	0.215
-548.339	-200.000	0.045	-0.219
-547.325	460.050	0.041	-0.092
-546.310	-140.276	-0.144	0.015
-545.296	-151.976	-0.178	0.013
-544.281	-66.342	-0.403	0.160
-543.266	206.184	-0.266	0.413
-542.252	-50.901	0.057	0.027
-541.237	-200.000	0.005	-0.077
-540.223	-200.000	-0.037	0.296
-539.208	53.374	0.060	0.058
-538.193	-15.351	-0.052	-0.033
-537.179	-114.085	0.096	-0.018
-536.164	-200.000	-0.030	-0.160
-535.150	-43.576	0.123	0.062
-534.135	-173.491	-0.433	-0.013
-533.121	692.358	-0.036	-0.093
-532.106	101.816	-0.069	-0.080
-531.091	-8.605	-0.136	0.091
-530.077	-139.852	-0.398	0.042
-529.062	19.922	0.059	0.047
-528.048	235.717	-0.049	-0.080
-527.033	-104.054	0.239	-0.055
-526.018	-159.993	-0.158	0.009
-525.004	800.000	-0.164	-0.561
-523.989	497.722	-0.115	-0.263
-522.975	-40.610	-0.269	-0.139
-521.960	-196.168	0.175	0.001
-520.945	250.598	0.164	-0.278
-519.931	4.105	-0.019	0.014
-518.916	-69.545	0.281	-0.107
-517.902	-67.051	0.046	-0.018
-516.887	-4.244	0.112	0.077
-515.872	800.000	0.031	0.119
-514.858	35.022	0.031	-0.027
-513.843	-46.355	-0.103	-0.050
-512.829	319.590	0.048	0.091
-511.814	-200.000	0.007	0.243
-510.799	228.989	-0.126	0.205
-509.785	-200.000	0.004	-0.197
-508.770	193.865	-0.091	-0.137
-507.756	-116.019	0.143	0.027
-506.741	-109.603	0.237	-0.050
-505.726	198.173	-0.073	0.111
-504.712	-28.470	0.338	0.194
-503.697	800.000	0.026	0.101
-502.683	-200.000	0.013	0.429
-501.668	94.681	0.165	0.187
-500.653	-8.490	-0.234	0.157
-499.639	800.000	0.037	0.110
-498.624	-200.000	-0.041	-0.318
-497.610	-200.000	0.042	-0.332
-496.595	145.216	0.083	-0.111
-495.581	-200.000	0.027	0.118
-494.566	210.597	-0.093	0.146
-493.551	334.796	0.161	-0.311
-492.537	73.286	-0.177	0.185
-491.522	42.844	-0.174	0.158
-490.508	-200.000	-0.010	0.101
-489.493	-89.343	0.024	0.007
-488.478	-62.981	0.491	0.202
-487.464	-200.000	0.066	-0.374
-486.449	276.080	-0.124	0.219
-485.435	-169.865	-0.092	0.003
-484.420	-102.257	-0.209	0.050
-483.405	-68.812	-0.152	0.058
-482.391	-94.358	-0.261	-0.071
-481.376	158.548	0.107	-0.148
-480.362	-200.000	-0.016	0.196
-479.347	695.258	-0.103	0.270
-478.332	-97.193	-0.223	-0.058
-477.318	167.370	-0.106	0.150
-476.303	-127.795	-0.366	-0.053
-475.289	63.308	0.177	-0.176
-474.274	-15.270	-0.052	0.033
-473.259	-200.000	-0.020	0.346
-472.245	361.302	-0.069	-0.138
-471.230	154.282	0.226	-0.309
-470.216	376.480	0.059	0.120
-469.201	-125.504	0.226	-0.034
-468.186	19.298	0.107	0.085
-467.172	400.839	0.177	-0.370
-466.157	82.026	0.089	-0.096
-465.143	109.557	0.089	-0.106
-464.128	206.566	0.133	-0.206
-463.113	800.000	-0.047	-0.161
-462.099	-76.067	-0.067	0.024
-461.084	-17.064	0.369	0.232
-460.070	-200.000	-0.062	0.363
-459.055	-200.000	0.002	0.059
-458.040	52.659	0.060	-0.057
-457.026	800.000	0.059	0.220
-456.011	83.406	0.146	0.158
-454.997	-54.993	-0.355	0.159
-453.982	105.913	0.051	0.061
-452.968	-121.910	-0.232	-0.038
-451.953	18.550	0.175	-0.139
-450.938	-180.175	0.023	0.000
-449.924	743.740	0.072	0.193
-448.909	674.839	0.031	0.080
-447.895	290.638	0.112	-0.203
-446.880	-200.000	0.081	-0.466
-445.865	-159.041	-0.279	-0.016
-444.851	-105.193	-0.105	0.024
-443.836	349.182	0.079	-0.155
-442.822	93.717	0.089	0.100
-441.807	16.136	0.196	0.153
-440.792	407.512	0.037	-0.078
-439.778	800.000	-0.035	0.099
-438.763	-95.120	0.209	0.056
-437.749	-32.611	-0.075	-0.042
-436.734	72.865	0.304	-0.315
-435.719	62.361	0.080	-0.079
-434.705	59.056	-0.243	0.238
-433.690	800.000	-0.065	0.265
-432.676	327.083	-0.127	0.241
-431.661	-137.727	0.174	-0.019
-430.646	-200.000	-0.074	0.396
-429.632	285.102	-0.093	-0.167
-428.617	-200.000	0.010	0.420
-427.603	-200.000	-0.009	-0.133
-426.588	-200.000	-0.092	-0.426
-425.573	-7.310	-0.443	-0.298
-424.559	398.023	-0.166	-0.345
-423.544	113.089	-0.169	-0.203
-422.530	324.876	-0.040	-0.076
-421.515	-200.000	0.002	-0.136
-420.500	-24.244	0.191	-0.113
-419.486	800.000	0.068	-0.274
-418.471	577.548	0.035	0.085
-417.457	800.000	0.111	-0.357
-416.442	-200.000	-0.051	-0.237
-415.428	800.000	0.110	-0.320
-414.413	365.040	0.085	0.170
-413.398	800.000	0.092	-0.261
-412.384	-200.000	0.081	0.359
-411.369	800.000	-0.100	0.381
-410.355	-127.453	-0.242	-0.035
-409.340	9.753	0.261	-0.196
-408.325	7.707	-0.190	0.142
-407.311	696.808	0.089	0.233
-406.296	281.708	-0.137	-0.244
-405.282	11.421	0.026	0.020
-404.267	-200.000	-0.004	-0.056
-403.252	247.204	0.125	0.210
-402.238	-72.285	0.305	-0.112
-401.223	-115.811	0.043	0.008
-400.209	-74.917	-0.200	-0.071
-399.194	-67.377	0.294	0.115
-398.179	271.605	-0.283	0.494
-397.165	12.269	0.271	-0.207
-396.150	12.170	0.178	0.136
-395.136	5.716	0.228	-0.167
-394.121	-43.717	-0.223	-0.111
-393.106	42.702	0.053	0.048
-392.092	65.775	-0.095	0.095
-391.077	106.988	0.068	-0.080
-390.063	124.642	0.158	-0.197
-389.048	-200.000	0.014	-0.341
-388.033	-136.392	0.276	0.032
-387.019	-80.029	-0.275	-0.091
-386.004	-148.419	0.364	-0.030
-384.990	144.993	-0.213	0.282
-383.975	27.891	-0.173	0.145
-382.960	-76.045	-0.126	0.044
-381.946	-88.902	-0.035	0.010
-380.931	-83.710	-0.320	-0.101
-379.917	88.702	0.101	0.111
-378.902	262.860	-0.193	-0.331
-377.888	-83.217	-0.210	-0.067
-376.873	-68.371	0.142	0.055
-375.858	-200.000	-0.025	0.194
-374.844	-63.895	-0.124	0.050
-373.829	36.746	-0.125	-0.110
-372.815	-200.000	-0.004	0.376
-371.800	115.550	-0.079	0.096
-370.785	-6.488	-0.128	-0.086
-369.771	139.351	0.119	-0.155
-368.756	332.356	0.055	-0.106
-367.742	800.000	0.038	0.111
-366.727	11.052	0.214	-0.162
-365.712	99.685	-0.170	-0.195
-364.698	367.162	-0.125	-0.251
-363.683	-96.032	-0.218	0.057
-362.669	114.538	-0.166	-0.201
-361.654	-115.414	0.122	-0.023
-360.639	156.314	0.108	0.148
-359.625	-156.303	0.182	0.011
-358.610	471.778	-0.190	0.424
-357.596	-200.000	0.042	0.275
-356.581	-200.000	0.056	0.459
-355.566	-200.000	-0.021	-0.138
-354.552	800.000	0.022	0.073
-353.537	375.475	0.145	-0.292
-352.523	-193.577	-0.092	0.001
-351.508	-200.000	0.017	0.078
-350.493	401.481	-0.053	-0.110
-349.479	-200.000	0.025	0.169
-348.464	800.000	0.063	-0.250
-347.450	451.389	0.048	-0.106
-346.435	-77.907	-0.205	0.070
-345.420	-200.000	-0.058	0.452
-344.406	3.416	0.317	0.229
-343.391	-103.449	-0.291	0.068
-342.377	55.775	0.113	0.108
-341.362	-200.000	-0.016	0.127
-340.348	639.375	-0.032	-0.080
-339.333	-117.348	0.232	-0.042
-338.318	20.085	-0.157	0.125
-337.304	-69.259	0.087	0.033
-336.289	-59.492	-0.158	-0.067
-335.275	57.807	0.129	-0.125
-334.260	47.852	0.219	0.202
-333.245	135.752	-0.211	-0.272
-332.231	-200.000	0.005	-0.153
-331.216	0.555	-0.198	0.140
-330.202	-200.000	0.027	-0.208
-329.187	-36.376	-0.184	0.098
-328.172	800.000	-0.083	0.303
-327.158	-200.000	0.050	0.225
-326.143	122.085	-0.159	-0.197
-325.129	106.778	-0.180	-0.212
-324.114	45.890	0.089	0.081
-323.099	-121.337	-0.275	0.045
-322.085	44.081	-0.124	-0.112
-321.070	-56.296	0.091	-0.040
-320.056	432.097	0.017	-0.037
-319.041	14.559	-0.253	0.195
-318.026	-136.275	-0.127	-0.015
-317.012	-41.733	0.089	-0.045
-315.997	-5.004	-0.069	-0.047
-314.983	-71.038	0.267	0.099
-313.968	-200.000	0.068	-0.366
-312.953	-77.440	0.199	-0.068
-311.939	-171.399	-0.037	0.001
-310.924	-157.765	0.075	-0.004
-309.910	-200.000	0.025	-0.226
-308.895	-103.769	0.276	-0.064
-307.880	81.994	-0.062	-0.066
-306.866	-169.188	-0.223	0.008
-305.851	-200.000	-0.013	0.123
-304.837	-200.000	0.029	0.154
-303.822	-58.886	0.068	-0.029
-302.807	-200.000	-0.013	-0.231
-301.793	254.608	0.121	0.205
-300.778	-122.999	-0.166	0.026
-299.764	308.750	0.193	-0.356
-298.749	79.091	0.098	0.104
-297.735	-19.421	-0.201	0.123
-296.720	-26.934	0.178	0.103
-295.705	-97.111	0.286	0.074
-294.691	-200.000	0.017	0.226
-293.676	140.277	-0.143	-0.187
-292.662	13.412	-0.247	0.190
-291.647	3.590	0.317	0.229
-290.632	800.000	-0.087	0.255
-289.618	-74.180	-0.047	-0.017
-288.603	75.477	-0.214	-0.223
-287.589	800.000	-0.071	-0.260
-286.574	-67.852	0.381	-0.147
-285.559	611.144	-0.022	0.055
-284.545	-38.571	0.102	-0.053
-283.530	-99.013	0.080	-0.020
-282.516	-59.216	-0.077	0.033
-281.501	-50.714	-0.196	-0.091
-280.486	231.737	-0.142	0.231
-279.472	214.664	-0.039	-0.061
-278.457	-68.365	0.463	-0.178
-277.443	114.770	-0.264	0.318
-276.428	53.654	0.251	0.238
-275.413	-108.788	-0.235	0.050
-274.399	-119.078	0.162	0.028
-273.384	346.979	0.097	0.188
-272.370	-200.000	-0.019	0.089
-271.355	73.376	-0.110	-0.113
-270.340	-11.233	-0.218	0.142
-269.326	174.907	-0.162	0.232
-268.311	-88.567	-0.173	0.051
-267.297	-200.000	0.019	0.162
-266.282	-200.000	0.050	0.296
-265.267	210.173	0.256	-0.397
-264.253	325.992	-0.157	0.297
-263.238	77.707	-0.169	-0.178
-262.224	51.886	-0.189	-0.178
-261.209	-138.339	0.103	-0.011
-260.195	122.248	-0.134	0.165
-259.180	-200.000	0.004	-0.185
-258.165	157.896	-0.159	-0.218
-257.151	323.793	0.039	-0.074
-256.136	-57.879	-0.150	-0.065
-255.122	-190.440	0.308	0.003
-254.107	-129.510	-0.335	0.046
-253.092	203.381	0.053	-0.081
-252.078	-70.853	-0.078	0.029
-251.063	33.474	0.030	-0.026
-250.049	-52.993	-0.092	-0.042
-249.034	-200.000	-0.004	0.314
-248.019	-95.448	0.115	-0.030
-247.005	-97.111	0.098	-0.025
-245.990	-19.286	0.089	-0.054
-244.976	68.636	-0.113	0.115
-243.961	-42.226	0.394	-0.198
-242.946	-200.000	0.035	-0.226
-241.932	800.000	0.068	-0.267
-240.917	800.000	0.009	-0.036
-239.903	-142.759	0.258	0.025
-238.888	717.501	0.160	-0.419
-237.873	306.327	-0.078	-0.143
-236.859	-97.361	-0.418	-0.107
-235.844	549.739	0.130	-0.306
-234.830	-48.714	-0.116	-0.055
-233.815	800.000	-0.076	0.284
-232.800	-200.000	0.048	0.272
-231.786	-200.000	0.003	0.013
-230.771	625.657	-0.046	0.114
-229.757	-137.770	0.344	0.038
-228.742	800.000	0.072	-0.308
-227.727	103.925	0.127	-0.147
-226.713	37.261	0.107	0.094
-225.698	443.093	-0.177	-0.383
-224.684	-11.820	-0.236	0.153
-223.669	104.326	-0.022	0.025
-222.655	15.603	0.261	0.202
-221.640	8.112	0.234	-0.173
-220.625	19.524	-0.168	0.134
-219.611	619.042	0.061	0.152
-218.596	686.550	0.123	-0.318
-217.582	13.505	0.161	-0.123
-216.567	-200.000	0.016	-0.116
-215.552	-26.319	0.095	-0.055
-214.538	193.432	0.055	0.083
-213.523	428.660	-0.099	0.210
-212.509	-32.365	-0.203	0.112
-211.494	-200.000	-0.027	0.231
-210.479	-200.000	0.101	0.532
-209.465	-38.203	-0.119	0.062
-208.450	450.821	0.165	-0.358
-207.436	-114.408	0.192	0.036
-206.421	-112.569	0.272	0.053
-205.406	258.617	0.058	-0.099
-204.392	173.264	-0.092	-0.131
-203.377	66.676	-0.318	-0.318
-202.363	-58.937	-0.143	0.061
-201.348	776.426	-0.089	0.240
-200.333	-88.975	0.011	0.003
-199.319	3.894	0.361	-0.260
-198.304	-144.210	-0.130	-0.012
-197.290	-14.691	-0.162	-0.103
-196.275	-200.000	0.004	-0.025
-195.260	-200.000	-0.010	0.298
-194.246	-15.887	-0.035	-0.022
-193.231	241.476	-0.175	-0.288
-192.217	404.596	-0.218	0.453
-191.202	710.201	0.094	-0.246
-190.187	32.969	-0.026	-0.022
-189.173	536.866	-0.083	0.193
-188.158	-79.098	0.241	0.081
-187.144	22.571	0.194	0.156
-186.129	146.091	-0.120	0.158
-185.114	44.010	-0.243	0.219
-184.100	157.235	0.128	0.174
-183.085	800.000	0.058	-0.215
-182.071	-200.000	0.040	0.173
-181.056	638.126	-0.069	-0.172
-180.042	340.730	0.148	0.283
-179.027	-23.998	0.226	0.133
-178.012	81.548	-0.107	0.114
-176.998	11.102	-0.025	0.019
-175.983	-200.000	0.010	-0.099
-174.969	195.044	-0.113	0.168
-173.954	800.000	0.021	0.085
-172.939	-112.477	-0.321	-0.063
-171.925	-56.957	0.255	0.111
-170.910	-200.000	0.021	0.112
-169.896	56.796	0.164	0.157
-168.881	256.404	0.206	-0.348
-167.866	345.559	-0.102	-0.197
-166.852	-123.737	0.356	-0.055
-165.837	-114.028	-0.100	0.019
-164.823	122.562	-0.029	0.035
-163.808	176.111	-0.098	0.140
-162.793	612.317	0.037	-0.090
-161.779	-200.000	0.021	0.104
-160.764	199.127	0.225	0.339
-159.750	166.133	-0.065	0.091
-158.735	87.060	-0.076	-0.082
-157.720	-200.000	-0.033	0.300
-156.706	-200.000	0.012	-0.082
-155.691	447.844	0.042	-0.090
-154.677	-72.546	-0.123	-0.045
-153.662	86.881	-0.163	-0.177
-152.647	69.605	-0.184	0.186
-151.633	339.002	0.027	0.052
-150.618	105.777	-0.258	-0.300
-149.604	800.000	-0.183	-0.552
-148.589	-200.000	-0.010	0.348
-147.574	89.999	0.086	-0.094
-146.560	484.956	0.166	-0.372
-145.545	465.584	-0.033	0.072
-144.531	-34.104	-0.157	-0.085
-143.516	-120.161	-0.156	0.026
-142.502	-200.000	0.018	-0.323
-141.487	338.961	-0.088	-0.169
-140.472	-98.707	0.053	0.013
-139.458	-20.671	-0.166	0.100
-138.443	-200.000	0.005	-0.091
-137.429	-22.295	0.144	0.085
-136.414	-118.576	0.113	0.020
-135.399	57.671	0.094	-0.090
-134.385	800.000	-0.051	-0.169
-133.370	-200.000	-0.006	0.062
-132.356	477.516	-0.117	-0.261
-131.341	800.000	0.032	0.115
-130.326	145.401	-0.135	-0.177
-129.312	-94.209	0.310	0.083
-128.297	-200.000	-0.005	0.139
-127.283	56.370	0.164	0.157
-126.268	-47.794	-0.154	0.073
-125.253	-6.290	-0.015	-0.010
-124.239	20.397	-0.351	0.279
-123.224	86.097	-0.153	-0.166
-122.210	-85.504	-0.350	-0.107
-121.195	82.298	0.224	-0.238
-120.180	-14.570	-0.266	-0.168
-119.166	141.110	-0.279	-0.362
-118.151	800.000	0.069	-0.216
-117.137	599.420	-0.021	-0.050
-116.122	-200.000	-0.008	0.054
-115.107	-63.586	0.207	-0.083
-114.093	-1.893	-0.139	0.096
-113.078	125.947	0.021	-0.026
-112.064	180.346	0.035	-0.050
-111.049	384.048	0.107	-0.216
-110.034	-146.227	0.330	-0.028
-109.020	-45.931	-0.152	-0.074
-108.005	103.193	0.106	0.121
-106.991	392.533	0.048	-0.098
-105.976	19.517	-0.055	-0.044
-104.962	-200.000	-0.006	0.038
-103.947	115.257	-0.273	0.327
-102.932	383.090	0.128	0.259
-101.918	-10.435	-0.253	-0.165
-100.903	456.360	0.145	0.315
-99.889	-139.191	-0.410	0.043
-98.874	152.574	0.168	-0.225
-97.859	-151.281	0.245	0.018
-96.845	-200.000	-0.011	-0.178
-95.830	-176.932	-0.305	-0.008
-94.816	32.659	0.110	-0.094
-93.801	-200.000	-0.024	0.184
-92.786	-80.050	-0.312	-0.103
-91.772	-82.798	0.081	-0.026
-90.757	-52.058	-0.195	-0.089
-89.743	-200.000	0.045	0.364
-88.728	-130.440	0.209	0.028
-87.713	-200.000	-0.027	0.127
-86.699	-95.494	-0.077	0.020
-85.684	-200.000	0.047	-0.363
-84.670	180.299	-0.130	0.187
-83.655	-200.000	0.026	0.319
-82.640	23.805	-0.222	-0.180
-81.626	800.000	-0.041	0.157
-80.611	25.444	0.031	0.025
-79.597	-73.542	-0.129	0.046
-78.582	430.468	0.071	-0.150
-77.567	-68.522	-0.348	0.132
-76.553	316.532	0.090	-0.166
-75.538	800.000	0.158	-0.554
-74.524	8.054	0.341	0.251
-73.509	-63.684	-0.417	-0.168
-72.494	-87.481	-0.264	0.078
-71.480	79.975	-0.186	0.195
-70.465	-200.000	0.030	0.240
-69.451	-200.000	-0.013	0.311
-68.436	800.000	-0.134	-0.404
-67.422	-10.488	-0.335	-0.217
-66.407	-88.856	-0.203	-0.059
-65.392	526.007	0.029	-0.066
-64.378	800.000	-0.065	-0.187
-63.363	-33.553	0.218	-0.118
-62.349	-84.686	-0.279	-0.086
-61.334	91.289	-1.039	-1.143
-60.319	69.387	0.589	0.594
-59.305	-200.000	-0.131	-0.928
-58.290	77.554	0.960	1.000
-57.276	412.145	0.787	1.636
-56.261	-200.000	112.283	631.906
-55.246	524.088	1528.354	3518.690
-54.232	174.846	2710.595	3841.285
-53.217	102.800	2303.647	2640.127
-52.203	37.037	1906.921	1651.939
-51.188	30.786	1694.393	1420.263
-50.173	28.193	1651.861	1365.244
-49.159	49.250	1707.156	1571.093
-48.144	48.364	1722.023	1577.999
-47.130	30.369	1679.031	1404.011
-46.115	27.653	1664.660	1371.542
-45.100	27.402	1659.481	1365.341
-44.086	27.419	1656.825	1363.225
-43.071	27.418	1654.424	1361.193
-42.057	27.412	1652.034	1359.124
-41.042	27.412	1649.847	1357.274
-40.027	27.426	1647.673	1355.531
-39.013	27.317	1645.987	1353.282
-37.998	27.478	1643.883	1352.697
-36.984	27.398	1642.691	1351.067
-35.969	27.507	1641.624	1350.943
-34.954	27.582	1639.785	1349.932
-33.940	27.563	1638.185	1348.421
-32.925	27.463	1636.800	1346.484
-31.911	27.560	1634.552	1345.298
-30.896	27.564	1632.902	1343.920
-29.881	27.484	1631.230	1341.897
-28.867	27.445	1629.645	1340.255
-27.852	27.463	1628.086	1339.051
-26.838	27.483	1626.719	1338.021
-25.823	27.487	1625.128	1336.693
-24.809	27.493	1624.608	1336.253
-23.794	27.472	1622.656	1334.440
-22.779	27.475	1621.020	1333.063
-21.765	27.478	1619.349	1331.661
-20.750	27.546	1617.731	1330.770
-19.736	27.478	1616.899	1329.537
-18.721	27.482	1615.347	1328.240
-17.706	27.511	1614.014	1327.302
-16.692	27.602	1611.697	1326.005
-15.677	27.561	1611.148	1325.205
-14.663	27.659	1609.071	1324.156
-13.648	27.584	1608.039	1322.706
-12.633	27.605	1606.298	1321.378
-11.619	27.502	1604.987	1319.500
-10.604	27.561	1603.366	1318.539
-9.590	27.598	1602.522	1318.065
-8.575	27.636	1601.098	1317.116
-7.560	27.625	1599.800	1315.911
-6.546	27.541	1598.833	1314.458
-5.531	27.572	1597.752	1313.744
-4.517	27.514	1596.737	1312.438
-3.502	27.583	1595.120	1311.554
-2.487	27.628	1593.734	1310.684
-1.473	27.472	1582.104	1299.957
-0.458	24.917	1563.428	1266.509
0.556	23.877	1564.758	1238.194
1.571	21.735	1589.419	1242.426
2.586	21.089	1602.175	1247.669
3.600	18.772	1547.318	1188.825
4.615	11.609	1439.661	1059.720
5.629	5.427	1378.702	976.266
6.644	4.332	1371.345	964.167
7.659	4.225	1371.039	963.201
8.673	4.225	1370.016	962.402
9.688	4.308	1367.754	961.241
10.702	4.225	1364.699	958.498
11.717	7.181	1370.690	980.948
12.731	14.833	1384.789	1038.671
13.746	21.087	1394.149	1084.606
14.761	22.507	1395.015	1094.006
15.775	22.025	1393.157	1089.461
16.790	20.966	1391.034	1081.144
17.804	20.246	1389.128	1075.107
18.819	19.900	1387.610	1071.692
19.834	19.838	1386.815	1070.601
20.848	19.839	1385.671	1069.627
21.863	19.533	1384.947	1067.087
22.877	19.467	1383.923	1065.792
23.892	19.361	1382.836	1064.211
24.907	19.332	1381.738	1063.092
25.921	19.336	1381.125	1062.551
26.936	19.300	1380.209	1061.529
27.950	19.406	1379.082	1061.220
28.965	19.563	1378.021	1061.273
29.980	19.629	1377.570	1061.237
30.994	19.829	1376.251	1061.355
32.009	19.912	1374.626	1060.521
33.023	19.680	1374.455	1058.868
34.038	19.727	1372.295	1057.402
35.053	19.616	1370.823	1055.497
36.067	19.512	1370.464	1054.491
37.082	19.650	1369.390	1054.410
38.096	19.631	1368.845	1053.785
39.111	19.697	1367.889	1053.357
40.126	19.466	1367.199	1051.323
41.140	19.236	1365.751	1048.721
42.155	19.043	1365.206	1047.032
43.169	19.102	1364.660	1046.880
44.184	19.066	1364.497	1046.446
45.199	19.067	1364.593	1046.430
46.213	19.324	1363.819	1047.308
47.228	19.464	1363.560	1047.866
48.242	19.576	1362.204	1047.406
49.257	19.464	1360.686	1045.471
50.271	19.474	1358.874	1044.046
51.286	19.481	1357.592	1043.008
52.301	19.313	1356.811	1041.306
53.315	19.369	1355.363	1040.437
54.330	19.236	1354.409	1038.812
55.344	19.061	1353.209	1036.744
56.359	19.160	1351.853	1036.211
57.374	19.192	1350.864	1035.555
58.388	19.077	1350.359	1034.382
59.403	19.004	1349.930	1033.523
60.417	18.968	1349.315	1032.745
61.432	18.894	1348.364	1031.481
62.447	18.828	1347.393	1030.253
63.461	18.821	1346.180	1029.193
64.476	18.794	1345.197	1028.191
65.490	18.779	1343.608	1026.795
66.505	18.828	1342.002	1025.768
67.520	18.814	1341.568	1025.263
68.534	18.925	1339.905	1024.565
69.549	18.858	1338.962	1023.350
70.563	18.715	1338.307	1021.910
71.578	18.757	1336.524	1020.709
72.593	18.589	1335.824	1019.086
73.607	18.601	1334.937	1018.391
74.622	18.648	1334.545	1018.279
75.636	18.769	1333.345	1017.988
76.651	18.665	1333.140	1017.128
77.666	18.724	1332.648	1017.012
78.680	18.810	1332.589	1017.383
79.695	18.916	1331.663	1017.217
80.709	18.996	1330.920	1017.031
81.724	19.125	1330.348	1017.265
82.739	19.179	1329.191	1016.613
83.753	19.376	1328.521	1017.170
84.768	19.509	1328.351	1017.732
85.782	19.615	1326.842	1017.112
86.797	19.709	1325.810	1016.787
87.812	19.520	1324.106	1014.276
88.826	19.451	1323.130	1013.033
89.841	19.496	1322.513	1012.735
90.855	19.636	1321.331	1012.560
91.870	19.652	1320.764	1012.129
92.884	19.684	1320.178	1011.782
93.899	19.720	1318.985	1010.988
94.914	19.776	1318.412	1010.783
95.928	19.708	1317.663	1009.727
96.943	19.691	1316.193	1008.408
97.957	19.595	1315.484	1007.217
98.972	19.736	1314.174	1006.947
99.987	19.599	1313.523	1005.564
101.001	19.710	1312.186	1005.094
102.016	19.656	1311.116	1003.873
103.030	19.654	1310.684	1003.444
104.045	19.605	1309.838	1002.420
105.060	19.486	1308.411	1000.547
106.074	19.172	1306.798	997.411
107.089	18.894	1305.204	994.497
108.103	18.872	1304.091	993.432
109.118	18.800	1302.483	991.703
110.133	18.845	1301.459	991.098
111.147	18.948	1299.711	990.273
112.162	18.919	1298.958	989.442
113.176	19.008	1298.074	989.195
114.191	19.117	1297.589	989.365
115.206	19.030	1296.183	987.703
116.220	19.090	1294.563	986.729
117.235	18.957	1293.790	985.287
118.249	18.974	1292.349	984.202
119.264	18.924	1291.166	982.926
120.279	18.809	1290.350	981.563
121.293	18.728	1289.476	980.349
122.308	18.622	1288.384	978.824
123.322	18.511	1287.428	977.381
124.337	18.546	1285.901	976.334
125.352	18.694	1284.791	976.249
126.366	18.592	1284.111	975.062
127.381	18.545	1282.727	973.662
128.395	18.607	1282.118	973.462
129.410	18.696	1280.946	972.989
130.424	18.752	1280.434	972.835
131.439	18.900	1279.369	972.776
132.454	18.953	1278.671	972.459
133.468	19.057	1277.549	972.108
134.483	18.995	1277.317	971.493
135.497	19.022	1276.454	970.905
136.512	18.954	1275.564	969.760
137.527	19.095	1273.509	968.905
138.541	19.155	1272.260	968.203
139.556	19.172	1271.172	967.386
140.570	19.188	1270.599	966.957
141.585	19.322	1269.413	966.717
142.600	19.532	1268.438	967.068
143.614	19.536	1267.866	966.566
144.629	19.673	1266.428	966.155
145.643	19.582	1265.358	964.742
146.658	19.390	1264.224	962.721
147.673	19.357	1262.491	961.132
148.687	19.177	1260.899	958.830
149.702	19.011	1259.684	956.904
150.716	19.002	1258.454	955.830
151.731	19.044	1257.010	954.885
152.746	19.072	1255.950	954.151
153.760	19.226	1254.782	954.031
154.775	19.198	1254.186	953.335
155.789	19.374	1252.570	952.997
156.804	19.318	1252.133	952.272
157.819	19.367	1251.431	951.923
158.833	19.514	1250.690	952.089
159.848	19.677	1250.095	952.446
160.862	19.654	1248.607	951.103
161.877	19.335	1246.798	947.885
162.892	19.067	1246.044	945.759
163.906	19.065	1244.756	944.684
164.921	19.061	1244.063	944.054
165.935	19.229	1243.373	944.366
166.950	19.235	1242.625	943.749
167.964	19.304	1241.334	943.064
168.979	19.224	1241.039	942.319
169.994	19.182	1240.520	941.613
171.008	19.261	1239.272	941.011
172.023	19.273	1239.177	940.921
173.037	19.540	1238.413	941.714
174.052	19.527	1237.055	940.528
175.067	19.263	1236.085	938.270
176.081	19.052	1235.055	936.256
177.096	19.077	1233.580	935.195
178.110	19.171	1232.611	934.884
179.125	19.164	1231.871	934.202
180.140	19.293	1230.522	933.797
181.154	19.370	1229.838	933.613
182.169	19.531	1228.634	933.488
183.183	19.723	1227.357	933.470
184.198	19.657	1226.425	932.322
185.213	19.657	1225.509	931.545
186.227	19.646	1224.708	930.795
187.242	19.775	1223.734	930.664
188.256	19.780	1222.705	929.827
189.271	19.807	1222.112	929.440
190.286	19.661	1220.398	927.272
191.300	19.230	1219.227	923.988
192.315	19.043	1218.506	922.358
193.329	19.078	1218.178	922.215
194.344	19.195	1217.511	922.252
195.359	19.341	1217.229	922.737
196.373	19.357	1216.702	922.345
197.388	19.437	1216.551	922.578
198.402	19.774	1215.930	923.824
199.417	19.933	1215.658	924.385
200.432	20.016	1215.274	924.451
201.446	20.142	1213.998	924.076
202.461	20.071	1213.749	923.421
203.475	20.035	1212.572	922.253
204.490	19.885	1210.790	920.023
205.504	19.821	1209.013	918.249
206.519	19.646	1208.348	916.733
207.534	19.669	1207.183	915.891
208.548	19.619	1206.307	914.878
209.563	19.545	1205.820	914.038
210.577	19.589	1204.580	913.251
211.592	19.803	1203.455	913.445
212.607	19.936	1202.942	913.678
213.621	19.876	1202.224	912.738
214.636	19.962	1201.438	912.511
215.650	19.907	1200.591	911.500
216.665	19.946	1199.750	910.983
217.680	20.156	1198.877	911.347
218.694	20.272	1198.201	911.361
219.709	20.186	1197.221	910.081
220.723	20.021	1196.702	908.740
221.738	20.178	1195.653	908.688
222.753	20.093	1195.053	907.709
223.767	20.178	1194.175	907.406
224.782	20.222	1193.780	907.255
225.796	20.344	1193.221	907.386
226.811	20.332	1192.305	906.547
227.826	20.147	1191.545	904.924
228.840	20.090	1190.737	903.934
229.855	19.925	1190.253	902.626
230.869	20.064	1189.123	902.411
231.884	19.924	1188.399	901.051
232.899	19.778	1187.388	899.445
233.913	19.849	1186.604	899.142
234.928	19.765	1185.783	898.004
235.942	19.650	1185.172	896.864
236.957	19.715	1184.272	896.442
237.972	19.761	1183.572	896.075
238.986	19.705	1183.162	895.393
240.001	19.760	1182.165	894.843
241.015	19.773	1181.620	894.421
242.030	19.963	1180.521	894.487
243.045	20.039	1180.241	894.590
244.059	20.041	1179.257	893.774
245.074	20.116	1178.547	893.545
246.088	20.196	1177.844	893.347
247.103	20.308	1177.110	893.287
248.117	20.363	1176.796	893.252
249.132	20.657	1175.937	894.032
250.147	20.714	1175.970	894.273
251.161	20.950	1175.094	894.736
252.176	20.916	1174.412	893.964
253.190	21.047	1173.555	893.903
254.205	21.165	1173.307	894.244
255.220	21.056	1172.719	893.157
256.234	21.005	1172.021	892.284
257.249	21.012	1171.493	891.836
258.263	20.984	1170.765	891.065
259.278	20.921	1170.235	890.257
260.293	21.122	1169.504	890.647
261.307	21.092	1169.027	890.053
262.322	21.172	1168.456	889.951
263.336	21.161	1167.604	889.165
264.351	21.143	1167.057	888.578
265.366	21.206	1166.643	888.507
266.380	21.202	1165.514	887.544
267.395	21.127	1164.143	886.042
268.409	20.995	1163.730	884.982
269.424	20.914	1163.446	884.276
270.439	20.875	1162.596	883.352
271.453	20.821	1161.903	882.472
272.468	20.861	1160.174	881.288
273.482	20.663	1159.615	879.781
274.497	20.772	1159.036	879.815
275.512	20.738	1158.778	879.368
276.526	20.863	1157.682	879.090
277.541	20.728	1157.280	878.029
278.555	20.879	1156.615	878.205
279.570	21.014	1156.035	878.370
280.585	21.239	1155.296	878.862
281.599	21.264	1154.053	877.963
282.614	20.991	1152.935	875.664
283.628	20.972	1151.427	874.347
284.643	20.961	1150.801	873.739
285.657	20.920	1149.803	872.697
286.672	20.861	1149.223	871.885
287.687	20.922	1148.298	871.410
288.701	20.942	1147.727	871.002
289.716	20.933	1147.012	870.337
290.730	20.984	1146.236	869.927
291.745	21.007	1145.708	869.564
292.760	21.021	1145.278	869.229
293.774	21.214	1144.344	869.406
294.789	21.305	1144.049	869.554
295.803	21.188	1143.795	868.705
296.818	21.077	1142.278	866.925
297.833	21.015	1141.298	865.793
298.847	20.993	1140.721	865.172
299.862	21.026	1140.327	864.961
300.876	21.203	1139.551	865.170
301.891	21.156	1139.026	864.462
302.906	21.292	1138.491	864.653
303.920	21.434	1138.117	864.997
304.935	21.503	1137.655	864.911
305.949	21.657	1136.941	865.053
306.964	21.556	1136.387	864.054
307.979	21.495	1135.136	862.724
308.993	21.381	1134.554	861.645
310.008	21.486	1133.607	861.367
311.022	21.616	1132.909	861.402
312.037	21.500	1132.032	860.086
313.052	21.466	1130.781	858.895
314.066	21.220	1130.001	857.017
315.081	21.118	1128.612	855.391
316.095	20.939	1128.229	854.145
317.110	21.169	1127.131	854.366
318.125	21.025	1126.847	853.370
319.139	21.009	1126.104	852.652
320.154	21.124	1125.476	852.662
321.168	21.077	1125.171	852.127
322.183	21.066	1124.786	851.706
323.197	21.122	1123.932	851.257
324.212	21.123	1123.490	850.851
325.227	21.103	1122.802	850.161
326.241	21.145	1121.969	849.658
327.256	21.259	1121.079	849.463
328.270	21.060	1120.457	847.948
329.285	21.158	1119.328	847.498
330.300	21.185	1118.462	846.894
331.314	21.058	1117.389	845.392
332.329	21.148	1116.342	844.961
333.343	21.222	1115.748	844.796
334.358	21.401	1115.389	845.314
335.373	21.480	1114.936	845.279
336.387	21.584	1114.000	844.995
337.402	21.444	1113.466	843.843
338.416	21.536	1112.526	843.497
339.431	21.612	1112.122	843.482
340.446	21.771	1111.829	843.949
341.460	21.931	1111.014	844.028
342.475	22.064	1110.234	843.997
343.489	22.179	1109.558	843.961
344.504	22.093	1108.677	842.803
345.519	22.057	1107.741	841.845
346.533	22.172	1106.924	841.704
347.548	22.270	1106.133	841.493
348.562	22.202	1105.282	840.448
349.577	21.912	1104.719	838.560
350.592	21.704	1103.317	836.428
351.606	21.577	1102.480	835.112
352.621	21.462	1102.351	834.393
353.635	21.494	1101.221	833.615
354.650	21.592	1100.505	833.469
355.665	21.495	1100.166	832.676
356.679	21.700	1099.397	832.995
357.694	21.650	1099.136	832.486
358.708	21.931	1098.193	833.033
359.723	21.876	1097.375	832.078
360.738	21.855	1097.099	831.695
361.752	21.793	1096.674	831.003
362.767	21.834	1095.865	830.511
363.781	21.909	1095.213	830.298
364.796	21.984	1094.967	830.395
365.810	22.246	1094.570	831.260
366.825	22.416	1093.740	831.357
367.840	22.446	1093.313	831.102
368.854	22.533	1092.921	831.140
369.869	22.467	1092.281	830.271
370.883	22.426	1091.025	829.045
371.898	22.224	1090.322	827.490
372.913	22.135	1089.740	826.555
373.927	22.265	1089.269	826.735
374.942	22.439	1088.376	826.802
375.956	22.384	1087.915	826.123
376.971	22.142	1087.585	824.662
377.986	22.252	1087.259	824.858
379.000	22.546	1086.196	825.356
380.015	22.683	1086.107	825.856
381.029	22.633	1085.437	825.038
382.044	22.665	1084.436	824.358
383.059	22.601	1083.785	823.489
384.073	22.560	1082.872	822.530
385.088	22.688	1081.736	822.193
386.102	22.526	1081.234	820.981
387.117	22.481	1080.105	819.843
388.132	22.112	1078.991	817.209
389.146	22.270	1078.241	817.306
390.161	22.149	1077.753	816.299
391.175	22.199	1077.075	815.946
392.190	22.367	1076.165	815.964
393.205	22.517	1075.764	816.281
394.219	22.398	1074.752	814.892
395.234	22.497	1073.484	814.314
396.248	22.424	1072.876	813.446
397.263	22.300	1071.658	811.878
398.278	22.124	1070.815	810.355
399.292	22.125	1070.158	809.789
400.307	22.008	1069.221	808.471
401.321	22.061	1068.711	808.257
402.336	22.129	1067.984	807.950
403.350	22.076	1067.177	807.025
404.365	22.123	1067.047	807.071
405.380	22.345	1066.171	807.357
406.394	22.367	1065.246	806.685
407.409	22.454	1064.996	806.823
408.423	22.614	1064.441	807.063
409.438	22.739	1063.886	807.142
410.453	22.700	1063.376	806.506
411.467	22.959	1062.564	807.003
412.482	22.849	1061.817	805.861
413.496	22.998	1061.098	805.920
414.511	23.089	1060.466	805.786
415.526	23.209	1060.225	806.078
416.540	23.232	1060.110	806.024
417.555	23.153	1059.317	804.989
418.569	22.939	1058.750	803.514
419.584	23.003	1058.031	803.189
420.599	23.153	1057.154	803.133
421.613	157.104	1402.694	1794.769
422.628	144.391	1453.029	1794.862
