DTS Sentinel unit serial number:	SN413079Multiplexer serial number:	ORYXHardware model number:	OX4-SRSoftware version number:	ORYX F/W v4.00 Oryx Data Collector v3.7.2.0data status	okinstallation	princeton_trtdifferential loss correction	single-endedforward channel	channel 2reverse channel	N/Adate	2019/09/15time	08:15:34forward acquisition time	60.00reverse acquisition time	0.00gamma	496.2192k internal	0.2325k external	0.2325temperature offset calibration	1.0027default loss term (dB/km)	0.3790temperature slope calibration	1.0000multiplexer offset coefficient	1.0000multiplexer slope coefficient	1.0000fibre end	0.00T internal ref (°C)	31.11T ext. ref 1 (°C)	4.99T ext. ref 2 (°C)	28.12length (m)	temperature (°C)	Stokes	anti-Stokes-747.200	182.577	0.227	-0.337
-746.185	-200.000	0.058	0.405
-745.171	800.000	0.036	0.126
-744.156	-57.846	0.291	-0.129
-743.142	-29.515	0.092	0.053
-742.127	-80.504	0.161	0.054
-741.112	-65.396	0.167	-0.068
-740.098	-200.000	0.014	-0.256
-739.083	172.770	-0.012	0.017
-738.069	800.000	0.054	0.219
-737.054	773.151	0.109	0.301
-736.039	27.630	0.122	-0.103
-735.025	800.000	-0.034	0.124
-734.010	551.494	0.093	0.226
-732.996	0.530	-0.227	-0.164
-731.981	-164.264	-0.230	-0.011
-730.966	-73.695	0.302	-0.111
-729.952	183.265	0.120	-0.179
-728.937	-40.952	-0.071	0.037
-727.923	-104.609	-0.231	-0.054
-726.908	-200.000	0.032	-0.163
-725.894	-130.104	-0.675	-0.093
-724.879	25.771	0.059	0.050
-723.864	70.433	0.055	0.057
-722.850	-108.329	-0.553	-0.120
-721.835	-136.944	0.093	0.011
-720.821	-120.054	-0.239	0.041
-719.806	-200.000	0.039	-0.201
-718.791	12.807	-0.127	0.099
-717.777	262.670	0.132	0.231
-716.762	-200.000	-0.035	0.216
-715.748	-137.852	-0.293	-0.033
-714.733	363.784	-0.039	-0.078
-713.718	45.354	0.035	0.032
-712.704	108.255	0.225	-0.270
-711.689	-200.000	0.029	-0.149
-710.675	85.413	-0.292	-0.323
-709.660	390.722	-0.182	0.380
-708.645	-187.426	-0.145	0.002
-707.631	-172.601	-0.062	0.002
-706.616	-34.559	0.219	-0.121
-705.602	21.920	0.171	-0.140
-704.587	712.066	-0.123	-0.328
-703.572	50.339	0.071	-0.067
-702.558	-200.000	0.054	-0.402
-701.543	-23.633	0.315	0.190
-700.529	-88.761	0.059	-0.018
-699.514	-200.000	0.018	0.107
-698.499	-75.831	-0.246	-0.088
-697.485	-157.275	-0.452	-0.028
-696.470	-4.836	-0.231	-0.161
-695.456	-61.762	0.059	0.025
-694.441	-48.433	-0.100	-0.049
-693.426	26.079	-0.037	0.031
-692.412	-200.000	-0.018	0.225
-691.397	13.488	-0.088	-0.069
-690.383	337.940	0.220	-0.431
-689.368	364.439	-0.081	-0.164
-688.354	348.582	0.225	-0.447
-687.339	-0.775	-0.291	-0.208
-686.324	-34.354	-0.264	-0.146
-685.310	-153.270	0.211	-0.015
-684.295	-200.000	0.026	-0.270
-683.281	-200.000	0.039	-0.410
-682.266	800.000	-0.039	-0.145
-681.251	-200.000	0.006	-0.328
-680.237	110.826	0.159	-0.192
-679.222	348.949	-0.134	0.266
-678.208	-200.000	-0.012	0.108
-677.193	21.959	0.105	0.086
-676.178	-12.436	-0.141	-0.093
-675.164	-110.128	-0.190	0.040
-674.149	166.013	0.172	-0.245
-673.135	33.863	0.267	-0.234
-672.120	-168.831	-0.161	0.006
-671.105	-69.933	0.089	-0.034
-670.091	543.169	-0.023	-0.056
-669.076	8.652	-0.177	-0.134
-668.062	76.430	0.154	-0.165
-667.047	-200.000	0.011	0.181
-666.032	-200.000	-0.005	0.176
-665.018	800.000	0.035	-0.128
-664.003	-138.875	-0.083	0.009
-662.989	-0.169	0.153	-0.110
-661.974	-91.808	-0.045	-0.013
-660.959	-101.895	0.299	0.073
-659.945	800.000	0.023	-0.085
-658.930	-200.000	-0.013	-0.174
-657.916	-75.304	0.383	-0.138
-656.901	-131.957	-0.354	0.046
-655.886	-16.980	-0.230	0.146
-654.872	527.074	-0.082	0.193
-653.857	-129.148	0.129	0.018
-652.843	154.763	-0.121	0.167
-651.828	800.000	0.062	0.238
-650.814	-126.261	-0.078	-0.012
-649.799	-134.165	-0.083	0.010
-648.784	-33.184	-0.455	0.254
-647.770	800.000	-0.047	-0.143
-646.755	-200.000	0.015	-0.142
-645.741	-200.000	-0.001	-0.138
-644.726	-8.675	0.244	-0.165
-643.711	289.423	0.055	0.101
-642.697	267.255	0.051	0.090
-641.682	-131.213	0.040	0.005
-640.668	-88.115	0.062	-0.019
-639.653	76.009	0.120	0.128
-638.638	800.000	0.052	-0.150
-637.624	142.125	-0.278	-0.371
-636.609	127.230	-0.242	0.308
-635.595	-75.148	-0.357	-0.128
-634.580	-115.779	-0.177	-0.033
-633.565	168.155	-0.185	0.264
-632.551	133.014	-0.103	0.133
-631.536	214.442	-0.229	0.365
-630.522	-168.271	-0.305	-0.012
-629.507	113.439	0.027	0.033
-628.492	424.514	0.041	-0.088
-627.478	-127.927	0.153	0.022
-626.463	-88.365	-0.253	0.076
-625.449	-40.012	0.111	-0.058
-624.434	-28.613	0.300	-0.173
-623.419	129.890	0.291	0.374
-622.405	27.313	-0.220	-0.185
-621.390	-200.000	0.032	-0.159
-620.376	211.901	-0.079	-0.126
-619.361	-200.000	0.008	0.038
-618.346	94.184	-0.033	0.037
-617.332	8.274	-0.103	-0.078
-616.317	51.920	0.143	0.137
-615.303	204.422	-0.055	-0.085
-614.288	-163.307	-0.392	-0.019
-613.273	-12.807	0.139	-0.091
-612.259	334.826	0.052	-0.102
-611.244	-200.000	0.011	0.216
-610.230	109.362	-0.078	0.094
-609.215	-91.261	0.290	-0.083
-608.201	25.501	-0.337	0.281
-607.186	-200.000	0.015	0.207
-606.171	-63.634	0.338	0.139
-605.157	166.122	0.175	-0.249
-604.142	-49.249	0.195	0.093
-603.128	-105.866	0.290	0.066
-602.113	15.847	0.168	0.133
-601.098	-64.184	-0.141	-0.058
-600.084	283.321	0.191	0.345
-599.069	-200.000	0.065	-0.404
-598.055	800.000	-0.048	-0.144
-597.040	-132.671	0.297	-0.038
-596.025	800.000	-0.049	-0.147
-595.011	72.595	-0.162	-0.170
-593.996	-67.659	0.114	0.045
-592.982	-64.940	-0.244	0.099
-591.967	22.046	0.028	0.023
-590.952	162.565	0.094	0.132
-589.938	-121.716	-0.385	0.064
-588.923	800.000	-0.041	-0.127
-587.909	-133.538	-0.333	0.042
-586.894	62.929	-0.281	0.282
-585.879	-66.856	-0.190	0.075
-584.865	101.015	-0.251	0.293
-583.850	-200.000	-0.031	-0.172
-582.836	-200.000	-0.044	0.224
-581.821	800.000	-0.005	0.017
-580.806	-98.410	-0.293	-0.075
-579.792	111.641	0.128	0.154
-578.777	-200.000	-0.026	-0.186
-577.763	-109.228	0.190	-0.040
-576.748	42.713	0.122	0.112
-575.733	-200.000	-0.030	-0.267
-574.719	-15.986	0.122	-0.078
-573.704	39.189	0.281	-0.252
-572.690	-200.000	-0.024	0.151
-571.675	14.410	-0.152	0.119
-570.661	-50.887	-0.024	-0.011
-569.646	-200.000	-0.026	-0.148
-568.631	-3.783	-0.096	-0.067
-567.617	431.679	-0.012	-0.027
-566.602	346.043	0.205	-0.403
-565.588	191.957	-0.212	-0.321
-564.573	133.218	-0.134	-0.173
-563.558	-110.305	-0.117	-0.024
-562.544	-200.000	-0.047	0.247
-561.529	-126.949	0.046	-0.007
-560.515	-200.000	0.049	-0.371
-559.500	307.325	-0.028	0.053
-558.485	-200.000	0.087	-0.423
-557.471	800.000	0.080	-0.272
-556.456	-38.357	-0.310	-0.164
-555.442	130.331	-0.191	-0.246
-554.427	800.000	-0.064	-0.215
-553.412	363.327	-0.054	0.110
-552.398	21.996	0.201	0.164
-551.383	213.090	-0.071	0.113
-550.369	800.000	0.021	0.084
-549.354	278.092	0.099	0.177
-548.339	91.818	-0.164	0.185
-547.325	-53.714	0.217	0.099
-546.310	-90.293	0.421	-0.122
-545.296	195.162	-0.164	0.249
-544.281	-88.050	0.270	0.081
-543.266	-200.000	-0.001	0.030
-542.252	-200.000	-0.022	-0.359
-541.237	-77.000	0.434	-0.152
-540.223	69.292	-0.079	-0.081
-539.208	800.000	0.014	0.048
-538.193	395.057	0.083	-0.173
-537.179	800.000	-0.081	-0.333
-536.164	-133.850	-0.279	-0.035
-535.150	159.364	0.091	0.127
-534.135	253.378	0.127	0.217
-533.121	800.000	-0.056	0.157
-532.106	-16.888	-0.112	0.071
-531.091	21.693	-0.159	0.129
-530.077	736.579	-0.047	-0.125
-529.062	-200.000	0.077	-0.383
-528.048	322.297	-0.221	-0.421
-527.033	-51.854	-0.043	-0.020
-526.018	-200.000	0.038	-0.251
-525.004	-109.586	-0.077	-0.016
-523.989	-200.000	-0.018	0.240
-522.975	-200.000	0.033	0.231
-521.960	800.000	-0.035	0.121
-520.945	70.098	0.048	0.050
-519.931	29.785	-0.114	0.097
-518.916	-104.672	-0.139	-0.032
-517.902	-155.491	0.271	0.018
-516.887	-14.197	-0.243	0.156
-515.872	800.000	-0.021	0.084
-514.858	255.306	0.108	-0.185
-513.843	606.225	-0.043	0.106
-512.829	-121.880	0.173	-0.028
-511.814	-89.407	-0.059	-0.017
-510.799	-52.663	0.513	0.237
-509.785	106.175	0.109	-0.129
-508.770	214.356	0.055	0.087
-507.756	-158.971	0.233	0.013
-506.741	-33.809	0.219	0.121
-505.726	569.269	-0.115	-0.280
-504.712	-93.533	-0.575	0.159
-503.697	-52.633	-0.155	-0.071
-502.683	-17.312	0.219	-0.138
-501.668	-49.664	0.252	-0.120
-500.653	-200.000	-0.022	0.209
-499.639	18.548	0.166	-0.132
-498.624	-200.000	-0.043	-0.348
-497.610	-78.153	0.450	-0.155
-496.595	506.655	0.072	-0.167
-495.581	-32.914	-0.119	0.066
-494.566	-200.000	-0.013	0.218
-493.551	4.410	-0.074	-0.054
-492.537	-129.379	0.157	-0.022
-491.522	18.344	-0.197	0.157
-490.508	-32.961	0.203	-0.113
-489.493	-115.630	0.169	0.032
-488.478	354.586	-0.102	-0.202
-487.464	12.279	-0.036	0.028
-486.449	39.579	-0.223	0.200
-485.435	517.814	0.056	0.131
-484.420	-110.661	0.034	0.007
-483.405	-200.000	0.017	-0.119
-482.391	360.286	-0.196	-0.391
-481.376	-14.509	0.336	-0.216
-480.362	-93.611	-0.322	-0.089
-479.347	-51.538	0.102	0.048
-478.332	411.535	0.121	-0.256
-477.318	-87.226	-0.215	-0.065
-476.303	-79.723	-0.435	-0.146
-475.289	79.397	0.180	-0.192
-474.274	-133.053	0.271	-0.034
-473.259	-200.000	0.023	-0.370
-472.245	-102.031	0.222	-0.054
-471.230	80.491	-0.140	-0.150
-470.216	-200.000	0.026	-0.178
-469.201	-72.008	-0.225	0.083
-468.186	-200.000	-0.004	-0.106
-467.172	711.680	-0.120	-0.316
-466.157	800.000	-0.054	0.217
-465.143	800.000	-0.048	0.148
-464.128	-13.635	-0.085	-0.055
-463.113	-6.384	-0.359	0.244
-462.099	-126.445	0.164	0.024
-461.084	-113.949	-0.468	-0.091
-460.070	758.634	-0.092	-0.249
-459.055	296.311	-0.076	0.139
-458.040	710.447	0.068	-0.181
-457.026	800.000	0.038	-0.159
-456.011	264.136	-0.122	-0.212
-454.997	-138.350	0.198	-0.022
-453.982	-177.556	0.056	0.001
-452.968	-161.551	0.237	-0.012
-451.953	-101.613	0.191	0.046
-450.938	-100.377	0.266	0.066
-449.924	19.369	0.204	0.164
-448.909	-47.288	0.075	-0.036
-447.895	-35.971	0.248	0.134
-446.880	146.927	-0.168	0.225
-445.865	-20.751	-0.168	0.103
-444.851	-162.163	-0.192	-0.010
-443.836	89.935	-0.060	-0.067
-442.822	-7.214	0.371	0.251
-441.807	-108.962	0.145	-0.031
-440.792	300.957	-0.073	0.135
-439.778	-82.097	0.212	0.069
-438.763	-31.630	-0.213	-0.119
-437.749	-156.481	0.267	-0.017
-436.734	185.662	-0.204	0.302
-435.719	-59.445	0.080	0.034
-434.705	-200.000	-0.002	0.193
-433.690	-38.934	0.207	-0.109
-432.676	-200.000	-0.012	-0.080
-431.661	-200.000	-0.010	0.074
-430.646	25.417	-0.146	-0.121
-429.632	-83.972	-0.333	-0.105
-428.617	253.215	0.124	0.210
-427.603	800.000	0.059	0.197
-426.588	-200.000	0.044	-0.242
-425.573	-200.000	0.042	-0.266
-424.559	-61.300	0.146	0.061
-423.544	-43.731	-0.220	0.111
-422.530	3.424	0.241	-0.175
-421.515	159.605	0.114	-0.158
-420.500	113.981	0.096	0.116
-419.486	323.351	-0.070	0.134
-418.471	-4.985	0.207	0.142
-417.457	-70.396	0.064	-0.024
-416.442	109.710	-0.035	-0.042
-415.428	595.191	-0.055	-0.135
-414.413	39.106	-0.186	0.166
-413.398	-31.471	0.101	0.057
-412.384	536.990	0.125	0.297
-411.369	-49.909	-0.130	-0.061
-410.355	-43.330	-0.294	-0.148
-409.340	74.770	0.149	0.156
-408.325	-137.493	-0.390	-0.044
-407.311	-110.633	-0.192	-0.040
-406.296	-200.000	-0.021	0.196
-405.282	-61.744	-0.164	-0.068
-404.267	-66.519	0.260	-0.103
-403.252	-155.975	0.160	0.010
-402.238	-184.584	0.358	-0.006
-401.223	-200.000	0.022	0.256
-400.209	-193.927	-0.289	0.002
-399.194	-72.484	-0.231	0.085
-398.179	8.091	0.296	-0.221
-397.165	266.350	-0.098	-0.171
-396.150	-109.344	0.278	-0.059
-395.136	153.415	-0.123	-0.167
-394.121	-200.000	0.010	0.086
-393.106	127.645	-0.193	0.245
-392.092	333.059	-0.111	-0.213
-391.077	124.703	0.143	-0.179
-390.063	-150.371	-0.318	0.024
-389.048	63.812	-0.195	0.195
-388.033	-111.623	-0.121	-0.024
-387.019	257.654	0.005	-0.009
-386.004	7.211	0.073	0.054
-384.990	-148.498	0.281	0.023
-383.975	-200.000	-0.006	0.069
-382.960	36.273	-0.079	-0.069
-381.946	-38.236	-0.140	0.074
-380.931	-7.526	-0.085	0.057
-379.917	214.237	-0.168	-0.265
-378.902	321.384	-0.055	-0.103
-377.888	-103.253	-0.287	-0.067
-376.873	-54.101	0.390	0.176
-375.858	800.000	0.004	0.015
-374.844	-68.159	-0.337	-0.130
-373.829	-95.973	0.111	-0.029
-372.815	-92.844	-0.217	-0.060
-371.800	-139.775	-0.208	0.022
-370.785	-200.000	0.033	-0.189
-369.771	137.935	-0.135	-0.175
-368.756	800.000	0.094	0.363
-367.742	800.000	0.144	-0.523
-366.727	351.203	-0.133	-0.261
-365.712	93.597	-0.136	-0.154
-364.698	-135.977	-0.064	0.007
-363.683	173.400	-0.136	0.195
-362.669	27.557	0.226	0.189
-361.654	800.000	-0.118	0.340
-360.639	-35.902	0.289	0.156
-359.625	-108.555	0.328	-0.070
-358.610	228.918	-0.189	0.307
-357.596	800.000	-0.067	0.260
-356.581	800.000	0.039	-0.165
-355.566	-88.627	-0.163	-0.048
-354.552	-112.941	0.220	0.043
-353.537	-15.682	0.449	0.285
-352.523	19.461	0.203	0.162
-351.508	36.703	0.090	0.079
-350.493	-200.000	0.002	0.179
-349.479	-85.776	0.062	0.019
-348.464	800.000	-0.086	0.281
-347.450	-200.000	0.003	-0.161
-346.435	-82.463	-0.124	-0.040
-345.420	-62.066	-0.090	0.037
-344.406	-58.783	0.173	0.074
-343.391	100.404	-0.224	0.258
-342.377	-200.000	-0.030	-0.324
-341.362	-200.000	0.011	0.109
-340.348	153.198	0.228	-0.311
-339.333	-200.000	0.049	0.301
-338.318	-170.200	0.058	-0.002
-337.304	-101.046	-0.197	-0.048
-336.289	313.692	-0.086	0.160
-335.275	800.000	-0.056	0.206
-334.260	-133.696	0.130	-0.016
-333.245	-31.969	-0.076	0.042
-332.231	5.898	-0.168	0.123
-331.216	-97.440	-0.071	0.018
-330.202	-147.145	-0.337	-0.029
-329.187	-200.000	0.086	0.385
-328.172	101.748	0.094	0.108
-327.158	-7.183	-0.400	-0.269
-326.143	-190.181	-0.065	-0.001
-325.129	-9.690	0.285	0.189
-324.114	-200.000	0.008	0.112
-323.099	440.749	-0.030	0.065
-322.085	31.475	0.109	0.093
-321.070	-58.818	0.239	-0.103
-320.056	29.363	-0.242	-0.204
-319.041	-200.000	-0.014	-0.078
-318.026	-200.000	-0.045	0.346
-317.012	-200.000	-0.014	0.068
-315.997	-200.000	-0.015	0.201
-314.983	345.399	0.075	0.147
-313.968	-136.347	-0.285	0.033
-312.953	-200.000	-0.062	0.342
-311.939	45.763	0.099	0.091
-310.924	-200.000	-0.035	-0.402
-309.910	186.196	-0.173	-0.255
-308.895	-68.793	0.358	-0.137
-307.880	-62.938	0.098	0.040
-306.866	-61.970	-0.166	0.069
-305.851	121.430	-0.033	0.041
-304.837	237.740	-0.068	0.112
-303.822	-17.163	-0.240	0.150
-302.807	-200.000	0.010	-0.101
-301.793	-166.046	-0.113	0.005
-300.778	355.189	-0.077	-0.151
-299.764	-32.626	-0.103	-0.057
-298.749	-4.565	-0.116	0.079
-297.735	-37.370	0.160	0.085
-296.720	263.012	-0.139	-0.240
-295.705	-157.317	-0.146	-0.009
-294.691	261.030	-0.014	-0.023
-293.676	168.380	-0.089	-0.125
-292.662	145.213	0.138	0.183
-291.647	115.253	-0.120	0.146
-290.632	58.712	0.086	-0.084
-289.618	-53.229	-0.315	-0.143
-288.603	-165.529	0.286	0.012
-287.589	-95.149	-0.185	0.049
-286.574	162.712	0.222	-0.309
-285.559	-0.827	-0.103	-0.072
-284.545	180.017	-0.310	0.450
-283.530	-102.578	0.305	0.072
-282.516	-83.835	0.195	0.062
-281.501	-45.119	0.134	-0.066
-280.486	150.634	-0.151	-0.203
-279.472	-200.000	-0.072	-0.447
-278.457	74.158	-0.152	0.158
-277.443	-81.051	-0.475	-0.156
-276.428	255.790	-0.176	0.299
-275.413	-113.981	0.109	-0.021
-274.399	-82.060	-0.208	-0.067
-273.384	-141.301	-0.388	-0.039
-272.370	-64.980	0.118	0.047
-271.355	51.850	-0.280	0.264
-270.340	-82.892	-0.282	-0.090
-269.326	800.000	0.145	-0.444
-268.311	-63.060	0.397	-0.162
-267.297	-64.809	-0.202	-0.081
-266.282	800.000	-0.064	0.198
-265.267	-88.410	0.250	-0.074
-264.253	800.000	0.072	0.223
-263.238	-200.000	-0.004	-0.273
-262.224	-47.414	0.079	0.038
-261.209	-200.000	-0.022	0.231
-260.195	-67.708	-0.246	0.095
-259.180	-1.066	0.377	0.264
-258.165	15.486	0.177	-0.138
-257.151	320.357	-0.152	-0.286
-256.136	-151.455	-0.089	0.007
-255.122	-31.595	0.025	-0.014
-254.107	800.000	-0.035	-0.105
-253.092	84.144	-0.025	0.027
-252.078	-200.000	-0.020	0.248
-251.063	152.500	-0.070	-0.095
-250.049	-200.000	-0.012	0.107
-249.034	13.422	0.145	0.111
-248.019	212.606	0.203	-0.317
-247.005	-64.388	0.276	-0.111
-245.990	-45.683	0.122	-0.060
-244.976	212.903	0.146	0.229
-243.961	800.000	0.077	0.249
-242.946	-200.000	0.048	-0.338
-241.932	53.996	0.098	-0.093
-240.917	7.123	-0.081	0.060
-239.903	-142.683	0.658	-0.064
-238.888	769.498	-0.096	-0.259
-237.873	155.273	-0.109	0.149
-236.859	32.186	-0.260	0.222
-235.844	45.696	0.114	0.104
-234.830	800.000	0.121	-0.340
-233.815	-88.023	-0.130	0.039
-232.800	-200.000	-0.029	0.140
-231.786	277.656	0.182	0.320
-230.771	187.674	0.102	-0.150
-229.757	-125.707	-0.421	-0.063
-228.742	-112.809	0.226	-0.044
-227.727	-200.000	0.003	-0.427
-226.713	-200.000	-0.037	0.214
-225.698	362.225	0.036	0.072
-224.684	-68.948	0.114	-0.043
-223.669	349.314	-0.149	-0.291
-222.655	-72.474	0.234	-0.085
-221.640	-200.000	0.013	0.115
-220.625	-46.147	0.431	-0.210
-219.611	-52.638	0.050	-0.023
-218.596	-83.785	-0.103	0.032
-217.582	240.877	-0.053	0.087
-216.567	-21.910	-0.035	0.021
-215.552	-32.718	0.125	0.069
-214.538	-11.469	-0.159	0.103
-213.523	116.562	0.132	0.159
-212.509	597.692	-0.114	-0.280
-211.494	-200.000	0.010	0.299
-210.479	195.734	0.260	0.390
-209.465	-113.956	-0.262	-0.050
-208.450	-54.468	0.347	-0.156
-207.436	-200.000	0.023	0.172
-206.421	-200.000	0.052	-0.378
-205.406	-200.000	0.042	-0.361
-204.392	800.000	-0.118	0.386
-203.377	800.000	0.036	-0.116
-202.363	112.358	0.035	0.041
-201.348	800.000	0.065	-0.235
-200.333	105.010	-0.107	0.124
-199.319	-92.330	-0.080	-0.022
-198.304	800.000	0.065	0.178
-197.290	800.000	0.009	0.038
-196.275	800.000	-0.018	-0.050
-195.260	436.619	-0.160	0.343
-194.246	-200.000	0.014	0.116
-193.231	149.668	0.169	0.227
-192.217	-152.497	0.095	0.007
-191.202	-62.706	0.095	-0.039
-190.187	-115.824	-0.323	0.060
-189.173	-200.000	-0.031	0.479
-188.158	-88.442	0.156	0.046
-187.144	-200.000	0.007	0.205
-186.129	-200.000	0.083	0.362
-185.114	-67.134	-0.081	0.032
-184.100	800.000	-0.028	-0.111
-183.085	800.000	-0.047	-0.187
-182.071	-55.302	-0.186	-0.082
-181.056	55.995	0.133	0.127
-180.042	-182.895	0.375	-0.007
-179.027	800.000	-0.072	0.259
-178.012	115.879	-0.023	0.028
-176.998	58.799	-0.055	-0.053
-175.983	703.833	0.165	0.429
-174.969	-66.898	0.074	-0.029
-173.954	-79.007	0.341	-0.115
-172.939	-95.608	0.253	-0.067
-171.925	270.167	0.135	-0.235
-170.910	-200.000	-0.019	-0.151
-169.896	222.189	0.137	-0.217
-168.881	-42.390	0.168	-0.085
-167.866	-189.620	-0.167	-0.002
-166.852	-200.000	0.019	0.111
-165.837	-188.748	0.444	0.005
-164.823	324.414	0.117	-0.220
-163.808	26.262	0.265	0.218
-162.793	-60.449	-0.176	-0.074
-161.779	800.000	-0.058	0.222
-160.764	-55.326	0.165	-0.073
-159.750	-200.000	-0.023	-0.269
-158.735	335.468	-0.074	0.141
-157.720	216.890	0.170	0.266
-156.706	270.554	0.113	-0.196
-155.691	17.938	-0.252	0.198
-154.677	-200.000	-0.011	-0.301
-153.662	538.485	-0.015	0.036
-152.647	-89.244	-0.216	0.063
-151.633	50.711	0.192	0.180
-150.618	-200.000	-0.018	0.255
-149.604	29.865	0.046	-0.039
-148.589	93.465	-0.104	0.116
-147.574	800.000	0.068	0.284
-146.560	568.285	0.233	0.557
-145.545	78.855	-0.261	-0.276
-144.531	76.390	-0.194	-0.202
-143.516	-200.000	0.003	0.258
-142.502	-154.090	0.625	-0.042
-141.487	248.240	0.124	0.207
-140.472	-200.000	0.030	-0.167
-139.458	23.908	-0.230	-0.187
-138.443	214.873	-0.107	-0.168
-137.429	-200.000	-0.021	0.144
-136.414	331.278	-0.016	-0.031
-135.399	56.857	0.070	-0.067
-134.385	-59.668	-0.132	0.056
-133.370	-89.527	0.269	0.078
-132.356	-106.735	-0.439	-0.096
-131.341	-200.000	-0.018	-0.179
-130.326	83.504	-0.159	-0.170
-129.312	-40.589	0.180	0.092
-128.297	31.616	-0.256	0.217
-127.283	-200.000	-0.024	0.276
-126.268	-138.806	-0.246	-0.026
-125.253	422.421	-0.087	-0.184
-124.239	800.000	-0.084	-0.323
-123.224	116.253	-0.125	-0.151
-122.210	-128.122	-0.168	-0.024
-121.195	-200.000	0.002	-0.069
-120.180	428.650	0.127	-0.269
-119.166	-200.000	0.050	-0.263
-118.151	-123.430	0.232	0.036
-117.137	-200.000	-0.007	-0.081
-116.122	123.129	0.165	0.203
-115.107	800.000	-0.054	-0.186
-114.093	-200.000	-0.163	0.000
-113.078	-193.038	0.333	-0.003
-112.064	-200.000	0.031	0.589
-111.049	800.000	0.059	-0.198
-110.034	-98.994	-0.403	-0.101
-109.020	127.741	-0.115	-0.144
-108.005	-200.000	0.045	-0.250
-106.991	-112.121	0.233	0.046
-105.976	126.268	0.205	-0.255
-104.962	800.000	0.058	0.182
-103.947	-135.273	0.243	0.029
-102.932	-92.216	-0.275	-0.076
-101.918	210.493	-0.270	0.417
-100.903	-132.735	0.198	0.025
-99.889	195.488	-0.137	0.205
-98.874	238.611	-0.103	0.168
-97.859	800.000	0.038	-0.113
-96.845	233.599	0.057	0.092
-95.830	5.872	0.148	-0.108
-94.816	-69.776	0.032	-0.012
-93.801	-200.000	0.129	0.640
-92.786	-200.000	-0.069	0.298
-91.772	245.885	-0.122	-0.202
-90.757	-200.000	0.034	0.306
-89.743	116.226	0.312	-0.376
-88.728	-200.000	0.006	-0.191
-87.713	273.374	-0.101	-0.176
-86.699	-161.406	-0.172	-0.009
-85.684	-47.993	0.354	0.168
-84.670	55.730	-0.467	0.445
-83.655	-186.194	-0.168	0.002
-82.640	95.174	-0.252	0.282
-81.626	-90.870	0.234	-0.066
-80.611	-200.000	-0.042	-0.222
-79.597	-81.120	0.315	0.102
-78.582	-14.728	0.094	0.059
-77.567	-48.743	0.416	-0.196
-76.553	19.372	-0.169	-0.133
-75.538	148.049	-0.097	-0.129
-74.524	-76.089	-0.119	0.041
-73.509	696.964	0.145	-0.373
-72.494	54.897	-0.042	-0.040
-71.480	-200.000	-0.051	-0.254
-70.465	800.000	-0.014	-0.044
-69.451	800.000	0.081	0.259
-68.436	22.368	-0.266	-0.213
-67.422	173.069	-0.059	-0.084
-66.407	205.323	0.072	0.109
-65.392	436.206	0.168	-0.360
-64.378	8.106	-0.397	-0.293
-63.363	-88.373	0.218	-0.064
-62.349	-142.652	0.207	-0.020
-61.334	173.724	-0.702	-0.995
-60.319	376.751	0.293	0.588
-59.305	800.000	-0.428	-1.170
-58.290	125.713	0.747	0.927
-57.276	800.000	0.533	1.682
-56.261	-200.000	97.649	598.809
-55.246	620.991	1392.968	3441.630
-54.232	193.051	2587.716	3841.343
-53.217	112.214	2278.660	2705.589
-52.203	40.731	1900.249	1682.744
-51.188	34.366	1688.826	1447.318
-50.173	31.684	1644.752	1389.626
-49.159	49.499	1693.028	1564.867
-48.144	51.071	1708.696	1591.114
-47.130	33.943	1669.390	1427.258
-46.115	31.202	1654.953	1394.421
-45.100	30.973	1650.228	1388.678
-44.086	31.095	1647.480	1387.221
-43.071	31.097	1644.975	1385.072
-42.057	30.975	1642.861	1382.331
-41.042	31.096	1640.409	1381.110
-40.027	31.031	1638.840	1379.248
-39.013	30.983	1637.084	1377.361
-37.998	30.909	1635.291	1375.256
-36.984	31.043	1633.672	1374.823
-35.969	31.082	1632.259	1373.867
-34.954	31.109	1630.825	1372.804
-33.940	31.137	1628.950	1371.377
-32.925	31.122	1627.292	1369.822
-31.911	31.071	1625.820	1368.155
-30.896	31.094	1624.096	1366.813
-29.881	31.123	1622.190	1365.370
-28.867	31.122	1620.185	1363.623
-27.852	31.014	1619.607	1362.291
-26.838	31.106	1617.307	1360.974
-25.823	31.085	1616.376	1359.981
-24.809	31.187	1614.787	1359.332
-23.794	31.122	1613.488	1357.713
-22.779	31.239	1611.778	1357.074
-21.765	31.133	1610.485	1355.157
-20.750	31.095	1609.005	1353.586
-19.736	31.216	1607.193	1352.886
-18.721	31.168	1605.972	1351.452
-17.706	31.218	1604.114	1350.199
-16.692	31.136	1602.961	1348.579
-15.677	31.240	1601.272	1347.858
-14.663	31.197	1600.871	1347.155
-13.648	31.220	1599.157	1345.826
-12.633	31.154	1597.231	1343.674
-11.619	31.099	1596.335	1342.478
-10.604	31.065	1594.943	1341.006
-9.590	31.007	1593.707	1339.495
-8.575	31.170	1592.180	1339.332
-7.560	31.079	1590.972	1337.606
-6.546	31.135	1589.460	1336.686
-5.531	31.087	1589.141	1336.022
-4.517	31.210	1587.224	1335.233
-3.502	31.182	1585.899	1333.870
-2.487	31.138	1585.021	1332.760
-1.473	31.063	1573.352	1322.365
-0.458	28.730	1555.406	1290.855
0.556	24.900	1556.197	1263.010
1.571	22.829	1579.795	1267.202
2.586	22.459	1592.344	1274.476
3.600	20.083	1538.996	1215.026
4.615	12.408	1431.350	1079.701
5.629	6.074	1369.069	992.715
6.644	5.117	1361.429	981.071
7.659	4.938	1360.333	979.074
8.673	4.927	1359.443	978.277
9.688	4.969	1357.496	977.050
10.702	4.743	1355.025	973.775
11.717	7.997	1360.783	998.244
12.731	15.341	1373.907	1054.094
13.746	19.275	1380.266	1083.670
14.761	18.767	1377.604	1078.292
15.775	17.679	1374.634	1069.055
16.790	16.621	1371.688	1060.044
17.804	15.734	1369.948	1053.051
18.819	15.442	1368.443	1049.976
19.834	15.153	1367.150	1047.088
20.848	14.946	1366.091	1044.889
21.863	14.660	1364.995	1042.172
22.877	14.508	1363.509	1040.000
23.892	14.558	1362.403	1039.373
24.907	14.499	1362.073	1038.666
25.921	14.558	1360.904	1038.050
26.936	14.570	1360.172	1037.473
27.950	14.561	1358.974	1036.411
28.965	14.674	1358.295	1036.503
29.980	14.783	1356.890	1036.013
30.994	14.798	1356.072	1035.390
32.009	14.854	1354.832	1034.702
33.023	14.728	1353.736	1032.993
34.038	14.815	1351.613	1031.821
35.053	14.677	1350.903	1030.334
36.067	14.668	1349.677	1029.253
37.082	14.828	1348.193	1029.015
38.096	14.715	1347.994	1028.074
39.111	14.691	1346.906	1027.005
40.126	14.617	1346.244	1025.953
41.140	14.554	1345.413	1024.846
42.155	14.462	1344.863	1023.770
43.169	14.398	1345.279	1023.604
44.184	14.427	1344.273	1022.924
45.199	14.405	1344.085	1022.554
46.213	14.523	1343.535	1022.773
47.228	14.552	1342.564	1022.121
48.242	14.727	1341.026	1021.929
49.257	14.621	1340.036	1020.437
50.271	14.536	1338.459	1018.627
51.286	14.735	1336.906	1018.567
52.301	14.636	1335.412	1016.739
53.315	14.502	1334.935	1015.465
54.330	14.482	1333.633	1014.264
55.344	14.407	1332.296	1012.705
56.359	14.438	1331.588	1012.265
57.374	14.470	1330.545	1011.575
58.388	14.381	1330.027	1010.549
59.403	14.359	1329.562	1009.979
60.417	14.330	1328.430	1008.851
61.432	14.374	1327.216	1008.107
62.447	14.344	1326.330	1007.165
63.461	14.283	1325.244	1005.878
64.476	14.247	1324.241	1004.814
65.490	14.384	1322.835	1004.481
66.505	14.347	1321.522	1003.171
67.520	14.295	1320.822	1002.240
68.534	14.461	1319.433	1002.096
69.549	14.372	1318.701	1000.918
70.563	14.326	1317.629	999.736
71.578	14.252	1316.668	998.477
72.593	14.193	1315.612	997.236
73.607	14.174	1314.787	996.409
74.622	14.203	1313.999	995.898
75.636	14.314	1312.897	995.634
76.651	14.198	1312.987	994.922
77.666	14.280	1312.366	994.854
78.680	14.333	1311.804	994.655
79.695	14.344	1311.034	994.051
80.709	14.414	1310.057	993.640
81.724	14.432	1309.273	993.063
82.739	14.491	1308.604	992.817
83.753	14.641	1307.268	992.612
84.768	14.671	1306.467	992.093
85.782	14.717	1305.348	991.429
86.797	14.672	1304.190	990.194
87.812	14.490	1303.638	988.608
88.826	14.561	1302.066	987.748
89.841	14.562	1301.448	987.199
90.855	14.640	1299.991	986.465
91.870	14.685	1299.355	986.161
92.884	14.667	1298.142	985.051
93.899	14.752	1297.676	985.107
94.914	14.761	1296.723	984.352
95.928	14.743	1296.056	983.649
96.943	14.686	1295.075	982.485
97.957	14.708	1294.270	981.918
98.972	14.684	1293.136	980.831
99.987	14.771	1291.838	980.270
101.001	14.593	1291.267	978.705
102.016	14.677	1289.931	978.095
103.030	14.745	1289.161	977.823
104.045	14.721	1287.887	976.633
105.060	14.589	1286.922	975.040
106.074	14.530	1285.324	973.402
107.089	14.405	1284.042	971.612
108.103	14.425	1282.792	970.697
109.118	14.315	1281.331	968.870
110.133	14.471	1280.066	968.733
111.147	14.430	1278.875	967.506
112.162	14.403	1277.825	966.474
113.176	14.553	1276.202	966.026
114.191	14.484	1275.600	965.084
115.206	14.555	1274.519	964.592
116.220	14.497	1273.288	963.240
117.235	14.449	1272.502	962.287
118.249	14.444	1271.159	961.153
119.264	14.444	1270.208	960.350
120.279	14.439	1268.970	959.304
121.293	14.388	1268.013	958.200
122.308	14.367	1267.112	957.311
123.322	14.396	1265.887	956.470
124.337	14.295	1265.264	955.337
125.352	14.297	1264.341	954.566
126.366	14.312	1263.037	953.583
127.381	14.440	1261.464	953.040
128.395	14.395	1260.908	952.278
129.410	14.414	1259.546	951.276
130.424	14.464	1259.078	951.124
131.439	14.432	1258.100	950.117
132.454	14.498	1257.585	950.020
133.468	14.541	1256.367	949.260
134.483	14.581	1255.733	948.924
135.497	14.461	1254.694	947.373
136.512	14.504	1253.384	946.549
137.527	14.553	1252.200	945.846
138.541	14.640	1250.531	944.993
139.556	14.599	1249.749	944.091
140.570	14.597	1248.964	943.402
141.585	14.664	1247.630	942.687
142.600	14.726	1246.428	942.048
143.614	14.807	1245.340	941.595
144.629	14.890	1244.125	941.061
145.643	14.759	1243.571	939.821
146.658	14.731	1242.318	938.633
147.673	14.671	1240.596	936.913
148.687	14.590	1239.841	935.805
149.702	14.490	1238.555	934.196
150.716	14.545	1237.188	933.387
151.731	14.615	1235.959	932.767
152.746	14.723	1234.749	932.374
153.760	14.660	1233.902	931.303
154.775	14.653	1232.804	930.351
155.789	14.780	1231.295	929.839
156.804	14.726	1231.088	929.301
157.819	14.784	1229.550	928.378
158.833	14.887	1228.904	928.377
159.848	14.906	1227.659	927.462
160.862	14.786	1227.235	926.397
161.877	14.787	1225.609	925.092
162.892	14.728	1224.705	923.999
163.906	14.710	1223.929	923.231
164.921	14.777	1222.486	922.432
165.935	14.765	1222.060	921.962
166.950	14.766	1221.590	921.532
167.964	14.731	1220.823	920.681
168.979	14.751	1219.869	919.990
169.994	14.806	1219.204	919.712
171.008	14.833	1218.540	919.274
172.023	14.849	1217.728	918.671
173.037	14.907	1217.036	918.388
174.052	14.889	1216.198	917.572
175.067	14.829	1215.082	916.319
176.081	14.837	1213.530	915.112
177.096	14.771	1213.198	914.423
178.110	14.736	1212.553	913.661
179.125	14.862	1210.665	912.847
180.140	14.850	1209.485	911.812
181.154	14.831	1208.592	910.951
182.169	14.922	1207.454	910.510
183.183	14.995	1206.358	909.998
184.198	14.998	1204.963	908.883
185.213	15.096	1203.895	908.527
186.227	15.143	1202.538	907.679
187.242	15.135	1201.813	907.007
188.256	15.205	1200.833	906.569
189.271	15.180	1199.888	905.640
190.286	15.048	1199.160	904.299
191.300	14.891	1197.707	902.274
192.315	14.740	1197.275	901.056
193.329	14.861	1196.503	901.046
194.344	14.904	1196.331	901.070
195.359	14.978	1195.646	900.869
196.373	15.036	1194.856	900.508
197.388	15.126	1194.897	900.944
198.402	15.227	1193.850	900.614
199.417	15.227	1193.546	900.306
200.432	15.454	1192.254	900.473
201.446	15.376	1192.096	899.856
202.461	15.369	1190.988	898.899
203.475	15.278	1189.950	897.549
204.490	15.407	1187.950	896.651
205.504	15.227	1187.687	895.411
206.519	15.193	1186.217	894.042
207.534	15.389	1184.870	893.992
208.548	15.252	1184.246	892.712
209.563	15.204	1183.676	891.949
210.577	15.270	1182.511	891.345
211.592	15.327	1181.858	891.077
212.607	15.433	1181.206	891.067
213.621	15.367	1180.099	889.804
214.636	15.468	1179.077	889.492
215.650	15.505	1178.026	888.815
216.665	15.519	1177.429	888.358
217.680	15.603	1176.362	887.922
218.694	15.583	1175.764	887.287
219.709	15.471	1175.240	886.219
220.723	15.619	1174.142	886.094
221.738	15.626	1172.928	885.134
222.753	15.581	1172.695	884.642
223.767	15.587	1171.703	883.852
224.782	15.623	1172.044	884.217
225.796	15.712	1170.969	883.797
226.811	15.805	1170.313	883.714
227.826	15.711	1169.205	882.302
228.840	15.588	1168.918	881.366
229.855	15.650	1168.107	881.002
230.869	15.731	1166.693	880.278
231.884	15.642	1166.220	879.376
232.899	15.565	1165.246	878.163
233.913	15.596	1164.807	877.917
234.928	15.498	1164.112	876.802
235.942	15.587	1163.137	876.454
236.957	15.481	1161.973	874.950
237.972	15.591	1161.718	875.253
238.986	15.544	1160.938	874.345
240.001	15.587	1160.504	874.164
241.015	15.642	1159.335	873.489
242.030	15.709	1158.485	873.120
243.045	15.678	1158.009	872.527
244.059	15.634	1157.417	871.770
245.074	15.737	1156.533	871.565
246.088	15.773	1155.412	870.826
247.103	15.771	1154.870	870.332
248.117	15.935	1153.678	870.202
249.132	16.040	1153.353	870.424
250.147	16.025	1152.992	869.998
251.161	16.108	1152.182	869.737
252.176	16.208	1151.311	869.517
253.190	16.186	1150.697	868.864
254.205	16.289	1149.914	868.727
255.220	16.218	1149.438	867.925
256.234	16.185	1148.753	867.160
257.249	16.258	1148.409	867.201
258.263	16.134	1147.732	865.973
259.278	16.371	1146.629	866.282
260.293	16.198	1146.765	865.422
261.307	16.233	1146.012	864.957
262.322	16.330	1145.040	864.642
263.336	16.359	1144.457	864.274
264.351	16.460	1143.762	864.187
265.366	16.379	1143.179	863.256
266.380	16.430	1142.019	862.563
267.395	16.457	1141.128	861.955
268.409	16.470	1140.390	861.388
269.424	16.418	1139.845	860.635
270.439	16.366	1139.581	860.095
271.453	16.379	1139.017	859.656
272.468	16.323	1137.724	858.320
273.482	16.333	1137.109	857.832
274.497	16.208	1136.824	856.905
275.512	16.374	1135.832	856.925
276.526	16.355	1135.393	856.421
277.541	16.278	1134.613	855.365
278.555	16.362	1134.036	855.281
279.570	16.432	1133.334	855.029
280.585	16.642	1131.969	854.986
281.599	16.585	1131.446	854.225
282.614	16.526	1130.646	853.252
283.628	16.470	1129.572	852.084
284.643	16.591	1128.392	851.728
285.657	16.523	1127.472	850.615
286.672	16.507	1126.781	849.938
287.687	16.484	1125.943	849.112
288.701	16.519	1125.434	848.832
289.716	16.558	1124.550	848.283
290.730	16.582	1123.888	847.830
291.745	16.551	1123.162	847.055
292.760	16.701	1122.427	847.172
293.774	16.672	1122.086	846.696
294.789	16.773	1120.990	846.301
295.803	16.782	1120.481	845.885
296.818	16.679	1120.033	844.957
297.833	16.694	1118.911	844.114
298.847	16.656	1118.385	843.450
299.862	16.655	1117.873	842.986
300.876	16.707	1117.056	842.555
301.891	16.677	1116.607	841.992
302.906	16.808	1115.611	841.818
303.920	16.899	1114.807	841.585
304.935	16.908	1114.532	841.349
305.949	17.010	1113.940	841.332
306.964	17.054	1112.732	840.565
307.979	16.923	1112.106	839.371
308.993	16.824	1111.619	838.439
310.008	16.996	1110.521	838.385
311.022	16.963	1110.141	837.861
312.037	16.964	1109.331	837.182
313.052	16.871	1108.480	836.005
314.066	16.957	1107.446	835.575
315.081	16.720	1106.719	833.786
316.095	16.790	1105.764	833.339
317.110	16.929	1104.640	833.100
318.125	16.784	1104.147	831.939
319.139	16.929	1103.412	832.025
320.154	16.847	1103.036	831.267
321.168	16.843	1102.270	830.595
322.183	17.059	1101.417	830.940
323.197	16.941	1101.343	830.228
324.212	16.980	1100.854	829.977
325.227	16.976	1099.882	829.152
326.241	17.044	1098.903	828.672
327.256	16.919	1098.337	827.566
328.270	16.991	1097.415	827.147
329.285	16.949	1096.646	826.291
330.300	17.045	1095.882	826.106
331.314	17.088	1094.800	825.430
332.329	17.069	1093.795	824.505
333.343	17.080	1093.311	824.123
334.358	17.083	1092.684	823.590
335.373	17.250	1091.778	823.642
336.387	17.094	1091.153	822.342
337.402	17.132	1090.557	822.005
338.416	17.290	1089.716	822.062
339.431	17.247	1089.020	821.258
340.446	17.432	1088.178	821.444
341.460	17.524	1087.596	821.373
342.475	17.498	1086.858	820.621
343.489	17.370	1086.216	819.444
344.504	17.450	1085.053	818.880
345.519	17.477	1084.459	818.492
346.533	17.609	1083.601	818.405
347.548	17.486	1082.814	817.147
348.562	17.551	1081.867	816.673
349.577	17.493	1081.587	816.111
350.592	17.295	1080.712	814.429
351.606	17.332	1079.717	813.783
352.621	17.328	1079.213	813.312
353.635	17.355	1078.637	812.938
354.650	17.329	1077.924	812.201
355.665	17.434	1077.166	812.063
356.679	17.461	1076.531	811.640
357.694	17.597	1075.960	811.782
358.708	17.481	1075.107	810.518
359.723	17.656	1074.630	810.918
360.738	17.493	1074.374	809.877
361.752	17.439	1073.573	808.945
362.767	17.523	1073.220	809.006
363.781	17.684	1072.119	808.872
364.796	17.578	1071.539	807.857
365.810	17.842	1070.760	808.450
366.825	17.844	1070.304	808.045
367.840	17.889	1070.040	807.986
368.854	17.861	1069.471	807.353
369.869	17.894	1068.705	806.857
370.883	17.861	1067.820	805.962
371.898	17.763	1067.102	804.886
372.913	17.765	1066.495	804.368
373.927	17.872	1066.124	804.521
374.942	17.801	1065.910	803.953
375.956	17.989	1064.658	803.826
376.971	17.907	1064.314	803.107
377.986	17.939	1063.896	802.870
379.000	18.071	1063.136	802.849
380.015	18.117	1062.332	802.384
381.029	18.212	1061.950	802.471
382.044	17.981	1061.671	801.103
383.059	18.052	1060.582	800.547
384.073	18.089	1059.594	799.902
385.088	18.225	1058.582	799.701
386.102	18.048	1057.925	798.309
387.117	17.982	1056.939	797.184
388.132	18.014	1055.918	796.497
389.146	17.966	1055.614	795.973
390.161	17.949	1054.904	795.287
391.175	18.087	1053.619	794.889
392.190	18.099	1053.372	794.686
393.205	18.158	1052.476	794.214
394.219	18.048	1052.046	793.310
395.234	18.195	1050.729	792.931
396.248	18.127	1049.419	791.553
397.263	18.076	1048.668	790.683
398.278	18.023	1047.863	789.762
399.292	17.908	1047.590	788.954
400.307	17.986	1046.722	788.590
401.321	18.058	1045.927	788.254
402.336	17.950	1045.221	787.154
403.350	18.087	1044.855	787.441
404.365	18.172	1043.821	786.980
405.380	18.023	1043.458	785.953
406.394	18.236	1042.941	786.473
407.409	18.227	1041.852	785.541
408.423	18.363	1041.161	785.573
409.438	18.364	1040.669	785.139
410.453	18.377	1039.982	784.610
411.467	18.502	1039.261	784.568
412.482	18.450	1038.488	783.680
413.496	18.449	1037.579	782.917
414.511	18.541	1037.588	783.276
415.526	18.507	1036.745	782.417
416.540	18.717	1036.369	783.021
417.555	18.590	1035.601	781.793
418.569	18.631	1035.476	781.815
419.584	18.552	1035.262	781.227
420.599	18.644	1034.457	780.969
421.613	150.115	1401.334	1794.015
422.628	137.068	1454.795	1794.135
