DTS Sentinel unit serial number:	SN413079Multiplexer serial number:	ORYXHardware model number:	OX4-SRSoftware version number:	ORYX F/W v4.00 Oryx Data Collector v3.7.2.0data status	okinstallation	princeton_trtdifferential loss correction	single-endedforward channel	channel 2reverse channel	N/Adate	2019/09/17time	06:11:34forward acquisition time	60.00reverse acquisition time	0.00gamma	496.2192k internal	0.2330k external	0.2330temperature offset calibration	0.9975default loss term (dB/km)	0.3790temperature slope calibration	1.0000multiplexer offset coefficient	1.0000multiplexer slope coefficient	1.0000fibre end	0.00T internal ref (°C)	28.56T ext. ref 1 (°C)	0.13T ext. ref 2 (°C)	21.93length (m)	temperature (°C)	Stokes	anti-Stokes-747.200	200.241	0.019	0.030
-746.185	107.411	-0.360	0.431
-745.171	-200.000	0.019	0.132
-744.156	32.612	-0.230	0.200
-743.142	176.676	0.190	0.278
-742.127	635.230	0.044	-0.111
-741.112	-1.237	-0.039	0.028
-740.098	-175.552	0.238	0.006
-739.083	303.938	0.075	0.140
-738.069	-116.589	0.164	0.030
-737.054	49.772	-0.233	0.221
-736.039	182.168	-0.083	0.124
-735.025	79.211	-0.158	0.170
-734.010	19.535	-0.138	0.112
-732.996	-200.000	0.004	-0.020
-731.981	-31.156	-0.343	-0.195
-730.966	-160.975	-0.244	-0.013
-729.952	-184.447	-0.092	-0.002
-728.937	-34.638	-0.571	-0.314
-727.923	-63.836	0.055	0.023
-726.908	-187.934	-0.192	-0.003
-725.894	261.132	-0.168	-0.293
-724.879	-200.000	0.056	0.271
-723.864	800.000	-0.109	0.390
-722.850	145.132	0.067	0.090
-721.835	197.764	0.041	0.064
-720.821	84.278	-0.183	-0.202
-719.806	629.237	-0.034	-0.086
-718.791	-200.000	0.002	0.130
-717.777	-200.000	-0.031	-0.172
-716.762	-200.000	0.003	-0.225
-715.748	-200.000	-0.005	-0.041
-714.733	237.367	-0.169	-0.282
-713.718	800.000	-0.044	0.167
-712.704	-113.333	0.081	0.016
-711.689	-200.000	-0.019	-0.159
-710.675	-120.038	-0.302	0.052
-709.660	-158.328	0.058	0.003
-708.645	-73.439	0.072	0.026
-707.631	-200.000	0.004	0.138
-706.616	173.053	-0.125	0.182
-705.602	693.813	0.050	0.131
-704.587	-200.000	-0.000	-0.085
-703.572	-14.280	-0.173	0.112
-702.558	-200.000	-0.030	-0.236
-701.543	37.854	0.307	-0.274
-700.529	-38.619	0.230	-0.122
-699.514	-105.575	0.172	-0.039
-698.499	-200.000	-0.037	0.256
-697.485	512.883	0.012	-0.027
-696.470	-200.000	0.042	-0.313
-695.456	755.313	-0.043	0.116
-694.441	-130.705	0.227	0.031
-693.426	38.268	0.191	-0.171
-692.412	54.701	0.212	0.206
-691.397	462.932	-0.164	0.368
-690.383	111.084	0.114	0.138
-689.368	88.052	0.292	-0.325
-688.354	109.199	0.113	-0.136
-687.339	-11.603	0.165	0.109
-686.324	800.000	0.044	-0.141
-685.310	690.436	-0.068	-0.180
-684.295	-182.121	0.046	-0.001
-683.281	-59.430	-0.209	0.090
-682.266	-200.000	0.026	-0.181
-681.251	32.096	-0.226	0.196
-680.237	28.383	-0.143	0.121
-679.222	-200.000	0.032	0.264
-678.208	-144.535	-0.120	0.011
-677.193	582.220	0.108	0.266
-676.178	-19.433	0.372	-0.232
-675.164	-200.000	-0.006	0.029
-674.149	-107.423	-0.708	0.156
-673.135	800.000	0.090	0.390
-672.120	-62.502	-0.275	0.115
-671.105	-108.819	0.167	0.036
-670.091	-22.277	-0.449	-0.273
-669.076	14.950	-0.104	-0.081
-668.062	22.116	-0.138	0.113
-667.047	-200.000	0.022	-0.125
-666.032	-124.570	0.190	-0.030
-665.018	-38.605	-0.217	-0.115
-664.003	113.824	0.305	-0.372
-662.989	72.101	-0.160	-0.167
-661.974	564.598	0.144	0.350
-660.959	-200.000	-0.031	0.136
-659.945	288.895	0.185	-0.337
-658.930	91.017	-0.180	-0.202
-657.916	-200.000	0.015	-0.357
-656.901	-200.000	0.005	-0.124
-655.886	214.833	0.061	-0.097
-654.872	800.000	0.090	-0.253
-653.857	-200.000	-0.079	0.394
-652.843	800.000	-0.092	0.297
-651.828	-108.612	-0.279	0.060
-650.814	-29.372	-0.213	-0.122
-649.799	670.952	-0.101	0.262
-648.784	40.551	-0.126	0.114
-647.770	-87.875	0.331	-0.100
-646.755	-129.123	0.156	-0.022
-645.741	-164.270	-0.197	0.009
-644.726	55.408	0.077	0.074
-643.711	-14.516	0.117	-0.075
-642.697	393.309	-0.048	-0.101
-641.682	-87.808	0.058	-0.017
-640.668	-200.000	0.039	-0.177
-639.653	139.279	0.078	-0.103
-638.638	40.779	0.313	0.283
-637.624	23.553	-0.044	0.036
-636.609	-89.272	-0.210	-0.062
-635.595	-200.000	0.010	0.158
-634.580	-200.000	0.020	-0.300
-633.565	-126.133	-0.311	-0.047
-632.551	800.000	0.066	-0.216
-631.536	430.311	0.041	-0.088
-630.522	-176.627	-0.120	0.003
-629.507	35.585	0.134	-0.118
-628.492	-116.828	0.131	0.024
-627.478	800.000	0.153	-0.640
-626.463	-82.462	0.265	-0.086
-625.449	110.545	-0.127	0.153
-624.434	-105.065	-0.120	-0.028
-623.419	-81.666	0.242	-0.079
-622.405	-200.000	0.012	-0.201
-621.390	-200.000	-0.009	0.117
-620.376	221.921	-0.056	-0.091
-619.361	-72.121	-0.049	0.018
-618.346	37.785	0.189	0.168
-617.332	-163.188	-0.175	-0.008
-616.317	-200.000	0.089	0.417
-615.303	-200.000	0.023	0.257
-614.288	800.000	0.054	0.155
-613.273	463.334	0.087	0.194
-612.259	-200.000	-0.025	-0.125
-611.244	-180.980	-0.227	-0.005
-610.230	800.000	0.098	-0.372
-609.215	314.472	-0.180	-0.340
-608.201	62.231	0.188	-0.188
-607.186	77.811	-0.217	-0.232
-606.171	210.755	0.184	-0.289
-605.157	-200.000	0.046	0.210
-604.142	-200.000	0.037	-0.459
-603.128	462.769	-0.070	-0.156
-602.113	800.000	0.073	0.309
-601.098	-107.228	0.174	0.038
-600.084	57.080	-0.142	-0.138
-599.069	-45.599	-0.328	-0.163
-598.055	-200.000	0.018	0.347
-597.040	-123.764	0.431	-0.068
-596.025	133.241	0.079	0.102
-595.011	-122.843	-0.246	0.040
-593.996	-151.387	0.243	-0.018
-592.982	-200.000	0.009	-0.184
-591.967	162.527	-0.072	0.101
-590.952	800.000	0.074	0.277
-589.938	-24.107	-0.336	-0.201
-588.923	-200.000	-0.040	-0.396
-587.909	378.892	-0.160	-0.328
-586.894	118.833	0.084	-0.104
-585.879	-76.408	-0.068	-0.024
-584.865	-28.825	-0.110	-0.063
-583.850	-200.000	-0.039	0.236
-582.836	-99.223	-0.407	0.103
-581.821	75.329	0.040	-0.043
-580.806	-200.000	0.026	0.169
-579.792	-102.340	-0.119	-0.029
-578.777	-183.240	-0.303	-0.005
-577.763	147.661	-0.139	0.187
-576.748	226.041	-0.106	-0.171
-575.733	77.093	0.134	0.143
-574.719	800.000	-0.029	0.123
-573.704	-30.409	-0.100	0.057
-572.690	-173.603	0.148	-0.004
-571.675	127.798	0.143	0.181
-570.661	-63.599	0.276	-0.113
-569.646	-112.645	-0.309	-0.062
-568.631	800.000	-0.076	0.226
-567.617	-200.000	0.004	-0.116
-566.602	7.638	0.333	0.249
-565.588	445.344	0.277	-0.609
-564.573	-200.000	0.021	-0.324
-563.558	-200.000	-0.005	0.086
-562.544	-93.066	0.206	-0.057
-561.529	2.652	0.033	-0.024
-560.515	-25.872	-0.292	0.172
-559.500	-186.394	0.132	0.002
-558.485	800.000	-0.068	0.238
-557.471	-168.055	0.178	0.007
-556.456	-111.264	-0.089	0.018
-555.442	59.096	-0.051	-0.051
-554.427	-200.000	-0.047	0.437
-553.412	341.561	0.102	0.200
-552.398	146.501	0.152	0.205
-551.383	17.819	0.082	-0.065
-550.369	-149.304	0.239	0.019
-549.354	73.607	0.009	0.009
-548.339	80.494	-0.219	0.236
-547.325	-125.565	-0.167	0.025
-546.310	-200.000	-0.007	-0.067
-545.296	309.553	-0.106	-0.199
-544.281	51.989	-0.460	-0.438
-543.266	242.315	-0.082	-0.137
-542.252	294.151	-0.038	0.070
-541.237	406.015	-0.154	0.325
-540.223	192.156	-0.059	0.089
-539.208	51.203	-0.104	-0.099
-538.193	234.929	-0.116	0.191
-537.179	-49.733	-0.154	0.073
-536.164	80.645	-0.187	-0.201
-535.150	-200.000	0.023	-0.111
-534.135	-200.000	-0.012	-0.075
-533.121	-200.000	-0.011	0.077
-532.106	-189.205	-0.302	0.004
-531.091	-92.824	0.328	0.092
-530.077	23.175	0.347	0.285
-529.062	119.674	-0.074	0.092
-528.048	0.333	-0.275	0.196
-527.033	-200.000	0.046	-0.335
-526.018	46.481	0.243	0.225
-525.004	711.238	0.120	0.318
-523.989	119.061	0.347	0.428
-522.975	642.393	-0.022	0.056
-521.960	-200.000	-0.011	-0.547
-520.945	800.000	-0.074	-0.305
-519.931	-200.000	-0.030	-0.216
-518.916	800.000	0.152	0.485
-517.902	-11.855	0.063	0.041
-516.887	-32.159	0.172	-0.096
-515.872	-138.794	-0.306	-0.033
-514.858	264.290	0.108	0.188
-513.843	-43.561	-0.024	-0.012
-512.829	800.000	0.091	0.295
-511.814	-139.733	0.224	-0.024
-510.799	-200.000	0.021	0.115
-509.785	161.554	0.220	-0.307
-508.770	-140.526	-0.012	-0.001
-507.756	-3.837	-0.316	-0.219
-506.741	-143.084	-0.073	-0.007
-505.726	-9.796	0.247	-0.164
-504.712	-200.000	0.015	0.194
-503.697	800.000	0.031	0.087
-502.683	-76.122	0.099	-0.035
-501.668	-200.000	0.040	0.313
-500.653	-108.070	0.286	-0.062
-499.639	-66.185	-0.288	0.114
-498.624	-160.583	0.306	0.016
-497.610	-200.000	0.046	-0.404
-496.595	-200.000	0.008	-0.159
-495.581	-73.890	0.310	-0.112
-494.566	202.773	0.195	0.301
-493.551	800.000	0.055	0.222
-492.537	-84.904	0.152	-0.047
-491.522	-132.188	-0.344	0.045
-490.508	-61.317	-0.229	0.096
-489.493	324.490	0.094	-0.179
-488.478	-113.620	-0.263	-0.051
-487.464	-46.814	0.135	-0.066
-486.449	67.193	-0.081	0.082
-485.435	-200.000	0.026	-0.254
-484.420	-153.299	-0.229	-0.016
-483.405	-200.000	0.031	-0.277
-482.391	800.000	0.129	0.428
-481.376	800.000	-0.057	-0.164
-480.362	146.405	0.152	0.203
-479.347	-142.513	-0.127	-0.012
-478.332	305.405	0.078	0.145
-477.318	-200.000	-0.016	0.306
-476.303	-200.000	0.359	0.001
-475.289	-155.624	-0.128	0.008
-474.274	122.403	0.346	-0.430
-473.259	-200.000	-0.010	-0.185
-472.245	-82.021	0.110	0.036
-471.230	-75.403	0.186	-0.066
-470.216	487.832	-0.037	0.085
-469.201	800.000	0.146	-0.425
-468.186	39.665	-0.308	-0.275
-467.172	-200.000	-0.002	0.197
-466.157	-19.682	0.284	-0.175
-465.143	112.430	-0.175	-0.210
-464.128	302.603	0.057	0.105
-463.113	-123.348	-0.129	-0.020
-462.099	64.400	-0.060	-0.060
-461.084	565.239	0.134	0.323
-460.070	-86.618	-0.242	-0.074
-459.055	-200.000	0.010	0.059
-458.040	-200.000	-0.058	-0.302
-457.026	180.220	-0.072	0.105
-456.011	353.983	-0.078	0.155
-454.997	-77.075	-0.284	0.099
-453.982	90.232	0.131	-0.146
-452.968	-71.953	0.152	-0.056
-451.953	57.105	0.232	-0.225
-450.938	-72.792	0.197	0.072
-449.924	-17.415	-0.228	-0.143
-448.909	-88.882	0.192	-0.057
-447.895	-2.949	0.093	-0.065
-446.880	-112.173	0.763	-0.152
-445.865	-108.710	-0.344	0.073
-444.851	800.000	-0.067	-0.245
-443.836	-104.011	-0.137	0.032
-442.822	16.200	0.069	0.054
-441.807	-23.127	0.135	0.081
-440.792	800.000	-0.062	-0.177
-439.778	16.290	0.044	-0.035
-438.763	-76.023	0.356	0.125
-437.749	-40.231	-0.140	-0.072
-436.734	-200.000	0.051	0.430
-435.719	221.860	-0.137	0.219
-434.705	181.232	0.110	0.160
-433.690	598.901	-0.111	-0.274
-432.676	-63.795	-0.269	0.110
-431.661	-72.204	0.158	-0.058
-430.646	126.786	0.070	-0.088
-429.632	7.786	0.147	0.109
-428.617	154.321	0.141	0.193
-427.603	-13.745	0.065	0.042
-426.588	-165.416	-0.191	0.008
-425.573	26.229	-0.308	0.256
-424.559	449.418	-0.058	0.126
-423.544	48.200	-0.060	0.055
-422.530	-192.733	-0.308	-0.003
-421.515	-24.861	-0.258	0.152
-420.500	403.992	0.109	0.228
-419.486	-53.891	-0.209	0.095
-418.471	177.779	0.131	0.190
-417.457	-200.000	-0.083	0.524
-416.442	-168.629	0.074	-0.003
-415.428	-151.455	-0.184	0.014
-414.413	800.000	0.084	0.267
-413.398	-200.000	0.049	0.455
-412.384	-129.133	-0.568	-0.079
-411.369	366.190	-0.052	-0.104
-410.355	174.090	-0.080	0.116
-409.340	-1.216	0.175	0.123
-408.325	-48.679	-0.276	0.132
-407.311	293.436	0.083	-0.150
-406.296	-200.000	-0.001	-0.206
-405.282	-111.002	-0.051	-0.010
-404.267	110.595	-0.250	0.298
-403.252	284.837	0.102	-0.183
-402.238	-61.938	-0.216	-0.090
-401.223	-26.420	-0.215	-0.125
-400.209	800.000	0.025	-0.099
-399.194	800.000	0.023	0.073
-398.179	11.880	-0.325	-0.248
-397.165	109.987	-0.031	0.037
-396.150	198.740	0.070	0.106
-395.136	-53.820	-0.144	0.065
-394.121	48.830	0.248	0.231
-393.106	-49.640	0.182	0.086
-392.092	-70.642	0.013	-0.005
-391.077	-45.570	0.137	0.067
-390.063	-200.000	-0.104	-0.482
-389.048	-28.981	-0.039	-0.022
-388.033	-109.306	0.063	0.013
-387.019	-200.000	-0.012	-0.218
-386.004	37.288	-0.086	-0.076
-384.990	57.946	-0.148	0.144
-383.975	-200.000	-0.032	0.226
-382.960	-129.934	-0.080	-0.011
-381.946	-76.088	-0.136	0.048
-380.931	136.744	0.194	0.251
-379.917	97.609	0.130	0.148
-378.902	-200.000	0.016	0.182
-377.888	-145.708	0.095	-0.008
-376.873	483.868	-0.130	0.294
-375.858	-47.824	0.047	0.022
-374.844	-125.147	-0.149	-0.023
-373.829	800.000	0.090	-0.263
-372.815	113.273	-0.095	-0.114
-371.800	142.111	-0.179	0.236
-370.785	-196.816	-0.231	-0.002
-369.771	-159.160	-0.252	-0.014
-368.756	440.719	0.124	0.269
-367.742	-194.582	0.096	0.001
-366.727	431.900	-0.050	0.108
-365.712	800.000	0.054	-0.171
-364.698	-121.035	-0.413	-0.069
-363.683	-200.000	0.005	-0.188
-362.669	-82.313	0.357	0.115
-361.654	150.279	0.035	0.047
-360.639	-200.000	-0.044	0.261
-359.625	-68.838	-0.042	-0.016
-358.610	-109.705	0.191	-0.040
-357.596	-147.933	0.219	0.018
-356.581	800.000	-0.037	-0.128
-355.566	-200.000	-0.042	-0.212
-354.552	-200.000	-0.013	-0.168
-353.537	331.668	-0.126	0.241
-352.523	-77.067	-0.208	-0.072
-351.508	244.784	-0.044	0.074
-350.493	-69.313	0.191	0.073
-349.479	176.668	0.113	0.164
-348.464	14.497	-0.110	0.085
-347.450	134.542	-0.280	0.360
-346.435	-200.000	0.049	-0.233
-345.420	42.492	0.268	-0.241
-344.406	235.758	-0.124	-0.204
-343.391	-0.693	-0.299	0.210
-342.377	-47.074	0.260	0.126
-341.362	225.604	0.074	-0.118
-340.348	800.000	-0.067	0.236
-339.333	-200.000	-0.027	0.148
-338.318	569.594	-0.107	0.257
-337.304	29.755	-0.285	-0.241
-336.289	-115.547	0.081	-0.015
-335.275	31.782	0.158	-0.134
-334.260	-155.261	-0.384	-0.025
-333.245	312.328	0.213	0.397
-332.231	-62.882	0.443	-0.182
-331.216	-14.858	-0.165	-0.105
-330.202	-126.555	-0.295	-0.043
-329.187	-200.000	0.009	0.108
-328.172	-1.876	-0.034	0.024
-327.158	10.042	-0.142	-0.107
-326.143	38.812	-0.306	-0.271
-325.129	-200.000	-0.012	-0.316
-324.114	263.434	0.093	0.160
-323.099	-102.208	0.264	0.063
-322.085	-138.088	-0.091	0.010
-321.070	-106.357	0.149	0.033
-320.056	-74.077	0.151	-0.054
-319.041	-200.000	-0.140	0.000
-318.026	-200.000	-0.016	0.105
-317.012	800.000	-0.103	-0.361
-315.997	-41.710	-0.193	0.098
-314.983	119.677	0.177	0.217
-313.968	394.154	0.052	0.107
-312.953	730.910	-0.024	-0.062
-311.939	-88.936	-0.140	-0.041
-310.924	-200.000	0.015	0.130
-309.910	-45.195	-0.132	-0.065
-308.895	-116.331	0.344	0.063
-307.880	800.000	-0.127	-0.418
-306.866	-77.210	-0.143	0.049
-305.851	-134.802	-0.407	0.049
-304.837	-66.024	-0.293	0.116
-303.822	-35.012	0.265	0.143
-302.807	800.000	-0.031	-0.129
-301.793	35.651	0.082	-0.071
-300.778	-200.000	0.046	0.302
-299.764	-167.996	0.229	0.009
-298.749	0.118	-0.246	-0.173
-297.735	-200.000	-0.043	-0.321
-296.720	-73.619	0.255	0.092
-295.705	-176.143	-0.039	0.001
-294.691	-200.000	-0.024	-0.157
-293.676	-2.830	-0.286	-0.198
-292.662	-47.971	0.122	-0.059
-291.647	204.147	0.056	0.086
-290.632	71.895	-0.028	0.029
-289.618	-200.000	-0.092	-0.422
-288.603	-53.633	-0.195	0.088
-287.589	45.513	-0.275	0.251
-286.574	-79.962	0.509	-0.169
-285.559	-120.932	0.075	-0.012
-284.545	33.376	-0.190	0.163
-283.530	-68.727	0.201	0.077
-282.516	162.077	-0.049	-0.068
-281.501	0.363	-0.056	0.040
-280.486	-48.125	0.193	-0.092
-279.472	-61.410	-0.128	0.053
-278.457	-200.000	0.039	-0.317
-277.443	-26.564	-0.268	0.155
-276.428	24.275	-0.072	0.059
-275.413	-80.898	0.517	-0.170
-274.399	0.964	-0.340	-0.241
-273.384	-149.983	-0.114	-0.009
-272.370	493.124	-0.049	-0.110
-271.355	30.481	-0.209	-0.177
-270.340	243.379	0.118	0.196
-269.326	71.302	0.206	-0.211
-268.311	39.021	0.017	0.015
-267.297	-200.000	-0.019	-0.173
-266.282	404.879	-0.140	0.291
-265.267	70.575	-0.156	-0.160
-264.253	263.822	0.149	0.256
-263.238	52.134	-0.036	0.034
-262.224	101.364	-0.078	-0.090
-261.209	-42.877	-0.312	-0.157
-260.195	146.794	-0.229	-0.304
-259.180	-113.926	0.290	-0.056
-258.165	-200.000	0.013	0.182
-257.151	-96.370	0.195	-0.051
-256.136	800.000	-0.044	-0.126
-255.122	-87.774	0.314	-0.093
-254.107	18.569	0.008	-0.006
-253.092	101.068	0.089	0.103
-252.078	10.124	0.369	-0.277
-251.063	800.000	0.102	-0.310
-250.049	146.474	-0.135	0.179
-249.034	-133.175	-0.262	0.033
-248.019	-200.000	0.085	0.435
-247.005	-200.000	-0.077	0.531
-245.990	-200.000	0.015	0.177
-244.976	-87.089	0.297	0.089
-243.961	-25.810	-0.151	0.088
-242.946	-16.940	0.134	-0.084
-241.932	28.012	-0.065	0.054
-240.917	148.811	0.102	-0.136
-239.903	-82.316	0.435	0.140
-238.888	-182.818	0.223	0.004
-237.873	-200.000	-0.010	-0.453
-236.859	431.874	-0.120	-0.256
-235.844	-75.254	0.060	0.021
-234.830	159.078	-0.065	-0.089
-233.815	-147.299	-0.311	-0.026
-232.800	-89.970	0.291	0.084
-231.786	-200.000	-0.082	0.356
-230.771	-156.483	0.514	-0.032
-229.757	-110.298	0.090	0.018
-228.742	268.101	0.043	0.075
-227.727	449.969	-0.143	-0.312
-226.713	382.366	-0.224	0.454
-225.698	-200.000	-0.001	-0.090
-224.684	-200.000	0.008	-0.169
-223.669	-30.091	-0.096	-0.054
-222.655	800.000	-0.054	0.186
-221.640	-138.779	0.233	0.025
-220.625	302.650	0.101	-0.185
-219.611	-12.478	-0.144	-0.093
-218.596	127.105	-0.043	-0.054
-217.582	-1.966	-0.124	0.086
-216.567	111.268	-0.128	-0.153
-215.552	-153.151	0.161	0.011
-214.538	-4.209	-0.309	0.211
-213.523	40.767	0.093	0.082
-212.509	-69.098	-0.372	0.141
-211.494	-21.487	0.216	0.130
-210.479	-16.347	-0.172	0.107
-209.465	-139.368	0.157	-0.017
-208.450	-109.085	0.198	-0.042
-207.436	577.473	-0.063	0.152
-206.421	72.441	0.036	0.037
-205.406	165.233	-0.073	-0.102
-204.392	800.000	-0.058	0.200
-203.377	800.000	-0.129	-0.542
-202.363	58.645	0.098	0.095
-201.348	-102.843	0.073	0.017
-200.333	-134.059	0.152	0.019
-199.319	-200.000	0.054	-0.375
-198.304	-129.383	-0.070	-0.010
-197.290	95.610	0.199	-0.223
-196.275	98.157	-0.132	-0.150
-195.260	193.326	-0.093	-0.139
-194.246	800.000	0.054	-0.202
-193.231	5.346	-0.196	0.142
-192.217	800.000	-0.051	-0.219
-191.202	-47.990	0.256	0.122
-190.187	81.518	-0.145	0.154
-189.173	149.458	0.063	0.085
-188.158	209.041	0.027	0.042
-187.144	-17.827	0.047	-0.029
-186.129	183.719	0.091	-0.132
-185.114	74.655	-0.075	-0.077
-184.100	-124.114	0.382	0.059
-183.085	800.000	-0.123	0.349
-182.071	-94.008	-0.414	-0.112
-181.056	-131.229	0.178	0.023
-180.042	218.640	-0.108	-0.170
-179.027	-181.325	-0.199	0.004
-178.012	800.000	0.006	0.025
-176.998	-30.439	0.198	-0.111
-175.983	-176.592	0.233	0.006
-174.969	241.723	0.054	-0.089
-173.954	6.595	0.124	0.090
-172.939	800.000	-0.068	-0.228
-171.925	800.000	0.054	-0.207
-170.910	800.000	-0.048	0.188
-169.896	78.650	0.143	0.151
-168.881	40.443	0.303	-0.269
-167.866	-200.000	0.023	0.226
-166.852	-70.224	0.242	0.091
-165.837	102.600	-0.136	-0.157
-164.823	800.000	-0.064	0.218
-163.808	-82.526	-0.191	-0.061
-162.793	91.293	-0.102	-0.113
-161.779	-200.000	0.025	0.157
-160.764	-125.480	0.321	-0.048
-159.750	-77.882	0.342	-0.116
-158.735	800.000	-0.147	0.547
-157.720	166.211	0.180	0.251
-156.706	-102.524	0.199	0.047
-155.691	285.428	-0.048	-0.085
-154.677	174.523	0.117	0.167
-153.662	6.445	-0.200	-0.146
-152.647	129.466	0.241	-0.302
-151.633	-86.924	-0.405	-0.122
-150.618	-63.172	0.204	0.083
-149.604	-58.388	0.138	0.059
-148.589	-12.996	0.297	0.190
-147.574	-96.315	-0.384	0.100
-146.560	64.955	-0.039	-0.039
-145.545	729.591	0.079	0.207
-144.531	538.803	-0.042	0.098
-143.516	-89.495	-0.443	-0.128
-142.502	-200.000	0.089	0.480
-141.487	-176.659	0.307	-0.008
-140.472	-126.321	0.500	-0.073
-139.458	-107.307	0.146	-0.032
-138.443	56.591	0.151	0.144
-137.429	81.690	0.156	-0.166
-136.414	-51.413	0.050	0.023
-135.399	-146.205	0.339	0.029
-134.385	46.138	-0.112	0.102
-133.370	149.869	0.069	0.091
-132.356	800.000	0.126	0.448
-131.341	-200.000	0.044	-0.354
-130.326	-117.109	0.344	-0.062
-129.312	-17.286	-0.097	-0.060
-128.297	535.401	0.067	0.156
-127.283	151.363	0.056	0.074
-126.268	162.115	-0.118	0.163
-125.253	6.789	-0.129	-0.094
-124.239	-200.000	-0.084	0.428
-123.224	219.249	-0.184	-0.289
-122.210	-105.454	-0.222	-0.050
-121.195	472.412	-0.136	-0.301
-120.180	-63.719	0.219	-0.088
-119.166	-167.127	-0.486	0.019
-118.151	83.316	-0.145	0.155
-117.137	800.000	-0.034	0.133
-116.122	-119.156	0.273	0.047
-115.107	40.600	-0.309	0.273
-114.093	-149.663	0.228	-0.018
-113.078	5.388	0.065	-0.047
-112.064	-97.934	0.334	0.085
-111.049	800.000	-0.091	-0.330
-110.034	177.667	0.113	-0.161
-109.020	18.001	-0.228	-0.178
-108.005	351.616	0.125	-0.243
-106.991	-200.000	-0.019	0.187
-105.976	108.233	0.145	-0.170
-104.962	-200.000	0.069	-0.430
-103.947	-86.288	-0.175	-0.053
-102.932	-60.384	0.540	0.225
-101.918	-191.208	0.131	-0.001
-100.903	-142.845	0.154	-0.015
-99.889	-200.000	0.006	0.062
-98.874	59.228	-0.032	0.031
-97.859	-47.088	-0.224	0.107
-96.845	-148.407	-0.239	0.019
-95.830	176.862	0.151	0.215
-94.816	-99.798	-0.057	0.014
-93.801	-43.836	0.249	0.123
-92.786	800.000	-0.040	-0.112
-91.772	360.055	-0.117	0.229
-90.757	-116.327	-0.166	0.030
-89.743	-200.000	-0.073	0.399
-88.728	-59.371	-0.196	-0.083
-87.713	-200.000	-0.002	0.179
-86.699	-159.033	-0.229	0.013
-85.684	148.169	-0.132	-0.175
-84.670	-116.761	0.183	0.033
-83.655	-189.870	0.266	-0.003
-82.640	45.336	0.062	-0.056
-81.626	-95.630	0.315	-0.083
-80.611	-200.000	0.064	-0.297
-79.597	-49.298	0.190	0.089
-78.582	187.603	0.160	0.234
-77.567	564.207	0.049	-0.116
-76.553	-10.134	0.288	0.187
-75.538	99.829	0.043	0.049
-74.524	-119.901	0.276	-0.047
-73.509	-36.503	-0.193	0.102
-72.494	-105.720	0.104	-0.023
-71.480	800.000	-0.138	0.403
-70.465	-115.838	0.286	0.052
-69.451	571.559	0.119	0.284
-68.436	-64.313	0.258	-0.103
-67.422	800.000	0.172	-0.505
-66.407	14.406	-0.423	0.324
-65.392	233.840	0.164	0.265
-64.378	-200.000	0.039	-0.326
-63.363	67.152	-0.138	0.138
-62.349	532.384	0.048	0.110
-61.334	71.093	-1.051	-1.068
-60.319	800.000	0.222	0.672
-59.305	57.850	-0.775	-0.743
-58.290	473.201	0.595	1.315
-57.276	327.427	0.870	1.636
-56.261	-200.000	111.596	634.349
-55.246	462.337	1506.461	3294.686
-54.232	145.195	2684.786	3520.636
-53.217	99.284	2289.101	2593.329
-52.203	37.888	1897.215	1652.242
-51.188	31.831	1685.357	1421.909
-50.173	29.237	1642.944	1366.856
-49.159	50.317	1696.811	1570.945
-48.144	49.953	1712.096	1582.298
-47.130	31.418	1669.936	1405.566
-46.115	28.664	1655.767	1373.023
-45.100	28.428	1650.642	1366.955
-44.086	28.378	1648.254	1364.551
-43.071	28.365	1645.801	1362.368
-42.057	28.336	1643.397	1360.115
-41.042	28.419	1641.346	1358.975
-40.027	28.423	1639.482	1357.406
-39.013	28.492	1637.276	1356.039
-37.998	28.457	1635.751	1354.462
-36.984	28.455	1634.653	1353.483
-35.969	28.523	1633.058	1352.611
-34.954	28.653	1631.159	1351.940
-33.940	28.529	1629.731	1349.794
-32.925	28.506	1628.060	1348.189
-31.911	28.497	1625.943	1346.317
-30.896	28.467	1624.587	1344.920
-29.881	28.532	1622.711	1343.786
-28.867	28.492	1621.382	1342.344
-27.852	28.555	1620.060	1341.655
-26.838	28.519	1618.762	1340.261
-25.823	28.524	1617.615	1339.299
-24.809	28.571	1616.214	1338.430
-23.794	28.592	1614.748	1337.311
-22.779	28.506	1613.892	1335.924
-21.765	28.655	1611.650	1335.099
-20.750	28.546	1610.001	1332.889
-19.736	28.603	1608.784	1332.242
-18.721	28.668	1606.980	1331.163
-17.706	28.587	1605.716	1329.477
-16.692	28.566	1604.440	1328.219
-15.677	28.639	1602.916	1327.429
-14.663	28.704	1601.414	1326.607
-13.648	28.604	1600.668	1325.213
-12.633	28.552	1598.406	1322.909
-11.619	28.607	1596.841	1321.962
-10.604	28.625	1595.437	1320.873
-9.590	28.607	1594.772	1320.144
-8.575	28.659	1593.011	1319.007
-7.560	28.605	1591.764	1317.532
-6.546	28.596	1591.090	1316.860
-5.531	28.667	1589.750	1316.208
-4.517	28.632	1588.597	1314.947
-3.502	28.590	1587.668	1313.825
-2.487	28.583	1585.874	1312.243
-1.473	28.329	1573.402	1300.067
-0.458	25.083	1553.789	1261.016
0.556	19.427	1554.326	1226.433
1.571	16.780	1577.770	1225.691
2.586	16.342	1590.129	1231.994
3.600	15.152	1537.831	1182.969
4.615	8.493	1430.129	1056.156
5.629	1.641	1367.671	966.533
6.644	0.306	1359.671	952.363
7.659	0.101	1358.671	950.281
8.673	0.094	1357.530	949.352
9.688	0.019	1355.880	947.643
10.702	-0.152	1352.751	944.301
11.717	3.187	1357.670	968.691
12.731	11.261	1369.773	1028.350
13.746	16.644	1377.276	1067.943
14.761	17.239	1376.568	1071.056
15.775	16.295	1374.311	1063.261
16.790	15.308	1372.261	1055.368
17.804	14.473	1369.868	1048.187
18.819	14.220	1368.018	1045.096
19.834	13.921	1366.989	1042.337
20.848	13.504	1366.422	1039.197
21.863	13.324	1364.644	1036.623
22.877	13.266	1363.076	1034.979
23.892	13.069	1362.640	1033.322
24.907	13.209	1360.986	1032.852
25.921	13.127	1360.754	1032.075
26.936	13.196	1359.722	1031.632
27.950	13.309	1358.876	1031.599
28.965	13.355	1357.893	1031.052
29.980	13.375	1356.922	1030.348
30.994	13.359	1356.200	1029.608
32.009	13.388	1355.294	1029.011
33.023	13.513	1353.811	1028.567
34.038	13.413	1352.937	1027.192
35.053	13.416	1351.667	1026.160
36.067	13.353	1350.346	1024.671
37.082	13.311	1349.881	1023.966
38.096	13.446	1348.789	1023.884
39.111	13.388	1348.284	1023.054
40.126	13.349	1347.333	1022.002
41.140	13.172	1346.655	1020.304
42.155	13.092	1346.242	1019.403
43.169	13.166	1345.710	1019.369
44.184	13.155	1345.594	1019.122
45.199	13.204	1344.986	1018.874
46.213	13.188	1344.737	1018.496
47.228	13.283	1343.336	1017.930
48.242	13.356	1342.308	1017.508
49.257	13.287	1340.907	1015.932
50.271	13.324	1339.502	1015.008
51.286	13.246	1338.102	1013.379
52.301	13.230	1336.964	1012.328
53.315	13.230	1336.391	1011.803
54.330	13.235	1334.911	1010.628
55.344	13.269	1333.702	1009.826
56.359	13.151	1333.027	1008.509
57.374	13.200	1331.841	1007.819
58.388	13.168	1330.669	1006.646
59.403	13.052	1330.968	1006.077
60.417	13.209	1329.873	1006.118
61.432	13.126	1328.951	1004.829
62.447	12.981	1328.412	1003.446
63.461	13.094	1326.673	1002.732
64.476	13.002	1325.424	1001.144
65.490	13.087	1324.653	1000.989
66.505	13.110	1322.940	999.744
67.520	12.992	1322.292	998.450
68.534	13.135	1320.517	997.883
69.549	13.157	1319.605	997.244
70.563	13.090	1318.817	996.151
71.578	13.051	1317.650	994.948
72.593	13.066	1316.503	994.087
73.607	12.929	1316.004	992.797
74.622	13.062	1314.805	992.604
75.636	13.043	1313.885	991.707
76.651	13.019	1313.521	991.201
77.666	13.069	1312.770	990.845
78.680	13.106	1312.240	990.579
79.695	13.068	1311.323	989.573
80.709	13.111	1310.906	989.425
81.724	13.083	1309.676	988.245
82.739	13.232	1308.915	988.475
83.753	13.186	1308.200	987.569
84.768	13.315	1306.861	987.242
85.782	13.358	1305.765	986.586
86.797	13.338	1304.259	985.240
87.812	13.351	1303.023	984.294
88.826	13.263	1302.362	983.187
89.841	13.317	1301.186	982.535
90.855	13.356	1300.135	981.882
91.870	13.371	1299.467	981.381
92.884	13.351	1298.240	980.250
93.899	13.438	1297.474	980.097
94.914	13.374	1296.992	979.268
95.928	13.417	1296.119	978.780
96.943	13.365	1295.343	977.795
97.957	13.398	1294.228	977.065
98.972	13.323	1293.239	975.792
99.987	13.402	1292.269	975.435
101.001	13.366	1291.050	974.219
102.016	13.407	1290.258	973.775
103.030	13.369	1289.430	972.840
104.045	13.439	1288.348	972.351
105.060	13.359	1287.068	970.828
106.074	13.197	1286.044	969.019
107.089	13.154	1284.559	967.566
108.103	13.226	1282.946	966.687
109.118	13.153	1282.254	965.653
110.133	13.201	1280.863	964.796
111.147	13.118	1279.805	963.434
112.162	13.120	1278.866	962.649
113.176	13.199	1277.886	962.288
114.191	13.295	1276.236	961.521
115.206	13.308	1275.408	960.886
116.220	13.256	1273.950	959.400
117.235	13.239	1272.739	958.308
118.249	13.270	1271.961	957.816
119.264	13.220	1270.853	956.604
120.279	13.230	1269.736	955.740
121.293	13.181	1268.795	954.660
122.308	13.139	1267.829	953.611
123.322	13.129	1267.086	952.908
124.337	13.064	1266.225	951.801
125.352	13.126	1264.713	950.936
126.366	13.135	1263.993	950.365
127.381	13.231	1262.447	949.670
128.395	13.176	1261.607	948.638
129.410	13.198	1261.056	948.263
130.424	13.205	1259.900	947.353
131.439	13.150	1259.075	946.332
132.454	13.311	1257.955	946.327
133.468	13.291	1257.029	945.433
134.483	13.177	1256.292	944.144
135.497	13.305	1255.242	944.003
136.512	13.256	1254.153	942.821
137.527	13.302	1252.332	941.633
138.541	13.229	1250.904	940.058
139.556	13.293	1249.622	939.376
140.570	13.393	1248.779	939.225
141.585	13.396	1247.793	938.418
142.600	13.420	1246.499	937.498
143.614	13.360	1245.745	936.508
144.629	13.444	1244.324	935.831
145.643	13.458	1243.304	935.064
146.658	13.449	1242.156	934.063
147.673	13.397	1240.578	932.501
148.687	13.339	1240.031	931.684
149.702	13.356	1238.172	930.296
150.716	13.337	1236.950	929.190
151.731	13.263	1236.168	928.105
152.746	13.350	1235.332	927.883
153.760	13.376	1233.661	926.694
154.775	13.534	1232.165	926.371
155.789	13.541	1231.622	925.919
156.804	13.367	1230.680	924.161
157.819	13.448	1229.691	923.784
158.833	13.608	1228.418	923.638
159.848	13.561	1227.699	922.757
160.862	13.496	1227.163	921.906
161.877	13.502	1225.701	920.761
162.892	13.451	1224.800	919.722
163.906	13.417	1223.956	918.818
164.921	13.447	1222.737	917.988
165.935	13.584	1222.107	918.193
166.950	13.588	1221.288	917.517
167.964	13.492	1220.749	916.500
168.979	13.584	1219.897	916.286
169.994	13.597	1219.030	915.628
171.008	13.600	1218.210	914.945
172.023	13.585	1217.588	914.314
173.037	13.653	1216.821	914.033
174.052	13.694	1215.989	913.552
175.067	13.532	1215.002	911.838
176.081	13.572	1213.627	910.946
177.096	13.632	1212.921	910.664
178.110	13.619	1211.851	909.713
179.125	13.603	1210.627	908.623
180.140	13.643	1209.390	907.837
181.154	13.584	1208.264	906.587
182.169	13.785	1206.758	906.476
183.183	13.714	1205.737	905.239
184.198	13.783	1204.807	904.839
185.213	13.763	1203.739	903.848
186.227	13.864	1202.612	903.470
187.242	13.809	1201.865	902.529
188.256	13.875	1200.457	901.753
189.271	13.950	1199.293	901.204
190.286	13.744	1198.414	899.349
191.300	13.775	1197.465	898.723
192.315	13.674	1197.256	897.939
193.329	13.746	1196.087	897.375
194.344	13.578	1195.901	896.248
195.359	13.788	1195.211	896.785
196.373	13.928	1194.351	896.813
197.388	13.920	1194.419	896.743
198.402	13.912	1193.666	896.057
199.417	13.927	1192.918	895.498
200.432	14.075	1191.827	895.395
201.446	14.120	1190.746	894.743
202.461	14.044	1190.173	893.825
203.475	14.133	1189.087	893.413
204.490	14.005	1187.967	891.805
205.504	14.032	1186.797	890.992
206.519	14.030	1185.441	889.883
207.534	13.997	1184.170	888.676
208.548	13.936	1183.948	888.100
209.563	13.923	1183.586	887.682
210.577	14.000	1182.089	886.894
211.592	14.180	1180.750	886.771
212.607	14.182	1180.201	886.288
213.621	14.163	1179.215	885.368
214.636	14.123	1178.553	884.579
215.650	14.154	1177.417	883.812
216.665	14.172	1176.625	883.238
217.680	14.133	1175.894	882.402
218.694	14.239	1175.118	882.305
219.709	14.250	1174.611	881.904
220.723	14.241	1173.456	880.913
221.738	14.258	1172.913	880.518
222.753	14.340	1171.845	880.072
223.767	14.319	1171.629	879.719
224.782	14.399	1170.650	879.327
225.796	14.284	1170.359	878.427
226.811	14.318	1169.679	878.015
227.826	14.339	1168.829	877.414
228.840	14.412	1167.842	876.976
229.855	14.425	1167.391	876.632
230.869	14.476	1166.688	876.291
231.884	14.396	1165.561	874.945
232.899	14.365	1164.796	874.134
233.913	14.319	1164.192	873.362
234.928	14.379	1163.911	873.387
235.942	14.248	1163.437	872.268
236.957	14.417	1161.783	871.836
237.972	14.380	1161.344	871.234
238.986	14.357	1160.772	870.608
240.001	14.445	1159.733	870.214
241.015	14.461	1158.933	869.617
242.030	14.429	1158.621	869.139
243.045	14.445	1157.526	868.326
244.059	14.446	1156.713	867.646
245.074	14.404	1156.272	867.018
246.088	14.470	1155.439	866.660
247.103	14.581	1154.521	866.472
248.117	14.628	1153.657	865.988
249.132	14.626	1153.147	865.519
250.147	14.748	1152.118	865.304
251.161	14.743	1151.382	864.646
252.176	14.759	1150.894	864.285
253.190	14.867	1150.251	864.285
254.205	14.908	1149.226	863.650
255.220	14.796	1149.475	863.182
256.234	14.802	1148.431	862.356
257.249	14.889	1147.558	862.073
258.263	14.872	1146.926	861.431
259.278	15.028	1146.096	861.537
260.293	14.880	1146.007	860.633
261.307	14.883	1145.376	860.097
262.322	15.030	1144.601	860.196
263.336	15.216	1143.779	860.456
264.351	15.095	1143.460	859.518
265.366	15.069	1142.668	858.712
266.380	15.142	1141.714	858.294
267.395	15.159	1140.759	857.586
268.409	15.037	1140.830	856.943
269.424	14.985	1139.944	855.933
270.439	15.140	1138.910	855.874
271.453	15.120	1138.277	855.220
272.468	14.981	1137.877	854.136
273.482	14.991	1136.797	853.297
274.497	15.125	1135.928	853.254
275.512	14.987	1135.880	852.441
276.526	15.158	1134.755	852.391
277.541	15.167	1133.801	851.642
278.555	15.172	1133.506	851.373
279.570	15.244	1132.730	851.080
280.585	15.315	1131.925	850.759
281.599	15.284	1130.991	849.825
282.614	15.231	1130.070	848.790
283.628	15.217	1128.915	847.776
284.643	15.221	1127.737	846.838
285.657	15.191	1127.612	846.515
286.672	15.128	1126.435	845.242
287.687	15.196	1125.408	844.736
288.701	15.363	1124.918	845.136
289.716	15.381	1124.028	844.482
290.730	15.383	1123.228	843.818
291.745	15.355	1122.346	842.940
292.760	15.380	1121.963	842.704
293.774	15.413	1121.206	842.225
294.789	15.500	1120.937	842.383
295.803	15.421	1120.413	841.522
296.818	15.383	1119.620	840.659
297.833	15.419	1118.398	839.850
298.847	15.396	1117.692	839.128
299.862	15.463	1116.708	838.650
300.876	15.536	1116.204	838.563
301.891	15.508	1115.692	837.962
302.906	15.440	1115.251	837.218
303.920	15.689	1114.312	837.683
304.935	15.662	1113.697	837.011
305.949	15.673	1113.067	836.516
306.964	15.741	1112.165	836.103
307.979	15.713	1111.499	835.391
308.993	15.649	1111.024	834.641
310.008	15.721	1109.840	834.034
311.022	15.772	1108.936	833.535
312.037	15.833	1108.324	833.303
313.052	15.614	1107.941	831.855
314.066	15.685	1106.819	831.290
315.081	15.613	1105.795	830.096
316.095	15.682	1104.928	829.709
317.110	15.545	1104.757	828.834
318.125	15.638	1103.689	828.414
319.139	15.720	1102.931	828.178
320.154	15.580	1102.635	827.192
321.168	15.646	1101.756	826.784
322.183	15.782	1100.851	826.701
323.197	15.775	1100.758	826.521
324.212	15.806	1099.675	825.789
325.227	15.759	1099.275	825.187
326.241	15.720	1099.319	824.953
327.256	15.760	1097.915	824.024
328.270	15.772	1097.064	823.372
329.285	15.763	1096.313	822.688
330.300	15.785	1095.282	821.951
331.314	15.784	1094.315	821.148
332.329	15.865	1093.497	820.856
333.343	15.930	1092.161	820.098
334.358	15.890	1091.842	819.590
335.373	15.840	1091.353	818.906
336.387	15.929	1090.239	818.432
337.402	15.943	1089.655	817.991
338.416	15.963	1089.056	817.566
339.431	16.159	1087.928	817.594
340.446	15.986	1087.990	816.729
341.460	16.063	1087.372	816.566
342.475	16.227	1085.948	816.218
343.489	16.172	1085.282	815.379
344.504	16.164	1084.524	814.703
345.519	16.252	1083.506	814.289
346.533	16.338	1082.583	813.939
347.548	16.238	1082.122	813.038
348.562	16.271	1081.188	812.421
349.577	16.228	1080.835	811.880
350.592	16.224	1080.056	811.200
351.606	16.143	1079.138	810.052
352.621	16.253	1078.210	809.809
353.635	16.193	1077.956	809.259
354.650	16.290	1076.985	808.927
355.665	16.266	1076.651	808.489
356.679	16.343	1075.984	808.282
357.694	16.397	1075.396	808.028
358.708	16.279	1074.992	807.091
359.723	16.292	1074.235	806.513
360.738	16.263	1073.479	805.732
361.752	16.336	1073.036	805.680
362.767	16.389	1072.207	805.238
363.781	16.434	1071.449	804.810
364.796	16.363	1071.491	804.432
365.810	16.442	1070.589	804.060
366.825	16.428	1070.208	803.638
367.840	16.543	1069.422	803.521
368.854	16.654	1068.618	803.375
369.869	16.561	1068.239	802.576
370.883	16.617	1067.130	801.938
371.898	16.525	1066.495	800.952
372.913	16.585	1065.958	800.764
373.927	16.649	1065.318	800.516
374.942	16.697	1064.816	800.293
375.956	16.526	1064.693	799.321
376.971	16.549	1064.069	798.892
377.986	16.649	1063.333	798.740
379.000	16.804	1062.442	798.729
380.015	16.748	1062.107	798.144
381.029	16.773	1061.386	797.650
382.044	16.741	1060.923	797.081
383.059	16.961	1059.841	797.230
384.073	16.865	1058.835	795.953
385.088	16.803	1058.307	795.195
386.102	16.901	1057.276	794.808
387.117	16.740	1056.428	793.350
388.132	16.745	1055.615	792.691
389.146	16.781	1054.803	792.177
390.161	16.755	1054.276	791.590
391.175	16.785	1053.403	791.004
392.190	16.873	1052.544	790.701
393.205	16.909	1052.124	790.482
394.219	16.946	1051.336	789.993
395.234	16.990	1050.107	789.207
396.248	16.864	1049.438	788.048
397.263	16.884	1048.108	787.072
398.278	16.903	1047.491	786.626
399.292	16.829	1047.110	785.930
400.307	16.897	1046.214	785.499
401.321	16.944	1045.740	785.292
402.336	16.966	1045.012	784.778
403.350	16.928	1044.192	783.916
404.365	16.833	1043.829	783.138
405.380	17.007	1043.282	783.462
406.394	17.047	1042.071	782.666
407.409	17.051	1041.803	782.414
408.423	17.187	1041.035	782.394
409.438	17.096	1040.335	781.382
410.453	17.219	1039.656	781.368
411.467	17.175	1038.997	780.600
412.482	17.212	1038.449	780.288
413.496	17.216	1037.353	779.417
414.511	17.229	1036.856	779.031
415.526	17.310	1036.518	779.080
416.540	17.397	1036.362	779.292
417.555	17.347	1035.629	778.442
418.569	17.376	1035.317	778.275
419.584	17.401	1034.285	777.546
420.599	17.365	1034.170	777.224
421.613	103.920	1324.119	1472.725
422.628	95.182	1366.323	1472.825
