DTS Sentinel unit serial number:	SN413079Multiplexer serial number:	ORYXHardware model number:	OX4-SRSoftware version number:	ORYX F/W v4.00 Oryx Data Collector v3.7.2.0data status	okinstallation	princeton_trtdifferential loss correction	single-endedforward channel	channel 2reverse channel	N/Adate	2019/09/14time	23:27:34forward acquisition time	60.00reverse acquisition time	0.00gamma	496.2192k internal	0.2324k external	0.2324temperature offset calibration	1.0051default loss term (dB/km)	0.3790temperature slope calibration	1.0000multiplexer offset coefficient	1.0000multiplexer slope coefficient	1.0000fibre end	0.00T internal ref (°C)	32.37T ext. ref 1 (°C)	4.64T ext. ref 2 (°C)	27.38length (m)	temperature (°C)	Stokes	anti-Stokes-747.200	800.000	-0.010	-0.043
-746.185	244.859	-0.116	0.197
-745.171	356.375	0.130	0.262
-744.156	-102.200	0.452	0.110
-743.142	-146.077	0.041	-0.004
-742.127	-103.430	0.548	0.130
-741.112	-25.989	0.100	0.059
-740.098	789.440	-0.052	-0.144
-739.083	-108.725	-0.299	0.065
-738.069	-200.000	-0.052	0.456
-737.054	36.036	-0.228	0.202
-736.039	-55.941	-0.225	-0.101
-735.025	-200.000	0.030	0.171
-734.010	-33.153	-0.187	-0.105
-732.996	-105.484	0.304	-0.070
-731.981	59.596	-0.260	-0.259
-730.966	800.000	0.008	-0.030
-729.952	-200.000	-0.064	0.337
-728.937	419.777	0.062	-0.133
-727.923	173.885	0.104	-0.152
-726.908	-16.078	0.202	-0.130
-725.894	-200.000	0.071	-0.475
-724.879	54.689	-0.079	-0.077
-723.864	96.874	-0.110	0.127
-722.850	5.466	-0.187	0.139
-721.835	-200.000	0.033	0.261
-720.821	-111.942	-0.390	-0.079
-719.806	118.548	0.182	0.226
-718.791	7.354	0.011	0.008
-717.777	-200.000	0.004	0.486
-716.762	-56.612	-0.300	-0.134
-715.748	16.065	-0.118	0.094
-714.733	193.924	-0.136	-0.207
-713.718	445.586	-0.133	-0.295
-712.704	-139.239	0.279	-0.030
-711.689	84.255	-0.221	-0.244
-710.675	-14.828	-0.455	-0.294
-709.660	343.590	-0.084	-0.166
-708.645	-75.057	-0.201	0.073
-707.631	6.838	0.047	-0.035
-706.616	-200.000	-0.009	-0.154
-705.602	235.845	0.084	-0.139
-704.587	375.962	-0.031	0.063
-703.572	118.704	-0.194	-0.242
-702.558	9.460	-0.205	-0.157
-701.543	-200.000	0.021	-0.167
-700.529	-120.608	-0.228	0.039
-699.514	-111.806	-0.251	0.051
-698.499	-200.000	-0.016	-0.262
-697.485	67.811	-0.186	0.191
-696.470	800.000	-0.028	0.095
-695.456	126.118	0.215	0.274
-694.441	-11.926	0.180	-0.119
-693.426	101.506	-0.159	0.187
-692.412	428.249	0.042	-0.091
-691.397	-200.000	0.050	-0.321
-690.383	276.375	0.101	0.180
-689.368	-111.951	0.201	0.041
-688.354	-200.000	-0.027	0.330
-687.339	-99.360	0.311	0.079
-686.324	-120.754	-0.161	0.027
-685.310	-15.180	0.167	0.108
-684.295	-200.000	-0.001	-0.044
-683.281	276.419	0.124	0.221
-682.266	139.670	-0.058	-0.077
-681.251	800.000	-0.123	-0.450
-680.237	-149.201	-0.366	-0.029
-679.222	74.463	0.197	-0.208
-678.208	-131.610	0.267	0.035
-677.193	216.570	0.080	-0.128
-676.178	-200.000	-0.009	0.061
-675.164	800.000	0.081	0.258
-674.149	800.000	0.032	-0.115
-673.135	-200.000	-0.029	0.328
-672.120	-108.412	-0.129	-0.028
-671.105	-156.708	0.313	-0.019
-670.091	-196.191	-0.138	-0.001
-669.076	-200.000	0.089	0.520
-668.062	-48.047	0.191	0.093
-667.047	800.000	-0.015	-0.063
-666.032	68.859	0.073	0.076
-665.018	-177.425	-0.226	0.006
-664.003	800.000	0.019	-0.062
-662.989	269.985	0.190	-0.336
-661.974	-189.147	0.365	-0.004
-660.959	-117.727	-0.210	-0.038
-659.945	40.703	0.068	0.061
-658.930	-200.000	0.016	0.142
-657.916	286.540	0.074	-0.134
-656.901	-14.310	0.137	0.089
-655.886	3.807	0.203	-0.149
-654.872	-6.824	-0.105	-0.072
-653.857	440.981	-0.046	0.100
-652.843	-200.000	0.016	0.357
-651.828	-19.825	0.089	-0.055
-650.814	29.163	-0.107	0.091
-649.799	128.828	-0.154	0.198
-648.784	-62.322	-0.291	-0.122
-647.770	734.055	0.112	-0.301
-646.755	-94.086	0.165	-0.045
-645.741	204.533	-0.083	-0.129
-644.726	60.429	-0.120	-0.119
-643.711	-160.950	0.018	0.001
-642.697	-102.954	-0.329	-0.078
-641.682	2.753	-0.465	-0.339
-640.668	-109.450	-0.036	0.008
-639.653	-200.000	0.042	-0.339
-638.638	358.323	-0.022	-0.044
-637.624	-127.621	0.255	0.037
-636.609	103.884	0.053	0.063
-635.595	136.676	-0.137	-0.179
-634.580	10.793	0.125	-0.096
-633.565	800.000	-0.140	-0.400
-632.551	-36.109	-0.193	-0.105
-631.536	286.776	0.204	-0.370
-630.522	-200.000	0.025	0.181
-629.507	800.000	-0.124	0.352
-628.492	9.540	0.091	0.070
-627.478	-54.737	-0.372	0.169
-626.463	559.004	0.021	-0.052
-625.449	-200.000	0.005	0.069
-624.434	-1.743	0.303	0.214
-623.419	-170.828	0.200	0.007
-622.405	323.199	0.057	-0.109
-621.390	-114.550	-0.552	0.106
-620.376	400.961	-0.088	0.186
-619.361	-37.177	-0.145	-0.078
-618.346	-200.000	-0.062	-0.364
-617.332	-200.000	0.024	0.290
-616.317	-200.000	0.051	0.325
-615.303	-115.427	-0.439	-0.083
-614.288	-76.540	-0.329	-0.116
-613.273	-35.325	0.362	-0.197
-612.259	-117.446	-0.320	-0.058
-611.244	-97.576	-0.157	0.041
-610.230	-200.000	0.033	-0.190
-609.215	-200.000	0.045	-0.271
-608.201	800.000	0.055	0.239
-607.186	-175.649	-0.238	0.006
-606.171	-200.000	0.005	0.102
-605.157	-124.533	0.221	0.034
-604.142	36.640	-0.168	0.149
-603.128	-104.223	0.222	-0.052
-602.113	800.000	0.030	-0.100
-601.098	800.000	-0.047	0.195
-600.084	800.000	-0.131	-0.364
-599.069	-200.000	-0.005	-0.313
-598.055	-72.986	0.253	0.093
-597.040	-200.000	0.049	-0.286
-596.025	-86.970	0.090	0.028
-595.011	800.000	0.040	-0.136
-593.996	-94.699	-0.247	-0.067
-592.982	31.954	0.219	0.190
-591.967	219.202	-0.213	-0.342
-590.952	560.919	0.091	-0.220
-589.938	-155.761	-0.135	-0.009
-588.923	-89.250	0.277	-0.082
-587.909	-200.000	-0.010	-0.074
-586.894	-30.037	0.145	-0.083
-585.879	-68.607	0.107	0.041
-584.865	-200.000	0.002	-0.268
-583.850	506.097	-0.069	0.161
-582.836	30.813	0.209	0.179
-581.821	158.874	-0.134	0.186
-580.806	-85.780	-0.251	0.078
-579.792	500.153	0.047	0.108
-578.777	-2.769	-0.177	-0.124
-577.763	-9.920	0.160	-0.107
-576.748	-71.799	-0.173	-0.065
-575.733	330.236	0.083	0.161
-574.719	234.523	-0.184	0.304
-573.704	60.789	0.056	0.055
-572.690	276.317	-0.045	-0.080
-571.675	-126.849	0.187	0.028
-570.661	736.205	0.147	0.394
-569.646	-73.260	0.147	-0.054
-568.631	-16.723	-0.242	0.153
-567.617	10.839	-0.326	0.249
-566.602	-200.000	0.014	0.087
-565.588	71.520	-0.122	0.127
-564.573	260.152	0.076	-0.132
-563.558	-173.646	-0.061	-0.002
-562.544	21.635	0.401	-0.327
-561.529	-112.110	-0.221	-0.045
-560.515	800.000	-0.061	-0.232
-559.500	99.866	0.009	0.010
-558.485	-31.907	-0.110	-0.062
-557.471	661.813	0.136	0.351
-556.456	-9.417	0.188	-0.126
-555.442	-200.000	0.100	-0.461
-554.427	-95.237	0.045	0.012
-553.412	3.099	0.159	0.116
-552.398	-30.656	-0.187	0.106
-551.383	-49.822	-0.297	0.141
-550.369	-200.000	-0.043	-0.343
-549.354	55.248	0.272	-0.263
-548.339	301.418	0.062	0.115
-547.325	-200.000	-0.010	-0.459
-546.310	-200.000	-0.031	0.208
-545.296	-39.711	-0.247	0.130
-544.281	-39.490	-0.272	-0.143
-543.266	-41.690	0.212	-0.109
-542.252	102.630	0.116	0.136
-541.237	800.000	0.112	-0.417
-540.223	800.000	0.060	0.191
-539.208	-73.322	-0.173	-0.063
-538.193	56.581	-0.243	0.237
-537.179	85.492	-0.170	0.187
-536.164	-200.000	-0.014	-0.140
-535.150	468.473	-0.054	-0.120
-534.135	-29.766	-0.132	-0.075
-533.121	9.340	-0.272	-0.206
-532.106	-200.000	-0.054	-0.332
-531.091	-141.380	0.251	0.025
-530.077	131.321	0.113	-0.146
-529.062	-89.951	-0.283	0.083
-528.048	-200.000	0.008	0.093
-527.033	735.120	-0.088	0.236
-526.018	-103.660	0.305	0.072
-525.004	-148.750	-0.147	-0.012
-523.989	222.702	-0.149	-0.240
-522.975	100.341	-0.035	0.041
-521.960	-80.845	0.220	-0.073
-520.945	-200.000	-0.047	-0.330
-519.931	-138.260	0.062	0.007
-518.916	-3.731	-0.164	-0.114
-517.902	373.447	0.113	0.229
-516.887	86.447	-0.134	-0.148
-515.872	800.000	0.072	0.266
-514.858	-22.619	-0.025	0.015
-513.843	222.995	-0.097	-0.156
-512.829	56.063	0.276	0.267
-511.814	79.287	0.202	0.217
-510.799	-181.166	-0.144	-0.003
-509.785	87.212	-0.308	-0.340
-508.770	-200.000	-0.048	0.582
-507.756	-4.896	-0.371	0.256
-506.741	-87.826	-0.172	0.052
-505.726	0.721	0.140	-0.100
-504.712	-200.000	0.005	-0.147
-503.697	-114.993	0.274	0.052
-502.683	8.521	-0.301	-0.227
-501.668	800.000	-0.055	0.190
-500.653	30.642	-0.024	0.021
-499.639	-91.494	0.195	0.056
-498.624	62.072	-0.179	-0.179
-497.610	800.000	-0.096	-0.401
-496.595	210.383	0.114	0.179
-495.581	-34.266	-0.224	0.123
-494.566	-156.434	-0.222	-0.014
-493.551	-200.000	-0.004	0.101
-492.537	-67.528	0.284	-0.111
-491.522	-104.178	-0.027	0.006
-490.508	-16.721	-0.267	0.169
-489.493	-74.936	0.162	0.058
-488.478	72.879	-0.128	0.133
-487.464	182.516	-0.149	0.219
-486.449	-200.000	0.035	-0.165
-485.435	-200.000	-0.051	-0.225
-484.420	-200.000	-0.007	-0.048
-483.405	3.482	0.256	0.186
-482.391	-200.000	0.053	0.242
-481.376	-11.959	0.081	0.053
-480.362	149.366	0.097	-0.131
-479.347	538.811	0.063	0.149
-478.332	431.592	-0.078	-0.168
-477.318	-115.860	0.163	0.030
-476.303	254.932	-0.194	0.331
-475.289	-200.000	0.041	0.285
-474.274	-61.352	-0.052	-0.022
-473.259	40.415	-0.258	0.232
-472.245	-153.365	0.287	0.020
-471.230	69.941	-0.214	0.220
-470.216	-114.928	-0.212	0.040
-469.201	167.481	-0.203	-0.288
-468.186	89.678	-0.085	-0.094
-467.172	-126.242	-0.051	0.008
-466.157	-62.179	-0.304	-0.126
-465.143	447.695	0.112	0.246
-464.128	0.161	-0.065	-0.046
-463.113	-15.501	-0.150	-0.096
-462.099	-192.639	-0.301	0.003
-461.084	12.497	0.147	-0.113
-460.070	7.863	-0.178	-0.133
-459.055	244.334	-0.043	0.073
-458.040	800.000	-0.121	-0.346
-457.026	6.274	-0.153	-0.113
-456.011	164.671	0.095	0.134
-454.997	-122.255	0.140	0.023
-453.982	-158.979	-0.151	0.009
-452.968	20.654	0.052	-0.042
-451.953	-69.852	0.087	-0.033
-450.938	-115.196	-0.160	-0.030
-449.924	-200.000	0.023	0.297
-448.909	-111.476	0.263	-0.053
-447.895	61.625	-0.198	0.196
-446.880	259.095	0.105	-0.181
-445.865	251.307	0.074	-0.126
-444.851	171.529	-0.131	-0.188
-443.836	800.000	0.063	-0.201
-442.822	283.463	-0.157	0.282
-441.807	800.000	-0.106	-0.319
-440.792	800.000	0.092	-0.375
-439.778	299.055	-0.061	0.112
-438.763	-76.694	-0.133	0.046
-437.749	-77.114	0.214	-0.074
-436.734	-66.204	0.322	-0.128
-435.719	38.698	0.243	0.216
-434.705	-200.000	0.013	-0.083
-433.690	-200.000	-0.064	0.328
-432.676	-26.064	0.370	0.217
-431.661	800.000	-0.062	-0.252
-430.646	-102.434	-0.046	-0.011
-429.632	96.087	-0.119	0.135
-428.617	-40.522	0.080	-0.042
-427.603	-86.183	-0.187	-0.057
-426.588	86.951	-0.055	-0.061
-425.573	800.000	0.035	-0.097
-424.559	120.065	0.165	0.204
-423.544	588.903	-0.083	-0.203
-422.530	249.368	0.061	-0.104
-421.515	-200.000	-0.001	0.052
-420.500	78.406	-0.153	-0.163
-419.486	44.817	-0.171	-0.157
-418.471	-5.776	0.328	-0.224
-417.457	-5.947	-0.111	-0.076
-416.442	195.584	-0.110	-0.167
-415.428	-21.321	0.251	0.153
-414.413	-119.855	-0.153	-0.026
-413.398	569.694	0.068	-0.165
-412.384	8.910	-0.092	0.069
-411.369	350.456	0.094	0.185
-410.355	-200.000	0.200	-0.001
-409.340	-128.217	-0.030	-0.004
-408.325	152.902	0.060	0.081
-407.311	800.000	-0.059	0.170
-406.296	309.684	-0.095	-0.176
-405.282	-200.000	0.031	0.175
-404.267	-42.208	-0.140	0.071
-403.252	86.583	0.060	0.066
-402.238	-200.000	-0.032	0.150
-401.223	-200.000	-0.008	0.141
-400.209	-151.281	-0.164	-0.012
-399.194	-134.712	-0.084	0.010
-398.179	-79.823	-0.278	0.093
-397.165	162.347	-0.102	-0.142
-396.150	-139.280	-0.156	-0.017
-395.136	-56.329	0.277	0.123
-394.121	-200.000	0.026	0.177
-393.106	-200.000	-0.020	0.191
-392.092	109.336	0.216	0.257
-391.077	-50.886	0.255	0.119
-390.063	-118.502	-0.178	0.031
-389.048	131.355	-0.239	0.306
-388.033	-200.000	0.053	0.300
-387.019	800.000	0.022	-0.081
-386.004	699.614	-0.131	-0.342
-384.990	-61.218	0.398	0.167
-383.975	-76.864	0.304	0.106
-382.960	-200.000	-0.025	0.166
-381.946	-71.346	0.188	0.070
-380.931	-200.000	-0.018	0.229
-379.917	-200.000	0.046	-0.224
-378.902	-29.975	0.062	-0.035
-377.888	-157.360	0.187	0.011
-376.873	-200.000	-0.043	0.208
-375.858	-200.000	-0.007	-0.286
-374.844	76.677	-0.154	0.163
-373.829	-160.020	-0.152	0.008
-372.815	23.650	-0.175	0.143
-371.800	56.328	0.354	0.342
-370.785	-41.665	-0.078	-0.040
-369.771	-47.097	-0.161	0.078
-368.756	-97.188	-0.251	-0.065
-367.742	-51.144	0.158	-0.074
-366.727	-113.531	0.122	-0.024
-365.712	800.000	0.091	-0.309
-364.698	-200.000	0.011	-0.131
-363.683	85.701	0.319	0.349
-362.669	143.688	0.032	0.043
-361.654	14.300	0.076	0.059
-360.639	-200.000	0.015	0.134
-359.625	-49.560	-0.243	0.115
-358.610	-200.000	-0.031	0.283
-357.596	800.000	0.076	-0.208
-356.581	-112.749	0.310	-0.061
-355.566	-2.180	-0.166	-0.116
-354.552	26.994	0.368	0.307
-353.537	-127.548	0.134	-0.019
-352.523	-186.415	0.138	-0.002
-351.508	-36.093	-0.153	-0.082
-350.493	58.035	0.126	-0.122
-349.479	10.231	0.231	0.174
-348.464	125.808	0.187	0.235
-347.450	145.574	0.180	0.239
-346.435	-61.382	0.275	0.115
-345.420	-200.000	-0.014	0.221
-344.406	800.000	0.124	-0.352
-343.391	800.000	-0.121	0.475
-342.377	88.763	0.065	0.071
-341.362	30.511	-0.205	-0.174
-340.348	-82.458	0.129	0.041
-339.333	-24.342	-0.233	0.138
-338.318	13.244	0.341	0.263
-337.304	800.000	-0.064	0.189
-336.289	94.873	0.045	-0.051
-335.275	-50.179	0.405	0.190
-334.260	677.546	-0.051	0.132
-333.245	-21.573	0.253	0.153
-332.231	800.000	0.021	0.087
-331.216	800.000	0.074	0.300
-330.202	104.712	0.174	0.204
-329.187	800.000	-0.086	0.244
-328.172	-154.763	0.172	-0.011
-327.158	348.580	0.045	0.088
-326.143	69.643	-0.233	-0.238
-325.129	217.445	0.132	-0.208
-324.114	-52.211	0.240	-0.111
-323.099	70.726	-0.207	0.213
-322.085	-88.294	0.092	0.027
-321.070	241.831	-0.130	-0.216
-320.056	-96.796	-0.182	0.048
-319.041	4.692	0.075	-0.054
-318.026	13.192	-0.314	0.241
-317.012	-161.120	-0.084	0.004
-315.997	800.000	-0.067	0.229
-314.983	172.596	0.259	0.369
-313.968	299.330	-0.028	0.051
-312.953	114.138	0.167	-0.201
-311.939	-200.000	0.008	-0.048
-310.924	435.747	-0.077	0.166
-309.910	293.177	-0.038	0.069
-308.895	-142.756	-0.168	-0.016
-307.880	-79.658	0.324	0.109
-306.866	289.908	0.105	-0.189
-305.851	232.257	-0.122	-0.198
-304.837	126.136	-0.139	-0.174
-303.822	-101.079	0.159	-0.039
-302.807	157.230	0.069	-0.095
-301.793	-103.881	0.253	-0.059
-300.778	-161.835	-0.163	0.008
-299.764	-96.461	0.379	-0.099
-298.749	161.603	-0.088	0.122
-297.735	-95.312	-0.186	0.050
-296.720	-47.916	-0.100	-0.048
-295.705	89.027	0.213	-0.235
-294.691	-144.792	0.201	0.018
-293.676	273.481	-0.184	0.323
-292.662	-200.000	0.029	0.158
-291.647	197.696	0.090	0.137
-290.632	-35.707	-0.354	-0.190
-289.618	-79.442	0.306	0.103
-288.603	-10.459	0.023	-0.015
-287.589	-112.944	0.177	0.035
-286.574	-31.537	0.266	-0.148
-285.559	381.104	-0.010	0.021
-284.545	345.587	-0.186	0.363
-283.530	-54.106	-0.293	-0.132
-282.516	251.378	-0.061	-0.103
-281.501	343.475	-0.072	-0.139
-280.486	143.728	-0.156	0.206
-279.472	-135.481	0.101	0.012
-278.457	-185.344	-0.296	-0.005
-277.443	-42.989	-0.215	0.108
-276.428	800.000	-0.044	0.127
-275.413	378.377	-0.029	0.060
-274.399	-200.000	0.027	0.142
-273.384	-79.922	-0.280	-0.093
-272.370	-86.204	-0.178	-0.054
-271.355	-99.802	-0.163	-0.041
-270.340	-200.000	0.000	0.183
-269.326	-22.007	-0.209	-0.126
-268.311	-200.000	0.062	-0.337
-267.297	-200.000	0.078	0.393
-266.282	-176.168	-0.499	0.013
-265.267	-119.371	0.267	0.046
-264.253	-164.144	0.241	0.011
-263.238	149.715	-0.221	-0.297
-262.224	-177.986	0.167	0.004
-261.209	-200.000	0.001	0.235
-260.195	-97.710	0.069	0.018
-259.180	-200.000	-0.051	0.280
-258.165	-38.970	0.142	-0.074
-257.151	-156.160	0.353	0.022
-256.136	-167.400	-0.218	-0.009
-255.122	-5.219	0.050	0.034
-254.107	-45.277	-0.097	-0.048
-253.092	44.121	0.151	-0.137
-252.078	147.258	0.106	-0.142
-251.063	800.000	0.083	-0.243
-250.049	800.000	-0.083	0.285
-249.034	800.000	0.072	0.219
-248.019	567.787	0.136	-0.326
-247.005	-200.000	-0.029	-0.143
-245.990	315.865	-0.194	0.361
-244.976	-37.918	-0.340	-0.179
-243.961	-200.000	-0.049	-0.269
-242.946	194.706	-0.206	-0.310
-241.932	607.589	-0.161	0.396
-240.917	-47.932	0.138	-0.066
-239.903	-185.403	-0.171	-0.003
-238.888	-200.000	0.008	0.048
-237.873	800.000	-0.058	-0.248
-236.859	800.000	-0.038	-0.153
-235.844	-51.844	-0.285	0.131
-234.830	-35.899	0.052	-0.028
-233.815	-115.192	-0.140	-0.026
-232.800	-100.813	-0.453	0.110
-231.786	-18.233	0.124	-0.076
-230.771	-200.000	0.015	0.265
-229.757	-161.711	-0.201	-0.010
-228.742	800.000	-0.050	0.142
-227.727	-85.178	0.079	-0.025
-226.713	-37.903	-0.145	-0.076
-225.698	-20.129	-0.334	-0.204
-224.684	-200.000	-0.071	0.337
-223.669	-140.589	0.040	-0.004
-222.655	177.671	-0.133	0.192
-221.640	310.084	-0.117	0.216
-220.625	-110.430	0.307	-0.063
-219.611	731.534	0.062	0.165
-218.596	-50.865	0.179	-0.083
-217.582	259.788	-0.151	-0.258
-216.567	193.596	0.098	-0.146
-215.552	143.070	0.018	-0.023
-214.538	-14.987	0.055	0.035
-213.523	49.335	-0.155	0.144
-212.509	-104.873	0.514	0.117
-211.494	-200.000	-0.058	-0.256
-210.479	93.266	-0.154	-0.172
-209.465	40.015	0.169	-0.150
-208.450	-200.000	-0.027	-0.374
-207.436	-200.000	-0.010	-0.118
-206.421	-99.780	-0.070	-0.017
-205.406	-200.000	0.002	0.252
-204.392	305.702	-0.125	0.231
-203.377	-200.000	0.003	-0.152
-202.363	43.373	0.176	0.159
-201.348	260.106	0.139	0.237
-200.333	-106.026	0.066	0.015
-199.319	-67.304	-0.139	-0.054
-198.304	-70.254	0.073	0.028
-197.290	-134.444	0.295	0.036
-196.275	-47.316	-0.278	-0.134
-195.260	-55.820	0.155	-0.069
-194.246	116.545	0.222	0.269
-193.231	-115.605	0.259	-0.048
-192.217	-200.000	-0.020	-0.089
-191.202	526.460	0.134	0.311
-190.187	-200.000	0.018	-0.324
-189.173	-18.124	-0.158	0.098
-188.158	77.409	0.232	-0.244
-187.144	11.565	0.116	-0.088
-186.129	-200.000	0.024	-0.123
-185.114	203.017	0.028	0.043
-184.100	-200.000	0.103	-0.448
-183.085	800.000	-0.071	0.241
-182.071	112.496	0.073	-0.087
-181.056	-55.481	0.507	-0.224
-180.042	94.685	0.042	0.047
-179.027	800.000	-0.065	0.242
-178.012	56.745	0.101	-0.097
-176.998	257.970	0.025	0.042
-175.983	-161.131	0.353	0.018
-174.969	-23.787	0.019	0.011
-173.954	-200.000	0.297	-0.001
-172.939	-200.000	0.024	0.231
-171.925	-155.235	0.088	-0.006
-170.910	-21.583	0.217	-0.130
-169.896	349.790	0.119	-0.232
-168.881	-200.000	0.233	0.001
-167.866	-172.608	0.356	0.011
-166.852	11.945	0.309	-0.235
-165.837	127.474	0.227	-0.285
-164.823	-74.342	-0.167	0.059
-163.808	168.902	0.124	-0.175
-162.793	-81.371	-0.202	-0.066
-161.779	800.000	0.091	-0.253
-160.764	-140.470	-0.292	-0.030
-159.750	-200.000	-0.020	0.093
-158.735	142.009	0.095	-0.124
-157.720	-73.545	-0.312	-0.112
-156.706	-152.254	0.427	0.030
-155.691	-182.208	0.091	-0.002
-154.677	336.981	0.205	-0.392
-153.662	-57.986	-0.336	-0.145
-152.647	-24.443	0.145	-0.085
-151.633	-200.000	0.047	-0.214
-150.618	-200.000	0.041	-0.289
-149.604	-18.780	-0.069	-0.042
-148.589	-41.407	-0.096	0.049
-147.574	262.189	-0.101	0.173
-146.560	-72.259	-0.263	-0.096
-145.545	23.432	0.158	-0.128
-144.531	-42.072	0.213	0.108
-143.516	-74.040	-0.175	0.062
-142.502	56.147	0.140	-0.134
-141.487	-59.712	-0.374	0.158
-140.472	-142.248	-0.323	0.032
-139.458	-125.865	0.151	-0.022
-138.443	125.224	0.021	-0.026
-137.429	-126.317	0.317	0.047
-136.414	-200.000	0.014	-0.415
-135.399	-135.173	-0.205	0.024
-134.385	-174.939	0.099	-0.003
-133.370	-200.000	-0.226	-0.001
-132.356	-56.216	-0.053	0.023
-131.341	-200.000	0.021	0.099
-130.326	-18.121	0.085	-0.052
-129.312	-200.000	0.016	0.134
-128.297	11.691	-0.036	0.027
-127.283	-135.832	0.198	-0.023
-126.268	-200.000	-0.048	0.227
-125.253	-98.673	-0.267	0.067
-124.239	17.002	-0.187	0.146
-123.224	-133.891	0.072	-0.009
-122.210	-4.396	0.312	-0.213
-121.195	53.964	-0.167	-0.158
-120.180	-200.000	-0.028	0.264
-119.166	-11.826	0.171	0.111
-118.151	349.431	0.090	-0.175
-117.137	243.151	0.225	-0.371
-116.122	800.000	0.052	0.222
-115.107	56.631	0.303	0.290
-114.093	800.000	-0.071	0.286
-113.078	-200.000	0.004	0.088
-112.064	34.500	-0.142	-0.122
-111.049	-23.152	0.005	0.003
-110.034	-94.999	0.183	0.049
-109.020	167.605	0.230	0.322
-108.005	-200.000	-0.009	-0.207
-106.991	-21.611	-0.317	-0.190
-105.976	-26.496	0.064	0.037
-104.962	800.000	0.095	0.406
-103.947	115.043	-0.081	-0.098
-102.932	-46.363	0.232	-0.112
-101.918	-123.630	0.213	-0.033
-100.903	-200.000	0.048	0.352
-99.889	161.682	-0.215	0.296
-98.874	800.000	0.117	0.494
-97.859	-54.651	0.181	0.080
-96.845	42.035	-0.154	-0.137
-95.830	74.047	0.075	0.077
-94.816	10.678	-0.139	-0.104
-93.801	800.000	-0.033	0.114
-92.786	184.865	-0.143	0.209
-91.772	-71.447	0.275	0.101
-90.757	20.856	-0.233	-0.186
-89.743	371.014	-0.078	0.156
-88.728	-51.348	0.587	-0.270
-87.713	370.082	0.178	-0.355
-86.699	23.025	0.166	-0.134
-85.684	-122.010	0.173	0.028
-84.670	403.119	-0.095	0.197
-83.655	151.973	-0.134	0.179
-82.640	-80.532	0.088	0.029
-81.626	-200.000	-0.044	-0.229
-80.611	-116.116	0.291	-0.053
-79.597	5.623	0.102	-0.074
-78.582	760.960	-0.118	-0.314
-77.567	800.000	0.020	0.087
-76.553	-58.520	0.041	-0.017
-75.538	-200.000	-0.004	0.358
-74.524	87.532	-0.164	0.178
-73.509	-57.269	0.179	0.077
-72.494	164.759	0.200	-0.278
-71.480	-14.798	-0.165	0.104
-70.465	-53.209	-0.293	-0.132
-69.451	111.987	0.121	-0.143
-68.436	-163.329	-0.080	-0.004
-67.422	48.685	0.092	0.085
-66.407	47.520	-0.130	0.119
-65.392	-200.000	0.011	-0.421
-64.378	-78.264	-0.316	-0.107
-63.363	-22.592	0.107	-0.064
-62.349	-28.448	0.358	0.203
-61.334	108.245	-0.852	-0.999
-60.319	584.995	0.347	0.837
-59.305	800.000	-0.234	-0.761
-58.290	391.057	0.526	1.074
-57.276	641.938	0.619	1.549
-56.261	-200.000	96.144	589.616
-55.246	661.827	1373.135	3476.877
-54.232	198.995	2551.828	3840.294
-53.217	113.960	2266.793	2707.968
-52.203	41.913	1895.833	1689.314
-51.188	35.708	1686.340	1455.779
-50.173	32.943	1642.396	1397.358
-49.159	50.378	1688.484	1567.662
-48.144	51.878	1704.646	1593.843
-47.130	35.255	1665.592	1434.255
-46.115	32.559	1651.415	1401.957
-45.100	32.378	1646.323	1396.229
-44.086	32.364	1643.656	1393.810
-43.071	32.335	1641.148	1391.416
-42.057	32.266	1638.873	1388.918
-41.042	32.282	1637.139	1387.515
-40.027	32.332	1635.170	1386.162
-39.013	32.313	1633.253	1384.337
-37.998	32.204	1631.897	1382.330
-36.984	32.357	1630.251	1382.011
-35.969	32.340	1628.826	1380.621
-34.954	32.509	1627.016	1380.272
-33.940	32.345	1625.819	1377.998
-32.925	32.401	1623.709	1376.568
-31.911	32.367	1622.213	1374.992
-30.896	32.425	1620.184	1373.646
-29.881	32.328	1619.028	1371.901
-28.867	32.321	1617.525	1370.523
-27.852	32.343	1615.697	1369.078
-26.838	32.344	1614.365	1367.907
-25.823	32.385	1612.467	1366.543
-24.809	32.372	1611.526	1365.592
-23.794	32.414	1610.173	1364.698
-22.779	32.347	1608.618	1362.842
-21.765	32.351	1606.946	1361.399
-20.750	32.369	1605.323	1360.101
-19.736	32.383	1603.781	1358.838
-18.721	32.416	1602.544	1357.975
-17.706	32.402	1601.413	1356.860
-16.692	32.409	1599.613	1355.335
-15.677	32.471	1597.781	1354.175
-14.663	32.463	1596.935	1353.346
-13.648	32.331	1595.712	1351.308
-12.633	32.434	1593.753	1350.334
-11.619	32.454	1592.302	1349.191
-10.604	32.325	1591.029	1347.142
-9.590	32.476	1589.476	1346.848
-8.575	32.420	1588.501	1345.569
-7.560	32.404	1586.986	1344.118
-6.546	32.364	1586.324	1343.219
-5.531	32.415	1584.593	1342.063
-4.517	32.263	1584.059	1340.475
-3.502	32.377	1582.692	1340.075
-2.487	32.479	1580.001	1338.473
-1.473	32.117	1569.310	1326.807
-0.458	29.468	1549.968	1291.884
0.556	25.574	1550.239	1260.202
1.571	23.279	1573.552	1262.692
2.586	22.749	1586.070	1268.817
3.600	20.114	1532.832	1207.779
4.615	12.305	1424.214	1071.344
5.629	5.691	1361.968	983.045
6.644	4.677	1354.529	971.264
7.659	4.606	1352.869	969.543
8.673	4.587	1352.080	968.772
9.688	4.690	1349.782	967.680
10.702	4.545	1347.300	964.920
11.717	7.550	1353.194	987.768
12.731	14.992	1366.676	1044.123
13.746	19.582	1373.230	1077.749
14.761	19.182	1371.418	1073.736
15.775	18.059	1369.341	1065.020
16.790	17.043	1366.579	1056.460
17.804	16.265	1364.034	1049.562
18.819	15.926	1362.545	1046.216
19.834	15.649	1361.755	1043.800
20.848	15.395	1360.328	1041.038
21.863	15.215	1359.085	1038.877
22.877	15.065	1357.721	1036.814
23.892	14.910	1357.442	1035.549
24.907	15.022	1356.181	1035.186
25.921	15.021	1355.158	1034.309
26.936	15.105	1354.384	1034.144
27.950	15.107	1353.489	1033.383
28.965	15.146	1352.619	1032.867
29.980	15.265	1351.326	1032.524
30.994	15.375	1349.930	1032.039
32.009	15.399	1348.791	1031.230
33.023	15.342	1347.833	1030.055
34.038	15.182	1346.606	1028.042
35.053	15.181	1345.148	1026.830
36.067	15.205	1344.174	1026.147
37.082	15.228	1343.010	1025.308
38.096	15.310	1342.075	1025.005
39.111	15.217	1341.691	1024.051
40.126	15.150	1340.718	1022.807
41.140	14.928	1339.871	1020.718
42.155	14.875	1339.122	1019.732
43.169	14.911	1338.875	1019.673
44.184	14.994	1338.375	1019.711
45.199	14.950	1338.323	1019.313
46.213	15.141	1337.324	1019.621
47.228	15.161	1336.508	1019.033
48.242	15.234	1335.108	1018.316
49.257	15.125	1333.942	1016.676
50.271	15.088	1333.011	1015.654
51.286	15.096	1331.662	1014.585
52.301	15.060	1330.372	1013.291
53.315	15.090	1329.116	1012.428
54.330	15.110	1327.462	1011.199
55.344	15.053	1326.595	1010.106
56.359	15.041	1325.979	1009.473
57.374	14.936	1325.191	1008.151
58.388	14.985	1324.141	1007.561
59.403	14.706	1324.458	1006.032
60.417	14.861	1323.168	1005.897
61.432	14.828	1322.333	1004.975
62.447	14.788	1321.535	1004.039
63.461	14.708	1320.326	1002.549
64.476	14.719	1319.045	1001.556
65.490	14.874	1317.563	1001.269
66.505	14.890	1316.048	1000.125
67.520	14.909	1314.679	999.110
68.534	14.884	1313.453	997.941
69.549	14.930	1312.858	997.675
70.563	14.799	1311.925	996.098
71.578	14.686	1311.132	994.730
72.593	14.657	1310.368	993.892
73.607	14.640	1309.137	992.770
74.622	14.832	1308.236	993.141
75.636	14.721	1307.659	991.953
76.651	14.754	1306.627	991.278
77.666	14.711	1306.762	991.040
78.680	14.896	1305.870	991.369
79.695	14.776	1306.148	990.783
80.709	14.804	1304.762	989.807
81.724	15.019	1303.537	990.063
82.739	14.957	1303.182	989.341
83.753	15.171	1301.948	989.583
84.768	15.151	1301.424	988.980
85.782	15.154	1300.320	988.071
86.797	15.172	1299.273	987.294
87.812	15.087	1297.851	985.622
88.826	15.175	1296.274	984.857
89.841	15.239	1295.109	984.259
90.855	15.280	1294.528	983.972
91.870	15.208	1293.862	982.954
92.884	15.282	1292.681	982.406
93.899	15.269	1291.963	981.698
94.914	15.387	1290.945	981.528
95.928	15.369	1290.059	980.662
96.943	15.322	1289.316	979.736
97.957	15.194	1288.580	978.342
98.972	15.187	1287.704	977.547
99.987	15.275	1286.243	976.868
101.001	15.290	1285.158	976.044
102.016	15.178	1284.861	975.078
103.030	15.230	1283.926	974.587
104.045	15.252	1282.791	973.766
105.060	15.156	1281.124	971.859
106.074	15.044	1279.969	970.248
107.089	14.998	1278.439	968.732
108.103	14.860	1277.359	967.033
109.118	14.887	1275.873	965.976
110.133	14.833	1274.867	964.819
111.147	14.903	1273.157	963.845
112.162	14.937	1271.897	963.002
113.176	14.903	1271.327	962.286
114.191	15.062	1270.279	962.324
115.206	14.958	1269.627	961.148
116.220	15.055	1267.458	959.975
117.235	14.970	1266.915	958.994
118.249	14.953	1265.910	958.050
119.264	14.902	1264.609	956.685
120.279	14.928	1263.521	955.930
121.293	14.844	1262.692	954.739
122.308	14.822	1261.770	953.828
123.322	14.897	1260.351	953.100
124.337	14.854	1259.136	951.852
125.352	14.827	1258.018	950.769
126.366	14.873	1257.076	950.236
127.381	14.859	1256.389	949.550
128.395	14.967	1255.256	949.225
129.410	14.811	1254.592	947.755
130.424	14.958	1253.545	947.712
131.439	14.941	1252.583	946.802
132.454	14.907	1251.700	945.860
133.468	15.034	1250.782	945.802
134.483	14.942	1250.442	944.943
135.497	14.980	1249.230	944.153
136.512	15.025	1247.966	943.369
137.527	15.127	1246.281	942.586
138.541	15.062	1245.107	941.248
139.556	15.154	1243.557	940.513
140.570	15.233	1243.018	940.467
141.585	15.190	1241.851	939.258
142.600	15.224	1241.211	938.883
143.614	15.271	1239.934	938.096
144.629	15.328	1238.613	937.332
145.643	15.289	1237.984	936.555
146.658	15.115	1236.638	934.483
147.673	15.228	1234.823	933.658
148.687	15.192	1233.674	932.504
149.702	15.074	1232.566	930.932
150.716	15.112	1231.151	929.991
151.731	15.021	1230.116	928.620
152.746	14.986	1229.265	927.705
153.760	15.150	1227.724	927.368
154.775	15.220	1226.920	927.064
155.789	15.358	1225.608	926.753
156.804	15.284	1224.610	925.508
157.819	15.172	1224.017	924.359
158.833	15.324	1223.240	924.529
159.848	15.365	1222.178	923.873
160.862	15.398	1221.038	923.110
161.877	15.225	1219.516	920.928
162.892	15.135	1218.763	919.781
163.906	15.237	1217.880	919.591
164.921	15.200	1217.199	918.794
165.935	15.260	1216.037	918.166
166.950	15.248	1215.655	917.730
167.964	15.277	1215.020	917.326
168.979	15.335	1214.173	916.924
169.994	15.275	1213.404	915.932
171.008	15.290	1212.191	915.019
172.023	15.288	1212.079	914.843
173.037	15.387	1211.514	914.873
174.052	15.406	1210.186	913.897
175.067	15.404	1208.582	912.590
176.081	15.338	1207.344	911.216
177.096	15.223	1207.111	910.338
178.110	15.326	1205.859	909.869
179.125	15.378	1204.825	909.294
180.140	15.342	1203.379	907.925
181.154	15.313	1202.364	906.925
182.169	15.493	1200.995	906.780
183.183	15.457	1200.119	905.845
184.198	15.606	1198.792	905.567
185.213	15.525	1198.148	904.562
186.227	15.544	1196.890	903.635
187.242	15.624	1196.163	903.435
188.256	15.753	1194.777	903.007
189.271	15.645	1193.887	901.671
190.286	15.476	1193.049	900.053
191.300	15.268	1192.312	898.306
192.315	15.219	1191.524	897.366
193.329	15.305	1191.009	897.360
194.344	15.335	1190.163	896.804
195.359	15.446	1189.571	896.872
196.373	15.599	1189.728	897.730
197.388	15.489	1189.172	896.640
198.402	15.687	1188.727	897.283
199.417	15.858	1187.838	897.443
200.432	15.894	1187.006	896.931
201.446	15.923	1186.204	896.400
202.461	15.936	1185.151	895.592
203.475	16.009	1184.330	895.282
204.490	15.811	1183.024	893.164
205.504	15.794	1181.755	892.039
206.519	15.814	1180.525	891.137
207.534	15.852	1179.448	890.445
208.548	15.735	1178.553	889.069
209.563	15.775	1177.847	888.673
210.577	15.818	1176.953	888.146
211.592	15.787	1176.133	887.283
212.607	15.805	1175.879	887.107
213.621	15.921	1174.978	886.960
214.636	15.828	1173.811	885.515
215.650	15.874	1172.991	885.060
216.665	15.979	1171.942	884.739
217.680	15.972	1171.224	884.080
218.694	16.074	1170.002	883.617
219.709	16.134	1169.219	883.260
220.723	15.995	1168.681	882.051
221.738	15.977	1168.178	881.499
222.753	16.033	1167.300	881.050
223.767	16.021	1167.055	880.724
224.782	16.155	1165.898	880.475
225.796	16.178	1165.325	880.080
226.811	16.288	1164.304	879.807
227.826	16.173	1163.613	878.607
228.840	16.172	1162.880	877.969
229.855	16.079	1162.590	877.189
230.869	16.016	1162.027	876.360
231.884	16.075	1160.607	875.520
232.899	16.055	1159.928	874.825
233.913	16.005	1159.488	874.158
234.928	16.062	1158.338	873.509
235.942	16.066	1157.662	872.940
236.957	16.013	1156.834	871.966
237.972	16.023	1156.282	871.524
238.986	16.074	1155.720	871.284
240.001	16.071	1155.053	870.692
241.015	16.123	1154.126	870.183
242.030	16.194	1153.154	869.740
243.045	16.065	1152.552	868.543
244.059	16.171	1152.138	868.699
245.074	16.349	1150.769	868.509
246.088	16.278	1150.166	867.610
247.103	16.440	1149.369	867.764
248.117	16.376	1148.529	866.726
249.132	16.442	1147.897	866.510
250.147	16.599	1147.440	866.891
251.161	16.683	1146.686	866.676
252.176	16.672	1146.345	866.285
253.190	16.601	1145.822	865.451
254.205	16.773	1145.205	865.788
255.220	16.734	1144.534	865.005
256.234	16.730	1143.690	864.270
257.249	16.766	1143.370	864.137
258.263	16.679	1142.628	863.053
259.278	16.753	1141.688	862.646
260.293	16.878	1141.060	862.731
261.307	16.840	1140.477	862.018
262.322	16.909	1139.750	861.743
263.336	16.880	1139.345	861.213
264.351	16.979	1138.672	861.131
265.366	16.942	1137.802	860.212
266.380	16.927	1137.005	859.454
267.395	16.897	1136.367	858.745
268.409	16.818	1135.525	857.632
269.424	16.858	1134.877	857.268
270.439	16.813	1134.431	856.632
271.453	16.842	1133.493	855.992
272.468	16.961	1132.343	855.648
273.482	16.740	1131.815	854.059
274.497	16.784	1131.246	853.778
275.512	16.874	1130.748	853.777
276.526	16.851	1130.027	853.043
277.541	16.825	1129.208	852.217
278.555	16.791	1128.577	851.498
279.570	16.992	1127.836	851.870
280.585	17.118	1126.735	851.596
281.599	17.148	1125.759	850.934
282.614	16.996	1125.238	849.702
283.628	16.959	1123.808	848.363
284.643	16.988	1123.165	847.945
285.657	17.019	1122.373	847.427
286.672	16.863	1121.640	846.020
287.687	17.077	1120.863	846.429
288.701	16.970	1120.074	845.224
289.716	17.000	1119.347	844.752
290.730	16.978	1118.455	843.893
291.745	17.086	1117.329	843.503
292.760	16.978	1117.241	842.829
293.774	17.127	1116.936	843.261
294.789	17.161	1116.245	842.837
295.803	17.247	1115.337	842.501
296.818	17.158	1114.608	841.434
297.833	17.137	1113.701	840.574
298.847	17.155	1113.069	840.110
299.862	17.172	1112.124	839.405
300.876	17.276	1111.368	839.274
301.891	17.277	1110.793	838.771
302.906	17.330	1110.204	838.515
303.920	17.417	1109.397	838.258
304.935	17.460	1109.073	838.150
305.949	17.456	1108.368	837.525
306.964	17.449	1107.608	836.840
307.979	17.384	1107.187	836.130
308.993	17.437	1106.158	835.540
310.008	17.507	1105.621	835.405
311.022	17.413	1104.932	834.348
312.037	17.460	1104.006	833.807
313.052	17.449	1103.089	832.985
314.066	17.367	1102.020	831.701
315.081	17.433	1100.761	831.000
316.095	17.373	1100.409	830.369
317.110	17.418	1099.397	829.752
318.125	17.327	1099.142	829.044
319.139	17.262	1098.544	828.200
320.154	17.313	1097.809	827.821
321.168	17.290	1097.255	827.221
322.183	17.319	1096.662	826.838
323.197	17.363	1095.891	826.402
324.212	17.343	1095.475	825.916
325.227	17.418	1095.045	825.882
326.241	17.465	1093.947	825.210
327.256	17.482	1092.861	824.400
328.270	17.325	1092.461	823.263
329.285	17.402	1091.375	822.744
330.300	17.415	1090.279	821.910
331.314	17.377	1089.741	821.246
332.329	17.453	1088.684	820.745
333.343	17.572	1087.736	820.531
334.358	17.628	1086.892	820.091
335.373	17.609	1086.262	819.450
336.387	17.671	1085.591	819.170
337.402	17.588	1084.736	818.056
338.416	17.656	1084.310	817.988
339.431	17.720	1084.019	818.001
340.446	17.702	1083.536	817.478
341.460	17.797	1082.714	817.242
342.475	17.856	1081.873	816.817
343.489	17.874	1081.063	816.218
344.504	17.857	1080.069	815.315
345.519	18.021	1078.908	815.150
346.533	18.014	1078.467	814.709
347.548	18.070	1077.520	814.189
348.562	18.101	1076.691	813.639
349.577	17.994	1075.709	812.317
350.592	17.950	1075.075	811.558
351.606	17.846	1074.363	810.455
352.621	17.907	1073.556	810.065
353.635	17.807	1073.097	809.170
354.650	17.896	1072.130	808.793
355.665	17.740	1071.898	807.807
356.679	17.810	1071.502	807.769
357.694	17.826	1070.879	807.303
358.708	18.027	1069.455	807.108
359.723	17.994	1069.169	806.666
360.738	18.052	1068.551	806.400
361.752	18.068	1067.879	805.896
362.767	18.023	1067.614	805.412
363.781	18.058	1066.985	805.033
364.796	18.158	1066.419	805.005
365.810	18.246	1065.861	804.924
366.825	18.243	1065.390	804.483
367.840	18.199	1065.101	803.987
368.854	18.376	1064.073	803.974
369.869	18.415	1063.420	803.590
370.883	18.308	1062.410	802.254
371.898	18.316	1061.716	801.696
372.913	18.329	1060.975	801.127
373.927	18.298	1060.700	800.703
374.942	18.407	1060.512	801.003
375.956	18.438	1059.759	800.509
376.971	18.289	1059.420	799.484
377.986	18.375	1058.659	799.241
379.000	18.448	1058.300	799.239
380.015	18.602	1057.682	799.418
381.029	18.440	1057.321	798.321
382.044	18.569	1056.264	798.055
383.059	18.700	1055.209	797.796
384.073	18.664	1054.618	797.107
385.088	18.587	1053.914	796.148
386.102	18.609	1052.827	795.360
387.117	18.591	1051.762	794.401
388.132	18.372	1051.151	792.857
389.146	18.438	1050.183	792.363
390.161	18.364	1049.878	791.720
391.175	18.421	1048.704	791.027
392.190	18.558	1048.242	791.240
393.205	18.647	1047.437	790.973
394.219	18.709	1046.362	790.375
395.234	18.591	1045.540	789.143
396.248	18.593	1044.746	788.482
397.263	18.517	1044.056	787.543
398.278	18.429	1043.287	786.490
399.292	18.438	1042.479	785.852
400.307	18.397	1041.637	784.959
401.321	18.569	1040.849	785.083
402.336	18.552	1040.095	784.366
403.350	18.454	1039.689	783.544
404.365	18.462	1038.949	782.955
405.380	18.548	1038.489	782.932
406.394	18.634	1037.507	782.512
407.409	18.778	1036.866	782.617
408.423	18.732	1036.407	781.991
409.438	18.889	1035.936	782.283
410.453	18.854	1035.168	781.476
411.467	18.981	1034.576	781.535
412.482	18.920	1033.869	780.654
413.496	18.970	1033.156	780.273
414.511	19.017	1032.552	779.962
415.526	19.033	1031.956	779.516
416.540	19.055	1031.756	779.394
417.555	19.159	1031.405	779.530
418.569	19.087	1030.503	778.453
419.584	19.019	1030.147	777.808
420.599	19.030	1029.523	777.322
421.613	150.764	1401.038	1793.006
422.628	137.519	1455.158	1793.112
