DTS Sentinel unit serial number:	SN413079Multiplexer serial number:	ORYXHardware model number:	OX4-SRSoftware version number:	ORYX F/W v4.00 Oryx Data Collector v3.7.2.0data status	okinstallation	princeton_trtdifferential loss correction	single-endedforward channel	channel 2reverse channel	N/Adate	2019/09/11time	14:33:11forward acquisition time	60.00reverse acquisition time	0.00gamma	496.2192k internal	0.2290k external	0.2290temperature offset calibration	1.0007default loss term (dB/km)	0.3790temperature slope calibration	1.0000multiplexer offset coefficient	1.0000multiplexer slope coefficient	1.0000fibre end	0.00T internal ref (°C)	42.25T ext. ref 1 (°C)	0.89T ext. ref 2 (°C)	37.50length (m)	temperature (°C)	Stokes	anti-Stokes-747.200	800.000	-0.125	0.359
-746.185	188.306	0.160	0.245
-745.171	-200.000	0.004	0.181
-744.156	-117.436	-0.199	0.037
-743.142	-200.000	-0.023	0.119
-742.127	800.000	0.080	0.285
-741.112	-152.539	-0.331	-0.024
-740.098	800.000	0.084	0.329
-739.083	-130.082	-0.288	-0.040
-738.069	17.242	0.257	-0.209
-737.054	195.507	0.050	-0.077
-736.039	301.553	-0.179	-0.339
-735.025	800.000	0.025	0.103
-734.010	134.886	-0.048	0.064
-732.996	-159.119	-0.054	-0.003
-731.981	147.229	0.075	0.103
-730.966	-188.820	-0.284	0.004
-729.952	-200.000	-0.017	0.147
-728.937	-128.015	-0.324	0.048
-727.923	-136.578	-0.117	-0.014
-726.908	-6.985	0.098	0.068
-725.894	-142.243	-0.261	0.026
-724.879	-78.069	0.429	-0.151
-723.864	-114.319	-0.257	0.051
-722.850	-200.000	0.054	-0.245
-721.835	-141.824	-0.158	0.016
-720.821	9.276	-0.245	0.190
-719.806	-200.000	-0.007	0.039
-718.791	55.366	-0.103	-0.102
-717.777	-200.000	-0.004	0.159
-716.762	-44.268	0.086	-0.044
-715.748	154.065	0.076	0.106
-714.733	800.000	0.085	-0.363
-713.718	800.000	-0.112	-0.459
-712.704	-29.246	-0.118	0.069
-711.689	800.000	0.063	-0.184
-710.675	74.784	-0.173	0.187
-709.660	-126.101	-0.193	-0.030
-708.645	800.000	-0.107	-0.348
-707.631	-49.044	0.390	0.191
-706.616	16.001	-0.262	-0.211
-705.602	-74.492	0.289	-0.106
-704.587	-136.012	-0.214	0.026
-703.572	-49.377	-0.284	0.139
-702.558	42.505	0.230	0.214
-701.543	-26.147	0.039	0.024
-700.529	800.000	-0.065	0.256
-699.514	-200.000	-0.016	0.178
-698.499	-146.756	-0.114	-0.010
-697.485	107.802	-0.371	-0.452
-696.470	278.640	0.099	-0.180
-695.456	-88.235	0.383	-0.117
-694.441	451.814	-0.066	-0.149
-693.426	45.226	0.208	-0.196
-692.412	-151.801	-0.306	-0.023
-691.397	19.438	-0.164	-0.135
-690.383	6.012	-0.063	-0.048
-689.368	310.123	0.100	-0.191
-688.354	-155.293	0.230	-0.015
-687.339	-193.729	-0.092	0.001
-686.324	-200.000	0.037	-0.199
-685.310	-101.161	0.160	-0.040
-684.295	-48.773	0.063	-0.031
-683.281	-5.688	-0.261	-0.183
-682.266	-111.109	0.127	0.027
-681.251	-177.376	-0.185	0.005
-680.237	56.844	0.066	-0.065
-679.222	183.391	-0.141	0.213
-678.208	75.527	0.092	0.099
-677.193	-150.169	0.300	0.024
-676.178	786.228	0.077	0.215
-675.164	-155.917	0.254	0.017
-674.149	69.328	0.159	-0.167
-673.135	165.619	-0.072	0.104
-672.120	168.359	-0.116	0.169
-671.105	595.844	0.005	0.014
-670.091	-200.000	0.047	-0.370
-669.076	-200.000	-0.062	-0.296
-668.062	-200.000	0.009	0.048
-667.047	-73.969	-0.357	-0.132
-666.032	-7.333	-0.342	-0.237
-665.018	-200.000	-0.067	-0.378
-664.003	-37.684	0.371	-0.202
-662.989	-104.236	0.240	0.057
-661.974	800.000	0.043	-0.156
-660.959	-190.158	-0.044	0.000
-659.945	-144.613	0.165	0.016
-658.930	-127.315	-0.718	-0.107
-657.916	800.000	0.008	0.022
-656.901	61.650	0.160	-0.163
-655.886	-200.000	0.014	0.178
-654.872	-32.653	-0.133	-0.076
-653.857	800.000	0.068	-0.304
-652.843	-200.000	-0.046	-0.407
-651.828	-200.000	-0.315	-0.001
-650.814	-200.000	-0.026	-0.307
-649.799	-140.864	-0.195	-0.020
-648.784	-200.000	-0.084	0.380
-647.770	371.661	-0.044	-0.091
-646.755	800.000	-0.099	0.345
-645.741	-73.234	-0.361	0.135
-644.726	25.172	-0.060	0.051
-643.711	800.000	0.094	0.312
-642.697	800.000	-0.047	0.181
-641.682	800.000	0.038	-0.141
-640.668	-4.780	-0.181	0.127
-639.653	33.784	-0.352	-0.312
-638.638	-200.000	0.022	-0.177
-637.624	-200.000	0.023	0.135
-636.609	3.508	-0.134	-0.099
-635.595	-163.497	-0.266	-0.013
-634.580	399.406	0.065	-0.139
-633.565	133.712	0.101	-0.133
-632.551	20.131	-0.164	0.135
-631.536	-40.185	0.216	0.115
-630.522	62.978	0.116	-0.118
-629.507	-200.000	0.048	-0.269
-628.492	-200.000	-0.013	0.400
-627.478	-9.307	0.239	-0.163
-626.463	-97.156	-0.373	-0.099
-625.449	-129.778	-0.133	0.019
-624.434	114.689	0.163	0.203
-623.419	-200.000	0.064	-0.463
-622.405	800.000	0.045	-0.174
-621.390	103.351	0.115	-0.138
-620.376	-133.621	-0.200	0.026
-619.361	15.719	-0.202	0.162
-618.346	-29.311	-0.086	-0.050
-617.332	-5.910	-0.221	0.154
-616.317	-200.000	-0.006	-0.101
-615.303	75.764	0.176	-0.190
-614.288	-200.000	-0.023	-0.224
-613.273	800.000	0.049	0.155
-612.259	-3.899	0.288	-0.203
-611.244	296.222	0.081	0.151
-610.230	-162.924	-0.307	-0.015
-609.215	-106.213	0.281	-0.064
-608.201	46.019	0.234	-0.220
-607.186	-66.059	-0.150	-0.061
-606.171	-13.948	-0.128	-0.084
-605.157	-134.721	0.566	0.070
-604.142	-10.003	0.129	0.087
-603.128	-200.000	-0.022	0.310
-602.113	-111.717	-0.258	0.053
-601.098	-122.428	-0.267	0.044
-600.084	-80.687	0.133	-0.045
-599.069	1.648	-0.204	-0.150
-598.055	102.510	-0.280	0.334
-597.040	65.200	0.170	-0.175
-596.025	44.622	0.255	-0.239
-595.011	354.045	-0.124	-0.251
-593.996	182.905	-0.139	0.208
-592.982	189.770	-0.164	-0.251
-591.967	-2.992	-0.152	-0.108
-590.952	-29.558	0.204	-0.119
-589.938	-57.121	0.429	-0.192
-588.923	800.000	-0.045	-0.135
-587.909	-126.951	0.307	-0.046
-586.894	-200.000	0.025	-0.436
-585.879	-183.058	0.208	0.004
-584.865	103.839	-0.109	-0.130
-583.850	-57.056	0.268	-0.120
-582.836	-72.057	0.396	0.150
-581.821	160.033	0.089	-0.127
-580.806	-200.000	-0.012	0.249
-579.792	-200.000	-0.009	0.130
-578.777	-93.810	-0.085	-0.024
-577.763	17.728	-0.094	0.076
-576.748	-105.728	-0.416	-0.096
-575.733	-70.850	-0.163	-0.062
-574.719	155.218	0.041	0.057
-573.704	522.921	-0.064	-0.154
-572.690	800.000	0.042	0.140
-571.675	-200.000	0.029	0.306
-570.661	-50.752	0.081	0.039
-569.646	-200.000	0.069	0.315
-568.631	440.869	0.172	0.382
-567.617	800.000	0.028	-0.087
-566.602	-200.000	0.042	0.205
-565.588	21.089	-0.444	0.367
-564.573	15.908	0.031	-0.024
-563.558	525.835	-0.063	-0.151
-562.544	-0.542	-0.238	0.172
-561.529	144.473	-0.132	0.179
-560.515	800.000	0.086	-0.303
-559.500	111.372	-0.129	0.158
-558.485	-52.030	0.087	0.041
-557.471	-56.636	-0.122	-0.055
-556.456	738.290	0.102	0.279
-555.442	-105.657	-0.211	0.049
-554.427	-116.012	-0.194	0.037
-553.412	800.000	-0.061	-0.189
-552.398	-2.289	0.269	-0.192
-551.383	-95.863	-0.111	0.030
-550.369	-200.000	-0.007	0.247
-549.354	-68.064	0.256	-0.102
-548.339	-23.993	-0.024	-0.015
-547.325	-66.722	-0.211	0.085
-546.310	-27.734	0.075	-0.044
-545.296	438.348	0.069	-0.153
-544.281	369.716	-0.069	-0.142
-543.266	28.550	-0.183	0.158
-542.252	61.253	0.135	-0.136
-541.237	-105.214	-0.286	0.066
-540.223	8.706	0.122	0.093
-539.208	-116.542	0.178	0.033
-538.193	167.505	-0.096	-0.139
-537.179	297.135	0.142	0.264
-536.164	282.844	-0.195	-0.356
-535.150	-200.000	-0.015	-0.405
-534.135	-200.000	-0.012	-0.117
-533.121	208.898	-0.028	0.045
-532.106	-138.099	0.096	0.011
-531.091	-200.000	-0.045	0.314
-530.077	50.932	-0.330	0.318
-529.062	-49.009	-0.273	0.133
-528.048	800.000	0.050	-0.140
-527.033	800.000	-0.051	0.161
-526.018	258.188	0.125	0.219
-525.004	119.609	-0.069	0.087
-523.989	72.169	-0.155	0.163
-522.975	419.715	-0.080	0.173
-521.960	-63.818	-0.196	-0.082
-520.945	-200.000	0.009	-0.220
-519.931	-27.174	0.256	0.151
-518.916	-102.357	0.215	0.052
-517.902	-75.700	-0.195	0.070
-516.887	-72.156	-0.119	0.045
-515.872	89.524	-0.060	0.068
-514.858	119.912	-0.102	-0.128
-513.843	800.000	0.059	-0.169
-512.829	51.921	-0.263	-0.254
-511.814	800.000	-0.088	0.250
-510.799	144.987	-0.149	-0.203
-509.785	72.823	-0.028	-0.029
-508.770	117.224	-0.107	0.134
-507.756	-91.808	0.359	0.104
-506.741	-200.000	0.001	0.185
-505.726	564.201	0.026	-0.063
-504.712	465.353	0.071	-0.161
-503.697	319.100	-0.072	-0.138
-502.683	143.275	0.096	-0.129
-501.668	-31.886	-0.143	-0.081
-500.653	-57.507	0.074	0.033
-499.639	-105.205	0.242	0.056
-498.624	800.000	0.065	-0.191
-497.610	-132.360	-0.107	0.014
-496.595	-200.000	-0.023	-0.137
-495.581	-200.000	0.032	0.145
-494.566	-94.793	-0.234	-0.064
-493.551	32.068	-0.076	0.066
-492.537	800.000	0.052	0.207
-491.522	-21.235	-0.207	-0.128
-490.508	-75.636	-0.170	0.061
-489.493	-157.228	-0.332	0.020
-488.478	-135.675	0.224	-0.027
-487.464	800.000	0.059	0.178
-486.449	-200.000	0.105	-0.489
-485.435	-59.351	-0.238	-0.104
-484.420	-32.116	-0.189	0.107
-483.405	800.000	-0.089	-0.382
-482.391	455.871	-0.148	-0.333
-481.376	28.750	-0.190	-0.163
-480.362	-176.779	0.255	0.007
-479.347	546.123	0.044	0.106
-478.332	-200.000	-0.042	-0.225
-477.318	-97.925	-0.162	0.042
-476.303	-200.000	0.015	0.104
-475.289	800.000	0.090	0.327
-474.274	-200.000	0.017	-0.366
-473.259	-93.451	0.044	0.012
-472.245	-58.346	-0.055	0.024
-471.230	-128.510	0.029	-0.004
-470.216	-200.000	0.072	0.387
-469.201	64.318	-0.051	0.052
-468.186	150.749	-0.223	-0.307
-467.172	-62.015	0.133	0.056
-466.157	-172.998	-0.046	-0.001
-465.143	-200.000	0.001	0.116
-464.128	-10.427	0.119	0.080
-463.113	-200.000	-0.014	0.158
-462.099	-200.000	0.044	0.275
-461.084	5.644	-0.055	0.041
-460.070	-41.368	0.153	-0.080
-459.055	-200.000	-0.010	0.194
-458.040	-200.000	0.009	0.165
-457.026	800.000	0.036	-0.158
-456.011	-200.000	0.030	0.351
-454.997	67.900	0.107	0.111
-453.982	-200.000	-0.003	0.120
-452.968	-90.440	0.351	-0.103
-451.953	-144.732	-0.386	-0.036
-450.938	-200.000	0.019	-0.105
-449.924	-25.340	-0.339	-0.203
-448.909	236.685	0.192	0.322
-447.895	-60.513	0.178	0.076
-446.880	-200.000	-0.013	0.310
-445.865	155.902	0.076	0.106
-444.851	-28.953	-0.246	0.143
-443.836	-167.984	0.156	-0.006
-442.822	104.403	0.093	0.111
-441.807	58.309	-0.025	-0.025
-440.792	-84.721	0.111	-0.035
-439.778	473.235	0.134	-0.307
-438.763	-98.891	0.380	0.098
-437.749	21.975	-0.253	-0.209
-436.734	60.726	0.132	-0.132
-435.719	-200.000	0.026	0.136
-434.705	-124.656	-0.167	0.026
-433.690	67.759	0.045	-0.047
-432.676	-200.000	0.009	-0.087
-431.661	-20.166	-0.145	-0.090
-430.646	-47.303	-0.202	-0.099
-429.632	-200.000	-0.023	-0.153
-428.617	-94.997	0.207	0.057
-427.603	-91.698	0.278	0.080
-426.588	800.000	-0.061	0.265
-425.573	306.145	-0.018	-0.033
-424.559	-31.197	0.254	-0.145
-423.544	800.000	-0.073	-0.295
-422.530	124.181	0.079	-0.101
-421.515	-200.000	-0.064	0.306
-420.500	171.818	0.087	-0.127
-419.486	47.846	0.227	0.214
-418.471	-200.000	-0.052	-0.444
-417.457	-73.512	-0.220	-0.081
-416.442	-138.758	0.105	0.012
-415.428	331.455	0.064	-0.126
-414.413	-200.000	0.000	-0.200
-413.398	760.072	-0.092	-0.253
-412.384	260.236	-0.088	0.154
-411.369	79.648	0.084	0.091
-410.355	-59.845	-0.143	-0.062
-409.340	-74.523	0.233	-0.085
-408.325	-60.029	0.176	0.076
-407.311	12.536	-0.157	-0.122
-406.296	31.432	0.097	-0.084
-405.282	800.000	0.083	0.289
-404.267	105.239	-0.202	-0.240
-403.252	241.005	-0.104	-0.176
-402.238	-200.000	0.040	-0.377
-401.223	-200.000	-0.027	-0.204
-400.209	-200.000	-0.008	0.075
-399.194	800.000	0.065	0.238
-398.179	-200.000	0.069	0.380
-397.165	-200.000	-0.001	0.135
-396.150	800.000	0.062	-0.197
-395.136	-153.355	0.138	0.010
-394.121	-95.170	-0.288	0.079
-393.106	-200.000	-0.037	0.199
-392.092	-200.000	-0.020	0.164
-391.077	11.771	0.228	-0.177
-390.063	-200.000	-0.002	-0.253
-389.048	-55.814	0.484	-0.219
-388.033	-8.358	0.249	-0.169
-387.019	493.654	0.180	0.418
-386.004	-200.000	0.091	0.573
-384.990	250.688	0.284	-0.488
-383.975	-146.549	0.214	0.019
-382.960	-111.930	-0.296	-0.060
-381.946	279.225	-0.103	-0.185
-380.931	-49.693	0.380	-0.182
-379.917	142.095	-0.155	-0.208
-378.902	348.212	0.194	-0.386
-377.888	30.128	0.150	-0.129
-376.873	-38.979	-0.123	-0.065
-375.858	-125.026	-0.326	0.051
-374.844	256.016	0.209	0.362
-373.829	-200.000	0.034	0.156
-372.815	449.633	-0.110	0.245
-371.800	-126.963	-0.077	-0.011
-370.785	206.681	0.034	0.053
-369.771	-47.975	0.191	0.093
-368.756	800.000	0.100	-0.375
-367.742	-189.546	-0.343	-0.004
-366.727	-200.000	-0.032	0.280
-365.712	-96.799	0.075	-0.020
-364.698	800.000	-0.086	-0.317
-363.683	-80.390	0.161	-0.054
-362.669	98.164	-0.005	0.006
-361.654	-104.014	-0.394	0.093
-360.639	441.913	0.177	-0.390
-359.625	-73.824	0.419	0.154
-358.610	59.082	-0.172	-0.171
-357.596	800.000	0.052	0.182
-356.581	17.794	-0.058	0.047
-355.566	467.798	-0.051	-0.116
-354.552	41.634	-0.200	-0.183
-353.537	-25.158	-0.033	-0.020
-352.523	61.391	-0.237	-0.238
-351.508	182.319	-0.044	-0.065
-350.493	-161.523	0.488	-0.025
-349.479	119.380	-0.112	-0.140
-348.464	-200.000	0.002	0.111
-347.450	-200.000	-0.028	-0.503
-346.435	524.514	0.114	0.270
-345.420	-74.965	0.178	0.064
-344.406	165.125	0.241	-0.343
-343.391	-118.033	-0.163	0.029
-342.377	200.005	-0.030	-0.047
-341.362	-67.617	-0.187	-0.074
-340.348	-200.000	-0.014	0.271
-339.333	328.810	-0.147	0.284
-338.318	-75.422	-0.226	0.081
-337.304	60.005	0.041	-0.041
-336.289	-65.881	-0.212	-0.085
-335.275	6.851	0.073	0.055
-334.260	-116.666	-0.062	-0.012
-333.245	81.053	0.230	-0.250
-332.231	10.417	0.252	0.194
-331.216	-98.366	0.338	0.087
-330.202	-84.527	-0.103	0.033
-329.187	-65.395	0.140	-0.057
-328.172	-154.449	-0.611	-0.041
-327.158	-43.644	-0.189	0.096
-326.143	-24.361	0.156	-0.094
-325.129	-37.757	0.273	-0.146
-324.114	652.475	0.070	-0.181
-323.099	58.486	-0.119	0.118
-322.085	-114.004	0.059	0.012
-321.070	-200.000	-0.012	0.285
-320.056	427.359	0.173	-0.376
-319.041	84.112	-0.227	0.249
-318.026	800.000	0.099	0.399
-317.012	-192.251	-0.464	0.004
-315.997	199.523	0.263	-0.407
-314.983	800.000	0.073	-0.248
-313.968	-200.000	0.015	-0.216
-312.953	-9.325	0.069	0.046
-311.939	458.855	0.146	-0.326
-310.924	800.000	0.023	0.096
-309.910	-87.537	-0.180	-0.055
-308.895	154.083	0.172	-0.238
-307.880	26.534	-0.133	0.112
-306.866	-84.355	0.295	0.094
-305.851	-4.620	0.120	-0.084
-304.837	-133.505	-0.218	-0.028
-303.822	-200.000	-0.044	0.289
-302.807	176.568	-0.215	-0.315
-301.793	36.695	-0.010	0.009
-300.778	43.842	0.270	0.249
-299.764	800.000	0.036	-0.104
-298.749	-74.293	-0.169	-0.061
-297.735	800.000	0.006	0.021
-296.720	45.145	-0.174	0.162
-295.705	23.595	-0.079	-0.065
-294.691	-56.279	-0.124	0.056
-293.676	-157.061	-0.122	-0.008
-292.662	139.455	-0.183	-0.242
-291.647	-86.340	-0.300	-0.093
-290.632	-155.717	-0.462	-0.030
-289.618	-56.445	0.331	0.148
-288.603	-185.237	-0.209	0.003
-287.589	-124.619	-0.135	0.021
-286.574	-200.000	-0.032	0.323
-285.559	800.000	0.047	0.176
-284.545	71.152	-0.281	0.293
-283.530	-200.000	-0.023	-0.129
-282.516	-20.861	-0.353	0.218
-281.501	-35.073	0.319	0.175
-280.486	447.448	0.141	0.312
-279.472	353.089	0.196	-0.391
-278.457	-4.598	0.176	0.122
-277.443	-105.188	0.260	0.060
-276.428	-172.239	-0.170	0.005
-275.413	-38.429	0.344	-0.183
-274.399	46.859	0.098	-0.091
-273.384	800.000	-0.080	-0.234
-272.370	-125.339	0.262	0.040
-271.355	342.304	0.059	0.116
-270.340	-200.000	-0.004	0.020
-269.326	155.782	-0.031	-0.042
-268.311	357.577	0.141	-0.283
-267.297	149.011	-0.145	-0.197
-266.282	-44.971	-0.130	-0.065
-265.267	3.769	0.289	0.212
-264.253	346.342	-0.104	-0.205
-263.238	-62.339	0.216	-0.090
-262.224	-200.000	-0.021	-0.148
-261.209	-200.000	-0.008	0.108
-260.195	35.262	0.225	0.198
-259.180	-106.506	0.099	0.022
-258.165	800.000	0.038	0.142
-257.151	-126.039	-0.283	0.043
-256.136	-66.891	0.152	0.060
-255.122	-148.334	-0.256	-0.021
-254.107	-200.000	-0.017	-0.088
-253.092	-88.497	0.091	0.027
-252.078	333.190	0.137	-0.266
-251.063	-14.811	0.163	-0.105
-250.049	-200.000	0.035	0.284
-249.034	28.872	-0.261	-0.222
-248.019	250.978	0.164	0.279
-247.005	507.847	0.112	0.260
-245.990	-14.311	0.232	0.150
-244.976	-73.417	0.082	-0.030
-243.961	-200.000	-0.019	0.272
-242.946	239.237	-0.151	0.252
-241.932	-200.000	0.028	0.195
-240.917	-200.000	0.046	-0.255
-239.903	27.858	-0.194	0.164
-238.888	20.505	0.048	-0.039
-237.873	282.080	0.211	-0.380
-236.859	-166.034	-0.051	-0.002
-235.844	164.085	0.149	0.211
-234.830	-200.000	-0.068	0.435
-233.815	-97.300	0.129	-0.034
-232.800	283.176	-0.072	0.130
-231.786	69.675	-0.180	-0.186
-230.771	-132.127	-0.138	-0.018
-229.757	41.435	-0.134	0.122
-228.742	-26.239	-0.054	0.032
-227.727	3.034	0.247	-0.180
-226.713	51.189	0.202	0.193
-225.698	-144.144	0.265	0.025
-224.684	-200.000	-0.040	0.258
-223.669	-100.650	-0.110	-0.027
-222.655	19.779	0.212	0.171
-221.640	91.286	0.194	-0.218
-220.625	-91.085	-0.042	0.012
-219.611	71.515	-0.071	-0.074
-218.596	85.925	-0.368	0.406
-217.582	495.506	-0.040	0.093
-216.567	136.306	-0.129	-0.169
-215.552	683.443	-0.049	0.129
-214.538	-200.000	0.114	-0.001
-213.523	-39.750	0.166	0.087
-212.509	-200.000	0.036	0.220
-211.494	-41.160	0.125	-0.065
-210.479	265.097	-0.014	-0.024
-209.465	81.486	-0.187	-0.203
-208.450	147.371	-0.166	-0.225
-207.436	132.535	-0.044	0.057
-206.421	-132.265	0.126	0.016
-205.406	42.216	0.035	-0.032
-204.392	-129.586	-0.257	0.036
-203.377	6.548	0.201	0.150
-202.363	106.922	-0.271	0.323
-201.348	64.861	-0.073	-0.074
-200.333	40.296	0.175	-0.158
-199.319	682.774	0.097	-0.253
-198.304	-41.649	0.230	-0.119
-197.290	-115.286	-0.345	-0.065
-196.275	-75.997	0.297	0.105
-195.260	44.261	0.425	-0.391
-194.246	-77.155	0.185	0.065
-193.231	134.692	0.251	-0.327
-192.217	-77.303	-0.061	-0.021
-191.202	26.898	0.255	0.215
-190.187	370.117	0.192	0.390
-189.173	-200.000	0.002	0.201
-188.158	-132.897	-0.104	0.013
-187.144	-99.418	0.206	0.052
-186.129	-200.000	-0.004	0.275
-185.114	-200.000	-0.047	-0.295
-184.100	135.302	0.122	0.159
-183.085	16.250	-0.112	0.089
-182.071	61.903	0.183	0.183
-181.056	-200.000	0.009	-0.043
-180.042	212.057	-0.097	-0.153
-179.027	-74.112	-0.461	-0.167
-178.012	-47.248	0.074	-0.036
-176.998	-50.521	0.011	0.005
-175.983	287.393	-0.152	-0.275
-174.969	274.724	-0.079	-0.141
-173.954	-149.442	0.170	0.014
-172.939	800.000	0.103	-0.299
-171.925	-135.048	-0.034	-0.004
-170.910	32.956	0.024	-0.020
-169.896	-200.000	-0.015	0.157
-168.881	-79.341	-0.087	-0.029
-167.866	558.352	0.131	0.317
-166.852	-200.000	-0.009	0.052
-165.837	-159.455	-0.203	0.011
-164.823	238.082	-0.206	0.342
-163.808	-40.094	0.212	0.111
-162.793	-200.000	0.024	0.142
-161.779	-200.000	0.011	0.171
-160.764	-39.961	-0.199	-0.104
-159.750	-200.000	-0.001	-0.173
-158.735	-147.666	-0.252	0.021
-157.720	209.252	-0.089	-0.139
-156.706	-200.000	0.003	0.371
-155.691	-159.966	-0.151	-0.008
-154.677	40.137	0.170	-0.153
-153.662	227.864	0.032	0.053
-152.647	63.381	0.071	0.071
-151.633	-31.814	-0.035	0.020
-150.618	-144.739	-0.366	0.034
-149.604	-68.839	-0.287	0.111
-148.589	-121.894	0.306	-0.051
-147.574	-93.676	-0.276	0.076
-146.560	73.687	0.222	0.233
-145.545	-35.816	-0.202	-0.110
-144.531	800.000	0.036	-0.124
-143.516	221.124	0.166	-0.267
-142.502	-200.000	-0.024	0.236
-141.487	252.331	0.140	-0.239
-140.472	-200.000	0.027	0.173
-139.458	229.565	0.178	-0.291
-138.443	665.151	-0.070	-0.181
-137.429	-175.579	-0.036	-0.001
-136.414	168.108	0.291	0.414
-135.399	-115.346	0.245	-0.046
-134.385	-17.679	0.165	-0.104
-133.370	-200.000	0.007	-0.149
-132.356	-52.593	-0.202	-0.094
-131.341	-116.713	0.133	0.025
-130.326	-42.114	0.235	0.120
-129.312	-42.746	-0.293	0.149
-128.297	3.381	0.222	0.161
-127.283	290.507	-0.142	-0.257
-126.268	800.000	0.037	0.113
-125.253	-48.433	-0.097	0.047
-124.239	-81.153	0.208	-0.069
-123.224	10.729	-0.170	-0.130
-122.210	-37.696	0.203	-0.108
-121.195	-158.515	-0.197	-0.011
-120.180	595.195	0.066	0.164
-119.166	-61.208	0.380	0.160
-118.151	-39.716	0.185	0.097
-117.137	21.105	-0.348	-0.282
-116.122	299.109	-0.087	-0.160
-115.107	237.641	-0.108	-0.180
-114.093	800.000	0.037	0.144
-113.078	-133.360	-0.050	-0.006
-112.064	800.000	-0.113	-0.478
-111.049	-200.000	-0.007	0.122
-110.034	800.000	-0.045	0.182
-109.020	-6.231	-0.014	0.009
-108.005	-33.459	0.062	-0.034
-106.991	-7.960	-0.319	0.215
-105.976	-200.000	0.010	0.214
-104.962	-200.000	0.065	-0.356
-103.947	-11.779	0.104	-0.068
-102.932	51.152	0.126	-0.120
-101.918	-98.924	-0.194	-0.049
-100.903	110.630	0.120	-0.145
-99.889	105.961	-0.210	-0.248
-98.874	-59.041	0.156	-0.067
-97.859	88.588	0.040	0.045
-96.845	233.284	0.022	-0.037
-95.830	-45.460	-0.131	-0.065
-94.816	-114.579	-0.205	0.039
-93.801	-54.546	0.266	-0.120
-92.786	248.123	0.056	0.095
-91.772	-74.647	-0.236	0.085
-90.757	311.014	-0.130	-0.243
-89.743	-118.535	0.463	0.082
-88.728	-74.344	0.112	-0.040
-87.713	-200.000	-0.003	0.134
-86.699	267.794	-0.128	-0.223
-85.684	85.298	-0.135	0.148
-84.670	-98.221	0.227	0.058
-83.655	-200.000	0.048	-0.460
-82.640	379.069	0.092	-0.189
-81.626	-103.128	0.353	-0.083
-80.611	-182.275	0.122	0.002
-79.597	-116.627	0.142	0.026
-78.582	-63.242	0.088	0.036
-77.567	-72.371	0.245	0.091
-76.553	-200.000	-0.033	-0.181
-75.538	-200.000	-0.035	-0.233
-74.524	24.518	0.174	0.144
-73.509	69.423	-0.191	0.196
-72.494	85.903	0.186	-0.204
-71.480	800.000	-0.096	-0.276
-70.465	-47.829	0.464	0.224
-69.451	-109.087	0.309	-0.066
-68.436	-146.431	0.142	0.012
-67.422	1.647	0.231	0.166
-66.407	41.971	0.245	0.222
-65.392	-200.000	0.041	-0.290
-64.378	105.726	0.119	-0.141
-63.363	134.398	0.097	0.126
-62.349	-30.790	0.167	0.094
-61.334	162.898	-0.527	-0.738
-60.319	76.253	0.404	0.427
-59.305	800.000	-0.131	-0.429
-58.290	-200.000	0.052	0.309
-57.276	729.073	0.622	1.657
-56.261	-200.000	74.922	530.649
-55.246	559.246	1300.541	3130.737
-54.232	145.747	2541.244	3396.178
-53.217	112.999	2348.902	2838.977
-52.203	51.828	1963.350	1863.063
-51.188	45.968	1749.503	1614.175
-50.173	42.746	1703.234	1546.698
-49.159	56.761	1736.922	1686.064
-48.144	62.745	1755.751	1750.559
-47.130	45.574	1718.942	1582.681
-46.115	42.295	1705.561	1545.092
-45.100	42.134	1700.572	1539.267
-44.086	42.077	1698.111	1536.548
-43.071	42.033	1695.416	1533.710
-42.057	42.109	1693.202	1532.230
-41.042	42.006	1691.022	1529.405
-40.027	42.081	1689.066	1528.149
-39.013	42.111	1686.784	1526.253
-37.998	42.085	1684.983	1524.363
-36.984	42.195	1683.616	1523.902
-35.969	42.314	1682.175	1523.441
-34.954	42.420	1679.760	1521.996
-33.940	42.338	1677.778	1519.521
-32.925	42.225	1676.509	1517.454
-31.911	42.321	1674.962	1516.720
-30.896	42.306	1673.303	1515.045
-29.881	42.293	1671.333	1513.106
-28.867	42.282	1669.763	1511.537
-27.852	42.203	1667.968	1509.258
-26.838	42.228	1666.659	1508.203
-25.823	42.310	1665.138	1507.381
-24.809	42.298	1663.874	1506.090
-23.794	42.243	1662.315	1504.209
-22.779	42.301	1660.655	1503.083
-21.765	42.230	1659.069	1501.054
-20.750	42.258	1657.513	1499.793
-19.736	42.311	1655.793	1498.575
-18.721	42.302	1654.063	1496.886
-17.706	42.321	1652.679	1495.712
-16.692	42.146	1651.240	1493.049
-15.677	42.222	1649.887	1492.328
-14.663	42.317	1648.369	1491.601
-13.648	42.296	1647.011	1490.157
-12.633	42.193	1645.760	1488.206
-11.619	42.287	1643.889	1487.152
-10.604	42.221	1642.557	1485.398
-9.590	42.199	1641.502	1484.222
-8.575	42.287	1639.528	1483.026
-7.560	42.261	1638.222	1481.595
-6.546	42.218	1637.490	1480.556
-5.531	42.224	1636.338	1479.503
-4.517	42.261	1634.945	1478.458
-3.502	42.127	1633.996	1476.551
-2.487	42.433	1632.181	1477.106
-1.473	42.305	1621.520	1466.463
-0.458	40.189	1601.686	1433.162
0.556	35.405	1601.231	1399.098
1.571	32.695	1625.219	1399.842
2.586	31.978	1639.929	1407.007
3.600	28.180	1585.726	1332.780
4.615	15.443	1463.647	1143.842
5.629	3.336	1387.164	1005.353
6.644	1.006	1376.825	982.666
7.659	0.897	1375.000	980.574
8.673	0.820	1373.732	979.083
9.688	0.857	1371.417	977.589
10.702	0.546	1369.980	974.465
11.717	4.649	1378.159	1006.800
12.731	16.149	1400.264	1098.126
13.746	23.942	1412.937	1158.959
14.761	24.410	1413.308	1162.211
15.775	24.603	1412.204	1162.455
16.790	24.538	1412.029	1161.783
17.804	24.652	1411.076	1161.640
18.819	24.801	1410.706	1162.201
19.834	24.921	1409.809	1162.136
20.848	24.849	1409.379	1161.212
21.863	24.877	1408.550	1160.605
22.877	24.937	1407.183	1159.766
23.892	24.924	1406.684	1159.169
24.907	24.825	1405.668	1157.588
25.921	24.897	1404.896	1157.316
26.936	24.785	1404.269	1155.971
27.950	24.847	1403.004	1155.233
28.965	24.856	1401.520	1153.967
29.980	24.841	1400.634	1153.036
30.994	24.936	1398.624	1151.889
32.009	24.867	1397.668	1150.554
33.023	24.857	1397.125	1149.947
34.038	25.020	1395.207	1149.312
35.053	25.001	1394.037	1148.125
36.067	24.972	1393.282	1147.210
37.082	24.895	1392.783	1146.208
38.096	25.022	1391.346	1145.737
39.111	24.890	1391.163	1144.638
40.126	24.835	1390.095	1143.310
41.140	24.763	1389.977	1142.651
42.155	24.867	1389.276	1142.639
43.169	24.866	1389.617	1142.813
44.184	24.844	1389.301	1142.310
45.199	24.846	1388.818	1141.822
46.213	24.881	1388.156	1141.400
47.228	24.860	1387.190	1140.374
48.242	24.873	1385.987	1139.363
49.257	24.838	1384.627	1137.924
50.271	24.813	1383.033	1136.355
51.286	24.770	1381.769	1134.942
52.301	24.818	1380.122	1133.791
53.315	24.800	1379.908	1133.402
54.330	24.799	1378.984	1132.536
55.344	24.824	1377.781	1131.605
56.359	24.911	1376.458	1130.970
57.374	24.874	1375.539	1129.881
58.388	24.799	1375.048	1128.906
59.403	24.816	1374.663	1128.597
60.417	24.853	1373.896	1128.102
61.432	24.773	1373.194	1126.918
62.447	24.864	1372.309	1126.667
63.461	24.829	1371.532	1125.709
64.476	24.876	1369.998	1124.646
65.490	24.832	1369.179	1123.599
66.505	24.888	1367.299	1122.307
67.520	24.910	1366.291	1121.517
68.534	24.840	1365.623	1120.430
69.549	24.892	1364.339	1119.601
70.563	24.910	1363.226	1118.705
71.578	24.957	1362.086	1117.963
72.593	24.931	1360.913	1116.740
73.607	24.915	1360.508	1116.206
74.622	24.817	1359.952	1115.043
75.636	24.935	1359.222	1115.080
76.651	24.839	1358.770	1114.014
77.666	24.825	1358.254	1113.406
78.680	24.882	1357.598	1113.125
79.695	24.894	1356.909	1112.535
80.709	24.809	1356.138	1111.276
81.724	24.811	1355.394	1110.581
82.739	24.918	1354.320	1110.267
83.753	24.855	1353.574	1109.164
84.768	24.940	1351.912	1108.228
85.782	24.981	1350.564	1107.278
86.797	24.908	1349.532	1105.888
87.812	24.966	1348.408	1105.225
88.826	24.856	1347.525	1103.724
89.841	24.977	1346.413	1103.461
90.855	24.915	1345.537	1102.268
91.870	25.011	1344.787	1102.146
92.884	24.912	1343.889	1100.700
93.899	24.962	1343.118	1100.283
94.914	24.867	1342.686	1099.246
95.928	24.910	1341.732	1098.628
96.943	25.033	1340.564	1098.331
97.957	25.025	1339.934	1097.667
98.972	25.000	1339.249	1096.858
99.987	24.896	1338.206	1095.271
101.001	24.882	1337.460	1094.474
102.016	24.969	1336.304	1093.963
103.030	24.886	1335.836	1092.977
104.045	24.979	1334.640	1092.468
105.060	24.932	1333.844	1091.439
106.074	24.947	1333.026	1090.764
107.089	24.987	1331.490	1089.650
108.103	25.031	1330.237	1088.796
109.118	24.896	1329.970	1087.662
110.133	25.016	1328.230	1086.871
111.147	25.115	1326.759	1086.172
112.162	25.088	1325.998	1085.290
113.176	25.057	1324.962	1084.158
114.191	24.975	1324.002	1082.779
115.206	24.960	1323.216	1081.953
116.220	24.888	1322.332	1080.698
117.235	25.000	1321.038	1080.222
118.249	24.896	1320.203	1078.813
119.264	24.996	1319.570	1078.806
120.279	25.027	1318.613	1078.113
121.293	25.043	1318.039	1077.642
122.308	25.003	1317.154	1076.585
123.322	25.018	1315.942	1075.588
124.337	25.080	1315.338	1075.375
125.352	24.974	1314.742	1074.156
126.366	25.167	1312.901	1073.713
127.381	25.063	1312.251	1072.460
128.395	25.185	1311.263	1072.290
129.410	25.057	1310.932	1071.157
130.424	25.107	1310.095	1070.677
131.439	25.139	1308.975	1069.859
132.454	25.095	1308.483	1069.101
133.468	25.235	1307.521	1069.056
134.483	25.263	1306.790	1068.529
135.497	25.050	1306.503	1066.932
136.512	25.055	1305.396	1065.960
137.527	25.109	1304.269	1065.268
138.541	25.038	1302.927	1063.658
139.556	24.937	1301.969	1062.182
140.570	25.049	1300.908	1061.886
141.585	25.150	1299.390	1061.150
142.600	25.139	1298.437	1060.215
143.614	24.972	1298.156	1058.903
144.629	25.022	1296.551	1057.797
145.643	25.015	1295.761	1057.014
146.658	25.012	1294.378	1055.775
147.673	25.080	1293.631	1055.474
148.687	24.978	1292.852	1054.143
149.702	24.953	1291.816	1053.059
150.716	24.948	1290.393	1051.779
151.731	24.988	1289.438	1051.139
152.746	25.024	1287.886	1049.992
153.760	24.988	1286.985	1048.953
154.775	24.943	1286.103	1047.882
155.789	24.992	1285.226	1047.357
156.804	24.903	1284.757	1046.364
157.819	25.038	1283.701	1046.198
158.833	25.037	1282.716	1045.298
159.848	25.116	1282.104	1045.167
160.862	24.993	1281.448	1043.822
161.877	25.117	1280.017	1043.285
162.892	25.107	1279.655	1042.845
163.906	25.093	1279.126	1042.241
164.921	24.994	1278.942	1041.422
165.935	25.115	1277.234	1040.638
166.950	25.140	1276.694	1040.251
167.964	25.125	1276.376	1039.817
168.979	25.029	1275.999	1038.856
169.994	25.120	1275.100	1038.564
171.008	25.167	1274.112	1037.935
172.023	25.172	1273.440	1037.329
173.037	25.104	1272.932	1036.426
174.052	25.245	1271.882	1036.294
175.067	25.154	1271.129	1035.068
176.081	25.171	1270.827	1034.826
177.096	25.257	1269.723	1034.330
178.110	25.106	1268.932	1032.728
179.125	25.245	1267.368	1032.164
180.140	25.172	1266.865	1031.241
181.154	25.142	1265.581	1029.931
182.169	25.204	1264.505	1029.320
183.183	25.159	1263.680	1028.299
184.198	25.103	1262.612	1027.022
185.213	25.170	1261.455	1026.368
186.227	25.125	1260.797	1025.486
187.242	25.248	1259.869	1025.347
188.256	25.233	1259.342	1024.738
189.271	25.273	1258.409	1024.118
190.286	25.203	1257.270	1022.701
191.300	25.167	1257.131	1022.290
192.315	25.233	1256.529	1022.085
193.329	25.303	1255.904	1021.889
194.344	25.276	1255.599	1021.397
195.359	25.245	1255.090	1020.713
196.373	25.116	1254.687	1019.565
197.388	25.214	1254.194	1019.627
198.402	25.243	1253.731	1019.330
199.417	25.210	1253.407	1018.787
200.432	25.242	1252.690	1018.295
201.446	25.273	1251.983	1017.804
202.461	25.110	1251.418	1016.331
203.475	25.251	1250.717	1016.471
204.490	25.265	1249.561	1015.521
205.504	25.257	1248.657	1014.651
206.519	25.332	1247.543	1014.079
207.534	25.233	1246.554	1012.627
208.548	25.323	1245.907	1012.523
209.563	25.250	1244.816	1011.134
210.577	25.354	1243.791	1010.797
211.592	25.267	1243.588	1010.052
212.607	25.345	1242.454	1009.482
213.621	25.277	1241.853	1008.518
214.636	25.420	1240.492	1008.130
215.650	25.369	1240.230	1007.538
216.665	25.283	1239.372	1006.272
217.680	25.272	1238.264	1005.221
218.694	25.347	1237.646	1005.051
219.709	25.426	1236.712	1004.645
220.723	25.384	1236.050	1003.785
221.738	25.400	1235.107	1003.020
222.753	25.270	1234.393	1001.623
223.767	25.453	1233.828	1002.100
224.782	25.291	1233.855	1001.129
225.796	25.381	1232.948	1000.805
226.811	25.482	1232.069	1000.565
227.826	25.481	1231.724	1000.191
228.840	25.394	1231.214	999.203
229.855	25.459	1230.248	998.691
230.869	25.448	1229.713	998.108
231.884	25.467	1228.810	997.395
232.899	25.576	1227.992	997.246
233.913	25.388	1227.990	996.113
234.928	25.546	1227.320	996.358
235.942	25.525	1226.692	995.642
236.957	25.486	1225.679	994.516
237.972	25.434	1225.445	993.949
238.986	25.505	1224.128	993.189
240.001	25.592	1223.410	992.996
241.015	25.557	1223.066	992.437
242.030	25.563	1222.181	991.664
243.045	25.635	1221.295	991.252
244.059	25.713	1220.442	990.905
245.074	25.708	1219.746	990.223
246.088	25.639	1218.725	988.931
247.103	25.630	1218.328	988.468
248.117	25.686	1217.470	987.991
249.132	25.606	1216.846	986.961
250.147	25.668	1216.149	986.645
251.161	25.753	1215.227	986.275
252.176	25.713	1214.476	985.365
253.190	25.731	1213.754	984.789
254.205	25.651	1213.369	983.950
255.220	25.798	1212.782	984.193
256.234	25.693	1212.391	983.214
257.249	25.685	1211.337	982.227
258.263	25.765	1210.886	982.214
259.278	25.687	1210.763	981.597
260.293	25.697	1209.813	980.796
261.307	25.620	1209.720	980.215
262.322	25.736	1208.378	979.674
263.336	25.752	1207.957	979.333
264.351	25.762	1207.455	978.891
265.366	25.722	1206.759	978.023
266.380	25.789	1205.759	977.493
267.395	25.783	1205.190	976.909
268.409	25.696	1204.840	976.068
269.424	25.714	1204.303	975.642
270.439	25.754	1204.321	975.790
271.453	25.813	1203.193	975.107
272.468	25.696	1202.147	973.541
273.482	25.787	1201.354	973.305
274.497	25.738	1201.208	972.835
275.512	25.826	1200.656	972.777
276.526	25.853	1199.883	972.212
277.541	25.893	1198.968	971.601
278.555	25.826	1198.314	970.620
279.570	25.929	1197.478	970.416
280.585	25.933	1196.715	969.732
281.599	25.895	1196.133	968.971
282.614	25.807	1195.387	967.806
283.628	25.989	1194.336	967.848
284.643	25.824	1193.717	966.376
285.657	25.868	1192.760	965.751
286.672	26.031	1191.640	965.629
287.687	26.025	1190.939	964.944
288.701	25.897	1190.531	963.846
289.716	25.914	1189.865	963.313
290.730	26.086	1188.766	963.253
291.745	26.035	1188.252	962.479
292.760	26.055	1188.036	962.330
293.774	26.104	1187.215	961.839
294.789	25.960	1186.288	960.234
295.803	26.150	1185.634	960.633
296.818	26.004	1185.313	959.512
297.833	26.034	1184.500	958.925
298.847	26.015	1184.081	958.404
299.862	26.107	1183.146	958.048
300.876	26.062	1182.671	957.340
301.891	26.194	1181.520	957.020
302.906	26.141	1181.468	956.615
303.920	26.241	1180.416	956.207
304.935	26.221	1179.843	955.555
305.949	26.248	1179.070	954.984
306.964	26.176	1178.670	954.194
307.979	26.187	1178.095	953.707
308.993	26.224	1177.258	953.142
310.008	26.248	1176.549	952.605
311.022	26.220	1175.994	951.924
312.037	26.132	1175.051	950.616
313.052	26.148	1174.159	949.892
314.066	26.246	1173.146	949.506
315.081	26.232	1172.345	948.701
316.095	26.320	1171.928	948.737
317.110	26.142	1171.655	947.501
318.125	26.378	1170.549	947.759
319.139	26.261	1170.090	946.692
320.154	26.181	1169.793	945.949
321.168	26.236	1169.262	945.723
322.183	26.295	1168.448	945.288
323.197	26.220	1167.888	944.360
324.212	26.325	1167.097	944.183
325.227	26.361	1166.701	943.969
326.241	26.395	1166.275	943.720
327.256	26.279	1165.338	942.274
328.270	26.453	1163.960	941.983
329.285	26.398	1163.466	941.214
330.300	26.374	1162.698	940.380
331.314	26.345	1161.880	939.489
332.329	26.417	1161.194	939.225
333.343	26.425	1160.655	938.745
334.358	26.395	1159.904	937.899
335.373	26.471	1159.010	937.488
336.387	26.437	1158.365	936.707
337.402	26.505	1157.823	936.535
338.416	26.455	1157.183	935.679
339.431	26.489	1156.698	935.379
340.446	26.521	1155.906	934.820
341.460	26.567	1155.204	934.409
342.475	26.600	1154.361	933.812
343.489	26.526	1153.662	932.784
344.504	26.554	1152.874	932.211
345.519	26.564	1151.920	931.408
346.533	26.617	1150.745	930.644
347.548	26.708	1150.200	930.591
348.562	26.655	1149.580	929.732
349.577	26.492	1148.966	928.320
350.592	26.553	1148.038	927.803
351.606	26.609	1147.149	927.287
352.621	26.584	1146.897	926.871
353.635	26.660	1146.216	926.629
354.650	26.689	1145.516	926.130
355.665	26.627	1145.232	925.501
356.679	26.645	1144.309	924.766
357.694	26.639	1143.600	924.079
358.708	26.723	1142.870	923.834
359.723	26.619	1142.585	922.993
360.738	26.647	1141.742	922.372
361.752	26.697	1141.136	922.056
362.767	26.737	1140.781	921.894
363.781	26.634	1140.275	920.879
364.796	26.786	1139.886	921.257
365.810	26.687	1139.202	920.116
366.825	26.863	1138.276	920.183
367.840	26.792	1137.960	919.486
368.854	26.900	1137.407	919.504
369.869	26.823	1136.583	918.367
370.883	26.780	1136.256	917.805
371.898	26.799	1135.423	917.145
372.913	26.832	1134.591	916.560
373.927	26.941	1133.839	916.422
374.942	26.996	1133.291	916.174
375.956	26.884	1133.178	915.436
376.971	26.971	1132.011	914.850
377.986	26.915	1131.595	914.150
379.000	26.985	1131.030	913.966
380.015	26.860	1130.935	913.183
381.029	26.938	1130.260	912.946
382.044	26.938	1129.126	911.949
383.059	26.979	1128.629	911.675
384.073	26.938	1128.044	910.917
385.088	26.988	1127.148	910.362
386.102	27.086	1126.291	910.080
387.117	27.012	1125.279	908.809
388.132	26.968	1124.684	908.028
389.146	27.093	1123.938	907.970
390.161	27.106	1123.014	907.212
391.175	27.035	1123.030	906.790
392.190	27.121	1122.232	906.492
393.205	27.029	1121.524	905.382
394.219	27.002	1120.797	904.580
395.234	27.080	1119.619	903.939
396.248	27.167	1118.986	903.777
397.263	27.132	1118.223	902.907
398.278	27.169	1117.576	902.492
399.292	27.259	1116.900	902.313
400.307	27.293	1115.929	901.614
401.321	27.194	1115.903	901.022
402.336	27.171	1114.880	900.005
403.350	27.197	1114.311	899.595
404.365	27.258	1113.702	899.326
405.380	27.224	1113.206	898.677
406.394	27.254	1112.416	898.106
407.409	27.292	1111.745	897.676
408.423	27.385	1110.511	897.054
409.438	27.336	1110.306	896.568
410.453	27.341	1109.466	895.838
411.467	27.420	1108.957	895.736
412.482	27.354	1108.153	894.683
413.496	27.442	1107.143	894.219
414.511	27.353	1106.725	893.368
415.526	27.443	1106.069	893.197
416.540	27.415	1106.039	892.957
417.555	27.382	1105.683	892.429
418.569	27.535	1104.880	892.451
419.584	27.367	1104.591	891.315
420.599	27.485	1103.664	891.070
421.613	83.026	1290.929	1348.092
422.628	77.799	1318.231	1348.213
