DTS Sentinel unit serial number:	SN413079Multiplexer serial number:	ORYXHardware model number:	OX4-SRSoftware version number:	ORYX F/W v4.00 Oryx Data Collector v3.7.2.0data status	okinstallation	princeton_trtdifferential loss correction	single-endedforward channel	channel 2reverse channel	N/Adate	2019/09/16time	01:35:35forward acquisition time	60.00reverse acquisition time	0.00gamma	496.2192k internal	0.2336k external	0.2336temperature offset calibration	0.9966default loss term (dB/km)	0.3790temperature slope calibration	1.0000multiplexer offset coefficient	1.0000multiplexer slope coefficient	1.0000fibre end	0.00T internal ref (°C)	27.31T ext. ref 1 (°C)	9.95T ext. ref 2 (°C)	22.17length (m)	temperature (°C)	Stokes	anti-Stokes-747.200	234.693	0.229	0.380
-746.185	-74.379	-0.083	0.030
-745.171	-35.406	-0.045	0.024
-744.156	227.010	-0.129	0.211
-743.142	342.014	0.095	-0.187
-742.127	465.301	-0.113	0.255
-741.112	451.795	-0.094	0.210
-740.098	270.545	0.093	0.164
-739.083	-113.986	0.127	0.025
-738.069	492.447	-0.215	0.494
-737.054	800.000	-0.057	0.190
-736.039	68.789	-0.105	0.108
-735.025	-121.047	0.230	0.039
-734.010	677.797	-0.084	-0.219
-732.996	110.393	-0.123	-0.148
-731.981	50.809	0.104	-0.099
-730.966	20.658	-0.024	-0.019
-729.952	-37.297	-0.085	-0.046
-728.937	257.257	-0.192	-0.331
-727.923	-20.970	-0.152	-0.093
-726.908	191.276	-0.167	0.253
-725.894	-200.000	0.038	-0.405
-724.879	-69.855	-0.078	-0.030
-723.864	-110.404	-0.188	0.039
-722.850	-111.785	-0.057	-0.012
-721.835	432.977	0.055	-0.119
-720.821	800.000	0.060	0.244
-719.806	737.306	0.078	-0.209
-718.791	3.648	0.256	-0.187
-717.777	18.225	-0.356	0.285
-716.762	93.365	-0.235	0.267
-715.748	-2.873	-0.168	0.118
-714.733	-200.000	-0.004	-0.358
-713.718	-200.000	-0.034	0.266
-712.704	639.406	0.028	0.072
-711.689	-108.973	-0.059	-0.013
-710.675	-122.603	-0.183	0.030
-709.660	-200.000	0.034	-0.356
-708.645	29.245	-0.259	-0.220
-707.631	303.869	-0.091	0.169
-706.616	-200.000	0.001	0.078
-705.602	-106.512	-0.455	0.102
-704.587	-7.486	0.232	0.158
-703.572	260.767	-0.157	-0.273
-702.558	800.000	0.035	0.120
-701.543	-34.439	-0.240	-0.132
-700.529	128.854	0.126	0.161
-699.514	-52.362	0.290	0.135
-698.499	-40.385	-0.246	0.128
-697.485	124.688	0.098	-0.123
-696.470	321.664	-0.074	0.142
-695.456	-200.000	0.009	0.091
-694.441	-42.891	0.245	0.125
-693.426	-200.000	0.108	0.523
-692.412	800.000	0.092	0.376
-691.397	80.601	0.062	-0.067
-690.383	-137.940	0.159	0.018
-689.368	-200.000	-0.040	0.244
-688.354	-3.288	0.159	-0.111
-687.339	85.393	0.164	-0.180
-686.324	248.243	-0.182	-0.308
-685.310	42.039	0.195	-0.178
-684.295	183.952	-0.094	-0.139
-683.281	143.764	-0.026	-0.034
-682.266	-114.079	0.218	0.042
-681.251	-110.998	0.227	-0.047
-680.237	6.807	-0.180	-0.134
-679.222	732.685	0.075	-0.200
-678.208	75.748	0.327	-0.346
-677.193	0.968	-0.357	0.256
-676.178	-141.737	-0.341	0.034
-675.164	37.529	0.199	-0.177
-674.149	-91.063	-0.067	0.019
-673.135	-126.961	-0.046	-0.007
-672.120	247.744	-0.108	0.182
-671.105	223.169	-0.076	-0.122
-670.091	-200.000	0.007	0.302
-669.076	453.379	-0.188	-0.418
-668.062	-151.554	-0.276	-0.020
-667.047	-120.298	-0.148	-0.025
-666.032	31.514	0.248	-0.213
-665.018	-200.000	-0.052	-0.316
-664.003	-200.000	0.001	-0.075
-662.989	-65.078	0.202	-0.082
-661.974	-46.110	-0.428	-0.211
-660.959	-56.098	0.237	-0.106
-659.945	-200.000	-0.007	0.111
-658.930	-200.000	-0.072	-0.493
-657.916	-189.564	-0.483	-0.006
-656.901	800.000	0.019	0.065
-655.886	148.790	-0.039	-0.053
-654.872	101.164	0.267	-0.311
-653.857	800.000	-0.032	-0.105
-652.843	-144.142	0.278	0.026
-651.828	-140.648	-0.101	0.010
-650.814	-200.000	0.043	-0.297
-649.799	-71.345	-0.191	-0.071
-648.784	37.660	0.212	0.189
-647.770	506.516	-0.050	0.116
-646.755	681.006	0.142	0.371
-645.741	-200.000	-0.032	0.240
-644.726	-4.137	-0.068	-0.047
-643.711	22.377	0.101	-0.083
-642.697	325.363	-0.167	0.320
-641.682	-10.111	0.293	-0.195
-640.668	-200.000	-0.005	0.091
-639.653	800.000	-0.082	-0.235
-638.638	64.174	0.079	-0.080
-637.624	283.260	-0.173	0.310
-636.609	-138.893	0.116	-0.013
-635.595	-148.062	-0.031	0.003
-634.580	-25.577	0.395	-0.233
-633.565	42.490	0.105	-0.096
-632.551	-39.930	-0.185	0.096
-631.536	-200.000	-0.072	-0.415
-630.522	-200.000	-0.036	-0.242
-629.507	-91.138	-0.176	-0.050
-628.492	800.000	-0.051	0.201
-627.478	800.000	0.121	0.364
-626.463	-35.382	0.143	-0.078
-625.449	800.000	-0.111	0.314
-624.434	-113.762	-0.172	0.033
-623.419	51.896	0.065	-0.062
-622.405	-9.026	-0.084	-0.056
-621.390	-101.675	0.049	0.012
-620.376	-94.583	-0.239	0.065
-619.361	800.000	0.055	-0.168
-618.346	800.000	0.037	0.120
-617.332	-148.354	-0.273	0.022
-616.317	-151.730	-0.126	0.009
-615.303	800.000	-0.091	-0.266
-614.288	37.570	0.093	0.083
-613.273	237.962	0.219	-0.364
-612.259	-200.000	-0.030	0.207
-611.244	221.473	-0.155	-0.249
-610.230	24.697	-0.113	-0.093
-609.215	-200.000	-0.002	-0.225
-608.201	-123.357	0.074	-0.012
-607.186	-1.507	0.284	-0.200
-606.171	326.650	0.141	-0.270
-605.157	185.593	-0.101	0.149
-604.142	-87.783	-0.586	-0.176
-603.128	618.667	0.092	-0.232
-602.113	-114.566	-0.161	-0.031
-601.098	-155.731	0.260	0.017
-600.084	535.102	0.121	-0.287
-599.069	225.196	-0.120	-0.194
-598.055	800.000	0.030	-0.106
-597.040	239.090	0.043	0.071
-596.025	437.292	0.139	-0.302
-595.011	-39.056	-0.240	-0.126
-593.996	185.723	0.231	-0.343
-592.982	-116.874	-0.171	0.031
-591.967	20.421	0.109	-0.088
-590.952	-57.286	-0.172	0.076
-589.938	-200.000	-0.020	0.229
-588.923	-40.289	-0.056	-0.029
-587.909	-145.048	-0.016	0.001
-586.894	-169.283	0.343	0.013
-585.879	463.800	-0.122	0.273
-584.865	-13.948	0.038	-0.024
-583.850	-159.166	-0.307	-0.017
-582.836	-200.000	0.027	-0.125
-581.821	-39.721	0.044	-0.023
-580.806	284.477	-0.088	0.158
-579.792	-83.450	0.317	0.101
-578.777	-85.458	0.257	0.080
-577.763	-37.426	-0.228	0.122
-576.748	-13.587	0.117	-0.076
-575.733	-44.929	0.352	0.175
-574.719	-118.936	-0.194	-0.034
-573.704	800.000	0.054	-0.177
-572.690	-103.746	-0.203	0.047
-571.675	158.638	0.183	0.253
-570.661	-104.411	-0.048	0.011
-569.646	-200.000	0.038	-0.352
-568.631	255.985	-0.113	-0.193
-567.617	-66.583	-0.164	0.065
-566.602	-170.069	-0.271	-0.010
-565.588	93.122	0.119	-0.135
-564.573	202.257	-0.082	-0.127
-563.558	-128.031	-0.516	0.074
-562.544	-200.000	0.042	-0.471
-561.529	-200.000	0.021	0.215
-560.515	-89.378	0.358	0.105
-559.500	-169.671	0.108	-0.004
-558.485	128.932	-0.092	0.117
-557.471	800.000	0.039	-0.158
-556.456	5.294	-0.130	-0.096
-555.442	-50.394	0.149	0.070
-554.427	123.216	0.161	0.201
-553.412	-133.299	-0.051	-0.006
-552.398	-200.000	0.046	-0.483
-551.383	8.555	0.182	0.137
-550.369	-200.000	-0.020	-0.141
-549.354	-118.913	-0.404	-0.071
-548.339	-57.922	0.120	-0.052
-547.325	-98.652	-0.093	-0.024
-546.310	148.669	-0.172	-0.232
-545.296	-200.000	0.019	-0.122
-544.281	-189.484	0.451	0.005
-543.266	-125.033	-0.180	-0.028
-542.252	-77.506	-0.210	0.073
-541.237	-81.055	0.312	0.103
-540.223	-200.000	-0.036	-0.493
-539.208	-200.000	0.000	0.012
-538.193	-13.236	0.150	0.097
-537.179	252.643	-0.060	0.102
-536.164	14.791	-0.222	0.173
-535.150	-200.000	0.029	0.180
-534.135	-75.131	-0.393	0.140
-533.121	289.562	0.073	-0.132
-532.106	-200.000	0.011	0.092
-531.091	-132.615	-0.249	-0.032
-530.077	425.601	0.111	-0.239
-529.062	-76.140	-0.161	-0.057
-528.048	62.603	-0.221	-0.220
-527.033	-200.000	0.005	-0.202
-526.018	171.563	0.144	-0.206
-525.004	-100.802	-0.426	-0.104
-523.989	94.681	-0.127	0.144
-522.975	118.167	-0.227	-0.278
-521.960	-3.587	0.220	-0.152
-520.945	-82.851	-0.343	0.110
-519.931	133.503	-0.193	0.249
-518.916	285.462	0.136	-0.243
-517.902	186.589	0.179	-0.265
-516.887	379.411	-0.059	-0.120
-515.872	-93.958	-0.218	0.060
-514.858	-63.214	0.148	-0.061
-513.843	800.000	0.077	-0.233
-512.829	-65.298	0.364	-0.146
-511.814	149.148	0.067	0.090
-510.799	-200.000	-0.020	0.234
-509.785	228.590	-0.350	-0.567
-508.770	278.867	-0.107	-0.190
-507.756	129.325	-0.102	-0.129
-506.741	218.231	0.067	0.106
-505.726	31.004	-0.162	-0.138
-504.712	-200.000	0.014	0.139
-503.697	-28.324	0.117	0.067
-502.683	800.000	-0.094	-0.266
-501.668	49.943	0.313	-0.293
-500.653	229.590	-0.125	-0.202
-499.639	-200.000	0.005	0.123
-498.624	22.743	-0.110	0.090
-497.610	800.000	-0.042	0.154
-496.595	800.000	0.059	-0.221
-495.581	142.456	0.130	0.172
-494.566	-88.509	-0.185	0.055
-493.551	179.461	0.151	0.220
-492.537	-200.000	-0.000	0.047
-491.522	-84.971	0.210	0.065
-490.508	-92.725	-0.213	-0.059
-489.493	-200.000	0.024	-0.179
-488.478	-200.000	-0.019	-0.269
-487.464	266.350	-0.161	-0.279
-486.449	103.966	0.309	-0.362
-485.435	-49.759	-0.351	0.166
-484.420	83.022	-0.079	0.086
-483.405	175.737	-0.071	0.102
-482.391	319.291	-0.192	0.362
-481.376	-138.553	-0.322	-0.035
-480.362	-200.000	-0.000	-0.055
-479.347	567.247	0.147	-0.353
-478.332	800.000	-0.108	-0.347
-477.318	-126.739	0.238	-0.035
-476.303	705.691	-0.080	0.210
-475.289	-28.465	0.205	0.117
-474.274	-141.814	0.336	0.033
-473.259	336.356	0.147	0.284
-472.245	-154.269	-0.193	-0.013
-471.230	46.656	0.163	-0.150
-470.216	-45.550	0.195	-0.096
-469.201	349.886	-0.148	-0.290
-468.186	8.032	-0.154	-0.115
-467.172	800.000	-0.044	-0.146
-466.157	-200.000	0.055	-0.249
-465.143	51.990	-0.076	0.072
-464.128	248.950	0.073	0.123
-463.113	81.276	0.100	0.107
-462.099	-120.372	0.040	0.007
-461.084	250.264	-0.074	0.124
-460.070	18.201	-0.039	0.031
-459.055	-20.983	-0.150	-0.091
-458.040	94.902	-0.081	-0.092
-457.026	497.604	0.062	-0.141
-456.011	553.012	-0.054	0.129
-454.997	-0.610	0.131	0.092
-453.982	199.887	0.326	0.497
-452.968	-200.000	0.027	-0.238
-451.953	-139.419	-0.232	0.025
-450.938	113.237	0.082	-0.099
-449.924	-122.798	-0.297	-0.048
-448.909	-161.091	-0.306	0.016
-447.895	-200.000	0.060	-0.272
-446.880	473.949	0.064	0.144
-445.865	316.073	-0.021	-0.039
-444.851	263.125	0.146	0.252
-443.836	438.231	0.090	0.195
-442.822	-8.242	-0.085	-0.056
-441.807	402.681	-0.037	0.077
-440.792	-20.352	-0.178	-0.109
-439.778	-7.565	0.389	-0.261
-438.763	800.000	-0.014	0.042
-437.749	800.000	-0.040	-0.170
-436.734	-47.718	0.186	-0.090
-435.719	104.453	0.134	-0.157
-434.705	-4.336	-0.114	-0.079
-433.690	195.436	-0.115	-0.174
-432.676	-66.280	0.108	0.042
-431.661	-200.000	0.009	-0.133
-430.646	-134.101	0.188	0.023
-429.632	-14.573	-0.181	-0.116
-428.617	-200.000	0.065	-0.409
-427.603	-115.460	0.076	0.014
-426.588	776.984	0.064	0.172
-425.573	-23.376	-0.322	0.192
-424.559	96.226	-0.296	-0.335
-423.544	112.624	0.100	0.121
-422.530	-200.000	-0.006	-0.048
-421.515	-200.000	0.001	-0.029
-420.500	145.647	0.100	-0.132
-419.486	126.490	-0.135	0.169
-418.471	-200.000	0.002	0.346
-417.457	156.816	0.098	-0.134
-416.442	-31.718	-0.148	-0.083
-415.428	-62.714	0.243	0.100
-414.413	638.188	0.016	0.041
-413.398	767.581	-0.063	-0.171
-412.384	800.000	-0.041	-0.148
-411.369	-200.000	-0.036	-0.191
-410.355	-50.926	-0.167	-0.078
-409.340	-200.000	-0.004	-0.158
-408.325	-84.183	0.238	-0.075
-407.311	217.239	0.072	0.114
-406.296	207.442	0.140	-0.217
-405.282	128.352	0.143	-0.181
-404.267	194.269	0.188	-0.283
-403.252	-161.463	-0.344	-0.018
-402.238	-83.186	-0.052	-0.017
-401.223	-152.064	-0.209	0.015
-400.209	-115.032	0.090	0.017
-399.194	-31.777	0.277	0.154
-398.179	308.536	-0.073	-0.135
-397.165	212.091	-0.206	0.321
-396.150	17.083	0.164	0.129
-395.136	-200.000	0.028	0.164
-394.121	608.581	-0.062	0.153
-393.106	387.854	-0.234	0.480
-392.092	-2.388	-0.024	-0.017
-391.077	482.256	0.155	0.350
-390.063	238.249	0.061	0.100
-389.048	113.611	0.076	-0.092
-388.033	-126.701	0.458	0.067
-387.019	369.436	-0.153	0.307
-386.004	-163.757	0.055	0.003
-384.990	42.105	0.291	-0.262
-383.975	-53.395	-0.057	0.026
-382.960	48.530	-0.390	0.362
-381.946	-94.536	0.297	-0.080
-380.931	-68.368	0.219	0.084
-379.917	37.059	-0.112	-0.098
-378.902	18.104	0.221	-0.174
-377.888	-58.295	-0.103	-0.044
-376.873	-66.173	-0.085	0.033
-375.858	1.961	0.111	0.079
-374.844	228.727	-0.057	0.092
-373.829	298.544	-0.039	0.070
-372.815	211.671	0.201	0.313
-371.800	8.507	0.167	-0.125
-370.785	-59.688	0.183	-0.078
-369.771	-200.000	0.001	-0.296
-368.756	-130.708	-0.255	0.034
-367.742	-81.842	-0.324	0.105
-366.727	375.434	0.102	0.205
-365.712	-99.755	-0.203	-0.050
-364.698	-48.935	0.029	-0.014
-363.683	-80.839	0.172	0.056
-362.669	100.722	-0.032	-0.037
-361.654	157.364	-0.161	-0.220
-360.639	-189.548	0.121	-0.001
-359.625	-119.288	-0.161	-0.028
-358.610	800.000	-0.053	-0.149
-357.596	800.000	0.073	0.254
-356.581	-119.184	0.198	0.034
-355.566	73.862	-0.141	0.147
-354.552	-36.959	-0.167	-0.088
-353.537	-141.212	0.312	-0.031
-352.523	-96.065	-0.036	0.009
-351.508	-182.919	0.303	0.005
-350.493	-200.000	-0.014	-0.163
-349.479	-200.000	0.005	-0.230
-348.464	-82.954	0.119	-0.038
-347.450	-197.894	-0.219	-0.001
-346.435	-21.545	0.247	-0.149
-345.420	-85.438	-0.151	0.046
-344.406	170.066	0.089	0.126
-343.391	58.702	0.173	0.168
-342.377	-99.799	-0.023	-0.006
-341.362	-54.823	-0.433	0.193
-340.348	142.681	-0.025	-0.033
-339.333	-15.819	0.152	-0.096
-338.318	41.187	0.185	0.165
-337.304	236.997	-0.166	-0.272
-336.289	-34.105	-0.008	-0.004
-335.275	-200.000	0.140	-0.001
-334.260	800.000	-0.038	0.135
-333.245	-147.388	-0.129	-0.011
-332.231	147.250	-0.115	-0.153
-331.216	-53.791	0.213	0.096
-330.202	750.469	-0.036	0.095
-329.187	-123.162	-0.431	0.068
-328.172	53.840	0.211	-0.201
-327.158	31.036	-0.217	0.184
-326.143	-108.689	-0.338	-0.072
-325.129	-90.309	0.078	-0.023
-324.114	18.846	0.060	-0.048
-323.099	-200.000	-0.002	0.454
-322.085	9.755	0.090	-0.068
-321.070	800.000	-0.027	0.101
-320.056	-200.000	-0.054	0.304
-319.041	-47.576	0.245	-0.117
-318.026	309.803	-0.108	-0.200
-317.012	-90.860	0.274	-0.078
-315.997	-87.310	0.221	-0.066
-314.983	75.434	0.339	0.353
-313.968	593.471	0.048	0.117
-312.953	31.552	0.402	0.341
-311.939	-175.444	-0.453	-0.012
-310.924	-2.757	0.058	0.040
-309.910	-151.487	0.135	0.010
-308.895	-200.000	0.006	0.268
-307.880	-22.427	-0.222	-0.133
-306.866	-0.435	0.182	0.128
-305.851	-103.278	-0.263	0.061
-304.837	-200.000	0.004	0.421
-303.822	151.449	0.080	0.107
-302.807	-137.218	0.110	0.012
-301.793	-50.618	-0.101	0.047
-300.778	-200.000	-0.038	0.176
-299.764	-92.709	0.385	-0.107
-298.749	55.294	-0.214	0.204
-297.735	12.128	-0.085	0.065
-296.720	-57.505	0.347	-0.150
-295.705	-177.341	-0.077	0.002
-294.691	-200.000	0.044	0.391
-293.676	-81.303	-0.526	0.171
-292.662	216.476	-0.067	0.106
-291.647	10.508	-0.170	0.128
-290.632	22.362	-0.143	-0.115
-289.618	-28.484	-0.246	-0.140
-288.603	-171.215	-0.313	0.010
-287.589	-144.070	0.230	-0.021
-286.574	-12.743	-0.042	0.027
-285.559	360.662	0.135	-0.266
-284.545	384.154	-0.130	0.264
-283.530	-121.004	0.091	-0.015
-282.516	56.327	0.211	-0.202
-281.501	0.315	0.125	0.088
-280.486	-143.221	0.022	-0.002
-279.472	800.000	-0.075	-0.217
-278.457	29.324	0.013	0.011
-277.443	-200.000	-0.006	0.037
-276.428	308.626	0.072	0.132
-275.413	156.168	0.114	0.155
-274.399	-102.741	-0.132	0.031
-273.384	-200.000	-0.034	0.278
-272.370	-200.000	0.018	0.176
-271.355	-53.117	-0.178	-0.081
-270.340	361.559	-0.135	0.267
-269.326	-80.819	0.146	0.048
-268.311	-200.000	-0.006	0.368
-267.297	-200.000	0.046	-0.208
-266.282	-200.000	0.017	0.218
-265.267	-200.000	0.010	-0.204
-264.253	-172.659	-0.063	0.002
-263.238	651.156	0.070	0.176
-262.224	714.302	-0.153	-0.399
-261.209	-171.403	0.373	0.012
-260.195	-28.359	-0.111	-0.063
-259.180	-119.240	0.212	0.036
-258.165	-126.857	-0.194	0.028
-257.151	800.000	0.080	0.251
-256.136	-30.485	-0.135	0.075
-255.122	-96.581	0.214	-0.056
-254.107	-137.261	-0.219	-0.025
-253.092	-169.196	-0.194	0.007
-252.078	-200.000	-0.020	-0.117
-251.063	43.310	-0.186	-0.167
-250.049	-115.378	-0.094	0.017
-249.034	-104.992	0.153	0.034
-248.019	124.759	0.063	0.078
-247.005	-169.024	0.112	0.004
-245.990	16.416	-0.036	0.028
-244.976	800.000	0.126	0.526
-243.961	573.029	-0.115	0.277
-242.946	800.000	0.069	-0.231
-241.932	-200.000	-0.068	0.316
-240.917	-131.151	0.334	-0.044
-239.903	70.173	0.132	-0.134
-238.888	61.586	0.263	0.258
-237.873	-4.447	0.266	-0.181
-236.859	68.357	-0.147	0.148
-235.844	-200.000	0.009	0.077
-234.830	-200.000	-0.010	-0.096
-233.815	-200.000	-0.040	0.243
-232.800	-118.053	-0.125	0.022
-231.786	-9.705	0.231	0.151
-230.771	-32.870	-0.222	0.122
-229.757	-34.763	-0.150	-0.081
-228.742	320.181	0.108	0.203
-227.727	-69.268	0.089	-0.033
-226.713	-200.000	-0.005	0.043
-225.698	19.583	-0.363	0.287
-224.684	-151.293	0.073	-0.005
-223.669	377.543	-0.202	-0.407
-222.655	-31.134	-0.165	-0.091
-221.640	-57.168	-0.349	-0.151
-220.625	800.000	-0.120	-0.491
-219.611	-118.251	-0.195	-0.034
-218.596	-31.956	-0.080	-0.044
-217.582	-30.541	0.141	0.079
-216.567	-28.096	0.237	0.135
-215.552	-157.175	0.030	0.002
-214.538	800.000	0.024	0.089
-213.523	800.000	-0.083	-0.275
-212.509	-200.000	-0.029	-0.131
-211.494	-142.312	0.161	-0.016
-210.479	-54.732	0.313	-0.139
-209.465	23.411	0.081	0.066
-208.450	-54.119	-0.408	-0.183
-207.436	-130.624	0.106	-0.014
-206.421	279.579	0.101	0.178
-205.406	378.867	0.073	0.147
-204.392	-96.652	0.221	-0.057
-203.377	-200.000	-0.042	0.408
-202.363	580.043	0.028	-0.068
-201.348	-200.000	-0.003	0.425
-200.333	-118.376	0.142	0.025
-199.319	170.411	0.131	0.184
-198.304	-200.000	-0.014	0.062
-197.290	72.041	0.251	-0.257
-196.275	62.781	0.108	0.106
-195.260	420.500	-0.031	0.066
-194.246	-200.000	-0.008	0.196
-193.231	-109.628	-0.323	0.067
-192.217	-95.413	0.243	-0.064
-191.202	800.000	0.053	0.176
-190.187	-60.466	-0.055	-0.023
-189.173	-80.875	0.267	-0.087
-188.158	-200.000	0.005	0.159
-187.144	-121.713	-0.039	0.006
-186.129	800.000	-0.146	0.489
-185.114	141.542	0.083	0.108
-184.100	211.430	-0.096	-0.149
-183.085	800.000	-0.006	-0.024
-182.071	63.691	0.215	-0.212
-181.056	407.693	-0.047	0.098
-180.042	531.613	-0.063	-0.147
-179.027	-43.658	-0.253	-0.125
-178.012	791.436	0.021	-0.058
-176.998	75.017	-0.052	0.054
-175.983	507.830	-0.163	0.371
-174.969	34.255	0.211	-0.181
-173.954	-152.902	0.116	-0.008
-172.939	-166.835	-0.115	0.005
-171.925	800.000	0.031	-0.094
-170.910	-200.000	-0.086	0.380
-169.896	60.183	0.434	0.421
-168.881	800.000	0.035	0.103
-167.866	-200.000	0.010	-0.133
-166.852	-85.320	0.366	0.112
-165.837	-77.332	0.182	-0.062
-164.823	-61.161	-0.253	0.105
-163.808	29.625	-0.259	0.216
-162.793	143.975	0.181	0.236
-161.779	695.884	0.062	-0.159
-160.764	-170.851	-0.153	-0.005
-159.750	-38.784	-0.075	-0.039
-158.735	-105.527	0.302	-0.067
-157.720	-40.361	-0.406	-0.207
-156.706	-47.540	0.094	-0.045
-155.691	1.290	-0.043	-0.030
-154.677	-200.000	-0.042	0.182
-153.662	112.243	-0.109	0.129
-152.647	-146.445	0.179	0.015
-151.633	12.210	0.330	-0.249
-150.618	-9.192	-0.165	-0.108
-149.604	-200.000	-0.012	0.067
-148.589	-62.025	0.314	-0.129
-147.574	504.969	-0.050	0.114
-146.560	800.000	0.048	-0.199
-145.545	800.000	0.103	0.420
-144.531	168.683	0.226	0.316
-143.516	-80.138	0.093	-0.030
-142.502	-35.531	0.399	0.212
-141.487	-108.130	0.102	-0.022
-140.472	-200.000	-0.009	0.041
-139.458	164.748	-0.126	-0.174
-138.443	-20.976	0.371	-0.223
-137.429	-48.024	0.173	0.082
-136.414	26.100	0.189	0.155
-135.399	183.160	-0.077	0.111
-134.385	157.473	-0.183	0.248
-133.370	-160.654	-0.336	-0.018
-132.356	67.872	0.250	0.251
-131.341	-200.000	-0.027	-0.141
-130.326	51.471	0.137	-0.127
-129.312	68.367	0.056	0.056
-128.297	308.945	0.056	-0.102
-127.283	-13.073	-0.311	0.198
-126.268	72.388	0.264	0.269
-125.253	-200.000	0.007	-0.149
-124.239	-74.943	0.254	-0.089
-123.224	-200.000	0.045	-0.526
-122.210	-72.468	-0.126	0.046
-121.195	26.547	-0.169	-0.139
-120.180	-34.450	-0.217	0.117
-119.166	-38.593	0.121	-0.063
-118.151	-69.071	-0.202	-0.076
-117.137	-200.000	0.015	-0.304
-116.122	800.000	-0.059	-0.202
-115.107	-200.000	-0.016	0.135
-114.093	-61.704	0.098	0.040
-113.078	-100.662	-0.047	-0.011
-112.064	-117.667	-0.075	-0.013
-111.049	122.905	-0.143	-0.175
-110.034	-185.212	-0.154	-0.002
-109.020	69.543	-0.397	-0.400
-108.005	800.000	-0.024	-0.074
-106.991	-200.000	-0.006	-0.167
-105.976	-200.000	-0.066	-0.405
-104.962	-83.752	0.184	-0.057
-103.947	120.315	-0.053	-0.064
-102.932	68.878	0.123	0.124
-101.918	-35.878	-0.167	0.089
-100.903	-200.000	-0.002	0.219
-99.889	-200.000	-0.010	-0.272
-98.874	-55.167	-0.164	0.072
-97.859	710.826	0.012	-0.030
-96.845	-128.785	0.178	0.025
-95.830	773.848	0.113	0.303
-94.816	353.963	0.054	0.105
-93.801	800.000	0.042	0.155
-92.786	-96.516	0.285	-0.074
-91.772	-81.963	0.322	-0.103
-90.757	-29.129	-0.262	-0.147
-89.743	-200.000	0.034	-0.352
-88.728	4.708	0.277	-0.199
-87.713	-200.000	-0.011	-0.204
-86.699	249.581	-0.244	0.405
-85.684	-80.265	0.138	-0.045
-84.670	74.766	0.237	0.244
-83.655	134.765	-0.042	0.054
-82.640	178.635	0.072	0.103
-81.626	-8.930	0.175	-0.115
-80.611	800.000	0.100	-0.320
-79.597	-144.296	-0.205	-0.019
-78.582	-200.000	-0.022	-0.150
-77.567	12.955	0.129	0.098
-76.553	-200.000	-0.009	-0.071
-75.538	3.192	-0.253	-0.180
-74.524	-200.000	-0.012	0.165
-73.509	-200.000	0.003	0.224
-72.494	-27.607	0.303	-0.172
-71.480	-81.105	0.267	0.086
-70.465	1.802	-0.173	0.122
-69.451	533.208	0.082	-0.189
-68.436	96.116	-0.136	-0.153
-67.422	671.196	-0.119	-0.301
-66.407	800.000	-0.085	-0.326
-65.392	-200.000	0.000	0.322
-64.378	-40.838	0.254	-0.128
-63.363	41.189	0.416	0.368
-62.349	-200.000	0.003	0.261
-61.334	112.400	-1.049	-1.240
-60.319	149.620	0.274	0.362
-59.305	712.453	-0.390	-1.009
-58.290	94.729	0.932	1.036
-57.276	593.912	0.683	1.651
-56.261	-200.000	114.390	644.915
-55.246	475.105	1503.079	3316.531
-54.232	147.845	2674.530	3524.094
-53.217	96.418	2281.141	2550.955
-52.203	36.131	1895.217	1631.269
-51.188	30.439	1688.488	1410.206
-50.173	27.848	1647.600	1356.777
-49.159	49.293	1702.015	1563.942
-48.144	48.080	1717.080	1568.584
-47.130	30.100	1675.155	1396.296
-46.115	27.402	1660.751	1364.053
-45.100	27.189	1656.292	1358.741
-44.086	27.187	1653.336	1356.249
-43.071	27.136	1650.533	1353.512
-42.057	27.175	1648.529	1352.106
-41.042	27.198	1646.540	1350.592
-40.027	27.089	1644.976	1348.448
-39.013	27.188	1642.732	1347.288
-37.998	27.077	1641.039	1345.027
-36.984	27.277	1639.463	1345.159
-35.969	27.358	1638.011	1344.515
-34.954	27.335	1636.735	1343.247
-33.940	27.333	1634.876	1341.653
-32.925	27.255	1633.355	1339.771
-31.911	27.330	1631.080	1338.408
-30.896	27.280	1629.814	1336.945
-29.881	27.316	1627.552	1335.301
-28.867	27.329	1626.541	1334.517
-27.852	27.290	1624.852	1332.791
-26.838	27.342	1623.378	1331.913
-25.823	27.280	1622.301	1330.519
-24.809	27.292	1621.244	1329.686
-23.794	27.317	1619.584	1328.457
-22.779	27.279	1618.559	1327.287
-21.765	27.325	1616.723	1326.059
-20.750	27.215	1615.493	1324.202
-19.736	27.291	1614.128	1323.583
-18.721	27.377	1611.863	1322.293
-17.706	27.315	1610.613	1320.767
-16.692	27.269	1608.996	1319.055
-15.677	27.314	1607.770	1318.321
-14.663	27.368	1606.559	1317.672
-13.648	27.431	1604.933	1316.738
-12.633	27.405	1603.258	1315.128
-11.619	27.383	1602.130	1313.987
-10.604	27.372	1600.765	1312.735
-9.590	27.452	1599.249	1312.017
-8.575	27.431	1597.873	1310.690
-7.560	27.305	1597.073	1309.071
-6.546	27.351	1595.972	1308.449
-5.531	27.375	1594.571	1307.421
-4.517	27.242	1593.944	1305.899
-3.502	27.290	1592.542	1305.044
-2.487	27.471	1590.570	1304.676
-1.473	27.141	1578.825	1292.639
-0.458	24.448	1560.395	1258.537
0.556	19.415	1562.045	1230.202
1.571	17.295	1586.175	1233.731
2.586	16.960	1598.971	1241.120
3.600	16.274	1548.489	1196.968
4.615	13.546	1449.997	1102.596
5.629	10.691	1395.268	1042.576
6.644	10.037	1388.181	1033.009
7.659	9.899	1387.444	1031.488
8.673	9.939	1385.944	1030.542
9.688	9.936	1384.132	1029.079
10.702	9.770	1381.273	1025.810
11.717	11.207	1383.130	1036.240
12.731	14.551	1388.563	1061.536
13.746	17.154	1392.636	1081.146
14.761	17.462	1391.715	1082.294
15.775	16.528	1389.225	1074.330
16.790	15.480	1386.709	1065.642
17.804	14.724	1384.123	1058.767
18.819	14.097	1383.069	1053.895
19.834	13.939	1381.292	1051.447
20.848	13.591	1380.535	1048.581
21.863	13.535	1378.793	1046.805
22.877	13.264	1377.729	1044.194
23.892	13.341	1376.431	1043.607
24.907	13.252	1376.103	1042.700
25.921	13.246	1375.302	1041.969
26.936	13.356	1373.724	1041.373
27.950	13.398	1373.125	1041.086
28.965	13.376	1372.187	1040.148
29.980	13.590	1370.629	1040.219
30.994	13.528	1369.349	1038.765
32.009	13.602	1368.273	1038.320
33.023	13.558	1367.020	1037.004
34.038	13.513	1365.749	1035.665
35.053	13.454	1364.495	1034.255
36.067	13.505	1363.988	1034.100
37.082	13.489	1362.610	1032.860
38.096	13.438	1361.934	1031.937
39.111	13.493	1360.592	1031.173
40.126	13.389	1359.835	1029.864
41.140	13.234	1359.127	1028.271
42.155	13.229	1358.744	1027.857
43.169	13.200	1358.392	1027.318
44.184	13.181	1357.736	1026.616
45.199	13.226	1357.675	1026.761
46.213	13.360	1356.334	1026.487
47.228	13.309	1356.189	1025.966
48.242	13.387	1354.489	1025.076
49.257	13.307	1353.558	1023.786
50.271	13.275	1352.150	1022.431
51.286	13.330	1350.579	1021.491
52.301	13.277	1349.372	1020.164
53.315	13.311	1348.377	1019.527
54.330	13.254	1347.248	1018.235
55.344	13.232	1346.082	1017.127
56.359	13.215	1345.225	1016.286
57.374	13.251	1343.953	1015.455
58.388	13.176	1343.553	1014.605
59.403	13.118	1342.906	1013.671
60.417	13.180	1341.737	1013.079
61.432	13.157	1340.876	1012.193
62.447	13.100	1339.893	1011.013
63.461	13.198	1338.552	1010.512
64.476	13.077	1338.256	1009.459
65.490	13.087	1336.942	1008.440
66.505	13.150	1334.780	1007.103
67.520	13.105	1334.253	1006.345
68.534	13.137	1333.017	1005.517
69.549	13.098	1332.191	1004.571
70.563	13.184	1330.989	1004.096
71.578	13.098	1330.098	1002.814
72.593	13.083	1329.167	1001.930
73.607	13.024	1328.570	1001.035
74.622	13.038	1327.654	1000.339
75.636	12.982	1327.168	999.549
76.651	13.104	1326.129	999.412
77.666	12.998	1326.153	998.704
78.680	13.013	1325.705	998.367
79.695	13.035	1324.959	997.852
80.709	13.121	1324.208	997.715
81.724	13.087	1323.201	996.661
82.739	13.265	1321.807	996.599
83.753	13.246	1321.208	995.947
84.768	13.375	1319.888	995.639
85.782	13.418	1319.128	995.233
86.797	13.415	1317.925	994.222
87.812	13.308	1316.418	992.355
88.826	13.238	1315.430	991.099
89.841	13.324	1314.162	990.571
90.855	13.284	1313.459	989.718
91.870	13.376	1312.517	989.471
92.884	13.347	1311.773	988.648
93.899	13.393	1310.797	988.100
94.914	13.546	1309.816	988.183
95.928	13.588	1308.929	987.681
96.943	13.519	1307.965	986.452
97.957	13.427	1307.139	985.194
98.972	13.492	1306.021	984.650
99.987	13.483	1305.009	983.747
101.001	13.411	1303.715	982.257
102.016	13.400	1302.969	981.542
103.030	13.449	1302.181	981.155
104.045	13.434	1301.498	980.461
105.060	13.336	1300.256	978.863
106.074	13.237	1298.575	976.925
107.089	13.321	1297.293	976.367
108.103	13.199	1295.739	974.395
109.118	13.272	1294.311	973.663
110.133	13.170	1293.630	972.464
111.147	13.235	1291.594	971.228
112.162	13.158	1290.676	970.004
113.176	13.257	1289.474	969.596
114.191	13.214	1288.836	968.774
115.206	13.290	1287.449	968.094
116.220	13.215	1286.487	966.843
117.235	13.339	1285.231	966.543
118.249	13.263	1284.402	965.387
119.264	13.275	1282.864	964.217
120.279	13.152	1282.270	962.966
121.293	13.270	1280.698	962.387
122.308	13.234	1279.815	961.429
123.322	13.172	1278.954	960.337
124.337	13.205	1277.386	959.265
125.352	13.195	1276.736	958.636
126.366	13.192	1275.341	957.490
127.381	13.249	1274.229	956.900
128.395	13.140	1273.303	955.486
129.410	13.227	1272.370	955.203
130.424	13.224	1271.671	954.576
131.439	13.187	1270.869	953.678
132.454	13.341	1269.283	953.292
133.468	13.280	1269.154	952.761
134.483	13.321	1268.198	952.193
135.497	13.328	1267.201	951.400
136.512	13.179	1265.626	949.278
137.527	13.325	1264.349	949.075
138.541	13.351	1262.464	947.726
139.556	13.273	1261.926	946.792
140.570	13.358	1260.689	946.266
141.585	13.396	1259.557	945.547
142.600	13.442	1258.229	944.730
143.614	13.480	1257.299	944.162
144.629	13.494	1256.378	943.471
145.643	13.575	1255.039	942.842
146.658	13.520	1253.653	941.406
147.673	13.374	1252.731	939.800
148.687	13.282	1251.780	938.482
149.702	13.307	1250.479	937.564
150.716	13.385	1248.637	936.540
151.731	13.390	1247.450	935.597
152.746	13.415	1246.207	934.721
153.760	13.385	1245.095	933.639
154.775	13.512	1243.935	933.401
155.789	13.456	1243.333	932.553
156.804	13.473	1241.965	931.535
157.819	13.595	1240.777	931.249
158.833	13.604	1240.019	930.651
159.848	13.597	1239.291	929.978
160.862	13.650	1238.120	929.320
161.877	13.427	1237.505	927.522
162.892	13.478	1235.813	926.459
163.906	13.457	1234.855	925.541
164.921	13.512	1234.015	925.139
165.935	13.654	1232.989	925.077
166.950	13.545	1232.826	924.264
167.964	13.693	1231.722	924.183
168.979	13.615	1231.032	923.148
169.994	13.529	1230.303	922.040
171.008	13.626	1229.448	921.859
172.023	13.719	1228.645	921.691
173.037	13.624	1228.276	920.804
174.052	13.695	1227.286	920.373
175.067	13.596	1226.370	919.059
176.081	13.626	1225.254	918.307
177.096	13.523	1224.275	916.923
178.110	13.712	1223.099	917.006
179.125	13.734	1221.835	916.097
180.140	13.605	1220.552	914.340
181.154	13.715	1219.076	913.763
182.169	13.721	1218.234	913.083
183.183	13.674	1217.505	912.196
184.198	13.817	1215.979	911.758
185.213	13.821	1214.944	910.923
186.227	13.854	1213.841	910.200
187.242	13.848	1212.920	909.393
188.256	13.877	1211.953	908.749
189.271	13.873	1210.583	907.618
190.286	13.839	1209.725	906.709
191.300	13.677	1208.674	904.954
192.315	13.612	1208.550	904.430
193.329	13.712	1207.841	904.362
194.344	13.747	1207.139	903.948
195.359	13.781	1207.083	904.014
196.373	13.807	1206.099	903.334
197.388	13.804	1205.930	903.114
198.402	14.002	1205.345	903.673
199.417	13.994	1204.701	903.064
200.432	14.094	1203.719	902.793
201.446	14.142	1202.991	902.425
202.461	14.148	1201.735	901.438
203.475	14.120	1200.998	900.651
204.490	14.028	1200.071	899.380
205.504	14.005	1198.658	898.116
206.519	13.972	1197.402	896.920
207.534	14.064	1196.224	896.455
208.548	14.148	1195.041	895.941
209.563	14.172	1194.177	895.344
210.577	14.009	1193.771	894.080
211.592	14.221	1192.532	894.216
212.607	14.323	1191.492	893.903
213.621	14.280	1190.651	892.959
214.636	14.101	1190.154	891.549
215.650	14.174	1189.013	891.008
216.665	14.232	1188.192	890.626
217.680	14.263	1187.258	890.012
218.694	14.304	1186.810	889.813
219.709	14.311	1185.819	889.031
220.723	14.367	1185.113	888.723
221.738	14.312	1184.364	887.790
222.753	14.344	1183.503	887.238
223.767	14.351	1182.913	886.754
224.782	14.453	1182.121	886.625
225.796	14.391	1181.822	885.989
226.811	14.416	1180.930	885.377
227.826	14.368	1180.413	884.653
228.840	14.395	1179.393	883.956
229.855	14.415	1178.592	883.384
230.869	14.363	1177.656	882.325
231.884	14.322	1176.758	881.358
232.899	14.346	1176.254	881.029
233.913	14.395	1175.757	880.839
234.928	14.371	1174.895	879.988
235.942	14.319	1173.824	878.836
236.957	14.394	1172.995	878.530
237.972	14.346	1172.467	877.803
238.986	14.343	1171.742	877.167
240.001	14.293	1171.469	876.624
241.015	14.436	1170.074	876.255
242.030	14.527	1169.276	876.058
243.045	14.517	1168.772	875.548
244.059	14.456	1168.138	874.678
245.074	14.444	1167.358	873.955
246.088	14.554	1166.725	873.978
247.103	14.641	1165.477	873.421
248.117	14.711	1164.830	873.223
249.132	14.701	1164.207	872.629
250.147	14.775	1163.657	872.523
251.161	14.846	1162.445	871.911
252.176	14.887	1162.078	871.771
253.190	14.865	1161.833	871.394
254.205	14.930	1160.946	870.990
255.220	14.983	1160.409	870.789
256.234	15.019	1159.579	870.275
257.249	14.958	1158.900	869.370
258.263	14.925	1158.481	868.808
259.278	15.057	1157.451	868.645
260.293	14.999	1157.281	868.140
261.307	15.022	1156.480	867.583
262.322	15.116	1155.545	867.291
263.336	15.228	1154.740	867.186
264.351	15.175	1154.319	866.521
265.366	15.090	1153.609	865.472
266.380	15.115	1152.809	864.924
267.395	15.155	1151.762	864.267
268.409	15.065	1151.319	863.398
269.424	15.098	1150.648	862.988
270.439	14.955	1150.610	862.145
271.453	15.093	1149.569	862.000
272.468	15.055	1148.342	860.809
273.482	15.056	1147.407	860.034
274.497	15.040	1147.082	859.635
275.512	15.173	1146.450	859.763
276.526	15.062	1145.813	858.644
277.541	15.168	1144.731	858.300
278.555	15.056	1144.478	857.460
279.570	15.245	1143.979	857.977
280.585	15.339	1142.724	857.442
281.599	15.255	1141.832	856.265
282.614	15.163	1140.913	855.034
283.628	15.269	1140.082	854.874
284.643	15.231	1139.194	853.940
285.657	15.290	1138.232	853.444
286.672	15.289	1137.185	852.576
287.687	15.295	1136.539	852.046
288.701	15.307	1135.568	851.304
289.716	15.331	1134.744	850.737
290.730	15.367	1134.385	850.571
291.745	15.367	1133.347	849.718
292.760	15.350	1132.939	849.254
293.774	15.508	1132.059	849.315
294.789	15.420	1131.792	848.596
295.803	15.428	1130.964	847.938
296.818	15.439	1130.268	847.399
297.833	15.467	1129.238	846.694
298.847	15.368	1128.686	845.706
299.862	15.466	1127.854	845.501
300.876	15.430	1127.429	844.927
301.891	15.494	1126.865	844.748
302.906	15.500	1125.912	843.993
303.920	15.595	1124.918	843.647
304.935	15.714	1124.042	843.512
305.949	15.740	1123.444	843.123
306.964	15.682	1123.058	842.468
307.979	15.736	1122.109	841.951
308.993	15.632	1121.760	841.092
310.008	15.762	1120.822	840.963
311.022	15.702	1120.083	840.036
312.037	15.645	1119.387	839.156
313.052	15.624	1118.228	838.109
314.066	15.704	1117.492	837.880
315.081	15.602	1116.540	836.584
316.095	15.698	1115.629	836.306
317.110	15.613	1115.145	835.449
318.125	15.659	1114.491	835.109
319.139	15.679	1113.457	834.362
320.154	15.681	1112.970	833.935
321.168	15.575	1112.750	833.169
322.183	15.526	1112.280	832.499
323.197	15.661	1111.333	832.387
324.212	15.760	1110.597	832.252
325.227	15.698	1109.952	831.386
326.241	15.800	1109.148	831.216
327.256	15.797	1108.544	830.677
328.270	15.698	1107.545	829.366
329.285	15.760	1106.383	828.728
330.300	15.665	1105.465	827.499
331.314	15.868	1104.476	827.681
332.329	15.762	1103.965	826.705
333.343	15.827	1103.096	826.299
334.358	15.866	1101.924	825.542
335.373	15.846	1101.024	824.697
336.387	15.989	1100.563	824.977
337.402	15.908	1100.153	824.200
338.416	15.958	1099.685	824.022
339.431	15.944	1098.755	823.184
340.446	15.965	1098.080	822.708
341.460	16.086	1097.091	822.482
342.475	16.176	1096.179	822.166
343.489	16.215	1095.222	821.565
344.504	16.168	1094.320	820.588
345.519	16.234	1093.575	820.277
346.533	16.274	1093.005	819.972
347.548	16.239	1092.398	819.276
348.562	16.188	1091.520	818.296
349.577	16.189	1090.491	817.456
350.592	16.161	1089.814	816.743
351.606	16.292	1088.781	816.529
352.621	16.098	1088.543	815.338
353.635	16.144	1088.049	815.121
354.650	16.271	1087.107	814.953
355.665	16.199	1086.211	813.865
356.679	16.273	1085.985	813.980
357.694	16.171	1085.503	813.056
358.708	16.268	1084.442	812.655
359.723	16.316	1083.943	812.438
360.738	16.299	1083.269	811.784
361.752	16.296	1082.886	811.410
362.767	16.257	1082.400	810.785
363.781	16.405	1081.673	810.877
364.796	16.437	1081.051	810.494
365.810	16.430	1080.399	809.899
366.825	16.484	1079.879	809.697
367.840	16.655	1079.036	809.812
368.854	16.589	1078.433	808.971
369.869	16.620	1078.111	808.806
370.883	16.475	1077.008	807.216
371.898	16.546	1076.265	806.925
372.913	16.597	1075.529	806.546
373.927	16.715	1074.928	806.586
374.942	16.635	1074.700	805.961
375.956	16.600	1074.416	805.511
376.971	16.550	1073.667	804.642
377.986	16.706	1072.914	804.745
379.000	16.779	1072.408	804.643
380.015	16.826	1071.854	804.377
381.029	16.889	1070.995	803.961
382.044	16.826	1070.073	802.899
383.059	16.736	1069.895	802.271
384.073	16.883	1068.463	801.818
385.088	16.830	1068.072	801.206
386.102	16.915	1066.875	800.639
387.117	16.712	1066.461	799.299
388.132	16.771	1065.314	798.645
389.146	16.734	1064.414	797.725
390.161	16.717	1063.605	796.971
391.175	16.807	1062.838	796.746
392.190	16.860	1062.027	796.319
393.205	16.823	1061.856	795.944
394.219	16.917	1060.784	795.512
395.234	16.881	1059.912	794.617
396.248	17.036	1058.800	794.442
397.263	16.827	1058.174	792.921
398.278	16.867	1057.431	792.485
399.292	16.792	1056.633	791.463
400.307	16.806	1055.698	790.760
401.321	16.918	1055.467	791.042
402.336	16.890	1054.658	790.234
403.350	16.885	1054.120	789.737
404.365	16.918	1053.187	789.121
405.380	16.958	1052.613	788.808
406.394	16.900	1052.148	788.119
407.409	17.093	1051.032	788.108
408.423	17.040	1050.235	787.199
409.438	17.037	1050.134	787.037
410.453	17.126	1049.152	786.643
411.467	17.171	1048.259	786.113
412.482	17.196	1047.497	785.590
413.496	17.254	1047.056	785.454
414.511	17.233	1046.557	784.913
415.526	17.272	1046.326	784.854
416.540	17.336	1045.866	784.732
417.555	17.439	1044.754	784.303
418.569	17.380	1044.409	783.702
419.584	17.416	1043.736	783.297
420.599	17.392	1043.426	782.881
421.613	104.876	1325.465	1476.455
422.628	96.329	1366.520	1476.529
