DTS Sentinel unit serial number:	SN413079Multiplexer serial number:	ORYXHardware model number:	OX4-SRSoftware version number:	ORYX F/W v4.00 Oryx Data Collector v3.7.2.0data status	okinstallation	princeton_trtdifferential loss correction	single-endedforward channel	channel 2reverse channel	N/Adate	2019/09/19time	00:31:35forward acquisition time	60.00reverse acquisition time	0.00gamma	496.2192k internal	0.2353k external	0.2353temperature offset calibration	1.0017default loss term (dB/km)	0.3790temperature slope calibration	1.0000multiplexer offset coefficient	1.0000multiplexer slope coefficient	1.0000fibre end	0.00T internal ref (°C)	22.44T ext. ref 1 (°C)	0.74T ext. ref 2 (°C)	15.37length (m)	temperature (°C)	Stokes	anti-Stokes-747.200	80.710	0.086	-0.092
-746.185	-3.146	-0.341	-0.237
-745.171	-20.231	0.310	-0.191
-744.156	21.352	0.029	0.023
-743.142	-148.323	-0.284	0.023
-742.127	-200.000	0.029	0.391
-741.112	-200.000	-0.027	-0.434
-740.098	800.000	-0.047	-0.135
-739.083	800.000	-0.037	0.156
-738.069	-47.258	-0.214	-0.104
-737.054	94.742	-0.100	-0.114
-736.039	124.954	-0.185	-0.233
-735.025	-130.301	-0.117	0.016
-734.010	711.616	-0.054	-0.141
-732.996	800.000	-0.175	-0.578
-731.981	679.500	0.026	0.069
-730.966	399.678	-0.020	-0.041
-729.952	800.000	-0.037	0.124
-728.937	308.260	0.099	-0.185
-727.923	302.952	0.157	-0.290
-726.908	152.690	-0.351	0.478
-725.894	76.579	0.248	-0.262
-724.879	218.892	-0.217	-0.346
-723.864	485.960	-0.122	-0.276
-722.850	31.878	-0.196	-0.168
-721.835	178.229	0.128	-0.186
-720.821	-200.000	-0.019	-0.252
-719.806	672.223	0.156	-0.403
-718.791	39.406	-0.174	0.155
-717.777	51.592	-0.063	-0.060
-716.762	-56.061	0.062	0.028
-715.748	78.254	-0.083	-0.088
-714.733	70.163	-0.314	-0.323
-713.718	-94.397	0.028	-0.008
-712.704	-129.667	-0.194	0.027
-711.689	72.497	0.211	-0.219
-710.675	197.797	-0.178	0.270
-709.660	9.691	0.417	0.315
-708.645	-150.136	-0.207	0.016
-707.631	-132.487	0.236	0.030
-706.616	-40.838	0.090	0.046
-705.602	56.518	0.194	-0.188
-704.587	94.113	0.022	0.025
-703.572	-200.000	-0.023	-0.337
-702.558	-86.867	0.329	0.100
-701.543	149.486	0.155	0.209
-700.529	165.771	-0.070	-0.099
-699.514	-37.441	0.264	-0.140
-698.499	-150.815	0.155	-0.012
-697.485	-200.000	0.004	-0.151
-696.470	206.396	0.106	0.164
-695.456	-166.949	-0.135	-0.005
-694.441	-132.155	0.259	-0.034
-693.426	-200.000	0.032	0.169
-692.412	-11.449	0.132	-0.087
-691.397	102.188	-0.178	-0.206
-690.383	800.000	0.062	-0.212
-689.368	-200.000	-0.022	-0.148
-688.354	-54.505	-0.054	-0.024
-687.339	623.854	0.059	-0.147
-686.324	48.939	0.136	-0.127
-685.310	-146.632	0.149	0.013
-684.295	14.250	0.195	0.151
-683.281	-200.000	0.005	-0.135
-682.266	-170.675	0.306	0.011
-681.251	800.000	0.045	-0.157
-680.237	800.000	0.072	-0.217
-679.222	256.950	0.092	-0.157
-678.208	-165.561	-0.250	-0.011
-677.193	165.614	-0.055	0.078
-676.178	800.000	-0.038	0.108
-675.164	147.831	-0.160	-0.215
-674.149	69.413	0.091	-0.093
-673.135	449.535	0.099	-0.218
-672.120	757.798	0.184	-0.496
-671.105	-110.582	0.217	-0.045
-670.091	223.846	-0.155	0.249
-669.076	800.000	0.029	0.090
-668.062	247.591	-0.059	-0.100
-667.047	-200.000	0.404	-0.001
-666.032	167.089	-0.100	-0.141
-665.018	795.805	-0.059	-0.162
-664.003	800.000	0.046	0.185
-662.989	68.134	-0.248	-0.253
-661.974	-43.856	-0.103	-0.052
-660.959	-24.716	0.145	-0.086
-659.945	-120.239	0.232	-0.039
-658.930	-165.326	0.177	-0.008
-657.916	-72.980	-0.403	-0.147
-656.901	-61.404	-0.312	-0.130
-655.886	800.000	-0.076	0.228
-654.872	-158.220	-0.128	0.007
-653.857	-200.000	-0.049	0.274
-652.843	-200.000	0.001	-0.232
-651.828	-57.242	0.179	0.078
-650.814	63.813	0.127	-0.127
-649.799	-80.820	-0.067	-0.022
-648.784	712.509	0.089	0.234
-647.770	-137.299	0.469	-0.053
-646.755	193.968	0.089	0.135
-645.741	80.362	-0.206	-0.220
-644.726	-200.000	0.004	0.204
-643.711	-180.904	0.170	-0.003
-642.697	-141.755	0.314	-0.031
-641.682	635.661	-0.111	0.279
-640.668	12.369	-0.074	-0.056
-639.653	-200.000	0.026	-0.378
-638.638	176.524	0.055	-0.080
-637.624	-77.450	-0.149	-0.051
-636.609	-101.886	-0.289	0.069
-635.595	43.761	-0.174	0.158
-634.580	30.412	0.130	0.110
-633.565	-59.135	0.285	0.122
-632.551	-200.000	-0.008	-0.127
-631.536	38.775	0.209	0.186
-630.522	799.106	0.029	-0.078
-629.507	-52.548	-0.107	-0.049
-628.492	-95.790	0.257	-0.068
-627.478	86.455	-0.218	0.238
-626.463	0.915	-0.305	0.217
-625.449	118.901	0.100	-0.123
-624.434	-200.000	-0.050	-0.265
-623.419	310.319	0.035	-0.066
-622.405	622.405	0.137	0.341
-621.390	161.046	-0.154	0.214
-620.376	-200.000	-0.016	-0.342
-619.361	-200.000	-0.008	-0.333
-618.346	74.896	0.196	0.205
-617.332	800.000	0.080	0.247
-616.317	373.865	-0.123	-0.249
-615.303	639.140	-0.079	-0.199
-614.288	-41.336	-0.342	-0.175
-613.273	-141.754	-0.507	0.050
-612.259	53.675	-0.142	-0.135
-611.244	-31.235	0.165	0.092
-610.230	276.305	0.164	0.288
-609.215	-3.301	0.132	-0.091
-608.201	122.322	0.087	-0.108
-607.186	80.542	-0.057	-0.061
-606.171	142.613	0.155	-0.204
-605.157	-44.776	-0.135	0.067
-604.142	241.418	-0.087	-0.144
-603.128	-141.247	-0.455	0.046
-602.113	0.557	-0.118	-0.084
-601.098	-11.454	0.096	0.062
-600.084	800.000	0.031	0.086
-599.069	-79.917	-0.150	0.050
-598.055	-6.048	0.045	-0.031
-597.040	12.087	0.020	0.015
-596.025	61.404	-0.172	0.170
-595.011	-15.825	-0.452	0.285
-593.996	179.733	0.221	0.321
-592.982	137.565	-0.224	0.291
-591.967	14.926	-0.295	-0.229
-590.952	-129.915	-0.464	-0.063
-589.938	-200.000	-0.003	-0.267
-588.923	-92.676	0.087	0.024
-587.909	-200.000	0.028	-0.268
-586.894	30.386	0.094	0.080
-585.879	-133.270	0.321	-0.040
-584.865	-148.369	-0.262	0.021
-583.850	3.769	-0.199	0.144
-582.836	-165.123	-0.095	0.004
-581.821	705.838	0.026	-0.067
-580.806	800.000	0.056	0.156
-579.792	-200.000	0.038	-0.250
-578.777	72.677	0.007	0.007
-577.763	-154.556	0.188	0.012
-576.748	-92.945	0.187	0.052
-575.733	103.812	-0.018	0.020
-574.719	-200.000	-0.011	0.104
-573.704	-200.000	-0.026	0.155
-572.690	527.640	0.138	0.323
-571.675	-38.858	-0.329	-0.172
-570.661	531.974	-0.076	0.177
-569.646	-200.000	-0.009	0.063
-568.631	670.182	-0.078	-0.201
-567.617	-159.530	-0.237	-0.013
-566.602	-200.000	0.022	-0.171
-565.588	31.371	0.219	0.186
-564.573	276.362	0.078	0.137
-563.558	-13.984	0.036	-0.023
-562.544	-20.246	-0.145	-0.088
-561.529	-200.000	0.013	0.059
-560.515	-84.135	-0.256	0.081
-559.500	-70.922	0.287	-0.107
-558.485	-154.624	-0.245	-0.016
-557.471	-110.807	0.228	0.047
-556.456	71.697	-0.126	0.130
-555.442	800.000	0.045	-0.141
-554.427	15.409	-0.012	0.009
-553.412	20.272	-0.130	-0.104
-552.398	-19.751	-0.157	-0.096
-551.383	74.057	0.079	0.082
-550.369	-200.000	0.019	0.247
-549.354	-30.242	-0.128	0.072
-548.339	-200.000	0.070	-0.330
-547.325	275.969	0.122	-0.214
-546.310	-79.924	0.015	0.005
-545.296	90.577	0.075	0.083
-544.281	33.045	0.149	-0.128
-543.266	80.273	0.226	0.240
-542.252	-22.633	-0.046	-0.028
-541.237	-115.663	0.444	0.082
-540.223	505.401	-0.043	0.098
-539.208	160.103	-0.112	-0.154
-538.193	443.044	0.086	0.186
-537.179	18.270	0.193	-0.152
-536.164	27.018	0.099	-0.082
-535.150	170.170	0.076	0.108
-534.135	156.285	0.043	-0.059
-533.121	186.319	-0.216	-0.318
-532.106	-98.488	0.099	0.025
-531.091	12.407	-0.230	0.175
-530.077	123.700	-0.040	0.049
-529.062	-200.000	-0.066	0.334
-528.048	-35.785	-0.297	0.159
-527.033	-200.000	-0.025	0.316
-526.018	302.144	-0.131	0.239
-525.004	308.380	-0.097	0.179
-523.989	800.000	-0.035	0.138
-522.975	12.846	-0.206	0.157
-521.960	800.000	0.078	0.252
-520.945	143.821	0.175	-0.231
-519.931	1.174	-0.360	-0.255
-518.916	113.304	-0.159	0.190
-517.902	-125.924	0.251	-0.037
-516.887	67.175	0.146	-0.147
-515.872	-92.717	0.094	0.026
-514.858	-200.000	0.001	-0.340
-513.843	-107.090	0.256	0.056
-512.829	292.369	-0.146	0.263
-511.814	597.928	-0.081	-0.198
-510.799	-200.000	0.020	-0.264
-509.785	12.498	-0.194	-0.148
-508.770	15.577	-0.037	-0.029
-507.756	-89.137	-0.459	-0.134
-506.741	-101.883	-0.031	-0.007
-505.726	-34.425	0.238	-0.129
-504.712	679.481	0.049	0.125
-503.697	106.862	0.018	0.021
-502.683	-82.573	-0.479	0.153
-501.668	-90.481	0.095	-0.027
-500.653	107.260	-0.212	-0.249
-499.639	800.000	-0.051	-0.157
-498.624	16.831	-0.098	-0.076
-497.610	-53.265	-0.203	-0.092
-496.595	-97.449	-0.415	-0.107
-495.581	-200.000	-0.033	0.210
-494.566	-200.000	-0.079	0.472
-493.551	710.109	0.013	-0.034
-492.537	385.933	0.110	-0.225
-491.522	-49.166	0.161	-0.076
-490.508	110.030	-0.256	-0.304
-489.493	118.181	0.094	0.114
-488.478	570.558	-0.028	0.067
-487.464	-25.736	0.189	0.110
-486.449	-135.170	0.088	-0.010
-485.435	42.717	-0.101	-0.091
-484.420	39.765	0.252	-0.223
-483.405	61.754	0.237	0.233
-482.391	-97.392	-0.233	-0.060
-481.376	-126.848	-0.461	-0.067
-480.362	608.611	0.072	0.177
-479.347	-33.184	0.177	0.097
-478.332	-81.632	0.388	0.126
-477.318	-23.272	-0.124	-0.074
-476.303	-66.383	0.045	-0.018
-475.289	-200.000	-0.013	-0.085
-474.274	23.960	-0.160	-0.130
-473.259	347.748	-0.245	0.476
-472.245	-139.293	0.225	-0.024
-471.230	-73.320	-0.058	-0.021
-470.216	376.349	-0.097	0.195
-469.201	211.463	-0.114	-0.178
-468.186	603.449	0.114	0.279
-467.172	-126.450	-0.205	-0.030
-466.157	-139.942	-0.201	-0.021
-465.143	357.810	0.112	-0.221
-464.128	7.814	0.038	-0.028
-463.113	248.364	-0.134	-0.224
-462.099	157.020	0.128	-0.175
-461.084	-68.583	0.100	0.038
-460.070	800.000	-0.066	0.253
-459.055	76.155	-0.120	0.125
-458.040	297.171	0.086	-0.155
-457.026	55.534	0.257	-0.245
-456.011	-200.000	-0.017	-0.190
-454.997	-200.000	-0.006	0.099
-453.982	156.584	-0.084	-0.115
-452.968	-146.184	0.428	0.037
-451.953	84.564	-0.236	-0.254
-450.938	-28.063	0.216	-0.123
-449.924	111.291	0.055	0.065
-448.909	-200.000	0.388	0.000
-447.895	63.424	0.138	-0.136
-446.880	800.000	0.026	-0.094
-445.865	-200.000	0.005	-0.150
-444.851	43.117	0.098	-0.088
-443.836	-160.214	0.378	0.020
-442.822	-98.398	-0.334	0.084
-441.807	-53.363	0.059	-0.027
-440.792	-172.038	0.056	-0.002
-439.778	800.000	0.036	-0.107
-438.763	-200.000	-0.003	-0.104
-437.749	260.671	0.092	0.156
-436.734	-41.903	0.156	-0.079
-435.719	617.726	-0.169	0.418
-434.705	-200.000	0.035	0.322
-433.690	30.963	0.291	0.246
-432.676	-131.931	-0.141	-0.018
-431.661	-200.000	0.033	-0.148
-430.646	256.966	-0.059	0.101
-429.632	18.593	0.131	0.103
-428.617	49.970	-0.096	-0.089
-427.603	612.388	0.088	0.217
-426.588	136.481	0.111	0.143
-425.573	-101.888	0.197	0.047
-424.559	-118.233	0.111	0.019
-423.544	351.529	0.097	0.190
-422.530	-26.419	0.091	-0.053
-421.515	236.948	0.057	0.094
-420.500	-59.314	-0.111	-0.047
-419.486	22.904	-0.083	-0.067
-418.471	-167.196	-0.282	-0.011
-417.457	-200.000	-0.066	0.315
-416.442	-101.675	-0.021	0.005
-415.428	-41.490	0.097	0.049
-414.413	2.129	-0.179	0.127
-413.398	-77.091	0.107	0.037
-412.384	-89.142	0.293	0.085
-411.369	-200.000	0.019	0.187
-410.355	243.999	0.133	-0.220
-409.340	-200.000	-0.013	0.339
-408.325	150.500	0.111	0.148
-407.311	256.626	0.107	0.180
-406.296	-46.340	-0.193	-0.094
-405.282	-77.240	-0.396	0.136
-404.267	-38.689	0.439	0.228
-403.252	161.890	0.228	-0.314
-402.238	-24.050	-0.150	-0.088
-401.223	-51.862	0.115	-0.053
-400.209	-179.557	0.111	0.002
-399.194	108.095	-0.129	0.151
-398.179	-200.000	-0.020	-0.202
-397.165	705.639	0.085	-0.222
-396.150	800.000	-0.135	-0.380
-395.136	-88.719	-0.315	0.092
-394.121	482.120	0.093	0.208
-393.106	205.325	-0.073	0.111
-392.092	11.468	0.282	0.212
-391.077	-54.389	-0.264	0.118
-390.063	-178.147	0.204	-0.005
-389.048	-78.396	-0.198	0.067
-388.033	-200.000	-0.008	0.367
-387.019	-200.000	0.002	0.014
-386.004	-200.000	0.040	-0.175
-384.990	-200.000	-0.053	-0.379
-383.975	-200.000	0.002	-0.262
-382.960	-200.000	-0.025	-0.178
-381.946	-200.000	-0.034	0.158
-380.931	800.000	-0.040	-0.112
-379.917	219.352	0.077	0.122
-378.902	-67.787	-0.331	-0.127
-377.888	16.391	-0.303	-0.235
-376.873	7.885	-0.147	-0.109
-375.858	-51.289	-0.155	-0.071
-374.844	800.000	0.149	0.531
-373.829	-5.428	0.237	-0.160
-372.815	-102.785	0.079	-0.019
-371.800	-200.000	-0.030	0.543
-370.785	-82.692	-0.148	0.047
-369.771	-200.000	0.021	-0.227
-368.756	54.496	0.068	0.065
-367.742	-94.561	-0.101	0.027
-366.727	-145.312	0.364	-0.032
-365.712	-135.264	-0.113	0.013
-364.698	33.218	0.157	-0.134
-363.683	14.214	0.166	0.127
-362.669	360.830	-0.148	-0.292
-361.654	-169.911	0.295	-0.010
-360.639	96.051	0.101	0.113
-359.625	800.000	-0.061	-0.233
-358.610	800.000	0.061	-0.261
-357.596	244.234	-0.077	-0.128
-356.581	85.879	-0.062	0.067
-355.566	-43.921	0.276	-0.136
-354.552	561.376	0.104	0.247
-353.537	137.468	0.115	-0.147
-352.523	74.862	-0.320	0.331
-351.508	-200.000	0.014	-0.303
-350.493	-8.524	0.363	0.239
-349.479	800.000	-0.016	-0.066
-348.464	800.000	0.076	-0.218
-347.450	651.665	0.094	-0.236
-346.435	-53.611	0.189	0.085
-345.420	257.505	0.173	-0.292
-344.406	176.589	0.127	0.181
-343.391	-155.354	0.284	-0.018
-342.377	464.277	-0.133	0.291
-341.362	94.893	0.072	-0.080
-340.348	800.000	-0.112	-0.306
-339.333	100.295	-0.106	-0.121
-338.318	-200.000	-0.001	-0.103
-337.304	262.540	-0.072	-0.123
-336.289	-90.374	-0.209	-0.059
-335.275	65.790	-0.100	-0.099
-334.260	168.718	-0.180	-0.252
-333.245	-192.310	-0.256	0.002
-332.231	-135.965	0.105	-0.012
-331.216	-8.754	-0.182	-0.120
-330.202	-200.000	-0.050	0.229
-329.187	272.712	-0.091	0.157
-328.172	800.000	-0.044	-0.127
-327.158	81.272	0.212	0.225
-326.143	-152.720	-0.274	0.019
-325.129	-21.090	0.253	0.152
-324.114	-200.000	0.027	-0.246
-323.099	153.285	-0.102	0.137
-322.085	43.839	-0.046	-0.041
-321.070	-112.425	-0.112	-0.022
-320.056	6.281	-0.061	-0.044
-319.041	6.004	-0.118	-0.086
-318.026	299.160	0.035	0.063
-317.012	-100.387	-0.235	-0.057
-315.997	188.437	-0.070	0.103
-314.983	-200.000	0.002	0.035
-313.968	5.754	-0.132	-0.096
-312.953	800.000	-0.038	-0.141
-311.939	-121.502	0.177	0.029
-310.924	272.621	-0.151	-0.262
-309.910	-12.459	-0.302	-0.193
-308.895	-42.002	0.353	-0.177
-307.880	-200.000	-0.023	0.261
-306.866	-200.000	-0.032	0.300
-305.851	-200.000	0.022	-0.144
-304.837	-132.842	0.107	-0.013
-303.822	158.060	0.147	0.200
-302.807	-112.624	-0.162	0.032
-301.793	106.307	0.107	-0.124
-300.778	800.000	-0.059	-0.184
-299.764	-200.000	0.049	-0.267
-298.749	-200.000	0.019	-0.140
-297.735	411.015	0.073	0.152
-296.720	-156.259	-0.065	0.004
-295.705	-17.795	0.168	-0.103
-294.691	-200.000	0.022	-0.093
-293.676	800.000	0.045	0.146
-292.662	-172.229	0.203	-0.006
-291.647	47.183	0.248	0.227
-290.632	71.195	-0.189	-0.192
-289.618	-111.222	-0.299	-0.060
-288.603	-200.000	0.049	-0.234
-287.589	800.000	-0.012	0.043
-286.574	53.504	0.030	0.028
-285.559	-153.625	-0.099	0.007
-284.545	-105.136	-0.074	0.017
-283.530	-92.270	-0.365	0.101
-282.516	488.862	0.127	-0.285
-281.501	-6.609	0.250	0.166
-280.486	45.867	-0.078	0.071
-279.472	-78.624	0.265	0.089
-278.457	380.228	-0.113	-0.227
-277.443	333.657	-0.014	-0.027
-276.428	13.967	0.226	-0.172
-275.413	199.217	0.110	-0.164
-274.399	57.200	-0.084	0.081
-273.384	-106.073	0.050	-0.011
-272.370	98.376	0.082	0.092
-271.355	150.100	0.103	0.137
-270.340	-200.000	0.028	0.167
-269.326	-128.410	0.101	0.014
-268.311	-56.008	-0.241	-0.105
-267.297	604.113	0.065	-0.158
-266.282	-148.356	0.131	0.011
-265.267	203.789	-0.135	-0.205
-264.253	800.000	0.072	-0.196
-263.238	-28.551	0.164	-0.093
-262.224	-14.534	-0.180	-0.113
-261.209	-162.358	0.058	-0.003
-260.195	-109.479	-0.340	0.070
-259.180	-200.000	-0.031	0.186
-258.165	62.490	-0.148	0.145
-257.151	85.635	-0.399	0.429
-256.136	3.118	-0.245	-0.175
-255.122	373.682	0.075	-0.150
-254.107	-86.858	0.102	0.030
-253.092	-17.354	-0.133	-0.082
-252.078	456.536	-0.020	0.043
-251.063	-129.913	-0.246	-0.033
-250.049	-2.666	0.188	0.129
-249.034	800.000	-0.050	-0.167
-248.019	-63.221	0.142	-0.057
-247.005	-51.531	0.293	-0.134
-245.990	455.746	-0.040	-0.087
-244.976	769.763	-0.075	-0.198
-243.961	-41.329	-0.122	-0.061
-242.946	249.209	0.131	0.217
-241.932	-85.941	0.262	0.079
-240.917	-167.481	-0.201	0.008
-239.903	-87.935	0.058	-0.017
-238.888	35.333	0.091	-0.078
-237.873	-18.666	-0.173	0.105
-236.859	164.738	0.263	0.362
-235.844	165.609	-0.144	0.199
-234.830	597.755	0.035	-0.084
-233.815	-114.888	0.307	-0.057
-232.800	432.452	-0.072	-0.152
-231.786	204.664	0.171	0.260
-230.771	-114.369	-0.217	0.041
-229.757	94.743	-0.171	-0.190
-228.742	-132.357	-0.075	-0.009
-227.727	-114.696	-0.198	0.037
-226.713	-148.545	-0.331	-0.026
-225.698	240.038	0.127	0.206
-224.684	113.760	0.153	0.182
-223.669	-77.290	0.378	0.128
-222.655	-53.571	0.508	-0.227
-221.640	61.682	-0.187	-0.182
-220.625	113.448	-0.237	-0.281
-219.611	448.451	-0.082	0.176
-218.596	-200.000	0.049	-0.418
-217.582	-28.233	0.145	0.082
-216.567	-52.736	-0.199	0.090
-215.552	-96.123	0.256	-0.066
-214.538	800.000	-0.114	-0.315
-213.523	-89.283	0.326	0.094
-212.509	-123.427	0.186	-0.029
-211.494	315.396	-0.025	-0.045
-210.479	43.651	0.170	-0.152
-209.465	-113.152	0.261	0.050
-208.450	168.929	-0.272	-0.378
-207.436	366.162	0.118	-0.233
-206.421	96.431	0.156	-0.175
-205.406	-200.000	0.008	0.052
-204.392	408.375	-0.054	-0.112
-203.377	-67.012	-0.158	-0.061
-202.363	-200.000	-0.016	0.238
-201.348	49.478	-0.144	-0.132
-200.333	-153.537	-0.231	-0.016
-199.319	-3.745	-0.192	0.130
-198.304	-93.533	0.098	-0.026
-197.290	124.057	-0.115	0.141
-196.275	800.000	-0.068	0.260
-195.260	257.453	0.086	-0.145
-194.246	231.105	-0.126	0.201
-193.231	83.073	0.143	0.152
-192.217	-72.339	0.365	0.132
-191.202	-159.484	-0.227	0.012
-190.187	479.983	-0.069	0.153
-189.173	402.648	-0.045	-0.093
-188.158	297.146	-0.055	-0.098
-187.144	-115.151	0.281	-0.052
-186.129	312.468	-0.052	-0.096
-185.114	767.105	-0.038	0.102
-184.100	-73.831	0.411	0.146
-183.085	-200.000	0.012	0.055
-182.071	-58.677	-0.402	0.170
-181.056	6.909	-0.189	0.137
-180.042	35.118	-0.334	0.285
-179.027	800.000	0.083	0.293
-178.012	26.888	0.291	-0.238
-176.998	-45.640	0.584	0.282
-175.983	-200.000	0.044	0.210
-174.969	-24.096	0.302	0.176
-173.954	-17.078	-0.228	0.140
-172.939	-3.120	0.100	0.068
-171.925	-98.305	-0.088	0.022
-170.910	189.430	0.070	0.102
-169.896	25.336	-0.241	-0.195
-168.881	-24.895	0.271	-0.157
-167.866	-17.124	0.232	0.143
-166.852	11.883	-0.104	0.078
-165.837	583.562	-0.130	-0.311
-164.823	-115.388	-0.086	-0.016
-163.808	10.094	-0.171	-0.127
-162.793	11.471	0.255	0.191
-161.779	118.826	0.201	0.242
-160.764	-200.000	0.023	-0.127
-159.750	235.818	0.131	0.211
-158.735	-50.449	0.099	-0.046
-157.720	-200.000	-0.001	-0.408
-156.706	179.404	-0.148	-0.211
-155.691	-141.864	0.271	-0.026
-154.677	-12.766	-0.209	0.133
-153.662	-120.341	0.154	-0.026
-152.647	611.785	0.021	0.051
-151.633	58.672	0.029	-0.028
-150.618	-82.038	-0.034	0.011
-149.604	-42.623	-0.252	0.125
-148.589	-50.021	0.199	-0.092
-147.574	-200.000	-0.007	-0.079
-146.560	176.660	0.060	-0.085
-145.545	800.000	0.028	-0.088
-144.531	86.047	0.135	0.145
-143.516	183.182	0.081	-0.117
-142.502	155.953	0.182	0.245
-141.487	135.455	0.033	-0.041
-140.472	800.000	0.047	0.194
-139.458	-33.930	-0.095	0.051
-138.443	-155.952	0.273	-0.017
-137.429	800.000	0.058	0.187
-136.414	213.137	-0.142	0.218
-135.399	392.013	-0.019	-0.038
-134.385	-200.000	-0.060	0.305
-133.370	191.323	0.135	-0.198
-132.356	434.200	-0.130	-0.274
-131.341	296.443	0.199	0.356
-130.326	95.244	0.108	0.120
-129.312	-157.108	0.220	-0.013
-128.297	-63.318	0.354	0.142
-127.283	18.593	-0.203	0.158
-126.268	-170.538	0.469	0.016
-125.253	-9.801	0.127	-0.082
-124.239	-136.972	0.204	0.023
-123.224	164.155	0.045	0.061
-122.210	-200.000	0.020	0.197
-121.195	243.351	-0.079	0.128
-120.180	-200.000	0.018	-0.145
-119.166	25.504	-0.208	0.169
-118.151	39.286	0.169	0.148
-117.137	-200.000	-0.014	-0.174
-116.122	-93.550	0.289	-0.078
-115.107	169.753	-0.176	-0.244
-114.093	338.487	-0.041	0.077
-113.078	167.640	0.137	-0.189
-112.064	-127.801	0.163	-0.023
-111.049	165.536	0.072	-0.099
-110.034	187.986	-0.028	-0.041
-109.020	296.575	-0.030	0.053
-108.005	65.816	0.184	-0.181
-106.991	10.827	0.105	-0.078
-105.976	274.692	0.022	-0.038
-104.962	-54.569	0.233	-0.103
-103.947	-121.930	-0.282	-0.045
-102.932	271.926	-0.090	0.154
-101.918	266.033	-0.104	0.177
-100.903	362.123	-0.112	0.219
-99.889	-91.062	-0.029	0.008
-98.874	27.929	0.133	-0.109
-97.859	800.000	0.042	0.122
-96.845	-35.955	-0.205	0.108
-95.830	-9.746	0.049	-0.032
-94.816	11.054	-0.250	0.186
-93.801	-200.000	-0.003	0.021
-92.786	-200.000	0.063	0.314
-91.772	-64.253	0.138	0.055
-90.757	-200.000	-0.012	0.200
-89.743	800.000	-0.156	-0.632
-88.728	-88.177	-0.120	-0.035
-87.713	-200.000	0.021	-0.241
-86.699	-61.932	-0.107	-0.044
-85.684	230.266	-0.126	0.200
-84.670	-127.851	0.272	-0.038
-83.655	-200.000	-0.003	-0.244
-82.640	-33.274	-0.202	0.109
-81.626	-200.000	-0.001	0.205
-80.611	-108.739	-0.221	-0.046
-79.597	39.493	0.268	-0.233
-78.582	-200.000	0.001	0.073
-77.567	-200.000	-0.012	-0.065
-76.553	224.390	0.216	0.340
-75.538	800.000	-0.067	-0.233
-74.524	-200.000	-0.000	-0.007
-73.509	-46.902	0.086	0.041
-72.494	-200.000	0.042	-0.296
-71.480	800.000	-0.053	0.168
-70.465	368.148	0.176	-0.345
-69.451	-75.012	0.146	0.051
-68.436	-45.462	-0.372	0.179
-67.422	-200.000	0.011	-0.165
-66.407	265.921	-0.025	0.042
-65.392	-78.428	-0.214	0.071
-64.378	2.592	-0.151	-0.106
-63.363	612.575	0.086	0.210
-62.349	-171.080	0.374	-0.012
-61.334	38.746	-1.297	-1.124
-60.319	54.416	0.713	0.667
-59.305	416.813	-0.533	-1.105
-58.290	273.595	0.766	1.314
-57.276	800.000	0.478	1.411
-56.261	-200.000	131.735	695.916
-55.246	377.352	1650.673	3274.026
-54.232	135.088	2805.493	3538.441
-53.217	87.983	2304.076	2479.857
-52.203	31.557	1898.575	1584.289
-51.188	25.422	1692.942	1366.150
-50.173	23.437	1654.090	1319.981
-49.159	45.489	1725.762	1546.174
-48.144	42.422	1736.975	1532.782
-47.130	25.034	1687.132	1358.302
-46.115	22.523	1671.184	1326.532
-45.100	22.339	1665.979	1320.964
-44.086	22.346	1663.450	1318.962
-43.071	22.244	1661.425	1316.536
-42.057	22.277	1659.201	1314.967
-41.042	22.379	1656.919	1313.872
-40.027	22.360	1655.127	1312.257
-39.013	22.360	1653.306	1310.757
-37.998	22.267	1652.056	1309.029
-36.984	22.284	1651.048	1308.299
-35.969	22.417	1649.398	1307.931
-34.954	22.432	1647.651	1306.605
-33.940	22.372	1646.063	1304.851
-32.925	22.379	1643.845	1303.094
-31.911	22.436	1642.214	1302.164
-30.896	22.390	1640.787	1300.645
-29.881	22.372	1639.193	1299.194
-28.867	22.331	1637.747	1297.699
-27.852	22.444	1636.315	1297.344
-26.838	22.462	1634.980	1296.367
-25.823	22.504	1633.359	1295.339
-24.809	22.425	1632.968	1294.398
-23.794	22.418	1631.267	1292.942
-22.779	22.513	1629.303	1292.035
-21.765	22.403	1628.055	1290.188
-20.750	22.368	1626.682	1288.789
-19.736	22.513	1624.469	1288.049
-18.721	22.560	1623.766	1287.782
-17.706	22.408	1622.564	1285.664
-16.692	22.548	1620.350	1284.878
-15.677	22.467	1619.480	1283.551
-14.663	22.510	1618.076	1282.702
-13.648	22.508	1616.612	1281.475
-12.633	22.526	1614.626	1279.981
-11.619	22.427	1613.401	1278.240
-10.604	22.525	1611.948	1277.750
-9.590	22.525	1610.529	1276.575
-8.575	22.485	1609.597	1275.497
-7.560	22.520	1608.365	1274.724
-6.546	22.510	1607.657	1274.036
-5.531	22.487	1606.635	1273.012
-4.517	22.492	1605.453	1272.057
-3.502	22.466	1603.665	1270.406
-2.487	22.532	1601.976	1269.492
-1.473	22.011	1589.879	1256.127
-0.458	18.755	1569.760	1217.144
0.556	14.038	1571.091	1184.378
1.571	11.680	1594.486	1184.844
2.586	11.324	1606.427	1191.011
3.600	10.624	1552.167	1145.736
4.615	6.113	1448.433	1039.297
5.629	1.624	1392.101	970.212
6.644	0.714	1385.722	959.905
7.659	0.751	1384.451	959.171
8.673	0.711	1383.645	958.276
9.688	0.794	1380.438	956.492
10.702	0.581	1376.998	952.685
11.717	2.740	1380.214	968.465
12.731	9.105	1389.149	1014.991
13.746	15.060	1398.530	1059.552
14.761	17.179	1401.511	1075.141
15.775	16.677	1399.686	1070.478
16.790	15.707	1396.896	1062.124
17.804	15.002	1394.767	1055.960
18.819	14.522	1393.716	1052.044
19.834	14.394	1391.906	1049.782
20.848	14.206	1390.547	1047.480
21.863	13.886	1389.412	1044.519
22.877	13.785	1387.870	1042.634
23.892	13.665	1387.193	1041.280
24.907	13.643	1386.608	1040.606
25.921	13.710	1385.629	1040.204
26.936	13.709	1385.048	1039.668
27.950	13.730	1383.760	1038.743
28.965	13.843	1382.754	1038.602
29.980	13.840	1381.571	1037.602
30.994	13.970	1380.986	1037.883
32.009	13.874	1380.263	1036.645
33.023	13.908	1378.515	1035.455
34.038	13.888	1377.248	1034.290
35.053	13.829	1376.056	1032.932
36.067	13.940	1375.187	1032.877
37.082	13.889	1374.377	1031.865
38.096	13.862	1373.274	1030.778
39.111	13.867	1372.905	1030.441
40.126	13.763	1372.052	1029.064
41.140	13.793	1371.278	1028.576
42.155	13.719	1370.872	1027.725
43.169	13.788	1370.483	1027.769
44.184	13.695	1370.494	1027.108
45.199	13.653	1370.256	1026.580
46.213	13.680	1369.463	1026.065
47.228	13.770	1368.544	1025.838
48.242	13.809	1367.529	1025.226
49.257	13.843	1365.648	1023.939
50.271	13.745	1364.216	1022.168
51.286	13.825	1362.953	1021.624
52.301	13.842	1361.495	1020.545
53.315	13.766	1360.784	1019.457
54.330	13.678	1359.751	1018.054
55.344	13.790	1358.167	1017.462
56.359	13.699	1357.600	1016.387
57.374	13.754	1356.393	1015.732
58.388	13.755	1355.664	1015.105
59.403	13.701	1355.411	1014.490
60.417	13.592	1354.677	1013.189
61.432	13.630	1353.441	1012.404
62.447	13.728	1352.173	1011.968
63.461	13.606	1351.384	1010.541
64.476	13.620	1350.355	1009.766
65.490	13.664	1348.722	1008.723
66.505	13.606	1346.868	1006.900
67.520	13.706	1345.686	1006.532
68.534	13.658	1345.069	1005.690
69.549	13.694	1343.926	1004.965
70.563	13.611	1342.984	1003.671
71.578	13.604	1341.697	1002.575
72.593	13.583	1340.777	1001.674
73.607	13.682	1340.177	1001.734
74.622	13.602	1339.199	1000.432
75.636	13.645	1338.882	1000.368
76.651	13.661	1337.688	999.479
77.666	13.559	1337.749	998.822
78.680	13.550	1337.080	998.183
79.695	13.613	1335.840	997.545
80.709	13.575	1335.193	996.744
81.724	13.607	1334.696	996.481
82.739	13.654	1333.376	995.687
83.753	13.745	1332.896	995.787
84.768	13.839	1331.054	994.886
85.782	13.842	1329.932	993.977
86.797	13.773	1328.846	992.665
87.812	13.774	1327.159	991.323
88.826	13.697	1326.512	990.296
89.841	13.783	1324.879	989.498
90.855	13.870	1323.781	989.110
91.870	13.832	1323.298	988.433
92.884	13.955	1322.214	988.270
93.899	13.879	1321.517	987.212
94.914	13.919	1320.801	986.828
95.928	13.917	1320.208	986.283
96.943	13.914	1318.695	985.046
97.957	13.849	1318.422	984.373
98.972	13.892	1317.257	983.670
99.987	13.784	1316.199	982.152
101.001	13.797	1315.061	981.296
102.016	13.808	1313.731	980.278
103.030	13.859	1312.878	979.858
104.045	13.847	1311.662	978.791
105.060	13.808	1311.035	978.006
106.074	13.768	1309.685	976.681
107.089	13.729	1308.372	975.383
108.103	13.693	1307.197	974.212
109.118	13.783	1305.563	973.435
110.133	13.723	1304.757	972.393
111.147	13.772	1303.071	971.341
112.162	13.752	1301.674	970.097
113.176	13.787	1301.299	969.933
114.191	13.825	1299.936	969.057
115.206	13.692	1299.030	967.520
116.220	13.867	1297.078	966.995
117.235	13.886	1295.945	966.179
118.249	13.768	1295.602	965.153
119.264	13.825	1293.940	964.157
120.279	13.844	1292.956	963.451
121.293	13.711	1292.208	962.038
122.308	13.765	1291.247	961.547
123.322	13.724	1290.433	960.621
124.337	13.704	1289.555	959.765
125.352	13.699	1287.649	958.234
126.366	13.782	1286.501	957.772
127.381	13.664	1285.953	956.597
128.395	13.705	1284.242	955.476
129.410	13.755	1283.586	955.192
130.424	13.816	1282.223	954.448
131.439	13.696	1282.064	953.553
132.454	13.726	1280.969	952.827
133.468	13.719	1280.059	952.024
134.483	13.807	1278.979	951.645
135.497	13.932	1277.713	951.334
136.512	13.705	1277.306	949.648
137.527	13.744	1275.610	948.521
138.541	13.751	1273.884	947.194
139.556	13.879	1272.335	946.693
140.570	13.883	1271.683	946.143
141.585	13.898	1270.358	945.158
142.600	13.908	1269.077	944.181
143.614	13.957	1268.304	943.802
144.629	13.990	1267.249	943.120
145.643	14.004	1266.410	942.488
146.658	13.960	1264.897	941.034
147.673	13.963	1263.630	940.024
148.687	13.968	1262.653	939.241
149.702	13.920	1260.820	937.522
150.716	13.852	1259.938	936.402
151.731	13.926	1258.656	935.783
152.746	13.942	1257.320	934.795
153.760	14.053	1255.865	934.256
154.775	13.967	1255.210	933.205
155.789	13.967	1254.310	932.453
156.804	14.074	1252.538	931.651
157.819	14.030	1252.194	931.067
158.833	14.018	1251.390	930.320
159.848	14.036	1250.369	929.580
160.862	14.157	1249.085	929.219
161.877	14.053	1248.013	927.760
162.892	14.049	1246.870	926.805
163.906	14.141	1246.089	926.654
164.921	14.096	1245.081	925.570
165.935	14.124	1244.348	925.101
166.950	14.076	1243.643	924.228
167.964	14.144	1242.543	923.706
168.979	14.096	1241.781	922.790
169.994	14.112	1241.488	922.578
171.008	14.230	1240.145	922.157
172.023	14.185	1239.791	921.561
173.037	14.213	1239.104	921.122
174.052	14.329	1237.575	920.546
175.067	14.204	1236.633	919.075
176.081	14.031	1236.152	917.679
177.096	14.171	1234.991	917.507
178.110	14.211	1233.540	916.572
179.125	14.215	1231.752	915.184
180.140	14.152	1231.134	914.295
181.154	14.293	1229.726	913.947
182.169	14.216	1229.360	913.167
183.183	14.269	1227.949	912.328
184.198	14.412	1226.331	911.832
185.213	14.444	1225.069	910.988
186.227	14.380	1224.592	910.201
187.242	14.476	1223.233	909.636
188.256	14.522	1222.366	909.158
189.271	14.514	1221.434	908.342
190.286	14.253	1220.632	906.244
191.300	14.188	1220.089	905.408
192.315	14.307	1219.244	905.347
193.329	14.282	1218.298	904.430
194.344	14.223	1218.077	903.865
195.359	14.390	1217.059	903.936
196.373	14.309	1216.538	903.030
197.388	14.508	1215.887	903.544
198.402	14.488	1215.449	903.030
199.417	14.578	1214.775	902.938
200.432	14.566	1214.018	902.228
201.446	14.611	1212.804	901.489
202.461	14.760	1211.650	901.359
203.475	14.674	1210.899	900.254
204.490	14.659	1209.118	898.770
205.504	14.571	1208.275	897.592
206.519	14.590	1207.210	896.822
207.534	14.699	1205.953	896.393
208.548	14.482	1205.515	894.827
209.563	14.637	1204.727	894.991
210.577	14.675	1203.647	894.312
211.592	14.695	1202.440	893.446
212.607	14.734	1201.886	893.164
213.621	14.694	1201.047	892.248
214.636	14.652	1200.102	891.244
215.650	14.788	1198.818	890.933
216.665	14.850	1197.776	890.413
217.680	14.847	1197.276	889.947
218.694	14.942	1196.301	889.645
219.709	14.921	1195.665	888.984
220.723	14.884	1195.032	888.238
221.738	14.807	1194.125	887.077
222.753	14.882	1194.044	887.337
223.767	14.899	1192.686	886.336
224.782	14.972	1192.736	886.681
225.796	15.026	1191.510	885.981
226.811	14.903	1190.903	884.801
227.826	14.907	1190.217	884.231
228.840	14.916	1189.536	883.694
229.855	14.920	1188.433	882.822
230.869	15.041	1187.693	882.828
231.884	14.993	1186.937	881.937
232.899	14.962	1186.130	881.096
233.913	14.953	1185.479	880.489
234.928	15.078	1184.299	880.189
235.942	14.963	1183.787	879.127
236.957	15.037	1183.001	878.853
237.972	15.044	1182.432	878.390
238.986	15.069	1181.764	877.946
240.001	15.020	1181.033	877.070
241.015	15.012	1180.026	876.201
242.030	15.084	1179.442	876.066
243.045	15.059	1178.603	875.235
244.059	15.119	1177.650	874.764
245.074	15.220	1176.883	874.644
246.088	15.151	1176.259	873.745
247.103	15.238	1175.007	873.190
248.117	15.180	1174.632	872.534
249.132	15.251	1174.121	872.445
250.147	15.221	1173.389	871.666
251.161	15.331	1172.371	871.407
252.176	15.250	1172.003	870.634
253.190	15.368	1171.118	870.510
254.205	15.451	1170.458	870.375
255.220	15.517	1169.712	870.087
256.234	15.455	1169.324	869.398
257.249	15.529	1168.257	868.912
258.263	15.507	1168.001	868.528
259.278	15.533	1167.149	867.954
260.293	15.513	1166.730	867.464
261.307	15.514	1166.279	867.054
262.322	15.616	1165.411	866.859
263.336	15.549	1165.078	866.190
264.351	15.555	1164.340	865.595
265.366	15.586	1163.645	865.164
266.380	15.520	1162.660	864.016
267.395	15.634	1161.906	863.961
268.409	15.588	1161.474	863.327
269.424	15.668	1160.478	862.924
270.439	15.562	1160.392	862.236
271.453	15.570	1159.371	861.446
272.468	15.633	1158.268	860.871
273.482	15.574	1157.477	859.906
274.497	15.726	1156.622	859.970
275.512	15.708	1155.937	859.292
276.526	15.700	1155.417	858.790
277.541	15.739	1154.690	858.376
278.555	15.838	1154.238	858.466
279.570	15.902	1152.803	857.650
280.585	15.841	1152.414	856.971
281.599	15.817	1151.308	855.953
282.614	15.800	1150.539	855.221
283.628	15.837	1149.443	854.516
284.643	15.818	1148.613	853.727
285.657	15.854	1147.786	853.220
286.672	15.957	1146.632	852.806
287.687	15.934	1145.783	851.983
288.701	15.943	1145.090	851.438
289.716	15.953	1144.071	850.656
290.730	15.948	1143.540	850.163
291.745	15.962	1142.886	849.672
292.760	15.996	1142.271	849.307
293.774	15.938	1141.703	848.520
294.789	16.021	1141.333	848.590
295.803	16.079	1140.397	848.106
296.818	16.126	1139.459	847.572
297.833	16.217	1138.313	847.102
298.847	16.090	1137.667	845.909
299.862	16.074	1137.227	845.426
300.876	16.050	1136.497	844.691
301.891	16.025	1136.215	844.279
302.906	16.189	1135.051	844.158
303.920	16.199	1134.375	843.632
304.935	16.242	1133.653	843.234
305.949	16.396	1132.865	843.342
306.964	16.372	1132.014	842.515
307.979	16.325	1131.495	841.820
308.993	16.267	1130.963	841.061
310.008	16.317	1129.714	840.307
311.022	16.245	1129.832	839.961
312.037	16.429	1128.413	839.747
313.052	16.201	1128.032	838.259
314.066	16.191	1126.713	837.151
315.081	16.282	1125.941	836.955
316.095	16.350	1124.958	836.487
317.110	16.340	1124.266	835.850
318.125	16.447	1123.516	835.749
319.139	16.286	1123.324	834.738
320.154	16.280	1122.304	833.875
321.168	16.359	1121.869	833.866
322.183	16.459	1121.074	833.697
323.197	16.448	1120.116	832.854
324.212	16.334	1119.927	832.080
325.227	16.330	1119.761	831.861
326.241	16.417	1119.123	831.742
327.256	16.383	1118.546	831.076
328.270	16.394	1117.044	829.936
329.285	16.419	1116.164	829.332
330.300	16.543	1115.028	829.026
331.314	16.469	1114.189	827.964
332.329	16.534	1113.334	827.575
333.343	16.551	1112.575	827.020
334.358	16.518	1112.037	826.388
335.373	16.520	1111.480	825.910
336.387	16.598	1110.528	825.507
337.402	16.572	1109.693	824.689
338.416	16.623	1109.062	824.396
339.431	16.695	1108.189	824.025
340.446	16.723	1107.669	823.699
341.460	16.765	1106.729	823.133
342.475	16.780	1106.051	822.627
343.489	16.884	1104.935	822.231
344.504	16.715	1104.391	820.934
345.519	16.827	1103.326	820.612
346.533	16.915	1102.550	820.385
347.548	16.940	1101.733	819.829
348.562	16.879	1101.312	819.148
349.577	16.821	1100.639	818.294
350.592	16.879	1099.872	817.931
351.606	16.900	1098.670	817.063
352.621	16.851	1098.685	816.769
353.635	16.847	1097.810	816.026
354.650	16.875	1096.832	815.364
355.665	16.962	1096.150	815.201
356.679	16.913	1095.874	814.689
357.694	16.924	1095.229	814.192
358.708	16.970	1094.322	813.663
359.723	17.017	1093.501	813.206
360.738	16.949	1093.253	812.626
361.752	17.029	1092.257	812.195
362.767	16.947	1092.133	811.637
363.781	17.056	1091.267	811.444
364.796	17.029	1090.889	810.961
365.810	17.157	1089.887	810.758
366.825	17.090	1089.457	810.047
367.840	17.300	1088.705	810.414
368.854	17.350	1087.907	809.987
369.869	17.233	1087.567	809.108
370.883	17.227	1086.583	808.274
371.898	17.176	1085.881	807.436
372.913	17.160	1085.149	806.744
373.927	17.267	1084.841	806.953
374.942	17.303	1084.316	806.663
375.956	17.209	1084.342	806.166
376.971	17.194	1083.333	805.274
377.986	17.344	1082.470	805.269
379.000	17.364	1081.962	804.914
380.015	17.369	1081.633	804.623
381.029	17.331	1080.827	803.772
382.044	17.479	1080.271	803.984
383.059	17.390	1079.572	802.977
384.073	17.436	1078.773	802.528
385.088	17.460	1077.854	801.886
386.102	17.435	1076.879	800.969
387.117	17.461	1075.966	800.345
388.132	17.411	1074.986	799.310
389.146	17.485	1074.242	799.034
390.161	17.447	1073.428	798.180
391.175	17.472	1073.183	798.041
392.190	17.527	1072.466	797.696
393.205	17.524	1071.460	796.865
394.219	17.602	1070.753	796.632
395.234	17.484	1069.937	795.403
396.248	17.584	1068.794	794.948
397.263	17.649	1067.768	794.421
398.278	17.528	1067.198	793.363
399.292	17.498	1066.845	792.888
400.307	17.635	1065.816	792.693
401.321	17.505	1065.150	791.524
402.336	17.563	1064.545	791.273
403.350	17.535	1063.734	790.470
404.365	17.684	1062.992	790.538
405.380	17.650	1062.279	789.779
406.394	17.692	1062.013	789.709
407.409	17.648	1061.054	788.722
408.423	17.787	1060.361	788.779
409.438	17.795	1059.766	788.302
410.453	17.859	1058.944	787.918
411.467	17.855	1058.255	787.316
412.482	17.930	1057.504	787.032
413.496	17.879	1056.868	786.254
414.511	17.894	1056.226	785.779
415.526	17.990	1056.139	786.087
416.540	18.084	1055.193	785.743
417.555	18.029	1054.707	785.059
418.569	17.961	1054.671	784.652
419.584	17.980	1054.039	784.200
420.599	17.941	1053.509	783.556
421.613	109.982	1331.348	1491.211
422.628	101.370	1371.783	1491.282
