DTS Sentinel unit serial number:	SN413079Multiplexer serial number:	ORYXHardware model number:	OX4-SRSoftware version number:	ORYX F/W v4.00 Oryx Data Collector v3.7.2.0data status	okinstallation	princeton_trtdifferential loss correction	single-endedforward channel	channel 2reverse channel	N/Adate	2019/09/13time	06:27:35forward acquisition time	60.00reverse acquisition time	0.00gamma	496.2192k internal	0.2338k external	0.2338temperature offset calibration	1.0190default loss term (dB/km)	0.3790temperature slope calibration	1.0000multiplexer offset coefficient	1.0000multiplexer slope coefficient	1.0000fibre end	0.00T internal ref (°C)	26.06T ext. ref 1 (°C)	4.09T ext. ref 2 (°C)	20.66length (m)	temperature (°C)	Stokes	anti-Stokes-747.200	160.137	-0.055	0.077
-746.185	800.000	-0.099	0.298
-745.171	-87.972	0.542	0.164
-744.156	-11.236	-0.325	0.215
-743.142	49.849	0.096	0.091
-742.127	-200.000	0.045	0.440
-741.112	346.710	-0.020	0.039
-740.098	221.706	-0.164	0.265
-739.083	-200.000	-0.068	-0.321
-738.069	-139.580	-0.124	0.013
-737.054	800.000	0.098	0.313
-736.039	76.152	-0.160	-0.170
-735.025	-91.038	-0.166	0.048
-734.010	800.000	0.100	-0.395
-732.996	364.027	-0.171	-0.344
-731.981	-200.000	-0.014	-0.076
-730.966	6.924	-0.136	-0.101
-729.952	800.000	-0.033	-0.142
-728.937	-135.064	-0.284	0.034
-727.923	-147.158	0.195	-0.017
-726.908	98.834	0.161	0.186
-725.894	-122.130	-0.088	-0.015
-724.879	396.350	0.130	-0.272
-723.864	104.438	0.155	0.182
-722.850	-29.888	0.219	0.125
-721.835	800.000	-0.112	-0.321
-720.821	-200.000	-0.003	0.108
-719.806	82.016	0.115	-0.125
-718.791	-34.668	-0.137	0.075
-717.777	-117.268	-0.154	-0.028
-716.762	-87.536	0.115	0.035
-715.748	239.358	0.121	-0.201
-714.733	-184.800	0.133	0.002
-713.718	-82.163	-0.095	-0.031
-712.704	-79.814	-0.213	0.072
-711.689	-21.816	0.160	-0.098
-710.675	90.785	0.268	-0.301
-709.660	-200.000	-0.034	-0.263
-708.645	-200.000	0.066	0.443
-707.631	-161.478	0.089	-0.005
-706.616	800.000	-0.064	-0.220
-705.602	440.838	0.078	-0.171
-704.587	-200.000	-0.060	-0.275
-703.572	-38.491	-0.061	-0.032
-702.558	-200.000	0.014	0.283
-701.543	3.504	-0.223	-0.163
-700.529	-188.719	0.237	-0.003
-699.514	-88.789	0.172	-0.051
-698.499	55.035	0.339	0.328
-697.485	58.391	-0.164	-0.161
-696.470	47.229	-0.155	0.145
-695.456	800.000	0.072	0.216
-694.441	-121.335	-0.260	0.043
-693.426	24.022	-0.038	0.032
-692.412	-200.000	0.078	-0.448
-691.397	121.558	-0.165	-0.206
-690.383	-200.000	0.000	-0.225
-689.368	-6.410	0.276	-0.188
-688.354	157.845	-0.117	0.163
-687.339	800.000	-0.092	0.302
-686.324	613.743	0.100	0.251
-685.310	431.990	0.045	0.098
-684.295	94.666	0.107	0.122
-683.281	-49.000	0.297	-0.142
-682.266	800.000	-0.032	-0.118
-681.251	-200.000	-0.019	-0.260
-680.237	800.000	0.103	0.322
-679.222	-134.387	0.293	-0.036
-678.208	-40.248	-0.113	0.059
-677.193	121.668	-0.191	0.238
-676.178	80.792	-0.135	0.146
-675.164	36.327	0.244	0.216
-674.149	-200.000	0.053	-0.281
-673.135	-11.348	-0.175	0.115
-672.120	26.931	-0.115	-0.097
-671.105	43.827	0.259	-0.238
-670.091	5.030	0.233	0.172
-669.076	603.667	-0.053	-0.131
-668.062	745.138	0.140	-0.377
-667.047	600.237	-0.052	-0.130
-666.032	2.069	0.088	-0.064
-665.018	-43.193	-0.253	-0.128
-664.003	155.322	-0.103	0.142
-662.989	193.507	0.128	0.193
-661.974	-68.529	0.177	0.069
-660.959	489.780	0.081	-0.185
-659.945	73.704	-0.153	-0.161
-658.930	10.691	-0.054	0.041
-657.916	-69.901	-0.216	-0.082
-656.901	297.763	-0.100	-0.183
-655.886	45.605	0.198	-0.183
-654.872	60.879	-0.163	0.162
-653.857	-200.000	0.010	-0.049
-652.843	800.000	-0.076	0.244
-651.828	-200.000	-0.037	0.535
-650.814	800.000	0.138	-0.472
-649.799	-157.805	-0.213	0.013
-648.784	-102.279	0.257	-0.062
-647.770	-200.000	0.002	-0.037
-646.755	-200.000	0.031	-0.478
-645.741	202.617	-0.098	-0.152
-644.726	-200.000	0.067	-0.521
-643.711	-200.000	-0.024	0.126
-642.697	-147.086	0.269	0.023
-641.682	-139.537	0.148	-0.016
-640.668	-54.827	-0.399	0.180
-639.653	43.990	-0.327	-0.299
-638.638	279.598	-0.101	-0.181
-637.624	558.148	-0.053	-0.128
-636.609	-53.723	0.194	0.089
-635.595	83.265	0.258	0.280
-634.580	-174.851	-0.052	-0.001
-633.565	190.893	-0.101	-0.151
-632.551	19.344	-0.284	-0.228
-631.536	39.846	0.025	-0.022
-630.522	800.000	0.081	-0.297
-629.507	-189.145	0.066	0.001
-628.492	148.296	-0.040	-0.054
-627.478	135.046	0.034	0.045
-626.463	800.000	-0.109	-0.388
-625.449	-27.344	-0.304	-0.177
-624.434	-115.818	-0.243	0.045
-623.419	-34.184	-0.232	-0.127
-622.405	-95.515	0.247	-0.066
-621.390	800.000	-0.040	0.146
-620.376	-1.521	0.053	-0.037
-619.361	45.997	0.107	-0.099
-618.346	-200.000	-0.016	-0.118
-617.332	-200.000	-0.039	-0.251
-616.317	-144.388	-0.248	-0.023
-615.303	-28.089	0.353	-0.204
-614.288	243.669	-0.194	-0.325
-613.273	-200.000	0.013	-0.089
-612.259	-160.193	-0.507	-0.027
-611.244	-167.863	-0.182	0.007
-610.230	255.498	-0.106	-0.182
-609.215	31.128	-0.140	-0.119
-608.201	49.093	-0.153	-0.144
-607.186	256.619	-0.116	0.199
-606.171	513.985	0.065	0.151
-605.157	-200.000	-0.017	0.266
-604.142	105.315	0.043	-0.051
-603.128	28.901	-0.244	-0.206
-602.113	-87.880	0.194	-0.058
-601.098	-18.016	-0.197	0.123
-600.084	-142.143	0.364	-0.036
-599.069	747.506	-0.062	0.167
-598.055	94.826	0.178	0.202
-597.040	183.420	-0.176	-0.259
-596.025	208.359	-0.073	-0.113
-595.011	-118.652	-0.204	0.036
-593.996	-91.854	0.433	-0.122
-592.982	800.000	-0.079	0.268
-591.967	-200.000	-0.059	0.356
-590.952	-35.125	0.100	0.054
-589.938	-20.887	-0.170	-0.104
-588.923	752.272	-0.138	-0.372
-587.909	552.121	-0.020	0.049
-586.894	-155.643	0.120	-0.008
-585.879	-34.642	-0.170	-0.093
-584.865	1.180	-0.094	-0.067
-583.850	446.818	0.128	0.281
-582.836	800.000	-0.120	0.425
-581.821	-145.157	0.202	0.018
-580.806	217.219	0.240	-0.381
-579.792	19.698	-0.149	-0.119
-578.777	288.641	-0.194	-0.350
-577.763	-36.959	-0.203	0.108
-576.748	-200.000	0.019	-0.336
-575.733	-164.694	0.119	0.005
-574.719	-60.009	0.227	-0.096
-573.704	125.440	0.058	-0.073
-572.690	4.703	-0.166	0.121
-571.675	58.552	-0.219	0.215
-570.661	89.549	-0.063	0.070
-569.646	-122.743	0.013	0.002
-568.631	-63.359	0.176	-0.072
-567.617	-73.820	-0.100	-0.036
-566.602	-179.400	-0.126	-0.003
-565.588	-140.867	0.341	-0.035
-564.573	800.000	-0.051	-0.143
-563.558	-59.737	0.135	0.057
-562.544	-200.000	0.000	-0.066
-561.529	-150.875	0.088	-0.007
-560.515	-110.019	0.264	-0.055
-559.500	800.000	-0.051	-0.205
-558.485	800.000	-0.052	-0.167
-557.471	800.000	-0.012	-0.044
-556.456	246.203	-0.224	-0.375
-555.442	-60.220	0.064	-0.027
-554.427	-43.240	-0.185	-0.093
-553.412	-200.000	-0.018	0.195
-552.398	800.000	-0.092	-0.304
-551.383	-127.782	-0.170	-0.024
-550.369	173.753	-0.161	0.231
-549.354	216.217	-0.182	0.289
-548.339	-22.021	-0.065	-0.040
-547.325	-136.659	-0.051	-0.006
-546.310	7.383	-0.250	-0.186
-545.296	77.358	-0.165	-0.175
-544.281	-200.000	-0.151	-0.001
-543.266	-90.503	-0.331	-0.095
-542.252	500.155	-0.025	-0.059
-541.237	-200.000	0.033	-0.244
-540.223	497.089	0.070	0.161
-539.208	96.074	0.205	0.233
-538.193	-32.029	-0.230	0.128
-537.179	-17.916	-0.315	0.197
-536.164	293.070	-0.082	0.150
-535.150	-200.000	0.009	0.065
-534.135	159.477	-0.192	-0.267
-533.121	-200.000	-0.005	-0.098
-532.106	800.000	-0.044	0.137
-531.091	69.307	-0.261	0.268
-530.077	734.957	0.134	0.357
-529.062	440.515	0.011	-0.024
-528.048	-77.140	0.228	-0.079
-527.033	-124.944	0.280	0.043
-526.018	-191.605	0.220	-0.002
-525.004	-200.000	-0.015	0.066
-523.989	111.075	-0.151	0.181
-522.975	-200.000	0.039	-0.329
-521.960	-166.851	-0.157	0.006
-520.945	182.715	0.155	-0.227
-519.931	800.000	0.017	0.054
-518.916	-136.964	0.266	0.030
-517.902	-200.000	0.011	-0.260
-516.887	-124.258	0.089	0.014
-515.872	800.000	-0.068	-0.230
-514.858	571.836	0.087	-0.212
-513.843	-3.692	-0.501	0.346
-512.829	-200.000	-0.046	0.410
-511.814	800.000	0.019	0.064
-510.799	-200.000	0.027	0.282
-509.785	36.487	-0.050	-0.044
-508.770	0.145	-0.107	0.076
-507.756	-78.975	-0.102	-0.034
-506.741	156.258	-0.182	-0.249
-505.726	-23.380	-0.060	0.036
-504.712	800.000	0.059	0.228
-503.697	90.393	-0.152	0.169
-502.683	249.896	0.107	0.180
-501.668	-143.617	-0.131	-0.012
-500.653	-78.819	-0.110	-0.037
-499.639	-40.822	-0.043	-0.022
-498.624	48.653	-0.119	0.111
-497.610	-145.998	0.117	0.010
-496.595	-1.541	0.101	0.071
-495.581	800.000	0.013	-0.053
-494.566	691.421	-0.126	-0.328
-493.551	80.909	-0.273	-0.293
-492.537	-200.000	-0.047	0.259
-491.522	-158.415	0.300	-0.017
-490.508	-200.000	-0.005	-0.120
-489.493	-62.471	-0.212	0.087
-488.478	-105.715	-0.041	-0.009
-487.464	-16.271	0.153	-0.097
-486.449	-38.456	-0.101	-0.053
-485.435	731.764	-0.139	0.369
-484.420	-41.867	0.228	-0.116
-483.405	-200.000	0.013	0.355
-482.391	-41.204	-0.193	0.099
-481.376	800.000	-0.019	-0.068
-480.362	-100.881	-0.212	0.052
-479.347	-131.544	-0.065	0.008
-478.332	-52.593	0.260	0.119
-477.318	-22.373	0.207	-0.124
-476.303	482.125	-0.046	-0.104
-475.289	-165.086	0.176	0.008
-474.274	153.015	-0.077	0.105
-473.259	-34.723	-0.195	0.106
-472.245	-200.000	0.024	0.252
-471.230	335.429	-0.042	0.082
-470.216	-162.632	0.165	0.008
-469.201	178.741	-0.132	-0.191
-468.186	-124.532	-0.229	-0.035
-467.172	-1.872	0.179	-0.125
-466.157	53.489	0.227	-0.216
-465.143	-184.396	0.217	-0.004
-464.128	138.246	-0.276	-0.360
-463.113	-19.809	0.203	-0.125
-462.099	-167.360	0.112	0.004
-461.084	67.369	-0.196	-0.198
-460.070	-200.000	-0.016	-0.180
-459.055	26.864	0.079	0.066
-458.040	79.315	0.205	0.218
-457.026	-80.446	0.184	0.061
-456.011	4.426	-0.074	-0.054
-454.997	-56.159	-0.235	-0.104
-453.982	369.335	0.039	0.078
-452.968	61.339	0.063	0.062
-451.953	150.756	0.123	0.165
-450.938	-7.093	-0.182	-0.122
-449.924	69.098	0.148	-0.151
-448.909	800.000	0.044	-0.185
-447.895	-200.000	0.007	-0.071
-446.880	-162.825	-0.032	0.002
-445.865	-200.000	-0.013	-0.115
-444.851	8.362	-0.185	0.138
-443.836	128.491	-0.105	0.132
-442.822	800.000	-0.052	0.220
-441.807	471.470	-0.032	-0.071
-440.792	54.341	-0.136	-0.129
-439.778	84.129	0.162	0.175
-438.763	-200.000	0.014	-0.137
-437.749	-132.588	-0.085	-0.011
-436.734	-18.857	-0.161	0.099
-435.719	800.000	0.069	-0.265
-434.705	101.460	0.110	0.127
-433.690	-110.292	-0.228	0.047
-432.676	-162.714	0.367	0.018
-431.661	-49.637	-0.143	-0.067
-430.646	76.019	-0.270	-0.283
-429.632	-73.193	-0.057	-0.021
-428.617	-50.182	-0.347	0.163
-427.603	-104.940	-0.253	-0.058
-426.588	129.048	0.226	0.286
-425.573	-43.193	0.141	-0.071
-424.559	800.000	-0.155	-0.596
-423.544	122.911	-0.197	0.245
-422.530	-200.000	-0.026	0.156
-421.515	800.000	0.067	0.195
-420.500	197.740	-0.183	-0.277
-419.486	-101.622	-0.336	0.081
-418.471	800.000	0.090	0.262
-417.457	172.403	-0.229	0.327
-416.442	233.092	0.018	-0.029
-415.428	389.222	-0.144	-0.296
-414.413	57.143	-0.029	0.028
-413.398	-183.986	-0.168	-0.003
-412.384	420.404	-0.059	0.125
-411.369	-115.092	-0.320	-0.060
-410.355	-27.460	-0.068	-0.039
-409.340	800.000	0.129	-0.398
-408.325	-200.000	0.032	0.147
-407.311	161.084	-0.176	0.243
-406.296	13.758	-0.209	-0.161
-405.282	-116.150	-0.274	0.050
-404.267	-71.638	0.053	-0.020
-403.252	-153.797	0.334	-0.023
-402.238	718.753	-0.107	0.280
-401.223	562.057	-0.036	-0.087
-400.209	142.445	0.110	0.144
-399.194	-139.378	0.114	-0.012
-398.179	-44.566	-0.269	-0.133
-397.165	75.221	0.090	-0.094
-396.150	148.224	0.081	-0.109
-395.136	800.000	0.055	-0.186
-394.121	42.636	0.216	0.194
-393.106	-28.905	-0.088	-0.050
-392.092	-200.000	0.014	-0.158
-391.077	74.404	0.126	0.131
-390.063	-150.308	0.226	0.017
-389.048	-86.807	-0.247	0.075
-388.033	-103.267	0.121	-0.028
-387.019	404.841	-0.099	0.206
-386.004	-200.000	0.007	-0.139
-384.990	-90.377	-0.135	-0.039
-383.975	298.608	-0.119	0.217
-382.960	-85.362	-0.175	-0.054
-381.946	-137.254	-0.139	0.016
-380.931	82.910	-0.224	-0.241
-379.917	-200.000	0.013	-0.209
-378.902	-67.638	0.361	0.140
-377.888	-127.230	-0.124	-0.018
-376.873	-159.719	0.294	0.016
-375.858	-143.882	0.179	-0.017
-374.844	-190.796	-0.111	-0.001
-373.829	216.485	0.146	0.230
-372.815	50.671	-0.214	-0.201
-371.800	385.462	-0.022	-0.045
-370.785	189.861	-0.085	-0.125
-369.771	389.002	0.091	-0.186
-368.756	-18.284	-0.040	-0.025
-367.742	-72.893	0.174	0.063
-366.727	-117.929	-0.226	0.040
-365.712	-75.072	0.340	-0.120
-364.698	450.339	-0.102	-0.224
-363.683	178.101	0.031	-0.045
-362.669	-200.000	-0.031	0.195
-361.654	-43.480	0.163	0.081
-360.639	10.255	-0.139	0.105
-359.625	244.359	0.052	-0.087
-358.610	61.585	0.071	0.070
-357.596	-40.516	-0.393	0.202
-356.581	350.795	0.210	-0.410
-355.566	-63.663	0.117	0.047
-354.552	-70.136	-0.245	0.092
-353.537	800.000	0.132	0.419
-352.523	-200.000	-0.031	0.143
-351.508	-200.000	-0.004	-0.343
-350.493	44.917	-0.036	-0.033
-349.479	800.000	0.043	-0.166
-348.464	-112.812	0.415	0.081
-347.450	113.390	0.219	0.263
-346.435	-200.000	0.188	0.000
-345.420	-33.163	-0.241	-0.132
-344.406	-200.000	0.056	-0.288
-343.391	-32.949	0.127	-0.070
-342.377	63.671	0.209	-0.207
-341.362	-200.000	0.031	0.299
-340.348	-200.000	0.001	0.388
-339.333	-200.000	0.008	-0.099
-338.318	567.987	-0.039	-0.094
-337.304	-200.000	-0.010	-0.162
-336.289	-68.894	0.258	0.098
-335.275	-1.183	0.293	-0.205
-334.260	357.600	-0.089	0.176
-333.245	-108.532	0.111	0.024
-332.231	-78.364	-0.152	0.052
-331.216	-126.503	0.184	0.027
-330.202	198.706	0.100	-0.151
-329.187	-89.578	-0.103	-0.030
-328.172	150.205	-0.222	0.298
-327.158	-150.831	-0.126	-0.009
-326.143	380.506	0.059	-0.119
-325.129	-172.975	0.152	0.005
-324.114	159.542	0.179	0.246
-323.099	-96.723	-0.116	0.030
-322.085	-29.513	0.090	-0.051
-321.070	141.298	0.148	-0.194
-320.056	598.398	-0.046	-0.112
-319.041	-56.076	-0.225	-0.099
-318.026	172.792	-0.045	-0.063
-317.012	-62.584	0.147	0.060
-315.997	800.000	-0.024	-0.077
-314.983	316.240	-0.132	-0.246
-313.968	800.000	-0.032	-0.107
-312.953	304.396	0.217	-0.396
-311.939	106.876	-0.257	-0.302
-310.924	191.927	-0.078	-0.116
-309.910	13.120	0.295	-0.226
-308.895	-48.141	0.324	-0.154
-307.880	-21.710	-0.117	0.070
-306.866	43.111	-0.090	0.081
-305.851	-200.000	0.002	0.054
-304.837	156.641	-0.040	0.054
-303.822	-82.687	-0.185	0.059
-302.807	-60.697	0.226	0.095
-301.793	211.602	0.166	0.258
-300.778	32.728	0.226	-0.193
-299.764	97.401	0.203	0.230
-298.749	-0.039	-0.210	0.147
-297.735	192.068	0.148	0.221
-296.720	-84.600	0.478	-0.149
-295.705	-65.733	0.112	-0.044
-294.691	-154.501	0.175	-0.012
-293.676	-70.316	-0.033	0.012
-292.662	-200.000	-0.012	-0.141
-291.647	80.491	0.273	0.290
-290.632	19.639	0.111	-0.088
-289.618	800.000	0.073	-0.255
-288.603	127.629	-0.359	0.450
-287.589	-75.705	-0.061	-0.021
-286.574	-130.188	-0.113	-0.015
-285.559	-144.864	-0.064	-0.006
-284.545	493.062	0.070	0.159
-283.530	89.993	0.249	-0.274
-282.516	-200.000	0.005	0.108
-281.501	201.586	0.106	0.162
-280.486	252.022	0.113	-0.190
-279.472	-75.704	0.220	-0.077
-278.457	-85.967	0.279	0.085
-277.443	-200.000	-0.008	0.168
-276.428	-33.181	-0.180	0.098
-275.413	800.000	-0.043	0.116
-274.399	-87.703	-0.197	0.059
-273.384	-146.775	0.584	0.050
-272.370	277.737	0.111	0.194
-271.355	202.917	0.018	0.027
-270.340	459.777	-0.093	0.205
-269.326	800.000	0.038	0.137
-268.311	159.639	0.224	-0.308
-267.297	118.592	0.210	0.256
-266.282	-96.044	0.276	0.072
-265.267	-89.668	-0.033	-0.009
-264.253	-11.006	0.046	0.030
-263.238	-30.990	0.204	0.114
-262.224	-200.000	-0.030	0.170
-261.209	-61.759	0.358	-0.148
-260.195	800.000	0.076	0.273
-259.180	800.000	-0.042	0.153
-258.165	346.634	0.084	-0.163
-257.151	97.876	-0.070	0.079
-256.136	-80.037	0.181	-0.060
-255.122	-126.702	-0.123	0.018
-254.107	-108.774	0.326	0.069
-253.092	-72.767	0.324	0.117
-252.078	65.562	-0.207	0.206
-251.063	-21.592	-0.053	0.032
-250.049	184.859	-0.258	0.376
-249.034	177.857	0.059	-0.085
-248.019	-200.000	-0.022	0.418
-247.005	800.000	-0.038	0.119
-245.990	800.000	0.141	0.451
-244.976	-41.186	0.214	0.109
-243.961	367.214	-0.090	-0.179
-242.946	-13.473	-0.242	0.154
-241.932	-69.247	0.046	0.017
-240.917	800.000	0.061	-0.179
-239.903	-77.678	0.150	0.051
-238.888	-200.000	0.050	0.294
-237.873	33.660	0.106	0.091
-236.859	656.882	-0.054	-0.136
-235.844	152.060	-0.055	-0.074
-234.830	-77.071	0.194	-0.067
-233.815	417.782	0.127	-0.267
-232.800	-17.454	-0.322	0.199
-231.786	-132.091	-0.141	-0.018
-230.771	8.935	-0.372	-0.276
-229.757	34.494	-0.214	-0.183
-228.742	-59.801	0.235	0.099
-227.727	800.000	-0.104	0.414
-226.713	-126.067	0.216	-0.032
-225.698	-74.179	-0.314	0.112
-224.684	-200.000	-0.046	0.201
-223.669	-120.870	-0.256	-0.042
-222.655	-111.822	-0.078	0.016
-221.640	-126.448	0.366	-0.053
-220.625	46.071	0.209	-0.190
-219.611	-93.007	0.089	-0.024
-218.596	653.683	-0.069	0.174
-217.582	86.751	-0.117	-0.126
-216.567	113.719	-0.091	-0.108
-215.552	-117.283	0.285	-0.051
-214.538	-200.000	0.020	0.371
-213.523	-39.781	-0.118	0.060
-212.509	-99.662	-0.344	-0.085
-211.494	-29.216	0.296	-0.167
-210.479	-43.462	0.096	0.048
-209.465	504.597	0.091	-0.207
-208.450	231.217	0.170	0.274
-207.436	562.212	0.199	0.473
-206.421	258.203	-0.130	-0.220
-205.406	300.344	0.104	0.188
-204.392	-50.847	-0.155	-0.071
-203.377	111.295	0.104	0.123
-202.363	-11.085	-0.118	0.077
-201.348	-10.052	0.288	-0.188
-200.333	-200.000	-0.033	0.337
-199.319	49.261	0.105	0.097
-198.304	-0.873	-0.117	-0.081
-197.290	-54.077	0.209	-0.093
-196.275	800.000	0.079	-0.242
-195.260	44.456	0.051	0.046
-194.246	614.805	0.144	0.355
-193.231	800.000	0.094	0.335
-192.217	-41.418	0.137	0.069
-191.202	144.868	-0.103	-0.135
-190.187	367.111	0.128	-0.253
-189.173	118.649	0.122	-0.148
-188.158	800.000	-0.073	-0.273
-187.144	-74.951	0.098	-0.035
-186.129	-35.904	-0.468	0.248
-185.114	-73.675	-0.278	-0.099
-184.100	47.607	0.155	0.142
-183.085	36.567	-0.269	-0.233
-182.071	78.092	-0.242	0.253
-181.056	162.500	-0.136	0.188
-180.042	52.872	-0.189	0.177
-179.027	-200.000	0.002	-0.083
-178.012	279.184	0.045	0.079
-176.998	-37.042	0.332	0.175
-175.983	-44.166	-0.233	0.115
-174.969	90.647	0.308	0.338
-173.954	-85.798	0.108	0.033
-172.939	82.133	-0.335	0.357
-171.925	-102.033	0.211	0.050
-170.910	-116.810	0.168	0.030
-169.896	112.285	-0.062	-0.073
-168.881	800.000	-0.035	-0.128
-167.866	-85.939	0.366	-0.111
-166.852	-8.476	-0.012	0.008
-165.837	27.983	0.041	0.034
-164.823	-34.556	-0.275	0.148
-163.808	241.659	0.056	-0.091
-162.793	-82.188	0.145	-0.047
-161.779	-200.000	-0.035	-0.292
-160.764	-65.572	0.069	0.027
-159.750	305.226	0.057	-0.104
-158.735	-51.900	0.127	-0.058
-157.720	-93.743	0.296	0.080
-156.706	599.515	-0.013	-0.032
-155.691	-200.000	0.003	-0.044
-154.677	-200.000	-0.017	0.120
-153.662	800.000	0.071	-0.217
-152.647	117.417	0.313	0.378
-151.633	800.000	0.064	0.202
-150.618	-200.000	0.036	0.188
-149.604	249.593	-0.131	0.218
-148.589	34.083	0.150	-0.128
-147.574	-0.097	-0.157	0.110
-146.560	58.356	-0.133	0.128
-145.545	-120.099	-0.251	0.042
-144.531	162.845	0.042	0.058
-143.516	84.214	-0.225	0.241
-142.502	-143.905	0.199	-0.018
-141.487	-200.000	0.052	0.302
-140.472	-200.000	-0.011	0.257
-139.458	134.306	-0.063	-0.081
-138.443	-52.683	-0.223	-0.101
-137.429	-100.335	0.479	-0.117
-136.414	89.679	-0.204	-0.223
-135.399	-151.439	0.179	-0.013
-134.385	800.000	0.078	-0.221
-133.370	61.080	0.190	0.185
-132.356	304.628	-0.119	0.217
-131.341	-12.899	-0.304	0.194
-130.326	-164.581	-0.296	-0.013
-129.312	-49.474	0.241	0.113
-128.297	-200.000	-0.056	-0.367
-127.283	198.649	0.050	-0.074
-126.268	-166.753	-0.356	0.014
-125.253	-140.078	-0.235	0.024
-124.239	31.876	0.123	0.104
-123.224	-164.328	-0.182	0.008
-122.210	330.217	-0.085	0.160
-121.195	110.535	-0.147	-0.173
-120.180	800.000	-0.041	-0.171
-119.166	114.608	-0.175	-0.209
-118.151	-57.839	0.257	-0.110
-117.137	131.122	0.185	0.233
-116.122	437.079	0.187	0.398
-115.107	-200.000	0.005	0.085
-114.093	577.162	0.069	-0.165
-113.078	11.960	-0.150	0.113
-112.064	-85.068	0.356	0.109
-111.049	161.434	0.191	0.262
-110.034	-62.826	0.147	0.060
-109.020	-200.000	0.007	0.040
-108.005	148.798	0.145	0.192
-106.991	37.272	0.058	-0.051
-105.976	-14.003	0.247	-0.156
-104.962	334.818	0.090	-0.171
-103.947	-103.218	0.556	0.129
-102.932	94.871	-0.090	-0.100
-101.918	318.486	0.142	0.263
-100.903	251.026	0.221	0.368
-99.889	41.779	-0.156	-0.139
-98.874	-200.000	0.001	0.283
-97.859	-21.420	0.262	0.156
-96.845	24.293	0.112	-0.091
-95.830	14.760	-0.146	-0.112
-94.816	-200.000	-0.019	-0.596
-93.801	534.773	-0.079	0.184
-92.786	-53.309	0.161	-0.072
-91.772	-130.319	0.250	-0.033
-90.757	800.000	-0.088	0.263
-89.743	-40.434	-0.097	0.049
-88.728	-200.000	0.031	0.168
-87.713	253.416	0.132	-0.221
-86.699	135.826	-0.216	-0.275
-85.684	-200.000	-0.012	0.213
-84.670	54.361	-0.231	0.218
-83.655	256.358	-0.126	0.211
-82.640	58.992	-0.164	-0.158
-81.626	217.979	0.064	-0.100
-80.611	183.331	-0.061	-0.088
-79.597	242.243	0.117	0.191
-78.582	-200.000	-0.042	-0.245
-77.567	800.000	-0.111	0.330
-76.553	191.823	-0.131	0.193
-75.538	800.000	-0.072	0.200
-74.524	-49.725	0.114	-0.053
-73.509	800.000	-0.077	0.264
-72.494	20.379	-0.200	-0.158
-71.480	-200.000	0.037	0.255
-70.465	0.099	0.203	-0.141
-69.451	-84.010	-0.299	0.093
-68.436	175.294	0.097	-0.137
-67.422	-200.000	0.001	0.088
-66.407	-128.074	-0.155	0.022
-65.392	53.447	-0.121	-0.113
-64.378	11.185	0.163	0.122
-63.363	-75.895	0.366	-0.127
-62.349	472.520	-0.137	0.303
-61.334	63.197	-0.884	-0.866
-60.319	135.814	0.477	0.607
-59.305	800.000	-0.427	-1.174
-58.290	176.483	0.863	1.225
-57.276	705.841	0.591	1.523
-56.261	-200.000	117.396	641.758
-55.246	482.379	1555.581	3452.497
-54.232	172.599	2733.207	3842.955
-53.217	97.539	2296.787	2577.506
-52.203	35.020	1902.672	1627.362
-51.188	29.201	1696.798	1406.938
-50.173	26.787	1655.846	1354.912
-49.159	46.672	1714.103	1554.472
-48.144	45.654	1727.857	1559.138
-47.130	28.621	1684.537	1392.152
-46.115	26.098	1670.166	1361.216
-45.100	26.040	1664.889	1356.423
-44.086	25.946	1662.693	1353.876
-43.071	25.912	1660.260	1351.585
-42.057	25.921	1657.754	1349.557
-41.042	25.937	1655.867	1348.090
-40.027	25.891	1653.829	1346.036
-39.013	25.910	1651.948	1344.588
-37.998	25.958	1649.992	1343.304
-36.984	25.933	1649.562	1342.713
-35.969	25.948	1648.054	1341.543
-34.954	26.051	1646.281	1340.816
-33.940	25.980	1644.700	1338.942
-32.925	25.981	1642.920	1337.447
-31.911	26.078	1640.875	1336.447
-30.896	26.024	1639.277	1334.696
-29.881	26.006	1638.013	1333.478
-28.867	26.061	1636.138	1332.306
-27.852	26.069	1634.604	1331.067
-26.838	26.094	1633.048	1329.931
-25.823	26.069	1631.600	1328.514
-24.809	26.084	1630.533	1327.702
-23.794	26.055	1629.663	1326.727
-22.779	26.123	1627.849	1325.695
-21.765	26.016	1626.047	1323.395
-20.750	26.053	1624.907	1322.682
-19.736	26.074	1623.110	1321.323
-18.721	26.096	1621.772	1320.342
-17.706	26.153	1619.951	1319.222
-16.692	26.152	1618.224	1317.758
-15.677	26.160	1616.671	1316.499
-14.663	26.148	1615.572	1315.463
-13.648	26.132	1614.163	1314.145
-12.633	26.244	1612.699	1313.721
-11.619	26.145	1610.757	1311.366
-10.604	26.104	1609.698	1310.154
-9.590	26.095	1608.523	1309.083
-8.575	26.145	1606.790	1307.977
-7.560	26.114	1605.929	1307.003
-6.546	26.086	1604.851	1305.872
-5.531	26.016	1604.136	1304.731
-4.517	26.110	1602.578	1304.091
-3.502	26.102	1601.593	1303.183
-2.487	26.220	1599.668	1302.415
-1.473	25.756	1587.676	1289.275
-0.458	23.002	1568.056	1253.785
0.556	21.249	1569.928	1221.512
1.571	18.819	1593.816	1222.720
2.586	18.480	1605.900	1229.444
3.600	16.695	1551.554	1175.351
4.615	10.475	1445.102	1054.280
5.629	4.869	1386.284	976.229
6.644	4.024	1378.423	965.339
7.659	4.099	1377.260	964.907
8.673	4.126	1376.544	964.487
9.688	4.120	1374.449	962.898
10.702	4.135	1371.387	960.755
11.717	6.644	1376.594	979.921
12.731	13.930	1389.807	1034.786
13.746	20.524	1401.104	1084.380
14.761	22.487	1403.269	1098.215
15.775	21.993	1401.556	1093.699
16.790	20.967	1399.405	1085.540
17.804	20.325	1396.808	1079.437
18.819	20.094	1395.891	1077.195
19.834	19.990	1394.542	1075.412
20.848	19.984	1393.885	1074.776
21.863	19.712	1393.002	1072.312
22.877	19.747	1391.380	1071.183
23.892	19.577	1390.852	1069.631
24.907	19.553	1389.986	1068.724
25.921	19.469	1388.708	1067.123
26.936	19.635	1387.581	1067.190
27.950	19.568	1386.903	1066.160
28.965	19.686	1386.782	1066.700
29.980	19.854	1385.238	1066.456
30.994	19.920	1384.350	1066.084
32.009	20.074	1382.794	1065.736
33.023	19.987	1381.963	1064.472
34.038	19.861	1380.473	1062.452
35.053	19.781	1378.906	1060.662
36.067	19.760	1378.181	1059.882
37.082	19.748	1376.844	1058.685
38.096	19.782	1376.459	1058.505
39.111	19.799	1375.537	1057.807
40.126	19.632	1374.617	1055.985
41.140	19.521	1373.185	1054.112
42.155	19.225	1372.835	1051.948
43.169	19.159	1373.017	1051.591
44.184	19.090	1372.485	1050.665
45.199	19.226	1371.899	1050.952
46.213	19.437	1371.848	1052.108
47.228	19.539	1371.262	1052.187
48.242	19.597	1370.124	1051.572
49.257	19.690	1368.386	1050.714
50.271	19.607	1367.232	1049.230
51.286	19.647	1365.984	1048.426
52.301	19.607	1364.638	1047.055
53.315	19.595	1362.649	1045.361
54.330	19.337	1362.513	1043.605
55.344	19.297	1360.959	1042.083
56.359	19.319	1359.943	1041.343
57.374	19.245	1359.149	1040.194
58.388	19.163	1358.543	1039.147
59.403	19.138	1357.866	1038.382
60.417	19.140	1357.051	1037.683
61.432	19.049	1356.227	1036.412
62.447	19.007	1354.964	1035.102
63.461	19.020	1353.601	1034.049
64.476	18.932	1352.954	1032.931
65.490	18.911	1351.453	1031.568
66.505	18.987	1350.051	1030.862
67.520	18.953	1349.109	1029.848
68.534	18.912	1348.592	1029.122
69.549	18.916	1347.068	1027.888
70.563	18.907	1345.801	1026.778
71.578	18.775	1344.417	1024.841
72.593	18.689	1343.425	1023.485
73.607	18.698	1343.286	1023.341
74.622	18.723	1342.258	1022.618
75.636	18.780	1342.056	1022.711
76.651	18.878	1340.524	1022.038
77.666	18.863	1340.502	1021.839
78.680	18.957	1340.334	1022.179
79.695	18.951	1339.900	1021.725
80.709	19.068	1339.343	1021.900
81.724	19.336	1337.990	1022.368
82.739	19.331	1337.293	1021.715
83.753	19.464	1336.864	1022.087
84.768	19.737	1335.591	1022.637
85.782	19.846	1334.777	1022.570
86.797	19.779	1333.647	1021.215
87.812	19.664	1332.026	1019.205
88.826	19.609	1331.374	1018.295
89.841	19.826	1330.451	1018.773
90.855	19.890	1329.131	1018.052
91.870	19.914	1328.648	1017.734
92.884	19.945	1327.655	1017.064
93.899	19.992	1326.977	1016.732
94.914	20.023	1326.305	1016.305
95.928	19.931	1325.286	1014.899
96.943	19.951	1324.812	1014.563
97.957	19.858	1323.446	1012.882
98.972	19.836	1322.539	1011.965
99.987	19.729	1321.733	1010.635
101.001	19.811	1320.779	1010.294
102.016	19.781	1319.983	1009.421
103.030	19.780	1318.850	1008.464
104.045	19.828	1317.610	1007.703
105.060	19.522	1316.545	1005.020
106.074	19.311	1314.943	1002.483
107.089	19.062	1313.066	999.517
108.103	18.932	1312.228	998.035
109.118	18.817	1310.840	996.226
110.133	19.003	1309.595	996.267
111.147	19.076	1307.888	995.304
112.162	19.072	1306.958	994.480
113.176	19.282	1305.164	994.243
114.191	19.217	1305.269	993.858
115.206	19.143	1303.818	992.241
116.220	19.199	1302.153	991.208
117.235	19.212	1300.681	990.072
118.249	19.126	1300.312	989.208
119.264	19.072	1299.045	987.847
120.279	19.045	1297.730	986.606
121.293	18.873	1297.026	984.999
122.308	18.759	1295.829	983.349
123.322	18.711	1294.941	982.317
124.337	18.700	1293.609	981.154
125.352	18.741	1292.355	980.351
126.366	18.698	1291.130	979.088
127.381	18.642	1290.305	978.059
128.395	18.644	1289.298	977.217
129.410	18.820	1288.515	977.542
130.424	18.907	1287.824	977.425
131.439	19.011	1287.324	977.551
132.454	19.078	1286.692	977.362
133.468	19.070	1285.880	976.615
134.483	19.081	1285.059	975.966
135.497	19.121	1284.256	975.497
136.512	19.207	1282.301	974.410
137.527	19.177	1281.507	973.554
138.541	19.227	1280.028	972.629
139.556	19.345	1279.427	972.748
140.570	19.544	1278.144	972.812
141.585	19.538	1277.367	972.099
142.600	19.682	1276.078	971.839
143.614	19.800	1275.392	971.893
144.629	19.904	1274.348	971.597
145.643	19.821	1273.425	970.341
146.658	19.517	1272.298	967.694
147.673	19.358	1270.768	965.556
148.687	19.261	1269.461	963.932
149.702	19.291	1267.968	962.885
150.716	19.147	1266.613	960.962
151.731	19.185	1265.292	960.089
152.746	19.151	1264.272	959.042
153.760	19.363	1262.937	959.124
154.775	19.344	1262.448	958.560
155.789	19.445	1261.246	958.122
156.804	19.466	1260.742	957.771
157.819	19.653	1259.108	957.484
158.833	19.730	1258.770	957.571
159.848	19.835	1258.421	957.797
160.862	19.872	1257.120	956.928
161.877	19.472	1255.467	953.380
162.892	19.208	1254.407	951.028
163.906	19.194	1253.369	950.080
164.921	19.207	1252.284	949.247
165.935	19.276	1251.800	949.177
166.950	19.382	1251.149	949.180
167.964	19.411	1250.161	948.506
168.979	19.286	1249.629	947.335
169.994	19.356	1249.008	947.161
171.008	19.390	1248.169	946.630
172.023	19.516	1247.435	946.681
173.037	19.623	1247.290	947.074
174.052	19.727	1245.843	946.458
175.067	19.336	1244.652	943.334
176.081	19.136	1243.748	941.469
177.096	19.204	1242.417	940.748
178.110	19.283	1241.424	940.350
179.125	19.402	1240.224	940.005
180.140	19.455	1239.011	939.289
181.154	19.614	1238.473	939.665
182.169	19.688	1237.578	939.304
183.183	19.765	1236.519	938.834
184.198	19.756	1234.824	937.418
185.213	19.778	1233.907	936.755
186.227	19.864	1232.943	936.410
187.242	19.784	1232.413	935.489
188.256	20.018	1231.345	935.862
189.271	20.026	1230.165	934.923
190.286	19.769	1228.917	932.509
191.300	19.334	1227.558	929.048
192.315	19.190	1226.943	927.727
193.329	19.350	1226.538	928.201
194.344	19.348	1226.375	927.983
195.359	19.430	1225.300	927.530
196.373	19.634	1224.673	928.070
197.388	19.762	1224.798	928.768
198.402	19.876	1224.410	929.001
199.417	20.074	1224.070	929.727
200.432	20.257	1222.983	929.797
201.446	20.246	1222.960	929.637
202.461	20.439	1222.112	929.946
203.475	20.344	1220.842	928.390
204.490	20.012	1219.395	925.433
205.504	19.940	1217.843	923.789
206.519	19.811	1216.515	922.012
207.534	19.639	1215.879	920.532
208.548	19.661	1214.833	919.777
209.563	19.685	1214.546	919.604
210.577	19.689	1213.235	918.553
211.592	19.941	1212.136	918.979
212.607	20.116	1211.472	919.319
213.621	20.117	1210.946	918.848
214.636	19.976	1209.910	917.230
215.650	20.102	1208.758	916.942
216.665	20.252	1207.930	917.030
217.680	20.368	1207.166	916.978
218.694	20.433	1206.183	916.494
219.709	20.306	1205.711	915.386
220.723	20.216	1205.003	914.294
221.738	20.292	1204.080	913.913
222.753	20.094	1203.509	912.354
223.767	20.214	1202.775	912.351
224.782	20.349	1202.427	912.713
225.796	20.554	1201.676	913.138
226.811	20.358	1201.114	911.604
227.826	20.236	1200.211	910.199
228.840	20.225	1198.981	909.126
229.855	20.159	1198.407	908.265
230.869	20.184	1197.353	907.513
231.884	20.108	1196.506	906.397
232.899	19.943	1195.951	905.033
233.913	19.876	1194.956	903.853
234.928	19.839	1193.850	902.741
235.942	19.769	1193.443	901.986
236.957	19.792	1192.627	901.411
237.972	19.788	1191.871	900.738
238.986	19.825	1191.373	900.475
240.001	19.878	1190.511	900.019
241.015	19.875	1189.860	899.433
242.030	20.057	1188.983	899.634
243.045	20.051	1188.522	899.179
244.059	20.123	1187.769	898.900
245.074	20.134	1187.168	898.421
246.088	20.235	1186.249	898.170
247.103	20.516	1185.222	898.766
248.117	20.612	1184.851	898.902
249.132	20.775	1184.534	899.426
250.147	20.893	1184.404	899.855
251.161	21.159	1183.335	900.335
252.176	21.090	1182.903	899.570
253.190	21.272	1182.319	899.988
254.205	21.210	1181.919	899.285
255.220	21.304	1180.776	898.819
256.234	21.235	1180.272	898.000
257.249	21.057	1180.162	896.921
258.263	21.130	1179.182	896.469
259.278	21.217	1178.273	896.148
260.293	21.255	1177.940	896.008
261.307	21.380	1177.227	896.030
262.322	21.523	1176.320	895.990
263.336	21.281	1176.136	894.531
264.351	21.340	1175.351	894.158
265.366	21.485	1174.550	894.213
266.380	21.385	1173.725	892.995
267.395	21.265	1173.150	891.863
268.409	21.112	1171.910	890.063
269.424	21.141	1171.393	889.738
270.439	21.018	1170.851	888.620
271.453	21.107	1169.607	888.050
272.468	20.949	1168.794	886.553
273.482	20.736	1168.347	885.053
274.497	20.960	1167.319	885.330
275.512	21.026	1166.496	884.964
276.526	20.917	1165.934	883.908
277.541	20.903	1165.366	883.327
278.555	21.016	1164.613	883.252
279.570	21.222	1164.045	883.783
280.585	21.333	1163.858	884.127
281.599	21.313	1162.661	883.039
282.614	21.029	1161.615	880.733
283.628	21.039	1159.730	879.273
284.643	20.993	1159.477	878.772
285.657	20.952	1158.361	877.642
286.672	20.995	1157.240	876.933
287.687	20.988	1156.520	876.276
288.701	21.189	1155.626	876.530
289.716	21.042	1154.691	875.006
290.730	21.180	1154.296	875.321
291.745	21.138	1153.561	874.476
292.760	21.267	1153.033	874.641
293.774	21.332	1152.825	874.733
294.789	21.378	1152.598	874.715
295.803	21.472	1151.100	873.968
296.818	21.201	1150.357	871.975
297.833	21.082	1149.649	870.768
298.847	21.019	1149.292	870.106
299.862	21.099	1148.071	869.501
300.876	21.106	1147.364	868.926
301.891	21.313	1147.264	869.804
302.906	21.572	1146.228	870.228
303.920	21.506	1145.945	869.610
304.935	21.677	1145.590	870.111
305.949	21.757	1145.221	870.152
306.964	21.761	1144.154	869.281
307.979	21.660	1142.673	867.583
308.993	21.473	1142.506	866.450
310.008	21.607	1141.616	866.365
311.022	21.765	1141.136	866.705
312.037	21.568	1140.485	865.157
313.052	21.456	1139.056	863.443
314.066	21.288	1137.993	861.736
315.081	21.167	1136.794	860.156
316.095	21.148	1136.073	859.438
317.110	21.058	1135.199	858.259
318.125	21.175	1134.496	858.224
319.139	21.119	1134.092	857.568
320.154	21.193	1132.879	856.942
321.168	21.042	1133.220	856.380
322.183	21.194	1131.898	856.050
323.197	21.282	1132.019	856.499
324.212	21.237	1131.124	855.527
325.227	21.340	1130.729	855.653
326.241	21.299	1129.982	854.814
327.256	21.243	1128.794	853.567
328.270	21.120	1128.188	852.430
329.285	21.173	1127.369	851.996
330.300	21.122	1126.174	850.769
331.314	21.149	1125.403	850.241
332.329	21.181	1124.750	849.828
333.343	21.368	1123.786	849.933
334.358	21.472	1122.878	849.678
335.373	21.613	1122.508	850.005
336.387	21.620	1121.519	849.215
337.402	21.602	1120.703	848.437
338.416	21.729	1120.092	848.514
339.431	21.836	1119.614	848.593
340.446	21.990	1118.842	848.680
341.460	22.160	1118.565	849.215
342.475	22.186	1118.144	848.948
343.489	22.046	1117.356	847.597
344.504	22.260	1116.162	847.646
345.519	22.180	1115.393	846.601
346.533	22.406	1114.483	846.924
347.548	22.298	1114.044	845.998
348.562	22.250	1113.282	845.112
349.577	21.962	1111.942	842.638
350.592	21.696	1110.681	840.333
351.606	21.640	1110.196	839.621
352.621	21.673	1109.012	838.813
353.635	21.486	1108.519	837.472
354.650	21.657	1107.902	837.746
355.665	21.655	1107.673	837.490
356.679	21.696	1107.194	837.249
357.694	21.863	1106.611	837.535
358.708	21.810	1106.057	836.787
359.723	21.954	1105.297	836.826
360.738	22.006	1104.295	836.239
361.752	21.907	1103.798	835.317
362.767	21.966	1103.165	835.046
363.781	22.040	1102.889	835.115
364.796	22.147	1102.549	835.290
365.810	22.349	1101.653	835.498
366.825	22.493	1101.195	835.760
367.840	22.649	1100.846	836.163
368.854	22.659	1100.318	835.731
369.869	22.499	1099.876	834.566
370.883	22.446	1098.673	833.327
371.898	22.319	1097.908	832.072
372.913	22.343	1097.170	831.553
373.927	22.368	1096.896	831.390
374.942	22.577	1096.363	831.900
375.956	22.454	1095.926	830.915
376.971	22.407	1094.888	829.834
377.986	22.508	1094.486	829.932
379.000	22.738	1093.907	830.502
380.015	22.657	1093.895	830.037
381.029	22.752	1093.052	829.770
382.044	22.741	1092.232	829.021
383.059	22.647	1091.543	827.986
384.073	22.650	1090.860	827.410
385.088	22.770	1089.614	826.951
386.102	22.713	1088.372	825.669
387.117	22.599	1087.438	824.352
388.132	22.321	1086.560	822.319
389.146	22.314	1085.744	821.595
390.161	22.213	1084.945	820.446
391.175	22.256	1084.632	820.337
392.190	22.369	1083.728	820.108
393.205	22.704	1082.843	820.925
394.219	22.532	1082.160	819.532
395.234	22.398	1081.235	818.137
396.248	22.414	1079.816	817.068
397.263	22.311	1078.858	815.793
398.278	22.261	1078.196	814.985
399.292	22.183	1077.280	813.860
400.307	21.941	1076.786	812.295
401.321	22.001	1076.333	812.158
402.336	22.054	1075.714	811.867
403.350	22.085	1074.696	811.168
404.365	22.325	1074.016	811.691
405.380	22.409	1073.259	811.433
406.394	22.342	1072.854	810.748
407.409	22.594	1072.020	811.207
408.423	22.708	1071.514	811.276
409.438	22.681	1071.497	811.068
410.453	22.818	1070.727	811.042
411.467	22.982	1069.692	810.937
412.482	23.005	1069.153	810.563
413.496	23.209	1068.438	810.885
414.511	23.092	1068.130	810.041
415.526	23.193	1067.654	810.073
416.540	23.275	1067.418	810.195
417.555	23.289	1066.613	809.578
418.569	23.119	1065.898	808.186
419.584	23.045	1065.884	807.765
420.599	23.069	1065.204	807.292
421.613	157.887	1405.064	1798.066
422.628	145.347	1454.560	1798.127
