DTS Sentinel unit serial number:	SN413079Multiplexer serial number:	ORYXHardware model number:	OX4-SRSoftware version number:	ORYX F/W v4.00 Oryx Data Collector v3.7.2.0data status	okinstallation	princeton_trtdifferential loss correction	single-endedforward channel	channel 2reverse channel	N/Adate	2019/09/17time	11:51:34forward acquisition time	60.00reverse acquisition time	0.00gamma	496.2192k internal	0.2323k external	0.2323temperature offset calibration	0.9988default loss term (dB/km)	0.3790temperature slope calibration	1.0000multiplexer offset coefficient	1.0000multiplexer slope coefficient	1.0000fibre end	0.00T internal ref (°C)	30.98T ext. ref 1 (°C)	0.41T ext. ref 2 (°C)	26.91length (m)	temperature (°C)	Stokes	anti-Stokes-747.200	-69.090	-0.036	-0.014
-746.185	275.390	-0.127	0.228
-745.171	54.756	-0.179	0.175
-744.156	-115.365	-0.257	0.049
-743.142	766.026	0.142	-0.390
-742.127	-200.000	0.007	0.223
-741.112	296.487	-0.061	0.112
-740.098	146.466	-0.177	0.239
-739.083	-161.614	0.245	-0.013
-738.069	11.733	0.384	0.298
-737.054	-35.458	-0.151	-0.083
-736.039	172.527	0.216	0.314
-735.025	-93.116	0.132	0.037
-734.010	-161.342	-0.157	0.008
-732.996	-30.336	-0.338	-0.193
-731.981	159.896	0.190	-0.267
-730.966	275.654	0.114	0.203
-729.952	117.391	0.128	0.159
-728.937	-200.000	-0.008	-0.082
-727.923	-200.000	-0.046	0.330
-726.908	-181.627	0.110	0.002
-725.894	800.000	0.041	-0.177
-724.879	179.043	-0.097	-0.143
-723.864	32.736	-0.179	-0.156
-722.850	144.709	-0.053	0.072
-721.835	25.601	-0.463	0.389
-720.821	-73.133	0.413	-0.153
-719.806	49.071	-0.298	-0.282
-718.791	800.000	-0.088	-0.251
-717.777	800.000	0.032	-0.138
-716.762	-200.000	-0.018	0.205
-715.748	-200.000	-0.009	-0.087
-714.733	-200.000	-0.083	0.400
-713.718	-200.000	-0.045	-0.221
-712.704	144.718	-0.014	0.019
-711.689	-96.508	-0.130	-0.034
-710.675	-23.679	-0.159	0.096
-709.660	-200.000	0.074	-0.348
-708.645	12.460	0.039	0.030
-707.631	165.065	0.049	-0.069
-706.616	70.222	0.179	0.187
-705.602	-15.431	0.141	-0.091
-704.587	195.556	-0.110	0.168
-703.572	264.442	-0.109	-0.191
-702.558	-55.810	-0.499	0.225
-701.543	-113.015	0.373	0.074
-700.529	800.000	-0.047	-0.165
-699.514	110.360	-0.185	-0.224
-698.499	121.387	0.097	-0.122
-697.485	800.000	0.031	0.123
-696.470	-9.745	0.082	-0.055
-695.456	800.000	-0.045	-0.182
-694.441	800.000	0.040	0.135
-693.426	800.000	0.029	0.092
-692.412	-200.000	0.026	0.230
-691.397	45.343	-0.044	-0.041
-690.383	20.094	-0.229	-0.186
-689.368	55.256	0.075	0.073
-688.354	133.234	-0.229	0.298
-687.339	220.366	-0.066	0.107
-686.324	-93.985	-0.117	-0.032
-685.310	-74.924	-0.086	-0.031
-684.295	800.000	0.061	0.197
-683.281	-45.910	0.187	-0.093
-682.266	84.233	0.157	-0.173
-681.251	-200.000	0.016	0.266
-680.237	-48.664	0.108	0.052
-679.222	665.668	0.017	-0.044
-678.208	-0.490	-0.117	-0.083
-677.193	-26.066	0.078	0.046
-676.178	21.719	-0.264	0.216
-675.164	63.719	0.424	0.429
-674.149	-124.578	-0.302	0.047
-673.135	326.455	0.063	-0.121
-672.120	-149.981	0.135	0.011
-671.105	-29.133	-0.290	-0.167
-670.091	-200.000	0.038	-0.342
-669.076	-29.257	-0.079	-0.045
-668.062	800.000	0.062	-0.237
-667.047	-200.000	0.060	0.370
-666.032	-46.358	0.270	-0.134
-665.018	-54.936	0.253	-0.115
-664.003	-29.000	-0.325	-0.188
-662.989	-96.707	-0.055	0.014
-661.974	73.132	0.088	-0.093
-660.959	400.188	-0.069	-0.145
-659.945	-182.266	-0.273	-0.005
-658.930	-49.262	-0.286	-0.137
-657.916	191.838	0.073	0.111
-656.901	-135.447	-0.337	-0.040
-655.886	-57.116	-0.131	0.058
-654.872	44.263	0.064	0.059
-653.857	-137.317	-0.037	-0.004
-652.843	-200.000	0.002	0.095
-651.828	-32.443	-0.405	0.227
-650.814	-200.000	-0.050	0.334
-649.799	466.833	-0.022	0.049
-648.784	-200.000	-0.009	-0.045
-647.770	-64.943	-0.270	0.110
-646.755	57.577	0.238	0.234
-645.741	49.664	0.107	-0.102
-644.726	-171.780	-0.519	0.017
-643.711	-200.000	-0.007	0.150
-642.697	394.167	-0.060	-0.125
-641.682	-104.361	0.206	-0.048
-640.668	279.358	-0.081	0.145
-639.653	-127.734	0.373	-0.054
-638.638	-32.642	0.276	-0.155
-637.624	-25.002	0.150	-0.090
-636.609	-15.913	-0.137	-0.088
-635.595	263.549	-0.106	0.186
-634.580	800.000	0.092	-0.362
-633.565	-51.729	-0.484	-0.227
-632.551	-6.382	-0.015	-0.010
-631.536	-56.401	-0.331	0.148
-630.522	79.175	-0.202	-0.217
-629.507	44.628	-0.073	0.067
-628.492	-31.818	0.370	-0.208
-627.478	-66.210	-0.169	-0.068
-626.463	648.508	-0.081	-0.208
-625.449	50.946	0.084	0.080
-624.434	800.000	0.061	0.223
-623.419	7.609	0.194	-0.146
-622.405	123.448	0.184	0.232
-621.390	154.292	0.069	-0.095
-620.376	311.623	-0.102	-0.193
-619.361	68.797	-0.365	-0.377
-618.346	-87.640	-0.416	0.126
-617.332	-200.000	0.024	-0.329
-616.317	-200.000	-0.064	-0.301
-615.303	800.000	0.052	-0.201
-614.288	163.799	0.087	0.123
-613.273	0.367	-0.181	0.130
-612.259	-106.558	-0.310	-0.069
-611.244	74.759	-0.116	0.123
-610.230	10.413	-0.230	0.176
-609.215	-200.000	0.006	-0.054
-608.201	101.074	0.169	-0.197
-607.186	-200.000	0.011	0.056
-606.171	-200.000	0.026	0.179
-605.157	-15.478	-0.178	0.114
-604.142	-200.000	0.009	-0.097
-603.128	-89.241	0.208	0.062
-602.113	-155.131	-0.159	0.010
-601.098	-85.280	-0.343	-0.108
-600.084	800.000	0.038	-0.121
-599.069	-107.443	-0.048	0.011
-598.055	-68.744	0.227	0.088
-597.040	41.336	-0.244	-0.221
-596.025	-63.083	0.177	-0.073
-595.011	98.409	0.213	-0.246
-593.996	29.336	-0.041	-0.035
-592.982	-75.153	0.126	-0.045
-591.967	31.964	-0.103	0.089
-590.952	-200.000	-0.063	-0.313
-589.938	454.178	0.028	-0.062
-588.923	-180.825	0.295	0.006
-587.909	-200.000	0.053	0.250
-586.894	-34.401	0.120	0.066
-585.879	230.082	0.090	0.148
-584.865	800.000	-0.052	-0.150
-583.850	-200.000	0.002	-0.293
-582.836	-200.000	0.023	-0.426
-581.821	226.194	0.041	-0.066
-580.806	-149.113	0.309	-0.025
-579.792	-200.000	-0.023	-0.357
-578.777	411.404	0.012	0.026
-577.763	528.306	-0.184	0.436
-576.748	60.567	-0.286	-0.284
-575.733	-54.896	0.229	0.104
-574.719	-200.000	-0.062	-0.297
-573.704	89.792	-0.212	0.238
-572.690	-2.862	0.099	0.069
-571.675	-200.000	0.025	-0.203
-570.661	-200.000	-0.037	-0.223
-569.646	-32.193	0.348	0.195
-568.631	-200.000	0.011	0.124
-567.617	800.000	-0.052	0.155
-566.602	152.719	-0.273	-0.374
-565.588	-9.937	-0.106	-0.071
-564.573	126.167	0.129	0.163
-563.558	-110.606	0.268	0.056
-562.544	-200.000	0.005	0.222
-561.529	62.040	-0.091	0.091
-560.515	87.791	0.169	-0.187
-559.500	50.513	0.146	0.139
-558.485	213.564	-0.041	0.065
-557.471	800.000	0.032	0.120
-556.456	-134.414	-0.049	0.006
-555.442	800.000	-0.016	0.061
-554.427	-86.090	-0.060	-0.019
-553.412	-113.691	0.233	-0.046
-552.398	800.000	0.063	0.178
-551.383	167.607	-0.066	-0.095
-550.369	-128.255	-0.144	0.021
-549.354	-176.967	-0.062	-0.002
-548.339	-133.467	-0.166	0.021
-547.325	-94.803	-0.092	0.025
-546.310	-200.000	0.092	-0.428
-545.296	339.725	-0.083	0.162
-544.281	356.758	-0.032	-0.065
-543.266	298.186	-0.115	-0.212
-542.252	409.442	0.068	0.144
-541.237	-200.000	-0.003	0.408
-540.223	75.838	0.058	-0.061
-539.208	262.617	-0.137	0.238
-538.193	-149.259	0.288	0.023
-537.179	60.471	-0.022	0.022
-536.164	415.243	0.053	0.112
-535.150	-109.166	-0.132	0.028
-534.135	800.000	-0.034	0.115
-533.121	26.860	-0.304	-0.255
-532.106	271.691	0.102	-0.180
-531.091	-71.139	-0.211	-0.079
-530.077	84.811	-0.142	0.156
-529.062	79.208	0.179	0.192
-528.048	261.010	0.115	0.198
-527.033	-96.874	0.151	0.040
-526.018	-200.000	-0.006	0.246
-525.004	-50.408	0.025	-0.012
-523.989	81.363	-0.173	0.188
-522.975	15.642	-0.240	-0.189
-521.960	-149.985	-0.223	-0.017
-520.945	-200.000	0.041	-0.293
-519.931	198.489	-0.219	0.335
-518.916	-79.156	0.129	0.044
-517.902	318.525	-0.048	0.091
-516.887	318.493	-0.119	-0.225
-515.872	193.995	-0.071	-0.108
-514.858	-45.948	-0.205	-0.101
-513.843	288.763	-0.099	0.180
-512.829	-67.300	0.226	0.089
-511.814	380.952	-0.118	0.241
-510.799	-55.728	-0.297	0.133
-509.785	306.195	0.065	0.120
-508.770	23.366	0.166	-0.137
-507.756	-200.000	0.072	0.390
-506.741	-200.000	-0.031	0.454
-505.726	178.270	-0.136	0.198
-504.712	588.462	-0.097	-0.240
-503.697	-143.705	-0.278	0.026
-502.683	-111.508	-0.037	0.007
-501.668	68.018	0.026	-0.026
-500.653	-200.000	-0.016	-0.145
-499.639	-200.000	-0.006	0.052
-498.624	14.156	-0.099	0.077
-497.610	-131.447	-0.378	-0.050
-496.595	-200.000	-0.011	-0.424
-495.581	-132.586	-0.233	-0.030
-494.566	-4.970	-0.235	0.162
-493.551	11.830	-0.093	-0.071
-492.537	-87.575	0.126	-0.038
-491.522	88.063	0.204	0.226
-490.508	-109.808	0.014	-0.003
-489.493	-142.539	0.219	-0.021
-488.478	-149.469	0.231	-0.018
-487.464	-87.187	0.442	-0.134
-486.449	-52.184	-0.348	-0.161
-485.435	-27.449	0.096	0.056
-484.420	132.432	0.176	0.227
-483.405	26.919	-0.320	0.268
-482.391	94.877	-0.158	-0.179
-481.376	800.000	0.110	0.357
-480.362	233.106	-0.184	-0.303
-479.347	-200.000	-0.006	-0.376
-478.332	-195.467	0.093	-0.001
-477.318	268.883	0.077	0.135
-476.303	-4.594	0.164	0.113
-475.289	-70.012	0.112	0.043
-474.274	80.066	-0.175	-0.188
-473.259	-200.000	0.027	0.147
-472.245	17.561	0.169	0.134
-471.230	-25.001	-0.078	0.046
-470.216	350.550	-0.048	0.094
-469.201	-107.260	-0.179	0.039
-468.186	-28.604	0.202	-0.117
-467.172	-86.782	0.297	0.091
-466.157	-200.000	0.017	-0.157
-465.143	6.040	-0.084	-0.063
-464.128	458.310	-0.096	-0.214
-463.113	59.066	-0.052	0.051
-462.099	62.031	0.097	-0.096
-461.084	-129.034	-0.078	-0.011
-460.070	181.058	-0.073	0.107
-459.055	97.578	0.103	-0.118
-458.040	-178.585	0.249	-0.006
-457.026	800.000	0.083	-0.330
-456.011	-200.000	-0.007	-0.076
-454.997	800.000	0.100	-0.320
-453.982	-200.000	0.024	0.218
-452.968	416.177	0.064	0.136
-451.953	2.585	0.282	0.204
-450.938	299.668	0.038	0.070
-449.924	-132.669	-0.278	-0.036
-448.909	361.339	0.115	0.231
-447.895	-180.023	-0.191	0.004
-446.880	140.737	0.088	0.117
-445.865	-166.462	0.080	-0.003
-444.851	-91.077	0.201	-0.057
-443.836	80.975	0.047	-0.050
-442.822	-200.000	0.024	-0.220
-441.807	46.681	0.190	-0.176
-440.792	800.000	-0.085	0.291
-439.778	800.000	-0.107	-0.356
-438.763	486.452	-0.111	-0.252
-437.749	-131.512	0.267	-0.035
-436.734	-125.434	0.191	0.029
-435.719	250.422	0.085	-0.144
-434.705	-200.000	-0.010	0.129
-433.690	-54.512	0.038	0.017
-432.676	89.673	0.084	0.093
-431.661	176.667	-0.177	-0.257
-430.646	-14.917	-0.080	0.051
-429.632	-89.897	0.040	0.012
-428.617	800.000	-0.036	0.141
-427.603	700.917	-0.010	0.027
-426.588	112.465	0.052	0.063
-425.573	-57.526	-0.425	0.186
-424.559	-140.258	0.224	-0.023
-423.544	392.876	0.167	-0.347
-422.530	87.729	-0.181	-0.200
-421.515	-36.933	-0.244	0.131
-420.500	-62.661	0.235	-0.097
-419.486	186.096	-0.076	-0.113
-418.471	-195.979	-0.137	-0.001
-417.457	-161.481	-0.371	0.019
-416.442	-200.000	-0.038	0.181
-415.428	47.024	0.210	-0.194
-414.413	-31.739	-0.101	0.056
-413.398	-200.000	-0.002	-0.124
-412.384	-92.395	0.087	-0.024
-411.369	133.273	-0.067	-0.087
-410.355	-88.757	0.115	-0.034
-409.340	63.469	0.078	0.078
-408.325	800.000	0.046	0.174
-407.311	236.904	0.182	-0.301
-406.296	-200.000	0.009	-0.149
-405.282	-200.000	-0.009	0.416
-404.267	157.253	0.225	0.311
-403.252	-200.000	-0.080	0.484
-402.238	-192.903	-0.371	-0.003
-401.223	-152.869	0.127	-0.009
-400.209	-67.749	0.309	-0.120
-399.194	800.000	0.048	-0.197
-398.179	-152.962	-0.210	-0.015
-397.165	48.055	-0.190	-0.177
-396.150	800.000	0.172	-0.500
-395.136	-11.166	0.253	-0.166
-394.121	31.968	0.110	0.094
-393.106	-67.796	-0.108	0.042
-392.092	128.528	-0.156	-0.198
-391.077	800.000	-0.117	-0.395
-390.063	-131.154	0.318	-0.042
-389.048	126.487	-0.169	0.213
-388.033	-51.818	0.148	0.068
-387.019	-126.440	0.235	0.035
-386.004	15.326	-0.225	-0.176
-384.990	702.264	-0.061	-0.161
-383.975	-28.943	0.086	0.049
-382.960	21.333	0.047	0.038
-381.946	316.785	0.069	-0.130
-380.931	111.817	-0.137	0.165
-379.917	-66.936	-0.104	0.041
-378.902	137.851	-0.192	0.250
-377.888	-102.079	-0.382	0.092
-376.873	-200.000	0.017	-0.296
-375.858	-67.362	0.366	0.143
-374.844	-28.197	-0.047	0.027
-373.829	724.625	0.054	0.143
-372.815	8.455	-0.207	-0.155
-371.800	-150.253	0.101	0.008
-370.785	589.195	-0.039	-0.095
-369.771	-97.826	0.192	0.049
-368.756	-118.103	-0.065	0.011
-367.742	800.000	0.202	-0.656
-366.727	105.048	-0.112	0.132
-365.712	-40.485	-0.247	-0.127
-364.698	-200.000	-0.008	-0.383
-363.683	-22.991	-0.455	0.273
-362.669	-52.418	-0.406	-0.187
-361.654	-62.754	0.058	-0.024
-360.639	13.871	0.259	0.201
-359.625	736.014	0.084	-0.224
-358.610	673.152	0.049	0.126
-357.596	-167.274	0.157	-0.006
-356.581	211.693	0.236	0.370
-355.566	-200.000	-0.038	-0.203
-354.552	-180.321	0.181	0.004
-353.537	482.008	0.057	-0.128
-352.523	240.964	0.214	0.356
-351.508	-200.000	-0.018	0.119
-350.493	-70.073	-0.395	0.150
-349.479	-55.924	0.140	0.062
-348.464	54.743	0.182	0.174
-347.450	-75.696	0.121	-0.043
-346.435	79.848	-0.089	0.095
-345.420	-200.000	-0.003	0.126
-344.406	-116.155	0.293	-0.054
-343.391	800.000	-0.027	-0.110
-342.377	-200.000	0.073	-0.354
-341.362	1.461	0.273	-0.195
-340.348	276.185	-0.068	0.120
-339.333	-48.277	0.177	-0.085
-338.318	-125.416	0.198	0.030
-337.304	-29.717	-0.118	-0.067
-336.289	-54.392	-0.192	0.087
-335.275	-140.735	-0.096	0.010
-334.260	119.077	-0.396	0.486
-333.245	-93.100	0.209	-0.058
-332.231	195.502	-0.043	0.065
-331.216	10.895	0.476	-0.361
-330.202	103.172	-0.164	-0.191
-329.187	-36.053	0.258	-0.139
-328.172	293.819	-0.032	-0.059
-327.158	-78.175	-0.227	0.077
-326.143	67.320	-0.108	0.109
-325.129	-200.000	-0.008	0.098
-324.114	-65.016	0.282	0.113
-323.099	-85.608	-0.042	0.013
-322.085	552.650	0.011	0.025
-321.070	120.145	-0.183	0.226
-320.056	69.175	-0.153	-0.157
-319.041	599.196	-0.043	-0.106
-318.026	-134.265	0.113	0.014
-317.012	800.000	0.017	0.069
-315.997	-144.000	-0.023	-0.002
-314.983	-200.000	-0.047	0.265
-313.968	117.035	0.130	-0.159
-312.953	254.172	0.114	0.193
-311.939	-8.537	-0.096	-0.064
-310.924	-132.561	-0.091	-0.012
-309.910	-106.440	0.340	-0.075
-308.895	-31.694	-0.382	-0.213
-307.880	-40.683	0.257	0.132
-306.866	-52.917	0.020	-0.009
-305.851	-200.000	-0.041	0.192
-304.837	5.158	0.177	-0.129
-303.822	-200.000	0.065	0.357
-302.807	363.840	-0.157	0.313
-301.793	131.668	-0.254	0.324
-300.778	-52.867	-0.107	0.049
-299.764	-62.347	0.078	-0.032
-298.749	800.000	0.060	-0.191
-297.735	-200.000	0.017	0.202
-296.720	-200.000	-0.054	0.256
-295.705	-80.012	-0.220	0.073
-294.691	-180.405	-0.234	-0.005
-293.676	800.000	-0.110	-0.371
-292.662	-52.691	0.080	0.037
-291.647	254.970	0.119	0.202
-290.632	-200.000	0.002	-0.091
-289.618	90.881	0.103	0.115
-288.603	-150.981	-0.334	-0.025
-287.589	-84.828	-0.058	0.018
-286.574	-35.848	0.110	-0.059
-285.559	-200.000	0.017	0.099
-284.545	-170.939	0.239	0.008
-283.530	106.507	-0.033	-0.039
-282.516	129.226	0.157	0.198
-281.501	-86.029	0.295	-0.090
-280.486	-10.087	-0.137	0.091
-279.472	135.523	0.117	-0.150
-278.457	-36.426	-0.221	0.118
-277.443	-123.956	0.246	-0.038
-276.428	-200.000	0.059	0.374
-275.413	-87.596	0.175	-0.052
-274.399	-26.000	-0.314	0.183
-273.384	-139.812	-0.302	0.032
-272.370	-200.000	-0.069	-0.311
-271.355	800.000	0.040	0.120
-270.340	17.472	0.043	-0.034
-269.326	-122.150	-0.408	0.066
-268.311	-200.000	0.091	-0.396
-267.297	163.149	0.068	0.095
-266.282	-25.419	-0.256	0.150
-265.267	-27.339	-0.106	-0.061
-264.253	800.000	0.115	0.493
-263.238	259.936	0.120	0.205
-262.224	-157.812	0.138	-0.008
-261.209	-102.317	-0.179	0.043
-260.195	-60.267	0.219	-0.092
-259.180	-191.677	-0.217	0.002
-258.165	-200.000	-0.013	0.228
-257.151	-62.208	-0.189	-0.078
-256.136	-200.000	0.023	-0.248
-255.122	-200.000	-0.013	0.335
-254.107	-200.000	-0.009	-0.080
-253.092	29.049	0.202	-0.170
-252.078	-200.000	0.093	-0.449
-251.063	316.311	0.189	-0.353
-250.049	223.996	0.058	0.093
-249.034	-200.000	0.019	-0.272
-248.019	97.360	0.243	0.277
-247.005	536.019	-0.088	0.206
-245.990	-113.973	-0.132	-0.025
-244.976	141.433	0.214	-0.280
-243.961	-79.178	0.333	-0.112
-242.946	800.000	0.090	0.358
-241.932	-200.000	-0.030	0.154
-240.917	-89.626	-0.251	-0.073
-239.903	-0.020	-0.120	0.084
-238.888	37.499	-0.311	0.273
-237.873	146.714	0.036	-0.048
-236.859	125.464	-0.161	-0.201
-235.844	-75.557	-0.309	-0.109
-234.830	199.945	0.055	0.084
-233.815	-200.000	0.043	-0.271
-232.800	-90.246	0.158	0.046
-231.786	-170.595	0.443	0.015
-230.771	373.552	-0.215	-0.434
-229.757	-76.926	-0.055	-0.019
-228.742	57.671	-0.253	0.245
-227.727	-81.394	0.155	0.051
-226.713	219.046	0.158	-0.250
-225.698	780.781	-0.099	0.267
-224.684	732.651	0.031	0.081
-223.669	54.276	-0.163	0.155
-222.655	-47.499	-0.227	0.109
-221.640	-200.000	0.018	-0.133
-220.625	-18.642	-0.156	-0.096
-219.611	-200.000	0.005	0.083
-218.596	-99.304	0.201	-0.050
-217.582	217.747	0.050	0.078
-216.567	-128.011	0.316	0.045
-215.552	-89.977	-0.111	-0.032
-214.538	-200.000	0.030	-0.181
-213.523	55.929	-0.234	-0.224
-212.509	267.668	-0.142	-0.246
-211.494	-33.539	0.284	0.155
-210.479	42.997	-0.161	0.145
-209.465	17.774	0.033	0.026
-208.450	390.345	0.179	0.367
-207.436	-200.000	-0.010	0.254
-206.421	336.645	0.114	-0.218
-205.406	800.000	0.028	0.112
-204.392	369.943	0.089	0.179
-203.377	-117.386	0.041	-0.007
-202.363	-98.763	0.154	-0.039
-201.348	800.000	0.054	-0.185
-200.333	800.000	-0.019	-0.055
-199.319	259.372	0.107	0.182
-198.304	-12.182	-0.008	-0.005
-197.290	-157.867	0.131	-0.008
-196.275	96.918	0.170	-0.192
-195.260	-60.725	-0.578	0.242
-194.246	-52.781	0.128	0.058
-193.231	-131.379	-0.133	0.017
-192.217	-200.000	0.012	-0.063
-191.202	702.203	0.054	0.140
-190.187	-91.728	0.266	0.075
-189.173	-148.836	-0.487	0.039
-188.158	-38.515	0.064	0.034
-187.144	240.979	-0.153	-0.253
-186.129	-200.000	0.002	-0.131
-185.114	70.531	0.171	0.175
-184.100	-122.699	-0.082	0.013
-183.085	-41.971	-0.080	-0.040
-182.071	196.285	-0.155	-0.233
-181.056	181.448	0.104	0.152
-180.042	-43.215	0.291	0.146
-179.027	-146.954	-0.191	0.016
-178.012	139.233	-0.129	0.168
-176.998	-12.147	-0.127	0.082
-175.983	-61.592	0.260	-0.108
-174.969	-15.912	-0.131	-0.082
-173.954	-200.000	-0.017	0.125
-172.939	-46.927	0.231	-0.112
-171.925	101.025	0.302	0.347
-170.910	-30.719	-0.178	0.100
-169.896	21.084	0.198	-0.159
-168.881	-200.000	0.039	0.174
-167.866	102.792	0.147	-0.170
-166.852	-200.000	0.043	-0.386
-165.837	-113.177	0.299	0.058
-164.823	-200.000	-0.027	-0.169
-163.808	-142.548	-0.160	-0.016
-162.793	-117.939	0.322	0.057
-161.779	-200.000	0.088	0.421
-160.764	26.368	0.220	0.182
-159.750	50.242	0.114	0.106
-158.735	87.304	0.165	0.180
-157.720	121.434	0.110	-0.135
-156.706	516.321	-0.085	-0.197
-155.691	800.000	-0.033	0.136
-154.677	800.000	0.076	-0.222
-153.662	-200.000	0.008	0.255
-152.647	-139.430	-0.200	0.021
-151.633	-200.000	0.020	-0.143
-150.618	-47.569	0.215	-0.103
-149.604	-200.000	0.025	-0.177
-148.589	-74.942	-0.376	0.133
-147.574	250.604	0.068	-0.114
-146.560	141.108	-0.077	-0.101
-145.545	-102.761	0.098	-0.023
-144.531	-128.888	0.180	0.025
-143.516	-200.000	0.052	-0.260
-142.502	-19.080	-0.105	-0.064
-141.487	-165.299	0.101	-0.004
-140.472	-140.927	-0.128	-0.013
-139.458	-26.021	0.150	0.087
-138.443	-121.727	-0.169	-0.028
-137.429	122.172	-0.021	-0.026
-136.414	256.011	0.140	0.236
-135.399	130.667	-0.058	0.074
-134.385	-116.697	-0.224	0.041
-133.370	-200.000	-0.033	0.283
-132.356	-108.259	-0.472	0.100
-131.341	361.391	0.103	0.203
-130.326	611.948	0.048	0.118
-129.312	-131.729	0.098	0.013
-128.297	-200.000	-0.044	-0.225
-127.283	-0.520	0.439	0.307
-126.268	222.239	-0.119	0.189
-125.253	-200.000	-0.030	0.262
-124.239	-188.230	0.148	-0.002
-123.224	36.767	-0.146	-0.127
-122.210	-69.654	0.308	0.116
-121.195	48.383	-0.123	-0.113
-120.180	-53.027	0.319	0.145
-119.166	800.000	0.134	0.383
-118.151	-134.229	-0.104	0.013
-117.137	117.873	0.090	0.109
-116.122	74.258	-0.255	0.264
-115.107	45.237	0.235	-0.213
-114.093	463.800	0.055	-0.121
-113.078	-125.520	0.385	0.058
-112.064	-175.754	-0.227	0.006
-111.049	13.175	0.239	-0.183
-110.034	723.205	0.036	0.095
-109.020	42.234	-0.111	-0.100
-108.005	-200.000	0.004	0.109
-106.991	-25.112	0.332	0.194
-105.976	-200.000	-0.046	0.248
-104.962	-200.000	-0.004	0.261
-103.947	313.105	0.082	-0.152
-102.932	-95.271	0.192	0.051
-101.918	69.402	-0.065	-0.066
-100.903	288.658	0.082	-0.146
-99.889	267.200	0.052	-0.089
-98.874	-66.513	0.397	-0.155
-97.859	-83.966	-0.172	-0.054
-96.845	92.727	0.197	0.219
-95.830	39.379	0.142	0.125
-94.816	-4.711	0.292	0.198
-93.801	653.971	0.150	0.378
-92.786	800.000	0.091	-0.326
-91.772	-176.674	0.085	0.002
-90.757	-77.412	-0.149	0.051
-89.743	522.326	-0.060	0.138
-88.728	294.019	0.167	-0.300
-87.713	-97.726	-0.341	0.087
-86.699	-120.890	0.326	-0.054
-85.684	-200.000	-0.004	-0.159
-84.670	61.216	-0.160	0.157
-83.655	60.658	0.071	0.069
-82.640	547.898	0.077	0.182
-81.626	800.000	0.039	0.111
-80.611	-63.615	0.160	-0.065
-79.597	-200.000	-0.048	-0.262
-78.582	-71.564	0.118	0.043
-77.567	-200.000	-0.021	-0.155
-76.553	-200.000	-0.008	-0.075
-75.538	-36.564	0.227	0.120
-74.524	-102.467	0.221	0.052
-73.509	42.333	-0.240	-0.214
-72.494	800.000	-0.013	0.040
-71.480	-200.000	-0.059	0.352
-70.465	-101.018	0.338	-0.082
-69.451	-116.441	-0.141	0.026
-68.436	-200.000	-0.012	0.129
-67.422	-200.000	0.016	-0.221
-66.407	800.000	-0.059	0.201
-65.392	190.571	-0.160	-0.236
-64.378	-33.708	0.167	0.091
-63.363	-200.000	-0.125	0.000
-62.349	-200.000	0.022	0.262
-61.334	91.002	-0.773	-0.853
-60.319	365.338	0.342	0.678
-59.305	800.000	-0.341	-1.173
-58.290	800.000	0.267	1.131
-57.276	800.000	0.493	1.595
-56.261	-200.000	99.452	586.245
-55.246	507.272	1419.271	3236.690
-54.232	153.070	2612.162	3511.872
-53.217	104.217	2298.755	2658.018
-52.203	40.375	1915.682	1694.668
-51.188	34.284	1703.401	1460.299
-50.173	31.510	1659.690	1402.019
-49.159	49.454	1707.928	1579.511
-48.144	50.605	1723.636	1602.721
-47.130	33.847	1684.467	1440.525
-46.115	31.096	1670.361	1407.679
-45.100	30.944	1665.526	1402.409
-44.086	30.907	1662.371	1399.415
-43.071	30.876	1660.080	1397.202
-42.057	30.832	1657.692	1394.806
-41.042	30.932	1655.259	1393.456
-40.027	30.955	1653.020	1391.684
-39.013	30.807	1651.831	1389.527
-37.998	30.804	1650.515	1388.340
-36.984	30.911	1649.133	1387.921
-35.969	31.053	1647.315	1387.391
-34.954	31.014	1645.664	1385.655
-33.940	31.017	1643.532	1383.829
-32.925	31.028	1642.264	1382.782
-31.911	30.902	1640.841	1380.597
-30.896	30.996	1638.950	1379.648
-29.881	30.980	1637.206	1378.011
-28.867	30.985	1635.324	1376.404
-27.852	30.843	1634.213	1374.366
-26.838	30.957	1632.839	1373.997
-25.823	30.986	1631.408	1372.955
-24.809	31.072	1629.765	1372.147
-23.794	31.022	1628.359	1370.541
-22.779	31.069	1626.964	1369.659
-21.765	30.989	1625.757	1368.004
-20.750	31.001	1623.790	1366.380
-19.736	31.017	1622.513	1365.366
-18.721	31.000	1621.088	1363.994
-17.706	31.033	1619.494	1362.834
-16.692	31.049	1617.593	1361.301
-15.677	31.025	1616.444	1360.104
-14.663	31.042	1615.826	1359.656
-13.648	30.979	1614.299	1357.856
-12.633	31.018	1612.359	1356.456
-11.619	31.025	1610.632	1354.995
-10.604	30.937	1609.320	1353.199
-9.590	30.971	1608.375	1352.602
-8.575	31.035	1607.097	1351.936
-7.560	31.027	1605.191	1350.221
-6.546	31.075	1604.330	1349.794
-5.531	31.048	1603.137	1348.537
-4.517	31.007	1602.263	1347.452
-3.502	31.029	1601.127	1346.600
-2.487	31.033	1599.422	1345.147
-1.473	30.898	1587.471	1334.075
-0.458	28.338	1568.918	1300.285
0.556	23.339	1569.120	1268.246
1.571	20.865	1593.271	1269.643
2.586	20.416	1606.236	1276.559
3.600	18.742	1553.180	1222.379
4.615	10.577	1441.304	1080.079
5.629	2.248	1375.169	977.335
6.644	0.585	1366.424	960.466
7.659	0.412	1365.140	958.377
8.673	0.319	1364.586	957.312
9.688	0.345	1362.070	955.631
10.702	0.234	1359.118	952.775
11.717	4.023	1365.750	981.387
12.731	12.691	1379.451	1046.441
13.746	17.675	1385.437	1082.621
14.761	17.463	1384.095	1080.132
15.775	16.521	1381.189	1071.805
16.790	15.486	1378.476	1063.053
17.804	14.741	1376.300	1056.569
18.819	14.296	1375.334	1052.922
19.834	14.039	1373.863	1050.078
20.848	13.777	1372.409	1047.222
21.863	13.581	1370.914	1044.751
22.877	13.420	1370.008	1042.954
23.892	13.273	1368.928	1041.117
24.907	13.333	1368.420	1041.014
25.921	13.356	1367.138	1040.092
26.936	13.394	1366.687	1039.894
27.950	13.401	1365.796	1039.170
28.965	13.467	1364.516	1038.519
29.980	13.613	1363.094	1038.255
30.994	13.552	1362.737	1037.512
32.009	13.620	1361.671	1037.030
33.023	13.610	1360.616	1036.076
34.038	13.609	1359.224	1034.921
35.053	13.527	1358.329	1033.633
36.067	13.655	1356.957	1033.298
37.082	13.469	1356.830	1031.946
38.096	13.577	1355.455	1031.482
39.111	13.609	1354.437	1030.816
40.126	13.507	1353.758	1029.571
41.140	13.413	1352.810	1028.180
42.155	13.339	1352.780	1027.604
43.169	13.317	1352.790	1027.384
44.184	13.407	1351.950	1027.213
45.199	13.461	1351.476	1027.101
46.213	13.445	1350.820	1026.412
47.228	13.473	1350.112	1025.955
48.242	13.458	1348.912	1024.859
49.257	13.474	1347.622	1023.890
50.271	13.418	1345.753	1022.031
51.286	13.568	1344.604	1021.995
52.301	13.542	1343.127	1020.619
53.315	13.442	1342.468	1019.413
54.330	13.426	1341.577	1018.548
55.344	13.438	1339.931	1017.279
56.359	13.455	1338.856	1016.482
57.374	13.437	1337.875	1015.534
58.388	13.361	1337.581	1014.753
59.403	13.295	1337.260	1014.021
60.417	13.335	1336.444	1013.553
61.432	13.241	1335.877	1012.459
62.447	13.298	1334.337	1011.552
63.461	13.303	1333.465	1010.832
64.476	13.292	1332.020	1009.576
65.490	13.283	1331.224	1008.830
66.505	13.229	1329.886	1007.398
67.520	13.303	1328.183	1006.467
68.534	13.385	1326.986	1005.969
69.549	13.330	1325.863	1004.697
70.563	13.307	1325.160	1003.935
71.578	13.300	1323.928	1002.871
72.593	13.191	1322.904	1001.345
73.607	13.304	1322.051	1001.300
74.622	13.254	1321.026	1000.128
75.636	13.198	1321.025	999.701
76.651	13.278	1319.554	998.983
77.666	13.243	1319.008	998.270
78.680	13.282	1318.727	998.207
79.695	13.290	1317.906	997.541
80.709	13.267	1317.331	996.879
81.724	13.247	1316.538	996.074
82.739	13.386	1315.210	995.818
83.753	13.388	1314.424	995.142
84.768	13.539	1313.108	994.970
85.782	13.467	1312.673	994.119
86.797	13.416	1311.026	992.477
87.812	13.547	1309.156	991.755
88.826	13.405	1308.281	990.160
89.841	13.529	1307.497	990.215
90.855	13.600	1306.181	989.556
91.870	13.511	1305.565	988.474
92.884	13.642	1304.467	988.335
93.899	13.527	1303.942	987.163
94.914	13.589	1303.022	986.750
95.928	13.596	1302.282	986.141
96.943	13.549	1301.476	985.165
97.957	13.531	1300.265	984.054
98.972	13.588	1299.238	983.532
99.987	13.634	1297.911	982.709
101.001	13.654	1297.165	982.178
102.016	13.464	1296.904	980.765
103.030	13.620	1295.832	980.796
104.045	13.516	1294.731	979.257
105.060	13.509	1293.157	977.937
106.074	13.469	1292.047	976.780
107.089	13.369	1291.159	975.432
108.103	13.393	1289.532	974.257
109.118	13.353	1288.197	972.927
110.133	13.362	1287.133	972.090
111.147	13.331	1286.059	971.009
112.162	13.413	1284.378	970.136
113.176	13.447	1283.255	969.403
114.191	13.471	1282.756	969.076
115.206	13.494	1281.699	968.328
116.220	13.443	1280.347	966.927
117.235	13.438	1279.407	966.098
118.249	13.407	1278.496	965.148
119.264	13.522	1276.671	964.349
120.279	13.482	1276.155	963.643
121.293	13.379	1275.099	962.164
122.308	13.351	1274.330	961.332
123.322	13.410	1273.189	960.730
124.337	13.427	1272.315	960.084
125.352	13.448	1270.691	958.899
126.366	13.529	1269.359	958.277
127.381	13.440	1268.720	957.192
128.395	13.463	1266.962	955.917
129.410	13.392	1266.994	955.442
130.424	13.468	1266.038	955.077
131.439	13.515	1264.455	954.067
132.454	13.473	1263.708	953.179
133.468	13.545	1262.643	952.708
134.483	13.480	1262.166	951.891
135.497	13.544	1260.959	951.260
136.512	13.567	1259.281	950.045
137.527	13.397	1258.722	948.564
138.541	13.491	1257.155	947.836
139.556	13.527	1255.395	946.631
140.570	13.460	1254.867	945.764
141.585	13.580	1253.260	945.155
142.600	13.634	1251.936	944.383
143.614	13.592	1251.537	943.755
144.629	13.717	1249.901	943.151
145.643	13.660	1249.098	942.139
146.658	13.604	1247.695	940.682
147.673	13.639	1246.192	939.663
148.687	13.506	1245.475	938.284
149.702	13.538	1243.590	936.965
150.716	13.520	1242.568	936.008
151.731	13.530	1241.367	935.079
152.746	13.571	1239.849	934.082
153.760	13.601	1238.946	933.488
154.775	13.581	1237.825	932.447
155.789	13.664	1236.979	932.192
156.804	13.767	1235.657	931.693
157.819	13.768	1235.006	931.124
158.833	13.759	1234.016	930.245
159.848	13.787	1233.056	929.598
160.862	13.748	1232.164	928.629
161.877	13.767	1230.788	927.615
162.892	13.600	1229.900	925.928
163.906	13.634	1228.644	925.089
164.921	13.724	1227.639	924.755
165.935	13.748	1226.783	924.158
166.950	13.773	1226.196	923.775
167.964	13.691	1225.786	922.929
168.979	13.773	1225.057	922.753
169.994	13.719	1224.070	921.631
171.008	13.866	1222.977	921.542
172.023	13.855	1222.475	921.019
173.037	13.876	1221.865	920.595
174.052	13.878	1220.489	919.487
175.067	13.737	1219.744	918.066
176.081	13.868	1218.674	917.906
177.096	13.865	1217.631	917.023
178.110	13.814	1216.688	915.946
179.125	13.855	1215.232	914.994
180.140	13.808	1214.604	914.185
181.154	13.866	1212.897	913.135
182.169	14.003	1211.580	912.819
183.183	13.947	1210.547	911.652
184.198	14.135	1209.253	911.629
185.213	14.064	1208.650	910.702
186.227	14.042	1207.277	909.469
187.242	14.088	1206.336	908.931
188.256	14.062	1205.366	907.974
189.271	14.105	1204.136	907.204
190.286	13.914	1203.587	905.670
191.300	14.013	1202.374	905.216
192.315	13.793	1202.194	903.800
193.329	13.877	1201.417	903.593
194.344	13.974	1200.689	903.495
195.359	13.956	1200.002	902.798
196.373	14.021	1199.445	902.651
197.388	14.116	1198.761	902.572
198.402	14.223	1198.474	902.856
199.417	14.276	1197.553	902.372
200.432	14.216	1197.323	901.793
201.446	14.141	1196.471	900.667
202.461	14.294	1195.394	900.604
203.475	14.255	1194.170	899.390
204.490	14.271	1192.879	898.423
205.504	14.264	1191.735	897.444
206.519	14.198	1190.664	896.203
207.534	14.277	1189.408	895.606
208.548	14.381	1188.210	895.185
209.563	14.273	1187.421	893.931
210.577	14.292	1187.039	893.662
211.592	14.311	1185.854	892.797
212.607	14.333	1185.374	892.473
213.621	14.389	1184.223	891.826
214.636	14.269	1183.852	890.825
215.650	14.332	1182.600	890.142
216.665	14.373	1181.507	889.462
217.680	14.432	1180.699	889.089
218.694	14.439	1180.209	888.679
219.709	14.380	1179.436	887.701
220.723	14.428	1178.242	886.983
221.738	14.574	1177.412	887.054
222.753	14.589	1176.603	886.443
223.767	14.533	1176.030	885.640
224.782	14.635	1175.321	885.566
225.796	14.640	1174.932	885.221
226.811	14.593	1174.696	884.715
227.826	14.496	1173.741	883.405
228.840	14.654	1172.853	883.496
229.855	14.542	1171.977	882.166
230.869	14.665	1170.941	881.959
231.884	14.737	1169.901	881.473
232.899	14.594	1169.793	880.561
233.913	14.479	1169.637	879.760
234.928	14.515	1168.419	878.953
235.942	14.603	1167.266	878.472
236.957	14.600	1166.834	878.054
237.972	14.581	1166.236	877.424
238.986	14.540	1165.540	876.608
240.001	14.542	1164.923	876.081
241.015	14.667	1163.677	875.720
242.030	14.624	1162.951	874.870
243.045	14.649	1162.351	874.475
244.059	14.736	1161.563	874.259
245.074	14.809	1160.314	873.621
246.088	14.756	1160.321	873.271
247.103	14.818	1159.473	872.883
248.117	14.934	1158.236	872.481
249.132	14.832	1157.649	871.426
250.147	15.040	1156.688	871.708
251.161	14.973	1156.124	870.857
252.176	15.103	1155.511	870.998
253.190	15.033	1155.188	870.314
254.205	15.058	1154.447	869.804
255.220	15.063	1153.999	869.417
256.234	15.078	1153.356	868.932
257.249	15.038	1152.367	867.908
258.263	15.169	1151.867	868.131
259.278	15.171	1151.426	867.733
260.293	15.060	1151.024	866.780
261.307	15.260	1150.099	867.037
262.322	15.291	1149.565	866.718
263.336	15.152	1148.728	865.295
264.351	15.252	1148.142	865.291
265.366	15.273	1147.638	864.943
266.380	15.352	1146.587	864.483
267.395	15.290	1146.054	863.683
268.409	15.288	1145.235	862.981
269.424	15.253	1144.601	862.249
270.439	15.185	1143.977	861.352
271.453	15.315	1143.181	861.342
272.468	15.368	1142.529	861.046
273.482	15.362	1141.417	860.103
274.497	15.253	1141.046	859.189
275.512	15.260	1140.452	858.698
276.526	15.283	1139.507	858.030
277.541	15.222	1139.056	857.304
278.555	15.347	1138.091	857.141
279.570	15.499	1137.322	857.261
280.585	15.510	1136.449	856.585
281.599	15.610	1135.294	856.147
282.614	15.431	1134.867	854.838
283.628	15.420	1133.784	853.887
284.643	15.521	1132.504	853.361
285.657	15.501	1131.962	852.776
286.672	15.394	1131.529	851.836
287.687	15.588	1129.874	851.495
288.701	15.532	1129.212	850.639
289.716	15.509	1128.653	850.025
290.730	15.476	1128.353	849.555
291.745	15.501	1127.117	848.679
292.760	15.627	1126.462	848.744
293.774	15.523	1125.796	847.643
294.789	15.738	1125.238	848.235
295.803	15.676	1124.735	847.465
296.818	15.589	1124.304	846.625
297.833	15.682	1123.302	846.267
298.847	15.678	1122.487	845.558
299.862	15.636	1121.753	844.716
300.876	15.728	1120.844	844.424
301.891	15.863	1119.898	844.311
302.906	15.872	1119.120	843.694
303.920	15.895	1118.976	843.630
304.935	15.872	1118.404	843.005
305.949	15.865	1117.826	842.461
306.964	15.911	1116.939	841.947
307.979	15.857	1115.923	840.836
308.993	15.934	1115.366	840.726
310.008	15.852	1114.706	839.748
311.022	15.896	1114.080	839.422
312.037	15.939	1113.017	838.762
313.052	15.879	1112.294	837.841
314.066	15.867	1111.122	836.825
315.081	15.816	1110.344	835.910
316.095	15.834	1109.706	835.448
317.110	15.896	1109.051	835.189
318.125	15.942	1108.172	834.679
319.139	16.036	1107.388	834.483
320.154	15.789	1107.259	833.085
321.168	15.928	1106.610	833.210
322.183	15.870	1106.219	832.560
323.197	16.033	1105.060	832.417
324.212	15.992	1104.785	831.931
325.227	15.941	1104.235	831.194
326.241	15.987	1103.346	830.680
327.256	16.066	1102.364	830.255
328.270	16.060	1101.488	829.492
329.285	16.113	1100.544	828.968
330.300	15.980	1099.671	827.582
331.314	15.890	1099.172	826.692
332.329	15.986	1097.643	825.940
333.343	16.071	1097.038	825.828
334.358	15.977	1096.454	824.858
335.373	16.044	1095.741	824.572
336.387	16.137	1094.745	824.204
337.402	16.166	1094.181	823.848
338.416	16.193	1093.093	823.090
339.431	16.216	1092.791	822.901
340.446	16.337	1091.712	822.605
341.460	16.330	1091.255	822.155
342.475	16.291	1090.432	821.271
343.489	16.318	1089.452	820.592
344.504	16.405	1088.491	820.219
345.519	16.469	1087.644	819.817
346.533	16.425	1087.313	819.284
347.548	16.520	1086.478	819.043
348.562	16.493	1085.462	818.072
349.577	16.339	1085.199	817.056
350.592	16.321	1084.523	816.389
351.606	16.387	1083.522	815.883
352.621	16.533	1082.903	816.045
353.635	16.566	1081.990	815.446
354.650	16.418	1081.405	814.222
355.665	16.533	1080.352	813.908
356.679	16.472	1080.243	813.459
357.694	16.401	1079.468	812.464
358.708	16.559	1078.807	812.656
359.723	16.621	1078.021	812.289
360.738	16.622	1077.268	811.655
361.752	16.579	1076.629	810.896
362.767	16.665	1076.409	811.071
363.781	16.653	1075.883	810.541
364.796	16.558	1075.633	809.826
365.810	16.606	1074.798	809.357
366.825	16.787	1074.004	809.552
367.840	16.655	1073.804	808.700
368.854	16.838	1073.139	809.001
369.869	16.857	1071.858	808.056
370.883	16.791	1071.311	807.257
371.898	16.869	1070.282	806.783
372.913	16.770	1070.220	806.193
373.927	16.909	1069.436	806.192
374.942	16.853	1069.109	805.607
375.956	16.862	1068.367	805.020
376.971	16.831	1067.868	804.426
377.986	16.869	1067.236	804.059
379.000	17.049	1066.626	804.379
380.015	16.998	1066.047	803.631
381.029	16.965	1065.559	803.037
382.044	17.060	1064.897	802.913
383.059	16.957	1064.509	802.065
384.073	17.066	1063.218	801.535
385.088	17.203	1062.198	801.342
386.102	17.016	1061.531	799.887
387.117	17.016	1060.188	798.805
388.132	17.033	1059.250	798.104
389.146	17.032	1058.799	797.692
390.161	16.883	1058.519	796.708
391.175	17.080	1057.360	796.689
392.190	17.080	1056.803	796.201
393.205	17.080	1056.207	795.680
394.219	17.093	1055.414	795.076
395.234	17.188	1054.282	794.597
396.248	17.175	1053.265	793.698
397.263	17.156	1052.372	792.867
398.278	17.048	1052.008	792.017
399.292	17.054	1051.079	791.275
400.307	17.007	1050.670	790.680
401.321	17.278	1049.494	790.984
402.336	17.160	1049.056	790.036
403.350	17.058	1047.890	788.613
404.365	17.259	1047.303	789.036
405.380	17.164	1046.653	788.036
406.394	17.227	1046.226	787.937
407.409	17.227	1045.623	787.415
408.423	17.273	1044.956	787.054
409.438	17.397	1044.058	786.880
410.453	17.398	1043.600	786.474
411.467	17.466	1042.603	785.966
412.482	17.479	1042.298	785.725
413.496	17.482	1040.958	784.659
414.511	17.466	1040.847	784.431
415.526	17.455	1040.489	784.042
416.540	17.643	1039.910	784.403
417.555	17.633	1039.433	783.928
418.569	17.541	1038.742	782.913
419.584	17.606	1038.698	783.108
420.599	17.589	1037.781	782.273
421.613	102.674	1319.697	1463.860
422.628	94.189	1360.785	1463.967
