DTS Sentinel unit serial number:	SN413079Multiplexer serial number:	ORYXHardware model number:	OX4-SRSoftware version number:	ORYX F/W v4.00 Oryx Data Collector v3.7.2.0data status	okinstallation	princeton_trtdifferential loss correction	single-endedforward channel	channel 2reverse channel	N/Adate	2019/09/18time	07:27:35forward acquisition time	60.00reverse acquisition time	0.00gamma	496.2192k internal	0.2349k external	0.2349temperature offset calibration	0.9984default loss term (dB/km)	0.3790temperature slope calibration	1.0000multiplexer offset coefficient	1.0000multiplexer slope coefficient	1.0000fibre end	0.00T internal ref (°C)	23.19T ext. ref 1 (°C)	0.18T ext. ref 2 (°C)	17.51length (m)	temperature (°C)	Stokes	anti-Stokes-747.200	-93.367	0.191	0.053
-746.185	-58.931	-0.292	0.126
-745.171	-89.850	-0.052	-0.015
-744.156	-200.000	0.021	0.235
-743.142	485.131	0.051	0.116
-742.127	-200.000	-0.002	0.203
-741.112	800.000	0.030	0.101
-740.098	800.000	-0.061	0.210
-739.083	273.722	0.087	0.154
-738.069	208.434	0.246	0.384
-737.054	-112.484	-0.342	-0.068
-736.039	-57.818	0.024	-0.010
-735.025	-38.959	0.474	0.249
-734.010	270.316	0.067	0.118
-732.996	-200.000	0.027	-0.628
-731.981	24.554	-0.236	-0.195
-730.966	800.000	0.009	0.036
-729.952	-200.000	-0.069	0.516
-728.937	75.671	-0.210	0.222
-727.923	209.349	-0.146	-0.229
-726.908	-200.000	0.022	0.152
-725.894	-123.417	-0.145	0.023
-724.879	-22.191	-0.151	-0.091
-723.864	-200.000	0.009	0.112
-722.850	-103.382	-0.113	-0.027
-721.835	-96.529	-0.193	0.051
-720.821	800.000	-0.111	-0.343
-719.806	800.000	0.050	-0.169
-718.791	177.145	0.165	0.239
-717.777	112.759	-0.049	-0.059
-716.762	755.351	-0.069	-0.187
-715.748	224.721	0.131	0.211
-714.733	-23.176	-0.330	-0.198
-713.718	-66.457	0.220	0.087
-712.704	75.791	0.174	-0.183
-711.689	53.889	0.082	-0.079
-710.675	83.556	-0.070	0.076
-709.660	11.057	-0.209	0.160
-708.645	-200.000	0.012	-0.061
-707.631	-43.915	-0.222	-0.111
-706.616	-7.301	-0.162	-0.109
-705.602	-17.242	0.205	-0.129
-704.587	-14.084	-0.224	0.144
-703.572	-18.058	-0.187	-0.117
-702.558	-200.000	0.046	0.265
-701.543	-200.000	0.023	0.119
-700.529	-107.204	0.332	0.073
-699.514	54.952	-0.235	-0.226
-698.499	-35.469	-0.085	-0.046
-697.485	-200.000	-0.014	-0.101
-696.470	-139.898	0.263	0.028
-695.456	23.243	0.261	-0.214
-694.441	77.266	-0.170	-0.180
-693.426	-35.877	0.298	-0.161
-692.412	-200.000	-0.003	0.270
-691.397	-26.033	0.177	-0.104
-690.383	3.962	-0.138	-0.101
-689.368	-75.087	0.269	0.096
-688.354	-57.350	0.184	-0.080
-687.339	-5.777	-0.156	-0.107
-686.324	46.924	-0.268	0.248
-685.310	-34.729	-0.210	-0.115
-684.295	141.202	-0.023	-0.030
-683.281	-171.586	0.199	0.007
-682.266	442.017	-0.109	0.237
-681.251	29.170	0.250	-0.211
-680.237	393.724	0.110	-0.229
-679.222	324.301	0.112	-0.213
-678.208	-1.891	-0.201	-0.141
-677.193	48.270	0.147	0.137
-676.178	-57.196	0.132	-0.058
-675.164	-200.000	-0.051	-0.243
-674.149	-37.366	0.022	0.012
-673.135	250.378	-0.266	0.450
-672.120	-200.000	-0.037	0.364
-671.105	96.970	-0.095	0.109
-670.091	800.000	-0.094	-0.270
-669.076	8.999	0.203	0.153
-668.062	800.000	-0.053	0.189
-667.047	344.651	-0.059	-0.115
-666.032	-200.000	-0.057	-0.435
-665.018	800.000	0.083	-0.238
-664.003	0.917	0.116	0.083
-662.989	-44.654	-0.131	0.065
-661.974	800.000	-0.031	0.103
-660.959	-11.915	-0.163	-0.107
-659.945	215.236	0.121	0.192
-658.930	-151.313	0.111	0.008
-657.916	-200.000	-0.003	0.023
-656.901	-143.879	-0.137	-0.013
-655.886	-186.893	-0.215	-0.003
-654.872	42.142	0.068	0.062
-653.857	16.882	-0.320	-0.252
-652.843	-69.715	0.421	-0.160
-651.828	77.937	0.174	0.184
-650.814	135.157	0.078	-0.101
-649.799	-99.400	-0.306	0.077
-648.784	123.151	-0.167	-0.208
-647.770	65.604	-0.029	-0.030
-646.755	364.515	0.100	-0.200
-645.741	800.000	0.056	-0.211
-644.726	295.884	-0.125	-0.228
-643.711	409.245	0.024	-0.050
-642.697	-103.825	-0.383	0.089
-641.682	-120.899	0.216	0.036
-640.668	32.916	0.171	-0.148
-639.653	199.583	0.109	-0.167
-638.638	273.763	0.234	-0.411
-637.624	-86.282	-0.254	-0.078
-636.609	-26.731	-0.029	-0.017
-635.595	393.194	0.049	0.102
-634.580	-200.000	0.009	-0.079
-633.565	-200.000	0.049	-0.229
-632.551	-87.263	-0.176	0.053
-631.536	-200.000	0.016	0.088
-630.522	-25.450	-0.103	0.061
-629.507	-200.000	0.019	-0.240
-628.492	227.416	-0.117	-0.189
-627.478	800.000	-0.031	0.090
-626.463	133.838	0.069	-0.089
-625.449	-200.000	-0.002	-0.035
-624.434	155.635	0.052	-0.071
-623.419	-64.697	0.248	0.100
-622.405	-200.000	0.020	0.196
-621.390	-64.706	0.059	0.024
-620.376	-49.295	0.135	-0.064
-619.361	-90.084	0.336	-0.097
-618.346	-144.835	-0.158	-0.014
-617.332	-79.238	-0.340	0.114
-616.317	-81.858	0.040	-0.013
-615.303	-178.029	-0.238	0.006
-614.288	-200.000	0.011	-0.079
-613.273	728.830	0.087	-0.232
-612.259	800.000	0.097	0.344
-611.244	-85.341	0.322	0.100
-610.230	102.856	-0.148	-0.173
-609.215	278.252	-0.074	-0.132
-608.201	-31.346	-0.212	-0.118
-607.186	-21.851	0.361	-0.218
-606.171	78.000	-0.052	0.055
-605.157	72.287	-0.069	0.072
-604.142	-58.659	-0.327	-0.141
-603.128	-8.677	0.239	0.159
-602.113	276.507	-0.078	-0.138
-601.098	338.569	0.192	-0.372
-600.084	-113.609	0.309	0.060
-599.069	-40.441	-0.052	0.027
-598.055	-78.933	0.369	-0.125
-597.040	-200.000	-0.016	-0.464
-596.025	-200.000	0.012	-0.070
-595.011	-111.068	-0.392	-0.080
-593.996	-64.335	-0.326	-0.132
-592.982	88.851	-0.276	-0.305
-591.967	392.797	0.060	0.123
-590.952	34.127	0.310	-0.268
-589.938	-118.582	0.247	0.043
-588.923	-2.502	0.294	0.205
-587.909	-6.907	-0.075	0.051
-586.894	96.158	0.221	-0.251
-585.879	-200.000	-0.004	-0.043
-584.865	51.316	0.130	0.123
-583.850	101.083	-0.146	0.168
-582.836	52.797	-0.060	0.057
-581.821	33.483	0.161	0.139
-580.806	800.000	-0.079	-0.277
-579.792	359.784	0.097	-0.192
-578.777	196.370	-0.102	-0.154
-577.763	800.000	0.079	-0.267
-576.748	4.417	0.200	-0.146
-575.733	83.190	-0.203	0.220
-574.719	-71.908	-0.299	-0.111
-573.704	285.594	0.205	-0.366
-572.690	54.840	-0.258	0.247
-571.675	-200.000	-0.001	-0.028
-570.661	-200.000	0.039	0.604
-569.646	5.282	-0.250	0.183
-568.631	-67.136	-0.270	0.106
-567.617	123.532	0.184	-0.229
-566.602	80.187	-0.165	-0.176
-565.588	23.747	0.586	-0.478
-564.573	-200.000	0.042	-0.205
-563.558	277.579	-0.067	0.119
-562.544	-134.400	-0.059	-0.007
-561.529	-3.761	0.087	-0.060
-560.515	-200.000	0.001	-0.322
-559.500	800.000	0.033	0.098
-558.485	-34.956	0.063	-0.034
-557.471	324.465	0.136	-0.258
-556.456	-200.000	0.013	0.184
-555.442	800.000	0.113	-0.399
-554.427	-123.243	0.214	-0.034
-553.412	166.737	-0.087	-0.122
-552.398	800.000	-0.101	0.368
-551.383	-193.259	0.176	0.002
-550.369	-47.510	0.335	0.161
-549.354	-56.581	0.203	0.089
-548.339	81.116	-0.176	-0.189
-547.325	116.099	0.114	-0.138
-546.310	-106.290	-0.314	-0.070
-545.296	253.080	0.056	-0.096
-544.281	9.955	0.196	0.148
-543.266	-72.671	-0.021	0.008
-542.252	221.284	0.159	0.253
-541.237	-7.938	-0.244	0.163
-540.223	-200.000	0.055	0.249
-539.208	12.064	0.180	-0.137
-538.193	321.893	0.057	0.108
-537.179	-104.178	-0.142	-0.033
-536.164	3.144	-0.178	-0.128
-535.150	-124.473	0.059	0.009
-534.135	114.555	0.105	-0.127
-533.121	283.257	0.017	0.030
-532.106	-51.856	-0.097	0.045
-531.091	-159.978	0.315	-0.017
-530.077	340.121	0.092	0.178
-529.062	800.000	-0.068	0.282
-528.048	242.914	0.071	-0.118
-527.033	454.523	-0.161	0.353
-526.018	-52.883	-0.307	0.140
-525.004	243.557	-0.094	-0.156
-523.989	-173.971	-0.184	-0.005
-522.975	-124.420	-0.396	0.061
-521.960	-200.000	0.017	0.308
-520.945	85.183	0.079	-0.086
-519.931	800.000	0.087	0.248
-518.916	-200.000	0.016	-0.159
-517.902	38.274	-0.086	-0.076
-516.887	76.071	0.116	-0.121
-515.872	-80.758	-0.082	-0.027
-514.858	-111.707	-0.198	0.040
-513.843	-5.797	-0.126	0.085
-512.829	55.235	0.083	-0.079
-511.814	10.136	0.202	-0.152
-510.799	59.081	0.081	0.079
-509.785	581.475	0.080	-0.194
-508.770	-189.496	-0.185	0.002
-507.756	-3.550	0.341	0.234
-506.741	-104.010	0.189	0.044
-505.726	-144.081	-0.272	-0.025
-504.712	-200.000	0.035	0.152
-503.697	252.723	-0.044	-0.074
-502.683	800.000	0.122	0.500
-501.668	-128.635	0.434	-0.061
-500.653	-200.000	0.001	-0.112
-499.639	-200.000	-0.008	0.388
-498.624	406.983	-0.088	0.185
-497.610	180.107	-0.173	-0.251
-496.595	270.674	-0.204	0.355
-495.581	-94.730	-0.298	0.080
-494.566	-61.098	0.217	0.090
-493.551	51.474	0.107	0.101
-492.537	328.375	-0.104	0.197
-491.522	-73.038	0.211	0.076
-490.508	-58.251	-0.064	0.028
-489.493	-200.000	0.055	-0.425
-488.478	231.525	0.106	0.172
-487.464	-142.745	0.197	-0.019
-486.449	487.108	0.071	0.160
-485.435	-119.161	-0.148	-0.026
-484.420	-200.000	-0.020	0.280
-483.405	149.097	-0.237	0.317
-482.391	-89.662	0.259	-0.075
-481.376	-153.883	-0.121	0.008
-480.362	800.000	0.055	0.214
-479.347	249.435	0.051	0.086
-478.332	-87.673	-0.244	0.073
-477.318	225.161	0.095	0.153
-476.303	391.455	0.063	-0.130
-475.289	464.709	0.180	0.397
-474.274	-168.207	0.145	0.006
-473.259	178.899	0.128	0.185
-472.245	2.609	0.082	0.059
-471.230	-200.000	0.001	-0.262
-470.216	-150.484	0.107	-0.008
-469.201	12.974	0.314	-0.240
-468.186	539.136	-0.087	0.205
-467.172	-124.430	0.394	-0.061
-466.157	45.846	-0.145	0.132
-465.143	114.502	-0.183	-0.221
-464.128	13.070	-0.349	-0.267
-463.113	64.441	0.108	-0.107
-462.099	-200.000	0.024	-0.126
-461.084	93.771	0.047	-0.052
-460.070	800.000	0.076	-0.297
-459.055	536.308	0.065	0.153
-458.040	-200.000	0.027	0.253
-457.026	97.126	-0.005	0.005
-456.011	-200.000	-0.037	0.277
-454.997	22.728	-0.132	0.107
-453.982	17.225	-0.097	0.076
-452.968	190.762	-0.160	0.237
-451.953	-78.206	0.158	0.054
-450.938	367.274	0.092	0.184
-449.924	277.131	-0.149	-0.262
-448.909	100.622	0.129	0.148
-447.895	-27.607	0.279	-0.160
-446.880	161.210	0.050	-0.069
-445.865	-115.691	0.158	-0.029
-444.851	-31.543	0.126	-0.070
-443.836	645.959	-0.073	0.183
-442.822	-52.354	-0.504	0.230
-441.807	-53.182	0.213	-0.096
-440.792	-200.000	0.003	-0.081
-439.778	337.535	-0.160	0.308
-438.763	800.000	0.057	-0.176
-437.749	103.866	0.204	-0.236
-436.734	-45.724	-0.211	-0.103
-435.719	-116.363	-0.180	-0.033
-434.705	-135.084	-0.155	0.018
-433.690	81.446	0.066	0.070
-432.676	473.548	0.053	-0.118
-431.661	-200.000	-0.006	0.144
-430.646	800.000	-0.102	0.347
-429.632	-73.081	0.101	-0.037
-428.617	161.626	0.072	-0.099
-427.603	-190.891	0.296	-0.003
-426.588	-171.504	-0.235	0.008
-425.573	14.835	0.303	0.234
-424.559	407.320	0.213	0.443
-423.544	178.549	0.142	0.204
-422.530	178.960	0.110	0.158
-421.515	-81.547	-0.100	-0.032
-420.500	136.186	-0.090	0.116
-419.486	128.391	0.040	0.051
-418.471	-5.331	0.168	0.114
-417.457	-3.081	-0.090	0.062
-416.442	-160.252	-0.359	0.019
-415.428	800.000	-0.053	-0.199
-414.413	-98.646	-0.288	-0.072
-413.398	-19.294	-0.162	0.099
-412.384	345.255	-0.002	-0.005
-411.369	515.987	0.100	-0.229
-410.355	75.715	0.116	0.121
-409.340	-28.970	-0.303	0.172
-408.325	-200.000	0.016	-0.155
-407.311	-200.000	0.013	0.147
-406.296	-116.866	-0.358	0.065
-405.282	82.260	-0.076	-0.081
-404.267	-200.000	-0.041	-0.400
-403.252	94.978	0.222	-0.249
-402.238	390.909	0.161	-0.329
-401.223	-200.000	-0.008	-0.320
-400.209	343.415	0.143	-0.277
-399.194	-200.000	-0.022	0.109
-398.179	-27.586	0.291	0.166
-397.165	-114.361	0.234	-0.044
-396.150	-200.000	-0.002	0.413
-395.136	50.170	0.197	0.183
-394.121	-78.765	0.138	-0.046
-393.106	-134.666	-0.407	0.049
-392.092	-7.649	0.082	0.054
-391.077	-200.000	-0.025	-0.488
-390.063	-200.000	0.048	-0.392
-389.048	-31.902	0.125	0.069
-388.033	113.520	-0.255	-0.305
-387.019	-17.766	-0.255	0.158
-386.004	-87.199	-0.184	0.055
-384.990	-42.816	-0.141	-0.070
-383.975	-92.985	-0.118	-0.033
-382.960	-200.000	0.020	-0.218
-381.946	97.136	-0.067	0.075
-380.931	-17.275	-0.167	0.104
-379.917	-187.656	0.033	0.000
-378.902	800.000	0.135	0.523
-377.888	261.551	0.114	0.194
-376.873	228.789	-0.153	0.246
-375.858	-36.624	0.040	-0.021
-374.844	800.000	-0.101	0.333
-373.829	465.478	0.070	-0.153
-372.815	-31.947	0.149	-0.082
-371.800	-59.172	-0.090	-0.038
-370.785	183.559	0.108	-0.158
-369.771	164.660	-0.213	-0.295
-368.756	-19.735	0.402	-0.244
-367.742	-60.879	0.226	-0.094
-366.727	-111.715	-0.154	-0.031
-365.712	-150.704	0.061	0.005
-364.698	38.277	0.233	0.204
-363.683	-3.373	0.218	0.149
-362.669	-59.015	0.286	-0.121
-361.654	-109.257	0.257	-0.054
-360.639	14.378	0.142	-0.109
-359.625	166.649	-0.111	0.155
-358.610	-61.032	-0.366	0.152
-357.596	-9.479	0.271	-0.178
-356.581	800.000	0.050	-0.172
-355.566	-46.295	-0.217	0.105
-354.552	-200.000	0.023	0.263
-353.537	-200.000	-0.048	0.212
-352.523	-200.000	-0.087	0.391
-351.508	77.571	0.105	0.110
-350.493	26.145	-0.220	-0.181
-349.479	-200.000	-0.012	0.274
-348.464	-39.386	0.149	-0.077
-347.450	289.126	-0.138	-0.246
-346.435	-105.777	0.129	-0.029
-345.420	-60.424	0.180	-0.075
-344.406	78.676	-0.265	0.278
-343.391	800.000	0.070	0.254
-342.377	134.120	0.210	-0.268
-341.362	-200.000	-0.014	0.084
-340.348	-92.786	0.229	0.063
-339.333	-4.197	-0.166	-0.113
-338.318	800.000	-0.044	0.128
-337.304	-172.662	0.279	-0.009
-336.289	-94.331	-0.375	-0.101
-335.275	-158.938	0.332	-0.019
-334.260	-37.795	-0.310	0.162
-333.245	104.305	0.301	0.348
-332.231	-136.991	0.121	-0.014
-331.216	800.000	-0.064	-0.197
-330.202	-71.073	0.099	-0.037
-329.187	800.000	-0.052	0.171
-328.172	87.793	0.093	0.101
-327.158	-69.328	-0.302	-0.114
-326.143	647.735	0.127	-0.319
-325.129	800.000	-0.083	-0.262
-324.114	-130.430	-0.249	0.033
-323.099	-200.000	-0.003	-0.110
-322.085	-200.000	0.002	-0.016
-321.070	800.000	0.041	-0.113
-320.056	800.000	-0.037	0.120
-319.041	-200.000	0.076	-0.341
-318.026	-200.000	-0.035	0.503
-317.012	-200.000	-0.014	0.214
-315.997	-42.404	0.277	0.139
-314.983	701.185	-0.062	-0.161
-313.968	-186.389	0.182	0.003
-312.953	-133.525	-0.063	0.008
-311.939	104.995	-0.169	0.196
-310.924	201.096	0.076	0.114
-309.910	800.000	0.176	-0.529
-308.895	-18.285	0.051	-0.031
-307.880	-135.289	-0.269	0.032
-306.866	800.000	0.126	-0.405
-305.851	-6.412	-0.158	0.106
-304.837	-43.886	-0.397	-0.196
-303.822	-200.000	0.046	-0.281
-302.807	-0.568	0.072	-0.050
-301.793	-200.000	0.028	-0.225
-300.778	-154.593	-0.356	0.023
-299.764	206.517	0.054	0.083
-298.749	-46.580	-0.192	-0.092
-297.735	-174.392	-0.338	0.010
-296.720	352.581	-0.113	0.220
-295.705	800.000	-0.100	-0.422
-294.691	-87.501	0.128	-0.038
-293.676	-51.855	0.171	0.078
-292.662	-122.693	0.121	-0.019
-291.647	800.000	0.050	0.175
-290.632	-104.253	-0.100	-0.023
-289.618	303.399	0.063	0.114
-288.603	20.185	0.108	0.086
-287.589	77.723	-0.351	0.367
-286.574	-172.592	0.091	0.003
-285.559	70.533	-0.247	-0.250
-284.545	-136.985	-0.152	0.017
-283.530	-200.000	0.016	-0.261
-282.516	800.000	0.039	-0.132
-281.501	-200.000	-0.019	-0.166
-280.486	139.354	-0.235	0.303
-279.472	76.335	0.151	0.157
-278.457	57.733	0.293	0.281
-277.443	-13.450	0.272	0.173
-276.428	37.560	-0.139	-0.121
-275.413	42.611	-0.074	-0.066
-274.399	-200.000	-0.023	0.244
-273.384	-20.493	-0.267	0.161
-272.370	-109.407	-0.111	0.023
-271.355	-200.000	0.042	-0.193
-270.340	-200.000	0.009	-0.144
-269.326	46.795	0.288	-0.263
-268.311	239.547	-0.170	0.277
-267.297	-99.881	0.149	-0.036
-266.282	-9.054	0.139	-0.091
-265.267	-28.336	-0.064	-0.036
-264.253	56.478	-0.072	0.069
-263.238	-126.126	0.143	0.021
-262.224	-151.298	-0.120	-0.009
-261.209	-133.894	-0.215	0.026
-260.195	-118.975	0.220	0.038
-259.180	800.000	0.050	0.189
-258.165	-31.879	0.083	-0.045
-257.151	34.826	-0.244	-0.209
-256.136	606.985	-0.143	0.349
-255.122	-75.648	0.142	0.049
-254.107	85.731	-0.007	-0.007
-253.092	-68.160	-0.041	0.015
-252.078	253.176	0.028	-0.046
-251.063	-19.597	0.343	0.208
-250.049	-200.000	-0.007	-0.249
-249.034	800.000	0.077	0.263
-248.019	141.396	0.021	-0.027
-247.005	391.177	0.115	0.234
-245.990	-24.454	0.266	-0.155
-244.976	120.198	-0.052	0.063
-243.961	-59.505	0.288	-0.121
-242.946	167.047	-0.175	0.244
-241.932	448.617	-0.106	-0.229
-240.917	158.360	-0.030	-0.041
-239.903	84.396	-0.074	-0.079
-238.888	49.846	0.263	-0.243
-237.873	-127.441	-0.090	-0.013
-236.859	722.635	0.048	0.126
-235.844	109.221	-0.002	0.002
-234.830	-70.664	-0.221	-0.082
-233.815	202.560	-0.207	-0.313
-232.800	9.390	0.151	0.112
-231.786	30.515	0.109	0.091
-230.771	-84.096	-0.254	0.079
-229.757	39.013	0.103	0.090
-228.742	-6.187	-0.218	-0.145
-227.727	-200.000	-0.023	-0.212
-226.713	800.000	-0.168	-0.481
-225.698	-64.755	-0.022	-0.009
-224.684	-200.000	0.115	0.000
-223.669	47.737	-0.222	0.203
-222.655	129.808	0.194	0.243
-221.640	-119.730	-0.302	-0.051
-220.625	312.910	-0.117	-0.215
-219.611	-88.759	0.156	-0.045
-218.596	-29.743	-0.096	0.053
-217.582	800.000	-0.080	0.250
-216.567	22.667	0.176	0.141
-215.552	800.000	0.057	0.210
-214.538	-200.000	-0.002	-0.198
-213.523	-17.523	-0.083	0.051
-212.509	292.569	-0.149	-0.266
-211.494	800.000	0.059	0.193
-210.479	277.644	-0.120	-0.210
-209.465	-167.154	0.179	0.007
-208.450	-200.000	0.050	0.261
-207.436	72.044	-0.144	0.146
-206.421	-66.082	0.074	0.029
-205.406	251.516	-0.054	-0.090
-204.392	80.278	-0.145	-0.153
-203.377	-38.974	0.237	0.122
-202.363	-116.345	-0.132	0.024
-201.348	86.243	-0.270	-0.291
-200.333	800.000	0.021	0.084
-199.319	405.402	0.180	-0.372
-198.304	193.179	-0.027	-0.040
-197.290	-178.008	0.165	0.004
-196.275	-200.000	0.008	-0.090
-195.260	-144.064	-0.385	0.035
-194.246	78.412	-0.224	0.234
-193.231	198.561	-0.071	0.107
-192.217	-27.877	-0.189	-0.107
-191.202	568.481	0.128	-0.305
-190.187	-200.000	0.000	-0.065
-189.173	-15.095	-0.116	0.073
-188.158	-127.085	0.027	0.004
-187.144	-117.397	-0.155	-0.027
-186.129	234.706	0.131	0.211
-185.114	66.321	0.071	0.071
-184.100	800.000	-0.049	0.169
-183.085	26.753	-0.207	0.170
-182.071	184.578	0.133	-0.193
-181.056	-29.601	-0.423	0.236
-180.042	-90.343	0.252	-0.071
-179.027	-200.000	-0.029	0.174
-178.012	73.163	-0.182	-0.185
-176.998	800.000	0.030	0.114
-175.983	-93.009	-0.375	0.102
-174.969	-9.798	0.594	0.387
-173.954	-193.547	-0.295	-0.002
-172.939	71.249	0.118	0.120
-171.925	800.000	-0.081	-0.261
-170.910	-164.435	-0.243	0.011
-169.896	-75.215	-0.244	0.085
-168.881	-2.974	-0.049	-0.034
-167.866	41.714	-0.216	-0.191
-166.852	-200.000	0.008	-0.265
-165.837	-192.938	0.180	-0.002
-164.823	110.717	-0.161	-0.189
-163.808	-106.147	-0.268	0.059
-162.793	-112.196	-0.232	0.046
-161.779	-42.171	0.258	0.129
-160.764	-52.600	0.130	-0.059
-159.750	-200.000	0.061	0.282
-158.735	-74.212	0.107	-0.038
-157.720	93.839	-0.090	0.100
-156.706	-0.994	0.080	0.055
-155.691	-90.060	0.251	-0.071
-154.677	680.227	-0.050	0.127
-153.662	131.241	0.150	-0.188
-152.647	-200.000	0.062	0.276
-151.633	-200.000	0.009	0.263
-150.618	-200.000	0.062	-0.327
-149.604	-74.203	-0.079	0.028
-148.589	355.125	-0.133	-0.259
-147.574	-139.139	-0.320	0.034
-146.560	-54.338	-0.257	-0.114
-145.545	-152.704	0.258	-0.018
-144.531	93.136	-0.184	-0.203
-143.516	276.095	-0.148	0.257
-142.502	-101.554	0.277	0.066
-141.487	228.840	0.138	-0.219
-140.472	-200.000	-0.004	-0.139
-139.458	800.000	0.065	-0.187
-138.443	305.981	-0.115	0.208
-137.429	-70.547	-0.141	-0.052
-136.414	192.776	-0.040	-0.059
-135.399	350.529	-0.174	0.335
-134.385	-83.188	-0.341	-0.107
-133.370	249.884	-0.091	-0.151
-132.356	-69.758	-0.143	-0.053
-131.341	-67.149	0.170	0.066
-130.326	800.000	-0.048	0.159
-129.312	-200.000	-0.033	-0.305
-128.297	-33.123	-0.130	0.070
-127.283	-55.843	0.281	-0.122
-126.268	-123.552	-0.190	0.029
-125.253	240.303	-0.113	0.184
-124.239	-49.515	0.235	0.109
-123.224	277.062	-0.052	-0.090
-122.210	800.000	0.038	0.155
-121.195	-43.057	0.567	0.280
-120.180	-200.000	0.025	0.390
-119.166	800.000	0.058	-0.242
-118.151	-43.390	0.269	0.132
-117.137	262.099	-0.108	0.183
-116.122	-200.000	-0.061	0.271
-115.107	42.033	0.313	-0.277
-114.093	160.188	0.036	-0.049
-113.078	94.029	-0.319	-0.352
-112.064	-84.842	0.262	0.080
-111.049	-53.849	0.421	0.187
-110.034	-97.615	-0.297	-0.075
-109.020	-200.000	-0.003	-0.081
-108.005	-48.695	-0.212	-0.099
-106.991	-106.263	-0.228	-0.050
-105.976	622.224	0.152	0.373
-104.962	-200.000	0.013	-0.174
-103.947	28.329	-0.155	-0.127
-102.932	800.000	0.086	-0.268
-101.918	33.172	0.097	-0.082
-100.903	-200.000	0.016	-0.328
-99.889	275.526	-0.009	-0.016
-98.874	-124.486	0.120	-0.018
-97.859	-200.000	-0.165	0.000
-96.845	109.427	-0.146	-0.170
-95.830	-200.000	0.060	-0.344
-94.816	-91.661	-0.259	-0.072
-93.801	310.718	0.130	-0.238
-92.786	0.682	0.118	0.082
-91.772	-200.000	0.103	-0.471
-90.757	16.012	0.158	-0.121
-89.743	523.207	-0.091	-0.208
-88.728	800.000	0.086	-0.340
-87.713	-116.608	-0.098	0.018
-86.699	-11.125	-0.386	-0.248
-85.684	-200.000	-0.006	-0.042
-84.670	800.000	-0.034	-0.113
-83.655	17.262	-0.242	0.187
-82.640	-43.721	-0.132	-0.065
-81.626	-158.070	-0.075	0.004
-80.611	800.000	-0.051	-0.184
-79.597	-44.647	0.145	-0.071
-78.582	-53.342	-0.239	-0.107
-77.567	662.655	-0.133	-0.334
-76.553	107.666	0.260	0.301
-75.538	800.000	0.069	-0.240
-74.524	-71.110	0.094	-0.034
-73.509	194.879	0.290	-0.428
-72.494	309.478	0.016	-0.029
-71.480	200.086	-0.108	0.161
-70.465	-32.351	0.190	-0.103
-69.451	-200.000	-0.031	-0.382
-68.436	-200.000	0.006	-0.046
-67.422	52.631	-0.188	-0.174
-66.407	193.873	-0.067	0.099
-65.392	234.936	0.176	-0.283
-64.378	-116.645	0.373	0.067
-63.363	-10.755	-0.247	-0.159
-62.349	-49.935	0.308	0.142
-61.334	125.065	-0.973	-1.192
-60.319	203.081	0.737	1.108
-59.305	407.253	-0.593	-1.219
-58.290	140.914	0.937	1.205
-57.276	800.000	0.517	1.508
-56.261	-200.000	124.712	646.661
-55.246	405.569	1578.538	3237.153
-54.232	140.671	2751.919	3534.065
-53.217	89.292	2312.937	2505.890
-52.203	32.304	1918.471	1609.922
-51.188	26.130	1713.608	1390.555
-50.173	24.034	1674.758	1343.177
-49.159	45.556	1744.032	1565.629
-48.144	43.180	1755.482	1557.523
-47.130	25.763	1706.871	1382.059
-46.115	23.244	1691.036	1349.995
-45.100	23.109	1686.015	1344.908
-44.086	23.108	1683.721	1343.019
-43.071	22.984	1681.872	1340.547
-42.057	23.058	1679.398	1339.083
-41.042	23.121	1677.261	1337.802
-40.027	23.117	1675.197	1336.076
-39.013	23.024	1673.596	1334.039
-37.998	23.063	1672.073	1333.066
-36.984	23.133	1670.672	1332.425
-35.969	23.153	1669.309	1331.437
-34.954	23.236	1667.271	1330.387
-33.940	23.117	1666.211	1328.589
-32.925	23.098	1664.122	1326.734
-31.911	23.179	1662.502	1325.996
-30.896	23.218	1660.138	1324.346
-29.881	23.150	1659.049	1322.921
-28.867	23.181	1657.739	1322.051
-27.852	23.143	1656.762	1320.937
-26.838	23.134	1654.825	1319.270
-25.823	23.113	1653.502	1318.007
-24.809	23.185	1652.007	1317.302
-23.794	23.249	1650.727	1316.704
-22.779	23.180	1649.324	1315.018
-21.765	23.124	1647.543	1313.129
-20.750	23.207	1646.273	1312.681
-19.736	23.159	1645.098	1311.338
-18.721	23.178	1643.487	1310.141
-17.706	23.223	1641.685	1308.986
-16.692	23.145	1640.488	1307.404
-15.677	23.333	1638.437	1307.103
-14.663	23.264	1636.997	1305.396
-13.648	23.255	1636.530	1304.909
-12.633	23.231	1634.884	1303.368
-11.619	23.232	1633.170	1301.955
-10.604	23.314	1631.349	1301.049
-9.590	23.217	1630.572	1299.669
-8.575	23.254	1628.926	1298.579
-7.560	23.280	1627.347	1297.461
-6.546	23.296	1626.493	1296.842
-5.531	23.335	1625.540	1296.319
-4.517	23.218	1624.689	1294.727
-3.502	23.182	1623.574	1293.528
-2.487	23.168	1621.967	1292.092
-1.473	22.893	1609.078	1279.786
-0.458	19.935	1589.248	1242.755
0.556	14.988	1590.894	1212.189
1.571	12.863	1615.042	1214.835
2.586	12.613	1627.250	1222.054
3.600	11.627	1572.592	1173.828
4.615	6.454	1464.956	1058.702
5.629	1.222	1406.033	982.217
6.644	0.288	1398.660	970.965
7.659	0.164	1398.064	969.667
8.673	0.147	1396.866	968.636
9.688	0.131	1394.196	966.600
10.702	-0.035	1391.088	963.298
11.717	2.624	1395.248	983.162
12.731	9.317	1405.199	1033.216
13.746	14.957	1413.459	1075.557
14.761	16.780	1414.793	1088.193
15.775	16.102	1413.610	1082.839
16.790	15.162	1410.627	1074.428
17.804	14.483	1407.986	1067.977
18.819	14.011	1407.004	1064.117
19.834	13.759	1405.704	1061.424
20.848	13.558	1404.813	1059.372
21.863	13.445	1403.153	1057.306
22.877	13.074	1402.260	1054.173
23.892	13.174	1400.832	1053.643
24.907	13.130	1400.481	1053.004
25.921	13.183	1399.148	1052.247
26.936	13.161	1398.331	1051.398
27.950	13.219	1397.237	1050.851
28.965	13.296	1396.656	1050.814
29.980	13.265	1395.888	1049.943
30.994	13.367	1394.752	1049.643
32.009	13.313	1393.992	1048.635
33.023	13.406	1392.784	1048.223
34.038	13.355	1391.244	1046.647
35.053	13.346	1389.523	1045.203
36.067	13.303	1388.795	1044.295
37.082	13.398	1387.823	1044.069
38.096	13.312	1387.232	1042.990
39.111	13.322	1385.996	1042.033
40.126	13.265	1385.112	1040.915
41.140	13.175	1384.427	1039.742
42.155	13.076	1384.563	1039.129
43.169	13.081	1383.977	1038.631
44.184	13.212	1383.367	1038.904
45.199	13.085	1383.070	1037.788
46.213	13.231	1382.278	1038.023
47.228	13.206	1381.503	1037.189
48.242	13.288	1380.231	1036.660
49.257	13.265	1378.511	1035.131
50.271	13.173	1377.577	1033.764
51.286	13.260	1375.996	1033.030
52.301	13.265	1374.620	1031.933
53.315	13.195	1373.532	1030.593
54.330	13.229	1372.086	1029.623
55.344	13.131	1371.055	1028.152
56.359	13.131	1369.903	1027.198
57.374	13.229	1369.118	1027.125
58.388	12.982	1368.698	1025.182
59.403	13.089	1367.894	1025.155
60.417	13.171	1366.900	1024.827
61.432	13.085	1366.012	1023.542
62.447	13.072	1364.671	1022.367
63.461	12.991	1363.853	1021.158
64.476	13.072	1362.639	1020.659
65.490	13.073	1361.920	1020.036
66.505	13.117	1359.315	1018.267
67.520	13.162	1358.483	1017.832
68.534	13.139	1357.169	1016.616
69.549	13.175	1356.350	1016.131
70.563	13.131	1355.649	1015.247
71.578	13.101	1354.097	1013.811
72.593	13.068	1353.148	1012.809
73.607	13.030	1352.681	1012.138
74.622	13.050	1351.736	1011.460
75.636	13.050	1350.993	1010.816
76.651	13.026	1350.039	1009.868
77.666	13.002	1349.445	1009.186
78.680	13.068	1349.027	1009.190
79.695	13.239	1347.586	1009.068
80.709	13.049	1347.245	1007.564
81.724	13.073	1346.531	1007.084
82.739	13.172	1345.264	1006.652
83.753	13.150	1344.373	1005.763
84.768	13.135	1343.566	1004.974
85.782	13.320	1341.983	1004.828
86.797	13.251	1340.802	1003.435
87.812	13.216	1339.275	1001.991
88.826	13.255	1338.091	1001.257
89.841	13.268	1337.091	1000.497
90.855	13.332	1336.012	999.985
91.870	13.328	1335.302	999.346
92.884	13.272	1334.986	998.682
93.899	13.280	1333.586	997.594
94.914	13.335	1333.125	997.491
95.928	13.309	1332.060	996.449
96.943	13.250	1331.316	995.447
97.957	13.194	1330.547	994.447
98.972	13.236	1328.925	993.400
99.987	13.292	1328.000	992.957
101.001	13.298	1327.149	992.268
102.016	13.266	1325.820	991.000
103.030	13.316	1325.057	990.639
104.045	13.262	1324.223	989.605
105.060	13.294	1323.056	988.838
106.074	13.200	1321.667	987.149
107.089	13.155	1320.060	985.596
108.103	13.106	1319.300	984.647
109.118	13.165	1317.508	983.575
110.133	13.200	1316.391	982.858
111.147	13.139	1315.122	981.464
112.162	13.186	1313.679	980.581
113.176	13.317	1312.128	980.109
114.191	13.268	1311.630	979.359
115.206	13.184	1310.500	977.934
116.220	13.291	1309.346	977.620
117.235	13.252	1307.740	976.106
118.249	13.135	1307.329	975.021
119.264	13.210	1305.875	974.293
120.279	13.248	1304.740	973.583
121.293	13.210	1303.490	972.338
122.308	13.169	1302.331	971.149
123.322	13.136	1301.582	970.311
124.337	13.183	1299.986	969.311
125.352	13.117	1299.246	968.286
126.366	13.266	1297.811	968.001
127.381	13.206	1296.765	966.784
128.395	13.122	1296.288	965.852
129.410	13.085	1295.563	965.013
130.424	13.176	1294.240	964.474
131.439	13.210	1292.964	963.637
132.454	13.289	1291.407	962.846
133.468	13.156	1291.191	961.826
134.483	13.185	1290.786	961.612
135.497	13.232	1289.142	960.575
136.512	13.156	1288.166	959.319
137.527	13.082	1286.858	957.830
138.541	13.191	1285.448	957.329
139.556	13.228	1284.105	956.458
140.570	13.413	1282.595	956.318
141.585	13.355	1281.739	955.261
142.600	13.362	1280.421	954.234
143.614	13.297	1280.105	953.536
144.629	13.495	1278.525	953.420
145.643	13.446	1277.171	952.044
146.658	13.438	1275.986	951.030
147.673	13.377	1274.532	949.510
148.687	13.241	1273.987	948.239
149.702	13.258	1272.148	946.886
150.716	13.284	1271.073	946.148
151.731	13.230	1269.903	944.885
152.746	13.396	1268.481	944.693
153.760	13.387	1267.266	943.651
154.775	13.484	1266.068	943.231
155.789	13.462	1265.033	942.253
156.804	13.492	1263.987	941.561
157.819	13.459	1263.154	940.666
158.833	13.531	1262.303	940.360
159.848	13.633	1260.815	939.748
160.862	13.528	1260.475	938.812
161.877	13.593	1258.681	937.763
162.892	13.559	1257.909	936.911
163.906	13.462	1256.902	935.530
164.921	13.426	1256.251	934.763
165.935	13.478	1255.632	934.509
166.950	13.549	1254.496	933.983
167.964	13.545	1253.971	933.488
168.979	13.478	1253.241	932.485
169.994	13.496	1252.532	931.973
171.008	13.521	1251.209	931.048
172.023	13.550	1250.333	930.476
173.037	13.594	1249.825	930.262
174.052	13.598	1248.604	929.293
175.067	13.635	1247.684	928.735
176.081	13.544	1247.074	927.691
177.096	13.600	1246.056	927.165
178.110	13.662	1244.711	926.427
179.125	13.616	1243.293	925.035
180.140	13.705	1242.044	924.520
181.154	13.624	1241.307	923.438
182.169	13.790	1239.963	923.277
183.183	13.733	1238.747	921.974
184.198	13.705	1237.565	920.855
185.213	13.815	1236.197	920.370
186.227	13.774	1235.363	919.437
187.242	13.830	1234.216	918.813
188.256	13.733	1233.823	917.906
189.271	13.780	1232.928	917.415
190.286	13.681	1231.556	915.766
191.300	13.718	1230.413	915.040
192.315	13.717	1230.131	914.742
193.329	13.743	1229.203	914.117
194.344	13.753	1228.607	913.646
195.359	13.748	1227.980	913.075
196.373	13.831	1227.646	913.202
197.388	13.824	1226.943	912.557
198.402	13.857	1226.997	912.701
199.417	13.962	1225.940	912.409
200.432	14.053	1224.829	912.000
201.446	14.004	1223.851	910.925
202.461	14.091	1222.884	910.601
203.475	14.093	1221.473	909.479
204.490	14.121	1220.331	908.700
205.504	13.989	1219.448	907.242
206.519	14.097	1218.163	906.794
207.534	14.077	1216.788	905.582
208.548	14.001	1216.053	904.543
209.563	13.999	1215.386	903.955
210.577	14.092	1214.296	903.571
211.592	14.110	1213.714	903.153
212.607	14.189	1212.485	902.587
213.621	14.246	1211.447	902.045
214.636	14.131	1210.602	900.715
215.650	14.236	1209.700	900.531
216.665	14.278	1208.825	900.024
217.680	14.264	1208.253	899.444
218.694	14.218	1207.513	898.566
219.709	14.194	1206.502	897.606
220.723	14.218	1205.998	897.278
221.738	14.269	1204.809	896.589
222.753	14.319	1204.474	896.529
223.767	14.245	1203.475	895.313
224.782	14.289	1202.991	895.107
225.796	14.421	1201.974	894.983
226.811	14.318	1201.714	894.153
227.826	14.359	1200.493	893.385
228.840	14.340	1200.076	892.895
229.855	14.390	1199.516	892.671
230.869	14.357	1198.271	891.485
231.884	14.256	1197.861	890.564
232.899	14.430	1196.652	890.515
233.913	14.395	1196.243	889.944
234.928	14.390	1195.023	888.931
235.942	14.336	1194.467	888.149
236.957	14.316	1194.046	887.654
237.972	14.405	1192.924	887.216
238.986	14.386	1192.544	886.751
240.001	14.417	1191.705	886.213
241.015	14.516	1190.674	885.897
242.030	14.597	1189.740	885.552
243.045	14.522	1188.854	884.415
244.059	14.578	1188.552	884.407
245.074	14.569	1187.541	883.533
246.088	14.527	1187.122	882.921
247.103	14.634	1186.018	882.587
248.117	14.493	1185.880	881.661
249.132	14.605	1184.586	881.212
250.147	14.769	1183.800	881.412
251.161	14.803	1182.678	880.682
252.176	14.787	1182.494	880.381
253.190	14.767	1182.182	879.965
254.205	14.836	1181.216	879.528
255.220	14.897	1180.458	879.210
256.234	14.951	1180.068	879.124
257.249	14.891	1179.219	878.100
258.263	14.903	1178.575	877.606
259.278	14.959	1177.757	877.212
260.293	14.927	1177.714	876.933
261.307	14.896	1177.094	876.234
262.322	15.063	1175.934	876.165
263.336	15.019	1175.372	875.442
264.351	15.020	1175.047	875.128
265.366	15.010	1174.331	874.464
266.380	14.928	1173.453	873.302
267.395	15.086	1172.639	873.444
268.409	15.053	1171.968	872.696
269.424	15.003	1171.442	871.968
270.439	15.041	1170.363	871.282
271.453	14.863	1170.218	870.174
272.468	15.128	1168.707	870.348
273.482	15.071	1167.913	869.386
274.497	14.955	1167.285	868.238
275.512	15.020	1167.058	868.329
276.526	15.164	1165.728	868.009
277.541	15.011	1165.336	866.847
278.555	15.174	1164.440	866.950
279.570	15.169	1163.734	866.323
280.585	15.353	1162.428	866.220
281.599	15.227	1162.011	865.182
282.614	15.115	1161.497	864.149
283.628	15.225	1159.727	863.318
284.643	15.327	1158.774	863.057
285.657	15.282	1157.926	862.119
286.672	15.202	1157.167	861.069
287.687	15.244	1156.402	860.639
288.701	15.306	1155.235	860.010
289.716	15.314	1154.464	859.402
290.730	15.324	1153.859	858.926
291.745	15.282	1153.297	858.216
292.760	15.520	1152.477	858.750
293.774	15.435	1152.252	858.068
294.789	15.476	1151.623	857.738
295.803	15.392	1151.392	857.059
296.818	15.363	1150.391	856.090
297.833	15.427	1149.347	855.561
298.847	15.589	1148.385	855.595
299.862	15.495	1147.792	854.601
300.876	15.527	1146.901	854.025
301.891	15.592	1146.117	853.697
302.906	15.589	1145.608	853.224
303.920	15.549	1145.088	852.558
304.935	15.628	1144.314	852.309
305.949	15.745	1143.162	851.966
306.964	15.679	1143.118	851.523
307.979	15.647	1142.414	850.761
308.993	15.726	1141.805	850.635
310.008	15.693	1141.125	849.884
311.022	15.674	1140.140	848.982
312.037	15.822	1138.648	848.539
313.052	15.666	1138.258	847.391
314.066	15.592	1137.294	846.225
315.081	15.765	1136.466	846.405
316.095	15.678	1135.639	845.278
317.110	15.650	1135.151	844.695
318.125	15.644	1134.293	843.953
319.139	15.704	1133.618	843.676
320.154	15.680	1133.259	843.215
321.168	15.795	1132.348	843.040
322.183	15.772	1131.700	842.367
323.197	15.641	1131.391	841.408
324.212	15.902	1130.085	841.663
325.227	15.828	1130.024	841.174
326.241	15.816	1129.284	840.493
327.256	15.757	1128.675	839.667
328.270	15.708	1127.653	838.591
329.285	15.856	1126.608	838.473
330.300	15.844	1125.257	837.337
331.314	15.843	1124.301	836.547
332.329	15.863	1123.131	835.701
333.343	15.997	1122.215	835.607
334.358	15.890	1122.128	834.939
335.373	15.953	1121.074	834.395
336.387	15.998	1120.294	833.962
337.402	15.933	1119.406	832.906
338.416	15.931	1118.989	832.513
339.431	16.100	1118.095	832.610
340.446	16.015	1117.941	831.999
341.460	16.128	1116.952	831.748
342.475	16.056	1116.108	830.692
343.489	16.136	1115.403	830.487
344.504	16.206	1114.071	829.765
345.519	16.237	1113.125	829.142
346.533	16.305	1112.029	828.583
347.548	16.149	1112.194	827.868
348.562	16.156	1111.376	827.220
349.577	16.261	1110.407	826.942
350.592	16.138	1109.753	825.777
351.606	16.262	1108.782	825.586
352.621	16.235	1107.900	824.725
353.635	16.260	1107.074	824.163
354.650	16.213	1106.757	823.625
355.665	16.331	1106.223	823.727
356.679	16.354	1105.617	823.315
357.694	16.329	1104.948	822.622
358.708	16.310	1104.342	822.007
359.723	16.390	1103.228	821.493
360.738	16.240	1103.407	820.825
361.752	16.380	1102.844	821.016
362.767	16.386	1101.830	820.217
363.781	16.382	1101.004	819.508
364.796	16.464	1100.587	819.522
365.810	16.528	1099.851	819.214
366.825	16.591	1099.065	818.861
367.840	16.485	1099.161	818.347
368.854	16.676	1098.082	818.393
369.869	16.570	1097.465	817.348
370.883	16.623	1096.404	816.741
371.898	16.617	1095.614	816.052
372.913	16.551	1095.382	815.488
373.927	16.621	1094.903	815.400
374.942	16.619	1094.269	814.842
375.956	16.682	1093.670	814.627
376.971	16.687	1092.800	813.933
377.986	16.692	1092.386	813.576
379.000	16.785	1091.972	813.646
380.015	16.807	1091.199	813.101
381.029	16.779	1090.523	812.390
382.044	16.816	1090.099	812.179
383.059	16.759	1089.542	811.422
384.073	16.811	1088.651	810.933
385.088	16.863	1087.709	810.411
386.102	16.847	1086.541	809.392
387.117	16.895	1085.452	808.735
388.132	16.844	1084.336	807.592
389.146	16.863	1083.997	807.359
390.161	16.910	1083.345	807.024
391.175	16.867	1082.296	805.967
392.190	16.942	1081.635	805.759
393.205	16.912	1080.915	805.011
394.219	16.971	1080.007	804.540
395.234	16.971	1079.765	804.292
396.248	16.964	1078.317	803.107
397.263	16.966	1077.049	802.103
398.278	16.831	1076.906	801.286
399.292	16.910	1075.676	800.675
400.307	16.865	1075.339	800.141
401.321	16.944	1074.590	799.885
402.336	16.918	1074.028	799.273
403.350	16.997	1072.941	798.765
404.365	16.866	1072.731	797.922
405.380	17.080	1071.516	797.950
406.394	17.063	1071.044	797.449
407.409	16.985	1070.535	796.634
408.423	17.166	1069.490	796.635
409.438	17.178	1068.904	796.183
410.453	17.177	1068.402	795.737
411.467	17.288	1067.582	795.572
412.482	17.208	1066.587	794.390
413.496	17.275	1066.030	794.214
414.511	17.202	1065.723	793.574
415.526	17.405	1065.236	794.088
416.540	17.369	1064.996	793.673
417.555	17.380	1064.295	793.133
418.569	17.353	1063.758	792.537
419.584	17.317	1063.100	791.807
420.599	17.398	1062.792	791.885
421.613	107.632	1331.425	1486.821
422.628	99.404	1370.502	1486.904
