DTS Sentinel unit serial number:	SN413079Multiplexer serial number:	ORYXHardware model number:	OX4-SRSoftware version number:	ORYX F/W v4.00 Oryx Data Collector v3.7.2.0data status	okinstallation	princeton_trtdifferential loss correction	single-endedforward channel	channel 2reverse channel	N/Adate	2019/09/12time	21:19:35forward acquisition time	60.00reverse acquisition time	0.00gamma	496.2192k internal	0.2328k external	0.2328temperature offset calibration	1.0168default loss term (dB/km)	0.3790temperature slope calibration	1.0000multiplexer offset coefficient	1.0000multiplexer slope coefficient	1.0000fibre end	0.00T internal ref (°C)	30.56T ext. ref 1 (°C)	3.63T ext. ref 2 (°C)	25.17length (m)	temperature (°C)	Stokes	anti-Stokes-747.200	800.000	0.008	-0.033
-746.185	-71.839	0.069	0.026
-745.171	27.476	0.044	-0.037
-744.156	135.716	-0.118	0.155
-743.142	254.180	-0.128	-0.220
-742.127	-177.143	-0.116	0.003
-741.112	121.362	0.034	-0.043
-740.098	800.000	0.104	0.413
-739.083	-200.000	-0.021	0.391
-738.069	303.971	-0.017	0.031
-737.054	-5.089	0.156	0.108
-736.039	-146.393	-0.326	0.029
-735.025	-140.974	0.210	0.022
-734.010	262.302	-0.054	-0.094
-732.996	-200.000	0.018	-0.260
-731.981	-143.896	-0.243	0.023
-730.966	-111.323	-0.211	-0.043
-729.952	-100.816	-0.270	0.067
-728.937	52.830	-0.417	0.401
-727.923	-108.061	-0.179	0.039
-726.908	188.131	-0.175	-0.263
-725.894	94.198	0.094	-0.108
-724.879	-200.000	0.011	-0.089
-723.864	144.189	-0.135	0.181
-722.850	496.053	0.069	0.160
-721.835	348.512	-0.092	0.183
-720.821	6.913	0.123	0.092
-719.806	-133.555	0.056	0.007
-718.791	253.216	-0.070	0.121
-717.777	-96.735	0.253	-0.067
-716.762	529.658	0.028	0.066
-715.748	-200.000	-0.001	0.066
-714.733	590.744	-0.136	0.338
-713.718	-200.000	0.050	0.259
-712.704	-127.152	-0.011	0.002
-711.689	194.742	-0.092	-0.141
-710.675	-104.438	-0.167	0.039
-709.660	200.563	0.059	-0.092
-708.645	800.000	-0.027	-0.081
-707.631	567.818	-0.131	-0.320
-706.616	-106.516	0.375	0.084
-705.602	-57.242	0.123	0.055
-704.587	-172.353	-0.200	0.006
-703.572	4.946	-0.273	-0.202
-702.558	-200.000	-0.024	-0.261
-701.543	342.176	-0.135	-0.265
-700.529	-200.000	0.347	0.001
-699.514	343.407	0.167	-0.329
-698.499	-179.034	-0.222	-0.005
-697.485	-43.087	-0.203	-0.103
-696.470	-133.000	0.234	-0.030
-695.456	800.000	0.064	-0.269
-694.441	-162.205	-0.113	0.006
-693.426	800.000	0.034	-0.146
-692.412	-64.675	-0.103	0.042
-691.397	800.000	-0.098	-0.345
-690.383	-64.326	-0.279	-0.114
-689.368	800.000	-0.048	-0.189
-688.354	-126.585	0.344	-0.051
-687.339	-22.646	0.132	-0.080
-686.324	-69.724	-0.219	0.084
-685.310	800.000	0.111	-0.452
-684.295	-78.032	0.092	-0.032
-683.281	-80.330	-0.355	0.119
-682.266	151.911	-0.016	-0.021
-681.251	-46.955	0.189	-0.093
-680.237	-119.267	0.078	-0.014
-679.222	178.645	-0.118	0.173
-678.208	241.530	0.158	0.265
-677.193	13.933	-0.144	-0.113
-676.178	-44.068	0.158	0.080
-675.164	-200.000	0.041	-0.278
-674.149	-188.917	-0.180	-0.002
-673.135	164.148	-0.147	-0.208
-672.120	-65.147	0.292	-0.118
-671.105	800.000	0.022	0.079
-670.091	800.000	-0.038	0.133
-669.076	186.023	0.197	-0.294
-668.062	-119.005	-0.318	-0.056
-667.047	-51.437	0.228	-0.107
-666.032	455.303	-0.078	-0.174
-665.018	-200.000	0.311	0.001
-664.003	-200.000	0.030	-0.205
-662.989	-82.989	0.429	-0.139
-661.974	-51.871	0.220	0.103
-660.959	-43.659	-0.162	-0.082
-659.945	4.616	-0.194	-0.143
-658.930	-74.939	-0.090	-0.032
-657.916	-94.177	-0.134	-0.037
-656.901	-86.989	0.038	-0.012
-655.886	-200.000	0.018	0.180
-654.872	-200.000	0.018	0.179
-653.857	-58.163	0.378	-0.166
-652.843	501.207	-0.127	0.295
-651.828	-117.374	-0.257	-0.047
-650.814	-200.000	-0.079	0.390
-649.799	-114.660	-0.140	-0.027
-648.784	800.000	-0.055	0.193
-647.770	-200.000	0.017	0.125
-646.755	12.850	-0.072	-0.056
-645.741	-106.056	0.038	-0.009
-644.726	-153.863	0.137	-0.009
-643.711	-117.256	-0.276	-0.050
-642.697	422.485	-0.219	0.472
-641.682	242.869	-0.094	0.159
-640.668	25.841	0.142	-0.119
-639.653	-0.024	0.180	0.129
-638.638	-200.000	0.030	0.269
-637.624	-200.000	-0.028	-0.208
-636.609	-140.624	-0.408	-0.042
-635.595	-102.078	0.268	0.065
-634.580	-79.358	0.076	-0.026
-633.565	-109.169	0.353	0.075
-632.551	141.933	-0.070	-0.094
-631.536	4.996	-0.144	0.107
-630.522	800.000	-0.062	-0.266
-629.507	66.400	-0.032	0.033
-628.492	-95.004	0.287	-0.078
-627.478	277.495	0.035	-0.063
-626.463	490.091	-0.060	-0.138
-625.449	800.000	0.089	-0.298
-624.434	-105.633	-0.197	-0.045
-623.419	800.000	0.033	-0.125
-622.405	601.649	0.181	0.451
-621.390	-200.000	0.034	0.407
-620.376	693.152	0.077	-0.203
-619.361	-79.043	0.503	-0.172
-618.346	-90.789	0.437	-0.126
-617.332	37.235	0.233	-0.207
-616.317	4.732	-0.023	-0.017
-615.303	174.718	0.024	0.035
-614.288	101.631	0.095	-0.111
-613.273	135.913	0.094	0.123
-612.259	-200.000	-0.009	0.300
-611.244	-12.085	0.116	0.076
-610.230	86.653	-0.092	0.102
-609.215	-173.894	-0.249	-0.007
-608.201	-8.546	0.213	0.144
-607.186	-100.089	0.045	0.011
-606.171	-200.000	0.066	-0.318
-605.157	-176.532	0.162	0.004
-604.142	-87.635	0.077	0.023
-603.128	800.000	-0.122	-0.412
-602.113	124.619	-0.178	-0.225
-601.098	-137.543	-0.287	-0.032
-600.084	-77.239	0.273	0.095
-599.069	-200.000	0.074	-0.330
-598.055	-102.695	0.023	0.006
-597.040	-144.507	0.270	-0.025
-596.025	38.648	-0.252	0.225
-595.011	19.844	0.143	0.115
-593.996	-88.013	0.356	-0.107
-592.982	-146.266	-0.296	0.026
-591.967	-24.120	-0.136	-0.082
-590.952	-109.445	0.418	0.089
-589.938	800.000	-0.041	-0.179
-588.923	-52.921	-0.177	0.081
-587.909	114.647	0.055	0.067
-586.894	-200.000	-0.019	0.179
-585.879	138.907	0.121	0.159
-584.865	260.795	0.046	-0.079
-583.850	-43.831	-0.075	-0.038
-582.836	10.184	0.080	-0.061
-581.821	-130.952	-0.352	-0.047
-580.806	93.020	-0.151	0.171
-579.792	800.000	0.029	-0.088
-578.777	-29.560	0.214	-0.123
-577.763	-61.310	0.221	0.093
-576.748	-110.740	0.266	0.055
-575.733	5.116	0.320	0.236
-574.719	43.007	0.075	0.068
-573.704	-200.000	-0.041	-0.278
-572.690	243.972	-0.025	-0.042
-571.675	386.921	-0.088	0.181
-570.661	-200.000	-0.005	0.109
-569.646	-79.260	-0.113	-0.038
-568.631	-52.599	0.030	-0.014
-567.617	-143.468	-0.279	0.027
-566.602	-200.000	0.011	0.168
-565.588	-200.000	-0.204	0.001
-564.573	-200.000	-0.011	-0.170
-563.558	159.366	0.040	-0.056
-562.544	22.073	-0.058	0.047
-561.529	-185.118	-0.127	-0.002
-560.515	800.000	-0.027	-0.114
-559.500	-58.182	-0.278	0.121
-558.485	-114.933	-0.500	-0.095
-557.471	-61.674	-0.162	0.068
-556.456	-169.894	-0.112	0.004
-555.442	-200.000	0.015	-0.066
-554.427	800.000	-0.138	-0.477
-553.412	-200.000	-0.019	0.126
-552.398	-200.000	0.061	0.274
-551.383	-200.000	-0.254	0.000
-550.369	-40.896	-0.130	0.067
-549.354	-200.000	-0.007	0.055
-548.339	18.386	0.252	-0.201
-547.325	176.578	0.025	-0.036
-546.310	262.696	0.334	-0.580
-545.296	172.839	-0.231	-0.333
-544.281	-46.193	-0.165	0.081
-543.266	484.650	-0.111	-0.253
-542.252	80.772	0.201	0.217
-541.237	-69.893	-0.260	0.099
-540.223	-152.879	-0.176	0.012
-539.208	-55.203	-0.415	0.186
-538.193	-136.535	-0.284	-0.033
-537.179	-200.000	0.043	-0.346
-536.164	321.543	-0.149	-0.284
-535.150	174.580	0.140	0.202
-534.135	75.583	-0.090	-0.095
-533.121	-66.163	-0.460	-0.183
-532.106	485.235	-0.055	-0.125
-531.091	-99.967	0.069	0.017
-530.077	-55.068	0.093	0.042
-529.062	-39.792	-0.161	-0.084
-528.048	362.021	0.155	0.311
-527.033	-126.332	0.191	-0.029
-526.018	-144.561	0.179	0.016
-525.004	33.535	0.295	-0.256
-523.989	-122.076	-0.369	-0.060
-522.975	51.822	0.111	0.106
-521.960	305.695	0.054	0.101
-520.945	149.379	-0.165	-0.223
-519.931	563.355	-0.097	-0.234
-518.916	-94.022	-0.130	-0.036
-517.902	4.163	-0.094	-0.069
-516.887	6.606	-0.047	-0.035
-515.872	800.000	-0.084	-0.264
-514.858	394.871	0.037	-0.078
-513.843	10.304	0.114	-0.087
-512.829	800.000	-0.065	-0.245
-511.814	-45.830	-0.354	-0.175
-510.799	-200.000	-0.050	0.222
-509.785	-200.000	-0.006	-0.238
-508.770	-200.000	0.025	-0.193
-507.756	800.000	-0.012	0.047
-506.741	86.784	0.283	0.312
-505.726	-50.087	0.060	0.028
-504.712	-200.000	-0.035	0.172
-503.697	-148.520	-0.376	-0.031
-502.683	-200.000	-0.024	0.135
-501.668	38.300	0.176	-0.156
-500.653	800.000	0.095	-0.311
-499.639	155.600	-0.136	0.187
-498.624	-103.831	0.216	0.051
-497.610	800.000	0.080	0.231
-496.595	-70.580	-0.196	0.074
-495.581	-45.721	-0.255	0.126
-494.566	252.956	-0.282	-0.480
-493.551	-157.794	-0.491	0.029
-492.537	-200.000	0.009	0.090
-491.522	-102.244	0.202	-0.048
-490.508	7.781	0.066	-0.050
-489.493	192.921	0.081	-0.121
-488.478	800.000	0.038	-0.143
-487.464	-200.000	-0.060	0.276
-486.449	800.000	0.073	0.281
-485.435	49.998	-0.197	-0.186
-484.420	519.247	-0.038	-0.089
-483.405	800.000	0.066	0.232
-482.391	12.518	-0.119	0.092
-481.376	-151.183	-0.291	-0.022
-480.362	-176.769	0.179	0.005
-479.347	50.046	0.221	-0.208
-478.332	800.000	-0.069	-0.245
-477.318	77.652	0.181	-0.192
-476.303	-200.000	0.053	-0.277
-475.289	-15.087	-0.086	-0.055
-474.274	-155.125	0.335	-0.022
-473.259	-126.197	-0.433	-0.065
-472.245	70.911	-0.310	-0.320
-471.230	-40.940	-0.035	0.018
-470.216	800.000	0.023	-0.067
-469.201	265.244	-0.075	-0.131
-468.186	-200.000	0.021	-0.304
-467.172	113.037	0.109	-0.131
-466.157	-200.000	0.033	0.179
-465.143	30.718	-0.086	-0.073
-464.128	-200.000	0.022	0.386
-463.113	800.000	-0.078	-0.288
-462.099	-22.003	0.053	-0.032
-461.084	-29.613	0.305	0.174
-460.070	-200.000	0.002	0.071
-459.055	-98.702	-0.133	-0.034
-458.040	-81.285	-0.311	-0.102
-457.026	800.000	-0.050	-0.209
-456.011	257.249	-0.120	-0.205
-454.997	-41.241	0.141	0.072
-453.982	300.671	-0.174	0.321
-452.968	-41.355	-0.423	-0.217
-451.953	-33.620	-0.198	0.109
-450.938	-200.000	0.015	0.324
-449.924	-200.000	-0.048	-0.481
-448.909	-104.987	-0.539	-0.123
-447.895	-124.660	-0.212	0.033
-446.880	-86.249	0.094	0.029
-445.865	800.000	0.011	0.042
-444.851	59.984	0.064	0.063
-443.836	-121.797	-0.148	-0.024
-442.822	-35.966	-0.191	-0.103
-441.807	212.156	-0.098	0.154
-440.792	174.574	0.219	0.316
-439.778	-149.716	-0.236	0.018
-438.763	-179.720	-0.267	-0.006
-437.749	-200.000	0.002	-0.210
-436.734	295.272	-0.062	0.112
-435.719	-200.000	-0.006	-0.210
-434.705	-200.000	0.016	0.094
-433.690	-108.856	-0.033	0.007
-432.676	-37.497	-0.142	-0.075
-431.661	129.850	0.066	-0.084
-430.646	800.000	-0.046	0.134
-429.632	135.559	-0.043	0.055
-428.617	-148.384	0.145	0.012
-427.603	-99.590	0.051	0.013
-426.588	139.924	0.118	-0.154
-425.573	-200.000	0.017	-0.161
-424.559	-46.850	0.099	0.048
-423.544	-8.746	-0.155	-0.103
-422.530	-181.735	0.288	0.006
-421.515	453.658	-0.172	0.379
-420.500	296.901	-0.076	0.139
-419.486	800.000	-0.052	0.178
-418.471	353.497	0.151	-0.298
-417.457	431.765	-0.065	-0.141
-416.442	-46.162	0.085	0.042
-415.428	62.102	-0.154	0.153
-414.413	-200.000	-0.027	-0.184
-413.398	-98.606	0.134	-0.034
-412.384	-73.341	-0.040	0.015
-411.369	33.911	-0.305	-0.264
-410.355	-75.780	0.080	-0.028
-409.340	135.019	0.324	-0.419
-408.325	-7.768	0.185	0.124
-407.311	-14.113	0.065	0.042
-406.296	-58.492	0.093	-0.040
-405.282	112.999	-0.274	0.330
-404.267	-22.458	0.201	0.121
-403.252	-200.000	-0.053	0.237
-402.238	-200.000	-0.025	0.295
-401.223	704.616	-0.188	0.493
-400.209	-52.822	-0.347	-0.159
-399.194	311.584	-0.182	0.339
-398.179	-200.000	0.043	0.244
-397.165	-200.000	-0.034	0.453
-396.150	110.076	-0.207	-0.247
-395.136	-200.000	0.007	0.138
-394.121	-200.000	0.016	-0.182
-393.106	-147.704	-0.298	0.025
-392.092	-200.000	0.072	0.341
-391.077	-185.435	-0.220	0.003
-390.063	-200.000	-0.042	0.200
-389.048	18.251	0.055	-0.044
-388.033	-200.000	0.013	0.226
-387.019	-30.866	0.166	0.093
-386.004	94.876	0.067	-0.075
-384.990	-200.000	-0.028	-0.131
-383.975	-200.000	0.030	-0.231
-382.960	-38.130	-0.152	0.080
-381.946	-99.979	0.061	0.015
-380.931	79.879	-0.200	0.213
-379.917	48.654	0.063	-0.059
-378.902	-200.000	-0.023	0.175
-377.888	98.524	0.057	-0.065
-376.873	-107.085	-0.096	0.021
-375.858	-200.000	0.001	0.163
-374.844	-117.110	0.411	0.074
-373.829	88.255	-0.291	0.321
-372.815	-72.965	0.307	0.112
-371.800	197.298	0.152	0.230
-370.785	-68.463	-0.465	-0.179
-369.771	156.395	0.137	-0.188
-368.756	21.514	-0.364	-0.294
-367.742	-200.000	0.014	-0.371
-366.727	-132.122	0.081	0.010
-365.712	321.496	-0.032	-0.060
-364.698	-138.082	0.328	-0.036
-363.683	-41.823	0.210	0.107
-362.669	235.557	0.117	-0.192
-361.654	-200.000	0.021	-0.116
-360.639	800.000	-0.071	0.221
-359.625	381.455	0.134	-0.273
-358.610	-50.300	-0.195	-0.092
-357.596	800.000	0.070	0.229
-356.581	-200.000	-0.032	-0.142
-355.566	-200.000	-0.025	0.130
-354.552	-104.545	-0.086	-0.020
-353.537	-108.970	0.157	-0.033
-352.523	340.867	-0.132	-0.255
-351.508	-200.000	-0.261	-0.001
-350.493	-200.000	-0.034	0.301
-349.479	439.523	-0.181	-0.392
-348.464	-200.000	-0.004	-0.155
-347.450	136.745	-0.199	-0.258
-346.435	-200.000	-0.021	-0.113
-345.420	66.954	-0.282	0.285
-344.406	-106.265	0.202	0.045
-343.391	800.000	0.027	-0.084
-342.377	-172.287	-0.194	0.006
-341.362	28.111	-0.072	-0.060
-340.348	-37.600	-0.102	0.054
-339.333	800.000	0.036	-0.101
-338.318	-85.440	-0.242	0.075
-337.304	41.418	-0.173	0.155
-336.289	701.920	0.059	-0.155
-335.275	-125.349	-0.336	-0.051
-334.260	33.465	-0.136	0.117
-333.245	800.000	-0.085	0.326
-332.231	-61.478	0.237	0.099
-331.216	-88.809	0.191	-0.056
-330.202	-47.303	-0.150	-0.073
-329.187	129.741	0.131	0.166
-328.172	-156.499	-0.074	0.005
-327.158	-110.135	0.284	-0.059
-326.143	-67.552	0.134	-0.052
-325.129	43.113	0.323	0.293
-324.114	-200.000	0.002	-0.016
-323.099	-38.058	-0.273	0.143
-322.085	-114.575	0.144	0.027
-321.070	-200.000	0.004	-0.309
-320.056	581.246	0.041	-0.100
-319.041	-119.026	-0.346	-0.060
-318.026	-45.793	0.370	-0.181
-317.012	-90.767	0.216	-0.062
-315.997	-200.000	-0.029	0.460
-314.983	137.072	-0.137	-0.177
-313.968	-12.332	0.325	0.211
-312.953	3.128	-0.131	0.094
-311.939	-144.117	0.215	-0.020
-310.924	-71.046	-0.163	0.061
-309.910	77.455	0.110	0.116
-308.895	800.000	0.078	-0.268
-307.880	224.456	-0.097	0.155
-306.866	149.988	0.111	0.149
-305.851	-200.000	0.010	0.283
-304.837	478.023	0.081	0.181
-303.822	-200.000	0.109	0.622
-302.807	-23.809	0.142	0.084
-301.793	-106.571	0.391	-0.086
-300.778	800.000	-0.039	-0.136
-299.764	-200.000	0.006	-0.029
-298.749	800.000	-0.017	-0.067
-297.735	-91.109	0.360	-0.102
-296.720	513.242	-0.128	0.296
-295.705	-0.072	-0.268	-0.189
-294.691	-200.000	-0.010	-0.095
-293.676	-75.814	0.331	0.116
-292.662	85.576	-0.145	-0.158
-291.647	-80.929	0.103	0.034
-290.632	-200.000	0.010	-0.078
-289.618	209.653	0.203	0.316
-288.603	-200.000	0.015	0.172
-287.589	-0.705	0.193	-0.135
-286.574	623.902	-0.100	0.249
-285.559	-200.000	0.042	-0.312
-284.545	-112.042	-0.220	0.044
-283.530	478.739	0.119	-0.268
-282.516	-200.000	0.055	0.322
-281.501	-200.000	0.019	0.166
-280.486	-200.000	0.006	0.117
-279.472	65.787	0.248	-0.249
-278.457	-200.000	0.017	0.132
-277.443	189.173	-0.198	-0.294
-276.428	236.805	0.121	0.199
-275.413	-200.000	0.057	0.331
-274.399	-84.059	0.105	0.033
-273.384	103.130	0.108	0.125
-272.370	-163.315	-0.135	0.006
-271.355	-29.876	-0.111	-0.062
-270.340	91.701	0.091	0.101
-269.326	472.387	0.151	0.336
-268.311	-20.004	0.341	-0.208
-267.297	-42.549	0.222	0.112
-266.282	-200.000	-0.002	-0.107
-265.267	189.914	0.091	-0.135
-264.253	4.161	-0.105	-0.076
-263.238	628.787	0.014	-0.036
-262.224	-200.000	-0.019	-0.089
-261.209	60.093	0.079	-0.077
-260.195	800.000	-0.047	-0.155
-259.180	-45.673	-0.217	-0.106
-258.165	-157.338	-0.053	0.003
-257.151	800.000	0.091	0.321
-256.136	-11.193	-0.189	0.123
-255.122	117.262	0.419	-0.510
-254.107	708.568	-0.056	0.147
-253.092	-200.000	0.002	0.032
-252.078	518.978	-0.134	0.310
-251.063	-200.000	0.004	-0.067
-250.049	-162.105	0.135	0.007
-249.034	56.106	0.235	-0.225
-248.019	2.381	0.197	0.141
-247.005	800.000	-0.053	0.188
-245.990	800.000	0.065	0.220
-244.976	-200.000	0.043	0.224
-243.961	116.229	-0.109	0.131
-242.946	297.774	0.232	-0.421
-241.932	-115.344	0.354	-0.066
-240.917	-48.489	-0.209	-0.099
-239.903	-200.000	0.006	0.118
-238.888	-200.000	-0.001	-0.070
-237.873	4.490	-0.127	-0.092
-236.859	-200.000	-0.020	0.119
-235.844	244.494	0.116	-0.193
-234.830	442.950	-0.066	-0.142
-233.815	-0.909	0.175	-0.123
-232.800	8.464	-0.171	0.127
-231.786	-154.101	0.432	0.029
-230.771	-200.000	0.029	0.368
-229.757	-72.195	0.288	0.106
-228.742	14.202	0.363	-0.279
-227.727	130.410	-0.205	0.259
-226.713	-200.000	0.001	-0.077
-225.698	-200.000	0.063	-0.586
-224.684	311.801	-0.315	-0.583
-223.669	800.000	0.027	0.081
-222.655	75.253	-0.276	0.287
-221.640	-78.626	0.288	-0.097
-220.625	289.379	-0.105	0.187
-219.611	309.768	0.043	0.079
-218.596	800.000	-0.032	0.121
-217.582	-98.761	-0.118	-0.030
-216.567	-33.962	0.157	0.085
-215.552	-200.000	-0.006	0.156
-214.538	-107.253	0.187	-0.041
-213.523	166.566	0.149	-0.209
-212.509	372.897	-0.049	-0.099
-211.494	-200.000	-0.001	-0.011
-210.479	453.705	-0.133	-0.291
-209.465	-139.856	0.299	-0.031
-208.450	-27.482	0.253	-0.145
-207.436	113.657	-0.114	-0.137
-206.421	93.573	0.205	-0.229
-205.406	-139.581	-0.151	0.016
-204.392	594.415	-0.107	0.261
-203.377	-200.000	0.027	-0.232
-202.363	99.090	0.030	-0.034
-201.348	-103.897	-0.243	0.056
-200.333	800.000	-0.029	-0.116
-199.319	655.862	-0.059	-0.150
-198.304	217.254	0.084	0.132
-197.290	-31.965	-0.173	0.096
-196.275	107.317	-0.055	-0.064
-195.260	-157.822	-0.175	0.010
-194.246	-141.465	0.335	0.033
-193.231	-54.623	-0.122	-0.054
-192.217	-56.989	-0.221	-0.096
-191.202	44.392	0.121	-0.110
-190.187	313.989	0.214	-0.398
-189.173	-200.000	0.030	0.140
-188.158	146.162	0.247	0.327
-187.144	-142.254	0.162	-0.016
-186.129	75.518	0.095	0.099
-185.114	-10.768	0.049	0.032
-184.100	800.000	-0.022	0.065
-183.085	57.013	0.066	-0.063
-182.071	-62.451	-0.122	0.050
-181.056	-50.051	0.180	-0.084
-180.042	-18.991	0.453	0.278
-179.027	97.152	0.077	-0.087
-178.012	129.047	-0.074	-0.093
-176.998	-118.333	0.204	0.036
-175.983	-43.550	-0.188	0.094
-174.969	233.631	-0.176	0.285
-173.954	-3.501	-0.223	-0.153
-172.939	85.801	-0.011	0.012
-171.925	73.994	-0.126	0.131
-170.910	-167.447	0.161	-0.006
-169.896	-200.000	-0.022	-0.151
-168.881	-200.000	0.009	0.284
-167.866	43.160	0.231	0.208
-166.852	-16.105	0.301	0.189
-165.837	-71.155	0.257	-0.095
-164.823	-200.000	0.006	-0.053
-163.808	48.752	0.306	-0.283
-162.793	350.163	-0.051	-0.098
-161.779	552.897	0.104	-0.247
-160.764	-200.000	0.051	0.369
-159.750	-200.000	-0.021	0.371
-158.735	60.492	-0.052	0.051
-157.720	-200.000	0.005	0.301
-156.706	-200.000	0.059	0.403
-155.691	-32.071	-0.221	0.122
-154.677	52.421	0.127	-0.119
-153.662	189.439	0.087	0.128
-152.647	-181.123	-0.293	-0.006
-151.633	-46.178	0.177	-0.086
-150.618	-111.391	0.228	0.046
-149.604	-104.843	0.243	0.055
-148.589	40.635	0.301	-0.267
-147.574	-137.750	0.019	-0.002
-146.560	-111.163	0.071	0.014
-145.545	583.794	-0.063	-0.153
-144.531	800.000	0.032	0.127
-143.516	-137.617	0.178	-0.020
-142.502	687.486	0.058	0.148
-141.487	-29.509	0.313	0.176
-140.472	-200.000	-0.043	0.201
-139.458	-75.625	-0.116	-0.041
-138.443	-164.825	-0.144	-0.006
-137.429	157.935	-0.044	0.060
-136.414	-200.000	-0.029	0.266
-135.399	-5.950	0.132	-0.089
-134.385	-38.149	-0.182	-0.095
-133.370	197.028	-0.094	-0.140
-132.356	-200.000	-0.012	-0.054
-131.341	278.526	0.118	-0.207
-130.326	135.616	0.055	0.070
-129.312	-96.534	0.243	-0.063
-128.297	-200.000	-0.022	0.121
-127.283	173.336	-0.184	0.261
-126.268	-120.045	-0.115	0.019
-125.253	-200.000	-0.009	-0.175
-124.239	-132.424	-0.140	-0.018
-123.224	16.046	0.434	-0.337
-122.210	469.789	-0.024	0.052
-121.195	-133.265	-0.124	0.015
-120.180	357.612	0.063	0.123
-119.166	-53.223	0.229	-0.104
-118.151	-11.916	-0.132	0.085
-117.137	582.187	-0.227	-0.547
-116.122	-200.000	-0.002	0.087
-115.107	102.101	-0.024	0.028
-114.093	99.115	0.085	-0.096
-113.078	135.229	0.119	-0.153
-112.064	3.393	-0.206	-0.148
-111.049	-200.000	0.002	-0.055
-110.034	800.000	-0.085	0.247
-109.020	-102.087	-0.277	0.065
-108.005	-59.956	0.236	0.099
-106.991	504.521	0.180	0.410
-105.976	-200.000	-0.023	-0.399
-104.962	-9.729	0.131	-0.085
-103.947	90.405	0.368	0.405
-102.932	81.388	0.129	0.137
-101.918	405.992	0.140	0.291
-100.903	358.780	-0.035	0.069
-99.889	-59.005	0.461	0.196
-98.874	150.677	0.207	0.277
-97.859	-45.403	-0.190	0.093
-96.845	295.881	-0.073	-0.131
-95.830	292.553	0.122	-0.219
-94.816	205.726	0.135	0.207
-93.801	103.304	-0.137	0.158
-92.786	-200.000	0.029	0.128
-91.772	-142.970	0.237	0.023
-90.757	-200.000	-0.025	0.182
-89.743	31.230	-0.130	0.110
-88.728	34.919	0.049	0.043
-87.713	138.071	0.049	0.062
-86.699	800.000	0.151	0.409
-85.684	34.998	0.119	0.102
-84.670	-16.085	0.232	0.145
-83.655	-58.681	-0.247	-0.105
-82.640	-200.000	0.039	-0.249
-81.626	90.853	0.303	-0.333
-80.611	-199.856	0.222	-0.001
-79.597	-106.307	-0.076	0.017
-78.582	-3.769	-0.154	0.105
-77.567	368.049	0.160	0.318
-76.553	-53.227	0.215	-0.097
-75.538	800.000	-0.112	-0.316
-74.524	196.035	-0.172	-0.257
-73.509	800.000	-0.076	0.224
-72.494	-122.913	-0.205	-0.032
-71.480	-9.847	0.062	0.040
-70.465	58.932	0.118	0.114
-69.451	-143.709	-0.070	-0.006
-68.436	611.601	0.125	0.307
-67.422	-184.289	-0.485	-0.008
-66.407	92.181	0.181	-0.200
-65.392	-140.910	0.151	-0.015
-64.378	-132.090	-0.091	-0.012
-63.363	-91.255	0.049	0.014
-62.349	139.020	-0.166	0.214
-61.334	35.484	-1.106	-0.952
-60.319	-0.965	0.603	0.419
-59.305	-200.000	-0.055	-1.307
-58.290	800.000	0.314	0.854
-57.276	800.000	0.587	1.643
-56.261	-200.000	103.399	587.773
-55.246	554.517	1434.353	3385.306
-54.232	187.627	2625.269	3843.929
-53.217	108.887	2268.778	2660.604
-52.203	39.583	1888.455	1660.621
-51.188	33.699	1679.672	1432.707
-50.173	31.169	1635.381	1376.246
-49.159	49.691	1686.966	1558.813
-48.144	50.669	1703.753	1581.584
-47.130	33.446	1661.776	1415.325
-46.115	30.715	1647.136	1382.545
-45.100	30.528	1642.783	1377.450
-44.086	30.399	1640.425	1374.462
-43.071	30.438	1637.613	1372.337
-42.057	30.364	1635.189	1369.707
-41.042	30.442	1633.348	1368.687
-40.027	30.494	1631.590	1367.540
-39.013	30.413	1629.140	1364.836
-37.998	30.397	1628.130	1363.822
-36.984	30.430	1626.528	1362.671
-35.969	30.586	1624.783	1362.295
-34.954	30.631	1623.380	1361.396
-33.940	30.536	1622.093	1359.563
-32.925	30.615	1620.359	1358.634
-31.911	30.646	1618.062	1356.883
-30.896	30.585	1616.750	1355.283
-29.881	30.521	1615.394	1353.625
-28.867	30.642	1613.308	1352.705
-27.852	30.570	1611.950	1350.988
-26.838	30.481	1610.672	1349.219
-25.823	30.611	1609.072	1348.768
-24.809	30.549	1608.238	1347.562
-23.794	30.568	1606.459	1346.160
-22.779	30.531	1605.275	1344.847
-21.765	30.506	1603.905	1343.466
-20.750	30.535	1601.826	1341.879
-19.736	30.585	1600.681	1341.226
-18.721	30.604	1599.291	1340.145
-17.706	30.582	1597.094	1338.092
-16.692	30.595	1596.108	1337.307
-15.677	30.520	1594.480	1335.352
-14.663	30.678	1593.517	1335.629
-13.648	30.594	1591.840	1333.566
-12.633	30.576	1590.666	1332.397
-11.619	30.507	1589.187	1330.617
-10.604	30.591	1587.618	1329.849
-9.590	30.681	1585.873	1328.975
-8.575	30.627	1584.818	1327.656
-7.560	30.638	1584.044	1327.033
-6.546	30.679	1582.119	1325.659
-5.531	30.549	1581.650	1324.284
-4.517	30.585	1580.482	1323.510
-3.502	30.544	1579.335	1322.207
-2.487	30.692	1577.301	1321.502
-1.473	30.274	1565.149	1308.323
-0.458	27.342	1546.200	1271.977
0.556	25.173	1547.757	1239.161
1.571	22.810	1571.361	1241.355
2.586	22.292	1584.589	1248.021
3.600	20.049	1531.486	1190.692
4.615	12.089	1424.261	1056.148
5.629	4.948	1361.110	965.141
6.644	3.605	1353.661	951.498
7.659	3.547	1352.589	950.304
8.673	3.632	1351.797	950.188
9.688	3.725	1349.607	949.137
10.702	3.493	1346.922	945.739
11.717	6.777	1352.945	970.086
12.731	15.452	1368.954	1035.189
13.746	22.627	1380.000	1087.893
14.761	24.222	1382.195	1099.373
15.775	23.833	1380.470	1095.508
16.790	23.267	1378.936	1090.708
17.804	22.829	1377.290	1086.617
18.819	22.665	1376.741	1085.078
19.834	22.700	1375.699	1084.379
20.848	22.653	1374.805	1083.290
21.863	22.656	1373.867	1082.473
22.877	22.542	1373.014	1081.001
23.892	22.472	1371.686	1079.432
24.907	22.377	1370.888	1078.126
25.921	22.414	1370.069	1077.614
26.936	22.414	1369.389	1076.986
27.950	22.526	1368.140	1076.593
28.965	22.480	1367.373	1075.613
29.980	22.661	1366.496	1075.933
30.994	22.851	1365.174	1075.954
32.009	22.801	1364.448	1074.983
33.023	22.816	1363.258	1074.040
34.038	22.715	1361.859	1072.230
35.053	22.613	1360.903	1070.760
36.067	22.489	1359.734	1068.994
37.082	22.515	1358.757	1068.290
38.096	22.595	1357.858	1067.975
39.111	22.674	1357.094	1067.758
40.126	22.440	1356.746	1065.971
41.140	22.254	1355.219	1063.553
42.155	22.017	1354.711	1061.626
43.169	21.828	1354.773	1060.441
44.184	22.039	1354.243	1061.207
45.199	22.021	1354.552	1061.244
46.213	22.316	1354.307	1062.740
47.228	22.522	1353.092	1062.938
48.242	22.607	1352.342	1062.768
49.257	22.506	1350.759	1060.818
50.271	22.515	1349.391	1059.705
51.286	22.353	1348.074	1057.605
52.301	22.388	1347.366	1057.166
53.315	22.307	1345.709	1055.282
54.330	22.220	1345.037	1054.141
55.344	22.235	1343.485	1052.925
56.359	22.204	1341.969	1051.455
57.374	22.023	1341.813	1050.160
58.388	22.011	1340.777	1049.181
59.403	21.927	1340.630	1048.472
60.417	21.904	1339.414	1047.294
61.432	21.916	1338.143	1046.276
62.447	21.870	1337.581	1045.472
63.461	21.731	1336.571	1043.762
64.476	21.722	1335.616	1042.870
65.490	21.770	1334.227	1041.977
66.505	21.708	1332.667	1040.302
67.520	21.715	1331.631	1039.441
68.534	21.777	1330.695	1038.988
69.549	21.673	1329.737	1037.529
70.563	21.569	1328.792	1036.088
71.578	21.438	1327.707	1034.371
72.593	21.321	1326.773	1032.862
73.607	21.476	1325.629	1032.797
74.622	21.517	1325.194	1032.609
75.636	21.640	1324.499	1032.700
76.651	21.764	1323.855	1032.836
77.666	21.626	1323.772	1031.870
78.680	21.720	1323.022	1031.747
79.695	21.787	1322.303	1031.487
80.709	21.969	1321.879	1032.134
81.724	21.936	1321.358	1031.443
82.739	22.084	1320.844	1031.820
83.753	22.392	1320.496	1033.268
84.768	22.592	1319.685	1033.711
85.782	22.826	1318.423	1034.003
86.797	22.790	1317.305	1032.826
87.812	22.612	1315.984	1030.655
88.826	22.681	1314.539	1029.838
89.841	22.689	1313.746	1029.172
90.855	22.681	1313.610	1028.928
91.870	22.685	1312.416	1027.924
92.884	22.779	1311.856	1027.941
93.899	22.932	1310.929	1028.017
94.914	22.866	1309.993	1026.805
95.928	22.804	1309.691	1026.118
96.943	22.809	1308.166	1024.860
97.957	22.800	1307.456	1024.161
98.972	22.794	1306.431	1023.236
99.987	22.833	1305.350	1022.525
101.001	22.639	1304.748	1020.836
102.016	22.627	1303.835	1019.962
103.030	22.700	1302.967	1019.614
104.045	22.542	1301.967	1017.832
105.060	22.458	1300.209	1015.883
106.074	22.180	1298.825	1013.109
107.089	21.824	1297.404	1009.863
108.103	21.765	1295.939	1008.289
109.118	21.739	1294.627	1007.030
110.133	21.510	1293.624	1004.846
111.147	21.829	1292.238	1005.512
112.162	21.797	1291.257	1004.478
113.176	22.031	1290.211	1004.915
114.191	21.959	1289.071	1003.525
115.206	21.850	1288.906	1002.687
116.220	21.995	1287.410	1002.259
117.235	21.932	1286.167	1000.842
118.249	21.705	1285.078	998.617
119.264	21.627	1284.123	997.339
120.279	21.537	1283.548	996.294
121.293	21.527	1282.162	995.073
122.308	21.424	1280.796	993.340
123.322	21.363	1279.693	992.049
124.337	21.262	1279.045	990.886
125.352	21.379	1277.964	990.623
126.366	21.372	1277.117	989.842
127.381	21.264	1275.873	988.179
128.395	21.236	1274.802	987.100
129.410	21.208	1274.158	986.361
130.424	21.274	1273.202	985.903
131.439	21.511	1273.181	987.136
132.454	21.772	1272.128	987.706
133.468	21.838	1271.691	987.651
134.483	21.778	1271.074	986.748
135.497	21.818	1270.505	986.442
136.512	21.807	1269.423	985.451
137.527	21.867	1267.691	984.356
138.541	21.999	1265.846	983.578
139.556	21.975	1265.507	983.091
140.570	22.157	1264.466	983.218
141.585	22.283	1263.979	983.452
142.600	22.452	1263.104	983.630
143.614	22.625	1262.737	984.220
144.629	22.630	1261.486	983.190
145.643	22.639	1260.497	982.380
146.658	22.447	1258.953	980.020
147.673	22.268	1257.655	977.928
148.687	22.148	1256.131	975.994
149.702	21.997	1254.844	974.067
150.716	21.746	1253.363	971.441
151.731	21.697	1252.488	970.406
152.746	21.797	1251.736	970.290
153.760	22.055	1250.276	970.498
154.775	22.199	1249.743	970.795
155.789	22.250	1248.740	970.212
156.804	22.190	1247.877	969.124
157.819	22.204	1247.300	968.665
158.833	22.421	1246.218	968.934
159.848	22.644	1245.618	969.612
160.862	22.421	1244.941	967.770
161.877	22.127	1243.159	964.688
162.892	21.783	1241.909	961.742
163.906	21.760	1240.925	960.774
164.921	21.643	1240.203	959.488
165.935	21.881	1239.585	960.225
166.950	22.009	1239.200	960.545
167.964	22.035	1238.557	960.102
168.979	21.978	1237.825	959.138
169.994	21.885	1236.769	957.729
171.008	21.906	1235.599	956.848
172.023	22.157	1235.377	957.964
173.037	22.187	1235.552	958.178
174.052	22.329	1234.144	957.774
175.067	22.002	1233.094	955.097
176.081	21.748	1231.450	952.360
177.096	21.598	1230.899	951.033
178.110	21.794	1229.587	950.998
179.125	21.920	1228.543	950.789
180.140	22.121	1227.837	951.247
181.154	22.230	1227.602	951.568
182.169	22.393	1225.935	951.077
183.183	22.397	1225.266	950.495
184.198	22.475	1224.019	949.860
185.213	22.388	1223.417	948.844
186.227	22.375	1222.316	947.834
187.242	22.410	1221.567	947.359
188.256	22.632	1220.644	947.750
189.271	22.654	1219.762	947.103
190.286	22.426	1218.774	945.028
191.300	22.081	1217.344	941.986
192.315	21.963	1216.626	940.711
193.329	22.057	1215.764	940.467
194.344	21.856	1215.431	939.052
195.359	21.900	1214.493	938.477
196.373	21.916	1213.838	937.975
197.388	22.022	1213.672	938.329
198.402	22.304	1214.175	940.141
199.417	22.562	1214.044	941.337
200.432	22.876	1213.295	942.348
201.446	22.897	1212.550	941.799
202.461	22.817	1212.576	941.307
203.475	22.804	1210.820	939.792
204.490	22.500	1209.531	937.094
205.504	22.317	1207.994	934.845
206.519	22.293	1206.675	933.613
207.534	22.220	1205.223	932.023
208.548	22.010	1204.898	930.574
209.563	22.184	1203.954	930.686
210.577	22.042	1203.751	929.696
211.592	22.184	1203.065	929.833
212.607	22.605	1202.370	931.437
213.621	22.571	1201.466	930.478
214.636	22.598	1200.207	929.565
215.650	22.353	1199.949	927.989
216.665	22.794	1198.712	929.274
217.680	22.870	1198.565	929.474
218.694	22.988	1197.512	929.196
219.709	22.801	1196.402	927.271
220.723	22.671	1195.782	926.028
221.738	22.720	1194.847	925.480
222.753	22.541	1194.054	923.844
223.767	22.578	1193.061	923.189
224.782	22.791	1193.627	924.658
225.796	22.950	1193.102	925.002
226.811	22.820	1191.928	923.331
227.826	22.648	1191.114	921.722
228.840	22.428	1190.304	919.861
229.855	22.395	1189.325	918.854
230.869	22.461	1188.701	918.632
231.884	22.376	1188.063	917.617
232.899	22.173	1187.033	915.679
233.913	22.106	1185.997	914.452
234.928	22.212	1185.118	914.242
235.942	22.058	1184.289	912.722
236.957	21.940	1183.362	911.315
237.972	21.924	1182.523	910.507
238.986	21.994	1182.085	910.451
240.001	22.004	1181.864	910.251
241.015	22.103	1180.659	909.757
242.030	22.185	1180.092	909.666
243.045	22.452	1179.285	910.343
244.059	22.490	1178.879	910.144
245.074	22.475	1178.609	909.776
246.088	22.546	1177.565	909.258
247.103	22.739	1177.260	909.939
248.117	22.819	1176.482	909.669
249.132	23.149	1175.901	910.840
250.147	23.371	1176.204	912.134
251.161	23.679	1175.298	912.934
252.176	23.625	1174.816	912.202
253.190	23.720	1173.668	911.716
254.205	23.755	1174.193	912.223
255.220	23.907	1173.247	912.188
256.234	23.738	1173.003	911.053
257.249	23.679	1171.914	909.825
258.263	23.666	1171.101	909.045
259.278	23.522	1170.789	907.984
260.293	23.740	1169.947	908.368
261.307	23.787	1169.148	907.905
262.322	23.817	1168.714	907.640
263.336	23.832	1168.100	907.158
264.351	23.722	1167.612	906.140
265.366	23.797	1166.717	905.749
266.380	23.809	1166.195	905.324
267.395	23.787	1165.247	904.398
268.409	23.554	1164.430	902.497
269.424	23.385	1164.218	901.394
270.439	23.411	1163.595	900.963
271.453	23.474	1161.585	899.646
272.468	23.096	1161.308	897.435
273.482	23.023	1160.764	896.565
274.497	23.158	1159.862	896.475
275.512	23.078	1159.432	895.654
276.526	23.070	1158.776	895.030
277.541	23.156	1157.438	894.351
278.555	23.228	1157.355	894.570
279.570	23.488	1157.213	895.695
280.585	23.697	1156.678	896.257
281.599	23.719	1155.371	895.278
282.614	23.437	1153.949	892.678
283.628	23.292	1153.207	891.295
284.643	23.247	1152.030	890.078
285.657	23.231	1151.416	889.447
286.672	23.191	1150.679	888.598
287.687	23.263	1149.575	888.025
288.701	23.211	1149.008	887.251
289.716	23.370	1148.047	887.226
290.730	23.298	1147.698	886.515
291.745	23.340	1146.945	886.064
292.760	23.350	1146.148	885.424
293.774	23.399	1146.314	885.715
294.789	23.707	1145.389	886.462
295.803	23.748	1144.317	885.758
296.818	23.516	1143.604	883.973
297.833	23.394	1142.898	882.739
298.847	23.261	1142.437	881.643
299.862	23.373	1141.175	881.146
300.876	23.272	1141.163	880.557
301.891	23.445	1140.823	881.080
302.906	23.680	1140.008	881.536
303.920	23.847	1140.014	882.296
304.935	24.022	1139.055	882.341
305.949	24.122	1138.232	882.119
306.964	24.078	1137.743	881.445
307.979	23.897	1136.438	879.460
308.993	23.716	1136.069	878.203
310.008	23.915	1135.156	878.405
311.022	23.947	1134.648	878.090
312.037	23.934	1133.590	877.130
313.052	23.611	1132.763	874.821
314.066	23.420	1131.323	872.688
315.081	23.154	1130.316	870.530
316.095	23.091	1129.483	869.498
317.110	23.245	1128.656	869.543
318.125	23.230	1127.955	868.852
319.139	23.106	1127.569	867.867
320.154	23.162	1127.087	867.694
321.168	23.149	1126.644	867.214
322.183	23.214	1125.917	866.895
323.197	23.184	1125.502	866.354
324.212	23.354	1124.808	866.573
325.227	23.266	1124.643	865.938
326.241	23.437	1123.938	866.157
327.256	23.278	1122.965	864.552
328.270	23.257	1121.439	863.202
329.285	23.268	1120.860	862.733
330.300	23.291	1119.682	861.860
331.314	23.142	1119.149	860.649
332.329	23.205	1118.263	860.198
333.343	23.319	1117.692	860.233
334.358	23.458	1117.350	860.573
335.373	23.709	1116.511	861.064
336.387	23.805	1116.096	861.135
337.402	23.814	1114.880	860.163
338.416	23.919	1114.676	860.441
339.431	24.067	1114.371	860.844
340.446	24.198	1114.291	861.340
341.460	24.318	1113.389	861.145
342.475	24.387	1112.808	860.949
343.489	24.437	1111.881	860.398
344.504	24.549	1111.090	860.248
345.519	24.501	1110.224	859.274
346.533	24.534	1109.718	858.963
347.548	24.641	1108.721	858.631
348.562	24.452	1107.992	857.082
349.577	24.120	1107.028	854.667
350.592	23.841	1105.917	852.397
351.606	23.679	1104.766	850.657
352.621	23.639	1103.926	849.746
353.635	23.526	1103.206	848.575
354.650	23.535	1102.614	848.089
355.665	23.744	1101.614	848.241
356.679	23.800	1101.823	848.594
357.694	23.920	1100.768	848.277
358.708	23.876	1100.865	848.068
359.723	23.990	1099.718	847.655
360.738	23.951	1099.107	846.921
361.752	24.061	1098.782	847.122
362.767	23.940	1098.383	846.164
363.781	23.944	1097.500	845.424
364.796	24.231	1097.678	846.850
365.810	24.362	1097.017	846.888
366.825	24.566	1096.642	847.495
367.840	24.800	1096.106	848.112
368.854	24.960	1095.233	848.118
369.869	24.771	1094.771	846.794
370.883	24.662	1093.683	845.361
371.898	24.535	1092.649	843.889
372.913	24.395	1092.106	842.731
373.927	24.528	1091.928	843.146
374.942	24.625	1091.971	843.563
375.956	24.669	1090.971	842.923
376.971	24.514	1090.263	841.574
377.986	24.652	1090.009	841.950
379.000	24.784	1089.357	841.996
380.015	24.864	1089.167	842.151
381.029	24.944	1088.486	841.927
382.044	24.980	1087.480	841.241
383.059	24.940	1086.667	840.351
384.073	24.886	1085.972	839.488
385.088	24.855	1085.402	838.826
386.102	24.776	1084.464	837.658
387.117	24.577	1082.659	835.259
388.132	24.323	1081.772	833.315
389.146	24.342	1080.982	832.719
390.161	24.228	1080.386	831.654
391.175	24.209	1079.836	831.069
392.190	24.470	1079.185	831.709
393.205	24.761	1078.913	832.780
394.219	24.784	1078.235	832.293
395.234	24.470	1077.354	830.077
396.248	24.273	1075.820	827.909
397.263	24.216	1074.875	826.844
398.278	24.227	1074.278	826.361
399.292	24.263	1073.664	825.985
400.307	24.149	1072.849	824.757
401.321	24.022	1072.677	823.963
402.336	23.912	1071.748	822.668
403.350	23.887	1070.786	821.740
404.365	24.239	1070.089	822.757
405.380	24.355	1069.430	822.716
406.394	24.424	1068.824	822.493
407.409	24.574	1068.417	822.797
408.423	24.832	1068.096	823.664
409.438	24.891	1067.493	823.398
410.453	24.865	1067.408	823.141
411.467	25.073	1066.389	823.239
412.482	25.068	1065.774	822.668
413.496	25.137	1064.979	822.297
414.511	25.088	1064.922	821.956
415.526	25.369	1064.351	822.730
416.540	25.417	1063.724	822.391
417.555	25.462	1062.800	821.811
418.569	25.236	1062.510	820.479
419.584	25.040	1061.979	819.103
420.599	25.211	1061.174	819.188
421.613	155.579	1403.948	1796.994
422.628	143.059	1453.871	1797.059
