DTS Sentinel unit serial number:	SN413079Multiplexer serial number:	ORYXHardware model number:	OX4-SRSoftware version number:	ORYX F/W v4.00 Oryx Data Collector v3.7.2.0data status	okinstallation	princeton_trtdifferential loss correction	single-endedforward channel	channel 2reverse channel	N/Adate	2019/09/18time	06:55:34forward acquisition time	60.00reverse acquisition time	0.00gamma	496.2192k internal	0.2349k external	0.2349temperature offset calibration	0.9985default loss term (dB/km)	0.3790temperature slope calibration	1.0000multiplexer offset coefficient	1.0000multiplexer slope coefficient	1.0000fibre end	0.00T internal ref (°C)	23.20T ext. ref 1 (°C)	0.19T ext. ref 2 (°C)	17.06length (m)	temperature (°C)	Stokes	anti-Stokes-747.200	192.879	-0.084	0.127
-746.185	169.825	-0.092	0.132
-745.171	-200.000	-0.010	-0.072
-744.156	-200.000	0.021	0.154
-743.142	800.000	-0.049	0.169
-742.127	-200.000	-0.002	0.010
-741.112	800.000	0.054	-0.203
-740.098	-16.568	0.085	-0.054
-739.083	-117.467	0.311	0.056
-738.069	154.873	0.137	0.188
-737.054	141.478	0.174	0.230
-736.039	-68.994	-0.443	-0.171
-735.025	157.854	-0.090	-0.124
-734.010	-200.000	0.012	-0.155
-732.996	207.468	-0.065	-0.101
-731.981	182.800	0.025	-0.038
-730.966	-61.978	0.191	-0.080
-729.952	800.000	0.138	-0.421
-728.937	344.723	-0.214	-0.419
-727.923	-99.654	0.060	-0.015
-726.908	-120.260	0.185	-0.032
-725.894	-22.756	0.135	0.081
-724.879	135.300	0.192	-0.249
-723.864	-114.186	0.081	0.016
-722.850	-41.413	-0.327	-0.168
-721.835	-93.120	0.101	0.028
-720.821	-200.000	0.013	0.079
-719.806	-200.000	0.115	-0.521
-718.791	243.791	-0.162	-0.272
-717.777	138.206	-0.057	-0.074
-716.762	236.011	0.208	-0.343
-715.748	-120.315	0.256	0.044
-714.733	-83.391	0.045	-0.014
-713.718	180.901	-0.195	-0.285
-712.704	-92.405	0.136	-0.038
-711.689	-119.044	0.053	-0.009
-710.675	216.369	0.108	0.171
-709.660	27.796	0.157	-0.132
-708.645	-56.882	-0.187	-0.083
-707.631	-200.000	-0.010	-0.311
-706.616	-34.716	0.175	-0.096
-705.602	-200.000	-0.011	-0.627
-704.587	52.053	-0.219	-0.208
-703.572	800.000	-0.077	0.280
-702.558	-33.496	-0.208	-0.114
-701.543	-77.560	-0.097	-0.034
-700.529	69.711	0.201	0.206
-699.514	-146.932	0.258	0.022
-698.499	-120.408	-0.212	-0.036
-697.485	800.000	0.083	-0.299
-696.470	800.000	0.039	-0.106
-695.456	800.000	0.140	-0.458
-694.441	800.000	0.066	0.205
-693.426	183.117	-0.137	-0.202
-692.412	-27.281	-0.107	-0.062
-691.397	334.117	-0.093	0.180
-690.383	276.175	0.155	-0.274
-689.368	800.000	0.037	-0.130
-688.354	26.839	-0.329	0.275
-687.339	-105.252	-0.161	-0.037
-686.324	127.766	0.158	-0.200
-685.310	-55.060	0.271	-0.122
-684.295	-120.322	0.262	-0.044
-683.281	721.942	-0.090	0.239
-682.266	51.527	-0.058	0.055
-681.251	-200.000	-0.025	-0.236
-680.237	800.000	-0.155	-0.466
-679.222	272.153	0.050	-0.088
-678.208	-197.935	0.139	-0.001
-677.193	-23.287	-0.063	-0.038
-676.178	-200.000	-0.032	-0.351
-675.164	35.910	-0.038	-0.034
-674.149	472.830	-0.060	0.134
-673.135	-2.456	0.068	-0.047
-672.120	-63.664	0.276	0.113
-671.105	-57.096	0.097	-0.042
-670.091	172.845	0.182	-0.261
-669.076	572.310	-0.096	-0.232
-668.062	-111.921	-0.169	-0.034
-667.047	138.870	-0.100	0.131
-666.032	800.000	-0.056	0.208
-665.018	247.591	-0.089	0.150
-664.003	-25.120	0.120	-0.071
-662.989	68.032	0.267	0.272
-661.974	-149.040	-0.260	-0.021
-660.959	-0.388	-0.249	0.176
-659.945	-200.000	-0.015	-0.304
-658.930	-200.000	0.021	-0.148
-657.916	121.356	-0.094	-0.116
-656.901	-46.100	0.132	0.065
-655.886	-46.962	-0.129	-0.063
-654.872	-111.341	-0.156	-0.032
-653.857	-200.000	0.017	0.164
-652.843	157.591	-0.140	0.193
-651.828	-185.400	0.355	-0.005
-650.814	62.279	-0.135	-0.134
-649.799	-200.000	0.028	-0.278
-648.784	-200.000	0.036	-0.323
-647.770	503.741	-0.070	0.162
-646.755	-146.617	0.262	0.023
-645.741	387.386	-0.133	0.274
-644.726	670.888	0.068	0.174
-643.711	-70.719	-0.316	-0.119
-642.697	800.000	0.065	-0.215
-641.682	-138.704	-0.093	0.010
-640.668	-200.000	-0.055	-0.320
-639.653	-200.000	-0.003	-0.366
-638.638	-62.580	-0.224	0.092
-637.624	800.000	-0.158	0.478
-636.609	-200.000	-0.071	-0.316
-635.595	-160.516	0.138	0.007
-634.580	290.048	0.191	0.344
-633.565	800.000	0.111	0.309
-632.551	96.492	0.165	0.188
-631.536	-19.826	0.117	-0.072
-630.522	-123.513	-0.259	-0.041
-629.507	800.000	-0.057	-0.238
-628.492	-77.364	-0.131	0.045
-627.478	-138.118	-0.279	-0.031
-626.463	664.424	0.115	0.294
-625.449	800.000	-0.101	-0.431
-624.434	244.982	-0.043	-0.072
-623.419	-129.882	0.418	-0.057
-622.405	-85.987	-0.137	-0.042
-621.390	255.611	-0.063	0.107
-620.376	-200.000	0.004	-0.116
-619.361	51.040	-0.141	0.133
-618.346	800.000	-0.093	-0.349
-617.332	382.727	-0.075	0.154
-616.317	800.000	0.043	-0.145
-615.303	-121.321	-0.274	-0.045
-614.288	-69.589	0.035	0.013
-613.273	124.301	-0.120	0.150
-612.259	49.295	-0.105	0.098
-611.244	-200.000	-0.013	-0.065
-610.230	-23.497	-0.302	-0.180
-609.215	-66.435	0.072	0.028
-608.201	130.450	0.178	-0.227
-607.186	-89.094	0.227	-0.067
-606.171	800.000	-0.036	0.149
-605.157	800.000	0.118	-0.369
-604.142	340.215	0.054	-0.105
-603.128	213.956	-0.107	0.169
-602.113	414.956	0.073	-0.155
-601.098	-13.763	0.039	-0.025
-600.084	43.991	-0.095	0.086
-599.069	-193.215	0.247	-0.002
-598.055	-200.000	0.015	-0.142
-597.040	800.000	-0.032	0.132
-596.025	-80.546	-0.407	-0.135
-595.011	263.232	0.110	0.190
-593.996	635.186	0.100	0.252
-592.982	64.083	0.069	0.069
-591.967	-200.000	-0.065	-0.324
-590.952	544.501	-0.128	0.304
-589.938	-75.001	0.219	0.078
-588.923	399.669	-0.068	0.142
-587.909	39.552	0.167	0.149
-586.894	800.000	0.016	0.045
-585.879	-200.000	-0.045	-0.326
-584.865	-48.177	-0.389	-0.186
-583.850	14.185	0.070	-0.054
-582.836	-200.000	0.047	-0.233
-581.821	800.000	-0.086	0.343
-580.806	-103.328	-0.482	-0.113
-579.792	311.446	0.148	-0.275
-578.777	154.675	0.018	-0.025
-577.763	110.316	0.069	-0.082
-576.748	11.106	0.158	0.120
-575.733	212.955	0.164	0.257
-574.719	39.556	0.194	0.172
-573.704	369.210	-0.119	0.240
-572.690	585.646	0.074	0.182
-571.675	296.348	-0.137	0.250
-570.661	-129.213	-0.184	-0.025
-569.646	449.966	-0.032	-0.070
-568.631	-90.846	-0.205	-0.059
-567.617	-132.027	-0.402	-0.052
-566.602	156.366	0.060	0.083
-565.588	-85.241	0.176	-0.055
-564.573	-113.680	0.110	-0.021
-563.558	-50.633	0.053	-0.025
-562.544	800.000	0.095	0.262
-561.529	104.202	0.109	-0.127
-560.515	-200.000	-0.009	-0.236
-559.500	-3.448	0.149	-0.103
-558.485	139.230	-0.032	-0.042
-557.471	-200.000	0.035	0.329
-556.456	-200.000	0.053	-0.260
-555.442	-64.694	-0.191	-0.077
-554.427	-200.000	-0.044	0.265
-553.412	248.840	-0.110	0.185
-552.398	20.340	-0.137	-0.110
-551.383	-200.000	-0.009	-0.066
-550.369	-102.623	-0.198	0.047
-549.354	800.000	0.101	-0.342
-548.339	99.532	0.252	0.289
-547.325	261.063	-0.013	0.022
-546.310	-77.538	-0.281	-0.097
-545.296	-200.000	0.013	-0.170
-544.281	80.070	-0.148	-0.157
-543.266	-77.423	0.081	0.028
-542.252	-109.863	0.138	-0.029
-541.237	-200.000	-0.020	0.263
-540.223	-200.000	0.003	0.015
-539.208	-200.000	0.094	-0.466
-538.193	-44.723	0.106	-0.052
-537.179	353.644	0.134	0.264
-536.164	800.000	0.044	-0.165
-535.150	18.427	-0.300	-0.238
-534.135	800.000	0.100	0.401
-533.121	-200.000	0.037	-0.161
-532.106	-123.268	-0.076	0.012
-531.091	-200.000	-0.038	-0.275
-530.077	-200.000	-0.024	0.259
-529.062	139.403	-0.150	0.195
-528.048	-24.199	-0.066	0.039
-527.033	-19.596	0.263	-0.161
-526.018	-72.784	-0.313	-0.114
-525.004	-200.000	0.008	0.172
-523.989	-132.552	-0.219	-0.028
-522.975	264.626	0.098	-0.168
-521.960	-173.391	-0.225	-0.007
-520.945	3.694	0.283	-0.205
-519.931	262.818	-0.158	-0.272
-518.916	800.000	0.078	-0.286
-517.902	-66.883	0.276	0.108
-516.887	-200.000	-0.045	0.355
-515.872	-81.713	0.194	0.063
-514.858	800.000	-0.070	-0.232
-513.843	8.715	0.190	0.142
-512.829	47.712	-0.088	-0.081
-511.814	800.000	-0.045	-0.126
-510.799	98.510	-0.257	-0.294
-509.785	-125.130	0.119	-0.018
-508.770	0.547	-0.243	0.172
-507.756	-200.000	0.036	-0.182
-506.741	-31.943	0.437	0.242
-505.726	-76.874	-0.098	0.034
-504.712	56.777	-0.078	-0.075
-503.697	1.237	-0.208	0.148
-502.683	-116.111	0.299	0.055
-501.668	-87.542	-0.389	0.116
-500.653	-171.200	-0.454	-0.015
-499.639	-89.193	-0.046	-0.013
-498.624	-200.000	-0.015	0.075
-497.610	146.067	-0.152	0.201
-496.595	49.404	-0.076	0.070
-495.581	218.054	0.086	-0.135
-494.566	-200.000	-0.004	0.039
-493.551	-131.040	0.023	-0.003
-492.537	27.220	-0.266	0.221
-491.522	27.580	0.023	0.019
-490.508	73.826	0.174	-0.180
-489.493	267.215	-0.210	0.364
-488.478	3.416	-0.148	0.107
-487.464	-200.000	0.016	-0.268
-486.449	197.221	-0.192	-0.290
-485.435	78.953	-0.257	-0.272
-484.420	-200.000	-0.025	-0.247
-483.405	800.000	-0.049	-0.156
-482.391	-11.441	0.276	-0.180
-481.376	66.786	0.227	-0.228
-480.362	22.617	-0.294	-0.238
-479.347	-122.171	0.090	0.015
-478.332	-115.192	-0.038	-0.007
-477.318	86.646	-0.189	0.206
-476.303	5.458	-0.104	-0.076
-475.289	-120.467	0.188	0.032
-474.274	-162.401	-0.245	-0.012
-473.259	460.861	-0.045	0.099
-472.245	-200.000	-0.049	0.215
-471.230	-141.152	-0.184	0.019
-470.216	-30.291	0.362	0.203
-469.201	-153.436	-0.262	0.018
-468.186	52.218	-0.093	0.088
-467.172	-127.933	0.207	0.029
-466.157	424.721	0.054	0.115
-465.143	92.174	-0.303	0.338
-464.128	800.000	-0.050	0.186
-463.113	144.814	-0.063	0.083
-462.099	-200.000	0.032	0.402
-461.084	792.153	-0.061	-0.166
-460.070	800.000	-0.058	0.184
-459.055	-62.704	0.259	-0.106
-458.040	174.751	0.073	-0.104
-457.026	280.791	-0.128	-0.226
-456.011	-125.330	-0.013	-0.002
-454.997	-200.000	-0.049	-0.307
-453.982	-200.000	0.018	-0.208
-452.968	-200.000	0.038	0.246
-451.953	232.087	0.049	0.079
-450.938	-22.045	0.062	0.037
-449.924	212.076	0.105	0.163
-448.909	746.756	-0.050	-0.134
-447.895	1.395	-0.115	0.081
-446.880	-82.356	-0.273	0.088
-445.865	-60.482	-0.322	0.135
-444.851	-103.016	0.335	-0.078
-443.836	2.629	0.137	-0.098
-442.822	-57.914	0.180	-0.078
-441.807	381.684	-0.075	-0.152
-440.792	100.311	0.281	0.322
-439.778	-29.280	-0.135	0.076
-438.763	800.000	-0.087	0.252
-437.749	-27.998	0.063	0.036
-436.734	780.511	0.014	-0.038
-435.719	-156.596	0.336	0.021
-434.705	-149.658	-0.222	0.017
-433.690	311.236	-0.055	-0.103
-432.676	800.000	0.086	-0.365
-431.661	800.000	-0.190	0.562
-430.646	-200.000	-0.014	-0.088
-429.632	-200.000	0.079	0.364
-428.617	-200.000	-0.016	0.291
-427.603	-91.658	-0.530	0.149
-426.588	71.414	0.177	-0.181
-425.573	240.733	0.094	-0.155
-424.559	428.033	0.067	-0.143
-423.544	27.571	0.476	0.395
-422.530	115.292	-0.251	-0.302
-421.515	-200.000	-0.026	0.276
-420.500	800.000	-0.063	0.235
-419.486	800.000	0.031	0.104
-418.471	267.105	0.073	0.126
-417.457	-200.000	0.012	0.298
-416.442	263.550	-0.026	0.044
-415.428	-10.899	0.100	0.065
-414.413	-38.244	-0.109	-0.057
-413.398	-200.000	0.012	-0.057
-412.384	800.000	-0.019	-0.055
-411.369	152.971	0.199	-0.269
-410.355	-58.238	-0.236	-0.101
-409.340	-138.797	0.179	0.019
-408.325	99.853	-0.184	-0.210
-407.311	-126.743	0.232	-0.034
-406.296	-200.000	-0.024	0.233
-405.282	-174.662	-0.333	0.009
-404.267	-48.857	0.171	0.081
-403.252	-2.279	-0.034	0.024
-402.238	118.025	0.087	0.105
-401.223	-38.738	-0.013	0.007
-400.209	93.689	0.071	-0.079
-399.194	213.980	-0.154	0.241
-398.179	175.086	0.145	0.206
-397.165	-151.820	0.223	0.016
-396.150	800.000	-0.051	0.159
-395.136	582.188	-0.017	-0.040
-394.121	211.108	0.113	-0.175
-393.106	429.467	0.216	0.461
-392.092	800.000	-0.035	0.130
-391.077	-132.952	0.234	0.029
-390.063	-20.653	0.142	-0.086
-389.048	-175.077	0.093	-0.003
-388.033	-182.544	-0.226	-0.004
-387.019	35.973	0.254	-0.220
-386.004	-151.558	-0.223	-0.016
-384.990	5.540	-0.384	0.280
-383.975	-93.923	0.285	0.077
-382.960	92.854	-0.124	0.138
-381.946	-140.403	0.167	0.017
-380.931	106.058	0.170	-0.198
-379.917	92.267	-0.141	-0.157
-378.902	356.433	0.096	0.189
-377.888	-144.010	-0.238	-0.022
-376.873	-200.000	-0.011	-0.049
-375.858	-71.192	0.290	0.107
-374.844	53.102	-0.070	-0.066
-373.829	-82.774	-0.460	0.147
-372.815	-98.182	0.228	0.058
-371.800	-141.499	-0.195	-0.019
-370.785	428.618	0.095	-0.203
-369.771	-36.677	-0.156	-0.083
-368.756	-50.917	-0.351	-0.162
-367.742	184.185	0.080	0.116
-366.727	-0.158	0.192	0.134
-365.712	685.540	-0.101	-0.260
-364.698	-200.000	0.004	-0.023
-363.683	65.892	0.102	0.102
-362.669	344.996	-0.112	-0.216
-361.654	-26.187	0.216	-0.125
-360.639	-24.042	-0.152	0.089
-359.625	-200.000	-0.019	0.197
-358.610	-162.539	0.077	-0.004
-357.596	762.314	0.104	-0.278
-356.581	178.532	0.120	-0.173
-355.566	-51.059	0.102	-0.047
-354.552	507.898	-0.161	0.367
-353.537	157.286	0.071	0.096
-352.523	-41.597	-0.285	0.144
-351.508	-200.000	-0.073	0.315
-350.493	800.000	0.057	0.212
-349.479	63.773	0.131	0.130
-348.464	67.428	0.128	-0.128
-347.450	140.961	-0.104	-0.135
-346.435	-58.500	-0.142	0.060
-345.420	-91.307	0.208	-0.059
-344.406	-200.000	0.032	-0.153
-343.391	89.186	0.153	-0.168
-342.377	-62.280	-0.136	0.056
-341.362	-54.925	0.302	-0.134
-340.348	364.116	-0.140	-0.277
-339.333	800.000	-0.036	0.113
-338.318	55.585	-0.175	0.166
-337.304	106.125	-0.184	0.215
-336.289	-47.040	0.105	-0.050
-335.275	-78.795	0.137	0.046
-334.260	-200.000	0.003	0.164
-333.245	105.437	0.115	-0.133
-332.231	-31.643	0.239	-0.132
-331.216	344.644	0.138	0.267
-330.202	162.976	0.128	0.176
-329.187	-111.394	0.078	-0.016
-328.172	-40.019	-0.226	-0.116
-327.158	-99.431	-0.256	0.063
-326.143	36.142	-0.371	-0.321
-325.129	800.000	0.030	0.100
-324.114	-200.000	-0.001	-0.436
-323.099	-60.949	-0.044	-0.018
-322.085	-200.000	0.040	0.282
-321.070	154.012	-0.113	0.152
-320.056	394.820	0.076	-0.155
-319.041	41.899	-0.080	-0.071
-318.026	246.260	-0.148	0.244
-317.012	-172.574	-0.084	-0.003
-315.997	-200.000	0.029	-0.128
-314.983	-58.342	0.196	0.084
-313.968	-97.618	-0.159	-0.041
-312.953	72.091	-0.089	-0.091
-311.939	800.000	0.008	0.029
-310.924	-124.050	-0.105	0.016
-309.910	174.607	-0.114	-0.162
-308.895	-12.688	0.046	0.029
-307.880	-59.927	-0.173	-0.073
-306.866	-172.946	0.129	0.004
-305.851	-124.154	-0.204	-0.031
-304.837	214.114	-0.074	0.115
-303.822	-23.094	0.219	-0.129
-302.807	-150.771	-0.247	0.018
-301.793	-200.000	-0.050	-0.254
-300.778	19.344	-0.089	0.070
-299.764	99.814	-0.152	0.173
-298.749	58.995	0.238	-0.230
-297.735	436.269	-0.175	-0.374
-296.720	443.740	0.119	-0.257
-295.705	270.447	-0.065	0.113
-294.691	60.706	-0.177	-0.172
-293.676	-38.443	0.204	0.106
-292.662	-129.607	0.494	0.067
-291.647	58.982	0.162	0.156
-290.632	-47.379	0.207	0.099
-289.618	-200.000	0.026	0.138
-288.603	146.472	0.047	-0.063
-287.589	143.889	0.078	-0.102
-286.574	-68.601	0.010	0.004
-285.559	-57.076	0.213	-0.092
-284.545	-95.543	0.138	-0.036
-283.530	215.407	0.259	0.403
-282.516	-53.026	0.088	-0.040
-281.501	-200.000	-0.026	-0.233
-280.486	-117.953	0.287	0.050
-279.472	-127.131	-0.201	0.029
-278.457	-200.000	0.022	0.187
-277.443	800.000	0.039	0.110
-276.428	-68.913	-0.076	-0.029
-275.413	-100.264	0.146	-0.036
-274.399	-200.000	-0.004	-0.075
-273.384	-83.048	0.151	-0.048
-272.370	-10.936	-0.048	-0.031
-271.355	-78.744	-0.047	-0.016
-270.340	-200.000	-0.031	-0.186
-269.326	16.999	-0.139	0.108
-268.311	-96.826	-0.065	-0.017
-267.297	800.000	0.108	0.453
-266.282	-149.772	0.153	0.012
-265.267	114.251	-0.057	0.067
-264.253	-200.000	-0.028	-0.172
-263.238	800.000	0.045	-0.137
-262.224	768.440	0.116	-0.309
-261.209	-78.024	-0.163	0.055
-260.195	-100.890	0.325	-0.078
-259.180	-130.645	0.267	-0.035
-258.165	-117.714	-0.146	-0.026
-257.151	800.000	-0.023	0.092
-256.136	242.444	-0.112	-0.183
-255.122	93.831	-0.067	-0.074
-254.107	379.961	0.066	-0.132
-253.092	-92.170	-0.182	-0.050
-252.078	-153.236	0.274	0.019
-251.063	-117.930	-0.247	-0.043
-250.049	-74.191	-0.106	0.037
-249.034	-104.449	0.273	0.062
-248.019	-200.000	0.007	0.164
-247.005	-96.997	0.094	-0.024
-245.990	29.520	-0.085	0.071
-244.976	13.207	-0.296	0.224
-243.961	164.918	0.069	-0.096
-242.946	-50.928	0.362	-0.166
-241.932	402.347	0.034	0.071
-240.917	32.618	0.165	0.139
-239.903	800.000	-0.132	0.372
-238.888	800.000	-0.075	-0.263
-237.873	509.218	-0.083	-0.189
-236.859	-200.000	0.025	0.463
-235.844	78.441	-0.117	-0.123
-234.830	24.022	0.303	0.245
-233.815	-124.163	0.252	-0.039
-232.800	-52.485	-0.101	0.046
-231.786	-62.335	0.354	0.144
-230.771	-27.799	0.069	0.039
-229.757	-3.614	0.163	-0.111
-228.742	16.052	-0.209	-0.161
-227.727	244.278	-0.076	-0.124
-226.713	214.819	0.051	0.079
-225.698	-200.000	0.007	-0.128
-224.684	-118.472	0.308	-0.053
-223.669	800.000	0.052	0.176
-222.655	86.106	-0.136	-0.146
-221.640	-56.145	-0.237	0.103
-220.625	515.046	0.095	0.217
-219.611	-200.000	0.015	0.191
-218.596	-200.000	-0.015	-0.306
-217.582	-117.149	0.130	-0.023
-216.567	441.963	0.061	-0.131
-215.552	-21.803	-0.111	-0.066
-214.538	260.335	-0.042	0.070
-213.523	-130.592	-0.249	-0.033
-212.509	-200.000	0.004	0.058
-211.494	116.003	-0.084	-0.101
-210.479	-200.000	0.001	0.126
-209.465	-66.874	0.128	0.050
-208.450	800.000	-0.161	-0.485
-207.436	79.391	-0.059	0.061
-206.421	-97.225	0.230	-0.059
-205.406	800.000	-0.064	0.267
-204.392	-162.220	0.389	-0.019
-203.377	-119.872	0.132	-0.022
-202.363	-200.000	-0.019	-0.340
-201.348	606.697	-0.045	-0.108
-200.333	128.091	-0.096	0.119
-199.319	800.000	-0.044	0.151
-198.304	800.000	-0.080	-0.286
-197.290	-48.677	0.157	0.074
-196.275	110.875	0.040	0.047
-195.260	-140.611	0.304	-0.031
-194.246	800.000	0.063	0.269
-193.231	-95.397	0.139	-0.036
-192.217	-175.365	-0.276	0.007
-191.202	209.735	-0.171	0.262
-190.187	353.885	-0.132	-0.255
-189.173	487.535	-0.086	0.193
-188.158	43.225	0.175	-0.156
-187.144	543.600	0.107	-0.250
-186.129	442.571	-0.059	-0.126
-185.114	-15.202	-0.369	-0.231
-184.100	20.510	-0.062	0.049
-183.085	-119.989	0.298	0.050
-182.071	-45.959	-0.049	-0.024
-181.056	-17.352	0.148	0.091
-180.042	-200.000	-0.036	0.363
-179.027	-51.398	0.204	0.093
-178.012	695.491	0.095	-0.244
-176.998	9.432	0.215	-0.159
-175.983	-79.709	0.134	0.044
-174.969	19.491	0.182	-0.143
-173.954	186.665	-0.152	0.221
-172.939	82.979	0.243	0.259
-171.925	-20.008	0.112	-0.068
-170.910	16.908	0.063	0.049
-169.896	-80.531	-0.264	-0.086
-168.881	-49.350	-0.169	0.079
-167.866	46.830	0.059	0.054
-166.852	-200.000	-0.012	0.085
-165.837	-112.511	0.024	-0.005
-164.823	-46.287	0.175	-0.084
-163.808	-111.880	0.216	-0.043
-162.793	-159.363	-0.227	-0.012
-161.779	-88.114	0.278	0.082
-160.764	-114.945	-0.205	0.038
-159.750	-63.978	0.113	-0.045
-158.735	-31.628	0.137	-0.075
-157.720	256.364	-0.014	0.024
-156.706	284.410	-0.077	-0.135
-155.691	-200.000	-0.029	-0.174
-154.677	800.000	0.099	-0.351
-153.662	152.980	-0.060	-0.080
-152.647	-200.000	0.033	-0.461
-151.633	800.000	-0.113	0.309
-150.618	-146.638	-0.232	-0.020
-149.604	326.580	-0.035	-0.066
-148.589	-200.000	0.032	-0.200
-147.574	161.011	0.058	-0.079
-146.560	413.196	0.047	0.097
-145.545	-31.129	0.255	0.140
-144.531	800.000	0.132	0.485
-143.516	6.820	0.197	-0.143
-142.502	-7.343	0.377	0.249
-141.487	135.026	-0.247	-0.313
-140.472	-7.212	0.299	-0.197
-139.458	-200.000	0.003	-0.161
-138.443	-65.941	-0.293	0.114
-137.429	563.684	-0.079	-0.186
-136.414	381.805	-0.136	0.273
-135.399	-49.451	0.017	0.008
-134.385	504.251	-0.142	0.320
-133.370	800.000	-0.054	0.217
-132.356	-113.714	-0.289	0.055
-131.341	-35.592	-0.267	-0.141
-130.326	-200.000	0.022	0.251
-129.312	-104.615	-0.106	0.024
-128.297	110.502	-0.062	-0.073
-127.283	5.491	0.299	-0.215
-126.268	65.027	0.082	-0.081
-125.253	258.189	-0.078	-0.131
-124.239	112.251	-0.197	0.232
-123.224	360.575	-0.038	-0.074
-122.210	13.609	-0.032	-0.024
-121.195	-45.918	-0.043	-0.020
-120.180	800.000	0.027	0.114
-119.166	-200.000	-0.006	0.353
-118.151	-36.445	0.123	-0.064
-117.137	-53.687	0.322	0.143
-116.122	-200.000	-0.036	-0.188
-115.107	-131.568	0.411	0.053
-114.093	-105.811	-0.202	-0.044
-113.078	-90.452	-0.149	-0.042
-112.064	-8.488	0.243	-0.159
-111.049	-98.071	-0.257	0.064
-110.034	567.428	0.057	-0.134
-109.020	-89.380	-0.159	-0.046
-108.005	-19.513	-0.072	-0.044
-106.991	-200.000	-0.029	0.359
-105.976	800.000	0.141	-0.413
-104.962	-108.936	0.250	-0.052
-103.947	139.922	-0.097	0.125
-102.932	800.000	0.120	0.426
-101.918	662.512	-0.281	0.707
-100.903	-42.992	0.154	0.076
-99.889	-132.488	0.237	0.030
-98.874	284.199	0.128	-0.224
-97.859	-200.000	-0.016	-0.070
-96.845	800.000	-0.030	0.106
-95.830	-200.000	-0.065	-0.439
-94.816	800.000	0.054	0.169
-93.801	-101.783	0.202	0.048
-92.786	70.207	-0.051	-0.052
-91.772	-200.000	0.013	0.371
-90.757	5.766	0.330	0.238
-89.743	800.000	0.075	0.227
-88.728	-200.000	0.013	-0.216
-87.713	-150.789	-0.352	-0.026
-86.699	97.022	-0.103	0.115
-85.684	-200.000	-0.026	-0.208
-84.670	621.764	-0.162	-0.397
-83.655	-101.390	-0.262	-0.062
-82.640	11.672	-0.206	-0.154
-81.626	134.498	-0.128	0.161
-80.611	-189.182	0.489	-0.006
-79.597	246.597	0.197	0.323
-78.582	-200.000	-0.029	0.161
-77.567	-200.000	0.014	0.068
-76.553	-81.746	-0.037	-0.012
-75.538	94.737	0.305	-0.338
-74.524	-74.108	0.193	0.068
-73.509	17.840	-0.156	-0.121
-72.494	-108.570	0.201	0.042
-71.480	800.000	-0.044	0.182
-70.465	83.927	0.225	-0.239
-69.451	255.341	-0.149	0.249
-68.436	-24.981	0.062	-0.036
-67.422	70.220	0.147	-0.148
-66.407	-200.000	0.072	0.358
-65.392	-71.518	0.177	-0.064
-64.378	-8.592	-0.161	-0.105
-63.363	-200.000	0.008	-0.161
-62.349	262.370	-0.084	0.141
-61.334	3.780	-1.186	-0.842
-60.319	12.697	0.918	0.690
-59.305	380.819	-0.544	-1.086
-58.290	542.648	0.679	1.575
-57.276	676.971	0.510	1.290
-56.261	-200.000	125.472	649.635
-55.246	405.896	1580.946	3243.429
-54.232	140.368	2754.405	3534.368
-53.217	88.763	2313.086	2501.200
-52.203	32.349	1917.783	1609.828
-51.188	26.221	1712.363	1390.335
-50.173	24.025	1674.254	1342.787
-49.159	46.083	1742.907	1568.736
-48.144	43.459	1754.233	1558.665
-47.130	25.794	1706.105	1381.760
-46.115	23.207	1690.870	1349.662
-45.100	23.255	1684.791	1345.126
-44.086	23.137	1682.906	1342.671
-43.071	23.148	1680.591	1340.851
-42.057	22.994	1678.583	1338.030
-41.042	22.980	1676.855	1336.496
-40.027	23.049	1674.331	1334.950
-39.013	23.104	1672.426	1333.795
-37.998	23.036	1671.262	1332.298
-36.984	23.169	1669.620	1331.938
-35.969	23.190	1668.524	1331.172
-34.954	23.263	1666.600	1330.135
-33.940	23.119	1665.036	1327.750
-32.925	23.131	1663.240	1326.354
-31.911	23.158	1661.561	1325.168
-30.896	23.204	1659.753	1324.017
-29.881	23.125	1658.583	1322.438
-28.867	23.289	1656.300	1321.791
-27.852	23.246	1655.127	1320.481
-26.838	23.177	1653.811	1318.866
-25.823	23.211	1652.822	1318.278
-24.809	23.219	1651.121	1316.926
-23.794	23.211	1650.198	1316.082
-22.779	23.277	1648.309	1315.012
-21.765	23.259	1646.432	1313.328
-20.750	23.177	1645.183	1311.669
-19.736	23.201	1643.773	1310.676
-18.721	23.259	1642.391	1309.949
-17.706	23.253	1640.776	1308.561
-16.692	23.129	1639.625	1306.679
-15.677	23.153	1638.417	1305.839
-14.663	23.251	1636.872	1305.280
-13.648	23.256	1635.336	1304.043
-12.633	23.229	1634.016	1302.741
-11.619	23.194	1632.443	1301.177
-10.604	23.274	1630.162	1299.891
-9.590	23.272	1628.931	1298.842
-8.575	23.286	1628.039	1298.185
-7.560	23.313	1626.875	1297.400
-6.546	23.274	1625.766	1296.178
-5.531	23.225	1624.842	1295.031
-4.517	23.224	1623.486	1293.895
-3.502	23.159	1622.667	1292.715
-2.487	23.269	1620.428	1291.682
-1.473	22.871	1608.110	1278.931
-0.458	19.947	1588.143	1242.055
0.556	14.819	1590.134	1210.347
1.571	12.610	1613.660	1211.889
2.586	12.416	1624.981	1218.844
3.600	11.399	1571.179	1171.089
4.615	6.339	1463.179	1056.606
5.629	1.183	1405.001	981.207
6.644	0.265	1398.159	970.433
7.659	0.242	1396.847	969.288
8.673	0.104	1396.314	967.945
9.688	0.139	1393.350	966.027
10.702	0.085	1389.779	963.124
11.717	2.558	1393.839	981.712
12.731	9.228	1404.073	1031.779
13.746	14.810	1412.853	1074.110
14.761	16.578	1414.254	1086.441
15.775	16.201	1412.263	1082.403
16.790	15.209	1409.988	1074.203
17.804	14.514	1407.360	1067.660
18.819	14.103	1406.226	1064.076
19.834	13.830	1405.043	1061.338
20.848	13.647	1403.474	1058.893
21.863	13.385	1402.369	1056.290
22.877	13.151	1401.012	1053.686
23.892	13.137	1400.124	1052.837
24.907	13.152	1399.611	1052.449
25.921	13.165	1398.741	1051.784
26.936	13.139	1397.544	1050.626
27.950	13.321	1396.407	1050.839
28.965	13.262	1395.508	1049.695
29.980	13.279	1394.936	1049.276
30.994	13.284	1393.878	1048.418
32.009	13.456	1392.443	1048.337
33.023	13.350	1391.573	1046.918
34.038	13.345	1390.188	1045.752
35.053	13.288	1389.264	1044.606
36.067	13.318	1388.216	1043.913
37.082	13.386	1386.911	1043.267
38.096	13.440	1385.742	1042.639
39.111	13.329	1385.494	1041.663
40.126	13.236	1384.636	1040.336
41.140	13.254	1383.360	1039.403
42.155	13.124	1383.394	1038.514
43.169	13.196	1383.025	1038.600
44.184	13.131	1382.596	1037.779
45.199	13.177	1381.953	1037.492
46.213	13.199	1381.431	1037.147
47.228	13.225	1380.317	1036.378
48.242	13.223	1379.413	1035.599
49.257	13.187	1377.960	1034.189
50.271	13.293	1376.529	1033.686
51.286	13.214	1375.296	1032.173
52.301	13.269	1374.092	1031.527
53.315	13.187	1372.512	1029.734
54.330	13.153	1371.726	1028.843
55.344	13.222	1370.207	1028.042
56.359	13.164	1368.804	1026.540
57.374	13.101	1368.390	1025.748
58.388	13.230	1367.287	1025.626
59.403	13.091	1367.099	1024.533
60.417	13.100	1366.092	1023.747
61.432	13.131	1365.179	1023.160
62.447	13.080	1363.882	1021.787
63.461	13.068	1362.860	1020.855
64.476	13.167	1361.746	1020.544
65.490	13.180	1360.333	1019.471
66.505	13.109	1358.937	1017.896
67.520	13.150	1357.509	1016.991
68.534	13.097	1356.813	1016.055
69.549	13.105	1355.544	1015.061
70.563	13.148	1354.819	1014.696
71.578	13.111	1353.413	1013.326
72.593	13.151	1352.337	1012.671
73.607	13.036	1351.704	1011.404
74.622	12.927	1350.804	1009.978
75.636	12.954	1349.987	1009.442
76.651	13.062	1349.500	1009.649
77.666	13.070	1348.653	1008.973
78.680	13.050	1348.056	1008.316
79.695	13.044	1347.348	1007.661
80.709	12.993	1346.782	1006.836
81.724	13.108	1345.415	1006.424
82.739	13.164	1344.319	1005.857
83.753	13.188	1343.648	1005.415
84.768	13.235	1342.545	1004.783
85.782	13.248	1341.249	1003.807
86.797	13.297	1339.529	1002.726
87.812	13.326	1338.217	1001.834
88.826	13.236	1337.275	1000.490
89.841	13.135	1336.645	999.320
90.855	13.269	1335.579	999.243
91.870	13.287	1334.275	998.293
92.884	13.338	1333.495	997.928
93.899	13.401	1332.812	997.706
94.914	13.389	1331.718	996.725
95.928	13.388	1331.000	996.096
96.943	13.372	1330.079	995.221
97.957	13.333	1329.273	994.297
98.972	13.313	1328.372	993.417
99.987	13.340	1327.397	992.762
101.001	13.161	1326.601	991.003
102.016	13.297	1325.370	990.812
103.030	13.309	1324.187	989.913
104.045	13.310	1323.288	989.155
105.060	13.355	1321.738	988.182
106.074	13.291	1320.795	987.005
107.089	13.132	1319.788	985.216
108.103	13.212	1318.153	984.384
109.118	13.125	1317.314	983.153
110.133	13.230	1315.573	982.390
111.147	13.144	1314.515	981.004
112.162	13.185	1313.209	980.186
113.176	13.290	1311.694	979.593
114.191	13.289	1310.955	978.949
115.206	13.257	1310.244	978.137
116.220	13.238	1308.430	976.585
117.235	13.322	1307.376	976.209
118.249	13.284	1306.273	975.076
119.264	13.253	1304.924	973.800
120.279	13.152	1304.587	972.868
121.293	13.164	1303.295	971.889
122.308	13.138	1302.185	970.822
123.322	13.157	1301.308	970.192
124.337	13.154	1299.992	969.109
125.352	13.189	1298.424	968.058
126.366	13.115	1297.659	966.969
127.381	13.082	1296.663	965.946
128.395	13.183	1295.309	965.446
129.410	13.249	1294.189	964.910
130.424	13.172	1293.755	964.051
131.439	13.135	1292.904	963.119
132.454	13.331	1291.191	962.894
133.468	13.286	1290.557	962.075
134.483	13.230	1289.665	961.001
135.497	13.194	1288.667	959.964
136.512	13.081	1287.453	958.315
137.527	13.226	1285.891	957.912
138.541	13.170	1284.625	956.558
139.556	13.392	1282.704	956.328
140.570	13.313	1282.015	955.274
141.585	13.319	1280.946	954.423
142.600	13.359	1279.832	953.742
143.614	13.418	1278.792	953.222
144.629	13.547	1277.652	953.031
145.643	13.392	1276.684	951.332
146.658	13.403	1275.589	950.497
147.673	13.333	1274.360	949.096
148.687	13.394	1272.748	948.158
149.702	13.295	1271.922	946.895
150.716	13.297	1270.194	945.533
151.731	13.384	1269.261	945.256
152.746	13.413	1267.681	944.161
153.760	13.494	1266.373	943.565
154.775	13.394	1265.626	942.354
155.789	13.565	1264.172	942.159
156.804	13.424	1263.567	940.826
157.819	13.487	1262.457	940.275
158.833	13.571	1261.588	940.020
159.848	13.610	1260.431	939.292
160.862	13.521	1259.552	938.049
161.877	13.587	1258.331	937.430
162.892	13.461	1257.430	935.965
163.906	13.492	1256.154	935.109
164.921	13.506	1255.864	934.887
165.935	13.553	1254.405	933.984
166.950	13.562	1253.528	933.301
167.964	13.530	1253.267	932.844
168.979	13.535	1251.827	931.719
169.994	13.582	1251.389	931.574
171.008	13.617	1250.250	930.837
172.023	13.731	1249.088	930.533
173.037	13.780	1248.718	930.448
174.052	13.724	1248.050	929.553
175.067	13.607	1247.023	928.050
176.081	13.562	1245.909	926.887
177.096	13.654	1244.706	926.425
178.110	13.617	1244.125	925.706
179.125	13.648	1242.780	924.797
180.140	13.760	1241.518	924.396
181.154	13.658	1240.155	922.732
182.169	13.675	1239.198	922.036
183.183	13.767	1237.791	921.420
184.198	13.809	1236.641	920.713
185.213	13.804	1235.379	919.666
186.227	13.841	1234.483	919.123
187.242	13.847	1233.766	918.541
188.256	13.929	1232.752	918.159
189.271	13.855	1231.417	916.671
190.286	13.724	1230.884	915.469
191.300	13.780	1229.892	914.964
192.315	13.716	1229.194	914.009
193.329	13.700	1228.501	913.324
194.344	13.682	1228.049	912.809
195.359	13.768	1226.967	912.396
196.373	13.766	1226.727	912.127
197.388	13.970	1226.074	912.679
198.402	13.931	1225.672	912.084
199.417	14.007	1225.074	911.977
200.432	14.147	1223.518	911.505
201.446	14.013	1222.816	910.170
202.461	14.084	1221.955	909.837
203.475	14.052	1221.071	908.921
204.490	14.106	1219.638	908.071
205.504	14.126	1218.543	907.285
206.519	14.080	1217.337	906.053
207.534	14.052	1216.240	905.004
208.548	14.062	1215.161	904.179
209.563	14.050	1214.534	903.564
210.577	14.052	1213.422	902.669
211.592	14.131	1212.586	902.398
212.607	14.073	1211.774	901.395
213.621	14.285	1210.504	901.521
214.636	14.141	1210.157	900.402
215.650	14.156	1208.843	899.428
216.665	14.344	1207.735	899.537
217.680	14.279	1207.181	898.693
218.694	14.388	1206.018	898.337
219.709	14.323	1205.162	897.272
220.723	14.298	1204.842	896.820
221.738	14.346	1204.141	896.478
222.753	14.275	1203.274	895.367
223.767	14.295	1202.555	894.863
224.782	14.407	1201.847	894.854
225.796	14.385	1201.469	894.379
226.811	14.401	1200.887	893.953
227.826	14.297	1200.213	892.812
228.840	14.367	1199.391	892.497
229.855	14.405	1198.308	891.817
230.869	14.459	1197.559	891.467
231.884	14.444	1196.781	890.733
232.899	14.337	1196.291	889.714
233.913	14.393	1194.936	888.929
234.928	14.429	1194.042	888.378
235.942	14.250	1193.499	886.942
236.957	14.470	1192.396	887.214
237.972	14.385	1192.075	886.442
238.986	14.417	1191.339	885.989
240.001	14.363	1191.411	885.673
241.015	14.447	1189.689	884.764
242.030	14.408	1189.502	884.340
243.045	14.533	1188.394	884.098
244.059	14.516	1187.534	883.291
245.074	14.483	1186.771	882.469
246.088	14.616	1185.675	882.282
247.103	14.645	1184.922	881.796
248.117	14.670	1184.036	881.192
249.132	14.726	1183.793	881.227
250.147	14.718	1183.281	880.728
251.161	14.735	1181.890	879.700
252.176	14.852	1181.540	879.979
253.190	14.866	1180.781	879.412
254.205	14.853	1180.600	879.128
255.220	14.796	1180.074	878.360
256.234	14.977	1179.038	878.464
257.249	15.002	1177.980	877.725
258.263	14.882	1177.765	876.861
259.278	14.911	1176.851	876.256
260.293	14.897	1176.915	876.152
261.307	14.859	1176.328	875.438
262.322	15.007	1175.409	875.452
263.336	14.941	1174.854	874.614
264.351	15.073	1173.614	874.304
265.366	15.062	1172.917	873.651
266.380	15.070	1172.648	873.411
267.395	15.027	1171.270	872.086
268.409	15.119	1170.602	871.990
269.424	15.067	1170.400	871.491
270.439	15.130	1169.454	871.036
271.453	15.094	1169.048	870.473
272.468	15.057	1167.959	869.389
273.482	15.019	1167.313	868.637
274.497	15.114	1166.706	868.600
275.512	15.087	1166.032	867.880
276.526	15.143	1165.255	867.516
277.541	15.133	1164.431	866.774
278.555	15.146	1163.912	866.376
279.570	15.287	1162.947	866.311
280.585	15.265	1161.674	865.173
281.599	15.293	1160.941	864.698
282.614	15.257	1160.011	863.739
283.628	15.211	1159.159	862.796
284.643	15.139	1158.253	861.674
285.657	15.250	1157.560	861.649
286.672	15.311	1156.294	860.946
287.687	15.334	1155.427	860.343
288.701	15.331	1154.495	859.559
289.716	15.326	1154.193	859.232
290.730	15.408	1153.325	858.926
291.745	15.305	1152.409	857.645
292.760	15.406	1151.875	857.684
293.774	15.475	1151.181	857.443
294.789	15.471	1150.923	857.156
295.803	15.484	1150.577	856.890
296.818	15.480	1149.616	856.078
297.833	15.370	1148.662	854.729
298.847	15.435	1147.995	854.488
299.862	15.478	1147.132	853.991
300.876	15.494	1146.199	853.304
301.891	15.575	1145.856	853.385
302.906	15.687	1144.636	852.966
303.920	15.656	1144.012	852.269
304.935	15.688	1143.544	852.005
305.949	15.715	1142.867	851.564
306.964	15.726	1142.304	851.126
307.979	15.647	1141.721	850.215
308.993	15.683	1140.814	849.649
310.008	15.743	1140.210	849.425
311.022	15.782	1138.879	848.554
312.037	15.767	1138.457	848.089
313.052	15.647	1137.774	846.903
314.066	15.658	1136.750	846.118
315.081	15.617	1136.171	845.410
316.095	15.691	1135.056	844.875
317.110	15.760	1134.326	844.605
318.125	15.759	1133.444	843.869
319.139	15.656	1133.020	842.962
320.154	15.669	1132.682	842.702
321.168	15.678	1131.551	841.828
322.183	15.812	1130.988	842.007
323.197	15.860	1130.142	841.539
324.212	15.760	1129.761	840.684
325.227	15.822	1129.134	840.451
326.241	15.915	1128.540	840.399
327.256	15.949	1127.718	839.885
328.270	15.874	1126.559	838.570
329.285	15.914	1125.733	838.083
330.300	15.801	1125.033	836.926
331.314	15.848	1123.789	836.159
332.329	15.843	1122.602	835.176
333.343	15.867	1122.003	834.777
334.358	15.890	1121.346	834.326
335.373	15.904	1120.501	833.693
336.387	15.944	1119.801	833.295
337.402	15.984	1118.601	832.530
338.416	16.043	1118.002	832.301
339.431	16.077	1117.266	831.848
340.446	16.094	1116.918	831.595
341.460	16.123	1116.011	830.991
342.475	16.124	1115.520	830.559
343.489	16.180	1114.288	829.845
344.504	16.223	1113.478	829.375
345.519	16.301	1112.508	828.962
346.533	16.282	1111.807	828.275
347.548	16.304	1110.779	827.542
348.562	16.382	1109.849	827.162
349.577	16.313	1109.318	826.351
350.592	16.187	1108.912	825.361
351.606	16.131	1108.075	824.393
352.621	16.261	1107.162	824.275
353.635	16.329	1106.750	824.224
354.650	16.200	1106.282	823.177
355.665	16.242	1105.393	822.644
356.679	16.234	1104.656	821.985
357.694	16.268	1104.066	821.638
358.708	16.366	1103.592	821.691
359.723	16.321	1103.075	821.014
360.738	16.352	1102.029	820.313
361.752	16.412	1101.594	820.207
362.767	16.416	1101.282	819.921
363.781	16.393	1100.365	819.058
364.796	16.469	1099.712	818.864
365.810	16.513	1099.294	818.696
366.825	16.540	1098.353	818.052
367.840	16.689	1097.664	818.187
368.854	16.524	1097.365	817.095
369.869	16.663	1096.470	817.026
370.883	16.616	1095.586	816.067
371.898	16.605	1095.022	815.524
372.913	16.659	1094.584	815.384
373.927	16.650	1094.023	814.852
374.942	16.654	1093.243	814.217
375.956	16.731	1092.822	814.205
376.971	16.665	1092.346	813.461
377.986	16.656	1091.702	812.863
379.000	16.731	1091.426	812.948
380.015	16.942	1090.703	813.349
381.029	16.878	1089.736	812.247
382.044	16.810	1089.028	811.323
383.059	16.849	1088.318	810.909
384.073	16.887	1087.282	810.247
385.088	16.877	1086.831	809.794
386.102	16.921	1085.789	809.152
387.117	16.884	1084.838	808.196
388.132	16.837	1083.574	806.962
389.146	17.021	1082.660	807.084
390.161	16.918	1082.023	806.048
391.175	16.942	1081.616	805.787
392.190	16.953	1081.148	805.420
393.205	16.881	1080.516	804.535
394.219	16.974	1079.704	804.299
395.234	16.957	1078.515	803.263
396.248	16.971	1077.433	802.455
397.263	16.870	1076.691	801.352
398.278	16.835	1076.331	800.848
399.292	16.950	1075.162	800.448
400.307	17.001	1074.570	800.179
401.321	16.869	1073.954	799.029
402.336	16.944	1073.337	798.852
403.350	17.055	1072.412	798.612
404.365	17.119	1071.885	798.451
405.380	17.021	1071.387	797.548
406.394	17.089	1070.196	796.912
407.409	17.108	1069.481	796.396
408.423	17.257	1068.710	796.452
409.438	17.123	1067.890	795.141
410.453	17.272	1067.242	795.285
411.467	17.146	1067.093	794.514
412.482	17.246	1066.464	794.445
413.496	17.325	1065.204	793.806
414.511	17.276	1065.092	793.422
415.526	17.257	1064.649	792.932
416.540	17.377	1064.119	793.027
417.555	17.424	1063.148	792.452
418.569	17.349	1062.914	791.859
419.584	17.421	1062.376	791.726
420.599	17.442	1061.551	791.138
421.613	107.625	1331.846	1487.198
422.628	99.346	1371.181	1487.277
