DTS Sentinel unit serial number:	SN413079Multiplexer serial number:	ORYXHardware model number:	OX4-SRSoftware version number:	ORYX F/W v4.00 Oryx Data Collector v3.7.2.0data status	okinstallation	princeton_trtdifferential loss correction	single-endedforward channel	channel 2reverse channel	N/Adate	2019/09/12time	08:57:11forward acquisition time	60.00reverse acquisition time	0.00gamma	496.2192k internal	0.2316k external	0.2316temperature offset calibration	1.0068default loss term (dB/km)	0.3790temperature slope calibration	1.0000multiplexer offset coefficient	1.0000multiplexer slope coefficient	1.0000fibre end	0.00T internal ref (°C)	34.16T ext. ref 1 (°C)	1.77T ext. ref 2 (°C)	31.04length (m)	temperature (°C)	Stokes	anti-Stokes-747.200	800.000	0.036	0.149
-746.185	-200.000	-0.021	0.324
-745.171	168.118	0.152	0.220
-744.156	45.128	0.084	-0.078
-743.142	41.146	0.066	0.060
-742.127	98.953	-0.183	0.214
-741.112	-200.000	0.067	0.489
-740.098	114.455	-0.175	0.216
-739.083	-117.566	0.021	0.004
-738.069	-89.553	-0.106	0.031
-737.054	-61.860	-0.315	0.134
-736.039	53.001	0.096	0.093
-735.025	55.320	0.128	0.126
-734.010	-72.623	-0.343	-0.128
-732.996	193.992	0.149	-0.228
-731.981	40.538	-0.229	-0.209
-730.966	-200.000	0.010	0.151
-729.952	533.934	-0.072	-0.172
-728.937	279.358	0.015	0.028
-727.923	-79.639	-0.351	-0.120
-726.908	121.364	-0.077	0.098
-725.894	703.207	-0.063	-0.169
-724.879	-101.113	-0.348	0.086
-723.864	164.535	0.189	-0.270
-722.850	14.356	-0.190	-0.150
-721.835	5.760	0.093	-0.070
-720.821	800.000	0.018	0.054
-719.806	15.147	0.139	-0.110
-718.791	-41.986	0.329	0.170
-717.777	-138.414	0.208	0.023
-716.762	5.998	-0.172	-0.129
-715.748	800.000	-0.092	-0.328
-714.733	394.896	-0.212	0.448
-713.718	206.047	-0.178	0.280
-712.704	-126.574	-0.297	-0.045
-711.689	68.683	-0.273	-0.283
-710.675	-200.000	-0.026	-0.131
-709.660	120.309	0.136	-0.171
-708.645	-200.000	-0.015	0.156
-707.631	800.000	0.053	0.156
-706.616	-10.064	0.119	-0.080
-705.602	352.140	0.142	0.286
-704.587	800.000	-0.083	-0.272
-703.572	93.407	0.054	0.062
-702.558	376.409	0.064	0.133
-701.543	-5.814	-0.154	-0.107
-700.529	13.256	-0.278	-0.218
-699.514	-113.575	0.077	0.015
-698.499	-104.443	-0.177	0.041
-697.485	386.035	-0.136	-0.285
-696.470	235.352	-0.068	-0.114
-695.456	-200.000	-0.119	-0.530
-694.441	-11.841	-0.089	0.059
-693.426	-138.905	-0.084	-0.009
-692.412	-200.000	-0.008	0.156
-691.397	118.483	0.131	-0.163
-690.383	148.403	0.237	-0.323
-689.368	-169.838	0.109	0.004
-688.354	-12.214	-0.415	0.274
-687.339	75.115	-0.082	-0.087
-686.324	171.619	-0.119	-0.172
-685.310	67.226	0.179	0.184
-684.295	-200.000	-0.004	-0.219
-683.281	333.938	0.065	-0.127
-682.266	-19.093	0.203	0.127
-681.251	-0.151	0.168	0.121
-680.237	-159.107	-0.176	0.010
-679.222	800.000	-0.060	-0.179
-678.208	297.505	0.036	0.067
-677.193	-19.183	-0.049	-0.030
-676.178	-200.000	-0.051	0.407
-675.164	-153.504	0.244	-0.017
-674.149	-82.842	-0.349	0.114
-673.135	34.464	-0.133	-0.117
-672.120	-51.279	0.218	0.103
-671.105	300.844	0.157	-0.293
-670.091	286.729	0.177	-0.322
-669.076	183.262	0.329	-0.491
-668.062	6.655	-0.207	-0.155
-667.047	240.780	0.143	0.240
-666.032	79.355	-0.224	0.243
-665.018	-200.000	-0.002	-0.120
-664.003	-200.000	-0.027	0.263
-662.989	-200.000	0.015	0.289
-661.974	148.116	-0.315	0.429
-660.959	18.471	-0.118	0.095
-659.945	-76.748	-0.335	-0.118
-658.930	37.560	0.175	-0.156
-657.916	-65.239	-0.220	-0.089
-656.901	-70.343	-0.141	-0.054
-655.886	-40.985	0.194	0.101
-654.872	481.486	-0.053	-0.122
-653.857	800.000	0.075	-0.280
-652.843	-200.000	0.019	-0.275
-651.828	-32.259	0.089	-0.050
-650.814	-154.747	-0.296	0.020
-649.799	-159.444	-0.209	-0.012
-648.784	-100.059	0.195	-0.049
-647.770	800.000	0.081	-0.228
-646.755	-34.887	0.069	0.038
-645.741	49.202	-0.230	0.218
-644.726	110.231	-0.092	-0.111
-643.711	-71.483	0.189	-0.071
-642.697	182.080	-0.129	-0.192
-641.682	40.298	-0.164	0.149
-640.668	-200.000	-0.112	0.000
-639.653	-58.550	-0.163	0.072
-638.638	-117.744	-0.272	-0.049
-637.624	-90.165	0.278	0.082
-636.609	254.079	0.166	-0.286
-635.595	-200.000	-0.092	-0.457
-634.580	199.830	-0.126	-0.194
-633.565	-200.000	0.045	-0.222
-632.551	-75.321	0.128	0.046
-631.536	74.955	-0.321	-0.341
-630.522	800.000	0.078	-0.217
-629.507	-25.220	-0.190	0.113
-628.492	-113.787	0.160	-0.031
-627.478	-141.353	-0.357	-0.037
-626.463	-21.780	-0.339	-0.208
-625.449	109.718	-0.099	-0.119
-624.434	614.526	0.089	0.224
-623.419	800.000	-0.091	0.290
-622.405	65.342	-0.020	0.020
-621.390	-169.659	0.261	-0.010
-620.376	-130.953	-0.292	0.039
-619.361	-68.654	-0.265	-0.103
-618.346	-54.794	0.179	-0.082
-617.332	-54.547	-0.290	-0.132
-616.317	334.964	-0.124	0.242
-615.303	140.435	-0.106	-0.141
-614.288	-200.000	-0.085	-0.378
-613.273	-200.000	-0.079	0.388
-612.259	-116.016	0.120	-0.023
-611.244	-200.000	-0.031	0.213
-610.230	59.572	-0.243	0.242
-609.215	800.000	0.062	-0.199
-608.201	-200.000	-0.002	0.266
-607.186	-66.599	-0.306	0.122
-606.171	-22.317	0.388	0.237
-605.157	-200.000	0.008	0.108
-604.142	800.000	-0.040	-0.139
-603.128	-90.371	0.093	0.027
-602.113	200.294	0.081	0.125
-601.098	620.524	-0.152	-0.384
-600.084	-200.000	0.011	-0.096
-599.069	323.139	0.112	0.215
-598.055	-105.142	-0.178	-0.041
-597.040	-45.301	0.081	0.040
-596.025	86.157	-0.040	-0.044
-595.011	42.357	-0.130	0.119
-593.996	-200.000	-0.012	-0.233
-592.982	800.000	0.063	-0.260
-591.967	800.000	0.038	-0.143
-590.952	107.773	0.404	0.484
-589.938	204.303	-0.140	-0.218
-588.923	327.981	-0.041	-0.080
-587.909	-29.956	-0.098	0.056
-586.894	57.764	0.231	0.227
-585.879	74.102	-0.198	0.209
-584.865	-130.239	0.219	-0.030
-583.850	-41.537	0.166	0.086
-582.836	50.063	-0.223	-0.212
-581.821	-200.000	-0.006	-0.223
-580.806	171.215	-0.103	0.149
-579.792	336.105	-0.140	0.274
-578.777	-117.002	-0.237	-0.044
-577.763	444.154	-0.112	0.248
-576.748	-132.646	-0.226	0.029
-575.733	-140.974	0.409	0.042
-574.719	75.515	0.114	-0.121
-573.704	-200.000	-0.027	-0.353
-572.690	-126.792	-0.216	0.032
-571.675	181.502	-0.029	-0.043
-570.661	77.889	-0.162	0.174
-569.646	114.065	0.043	0.053
-568.631	212.914	0.212	0.337
-567.617	-9.451	-0.057	-0.038
-566.602	-101.922	-0.123	-0.030
-565.588	800.000	0.051	0.150
-564.573	800.000	-0.088	-0.288
-563.558	800.000	-0.089	0.255
-562.544	-200.000	0.077	0.485
-561.529	129.827	-0.164	-0.211
-560.515	153.596	0.128	0.176
-559.500	189.569	-0.059	0.089
-558.485	87.761	0.143	-0.159
-557.471	-31.061	-0.229	-0.130
-556.456	-126.921	-0.098	-0.014
-555.442	-146.541	0.261	0.023
-554.427	-200.000	-0.076	-0.441
-553.412	-124.034	0.348	-0.055
-552.398	69.278	-0.182	0.188
-551.383	321.804	-0.068	-0.131
-550.369	353.061	-0.091	0.182
-549.354	-69.943	-0.323	-0.124
-548.339	-133.032	-0.119	0.015
-547.325	-92.693	0.121	0.034
-546.310	-16.657	0.083	-0.053
-545.296	339.410	-0.085	0.166
-544.281	-89.517	-0.292	-0.086
-543.266	-50.015	-0.213	-0.101
-542.252	-200.000	0.035	-0.353
-541.237	-94.607	-0.211	-0.058
-540.223	478.799	-0.120	-0.273
-539.208	-14.157	-0.114	0.074
-538.193	-200.000	-0.015	-0.075
-537.179	687.655	-0.091	-0.238
-536.164	-54.894	0.258	-0.117
-535.150	18.001	0.140	-0.112
-534.135	78.282	-0.104	0.112
-533.121	800.000	-0.119	-0.401
-532.106	35.895	-0.135	-0.120
-531.091	-7.936	0.170	-0.115
-530.077	136.554	-0.200	-0.262
-529.062	-200.000	-0.018	-0.185
-528.048	-200.000	-0.002	0.034
-527.033	-38.359	0.144	0.077
-526.018	594.514	0.072	-0.178
-525.004	215.865	-0.049	0.079
-523.989	241.898	-0.112	-0.188
-522.975	-115.755	0.181	0.034
-521.960	800.000	0.061	0.171
-520.945	800.000	0.069	0.224
-519.931	-42.971	-0.133	-0.068
-518.916	-180.628	0.193	0.004
-517.902	-59.209	0.029	0.012
-516.887	800.000	-0.044	0.140
-515.872	111.640	-0.200	-0.243
-514.858	800.000	0.087	0.244
-513.843	-70.266	0.052	-0.020
-512.829	151.766	0.069	0.095
-511.814	800.000	0.167	0.493
-510.799	60.162	0.199	0.197
-509.785	173.064	-0.198	-0.286
-508.770	64.016	0.100	-0.101
-507.756	586.002	-0.029	0.072
-506.741	322.342	0.127	0.243
-505.726	-200.000	-0.022	-0.212
-504.712	468.697	-0.103	-0.232
-503.697	800.000	-0.062	-0.203
-502.683	-200.000	0.034	0.365
-501.668	3.310	0.322	0.235
-500.653	600.494	0.016	0.041
-499.639	-28.636	-0.071	-0.041
-498.624	11.534	-0.044	0.034
-497.610	-11.361	-0.304	-0.201
-496.595	43.635	0.176	-0.162
-495.581	272.303	0.217	0.384
-494.566	67.746	-0.163	0.167
-493.551	116.723	-0.100	-0.123
-492.537	157.745	0.093	0.130
-491.522	365.708	-0.169	-0.342
-490.508	-108.666	-0.105	0.023
-489.493	22.959	0.134	0.110
-488.478	10.396	-0.079	0.060
-487.464	91.851	0.010	-0.012
-486.449	-132.601	-0.116	0.015
-485.435	-41.118	0.293	0.152
-484.420	593.669	-0.104	-0.258
-483.405	-118.917	0.181	-0.032
-482.391	18.704	-0.170	-0.137
-481.376	-200.000	0.069	-0.387
-480.362	-55.355	-0.072	-0.033
-479.347	-129.348	-0.267	-0.037
-478.332	800.000	0.057	-0.230
-477.318	51.822	0.186	0.178
-476.303	115.966	-0.306	-0.375
-475.289	-200.000	-0.008	0.055
-474.274	-200.000	-0.019	0.240
-473.259	27.955	0.273	0.230
-472.245	-101.127	-0.323	-0.079
-471.230	-89.292	0.200	0.059
-470.216	52.624	0.098	0.094
-469.201	800.000	0.005	0.019
-468.186	-59.135	0.173	0.075
-467.172	-138.661	-0.386	0.042
-466.157	-40.941	-0.264	0.137
-465.143	-169.333	-0.186	-0.007
-464.128	466.342	-0.127	-0.285
-463.113	-131.686	-0.040	-0.005
-462.099	166.812	0.134	-0.190
-461.084	663.427	0.058	-0.149
-460.070	-59.808	-0.100	0.043
-459.055	575.014	-0.052	-0.126
-458.040	-131.065	0.119	-0.016
-457.026	122.055	0.142	0.178
-456.011	-54.404	0.118	0.054
-454.997	800.000	-0.085	-0.282
-453.982	200.745	-0.152	-0.234
-452.968	1.698	-0.171	0.124
-451.953	-43.084	0.171	0.087
-450.938	-92.802	0.081	-0.023
-449.924	77.470	0.175	-0.186
-448.909	-200.000	0.012	-0.312
-447.895	-137.310	0.396	0.045
-446.880	-54.467	0.278	0.126
-445.865	800.000	-0.030	0.124
-444.851	57.370	-0.180	-0.176
-443.836	-74.556	0.197	-0.071
-442.822	-17.490	0.332	0.209
-441.807	-58.070	-0.206	-0.090
-440.792	70.709	-0.198	0.205
-439.778	341.682	-0.091	0.178
-438.763	-51.444	0.091	-0.043
-437.749	106.731	-0.343	-0.407
-436.734	69.463	-0.118	0.121
-435.719	-200.000	0.005	0.114
-434.705	-200.000	0.001	0.039
-433.690	-200.000	-0.026	0.312
-432.676	558.007	0.120	-0.289
-431.661	104.772	0.064	-0.075
-430.646	-71.882	-0.176	0.065
-429.632	129.891	-0.170	-0.218
-428.617	-25.122	-0.081	0.048
-427.603	-18.717	-0.129	0.081
-426.588	-95.930	0.159	0.043
-425.573	-200.000	0.013	-0.082
-424.559	800.000	0.035	0.145
-423.544	-200.000	0.015	0.299
-422.530	-93.470	0.257	-0.071
-421.515	-17.604	0.089	0.056
-420.500	-121.041	-0.153	-0.026
-419.486	-157.825	-0.216	-0.013
-418.471	175.132	-0.139	0.202
-417.457	-200.000	0.063	0.398
-416.442	-66.264	-0.311	0.124
-415.428	18.620	0.129	-0.103
-414.413	-71.924	0.325	-0.121
-413.398	255.612	0.186	0.319
-412.384	432.328	-0.173	0.375
-411.369	-64.678	-0.236	0.096
-410.355	-1.442	-0.159	0.112
-409.340	-133.885	-0.204	0.025
-408.325	-99.445	0.049	0.012
-407.311	316.271	0.109	-0.205
-406.296	-200.000	0.021	-0.165
-405.282	800.000	-0.021	0.072
-404.267	24.614	0.117	-0.097
-403.252	-200.000	-0.009	0.105
-402.238	-200.000	-0.012	-0.095
-401.223	800.000	-0.041	0.132
-400.209	93.144	-0.069	-0.078
-399.194	718.170	-0.005	-0.013
-398.179	59.070	-0.185	0.182
-397.165	272.478	0.132	0.232
-396.150	-200.000	0.040	0.273
-395.136	-200.000	0.021	-0.161
-394.121	101.965	0.162	-0.189
-393.106	-30.274	0.237	-0.134
-392.092	89.085	-0.025	-0.027
-391.077	800.000	-0.039	0.164
-390.063	83.006	-0.096	0.104
-389.048	-116.987	0.179	-0.033
-388.033	492.869	-0.058	-0.134
-387.019	-17.054	-0.126	-0.080
-386.004	-200.000	-0.010	0.253
-384.990	280.943	-0.143	0.255
-383.975	-200.000	-0.022	-0.126
-382.960	484.642	-0.077	-0.175
-381.946	-200.000	-0.003	0.121
-380.931	-119.683	0.215	0.037
-379.917	-151.903	-0.131	-0.010
-378.902	305.464	0.184	-0.341
-377.888	473.852	-0.010	0.022
-376.873	-200.000	0.010	-0.144
-375.858	739.062	0.091	0.243
-374.844	-200.000	0.029	-0.170
-373.829	-5.336	0.034	0.023
-372.815	-200.000	-0.023	-0.101
-371.800	-154.167	-0.293	0.020
-370.785	95.634	-0.275	-0.314
-369.771	-110.448	0.075	-0.016
-368.756	86.106	-0.201	-0.221
-367.742	-200.000	-0.012	0.098
-366.727	-152.235	0.178	0.013
-365.712	50.641	0.205	0.194
-364.698	332.066	0.163	0.314
-363.683	-200.000	-0.073	0.328
-362.669	56.692	-0.225	0.218
-361.654	99.270	0.222	-0.256
-360.639	94.772	-0.137	-0.156
-359.625	72.013	0.225	0.234
-358.610	-200.000	0.016	0.355
-357.596	428.864	-0.086	0.185
-356.581	185.659	-0.058	0.086
-355.566	-182.106	0.390	-0.007
-354.552	-159.073	0.124	-0.007
-353.537	800.000	-0.093	0.316
-352.523	-70.745	0.248	-0.093
-351.508	82.319	0.177	0.192
-350.493	-71.679	-0.332	-0.124
-349.479	-181.930	0.112	-0.002
-348.464	49.512	-0.355	0.333
-347.450	681.145	0.113	0.295
-346.435	164.938	0.234	-0.330
-345.420	208.765	-0.086	-0.134
-344.406	-43.480	0.113	-0.057
-343.391	-200.000	-0.003	-0.074
-342.377	144.237	0.111	-0.148
-341.362	-200.000	-0.014	-0.277
-340.348	69.052	-0.199	-0.203
-339.333	800.000	0.065	-0.222
-338.318	353.720	-0.039	0.078
-337.304	124.849	0.057	0.072
-336.289	67.072	0.129	0.131
-335.275	-61.706	0.278	-0.116
-334.260	120.282	-0.152	-0.188
-333.245	-129.278	-0.192	0.027
-332.231	-122.406	0.207	-0.034
-331.216	477.290	-0.125	-0.283
-330.202	20.197	-0.309	0.249
-329.187	-38.589	-0.072	0.038
-328.172	-153.288	-0.119	0.008
-327.158	-106.369	0.268	-0.060
-326.143	85.253	0.203	-0.222
-325.129	729.628	-0.101	0.270
-324.114	254.460	-0.202	-0.344
-323.099	702.833	0.019	-0.049
-322.085	35.669	0.083	0.073
-321.070	228.835	-0.050	0.082
-320.056	244.419	-0.099	0.165
-319.041	659.828	-0.030	0.078
-318.026	-88.309	-0.292	-0.087
-317.012	205.464	0.124	0.192
-315.997	182.748	-0.058	0.086
-314.983	407.343	0.140	0.294
-313.968	-0.973	0.113	0.080
-312.953	-131.838	0.281	0.037
-311.939	-200.000	-0.050	0.226
-310.924	301.564	0.239	0.439
-309.910	-61.530	0.180	0.075
-308.895	50.331	-0.066	-0.062
-307.880	800.000	0.068	-0.249
-306.866	154.669	0.226	-0.309
-305.851	-87.682	0.380	-0.114
-304.837	-200.000	0.012	-0.063
-303.822	-176.533	0.180	-0.005
-302.807	-200.000	-0.022	-0.112
-301.793	416.809	0.216	-0.460
-300.778	-86.334	0.125	-0.038
-299.764	-99.100	0.270	-0.068
-298.749	-200.000	0.036	0.330
-297.735	204.321	-0.066	0.102
-296.720	-200.000	0.038	-0.262
-295.705	706.140	-0.088	0.231
-294.691	-200.000	0.042	-0.345
-293.676	-70.632	-0.053	-0.020
-292.662	-7.739	-0.129	-0.087
-291.647	800.000	0.104	0.401
-290.632	560.257	0.113	0.271
-289.618	-200.000	-0.007	0.183
-288.603	-200.000	0.063	0.374
-287.589	-2.380	-0.263	-0.184
-286.574	-200.000	0.001	-0.161
-285.559	284.795	-0.137	-0.246
-284.545	156.053	-0.082	-0.112
-283.530	219.485	0.101	-0.160
-282.516	-176.496	0.142	0.004
-281.501	235.986	0.128	-0.210
-280.486	-135.930	-0.066	-0.008
-279.472	-76.577	0.245	0.086
-278.457	154.385	-0.137	0.187
-277.443	261.271	-0.123	0.212
-276.428	-84.282	-0.184	0.058
-275.413	800.000	0.090	0.290
-274.399	-115.789	0.113	-0.021
-273.384	-200.000	-0.003	0.052
-272.370	45.538	-0.405	0.372
-271.355	52.567	0.307	0.291
-270.340	-118.338	0.147	0.026
-269.326	472.335	-0.113	-0.253
-268.311	548.700	0.031	0.073
-267.297	-200.000	-0.007	0.192
-266.282	800.000	-0.035	0.121
-265.267	800.000	0.059	-0.253
-264.253	800.000	0.088	0.278
-263.238	258.358	0.125	0.215
-262.224	800.000	0.057	-0.237
-261.209	178.110	-0.083	0.121
-260.195	-186.090	0.282	0.004
-259.180	800.000	-0.043	-0.139
-258.165	318.050	-0.088	-0.166
-257.151	-130.001	0.331	0.045
-256.136	-200.000	-0.008	-0.065
-255.122	-14.228	-0.151	-0.097
-254.107	-200.000	-0.040	0.262
-253.092	-200.000	0.021	0.101
-252.078	-43.880	-0.238	0.119
-251.063	800.000	0.046	0.153
-250.049	515.968	-0.000	0.001
-249.034	-200.000	0.085	0.387
-248.019	-23.766	0.147	0.088
-247.005	98.010	0.258	0.294
-245.990	800.000	-0.121	-0.336
-244.976	-153.103	-0.248	0.017
-243.961	800.000	-0.024	-0.081
-242.946	339.406	0.130	0.251
-241.932	-63.991	-0.180	-0.073
-240.917	-200.000	-0.022	-0.323
-239.903	11.278	0.025	-0.019
-238.888	67.854	-0.131	0.133
-237.873	-139.371	0.096	-0.010
-236.859	-78.074	-0.107	-0.037
-235.844	46.290	0.142	-0.130
-234.830	317.207	0.087	0.163
-233.815	-104.923	0.187	-0.043
-232.800	103.168	0.117	0.136
-231.786	-134.848	0.067	0.008
-230.771	90.997	0.411	-0.457
-229.757	17.967	0.326	-0.258
-228.742	-58.348	-0.223	0.096
-227.727	-143.138	-0.123	0.012
-226.713	134.457	-0.215	-0.277
-225.698	-125.494	0.259	0.039
-224.684	-196.182	0.177	-0.001
-223.669	215.075	-0.071	0.111
-222.655	-200.000	-0.053	0.382
-221.640	-200.000	0.026	-0.204
-220.625	-9.404	0.102	0.068
-219.611	-200.000	-0.023	-0.172
-218.596	-63.415	-0.299	-0.122
-217.582	-2.971	0.259	-0.179
-216.567	158.223	-0.132	-0.181
-215.552	-40.907	0.319	0.164
-214.538	800.000	0.034	-0.095
-213.523	699.249	-0.049	-0.128
-212.509	-72.174	-0.208	0.077
-211.494	-8.335	0.280	-0.187
-210.479	-75.118	-0.237	-0.084
-209.465	-200.000	0.291	0.000
-208.450	-1.365	0.265	-0.186
-207.436	21.186	-0.316	0.254
-206.421	-40.039	0.163	0.084
-205.406	-200.000	0.002	-0.048
-204.392	12.161	-0.297	0.226
-203.377	126.872	-0.152	-0.191
-202.363	-88.338	-0.376	-0.111
-201.348	52.440	0.233	-0.221
-200.333	-157.068	-0.240	0.014
-199.319	-79.581	-0.197	0.066
-198.304	-91.600	-0.089	0.025
-197.290	-186.049	-0.227	-0.003
-196.275	-136.523	-0.085	0.010
-195.260	-41.901	0.309	0.157
-194.246	-139.857	0.043	-0.004
-193.231	139.034	-0.076	-0.099
-192.217	-6.015	-0.020	-0.013
-191.202	-200.000	0.011	-0.088
-190.187	-143.605	0.188	0.018
-189.173	-27.165	-0.209	-0.121
-188.158	-200.000	-0.004	-0.144
-187.144	-102.879	-0.268	-0.063
-186.129	185.896	-0.235	0.347
-185.114	18.302	-0.192	-0.152
-184.100	-200.000	-0.049	-0.253
-183.085	474.041	0.095	-0.212
-182.071	-20.648	0.100	-0.061
-181.056	-52.298	0.123	0.057
-180.042	-178.006	-0.058	-0.001
-179.027	-200.000	-0.009	0.192
-178.012	-42.063	0.313	0.158
-176.998	-139.019	0.179	-0.019
-175.983	69.642	0.095	-0.097
-174.969	39.650	0.109	0.096
-173.954	-55.766	0.273	0.121
-172.939	-41.568	-0.302	0.154
-171.925	1.358	0.235	-0.167
-170.910	-50.334	-0.283	-0.132
-169.896	63.018	0.128	0.127
-168.881	-200.000	-0.048	0.305
-167.866	57.467	0.328	0.317
-166.852	-117.105	0.161	-0.029
-165.837	-200.000	0.024	0.155
-164.823	-151.005	-0.102	-0.008
-163.808	243.921	0.162	-0.269
-162.793	79.992	0.173	-0.184
-161.779	172.292	-0.036	0.051
-160.764	-38.374	0.112	-0.058
-159.750	353.862	-0.098	0.193
-158.735	-41.147	0.324	0.166
-157.720	57.052	-0.138	0.133
-156.706	-200.000	-0.001	0.065
-155.691	-200.000	0.030	-0.159
-154.677	10.618	0.158	-0.120
-153.662	-119.768	0.274	-0.047
-152.647	-200.000	-0.026	-0.437
-151.633	-200.000	-0.005	0.131
-150.618	800.000	0.044	0.191
-149.604	98.414	0.305	-0.348
-148.589	-200.000	0.000	0.041
-147.574	296.328	-0.049	-0.088
-146.560	-111.376	0.212	0.043
-145.545	62.105	-0.292	-0.288
-144.531	-200.000	0.050	0.234
-143.516	-200.000	0.044	0.245
-142.502	5.606	-0.301	-0.220
-141.487	52.058	0.183	-0.172
-140.472	-200.000	-0.011	-0.161
-139.458	624.550	0.134	0.335
-138.443	554.696	-0.086	0.206
-137.429	216.432	0.140	0.220
-136.414	29.804	-0.157	0.132
-135.399	46.030	0.304	0.278
-134.385	-2.029	-0.287	0.200
-133.370	13.363	-0.151	-0.116
-132.356	126.241	-0.091	-0.114
-131.341	-125.629	-0.141	0.021
-130.326	115.865	-0.262	-0.317
-129.312	800.000	0.075	0.255
-128.297	115.888	-0.185	-0.224
-127.283	-110.394	0.169	0.035
-126.268	86.586	-0.319	-0.348
-125.253	529.342	0.051	0.120
-124.239	-200.000	-0.013	0.055
-123.224	263.329	-0.176	-0.302
-122.210	123.295	0.016	-0.020
-121.195	379.861	-0.038	0.076
-120.180	55.036	-0.195	-0.186
-119.166	-88.668	0.225	0.066
-118.151	79.640	-0.204	0.217
-117.137	160.793	0.081	-0.112
-116.122	-110.442	-0.097	0.020
-115.107	-200.000	0.039	0.257
-114.093	-15.235	0.301	0.190
-113.078	800.000	0.088	0.273
-112.064	294.850	-0.115	0.208
-111.049	-93.813	-0.180	-0.049
-110.034	-200.000	0.011	0.215
-109.020	800.000	0.113	0.420
-108.005	-81.073	-0.128	0.042
-106.991	-138.974	-0.242	0.026
-105.976	-159.977	-0.248	-0.013
-104.962	-200.000	0.007	-0.073
-103.947	-200.000	0.022	0.298
-102.932	-147.816	0.158	0.013
-101.918	-17.616	-0.165	-0.103
-100.903	-49.805	0.288	-0.135
-99.889	800.000	-0.097	-0.320
-98.874	-200.000	0.009	-0.355
-97.859	-72.192	0.166	-0.061
-96.845	-52.278	-0.187	-0.085
-95.830	-200.000	0.064	0.334
-94.816	2.003	0.330	-0.235
-93.801	-101.286	0.154	0.037
-92.786	75.226	0.212	0.220
-91.772	-76.843	-0.300	0.104
-90.757	38.109	0.171	-0.150
-89.743	-200.000	-0.009	0.227
-88.728	4.416	0.403	0.292
-87.713	-200.000	0.036	0.246
-86.699	800.000	0.118	-0.441
-85.684	-100.306	-0.256	-0.063
-84.670	-28.683	-0.091	-0.051
-83.655	-134.548	0.303	-0.037
-82.640	-37.966	0.296	-0.155
-81.626	-200.000	-0.016	0.555
-80.611	439.456	-0.037	0.079
-79.597	126.012	-0.212	0.264
-78.582	275.718	-0.126	0.220
-77.567	-32.917	-0.161	-0.088
-76.553	-151.190	0.031	-0.002
-75.538	-200.000	0.039	-0.184
-74.524	-117.353	-0.110	-0.020
-73.509	-101.062	0.128	-0.031
-72.494	800.000	-0.026	0.077
-71.480	46.797	-0.174	0.160
-70.465	114.554	-0.207	-0.249
-69.451	-4.661	0.157	0.107
-68.436	-100.612	0.151	-0.037
-67.422	436.765	-0.079	-0.170
-66.407	47.426	0.167	-0.153
-65.392	66.338	0.018	0.018
-64.378	-129.540	0.014	-0.002
-63.363	93.892	0.211	0.236
-62.349	472.511	-0.209	0.464
-61.334	86.492	-0.712	-0.774
-60.319	-0.872	0.476	0.332
-59.305	-200.000	0.003	-0.902
-58.290	198.068	0.487	0.735
-57.276	563.894	0.653	1.560
-56.261	-200.000	96.687	569.552
-55.246	546.893	1388.708	3275.943
-54.232	150.117	2612.738	3495.061
-53.217	107.291	2305.187	2702.295
-52.203	43.553	1917.850	1729.102
-51.188	37.410	1704.603	1489.884
-50.173	34.656	1659.185	1429.549
-49.159	51.978	1707.597	1603.149
-48.144	55.195	1726.006	1644.779
-47.130	37.129	1681.681	1467.489
-46.115	34.224	1666.560	1432.422
-45.100	34.028	1661.825	1426.824
-44.086	34.006	1659.101	1424.262
-43.071	33.997	1656.665	1422.051
-42.057	34.044	1653.980	1420.038
-41.042	34.066	1651.817	1418.294
-40.027	34.018	1650.005	1416.320
-39.013	33.986	1648.099	1414.392
-37.998	33.971	1646.258	1412.646
-36.984	34.020	1644.856	1411.748
-35.969	34.213	1643.047	1411.572
-34.954	34.231	1641.318	1410.165
-33.940	34.154	1639.402	1407.890
-32.925	34.143	1638.370	1406.868
-31.911	34.164	1636.442	1405.312
-30.896	34.159	1634.767	1403.781
-29.881	34.123	1632.888	1401.844
-28.867	34.129	1631.292	1400.461
-27.852	34.144	1629.531	1399.011
-26.838	34.139	1628.228	1397.795
-25.823	34.166	1626.888	1396.791
-24.809	34.213	1626.182	1396.472
-23.794	34.191	1624.398	1394.727
-22.779	34.301	1622.674	1393.994
-21.765	34.171	1621.289	1391.799
-20.750	34.259	1619.167	1390.563
-19.736	34.230	1617.944	1389.246
-18.721	34.245	1616.385	1387.962
-17.706	34.205	1614.370	1385.887
-16.692	34.166	1613.168	1384.511
-15.677	34.058	1612.189	1382.835
-14.663	34.146	1610.812	1382.236
-13.648	34.266	1609.127	1381.610
-12.633	34.213	1607.563	1379.825
-11.619	34.224	1606.023	1378.530
-10.604	34.140	1605.007	1376.992
-9.590	34.202	1603.493	1376.086
-8.575	34.211	1602.212	1374.996
-7.560	34.119	1601.031	1373.267
-6.546	34.080	1599.891	1371.950
-5.531	34.176	1598.680	1371.554
-4.517	34.199	1597.216	1370.407
-3.502	34.062	1596.650	1368.881
-2.487	34.322	1594.208	1368.605
-1.473	34.191	1583.866	1358.735
-0.458	31.771	1565.104	1325.490
0.556	28.399	1565.850	1295.414
1.571	26.331	1590.086	1300.484
2.586	25.626	1604.338	1306.903
3.600	22.243	1549.320	1238.196
4.615	11.961	1434.963	1079.300
5.629	3.294	1368.105	974.284
6.644	1.897	1359.321	959.156
7.659	1.774	1358.152	957.475
8.673	1.743	1357.172	956.503
9.688	1.666	1355.226	954.561
10.702	1.361	1352.260	950.484
11.717	4.689	1358.816	975.910
12.731	15.151	1378.446	1056.200
13.746	24.033	1393.470	1123.973
14.761	26.136	1396.377	1139.515
15.775	26.527	1396.599	1142.061
16.790	26.656	1395.789	1142.113
17.804	26.712	1395.347	1142.002
18.819	26.762	1395.167	1142.067
19.834	26.976	1394.180	1142.503
20.848	26.925	1393.826	1141.794
21.863	26.967	1392.876	1141.180
22.877	27.037	1391.394	1140.301
23.892	26.905	1391.207	1139.218
24.907	26.956	1390.577	1138.922
25.921	27.047	1389.129	1138.209
26.936	27.041	1388.018	1137.158
27.950	27.027	1387.200	1136.298
28.965	26.937	1386.199	1134.818
29.980	27.023	1384.896	1134.187
30.994	26.943	1383.929	1132.796
32.009	26.979	1382.394	1131.663
33.023	27.039	1381.089	1130.870
34.038	27.052	1379.981	1129.943
35.053	26.954	1379.631	1128.948
36.067	27.042	1378.203	1128.225
37.082	26.942	1377.486	1126.914
38.096	26.968	1376.296	1126.007
39.111	27.009	1375.772	1125.728
40.126	27.001	1375.133	1125.056
41.140	26.905	1374.881	1124.159
42.155	26.935	1374.468	1123.906
43.169	26.946	1374.215	1123.668
44.184	27.004	1373.806	1123.591
45.199	26.935	1373.791	1123.053
46.213	26.960	1373.540	1122.905
47.228	26.941	1372.277	1121.654
48.242	26.962	1370.820	1120.497
49.257	26.993	1369.249	1119.302
50.271	26.885	1367.944	1117.471
51.286	27.014	1366.616	1117.082
52.301	26.963	1365.622	1115.859
53.315	26.860	1364.998	1114.617
54.330	26.965	1363.949	1114.302
55.344	26.957	1362.688	1113.127
56.359	26.981	1361.540	1112.239
57.374	26.943	1361.211	1111.635
58.388	26.997	1359.871	1110.778
59.403	26.929	1360.477	1110.756
60.417	26.965	1359.156	1109.798
61.432	27.011	1358.159	1109.168
62.447	26.894	1358.063	1108.273
63.461	26.952	1356.354	1107.135
64.476	27.000	1355.507	1106.642
65.490	26.947	1354.783	1105.630
66.505	26.990	1352.898	1104.252
67.520	27.055	1351.733	1103.600
68.534	26.919	1350.842	1101.949
69.549	27.029	1349.609	1101.512
70.563	26.925	1348.910	1100.217
71.578	27.007	1347.734	1099.657
72.593	26.968	1347.171	1098.864
73.607	26.928	1346.813	1098.229
74.622	27.025	1345.726	1097.831
75.636	26.983	1345.143	1097.005
76.651	26.947	1344.756	1096.381
77.666	26.874	1344.293	1095.460
78.680	27.064	1343.341	1095.733
79.695	27.049	1342.568	1094.916
80.709	27.045	1341.695	1094.085
81.724	26.985	1341.085	1093.128
82.739	26.972	1339.949	1092.029
83.753	27.003	1339.196	1091.503
84.768	27.027	1338.034	1090.602
85.782	26.958	1336.914	1089.182
86.797	26.988	1335.879	1088.420
87.812	27.041	1334.583	1087.587
88.826	27.080	1333.734	1087.034
89.841	26.975	1332.928	1085.650
90.855	27.054	1331.700	1085.024
91.870	27.052	1330.552	1083.982
92.884	26.994	1330.076	1083.155
93.899	27.078	1329.119	1082.778
94.914	27.101	1328.831	1082.584
95.928	27.033	1327.778	1081.226
96.943	27.085	1326.624	1080.501
97.957	27.037	1326.434	1079.967
98.972	26.954	1325.848	1078.898
99.987	27.008	1324.473	1078.008
101.001	27.046	1323.444	1077.297
102.016	27.081	1322.358	1076.529
103.030	26.976	1322.126	1075.623
104.045	27.100	1320.710	1075.104
105.060	27.125	1319.645	1074.292
106.074	27.016	1319.164	1073.163
107.089	27.074	1317.845	1072.339
108.103	27.026	1317.034	1071.301
109.118	27.052	1315.916	1070.449
110.133	27.167	1314.573	1069.936
111.147	27.060	1313.640	1068.452
112.162	27.216	1312.323	1068.204
113.176	27.103	1311.591	1066.852
114.191	27.103	1311.068	1066.332
115.206	27.176	1309.429	1065.333
116.220	27.167	1308.481	1064.414
117.235	27.137	1307.527	1063.366
118.249	27.135	1307.135	1062.943
119.264	27.136	1305.777	1061.750
120.279	27.113	1305.135	1060.999
121.293	27.101	1304.324	1060.175
122.308	27.279	1303.456	1060.415
123.322	27.100	1303.555	1059.356
124.337	27.155	1302.569	1058.785
125.352	27.229	1301.110	1057.938
126.366	27.209	1300.194	1056.977
127.381	27.200	1299.290	1056.098
128.395	27.182	1298.792	1055.500
129.410	27.083	1298.251	1054.387
130.424	27.257	1297.263	1054.501
131.439	27.169	1296.338	1053.149
132.454	27.104	1295.891	1052.312
133.468	27.083	1295.201	1051.542
134.483	27.109	1294.445	1050.984
135.497	27.195	1293.675	1050.761
136.512	27.163	1292.617	1049.628
137.527	27.197	1291.115	1048.510
138.541	27.071	1289.880	1046.686
139.556	27.131	1288.995	1046.219
140.570	27.102	1288.394	1045.472
141.585	27.118	1286.755	1044.144
142.600	27.130	1285.653	1043.225
143.614	27.087	1285.679	1042.908
144.629	27.115	1284.510	1042.027
145.643	27.024	1283.335	1040.461
146.658	27.022	1282.293	1039.516
147.673	27.095	1281.083	1038.859
148.687	27.038	1280.059	1037.611
149.702	27.019	1279.168	1036.690
150.716	27.121	1277.986	1036.221
151.731	27.119	1276.921	1035.253
152.746	27.122	1275.938	1034.379
153.760	27.171	1274.998	1033.807
154.775	27.174	1274.110	1033.012
155.789	27.161	1273.356	1032.238
156.804	27.037	1272.677	1030.891
157.819	27.129	1271.663	1030.500
158.833	27.126	1270.830	1029.718
159.848	27.191	1270.192	1029.476
160.862	27.169	1269.591	1028.771
161.877	27.252	1268.253	1028.070
162.892	27.233	1267.466	1027.229
163.906	27.278	1266.987	1027.008
164.921	27.277	1266.031	1026.137
165.935	27.334	1265.500	1025.933
166.950	27.288	1264.929	1025.120
167.964	27.252	1264.205	1024.243
168.979	27.047	1264.488	1023.227
169.994	27.269	1263.271	1023.399
171.008	27.171	1262.123	1021.830
172.023	27.341	1261.471	1022.163
173.037	27.208	1261.528	1021.374
174.052	27.321	1260.328	1020.948
175.067	27.279	1259.491	1019.939
176.081	27.324	1258.716	1019.477
177.096	27.198	1257.722	1017.875
178.110	27.194	1256.947	1017.133
179.125	27.294	1256.141	1016.950
180.140	27.303	1254.738	1015.779
181.154	27.257	1253.998	1014.831
182.169	27.290	1252.475	1013.695
183.183	27.285	1251.464	1012.759
184.198	27.255	1250.380	1011.624
185.213	27.248	1249.523	1010.801
186.227	27.356	1248.604	1010.569
187.242	27.427	1247.935	1010.332
188.256	27.372	1246.962	1009.148
189.271	27.395	1246.130	1008.515
190.286	27.370	1245.242	1007.566
191.300	27.229	1245.331	1006.770
192.315	27.350	1244.602	1006.764
193.329	27.324	1244.210	1006.212
194.344	27.481	1243.664	1006.549
195.359	27.351	1243.241	1005.397
196.373	27.435	1242.668	1005.312
197.388	27.217	1242.757	1004.091
198.402	27.330	1241.933	1003.958
199.417	27.333	1241.595	1003.612
200.432	27.320	1241.070	1003.028
201.446	27.298	1240.467	1002.329
202.461	27.398	1239.514	1002.020
203.475	27.312	1238.797	1000.879
204.490	27.229	1238.024	999.714
205.504	27.354	1236.692	999.234
206.519	27.359	1236.047	998.651
207.534	27.399	1234.765	997.748
208.548	27.458	1233.936	997.311
209.563	27.433	1233.086	996.398
210.577	27.360	1232.453	995.402
211.592	27.391	1231.694	994.868
212.607	27.362	1231.302	994.306
213.621	27.440	1230.252	993.795
214.636	27.462	1229.607	993.307
215.650	27.481	1228.496	992.427
216.665	27.478	1227.347	991.394
217.680	27.408	1226.729	990.425
218.694	27.447	1226.046	990.001
219.709	27.422	1225.390	989.243
220.723	27.590	1224.570	989.405
221.738	27.481	1223.439	987.815
222.753	27.413	1223.015	987.016
223.767	27.452	1222.669	986.859
224.782	27.610	1221.877	986.991
225.796	27.448	1221.913	986.053
226.811	27.592	1221.048	986.047
227.826	27.520	1220.670	985.265
228.840	27.551	1220.000	984.807
229.855	27.599	1219.012	984.180
230.869	27.543	1218.213	983.147
231.884	27.498	1217.769	982.459
232.899	27.528	1217.087	981.985
233.913	27.683	1216.426	982.198
234.928	27.575	1216.003	981.190
235.942	27.740	1214.811	981.028
236.957	27.674	1214.560	980.380
237.972	27.644	1213.774	979.501
238.986	27.550	1213.151	978.407
240.001	27.655	1212.635	978.467
241.015	27.766	1211.539	978.093
242.030	27.745	1211.030	977.483
243.045	27.666	1210.206	976.308
244.059	27.609	1209.562	975.394
245.074	27.775	1208.789	975.572
246.088	27.846	1207.820	975.084
247.103	27.814	1207.077	974.230
248.117	27.705	1206.734	973.284
249.132	27.823	1205.873	973.129
250.147	27.814	1204.791	972.125
251.161	27.885	1204.072	971.835
252.176	27.852	1203.658	971.238
253.190	27.734	1203.172	970.135
254.205	27.778	1202.199	969.500
255.220	27.889	1201.846	969.717
256.234	27.880	1201.342	969.177
257.249	27.906	1200.664	968.680
258.263	27.855	1199.978	967.770
259.278	27.833	1199.287	967.012
260.293	27.858	1198.971	966.803
261.307	27.884	1198.426	966.417
262.322	27.939	1197.774	966.095
263.336	27.983	1196.780	965.443
264.351	27.873	1196.555	964.596
265.366	27.770	1196.204	963.682
266.380	27.802	1195.422	963.136
267.395	27.916	1194.494	962.902
268.409	27.843	1193.792	961.870
269.424	27.997	1193.298	962.197
270.439	27.910	1193.202	961.572
271.453	28.080	1191.928	961.357
272.468	27.880	1191.354	959.756
273.482	27.867	1190.716	959.090
274.497	27.913	1190.458	959.037
275.512	28.000	1189.610	958.729
276.526	27.865	1189.450	957.807
277.541	27.989	1188.627	957.709
278.555	27.994	1187.941	957.098
279.570	28.073	1186.847	956.545
280.585	28.031	1185.985	955.548
281.599	27.916	1185.598	954.549
282.614	28.094	1184.168	954.239
283.628	27.971	1183.973	953.356
284.643	27.987	1183.043	952.607
285.657	27.941	1182.274	951.664
286.672	27.998	1181.248	951.053
287.687	28.211	1180.207	951.235
288.701	28.105	1179.975	950.413
289.716	28.046	1179.103	949.323
290.730	28.125	1178.422	949.097
291.745	28.197	1177.733	948.833
292.760	28.102	1177.540	948.103
293.774	28.156	1176.801	947.705
294.789	28.160	1176.139	947.106
295.803	28.270	1175.325	946.938
296.818	28.127	1174.712	945.621
297.833	28.149	1174.435	945.426
298.847	28.258	1173.562	945.203
299.862	28.191	1172.766	944.132
300.876	28.189	1172.242	943.614
301.891	28.290	1171.495	943.451
302.906	28.296	1170.916	942.930
303.920	28.268	1170.290	942.203
304.935	28.231	1169.645	941.409
305.949	28.267	1169.151	941.113
306.964	28.230	1168.342	940.190
307.979	28.320	1167.802	940.135
308.993	28.318	1167.185	939.544
310.008	28.363	1166.241	938.932
311.022	28.387	1165.555	938.419
312.037	28.402	1164.948	937.921
313.052	28.393	1163.965	937.003
314.066	28.340	1163.030	935.895
315.081	28.297	1162.559	935.216
316.095	28.357	1162.005	934.995
317.110	28.291	1161.763	934.376
318.125	28.378	1160.572	933.779
319.139	28.390	1160.115	933.393
320.154	28.391	1159.328	932.679
321.168	28.376	1159.307	932.503
322.183	28.366	1158.254	931.525
323.197	28.426	1157.682	931.289
324.212	28.369	1157.086	930.434
325.227	28.501	1156.487	930.542
326.241	28.543	1156.191	930.433
327.256	28.392	1155.539	929.063
328.270	28.531	1154.600	928.928
329.285	28.555	1153.806	928.328
330.300	28.524	1152.863	927.330
331.314	28.562	1152.131	926.853
332.329	28.562	1151.293	926.096
333.343	28.606	1150.782	925.824
334.358	28.686	1149.833	925.384
335.373	28.496	1149.240	923.868
336.387	28.671	1148.680	924.215
337.402	28.655	1148.112	923.597
338.416	28.682	1147.225	922.939
339.431	28.714	1146.717	922.609
340.446	28.643	1146.131	921.699
341.460	28.625	1145.844	921.293
342.475	28.564	1145.238	920.422
343.489	28.619	1144.005	919.625
344.504	28.543	1143.134	918.461
345.519	28.681	1142.149	918.277
346.533	28.784	1141.400	918.109
347.548	28.736	1140.734	917.256
348.562	28.790	1139.912	916.783
349.577	28.663	1139.204	915.496
350.592	28.696	1138.780	915.243
351.606	28.740	1137.856	914.635
352.621	28.687	1137.821	914.260
353.635	28.679	1136.818	913.336
354.650	28.820	1136.261	913.508
355.665	28.853	1135.191	912.733
356.679	28.801	1134.982	912.222
357.694	28.655	1134.817	911.285
358.708	28.846	1133.424	911.032
359.723	28.825	1133.012	910.520
360.738	28.773	1132.358	909.654
361.752	28.740	1131.911	909.054
362.767	28.837	1131.392	909.037
363.781	28.823	1130.613	908.260
364.796	28.874	1130.126	908.040
365.810	28.958	1129.470	907.845
366.825	28.907	1128.790	906.969
367.840	29.074	1128.378	907.382
368.854	29.107	1127.776	906.979
369.869	29.048	1126.970	905.959
370.883	29.031	1126.087	905.087
371.898	29.128	1125.314	904.863
372.913	29.049	1125.208	904.307
373.927	29.011	1124.604	903.554
374.942	29.088	1124.035	903.395
375.956	29.119	1123.888	903.350
376.971	29.112	1122.887	902.430
377.986	29.086	1122.925	902.256
379.000	29.215	1121.896	901.977
380.015	29.046	1121.738	900.946
381.029	29.133	1120.614	900.387
382.044	29.063	1120.023	899.492
383.059	29.215	1119.583	899.801
384.073	29.222	1118.536	898.916
385.088	29.165	1118.060	898.173
386.102	29.144	1117.390	897.456
387.117	29.113	1116.205	896.274
388.132	29.090	1115.535	895.543
389.146	29.222	1114.916	895.610
390.161	29.217	1114.455	895.133
391.175	29.188	1113.511	894.158
392.190	29.267	1112.937	894.000
393.205	29.301	1112.219	893.509
394.219	29.236	1111.950	892.900
395.234	29.290	1110.794	892.152
396.248	29.359	1109.919	891.704
397.263	29.189	1109.040	890.098
398.278	29.391	1108.549	890.601
399.292	29.407	1108.195	890.314
400.307	29.372	1107.313	889.358
401.321	29.402	1106.689	888.923
402.336	29.337	1106.008	887.986
403.350	29.516	1105.102	888.037
404.365	29.311	1105.199	887.054
405.380	29.431	1104.350	886.870
406.394	29.446	1103.219	885.957
407.409	29.443	1102.405	885.209
408.423	29.483	1101.888	884.904
409.438	29.592	1101.058	884.686
410.453	29.571	1100.584	884.125
411.467	29.648	1099.649	883.664
412.482	29.512	1099.249	882.612
413.496	29.602	1098.587	882.434
414.511	29.543	1098.092	881.677
415.526	29.573	1097.916	881.603
416.540	29.570	1097.187	880.924
417.555	29.667	1096.438	880.707
418.569	29.543	1096.340	879.956
419.584	29.615	1095.917	879.883
420.599	29.639	1095.414	879.517
421.613	100.671	1320.129	1447.052
422.628	93.939	1352.875	1447.154
