DTS Sentinel unit serial number:	SN413079Multiplexer serial number:	ORYXHardware model number:	OX4-SRSoftware version number:	ORYX F/W v4.00 Oryx Data Collector v3.7.2.0data status	okinstallation	princeton_trtdifferential loss correction	single-endedforward channel	channel 2reverse channel	N/Adate	2019/09/13time	20:51:35forward acquisition time	60.00reverse acquisition time	0.00gamma	496.2192k internal	0.2334k external	0.2334temperature offset calibration	1.0126default loss term (dB/km)	0.3790temperature slope calibration	1.0000multiplexer offset coefficient	1.0000multiplexer slope coefficient	1.0000fibre end	0.00T internal ref (°C)	28.75T ext. ref 1 (°C)	3.11T ext. ref 2 (°C)	23.43length (m)	temperature (°C)	Stokes	anti-Stokes-747.200	-26.024	0.143	0.084
-746.185	-200.000	0.030	0.188
-745.171	-81.589	-0.129	-0.043
-744.156	120.085	-0.264	0.329
-743.142	-200.000	-0.029	-0.319
-742.127	-200.000	0.040	0.258
-741.112	36.977	0.109	0.097
-740.098	-200.000	-0.353	-0.001
-739.083	179.871	0.164	-0.242
-738.069	-54.810	-0.145	0.066
-737.054	109.421	0.130	0.156
-736.039	-4.393	-0.073	-0.051
-735.025	-157.053	0.462	0.028
-734.010	96.754	-0.048	-0.056
-732.996	-52.766	-0.335	0.155
-731.981	-113.522	-0.114	-0.022
-730.966	-130.719	-0.315	-0.043
-729.952	-118.257	-0.295	-0.053
-728.937	0.170	-0.330	0.236
-727.923	-90.760	0.098	0.028
-726.908	-175.892	-0.324	-0.009
-725.894	123.164	-0.102	0.128
-724.879	-68.806	-0.200	-0.078
-723.864	-200.000	-0.017	0.342
-722.850	238.682	0.056	0.093
-721.835	-34.643	-0.456	-0.251
-720.821	800.000	0.069	-0.232
-719.806	132.944	-0.066	-0.085
-718.791	800.000	-0.089	-0.286
-717.777	-184.972	-0.183	0.003
-716.762	125.949	-0.083	0.105
-715.748	120.322	0.157	0.195
-714.733	153.534	-0.086	0.118
-713.718	553.001	0.077	0.187
-712.704	109.179	-0.025	-0.030
-711.689	-56.181	0.118	-0.053
-710.675	-93.620	0.081	0.023
-709.660	39.992	0.145	0.131
-708.645	62.985	-0.068	-0.069
-707.631	395.802	0.128	-0.267
-706.616	-87.708	0.216	-0.066
-705.602	728.868	0.056	-0.150
-704.587	129.945	0.230	-0.295
-703.572	63.837	0.295	-0.298
-702.558	-173.520	0.253	-0.008
-701.543	-39.604	-0.196	0.103
-700.529	-113.425	-0.057	-0.011
-699.514	-154.322	0.287	-0.019
-698.499	128.149	0.147	-0.187
-697.485	-200.000	-0.031	-0.328
-696.470	-62.616	-0.110	-0.046
-695.456	354.692	-0.236	-0.470
-694.441	-13.107	-0.197	-0.128
-693.426	505.771	-0.086	0.201
-692.412	150.688	-0.084	-0.115
-691.397	-200.000	-0.071	0.489
-690.383	348.103	0.092	0.181
-689.368	-78.552	-0.071	-0.024
-688.354	-65.794	0.155	0.062
-687.339	211.067	0.144	0.227
-686.324	365.501	0.107	-0.216
-685.310	-6.028	-0.376	0.258
-684.295	127.451	-0.213	-0.271
-683.281	-92.732	-0.306	-0.086
-682.266	-92.326	-0.247	-0.070
-681.251	101.058	0.139	-0.162
-680.237	-54.490	0.114	0.052
-679.222	674.621	0.135	-0.350
-678.208	113.525	-0.187	-0.228
-677.193	-200.000	-0.004	-0.250
-676.178	800.000	-0.093	-0.294
-675.164	235.742	0.102	-0.170
-674.149	11.773	-0.291	-0.224
-673.135	50.122	-0.030	-0.028
-672.120	-136.332	-0.247	0.029
-671.105	209.560	-0.112	0.176
-670.091	68.872	-0.120	0.123
-669.076	-108.959	-0.084	-0.018
-668.062	-141.822	0.076	-0.008
-667.047	-164.484	-0.275	-0.013
-666.032	-200.000	0.047	-0.410
-665.018	127.885	-0.134	-0.171
-664.003	596.377	-0.196	-0.486
-662.989	13.470	-0.241	-0.187
-661.974	76.032	0.442	-0.469
-660.959	213.721	0.130	-0.205
-659.945	-50.558	-0.123	0.058
-658.930	-200.000	-0.022	-0.164
-657.916	-45.200	-0.158	0.078
-656.901	-200.000	-0.020	-0.334
-655.886	30.572	0.067	-0.057
-654.872	55.078	0.037	0.036
-653.857	-77.999	-0.347	0.120
-652.843	-91.989	-0.086	-0.024
-651.828	-37.705	0.080	-0.043
-650.814	43.214	0.239	0.219
-649.799	-200.000	-0.012	-0.210
-648.784	-77.930	-0.207	0.071
-647.770	-16.196	0.346	0.220
-646.755	-200.000	0.071	0.404
-645.741	-17.125	-0.257	0.163
-644.726	94.684	-0.065	0.074
-643.711	175.456	0.119	-0.172
-642.697	-13.087	-0.072	0.047
-641.682	376.516	-0.140	-0.286
-640.668	58.927	0.106	-0.104
-639.653	-62.481	0.131	0.054
-638.638	-200.000	0.032	-0.207
-637.624	197.138	0.058	-0.089
-636.609	800.000	0.107	0.312
-635.595	-200.000	0.036	-0.263
-634.580	-55.606	0.174	0.078
-633.565	-200.000	-0.007	-0.037
-632.551	-94.487	0.189	0.051
-631.536	-200.000	0.050	0.292
-630.522	-5.031	-0.116	0.080
-629.507	-200.000	-0.007	0.052
-628.492	-200.000	0.006	0.202
-627.478	800.000	-0.088	0.386
-626.463	204.534	-0.154	0.238
-625.449	-200.000	-0.064	-0.289
-624.434	-200.000	0.039	0.196
-623.419	800.000	-0.061	-0.193
-622.405	-98.714	-0.285	-0.073
-621.390	-173.346	0.163	-0.005
-620.376	-200.000	-0.004	0.050
-619.361	-103.685	-0.166	-0.039
-618.346	-103.763	0.313	-0.073
-617.332	-67.397	-0.218	0.086
-616.317	-39.603	-0.116	0.061
-615.303	-64.213	-0.331	-0.135
-614.288	-200.000	0.025	-0.300
-613.273	-10.592	-0.285	-0.189
-612.259	12.554	0.114	-0.088
-611.244	-37.942	0.091	0.048
-610.230	-115.031	-0.266	-0.051
-609.215	541.047	-0.052	0.125
-608.201	-200.000	0.022	-0.145
-607.186	-159.928	0.110	-0.006
-606.171	64.341	0.106	0.107
-605.157	800.000	-0.053	-0.170
-604.142	-138.038	-0.061	0.007
-603.128	259.871	-0.051	-0.088
-602.113	-200.000	-0.070	-0.411
-601.098	800.000	0.083	-0.352
-600.084	-104.540	-0.206	-0.048
-599.069	-150.951	0.205	-0.015
-598.055	-200.000	-0.021	0.155
-597.040	-55.822	-0.150	-0.067
-596.025	-132.145	0.038	0.005
-595.011	41.832	-0.176	0.160
-593.996	276.300	-0.121	0.215
-592.982	102.075	-0.154	0.179
-591.967	61.219	0.102	0.101
-590.952	56.058	-0.203	0.197
-589.938	-115.825	-0.295	-0.055
-588.923	532.602	-0.082	0.195
-587.909	-37.093	-0.242	0.130
-586.894	-118.574	0.333	0.059
-585.879	234.477	0.236	-0.388
-584.865	552.205	0.098	0.235
-583.850	-200.000	-0.027	0.133
-582.836	312.299	0.075	0.141
-581.821	-127.264	-0.148	-0.022
-580.806	-95.999	0.196	0.052
-579.792	-200.000	-0.029	0.219
-578.777	157.301	0.119	0.165
-577.763	231.412	0.155	0.254
-576.748	325.461	-0.140	-0.267
-575.733	213.055	-0.135	0.212
-574.719	42.780	-0.252	-0.230
-573.704	-79.975	0.356	-0.119
-572.690	81.614	-0.331	0.357
-571.675	-200.000	0.035	0.272
-570.661	670.303	0.068	0.176
-569.646	-70.503	-0.212	-0.080
-568.631	-128.645	-0.151	-0.021
-567.617	-9.483	0.055	0.037
-566.602	800.000	-0.041	-0.157
-565.588	-101.149	-0.325	0.079
-564.573	62.775	-0.044	0.044
-563.558	-114.281	0.292	-0.056
-562.544	800.000	0.110	-0.379
-561.529	194.041	0.152	-0.229
-560.515	-68.024	0.361	-0.141
-559.500	452.451	-0.060	0.133
-558.485	161.515	-0.155	0.216
-557.471	109.984	0.291	-0.349
-556.456	-67.128	-0.197	0.078
-555.442	193.503	0.024	0.036
-554.427	58.613	-0.360	0.353
-553.412	-175.854	0.298	-0.008
-552.398	150.502	0.137	-0.186
-551.383	183.191	-0.209	0.308
-550.369	-200.000	0.006	0.113
-549.354	244.858	-0.183	-0.306
-548.339	-22.701	-0.065	0.039
-547.325	189.401	-0.056	0.083
-546.310	-18.181	0.422	0.263
-545.296	-114.765	0.276	-0.052
-544.281	237.746	0.105	-0.174
-543.266	218.830	-0.147	-0.234
-542.252	-6.980	-0.130	-0.088
-541.237	74.498	-0.062	-0.065
-540.223	105.833	-0.052	-0.062
-539.208	-67.659	0.257	-0.100
-538.193	134.652	0.093	-0.121
-537.179	200.103	0.156	-0.238
-536.164	-200.000	-0.017	-0.194
-535.150	-103.681	-0.032	0.008
-534.135	-200.000	-0.004	0.046
-533.121	29.454	-0.070	0.059
-532.106	-16.923	0.233	0.147
-531.091	-131.318	0.094	0.012
-530.077	-68.181	-0.334	-0.130
-529.062	66.055	-0.107	-0.108
-528.048	1.733	-0.155	0.111
-527.033	-200.000	0.049	-0.251
-526.018	214.301	0.051	-0.080
-525.004	-80.086	-0.323	-0.108
-523.989	-111.780	0.112	0.023
-522.975	-34.221	-0.253	0.138
-521.960	425.553	0.137	0.294
-520.945	-144.240	-0.196	0.018
-519.931	47.956	-0.083	0.077
-518.916	108.512	-0.323	0.384
-517.902	-200.000	0.026	0.369
-516.887	-4.906	-0.118	0.081
-515.872	-200.000	0.046	-0.212
-514.858	59.180	0.108	0.106
-513.843	-200.000	0.087	0.000
-512.829	162.447	0.082	-0.115
-511.814	727.123	0.111	-0.294
-510.799	169.502	0.305	-0.434
-509.785	-114.925	0.342	0.065
-508.770	-53.983	-0.372	-0.169
-507.756	-72.996	-0.172	0.063
-506.741	800.000	0.065	-0.219
-505.726	684.163	-0.093	0.241
-504.712	-200.000	0.028	0.199
-503.697	800.000	0.090	-0.303
-502.683	-200.000	-0.011	-0.103
-501.668	63.871	0.117	-0.117
-500.653	360.687	-0.124	0.247
-499.639	800.000	-0.018	-0.075
-498.624	800.000	0.054	0.206
-497.610	-67.941	-0.123	0.048
-496.595	127.257	-0.164	0.207
-495.581	150.548	0.190	-0.256
-494.566	-90.079	-0.209	-0.061
-493.551	-200.000	0.013	-0.131
-492.537	-170.925	-0.339	0.012
-491.522	-41.431	0.232	0.119
-490.508	177.579	-0.156	0.226
-489.493	-38.881	-0.273	-0.143
-488.478	13.315	-0.216	-0.167
-487.464	-107.615	0.044	-0.010
-486.449	278.857	0.241	0.427
-485.435	800.000	-0.097	0.287
-484.420	-44.079	0.358	-0.179
-483.405	209.035	-0.012	-0.019
-482.391	-73.616	-0.199	0.072
-481.376	-200.000	0.023	-0.359
-480.362	-70.883	0.288	0.108
-479.347	88.289	-0.041	0.045
-478.332	-200.000	-0.001	0.028
-477.318	761.229	0.067	0.181
-476.303	380.398	0.155	0.315
-475.289	-84.167	0.216	0.068
-474.274	138.653	-0.055	0.072
-473.259	-22.064	-0.197	0.119
-472.245	56.187	-0.320	-0.309
-471.230	-50.706	-0.102	0.048
-470.216	76.260	-0.250	0.263
-469.201	170.220	0.252	-0.359
-468.186	-89.320	0.270	0.079
-467.172	-20.277	-0.400	0.245
-466.157	-200.000	0.069	0.344
-465.143	111.754	-0.144	0.172
-464.128	-17.534	-0.296	0.185
-463.113	46.618	-0.161	0.148
-462.099	43.202	0.247	-0.225
-461.084	81.173	-0.161	0.172
-460.070	208.862	0.216	-0.336
-459.055	255.072	-0.108	0.183
-458.040	46.726	0.350	-0.323
-457.026	-125.038	0.377	0.058
-456.011	800.000	0.104	-0.294
-454.997	-95.036	-0.059	-0.016
-453.982	26.455	-0.085	-0.071
-452.968	-90.461	-0.175	0.050
-451.953	-62.567	0.181	0.074
-450.938	-177.916	-0.148	0.004
-449.924	-109.983	-0.384	0.080
-448.909	-77.610	0.238	0.082
-447.895	144.795	-0.088	0.117
-446.880	-83.485	0.318	0.101
-445.865	280.577	0.161	0.287
-444.851	-179.182	0.230	-0.005
-443.836	800.000	-0.041	-0.172
-442.822	-36.576	-0.076	0.041
-441.807	-200.000	-0.011	0.361
-440.792	-120.734	0.152	0.025
-439.778	82.607	-0.151	0.163
-438.763	223.535	-0.123	-0.197
-437.749	-97.747	0.269	-0.069
-436.734	800.000	0.065	-0.207
-435.719	128.646	0.253	-0.321
-434.705	-200.000	-0.007	-0.277
-433.690	95.609	0.110	-0.125
-432.676	-71.071	-0.475	-0.177
-431.661	-124.310	-0.150	0.023
-430.646	102.645	-0.115	-0.134
-429.632	-64.209	0.178	-0.072
-428.617	-44.808	-0.248	-0.123
-427.603	-52.920	-0.134	-0.061
-426.588	562.979	-0.058	-0.139
-425.573	-138.728	-0.436	-0.047
-424.559	800.000	0.077	0.272
-423.544	-90.715	-0.148	-0.042
-422.530	47.423	0.016	0.015
-421.515	52.248	0.208	0.197
-420.500	-200.000	0.007	-0.247
-419.486	-48.213	-0.206	-0.099
-418.471	-200.000	-0.012	-0.064
-417.457	27.334	0.154	-0.128
-416.442	-88.362	-0.401	0.119
-415.428	-121.440	0.158	-0.026
-414.413	-200.000	0.021	0.336
-413.398	42.058	-0.191	0.172
-412.384	-125.924	0.157	-0.024
-411.369	656.437	-0.046	-0.117
-410.355	-200.000	-0.022	-0.099
-409.340	134.363	-0.119	0.154
-408.325	102.201	-0.112	-0.129
-407.311	-63.089	-0.112	-0.046
-406.296	-40.675	-0.176	-0.091
-405.282	-76.790	0.177	-0.062
-404.267	62.001	0.164	-0.162
-403.252	800.000	-0.116	0.374
-402.238	-127.671	0.316	-0.045
-401.223	45.337	0.166	-0.152
-400.209	40.410	-0.063	0.056
-399.194	-21.716	0.206	-0.125
-398.179	-200.000	0.010	-0.170
-397.165	-82.769	0.425	-0.136
-396.150	83.250	0.111	0.120
-395.136	340.946	-0.087	-0.168
-394.121	800.000	0.039	0.160
-393.106	-200.000	0.003	-0.287
-392.092	691.889	0.133	-0.345
-391.077	-200.000	-0.006	0.211
-390.063	-39.982	-0.372	-0.192
-389.048	-144.967	-0.452	0.041
-388.033	-200.000	0.047	0.397
-387.019	264.932	0.170	0.293
-386.004	-200.000	0.022	-0.127
-384.990	272.394	0.042	0.074
-383.975	-136.308	0.272	-0.031
-382.960	-200.000	-0.014	-0.094
-381.946	123.271	-0.060	-0.074
-380.931	98.517	0.129	0.148
-379.917	-200.000	-0.049	-0.247
-378.902	12.214	-0.145	0.111
-377.888	-42.772	-0.193	-0.097
-376.873	246.604	0.095	0.159
-375.858	-200.000	-0.038	0.184
-374.844	737.814	-0.063	-0.167
-373.829	2.839	-0.204	-0.147
-372.815	-28.085	0.385	-0.220
-371.800	-200.000	-0.039	-0.289
-370.785	83.637	0.257	-0.278
-369.771	48.816	-0.047	0.044
-368.756	-59.397	-0.179	-0.076
-367.742	800.000	-0.036	-0.144
-366.727	-100.412	-0.346	0.085
-365.712	14.036	0.028	-0.022
-364.698	58.091	-0.177	0.172
-363.683	-73.780	-0.179	0.064
-362.669	-200.000	-0.007	-0.064
-361.654	-131.974	-0.100	0.013
-360.639	79.846	-0.203	0.216
-359.625	-25.612	-0.180	-0.105
-358.610	-139.329	0.404	0.043
-357.596	-200.000	0.019	-0.187
-356.581	-109.997	-0.122	0.025
-355.566	-13.376	0.155	0.100
-354.552	88.702	-0.043	0.047
-353.537	128.554	0.135	-0.170
-352.523	-91.832	0.028	-0.008
-351.508	-200.000	-0.028	0.244
-350.493	-60.271	0.069	-0.029
-349.479	-26.580	0.101	0.059
-348.464	-19.933	-0.284	-0.174
-347.450	20.758	0.014	0.011
-346.435	246.076	0.068	-0.114
-345.420	230.752	0.222	0.360
-344.406	-102.173	0.182	-0.043
-343.391	-1.861	0.255	-0.177
-342.377	800.000	-0.039	-0.111
-341.362	-110.135	-0.109	0.023
-340.348	-8.295	-0.053	0.035
-339.333	18.022	-0.068	0.054
-338.318	-200.000	-0.066	-0.389
-337.304	34.761	-0.166	0.143
-336.289	41.235	-0.057	-0.051
-335.275	593.503	0.090	0.220
-334.260	-50.160	-0.228	-0.107
-333.245	779.959	-0.133	0.360
-332.231	-104.567	0.121	-0.028
-331.216	96.984	-0.106	-0.120
-330.202	-42.930	0.126	0.063
-329.187	37.084	0.210	0.184
-328.172	-2.263	-0.264	-0.183
-327.158	357.888	-0.133	0.262
-326.143	-200.000	0.027	-0.183
-325.129	76.457	0.175	-0.184
-324.114	-95.641	-0.174	-0.046
-323.099	-138.506	0.090	0.010
-322.085	-62.515	0.178	0.073
-321.070	-55.543	-0.309	0.137
-320.056	479.744	0.041	-0.093
-319.041	-13.568	-0.129	0.082
-318.026	610.672	-0.182	-0.451
-317.012	203.196	-0.047	0.072
-315.997	555.293	0.078	-0.186
-314.983	-51.995	0.195	-0.090
-313.968	-200.000	-0.012	0.338
-312.953	-200.000	0.013	0.361
-311.939	471.875	0.032	-0.072
-310.924	58.998	-0.135	0.131
-309.910	-200.000	-0.007	0.097
-308.895	263.697	-0.102	0.176
-307.880	-200.000	0.025	-0.399
-306.866	-200.000	0.007	-0.147
-305.851	-97.221	-0.206	0.053
-304.837	-0.664	-0.090	-0.063
-303.822	-175.320	0.260	-0.007
-302.807	-200.000	-0.033	-0.355
-301.793	800.000	-0.041	-0.172
-300.778	-17.280	-0.268	0.167
-299.764	800.000	-0.034	0.136
-298.749	109.165	-0.057	-0.068
-297.735	-24.055	-0.154	0.091
-296.720	-31.423	-0.260	-0.145
-295.705	-200.000	0.012	-0.057
-294.691	47.637	0.053	0.049
-293.676	776.003	-0.005	0.014
-292.662	-200.000	-0.009	0.123
-291.647	85.162	-0.163	-0.176
-290.632	-6.226	-0.136	0.092
-289.618	-145.869	0.091	0.008
-288.603	-54.144	-0.360	-0.162
-287.589	-197.642	0.185	0.001
-286.574	207.717	-0.077	0.119
-285.559	5.767	-0.058	-0.043
-284.545	-18.899	0.079	-0.049
-283.530	-72.074	-0.595	0.218
-282.516	-200.000	0.008	0.187
-281.501	236.561	-0.245	-0.401
-280.486	-200.000	-0.008	-0.140
-279.472	113.747	0.143	0.171
-278.457	-122.007	0.198	-0.032
-277.443	-200.000	0.064	-0.316
-276.428	-119.645	0.197	-0.034
-275.413	-59.128	-0.146	-0.062
-274.399	155.613	-0.168	0.228
-273.384	-29.349	0.236	0.134
-272.370	-98.030	0.322	0.082
-271.355	260.130	-0.094	-0.161
-270.340	-77.378	-0.161	0.055
-269.326	-9.923	-0.285	0.187
-268.311	-118.126	-0.082	-0.014
-267.297	-27.186	0.445	0.256
-266.282	-16.789	0.250	-0.156
-265.267	249.156	0.085	0.143
-264.253	-200.000	0.036	-0.203
-263.238	541.811	0.019	-0.044
-262.224	159.059	-0.160	-0.219
-261.209	-200.000	0.013	0.060
-260.195	42.747	-0.264	-0.237
-259.180	9.130	0.276	-0.206
-258.165	467.411	-0.085	-0.188
-257.151	-88.687	0.288	-0.085
-256.136	227.776	-0.140	0.224
-255.122	-12.856	-0.329	-0.211
-254.107	49.835	0.233	-0.217
-253.092	253.865	-0.100	0.169
-252.078	-200.000	-0.016	0.311
-251.063	-56.191	0.125	0.055
-250.049	38.304	0.434	0.381
-249.034	-200.000	-0.060	-0.280
-248.019	-54.475	-0.047	0.021
-247.005	-9.600	0.265	0.174
-245.990	-11.741	0.338	-0.219
-244.976	29.885	-0.196	0.165
-243.961	-48.489	0.190	0.090
-242.946	-142.970	-0.029	0.003
-241.932	778.303	-0.044	-0.119
-240.917	-200.000	-0.001	0.171
-239.903	800.000	0.022	0.090
-238.888	-200.000	0.033	-0.463
-237.873	800.000	-0.033	-0.110
-236.859	-117.381	-0.179	0.032
-235.844	-103.837	-0.149	-0.034
-234.830	726.445	0.114	0.300
-233.815	-200.000	0.012	0.143
-232.800	111.045	-0.058	-0.069
-231.786	-36.486	0.294	-0.156
-230.771	800.000	0.113	0.332
-229.757	556.326	0.105	0.248
-228.742	20.185	-0.302	-0.240
-227.727	-56.096	-0.046	0.020
-226.713	-200.000	-0.045	-0.322
-225.698	800.000	0.048	0.187
-224.684	-138.466	0.329	-0.036
-223.669	84.610	0.060	-0.065
-222.655	25.903	0.194	-0.160
-221.640	493.986	0.145	-0.328
-220.625	-109.939	0.045	-0.009
-219.611	473.751	-0.041	0.090
-218.596	-74.880	0.136	-0.048
-217.582	-11.459	-0.163	0.106
-216.567	114.510	-0.230	-0.276
-215.552	76.446	0.297	0.310
-214.538	93.249	0.192	0.214
-213.523	-200.000	-0.005	-0.353
-212.509	-135.465	0.319	-0.037
-211.494	-157.600	0.162	-0.010
-210.479	800.000	-0.079	-0.294
-209.465	-200.000	-0.019	-0.219
-208.450	-88.969	0.376	-0.110
-207.436	-36.839	0.108	-0.057
-206.421	-200.000	-0.047	0.262
-205.406	-89.282	0.429	0.124
-204.392	-200.000	-0.026	0.180
-203.377	-150.381	-0.201	0.015
-202.363	208.131	0.075	0.115
-201.348	-44.825	0.160	-0.078
-200.333	435.026	0.177	-0.379
-199.319	-79.970	0.163	-0.054
-198.304	-200.000	0.008	-0.244
-197.290	-200.000	-0.044	0.271
-196.275	182.082	-0.193	0.279
-195.260	571.909	-0.133	-0.318
-194.246	94.347	0.125	-0.140
-193.231	-13.399	-0.275	-0.175
-192.217	36.488	-0.133	-0.115
-191.202	-200.000	-0.045	-0.341
-190.187	-162.458	0.490	0.024
-189.173	7.090	0.284	-0.208
-188.158	79.643	-0.107	0.113
-187.144	-114.754	0.296	-0.056
-186.129	12.444	0.033	0.025
-185.114	-28.207	-0.158	-0.090
-184.100	438.712	-0.159	0.341
-183.085	-102.855	-0.249	0.058
-182.071	86.526	0.063	-0.068
-181.056	136.905	-0.144	-0.185
-180.042	-200.000	0.085	0.410
-179.027	800.000	0.059	0.216
-178.012	-45.394	-0.152	-0.074
-176.998	-16.737	-0.185	0.115
-175.983	99.908	0.314	0.358
-174.969	-200.000	0.008	0.319
-173.954	340.454	-0.166	0.318
-172.939	800.000	0.040	-0.167
-171.925	416.815	0.081	-0.169
-170.910	144.531	0.054	0.071
-169.896	800.000	0.121	0.354
-168.881	20.747	0.277	0.221
-167.866	128.935	-0.128	0.160
-166.852	89.899	0.091	-0.099
-165.837	710.509	-0.049	0.129
-164.823	-118.139	0.090	-0.016
-163.808	67.518	0.269	-0.270
-162.793	-200.000	0.081	0.368
-161.779	393.894	-0.064	0.132
-160.764	-142.674	0.351	0.034
-159.750	-194.960	-0.090	0.001
-158.735	405.554	0.092	-0.191
-157.720	580.890	0.080	0.191
-156.706	200.673	0.074	-0.111
-155.691	-108.819	-0.070	-0.015
-154.677	80.522	0.191	0.202
-153.662	-200.000	-0.005	-0.225
-152.647	-200.000	0.039	0.170
-151.633	106.214	0.181	0.210
-150.618	800.000	0.053	-0.172
-149.604	800.000	0.034	0.132
-148.589	-122.860	0.053	-0.008
-147.574	83.926	0.084	-0.090
-146.560	-26.480	0.125	0.072
-145.545	121.887	-0.175	-0.214
-144.531	-200.000	0.032	-0.148
-143.516	96.435	0.077	0.086
-142.502	43.545	0.185	0.166
-141.487	230.006	-0.169	-0.272
-140.472	-69.288	-0.173	0.065
-139.458	-200.000	-0.018	-0.179
-138.443	29.020	0.184	0.153
-137.429	-200.000	0.007	-0.031
-136.414	-128.003	0.162	-0.023
-135.399	407.963	-0.012	0.024
-134.385	-200.000	-0.037	0.191
-133.370	124.431	0.049	-0.060
-132.356	99.693	-0.243	0.276
-131.341	-8.661	0.127	0.084
-130.326	229.805	0.118	-0.190
-129.312	-5.493	-0.265	-0.178
-128.297	-71.049	-0.445	0.164
-127.283	-200.000	0.015	0.187
-126.268	34.270	0.383	0.328
-125.253	-148.943	0.068	-0.005
-124.239	-11.576	0.212	0.137
-123.224	-139.486	-0.333	-0.035
-122.210	20.543	-0.191	0.151
-121.195	-74.199	0.354	0.126
-120.180	-200.000	0.040	0.221
-119.166	-200.000	0.012	0.122
-118.151	-82.545	-0.136	-0.043
-117.137	-160.642	0.260	-0.014
-116.122	24.574	0.043	0.035
-115.107	490.765	0.081	0.182
-114.093	393.633	0.161	0.329
-113.078	-106.619	-0.271	-0.059
-112.064	254.210	-0.189	0.317
-111.049	-69.514	-0.210	0.079
-110.034	-120.083	0.231	0.039
-109.020	-54.445	-0.261	-0.116
-108.005	-84.304	-0.280	-0.087
-106.991	-200.000	0.017	-0.172
-105.976	-120.588	-0.243	0.040
-104.962	113.540	-0.088	-0.105
-103.947	22.570	0.239	0.191
-102.932	-121.349	0.175	-0.029
-101.918	182.917	-0.397	-0.574
-100.903	-26.675	-0.311	-0.178
-99.889	-200.000	0.020	0.354
-98.874	-84.142	-0.291	0.091
-97.859	-71.912	0.180	0.066
-96.845	-200.000	-0.042	-0.350
-95.830	191.282	-0.036	0.053
-94.816	87.562	-0.018	-0.019
-93.801	37.681	0.157	0.136
-92.786	-155.165	0.143	0.009
-91.772	-200.000	0.006	-0.064
-90.757	-200.000	0.008	0.065
-89.743	-45.594	0.102	0.049
-88.728	-84.027	0.216	0.067
-87.713	-34.037	-0.115	0.062
-86.699	-68.433	-0.207	-0.079
-85.684	800.000	-0.020	0.070
-84.670	3.620	0.274	0.195
-83.655	1.270	-0.053	-0.038
-82.640	-200.000	-0.041	0.315
-81.626	92.083	0.119	-0.131
-80.611	327.590	-0.086	0.161
-79.597	38.656	0.121	0.106
-78.582	105.292	-0.122	0.141
-77.567	-200.000	-0.032	0.163
-76.553	-12.171	-0.214	0.137
-75.538	319.461	-0.017	-0.031
-74.524	-1.623	0.335	0.231
-73.509	181.379	-0.075	0.109
-72.494	188.052	0.121	0.177
-71.480	-168.496	0.327	-0.012
-70.465	177.721	0.171	0.244
-69.451	303.593	0.039	-0.072
-68.436	-200.000	-0.012	-0.135
-67.422	-200.000	-0.022	0.495
-66.407	800.000	0.061	0.183
-65.392	-200.000	0.016	0.178
-64.378	-200.000	-0.053	0.254
-63.363	478.930	-0.045	0.101
-62.349	49.024	-0.156	0.143
-61.334	135.896	-0.765	-0.975
-60.319	430.548	0.321	0.679
-59.305	800.000	-0.206	-0.827
-58.290	504.860	0.473	1.072
-57.276	598.864	0.540	1.309
-56.261	-200.000	112.191	651.265
-55.246	540.645	1515.929	3531.797
-54.232	176.672	2701.322	3842.392
-53.217	106.948	2283.740	2653.212
-52.203	38.296	1890.626	1647.155
-51.188	32.097	1679.545	1416.614
-50.173	29.331	1637.380	1360.618
-49.159	49.912	1693.147	1561.898
-48.144	49.976	1707.575	1575.624
-47.130	31.546	1664.574	1399.641
-46.115	28.759	1650.494	1367.046
-45.100	28.691	1644.638	1361.635
-44.086	28.673	1642.466	1359.653
-43.071	28.549	1640.205	1356.808
-42.057	28.495	1637.737	1354.313
-41.042	28.620	1635.721	1353.513
-40.027	28.559	1634.089	1351.661
-39.013	28.632	1631.588	1350.076
-37.998	28.523	1630.426	1348.261
-36.984	28.590	1629.077	1347.578
-35.969	28.739	1627.638	1347.429
-34.954	28.747	1625.607	1345.753
-33.940	28.767	1623.846	1344.386
-32.925	28.772	1622.256	1343.052
-31.911	28.703	1621.202	1341.626
-30.896	28.658	1619.468	1339.810
-29.881	28.682	1617.515	1338.312
-28.867	28.737	1615.527	1337.015
-27.852	28.741	1614.514	1336.158
-26.838	28.803	1612.799	1335.133
-25.823	28.784	1611.352	1333.742
-24.809	28.778	1610.398	1332.860
-23.794	28.828	1609.009	1332.020
-22.779	28.763	1607.573	1330.307
-21.765	28.747	1605.960	1328.806
-20.750	28.745	1604.195	1327.275
-19.736	28.875	1603.047	1327.213
-18.721	28.816	1601.846	1325.740
-17.706	28.803	1600.792	1324.719
-16.692	28.847	1598.625	1323.190
-15.677	28.791	1597.539	1321.834
-14.663	28.855	1596.157	1321.103
-13.648	28.871	1594.543	1319.826
-12.633	28.764	1593.787	1318.383
-11.619	28.685	1592.030	1316.312
-10.604	28.805	1590.031	1315.463
-9.590	28.765	1588.976	1314.253
-8.575	28.824	1587.842	1313.687
-7.560	28.779	1586.859	1312.497
-6.546	28.791	1585.684	1311.561
-5.531	28.742	1584.922	1310.526
-4.517	28.816	1583.073	1309.471
-3.502	28.791	1582.179	1308.505
-2.487	28.895	1580.747	1308.009
-1.473	28.473	1569.360	1295.550
-0.458	25.417	1549.230	1257.531
0.556	22.667	1550.101	1225.306
1.571	20.098	1573.290	1225.387
2.586	19.687	1585.260	1231.671
3.600	17.137	1530.955	1171.804
4.615	9.971	1424.384	1043.974
5.629	4.071	1364.288	963.233
6.644	3.199	1356.914	952.544
7.659	3.071	1356.143	951.128
8.673	3.042	1355.617	950.495
9.688	3.128	1353.501	949.456
10.702	3.111	1350.249	946.989
11.717	5.802	1355.344	967.090
12.731	13.363	1368.871	1023.594
13.746	19.454	1379.334	1069.192
14.761	20.570	1379.931	1076.469
15.775	19.904	1377.526	1070.381
16.790	18.869	1375.484	1062.307
17.804	18.118	1372.775	1055.484
18.819	17.723	1371.925	1052.303
19.834	17.627	1370.405	1050.451
20.848	17.487	1369.905	1049.111
21.863	17.310	1368.400	1046.779
22.877	17.111	1367.541	1044.805
23.892	17.118	1366.364	1043.855
24.907	17.085	1365.961	1043.249
25.921	17.186	1364.571	1042.716
26.936	17.211	1363.456	1041.924
27.950	17.235	1362.769	1041.456
28.965	17.296	1361.804	1040.999
29.980	17.478	1360.368	1040.925
30.994	17.531	1359.334	1040.365
32.009	17.532	1358.292	1039.481
33.023	17.460	1357.503	1038.349
34.038	17.374	1355.794	1036.423
35.053	17.198	1354.976	1034.635
36.067	17.324	1353.969	1034.540
37.082	17.281	1352.796	1033.291
38.096	17.346	1351.916	1032.925
39.111	17.400	1351.151	1032.577
40.126	17.344	1350.089	1031.330
41.140	17.022	1349.264	1028.660
42.155	16.893	1348.886	1027.498
43.169	16.913	1348.848	1027.496
44.184	16.857	1348.201	1026.575
45.199	16.841	1347.854	1026.126
46.213	17.036	1347.230	1026.736
47.228	17.113	1346.805	1026.791
48.242	17.310	1345.176	1026.648
49.257	17.248	1343.563	1024.953
50.271	17.261	1341.882	1023.656
51.286	17.259	1340.912	1022.810
52.301	17.220	1339.756	1021.606
53.315	17.080	1338.381	1019.625
54.330	17.055	1337.242	1018.520
55.344	16.994	1336.095	1017.191
56.359	17.065	1334.919	1016.627
57.374	16.941	1333.951	1015.058
58.388	16.906	1333.798	1014.641
59.403	16.794	1333.371	1013.557
60.417	16.874	1332.263	1013.109
61.432	16.813	1331.378	1011.979
62.447	16.813	1330.076	1010.900
63.461	16.671	1329.105	1009.226
64.476	16.680	1327.982	1008.337
65.490	16.717	1326.933	1007.671
66.505	16.694	1325.467	1006.334
67.520	16.735	1324.106	1005.454
68.534	16.843	1322.815	1005.027
69.549	16.800	1322.215	1004.226
70.563	16.661	1320.893	1002.311
71.578	16.607	1320.160	1001.343
72.593	16.526	1319.183	1000.035
73.607	16.562	1318.588	999.707
74.622	16.502	1317.741	998.622
75.636	16.624	1316.741	998.497
76.651	16.663	1316.196	998.226
77.666	16.681	1315.669	997.844
78.680	16.751	1315.524	998.058
79.695	16.756	1314.792	997.446
80.709	16.769	1314.173	996.965
81.724	16.880	1313.094	996.711
82.739	17.062	1312.228	997.035
83.753	17.198	1311.418	997.127
84.768	17.315	1310.793	997.252
85.782	17.370	1309.668	996.626
86.797	17.343	1308.962	995.843
87.812	17.289	1307.065	993.999
88.826	17.199	1305.756	992.392
89.841	17.226	1305.396	992.184
90.855	17.351	1304.224	991.935
91.870	17.426	1303.230	991.529
92.884	17.442	1302.446	990.940
93.899	17.461	1301.683	990.379
94.914	17.460	1301.160	989.887
95.928	17.543	1300.125	989.496
96.943	17.383	1299.521	988.020
97.957	17.292	1298.567	986.680
98.972	17.401	1296.816	985.890
99.987	17.309	1296.513	985.042
101.001	17.368	1295.196	984.298
102.016	17.291	1294.350	983.123
103.030	17.380	1293.535	982.931
104.045	17.311	1293.001	982.036
105.060	17.311	1290.862	980.328
106.074	17.083	1289.698	978.039
107.089	16.810	1288.784	975.688
108.103	16.765	1287.169	974.120
109.118	16.716	1286.088	972.938
110.133	16.773	1284.797	972.201
111.147	16.827	1283.360	971.338
112.162	16.849	1281.956	970.314
113.176	16.925	1280.954	969.903
114.191	16.866	1280.233	968.935
115.206	16.892	1278.909	967.995
116.220	16.810	1277.509	966.381
117.235	16.923	1276.292	966.022
118.249	16.926	1275.590	965.420
119.264	16.806	1274.191	963.597
120.279	16.770	1273.445	962.742
121.293	16.676	1272.146	961.140
122.308	16.672	1271.077	960.227
123.322	16.762	1269.787	959.673
124.337	16.579	1269.038	957.989
125.352	16.619	1267.840	957.226
126.366	16.606	1266.473	956.037
127.381	16.673	1265.229	955.392
128.395	16.713	1264.463	954.955
129.410	16.734	1263.210	954.043
130.424	16.741	1263.305	954.067
131.439	16.769	1262.603	953.608
132.454	16.931	1260.955	953.192
133.468	17.024	1260.428	953.229
134.483	16.985	1259.680	952.362
135.497	16.923	1258.667	951.163
136.512	16.973	1257.250	950.291
137.527	16.947	1256.137	949.218
138.541	17.001	1254.364	948.096
139.556	17.058	1253.751	947.868
140.570	17.168	1252.894	947.748
141.585	17.171	1251.765	946.829
142.600	17.277	1250.246	946.184
143.614	17.330	1249.523	945.852
144.629	17.367	1248.614	945.282
145.643	17.380	1247.410	944.362
146.658	17.152	1245.935	941.897
147.673	17.086	1244.664	940.484
148.687	16.996	1243.747	939.210
149.702	16.994	1241.937	937.752
150.716	16.876	1240.932	936.256
151.731	17.022	1239.632	936.001
152.746	17.066	1238.291	935.144
153.760	17.073	1236.883	934.041
154.775	17.151	1236.574	934.155
155.789	17.152	1235.471	933.242
156.804	17.250	1234.135	932.691
157.819	17.163	1233.793	931.873
158.833	17.422	1232.220	932.017
159.848	17.508	1231.585	931.924
160.862	17.401	1230.635	930.538
161.877	17.245	1229.081	928.431
162.892	17.078	1227.859	926.512
163.906	16.930	1227.651	925.468
164.921	16.940	1226.760	924.771
165.935	17.110	1225.584	924.727
166.950	17.232	1224.988	924.858
167.964	17.133	1224.488	923.858
168.979	17.053	1223.683	922.738
169.994	17.214	1222.520	922.651
171.008	17.262	1222.284	922.650
172.023	17.225	1221.440	921.733
173.037	17.407	1220.454	921.894
174.052	17.305	1219.562	920.587
175.067	17.215	1218.697	919.364
176.081	17.137	1216.941	917.536
177.096	17.141	1216.034	916.796
178.110	17.271	1215.024	916.655
179.125	17.210	1214.299	915.694
180.140	17.234	1213.102	914.841
181.154	17.312	1211.823	914.217
182.169	17.314	1211.151	913.636
183.183	17.415	1209.868	913.133
184.198	17.626	1208.150	912.885
185.213	17.515	1207.370	911.618
186.227	17.448	1206.738	910.704
187.242	17.537	1205.692	910.309
188.256	17.601	1204.602	909.751
189.271	17.713	1203.186	909.194
190.286	17.495	1201.998	907.056
191.300	17.185	1201.551	904.988
192.315	17.047	1200.393	903.302
193.329	17.071	1200.180	903.190
194.344	17.151	1199.647	903.134
195.359	17.328	1199.165	903.632
196.373	17.292	1198.937	903.185
197.388	17.408	1198.172	903.147
198.402	17.528	1197.695	903.345
199.417	17.709	1197.343	903.956
200.432	17.808	1196.777	903.973
201.446	17.910	1195.633	903.570
202.461	18.029	1194.543	903.295
203.475	18.037	1193.479	902.455
204.490	17.782	1192.042	899.943
205.504	17.747	1190.683	898.655
206.519	17.706	1189.998	897.842
207.534	17.585	1188.976	896.355
208.548	17.577	1187.818	895.357
209.563	17.633	1187.008	894.961
210.577	17.637	1185.763	893.964
211.592	17.653	1185.761	893.969
212.607	17.851	1184.593	894.046
213.621	17.916	1183.430	893.432
214.636	17.758	1182.686	891.964
215.650	17.792	1181.714	891.329
216.665	17.947	1180.878	891.431
217.680	17.991	1180.615	891.379
218.694	18.008	1179.761	890.749
219.709	18.061	1178.659	890.110
220.723	18.010	1177.976	889.250
221.738	17.955	1177.470	888.505
222.753	17.934	1176.317	887.449
223.767	17.888	1176.308	887.123
224.782	18.087	1175.298	887.317
225.796	18.211	1174.745	887.465
226.811	18.157	1174.045	886.574
227.826	18.001	1173.315	885.137
228.840	18.004	1172.261	884.278
229.855	18.011	1171.845	883.924
230.869	18.081	1170.704	883.346
231.884	18.003	1169.957	882.301
232.899	17.830	1169.002	880.611
233.913	17.675	1168.684	879.496
234.928	17.765	1167.371	878.893
235.942	17.781	1166.800	878.469
236.957	17.770	1166.064	877.780
237.972	17.726	1165.512	877.058
238.986	17.880	1164.558	877.055
240.001	17.739	1164.116	875.920
241.015	17.745	1163.330	875.283
242.030	17.889	1162.338	875.196
243.045	18.004	1161.515	875.087
244.059	18.075	1160.752	874.801
245.074	18.036	1160.326	874.204
246.088	18.167	1158.857	873.686
247.103	18.154	1158.854	873.542
248.117	18.327	1157.816	873.564
249.132	18.413	1157.583	873.751
250.147	18.550	1157.287	874.147
251.161	18.617	1156.392	873.737
252.176	18.601	1155.687	873.045
253.190	18.792	1155.004	873.424
254.205	18.840	1154.451	873.167
255.220	18.785	1154.141	872.579
256.234	18.675	1153.370	871.359
257.249	18.750	1152.515	871.020
258.263	18.757	1151.510	870.217
259.278	18.689	1151.207	869.568
260.293	18.891	1150.094	869.670
261.307	18.879	1149.905	869.388
262.322	18.896	1149.575	869.149
263.336	19.026	1148.281	868.750
264.351	19.030	1147.871	868.385
265.366	19.071	1146.943	867.811
266.380	18.982	1146.305	866.806
267.395	18.788	1145.854	865.408
268.409	18.796	1144.909	864.660
269.424	18.870	1143.963	864.241
270.439	18.650	1144.262	863.281
271.453	18.802	1142.705	862.795
272.468	18.605	1141.715	860.983
273.482	18.634	1140.889	860.429
274.497	18.712	1140.509	860.456
275.512	18.652	1139.985	859.684
276.526	18.767	1139.196	859.591
277.541	18.800	1138.335	859.028
278.555	18.708	1137.954	858.203
279.570	18.869	1137.609	858.674
280.585	18.883	1136.848	858.091
281.599	19.091	1135.366	857.937
282.614	18.886	1134.652	856.298
283.628	18.790	1133.199	854.649
284.643	18.892	1132.274	854.384
285.657	18.910	1131.448	853.775
286.672	18.813	1130.712	852.659
287.687	18.970	1129.560	852.496
288.701	18.893	1129.420	851.934
289.716	18.997	1128.243	851.484
290.730	18.967	1127.711	850.857
291.745	18.969	1127.202	850.409
292.760	19.099	1126.430	850.394
293.774	19.074	1125.912	849.807
294.789	19.127	1125.635	849.781
295.803	19.129	1124.884	849.151
296.818	19.045	1124.036	848.021
297.833	18.907	1123.084	846.547
298.847	19.035	1122.299	846.510
299.862	19.026	1121.486	845.778
300.876	18.991	1121.147	845.276
301.891	19.231	1120.458	845.862
302.906	19.215	1119.679	845.117
303.920	19.315	1119.492	845.393
304.935	19.278	1118.995	844.763
305.949	19.525	1117.816	845.007
306.964	19.343	1117.663	843.924
307.979	19.349	1116.578	843.061
308.993	19.248	1115.718	841.845
310.008	19.336	1115.087	841.722
311.022	19.427	1114.271	841.477
312.037	19.499	1113.297	841.018
313.052	19.346	1112.498	839.593
314.066	19.267	1111.420	838.322
315.081	19.000	1110.336	836.132
316.095	19.044	1109.791	835.862
317.110	19.147	1108.958	835.659
318.125	19.189	1108.224	835.238
319.139	19.233	1107.536	834.856
320.154	19.100	1107.095	833.804
321.168	19.218	1105.759	833.299
322.183	19.132	1105.761	832.811
323.197	19.172	1105.394	832.654
324.212	19.224	1104.744	832.340
325.227	19.166	1104.471	831.783
326.241	19.177	1103.583	831.092
327.256	19.156	1102.624	830.196
328.270	19.168	1101.848	829.597
329.285	19.157	1101.208	828.988
330.300	19.253	1100.027	828.484
331.314	19.289	1098.673	827.567
332.329	19.286	1097.998	826.968
333.343	19.425	1097.327	827.057
334.358	19.334	1096.541	825.955
335.373	19.564	1095.605	826.281
336.387	19.572	1095.065	825.835
337.402	19.510	1094.000	824.664
338.416	19.616	1093.490	824.711
339.431	19.605	1092.898	824.143
340.446	19.739	1092.760	824.601
341.460	19.779	1092.125	824.244
342.475	19.920	1091.004	823.992
343.489	19.945	1090.479	823.645
344.504	19.891	1089.511	822.582
345.519	19.972	1088.558	822.175
346.533	19.999	1088.107	821.890
347.548	20.039	1087.418	821.488
348.562	20.008	1086.326	820.439
349.577	19.799	1085.915	819.071
350.592	19.593	1084.840	817.213
351.606	19.642	1083.794	816.581
352.621	19.729	1082.762	816.143
353.635	19.593	1082.272	815.062
354.650	19.656	1081.523	814.721
355.665	19.676	1081.401	814.650
356.679	19.726	1080.607	814.215
357.694	19.843	1080.174	814.371
358.708	19.800	1079.524	813.605
359.723	19.898	1078.688	813.362
360.738	20.007	1078.099	813.361
361.752	19.864	1077.963	812.513
362.767	19.811	1077.398	811.767
363.781	19.923	1076.724	811.712
364.796	19.979	1076.192	811.499
365.810	20.122	1075.480	811.563
366.825	20.282	1074.775	811.706
367.840	20.323	1074.609	811.702
368.854	20.435	1074.070	811.746
369.869	20.344	1073.140	810.548
370.883	20.192	1072.413	809.218
371.898	20.065	1071.671	807.993
372.913	20.286	1070.475	808.050
373.927	20.312	1070.502	808.120
374.942	20.316	1070.193	807.834
375.956	20.394	1069.137	807.326
376.971	20.272	1069.171	806.714
377.986	20.253	1068.570	806.102
379.000	20.369	1067.771	805.964
380.015	20.580	1067.504	806.670
381.029	20.455	1066.729	805.434
382.044	20.537	1065.522	804.833
383.059	20.509	1065.009	804.242
384.073	20.528	1064.222	803.667
385.088	20.451	1063.417	802.630
386.102	20.574	1062.315	802.295
387.117	20.456	1061.119	800.777
388.132	20.296	1060.484	799.490
389.146	20.251	1059.730	798.645
390.161	20.274	1059.001	798.132
391.175	20.232	1058.550	797.525
392.190	20.389	1057.942	797.722
393.205	20.578	1056.996	797.805
394.219	20.541	1056.143	796.920
395.234	20.462	1055.028	795.646
396.248	20.347	1054.147	794.384
397.263	20.421	1053.022	793.806
398.278	20.251	1052.437	792.518
399.292	20.155	1051.960	791.647
400.307	20.177	1051.138	791.061
401.321	20.140	1050.525	790.358
402.336	20.242	1049.892	790.278
403.350	20.047	1049.439	788.980
404.365	20.056	1048.805	788.474
405.380	20.379	1047.596	788.962
406.394	20.435	1047.003	788.703
407.409	20.584	1046.009	788.559
408.423	20.762	1045.490	788.905
409.438	20.802	1044.891	788.566
410.453	20.853	1044.431	788.378
411.467	20.732	1044.194	787.580
412.482	20.829	1043.368	787.330
413.496	20.966	1042.604	787.303
414.511	20.971	1041.999	786.795
415.526	21.014	1041.871	786.824
416.540	20.880	1041.870	786.151
417.555	21.039	1041.181	786.279
418.569	20.850	1040.648	784.955
419.584	20.862	1039.962	784.419
420.599	20.885	1039.412	784.041
421.613	154.884	1403.403	1795.318
422.628	141.671	1456.419	1795.433
