DTS Sentinel unit serial number:	SN413079Multiplexer serial number:	ORYXHardware model number:	OX4-SRSoftware version number:	ORYX F/W v4.00 Oryx Data Collector v3.7.2.0data status	okinstallation	princeton_trtdifferential loss correction	single-endedforward channel	channel 2reverse channel	N/Adate	2019/09/14time	11:03:35forward acquisition time	60.00reverse acquisition time	0.00gamma	496.2192k internal	0.2313k external	0.2313temperature offset calibration	1.0145default loss term (dB/km)	0.3790temperature slope calibration	1.0000multiplexer offset coefficient	1.0000multiplexer slope coefficient	1.0000fibre end	0.00T internal ref (°C)	36.12T ext. ref 1 (°C)	4.39T ext. ref 2 (°C)	33.98length (m)	temperature (°C)	Stokes	anti-Stokes-747.200	185.431	0.128	-0.194
-746.185	-66.901	-0.209	-0.084
-745.171	344.704	0.185	-0.369
-744.156	-111.768	-0.241	0.049
-743.142	-12.404	0.172	-0.114
-742.127	118.969	-0.170	0.213
-741.112	-130.287	0.339	-0.047
-740.098	-10.494	-0.011	-0.007
-739.083	-200.000	0.028	0.244
-738.069	-125.359	0.050	0.008
-737.054	421.321	-0.099	-0.214
-736.039	800.000	-0.103	-0.292
-735.025	-35.991	0.119	0.065
-734.010	339.734	-0.197	0.390
-732.996	392.073	-0.212	-0.447
-731.981	-99.682	-0.175	0.045
-730.966	-200.000	-0.034	-0.330
-729.952	204.274	0.036	-0.057
-728.937	800.000	0.054	-0.201
-727.923	483.463	0.117	-0.269
-726.908	-128.710	-0.184	0.026
-725.894	720.707	-0.227	-0.613
-724.879	-200.000	-0.017	-0.214
-723.864	800.000	-0.055	0.225
-722.850	-90.568	-0.325	0.095
-721.835	-200.000	-0.007	0.120
-720.821	94.248	0.261	0.301
-719.806	47.547	0.209	0.198
-718.791	-66.217	-0.182	-0.073
-717.777	-200.000	-0.037	-0.192
-716.762	-112.484	-0.440	-0.089
-715.748	-66.622	-0.247	0.099
-714.733	-176.080	0.181	0.005
-713.718	-82.226	0.330	-0.109
-712.704	252.791	-0.208	0.359
-711.689	-38.706	-0.185	-0.099
-710.675	-200.000	-0.001	-0.078
-709.660	-76.621	-0.072	0.026
-708.645	757.706	0.028	0.076
-707.631	-186.416	0.305	-0.004
-706.616	-200.000	0.026	0.117
-705.602	9.160	0.079	-0.060
-704.587	-99.911	0.575	0.146
-703.572	-56.342	0.247	-0.111
-702.558	249.285	0.149	0.256
-701.543	38.748	-0.170	0.154
-700.529	-15.824	-0.138	-0.089
-699.514	800.000	0.054	-0.210
-698.499	196.341	0.266	-0.411
-697.485	-92.764	-0.350	0.099
-696.470	-63.265	-0.254	-0.106
-695.456	-110.868	-0.060	-0.013
-694.441	30.710	-0.028	-0.024
-693.426	-40.746	0.141	0.074
-692.412	569.024	-0.037	0.090
-691.397	454.062	-0.107	-0.240
-690.383	-31.518	-0.415	-0.236
-689.368	-51.234	-0.157	0.075
-688.354	-94.172	0.126	-0.035
-687.339	-200.000	0.008	-0.200
-686.324	-100.118	-0.206	-0.052
-685.310	88.489	-0.347	0.390
-684.295	-90.435	-0.239	-0.070
-683.281	-200.000	-0.000	-0.098
-682.266	-143.727	0.261	0.025
-681.251	51.019	0.145	-0.139
-680.237	461.443	0.092	0.207
-679.222	800.000	-0.048	0.163
-678.208	-13.725	-0.128	0.084
-677.193	-200.000	0.051	-0.296
-676.178	800.000	0.063	-0.267
-675.164	592.923	0.088	-0.219
-674.149	53.860	-0.087	0.084
-673.135	-95.951	0.303	0.082
-672.120	35.052	-0.054	0.048
-671.105	-99.966	-0.227	0.057
-670.091	125.323	0.229	0.292
-669.076	34.565	0.082	0.073
-668.062	-22.245	0.375	-0.230
-667.047	-200.000	0.020	-0.114
-666.032	-41.471	0.042	0.022
-665.018	41.516	-0.060	-0.055
-664.003	225.648	-0.138	-0.226
-662.989	-162.486	0.155	0.008
-661.974	-57.616	0.142	0.063
-660.959	-185.475	0.095	-0.001
-659.945	-105.345	0.439	0.101
-658.930	800.000	-0.067	-0.205
-657.916	800.000	-0.166	-0.533
-656.901	-160.363	0.161	-0.009
-655.886	702.730	0.133	-0.354
-654.872	-114.106	-0.273	-0.053
-653.857	800.000	-0.065	0.199
-652.843	109.963	-0.088	-0.107
-651.828	131.236	0.025	-0.032
-650.814	-86.115	-0.341	-0.106
-649.799	-137.326	0.174	-0.020
-648.784	-138.023	0.607	0.068
-647.770	-108.974	-0.174	-0.038
-646.755	-26.976	-0.127	-0.075
-645.741	-171.316	0.393	0.013
-644.726	702.993	0.081	-0.215
-643.711	-80.721	-0.328	0.110
-642.697	-99.856	-0.173	-0.044
-641.682	321.090	0.042	-0.080
-640.668	-142.737	-0.175	0.017
-639.653	-68.120	0.133	0.052
-638.638	-200.000	0.005	0.258
-637.624	-84.204	-0.167	-0.053
-636.609	571.114	-0.080	0.196
-635.595	350.825	-0.046	0.091
-634.580	-93.762	0.071	0.020
-633.565	800.000	-0.019	0.076
-632.551	-200.000	0.039	0.239
-631.536	-14.816	-0.135	-0.087
-630.522	-178.597	0.179	0.004
-629.507	-200.000	0.025	-0.127
-628.492	-200.000	-0.050	0.273
-627.478	-200.000	-0.015	0.265
-626.463	-125.557	-0.122	0.019
-625.449	81.240	-0.196	0.213
-624.434	-106.391	-0.137	-0.031
-623.419	82.335	0.065	-0.071
-622.405	646.230	-0.034	-0.089
-621.390	-60.396	-0.319	-0.137
-620.376	-199.504	0.082	-0.000
-619.361	-100.545	-0.162	-0.040
-618.346	103.257	-0.185	0.219
-617.332	26.702	0.222	-0.188
-616.317	4.359	-0.286	-0.212
-615.303	25.549	-0.069	-0.058
-614.288	-200.000	-0.004	0.140
-613.273	-200.000	-0.048	-0.335
-612.259	-149.719	-0.262	0.021
-611.244	2.718	0.271	-0.199
-610.230	800.000	0.007	-0.029
-609.215	-185.228	0.230	-0.004
-608.201	-142.113	-0.410	-0.041
-607.186	343.341	-0.029	0.058
-606.171	-128.513	0.063	-0.009
-605.157	-98.726	-0.290	0.074
-604.142	-10.069	0.288	-0.193
-603.128	17.218	0.117	0.093
-602.113	706.249	-0.026	0.069
-601.098	249.628	0.105	-0.180
-600.084	56.990	0.146	0.144
-599.069	800.000	-0.118	-0.422
-598.055	-85.506	0.121	0.038
-597.040	-92.103	0.267	0.076
-596.025	21.238	-0.217	-0.177
-595.011	-105.925	0.130	-0.030
-593.996	-145.084	0.055	0.005
-592.982	752.363	-0.149	0.406
-591.967	-85.536	-0.091	0.029
-590.952	27.498	-0.203	0.172
-589.938	-200.000	-0.029	0.438
-588.923	645.311	0.180	0.462
-587.909	-171.559	-0.182	-0.006
-586.894	-152.119	-0.065	-0.005
-585.879	-37.333	-0.442	0.238
-584.865	95.485	-0.098	0.112
-583.850	206.454	0.145	0.228
-582.836	6.299	-0.246	-0.184
-581.821	128.878	0.161	0.207
-580.806	50.581	0.183	0.174
-579.792	-69.780	-0.189	0.073
-578.777	-200.000	-0.019	-0.172
-577.763	-200.000	-0.024	0.253
-576.748	-38.448	0.078	0.041
-575.733	-26.124	-0.183	0.108
-574.719	-101.435	-0.254	0.062
-573.704	800.000	-0.070	-0.210
-572.690	123.557	0.163	0.206
-571.675	59.203	0.103	0.102
-570.661	800.000	-0.019	0.070
-569.646	157.613	-0.073	-0.103
-568.631	-119.800	0.150	-0.026
-567.617	800.000	0.109	0.309
-566.602	-28.252	-0.090	0.052
-565.588	-44.117	-0.178	-0.090
-564.573	-155.816	0.039	0.002
-563.558	-72.848	-0.292	0.108
-562.544	-181.508	0.388	-0.008
-561.529	298.790	-0.055	-0.102
-560.515	-200.000	-0.003	0.434
-559.500	253.831	-0.026	-0.045
-558.485	-106.016	-0.092	-0.021
-557.471	230.523	0.097	-0.160
-556.456	-99.640	-0.207	-0.052
-555.442	-33.435	-0.153	0.085
-554.427	-200.000	-0.003	-0.151
-553.412	341.391	0.135	-0.265
-552.398	-200.000	-0.039	-0.273
-551.383	604.844	-0.049	-0.124
-550.369	800.000	-0.004	0.013
-549.354	-27.258	-0.111	0.065
-548.339	19.572	-0.252	-0.204
-547.325	150.562	0.049	0.066
-546.310	32.458	-0.294	0.256
-545.296	-200.000	-0.010	0.257
-544.281	-109.698	-0.405	-0.086
-543.266	-86.604	0.128	0.039
-542.252	146.842	0.208	-0.282
-541.237	-72.394	0.289	-0.108
-540.223	168.990	0.153	0.219
-539.208	-117.955	0.691	0.125
-538.193	339.887	-0.059	-0.116
-537.179	449.123	-0.009	-0.020
-536.164	-200.000	0.040	-0.256
-535.150	-200.000	-0.022	0.214
-534.135	788.734	0.115	-0.318
-533.121	-21.913	0.170	0.104
-532.106	-98.144	0.098	0.025
-531.091	-200.000	0.008	-0.199
-530.077	-200.000	-0.035	-0.546
-529.062	-200.000	0.016	0.335
-528.048	157.298	-0.321	-0.447
-527.033	-58.142	0.322	0.141
-526.018	12.106	-0.111	0.086
-525.004	-85.541	-0.280	-0.088
-523.989	-200.000	0.062	-0.289
-522.975	2.533	-0.318	-0.231
-521.960	-0.553	0.236	-0.168
-520.945	-87.728	-0.010	0.003
-519.931	35.447	0.191	-0.169
-518.916	52.945	-0.184	-0.177
-517.902	-200.000	0.022	-0.171
-516.887	220.654	-0.073	0.118
-515.872	-200.000	0.034	-0.237
-514.858	800.000	-0.065	0.275
-513.843	-152.740	0.234	0.017
-512.829	14.271	0.079	0.062
-511.814	82.256	-0.069	-0.076
-510.799	129.847	-0.027	-0.035
-509.785	-200.000	-0.029	-0.132
-508.770	-200.000	0.016	-0.123
-507.756	93.601	-0.059	-0.067
-506.741	800.000	0.042	-0.164
-505.726	124.716	0.172	-0.218
-504.712	-66.338	-0.193	-0.077
-503.697	55.476	0.131	0.127
-502.683	84.619	-0.181	-0.199
-501.668	-154.447	-0.259	0.017
-500.653	-25.215	0.075	0.044
-499.639	-79.839	0.204	-0.069
-498.624	-111.570	-0.303	0.062
-497.610	-200.000	0.015	0.226
-496.595	-55.234	0.262	-0.118
-495.581	776.872	0.166	0.454
-494.566	-119.235	0.116	0.020
-493.551	-137.370	0.071	-0.008
-492.537	-89.668	-0.216	0.064
-491.522	356.513	0.002	0.003
-490.508	-200.000	0.016	0.160
-489.493	800.000	0.090	0.290
-488.478	181.535	-0.183	0.270
-487.464	-59.700	-0.173	-0.075
-486.449	28.246	0.316	0.268
-485.435	-49.146	0.237	0.114
-484.420	-200.000	0.036	0.157
-483.405	145.001	0.270	0.363
-482.391	-42.455	0.243	-0.124
-481.376	-85.498	0.349	0.109
-480.362	23.037	0.166	-0.137
-479.347	76.113	0.172	-0.183
-478.332	-44.197	-0.178	-0.090
-477.318	483.844	0.150	0.342
-476.303	44.880	-0.243	-0.224
-475.289	-200.000	-0.006	0.127
-474.274	105.841	-0.088	0.104
-473.259	25.997	-0.219	-0.183
-472.245	-62.129	0.215	-0.090
-471.230	-200.000	-0.044	0.206
-470.216	800.000	0.022	-0.081
-469.201	391.533	-0.147	0.307
-468.186	404.743	0.053	0.111
-467.172	72.128	-0.075	0.078
-466.157	381.160	0.016	-0.033
-465.143	-200.000	0.034	-0.156
-464.128	226.271	-0.019	-0.030
-463.113	800.000	-0.037	0.102
-462.099	-96.093	-0.116	0.031
-461.084	151.813	0.163	-0.223
-460.070	-15.250	0.147	0.095
-459.055	-200.000	0.000	-0.476
-458.040	-191.887	0.271	-0.003
-457.026	-82.268	-0.221	-0.072
-456.011	-26.334	0.059	-0.035
-454.997	-65.757	-0.486	-0.195
-453.982	120.606	0.109	0.136
-452.968	-41.903	-0.044	0.023
-451.953	800.000	-0.074	0.242
-450.938	-67.187	0.077	-0.030
-449.924	800.000	-0.109	-0.333
-448.909	38.576	-0.074	0.066
-447.895	4.846	0.115	-0.084
-446.880	-200.000	-0.006	-0.184
-445.865	-180.263	0.239	-0.005
-444.851	148.571	-0.206	-0.279
-443.836	-86.664	0.210	-0.065
-442.822	-186.673	0.108	-0.002
-441.807	-78.511	-0.267	0.092
-440.792	386.424	-0.068	-0.141
-439.778	-200.000	-0.027	0.198
-438.763	60.107	-0.232	0.230
-437.749	-108.569	-0.066	-0.014
-436.734	148.080	-0.130	-0.176
-435.719	-151.218	-0.291	-0.022
-434.705	-39.059	0.237	-0.125
-433.690	283.806	-0.148	-0.267
-432.676	-59.600	0.056	-0.024
-431.661	344.091	-0.079	-0.155
-430.646	22.841	-0.175	0.144
-429.632	-200.000	-0.019	0.216
-428.617	-3.796	-0.370	0.258
-427.603	-106.755	-0.036	-0.008
-426.588	-30.580	-0.037	0.021
-425.573	-122.545	0.197	-0.032
-424.559	-200.000	0.007	-0.114
-423.544	-123.790	-0.062	-0.010
-422.530	83.027	0.065	-0.071
-421.515	138.030	0.180	0.237
-420.500	359.068	-0.107	0.214
-419.486	800.000	0.044	0.134
-418.471	-172.841	0.154	-0.005
-417.457	-104.653	0.312	-0.072
-416.442	-34.351	-0.216	-0.119
-415.428	-158.704	0.059	-0.003
-414.413	-34.430	-0.102	0.056
-413.398	-117.227	0.488	0.089
-412.384	-68.298	0.482	-0.187
-411.369	800.000	-0.074	-0.239
-410.355	-60.913	-0.170	0.072
-409.340	-200.000	-0.022	-0.117
-408.325	-42.352	-0.044	-0.022
-407.311	-170.714	-0.237	0.008
-406.296	221.800	-0.092	0.148
-405.282	-200.000	-0.006	0.134
-404.267	-73.226	0.158	-0.058
-403.252	211.102	0.039	0.062
-402.238	-200.000	-0.009	-0.092
-401.223	-76.476	-0.059	0.021
-400.209	21.074	-0.218	-0.177
-399.194	-200.000	-0.052	-0.358
-398.179	659.649	0.111	-0.286
-397.165	34.492	0.044	-0.039
-396.150	-200.000	0.011	0.113
-395.136	-200.000	0.018	0.142
-394.121	566.737	-0.154	0.375
-393.106	-200.000	0.034	-0.301
-392.092	-200.000	0.039	0.236
-391.077	-33.773	0.169	-0.093
-390.063	-151.262	0.333	0.025
-389.048	-200.000	0.025	-0.237
-388.033	800.000	-0.046	-0.179
-387.019	101.857	-0.033	-0.038
-386.004	220.488	0.098	0.157
-384.990	-42.440	0.126	-0.064
-383.975	26.055	0.124	0.103
-382.960	47.816	-0.222	0.208
-381.946	-200.000	0.020	0.151
-380.931	800.000	-0.161	0.453
-379.917	2.162	-0.214	-0.155
-378.902	582.573	-0.029	0.071
-377.888	-184.575	0.254	0.004
-376.873	13.163	0.113	0.088
-375.858	-159.008	0.200	-0.011
-374.844	-48.399	-0.198	0.095
-373.829	-200.000	0.023	0.295
-372.815	-48.918	-0.144	-0.069
-371.800	-127.279	-0.296	0.043
-370.785	20.653	0.330	0.267
-369.771	54.071	0.254	0.244
-368.756	-177.104	0.397	-0.010
-367.742	-92.325	-0.121	0.034
-366.727	-200.000	-0.002	0.152
-365.712	-15.660	-0.258	0.164
-364.698	-200.000	-0.001	-0.301
-363.683	-30.932	-0.188	0.106
-362.669	50.305	0.194	-0.183
-361.654	-126.815	0.066	-0.010
-360.639	-151.293	0.153	-0.011
-359.625	800.000	0.045	0.162
-358.610	800.000	-0.121	0.351
-357.596	332.091	0.097	0.188
-356.581	182.991	-0.043	0.064
-355.566	-200.000	-0.003	0.106
-354.552	-20.027	0.144	-0.089
-353.537	36.218	-0.290	0.256
-352.523	267.249	-0.133	0.232
-351.508	110.022	0.084	0.100
-350.493	-2.149	-0.080	-0.056
-349.479	-200.000	-0.035	-0.374
-348.464	52.213	-0.268	-0.256
-347.450	-200.000	0.078	0.479
-346.435	477.726	0.107	-0.242
-345.420	-109.685	0.234	0.049
-344.406	39.714	-0.062	-0.055
-343.391	267.828	0.041	-0.072
-342.377	101.603	0.113	0.132
-341.362	-200.000	0.014	-0.129
-340.348	290.707	-0.168	-0.304
-339.333	-35.938	-0.043	0.023
-338.318	60.933	0.060	-0.059
-337.304	132.421	0.134	-0.172
-336.289	-146.083	-0.073	0.006
-335.275	50.460	-0.082	-0.077
-334.260	95.724	0.145	-0.165
-333.245	-200.000	-0.027	0.154
-332.231	-200.000	-0.012	-0.425
-331.216	-200.000	0.029	0.315
-330.202	-59.474	-0.306	0.131
-329.187	26.036	-0.218	-0.182
-328.172	-72.720	0.125	-0.046
-327.158	-200.000	0.028	-0.440
-326.143	-2.722	0.087	0.061
-325.129	-83.079	0.106	0.034
-324.114	800.000	-0.057	-0.161
-323.099	51.429	0.188	0.178
-322.085	5.045	-0.139	-0.102
-321.070	-23.284	0.225	-0.135
-320.056	-169.440	-0.390	-0.014
-319.041	-114.629	0.382	0.073
-318.026	3.293	-0.063	-0.045
-317.012	-200.000	-0.048	-0.297
-315.997	345.503	-0.072	0.141
-314.983	23.010	-0.207	0.169
-313.968	11.069	0.178	0.136
-312.953	-76.065	0.289	0.102
-311.939	-68.853	-0.184	-0.071
-310.924	29.206	-0.194	0.164
-309.910	148.166	-0.119	-0.160
-308.895	481.307	-0.090	-0.204
-307.880	-92.233	-0.132	-0.037
-306.866	800.000	-0.080	0.269
-305.851	-200.000	0.032	-0.144
-304.837	-39.561	0.163	-0.085
-303.822	-200.000	-0.015	0.114
-302.807	62.678	-0.067	0.067
-301.793	121.173	0.195	0.242
-300.778	76.652	-0.202	-0.214
-299.764	-113.827	0.250	0.049
-298.749	-200.000	-0.001	0.208
-297.735	-54.393	0.191	-0.086
-296.720	-85.779	-0.153	0.047
-295.705	-67.705	-0.286	0.112
-294.691	-200.000	-0.003	0.294
-293.676	-200.000	0.029	-0.160
-292.662	-55.635	0.259	-0.115
-291.647	-61.254	0.121	-0.051
-290.632	29.277	0.212	0.179
-289.618	-46.061	-0.249	0.122
-288.603	154.478	0.164	-0.225
-287.589	-82.959	0.282	0.091
-286.574	-11.418	-0.195	-0.128
-285.559	-200.000	-0.007	0.145
-284.545	-41.230	0.214	-0.110
-283.530	-8.314	-0.412	-0.276
-282.516	49.765	-0.194	-0.182
-281.501	344.375	0.085	0.167
-280.486	130.556	-0.179	-0.229
-279.472	800.000	-0.096	-0.304
-278.457	264.774	0.109	0.188
-277.443	-80.402	0.149	0.049
-276.428	-95.573	0.157	-0.042
-275.413	-200.000	0.032	0.229
-274.399	467.832	0.046	-0.103
-273.384	-23.709	0.346	0.206
-272.370	-200.000	0.017	0.105
-271.355	56.327	0.182	-0.177
-270.340	-151.411	0.194	0.014
-269.326	24.348	0.050	0.041
-268.311	28.094	0.254	0.214
-267.297	183.079	0.033	-0.049
-266.282	214.360	-0.049	0.077
-265.267	286.724	0.113	0.204
-264.253	800.000	0.062	-0.194
-263.238	-141.526	0.252	-0.025
-262.224	-49.868	0.253	0.119
-261.209	4.199	0.164	0.119
-260.195	-119.340	0.290	0.050
-259.180	501.496	-0.180	-0.414
-258.165	-106.209	0.034	-0.008
-257.151	110.962	0.060	-0.072
-256.136	-200.000	-0.013	-0.072
-255.122	26.985	-0.020	-0.017
-254.107	-64.284	0.509	0.206
-253.092	-200.000	0.006	-0.039
-252.078	-25.771	-0.179	-0.105
-251.063	-200.000	0.036	-0.252
-250.049	57.637	-0.132	0.129
-249.034	141.171	-0.073	-0.096
-248.019	-136.026	0.262	-0.031
-247.005	-49.721	0.270	0.128
-245.990	70.538	0.085	-0.087
-244.976	5.437	-0.230	-0.169
-243.961	-200.000	-0.058	0.251
-242.946	-64.287	-0.141	-0.057
-241.932	70.391	0.204	-0.210
-240.917	59.580	0.300	-0.294
-239.903	571.079	0.098	0.238
-238.888	-100.224	0.185	-0.046
-237.873	41.433	-0.223	0.201
-236.859	1.160	-0.159	0.114
-235.844	-23.043	0.071	-0.042
-234.830	14.503	-0.074	0.058
-233.815	-114.203	0.410	-0.079
-232.800	-200.000	-0.008	-0.088
-231.786	800.000	-0.071	0.308
-230.771	-23.861	-0.136	-0.081
-229.757	-200.000	0.002	-0.249
-228.742	-200.000	0.010	0.131
-227.727	-200.000	-0.029	-0.137
-226.713	-200.000	-0.005	-0.343
-225.698	35.864	0.100	0.088
-224.684	-128.362	0.195	0.028
-223.669	31.069	-0.283	-0.241
-222.655	800.000	-0.064	0.196
-221.640	800.000	0.038	0.138
-220.625	-90.097	0.263	-0.076
-219.611	-50.060	-0.264	0.124
-218.596	209.238	-0.076	-0.119
-217.582	-135.952	-0.253	0.030
-216.567	-54.839	0.116	-0.052
-215.552	-121.815	0.163	0.027
-214.538	-200.000	0.027	-0.315
-213.523	14.237	-0.180	0.140
-212.509	-129.641	-0.233	-0.032
-211.494	-98.482	-0.443	0.112
-210.479	-186.133	0.224	-0.003
-209.465	-9.045	0.217	-0.144
-208.450	-132.773	-0.256	0.033
-207.436	245.365	-0.119	0.198
-206.421	800.000	0.133	-0.445
-205.406	-200.000	-0.052	-0.410
-204.392	-54.434	-0.035	-0.016
-203.377	-86.690	0.121	0.037
-202.363	-200.000	0.005	-0.083
-201.348	-102.763	-0.239	-0.056
-200.333	-200.000	0.047	0.329
-199.319	29.040	0.172	-0.145
-198.304	800.000	-0.089	-0.386
-197.290	60.169	-0.271	0.266
-196.275	-162.288	-0.078	-0.004
-195.260	52.551	-0.242	-0.230
-194.246	40.553	-0.326	-0.292
-193.231	-41.346	0.134	0.068
-192.217	800.000	-0.055	-0.213
-191.202	419.326	0.072	0.152
-190.187	-200.000	-0.017	0.350
-189.173	20.555	0.032	0.026
-188.158	-78.609	-0.182	0.062
-187.144	-200.000	0.003	0.062
-186.129	723.439	-0.096	0.253
-185.114	800.000	-0.029	-0.094
-184.100	98.230	0.152	-0.173
-183.085	-137.989	0.108	-0.012
-182.071	740.090	-0.072	-0.193
-181.056	-60.516	0.523	0.220
-180.042	-114.698	0.374	0.071
-179.027	138.500	0.098	-0.128
-178.012	-44.788	0.086	-0.042
-176.998	95.337	-0.375	-0.424
-175.983	-200.000	-0.020	-0.259
-174.969	435.853	-0.100	-0.216
-173.954	800.000	0.025	0.103
-172.939	-200.000	-0.042	0.346
-171.925	800.000	0.015	0.055
-170.910	-96.253	0.216	-0.057
-169.896	-165.539	0.432	-0.019
-168.881	77.991	-0.238	0.252
-167.866	-200.000	-0.040	0.309
-166.852	-6.895	-0.161	-0.108
-165.837	-80.163	-0.205	0.068
-164.823	475.954	0.086	0.194
-163.808	160.110	-0.112	-0.155
-162.793	42.800	-0.233	-0.211
-161.779	-200.000	0.036	0.378
-160.764	-102.525	-0.278	-0.066
-159.750	21.181	-0.008	0.007
-158.735	84.318	-0.151	0.164
-157.720	321.071	-0.107	0.202
-156.706	8.196	-0.318	-0.237
-155.691	125.263	-0.161	0.202
-154.677	-200.000	0.003	-0.152
-153.662	-200.000	-0.046	-0.416
-152.647	-100.973	-0.157	0.038
-151.633	-200.000	-0.020	0.194
-150.618	-85.486	-0.096	0.030
-149.604	227.788	0.231	-0.373
-148.589	-200.000	0.033	0.252
-147.574	800.000	-0.030	0.085
-146.560	183.144	0.043	0.063
-145.545	-52.444	-0.115	-0.053
-144.531	-24.669	0.241	0.142
-143.516	800.000	-0.068	-0.281
-142.502	-44.498	0.057	0.028
-141.487	800.000	0.012	0.041
-140.472	-59.906	0.211	-0.089
-139.458	682.319	0.070	0.181
-138.443	-36.950	-0.099	0.052
-137.429	51.466	0.092	0.087
-136.414	12.447	0.120	0.092
-135.399	-42.166	0.400	0.203
-134.385	800.000	0.061	0.179
-133.370	800.000	-0.018	0.064
-132.356	-38.337	0.203	0.106
-131.341	-27.095	-0.187	0.108
-130.326	800.000	-0.152	0.429
-129.312	-112.946	0.370	0.072
-128.297	632.164	-0.062	0.156
-127.283	36.215	0.093	-0.081
-126.268	192.410	-0.052	0.078
-125.253	-144.942	-0.123	0.011
-124.239	710.476	-0.054	0.143
-123.224	36.108	0.060	0.052
-122.210	-84.596	0.312	0.097
-121.195	24.123	-0.262	0.214
-120.180	572.381	-0.180	0.435
-119.166	-101.680	0.135	-0.032
-118.151	214.998	0.162	-0.254
-117.137	590.209	-0.043	0.105
-116.122	800.000	0.034	-0.144
-115.107	-200.000	0.012	0.239
-114.093	93.573	0.131	0.147
-113.078	323.661	-0.103	-0.194
-112.064	-83.457	-0.185	-0.059
-111.049	8.817	-0.145	0.108
-110.034	180.403	-0.107	-0.156
-109.020	-140.503	-0.409	-0.042
-108.005	800.000	0.092	-0.294
-106.991	247.336	-0.086	-0.144
-105.976	168.682	0.135	-0.191
-104.962	189.273	0.131	-0.194
-103.947	-128.452	0.194	-0.027
-102.932	163.819	0.114	0.159
-101.918	-200.000	0.010	0.343
-100.903	273.956	0.125	0.218
-99.889	673.028	-0.060	0.154
-98.874	67.205	-0.220	-0.222
-97.859	-122.946	0.087	-0.014
-96.845	273.050	-0.054	0.095
-95.830	-51.587	-0.129	0.059
-94.816	235.379	0.139	0.227
-93.801	-65.221	-0.276	0.110
-92.786	97.129	-0.342	0.388
-91.772	249.802	0.101	0.169
-90.757	-66.242	0.292	-0.115
-89.743	-91.646	-0.234	0.066
-88.728	-1.078	-0.272	0.190
-87.713	158.280	0.071	-0.097
-86.699	523.329	-0.156	-0.363
-85.684	-200.000	-0.015	-0.114
-84.670	800.000	-0.116	-0.396
-83.655	800.000	-0.066	-0.240
-82.640	-114.969	0.223	-0.042
-81.626	96.908	0.023	-0.026
-80.611	98.457	0.255	-0.290
-79.597	554.746	-0.130	-0.310
-78.582	-31.447	-0.113	0.063
-77.567	28.974	-0.146	-0.123
-76.553	-187.835	-0.102	-0.001
-75.538	-19.694	0.087	-0.053
-74.524	800.000	0.076	-0.268
-73.509	-151.868	0.083	-0.006
-72.494	-11.746	0.368	0.238
-71.480	364.345	0.149	-0.296
-70.465	769.747	-0.065	-0.175
-69.451	-58.026	0.264	-0.114
-68.436	12.671	-0.023	-0.017
-67.422	-163.029	-0.232	0.011
-66.407	37.467	-0.079	-0.070
-65.392	799.796	0.080	-0.218
-64.378	103.293	0.145	0.168
-63.363	293.226	0.028	0.051
-62.349	-95.070	0.257	-0.069
-61.334	22.880	-1.006	-0.814
-60.319	-200.000	0.100	0.513
-59.305	-200.000	-0.031	-0.993
-58.290	108.255	0.601	0.708
-57.276	730.080	0.560	1.479
-56.261	-200.000	89.880	503.486
-55.246	518.960	1412.061	3265.132
-54.232	181.012	2641.151	3831.564
-53.217	111.173	2361.803	2809.192
-52.203	45.139	1966.690	1789.463
-51.188	39.344	1750.850	1547.608
-50.173	36.565	1706.448	1486.963
-49.159	51.940	1751.318	1646.131
-48.144	55.211	1769.261	1688.410
-47.130	39.114	1727.623	1525.053
-46.115	36.188	1712.886	1489.425
-45.100	36.005	1707.632	1483.391
-44.086	35.979	1705.073	1480.905
-43.071	35.948	1702.999	1478.809
-42.057	35.920	1700.523	1476.391
-41.042	35.935	1698.193	1474.423
-40.027	35.897	1696.739	1472.807
-39.013	35.942	1694.479	1471.133
-37.998	35.982	1692.851	1469.967
-36.984	36.109	1691.130	1469.384
-35.969	36.070	1690.328	1468.333
-34.954	36.211	1688.299	1467.580
-33.940	36.132	1686.431	1465.301
-32.925	36.248	1684.281	1464.250
-31.911	36.070	1683.384	1462.065
-30.896	36.067	1681.357	1460.222
-29.881	36.128	1678.927	1458.517
-28.867	36.104	1677.797	1457.296
-27.852	36.108	1676.359	1456.022
-26.838	36.074	1675.013	1454.539
-25.823	36.121	1673.366	1453.400
-24.809	36.094	1672.108	1452.051
-23.794	36.109	1670.744	1450.922
-22.779	36.160	1669.112	1449.831
-21.765	36.139	1667.141	1447.904
-20.750	36.215	1665.749	1447.208
-19.736	36.181	1664.201	1445.547
-18.721	36.227	1662.764	1444.583
-17.706	36.139	1660.828	1442.186
-16.692	36.152	1659.247	1440.853
-15.677	36.099	1658.000	1439.317
-14.663	36.170	1657.213	1439.110
-13.648	36.183	1655.138	1437.348
-12.633	36.068	1654.115	1435.543
-11.619	36.182	1651.673	1434.217
-10.604	36.161	1650.429	1432.921
-9.590	36.238	1649.247	1432.415
-8.575	36.162	1647.763	1430.504
-7.560	36.104	1646.957	1429.320
-6.546	36.220	1645.440	1428.801
-5.531	36.141	1644.494	1427.342
-4.517	36.171	1643.147	1426.337
-3.502	36.160	1642.302	1425.465
-2.487	36.313	1640.400	1424.890
-1.473	36.222	1629.541	1414.733
-0.458	34.094	1610.456	1382.657
0.556	31.957	1610.964	1350.018
1.571	29.428	1635.490	1351.941
2.586	28.481	1648.731	1355.769
3.600	24.478	1592.046	1280.393
4.615	14.249	1474.056	1117.102
5.629	5.894	1404.966	1011.007
6.644	4.499	1396.597	995.955
7.659	4.343	1395.081	993.786
8.673	4.330	1393.680	992.624
9.688	4.379	1392.176	991.772
10.702	4.447	1389.652	990.323
11.717	8.004	1397.266	1018.435
12.731	16.902	1414.598	1088.335
13.746	21.946	1421.205	1125.764
14.761	21.006	1418.215	1117.278
15.775	20.034	1415.088	1108.500
16.790	18.934	1413.458	1100.088
17.804	18.078	1410.698	1092.376
18.819	17.811	1409.085	1089.326
19.834	17.503	1408.006	1086.428
20.848	17.277	1406.558	1083.776
21.863	17.140	1405.079	1081.667
22.877	17.015	1404.293	1080.170
23.892	16.979	1403.475	1079.217
24.907	16.973	1402.251	1078.139
25.921	16.897	1401.925	1077.310
26.936	16.818	1400.590	1075.688
27.950	16.993	1399.358	1075.760
28.965	17.055	1398.660	1075.520
29.980	17.164	1397.256	1075.038
30.994	17.240	1396.323	1074.704
32.009	17.270	1395.597	1074.237
33.023	17.216	1394.416	1072.893
34.038	17.170	1392.628	1071.129
35.053	17.123	1391.605	1069.956
36.067	17.156	1390.107	1068.918
37.082	17.119	1389.365	1068.016
38.096	17.195	1388.659	1067.855
39.111	17.239	1387.669	1067.277
40.126	17.059	1386.801	1065.388
41.140	16.980	1385.749	1063.986
42.155	16.850	1385.074	1062.564
43.169	16.773	1384.923	1061.866
44.184	16.823	1384.450	1061.726
45.199	16.764	1384.547	1061.335
46.213	16.933	1383.477	1061.482
47.228	17.067	1382.829	1061.727
48.242	17.111	1381.622	1060.981
49.257	17.034	1380.078	1059.223
50.271	17.000	1378.794	1057.930
51.286	17.016	1377.407	1056.873
52.301	17.063	1376.001	1055.989
53.315	16.997	1374.924	1054.663
54.330	16.887	1373.887	1053.088
55.344	16.810	1372.464	1051.427
56.359	16.763	1371.586	1050.368
57.374	16.856	1370.634	1050.123
58.388	16.713	1369.759	1048.477
59.403	16.819	1368.866	1048.354
60.417	16.796	1368.243	1047.644
61.432	16.737	1367.201	1046.390
62.447	16.679	1366.503	1045.404
63.461	16.655	1364.902	1043.936
64.476	16.537	1364.103	1042.505
65.490	16.635	1363.148	1042.291
66.505	16.655	1361.472	1041.039
67.520	16.703	1359.621	1039.824
68.534	16.695	1358.721	1038.997
69.549	16.798	1357.777	1038.816
70.563	16.589	1356.856	1036.735
71.578	16.644	1355.282	1035.777
72.593	16.497	1354.393	1034.110
73.607	16.509	1353.981	1033.777
74.622	16.491	1353.409	1033.141
75.636	16.566	1352.805	1033.044
76.651	16.633	1351.578	1032.427
77.666	16.612	1351.196	1031.916
78.680	16.666	1350.754	1031.811
79.695	16.676	1350.020	1031.220
80.709	16.768	1349.424	1031.234
81.724	16.820	1348.412	1030.689
82.739	16.841	1347.534	1030.052
83.753	16.983	1346.352	1029.922
84.768	17.045	1345.926	1029.877
85.782	17.089	1344.647	1029.080
86.797	17.159	1343.287	1028.371
87.812	17.056	1342.261	1026.872
88.826	17.042	1340.890	1025.646
89.841	17.112	1339.864	1025.191
90.855	17.107	1339.049	1024.449
91.870	17.223	1338.041	1024.287
92.884	17.089	1337.501	1022.971
93.899	17.180	1336.589	1022.733
94.914	17.159	1335.637	1021.790
95.928	17.125	1335.139	1021.111
96.943	17.143	1333.811	1020.117
97.957	17.201	1332.501	1019.368
98.972	17.113	1331.890	1018.284
99.987	17.134	1330.947	1017.600
101.001	17.109	1329.854	1016.523
102.016	17.188	1328.584	1015.935
103.030	17.216	1327.673	1015.315
104.045	17.075	1327.023	1013.886
105.060	17.117	1325.130	1012.602
106.074	16.933	1323.934	1010.506
107.089	16.739	1322.448	1008.122
108.103	16.668	1321.357	1006.780
109.118	16.706	1320.263	1006.086
110.133	16.764	1318.454	1004.963
111.147	16.741	1317.589	1004.075
112.162	16.723	1316.280	1002.886
113.176	16.778	1315.099	1002.220
114.191	16.864	1313.924	1001.748
115.206	16.840	1312.956	1000.779
116.220	16.706	1312.091	999.237
117.235	16.817	1310.563	998.639
118.249	16.711	1309.733	997.294
119.264	16.753	1308.410	996.446
120.279	16.789	1307.215	995.662
121.293	16.624	1306.799	994.288
122.308	16.648	1305.411	993.282
123.322	16.582	1304.640	992.222
124.337	16.647	1303.309	991.502
125.352	16.485	1302.708	990.006
126.366	16.589	1301.506	989.613
127.381	16.640	1300.346	988.942
128.395	16.646	1298.840	987.745
129.410	16.781	1298.163	987.930
130.424	16.806	1297.684	987.623
131.439	16.784	1296.507	986.512
132.454	16.778	1295.384	985.535
133.468	16.856	1295.004	985.616
134.483	16.932	1293.882	985.112
135.497	16.840	1293.238	984.005
136.512	16.963	1291.764	983.505
137.527	16.870	1290.701	982.074
138.541	16.866	1289.073	980.721
139.556	16.972	1287.720	980.218
140.570	17.033	1287.025	979.955
141.585	17.088	1285.728	979.198
142.600	17.166	1284.353	978.517
143.614	17.135	1283.672	977.733
144.629	17.236	1282.302	977.183
145.643	17.235	1280.756	975.909
146.658	17.099	1280.105	974.549
147.673	17.089	1278.184	972.943
148.687	16.879	1277.752	971.324
149.702	16.859	1276.001	969.795
150.716	16.852	1274.791	968.747
151.731	17.006	1273.424	968.504
152.746	16.912	1272.750	967.369
153.760	17.001	1271.375	966.745
154.775	17.033	1270.092	965.868
155.789	17.109	1269.045	965.418
156.804	17.067	1267.921	964.235
157.819	17.237	1266.745	964.220
158.833	17.181	1266.301	963.484
159.848	17.288	1265.385	963.303
160.862	17.248	1264.418	962.255
161.877	17.059	1263.236	960.204
162.892	17.027	1261.657	958.738
163.906	16.939	1260.990	957.646
164.921	16.918	1260.186	956.838
165.935	17.098	1258.938	956.820
166.950	17.016	1258.505	955.943
167.964	17.182	1257.747	956.217
168.979	17.037	1257.001	954.751
169.994	17.117	1256.311	954.592
171.008	17.020	1255.814	953.580
172.023	17.245	1254.815	954.000
173.037	17.272	1254.113	953.537
174.052	17.249	1253.237	952.658
175.067	17.036	1252.196	950.588
176.081	17.000	1250.635	949.115
177.096	17.084	1249.212	948.422
178.110	17.050	1248.838	947.866
179.125	17.178	1247.026	947.118
180.140	17.120	1246.298	946.163
181.154	17.177	1244.845	945.291
182.169	17.263	1243.921	944.985
183.183	17.368	1242.573	944.457
184.198	17.382	1241.776	943.849
185.213	17.374	1240.460	942.719
186.227	17.462	1239.166	942.142
187.242	17.401	1238.170	940.963
188.256	17.472	1237.405	940.687
189.271	17.521	1236.485	940.180
190.286	17.445	1234.665	938.294
191.300	17.123	1233.915	935.865
192.315	17.100	1233.785	935.554
193.329	17.027	1233.152	934.593
194.344	17.131	1232.179	934.343
195.359	17.268	1232.000	934.878
196.373	17.363	1231.075	934.613
197.388	17.441	1230.838	934.781
198.402	17.572	1230.194	934.927
199.417	17.597	1229.822	934.699
200.432	17.758	1228.849	934.763
201.446	17.806	1228.388	934.592
202.461	17.842	1227.546	934.065
203.475	17.784	1226.432	932.818
204.490	17.637	1225.035	930.867
205.504	17.615	1223.537	929.526
206.519	17.610	1222.177	928.382
207.534	17.568	1221.509	927.569
208.548	17.556	1220.822	926.897
209.563	17.538	1219.463	925.687
210.577	17.579	1218.721	925.261
211.592	17.590	1218.127	924.790
212.607	17.779	1217.108	924.962
213.621	17.796	1215.925	924.069
214.636	17.643	1215.259	922.653
215.650	17.650	1214.519	922.049
216.665	17.816	1213.632	922.192
217.680	17.788	1212.892	921.397
218.694	17.984	1211.726	921.485
219.709	17.794	1211.192	919.975
220.723	17.876	1210.191	919.575
221.738	17.743	1209.443	918.207
222.753	17.930	1208.171	918.170
223.767	17.869	1207.740	917.431
224.782	17.884	1207.243	917.051
225.796	17.983	1206.637	917.046
226.811	18.018	1205.714	916.447
227.826	17.787	1205.482	914.953
228.840	17.865	1204.350	914.427
229.855	17.840	1203.652	913.685
230.869	17.877	1202.639	913.033
231.884	17.846	1201.999	912.301
232.899	17.840	1201.536	911.835
233.913	17.709	1200.548	910.307
234.928	17.694	1199.416	909.288
235.942	17.783	1198.716	909.149
236.957	17.706	1197.930	908.064
237.972	17.836	1197.081	908.035
238.986	17.751	1196.948	907.400
240.001	17.813	1195.486	906.540
241.015	17.870	1194.592	906.086
242.030	17.924	1194.099	905.916
243.045	17.980	1193.190	905.444
244.059	17.971	1192.679	904.928
245.074	17.963	1191.717	904.076
246.088	18.034	1190.625	903.541
247.103	18.115	1190.303	903.645
248.117	18.072	1189.701	902.881
249.132	18.242	1188.671	902.920
250.147	18.415	1188.044	903.276
251.161	18.516	1187.469	903.291
252.176	18.499	1187.040	902.792
253.190	18.509	1186.167	902.100
254.205	18.534	1185.923	901.970
255.220	18.653	1184.944	901.767
256.234	18.634	1184.154	900.990
257.249	18.639	1183.026	900.077
258.263	18.511	1182.995	899.299
259.278	18.604	1182.545	899.368
260.293	18.554	1182.063	898.659
261.307	18.599	1181.161	898.131
262.322	18.754	1180.159	898.100
263.336	18.798	1179.565	897.797
264.351	18.656	1179.050	896.583
265.366	18.813	1178.239	896.707
266.380	18.794	1177.541	895.999
267.395	18.767	1176.413	894.919
268.409	18.612	1176.031	893.745
269.424	18.641	1175.136	893.136
270.439	18.635	1174.894	892.839
271.453	18.594	1174.090	891.935
272.468	18.595	1172.746	890.843
273.482	18.522	1172.150	889.933
274.497	18.665	1171.236	889.899
275.512	18.717	1170.389	889.448
276.526	18.656	1169.863	888.654
277.541	18.645	1169.310	888.096
278.555	18.590	1168.835	887.376
279.570	18.685	1168.252	887.346
280.585	18.783	1167.369	887.102
281.599	18.861	1166.308	886.618
282.614	18.764	1165.053	885.088
283.628	18.728	1163.905	883.952
284.643	18.832	1162.477	883.321
285.657	18.883	1161.393	882.682
286.672	18.738	1161.135	881.666
287.687	18.892	1159.825	881.381
288.701	18.828	1159.318	880.588
289.716	18.866	1158.679	880.223
290.730	18.855	1157.796	879.417
291.745	18.940	1157.265	879.370
292.760	18.829	1157.028	878.543
293.774	18.970	1156.193	878.553
294.789	18.996	1155.774	878.288
295.803	19.023	1155.136	877.863
296.818	18.925	1154.044	876.458
297.833	18.963	1153.140	875.888
298.847	18.958	1152.217	875.084
299.862	18.936	1151.560	874.397
300.876	18.923	1151.261	874.024
301.891	18.994	1150.929	874.056
302.906	19.121	1150.094	873.989
303.920	19.141	1149.704	873.716
304.935	19.320	1148.427	873.577
305.949	19.291	1148.102	873.106
306.964	19.266	1147.341	872.325
307.979	19.281	1146.191	871.449
308.993	19.105	1145.855	870.225
310.008	19.253	1144.777	870.074
311.022	19.235	1144.589	869.765
312.037	19.311	1143.252	869.054
313.052	19.186	1141.747	867.204
314.066	19.236	1140.768	866.637
315.081	19.051	1140.412	865.362
316.095	19.094	1139.498	864.804
317.110	19.022	1139.009	863.998
318.125	19.058	1138.093	863.407
319.139	19.063	1137.430	862.852
320.154	19.029	1137.037	862.305
321.168	19.090	1136.104	861.828
322.183	19.121	1135.129	861.165
323.197	19.251	1134.525	861.285
324.212	19.019	1134.451	859.992
325.227	19.267	1133.644	860.539
326.241	19.214	1132.943	859.668
327.256	19.115	1132.120	858.473
328.270	19.260	1130.645	858.002
329.285	19.057	1130.222	856.595
330.300	19.196	1129.029	856.305
331.314	19.272	1127.832	855.699
332.329	19.249	1127.195	855.026
333.343	19.253	1126.735	854.620
334.358	19.276	1125.797	853.951
335.373	19.363	1125.217	853.864
336.387	19.435	1124.224	853.391
337.402	19.370	1123.524	852.462
338.416	19.509	1122.659	852.419
339.431	19.451	1122.455	851.903
340.446	19.615	1121.331	851.780
341.460	19.658	1121.004	851.667
342.475	19.760	1120.112	851.419
343.489	19.881	1119.083	851.157
344.504	19.872	1118.244	850.401
345.519	19.958	1117.323	850.046
346.533	19.920	1116.531	849.182
347.548	19.916	1115.873	848.585
348.562	19.792	1115.200	847.393
349.577	19.749	1114.588	846.642
350.592	19.582	1113.547	844.957
351.606	19.639	1112.761	844.566
352.621	19.536	1112.068	843.461
353.635	19.532	1111.652	843.053
354.650	19.603	1110.305	842.304
355.665	19.679	1109.743	842.171
356.679	19.599	1109.397	841.445
357.694	19.706	1108.395	841.132
358.708	19.858	1107.829	841.367
359.723	19.684	1107.686	840.338
360.738	19.782	1107.015	840.229
361.752	19.791	1106.054	839.468
362.767	19.729	1106.061	839.100
363.781	19.741	1105.362	838.552
364.796	19.962	1104.653	839.015
365.810	20.051	1104.097	838.947
366.825	20.062	1103.325	838.339
367.840	20.192	1102.855	838.539
368.854	20.269	1102.478	838.549
369.869	20.227	1101.551	837.566
370.883	20.057	1101.015	836.263
371.898	20.152	1099.575	835.555
372.913	20.089	1099.103	834.818
373.927	20.079	1098.792	834.462
374.942	20.174	1098.376	834.527
375.956	20.067	1097.783	833.488
376.971	20.253	1097.097	833.789
377.986	20.143	1096.744	832.917
379.000	20.310	1096.006	833.087
380.015	20.428	1095.511	833.198
381.029	20.429	1094.591	832.434
382.044	20.391	1094.090	831.795
383.059	20.436	1092.927	831.055
384.073	20.396	1092.566	830.513
385.088	20.378	1091.585	829.608
386.102	20.436	1090.360	828.880
387.117	20.262	1089.665	827.451
388.132	20.241	1088.833	826.644
389.146	20.320	1087.242	825.742
390.161	20.192	1087.059	824.919
391.175	20.244	1086.002	824.293
392.190	20.293	1085.849	824.333
393.205	20.462	1085.067	824.469
394.219	20.472	1084.200	823.783
395.234	20.394	1083.153	822.548
396.248	20.346	1081.929	821.317
397.263	20.299	1081.162	820.441
398.278	20.277	1080.275	819.593
399.292	20.147	1079.850	818.583
400.307	20.128	1078.984	817.763
401.321	20.163	1078.044	817.145
402.336	20.169	1077.512	816.695
403.350	20.275	1076.614	816.446
404.365	20.146	1076.720	815.846
405.380	20.199	1075.982	815.463
406.394	20.309	1074.932	815.108
407.409	20.496	1073.856	815.098
408.423	20.466	1073.490	814.608
409.438	20.387	1073.205	813.949
410.453	20.682	1071.791	814.189
411.467	20.813	1071.302	814.357
412.482	20.728	1070.702	813.432
413.496	20.717	1069.924	812.717
414.511	20.789	1069.119	812.371
415.526	20.908	1068.901	812.688
416.540	20.976	1068.518	812.642
417.555	20.951	1068.162	812.182
418.569	20.814	1067.314	810.827
419.584	20.924	1066.634	810.748
420.599	20.883	1066.479	810.368
421.613	150.449	1401.457	1784.240
422.628	138.468	1450.272	1784.335
