DTS Sentinel unit serial number:	SN413079Multiplexer serial number:	ORYXHardware model number:	OX4-SRSoftware version number:	ORYX F/W v4.00 Oryx Data Collector v3.7.2.0data status	okinstallation	princeton_trtdifferential loss correction	single-endedforward channel	channel 2reverse channel	N/Adate	2019/09/12time	14:25:10forward acquisition time	60.00reverse acquisition time	0.00gamma	496.2192k internal	0.2302k external	0.2302temperature offset calibration	1.0088default loss term (dB/km)	0.3790temperature slope calibration	1.0000multiplexer offset coefficient	1.0000multiplexer slope coefficient	1.0000fibre end	0.00T internal ref (°C)	40.12T ext. ref 1 (°C)	2.28T ext. ref 2 (°C)	34.96length (m)	temperature (°C)	Stokes	anti-Stokes-747.200	-200.000	0.009	0.506
-746.185	-26.605	-0.143	0.086
-745.171	800.000	-0.049	0.166
-744.156	503.763	0.158	0.373
-743.142	-200.000	-0.040	0.306
-742.127	800.000	-0.072	0.319
-741.112	2.900	0.330	0.244
-740.098	23.974	0.241	0.202
-739.083	-200.000	0.021	0.269
-738.069	26.518	-0.309	0.263
-737.054	-200.000	-0.067	-0.353
-736.039	-129.408	0.241	0.034
-735.025	-36.480	0.359	-0.197
-734.010	282.069	-0.140	-0.255
-732.996	24.656	0.058	-0.049
-731.981	-200.000	-0.001	-0.110
-730.966	-10.306	0.274	0.185
-729.952	800.000	-0.079	-0.226
-728.937	82.801	-0.196	-0.217
-727.923	800.000	-0.020	0.071
-726.908	-35.888	-0.235	-0.130
-725.894	-119.271	0.047	-0.008
-724.879	-84.738	-0.150	-0.048
-723.864	241.853	0.036	0.061
-722.850	-200.000	-0.031	0.194
-721.835	-134.870	0.186	0.023
-720.821	-200.000	0.025	0.316
-719.806	-32.417	0.065	0.037
-718.791	235.241	0.075	-0.127
-717.777	11.081	0.135	-0.105
-716.762	-181.628	-0.161	0.003
-715.748	-6.302	0.112	-0.078
-714.733	-56.477	-0.326	-0.147
-713.718	-52.797	0.192	-0.090
-712.704	11.942	-0.150	0.118
-711.689	64.920	-0.266	0.273
-710.675	-200.000	0.089	-0.402
-709.660	800.000	0.070	-0.198
-708.645	103.706	-0.146	0.174
-707.631	93.171	0.081	0.093
-706.616	-12.012	-0.215	0.143
-705.602	-136.018	0.249	-0.030
-704.587	-14.892	0.216	0.141
-703.572	-123.076	-0.298	-0.049
-702.558	21.168	-0.312	0.258
-701.543	327.513	0.035	0.069
-700.529	-143.099	0.197	0.019
-699.514	-83.778	0.151	0.049
-698.499	-200.000	0.042	0.397
-697.485	-200.000	-0.012	-0.182
-696.470	-200.000	0.023	0.172
-695.456	-0.635	-0.126	0.091
-694.441	-200.000	-0.010	0.086
-693.426	428.870	0.108	0.237
-692.412	-159.509	-0.227	-0.013
-691.397	-67.415	-0.042	0.017
-690.383	743.364	-0.133	-0.364
-689.368	-200.000	0.013	0.086
-688.354	-157.119	-0.209	0.013
-687.339	-69.279	-0.255	-0.100
-686.324	231.557	-0.095	0.158
-685.310	-116.127	0.227	0.043
-684.295	-56.692	-0.370	-0.166
-683.281	288.205	0.089	-0.164
-682.266	800.000	-0.087	-0.284
-681.251	58.302	-0.248	0.247
-680.237	800.000	-0.030	0.086
-679.222	-200.000	0.008	-0.092
-678.208	-91.951	0.112	0.032
-677.193	-200.000	-0.021	0.166
-676.178	12.563	-0.136	0.106
-675.164	2.152	0.164	0.120
-674.149	-200.000	-0.030	-0.140
-673.135	659.676	0.069	-0.181
-672.120	120.986	0.068	-0.086
-671.105	183.767	0.011	0.017
-670.091	224.882	0.153	0.251
-669.076	-200.000	-0.032	0.210
-668.062	-91.570	-0.416	-0.120
-667.047	-200.000	0.003	0.120
-666.032	-79.602	0.271	-0.093
-665.018	165.746	-0.125	0.180
-664.003	-42.971	-0.162	0.084
-662.989	-101.184	-0.091	0.023
-661.974	2.019	-0.322	-0.236
-660.959	109.258	0.248	-0.301
-659.945	-53.871	0.095	-0.044
-658.930	-59.263	-0.360	0.157
-657.916	-178.366	-0.179	-0.004
-656.901	205.278	-0.058	-0.091
-655.886	197.257	-0.037	-0.058
-654.872	44.239	0.181	-0.169
-653.857	108.540	-0.348	-0.422
-652.843	-124.739	-0.507	-0.080
-651.828	139.098	-0.085	0.113
-650.814	-200.000	-0.014	0.264
-649.799	154.827	0.023	-0.033
-648.784	-97.608	0.159	-0.042
-647.770	149.803	0.026	0.036
-646.755	102.559	0.085	0.101
-645.741	58.053	0.208	-0.207
-644.726	4.147	-0.149	-0.111
-643.711	105.326	0.173	0.207
-642.697	-200.000	0.000	0.230
-641.682	322.419	0.167	-0.324
-640.668	800.000	-0.110	0.402
-639.653	-15.883	-0.378	0.244
-638.638	-22.286	0.416	0.256
-637.624	65.094	-0.224	0.230
-636.609	-200.000	0.029	0.257
-635.595	-200.000	-0.069	-0.391
-634.580	-47.348	-0.398	-0.196
-633.565	800.000	0.046	-0.141
-632.551	-200.000	0.021	-0.104
-631.536	-200.000	0.101	-0.481
-630.522	-84.978	-0.236	-0.075
-629.507	158.105	-0.121	0.171
-628.492	-6.786	-0.102	-0.071
-627.478	-200.000	0.015	0.080
-626.463	-33.944	-0.116	0.065
-625.449	184.181	-0.107	-0.161
-624.434	-32.983	-0.133	-0.075
-623.419	-200.000	0.005	-0.429
-622.405	-200.000	-0.002	-0.027
-621.390	-86.412	-0.179	-0.056
-620.376	-22.853	0.245	-0.150
-619.361	-75.478	-0.142	0.051
-618.346	-200.000	-0.038	0.175
-617.332	800.000	-0.007	0.024
-616.317	800.000	0.045	0.158
-615.303	-97.166	0.194	0.052
-614.288	69.626	0.056	-0.059
-613.273	-45.856	0.271	0.135
-612.259	-163.747	-0.322	0.015
-611.244	-107.904	-0.212	-0.047
-610.230	-200.000	-0.004	-0.048
-609.215	800.000	-0.096	-0.335
-608.201	-57.287	-0.068	0.030
-607.186	-40.463	-0.109	0.058
-606.171	-107.853	-0.268	-0.059
-605.157	333.821	-0.233	0.457
-604.142	45.159	-0.102	0.095
-603.128	162.444	-0.119	0.170
-602.113	-71.442	-0.024	-0.009
-601.098	1.754	-0.129	0.095
-600.084	105.050	-0.076	0.091
-599.069	143.826	-0.086	0.116
-598.055	-41.698	-0.143	0.075
-597.040	-127.757	0.338	0.049
-596.025	800.000	-0.060	-0.175
-595.011	-172.834	-0.261	0.008
-593.996	785.449	0.183	0.508
-592.982	-169.153	-0.278	0.010
-591.967	318.132	0.110	-0.210
-590.952	24.486	-0.429	0.359
-589.938	-200.000	-0.018	0.167
-588.923	301.226	-0.138	0.258
-587.909	-159.278	0.254	0.014
-586.894	42.089	0.177	-0.163
-585.879	-200.000	-0.075	-0.379
-584.865	-200.000	-0.003	0.070
-583.850	312.822	0.086	0.164
-582.836	-73.746	0.290	-0.107
-581.821	-48.170	-0.077	-0.038
-580.806	141.727	0.089	-0.119
-579.792	-16.272	0.153	-0.099
-578.777	125.369	-0.058	-0.074
-577.763	181.045	0.059	0.088
-576.748	-149.761	-0.499	0.040
-575.733	-80.402	0.291	0.099
-574.719	156.688	0.148	0.208
-573.704	-45.175	-0.195	0.098
-572.690	800.000	-0.004	0.017
-571.675	800.000	-0.065	-0.255
-570.661	-180.579	-0.167	0.003
-569.646	14.006	0.083	0.065
-568.631	-133.334	-0.226	0.029
-567.617	-200.000	0.001	0.059
-566.602	-105.106	-0.044	0.010
-565.588	460.688	0.105	0.238
-564.573	-129.354	0.411	-0.058
-563.558	229.276	-0.159	0.263
-562.544	-63.380	-0.146	0.061
-561.529	121.756	-0.108	-0.136
-560.515	-48.239	-0.150	0.073
-559.500	262.551	0.091	-0.161
-558.485	-31.252	0.141	-0.080
-557.471	326.141	0.157	-0.304
-556.456	800.000	0.058	-0.173
-555.442	-169.201	-0.204	-0.008
-554.427	-200.000	-0.008	-0.455
-553.412	-15.753	-0.207	-0.134
-552.398	-45.923	0.039	0.019
-551.383	-16.693	0.272	-0.174
-550.369	-73.856	-0.108	-0.040
-549.354	-26.074	0.219	0.130
-548.339	2.931	0.266	-0.195
-547.325	800.000	-0.053	-0.178
-546.310	86.548	0.049	0.055
-545.296	-200.000	-0.026	-0.304
-544.281	-200.000	0.057	0.398
-543.266	-200.000	0.038	0.201
-542.252	59.100	0.026	0.026
-541.237	350.205	-0.196	0.391
-540.223	149.731	-0.172	-0.235
-539.208	-111.928	-0.130	0.027
-538.193	29.835	0.027	0.023
-537.179	12.232	0.172	0.134
-536.164	280.976	-0.063	-0.114
-535.150	40.461	0.063	-0.057
-534.135	-108.243	0.249	0.054
-533.121	-200.000	-0.007	0.083
-532.106	-200.000	-0.010	0.072
-531.091	800.000	-0.056	-0.163
-530.077	683.286	0.076	-0.200
-529.062	8.580	-0.083	0.063
-528.048	65.767	0.239	0.245
-527.033	75.212	-0.081	0.087
-526.018	18.501	-0.127	0.102
-525.004	175.359	-0.035	0.051
-523.989	-35.064	0.297	0.163
-522.975	-200.000	-0.026	0.172
-521.960	-200.000	0.004	-0.334
-520.945	-200.000	0.006	0.054
-519.931	-187.934	0.097	-0.001
-518.916	-200.000	-0.065	-0.308
-517.902	-34.657	0.222	0.123
-516.887	-200.000	-0.078	0.347
-515.872	12.600	0.301	0.235
-514.858	146.101	0.204	0.277
-513.843	67.953	0.130	0.134
-512.829	800.000	0.016	-0.050
-511.814	8.070	0.180	0.136
-510.799	78.332	-0.179	-0.193
-509.785	54.504	-0.140	0.136
-508.770	-74.336	0.162	0.059
-507.756	-35.476	-0.275	0.151
-506.741	756.999	0.110	-0.301
-505.726	800.000	0.020	0.062
-504.712	-70.403	0.225	0.086
-503.697	554.922	-0.032	-0.078
-502.683	-98.087	-0.230	0.060
-501.668	82.901	0.049	0.053
-500.653	-65.563	0.122	0.050
-499.639	-130.783	0.291	-0.039
-498.624	77.102	0.092	-0.099
-497.610	-57.349	0.098	-0.043
-496.595	496.903	-0.084	-0.194
-495.581	-43.391	-0.422	0.216
-494.566	-185.079	0.051	0.001
-493.551	437.087	-0.098	-0.215
-492.537	-139.887	0.635	-0.068
-491.522	18.821	0.135	-0.109
-490.508	-200.000	0.023	-0.400
-489.493	479.014	-0.055	0.126
-488.478	-145.826	0.345	-0.031
-487.464	-131.581	0.384	-0.051
-486.449	800.000	-0.062	-0.178
-485.435	1.388	0.195	-0.142
-484.420	-110.142	-0.286	-0.060
-483.405	-13.127	-0.075	-0.049
-482.391	310.682	0.221	-0.417
-481.376	610.550	0.121	-0.305
-480.362	800.000	0.061	-0.183
-479.347	73.434	-0.124	0.131
-478.332	-35.755	-0.119	-0.065
-477.318	-120.347	-0.037	-0.006
-476.303	-200.000	0.062	0.297
-475.289	454.995	-0.124	-0.277
-474.274	10.481	0.315	-0.242
-473.259	-200.000	0.017	-0.098
-472.245	-200.000	-0.014	0.068
-471.230	-39.495	-0.243	0.128
-470.216	-88.636	0.298	-0.089
-469.201	-14.286	0.171	0.111
-468.186	-200.000	-0.004	-0.063
-467.172	15.323	-0.175	-0.138
-466.157	-123.416	0.158	-0.025
-465.143	124.767	-0.150	-0.191
-464.128	199.864	-0.137	-0.212
-463.113	-200.000	0.034	0.205
-462.099	-200.000	0.023	0.260
-461.084	19.057	-0.180	-0.146
-460.070	-35.118	-0.040	0.022
-459.055	-140.402	-0.051	0.005
-458.040	445.062	-0.100	0.222
-457.026	-17.875	-0.180	-0.114
-456.011	382.152	-0.089	-0.184
-454.997	-117.604	0.264	0.048
-453.982	-186.534	-0.119	0.002
-452.968	-200.000	-0.050	0.356
-451.953	-96.856	0.190	-0.050
-450.938	800.000	0.117	-0.336
-449.924	-200.000	0.020	-0.114
-448.909	-61.960	-0.110	-0.046
-447.895	-26.274	0.273	0.162
-446.880	86.567	0.176	0.196
-445.865	-84.632	0.162	0.052
-444.851	-114.233	-0.253	0.049
-443.836	786.132	-0.055	-0.152
-442.822	-102.317	0.162	-0.039
-441.807	-69.204	0.069	0.027
-440.792	289.195	0.035	-0.064
-439.778	47.894	-0.268	0.252
-438.763	142.961	0.063	-0.084
-437.749	-200.000	0.002	-0.056
-436.734	-71.898	-0.252	-0.095
-435.719	233.808	-0.098	-0.162
-434.705	-104.653	0.279	0.065
-433.690	-142.909	-0.367	-0.036
-432.676	-200.000	-0.007	0.134
-431.661	800.000	0.050	0.156
-430.646	27.105	-0.201	0.170
-429.632	-131.682	-0.133	-0.018
-428.617	-200.000	0.024	-0.109
-427.603	245.304	-0.127	0.215
-426.588	-39.140	-0.113	-0.060
-425.573	-77.304	-0.112	0.039
-424.559	126.510	0.113	0.144
-423.544	414.850	0.104	-0.224
-422.530	128.417	-0.109	-0.140
-421.515	-200.000	-0.041	-0.344
-420.500	-48.013	-0.093	0.045
-419.486	-50.279	0.204	0.097
-418.471	270.078	0.101	0.180
-417.457	-73.625	-0.147	0.054
-416.442	-16.081	-0.165	-0.106
-415.428	-24.690	0.131	0.078
-414.413	-33.760	-0.156	0.087
-413.398	-119.116	0.156	0.028
-412.384	-59.250	0.273	-0.118
-411.369	622.267	-0.076	-0.191
-410.355	67.514	-0.217	-0.223
-409.340	-137.273	0.317	-0.036
-408.325	524.972	0.031	-0.075
-407.311	-200.000	-0.034	0.202
-406.296	49.574	0.123	0.117
-405.282	144.952	0.171	0.229
-404.267	800.000	-0.048	0.145
-403.252	185.602	-0.182	-0.273
-402.238	-200.000	0.018	0.189
-401.223	-200.000	0.009	0.101
-400.209	-38.253	-0.096	-0.051
-399.194	-200.000	0.020	0.150
-398.179	-200.000	0.032	-0.255
-397.165	497.341	-0.056	0.131
-396.150	-195.833	-0.073	-0.001
-395.136	34.955	-0.062	0.054
-394.121	-11.536	0.143	0.095
-393.106	222.406	0.111	-0.179
-392.092	-118.195	0.175	0.031
-391.077	317.589	0.210	0.400
-390.063	-17.392	0.340	0.215
-389.048	15.288	-0.176	0.139
-388.033	-200.000	0.027	-0.277
-387.019	-200.000	-0.019	0.111
-386.004	-200.000	-0.024	-0.165
-384.990	-7.236	-0.102	0.069
-383.975	787.963	0.108	-0.299
-382.960	800.000	-0.042	-0.151
-381.946	124.296	-0.107	-0.135
-380.931	-200.000	-0.050	0.262
-379.917	88.201	-0.229	-0.255
-378.902	-35.574	-0.073	0.040
-377.888	-78.940	0.150	-0.051
-376.873	60.531	-0.122	0.121
-375.858	117.096	0.211	0.260
-374.844	57.719	-0.059	-0.058
-373.829	-200.000	-0.051	0.376
-372.815	100.136	-0.122	-0.142
-371.800	-8.996	-0.027	-0.018
-370.785	-87.978	-0.203	0.061
-369.771	800.000	0.020	0.085
-368.756	-130.654	0.209	-0.028
-367.742	-114.800	0.407	0.078
-366.727	-46.804	0.159	-0.078
-365.712	-200.000	-0.015	-0.190
-364.698	-26.168	0.116	-0.069
-363.683	-106.041	-0.210	0.048
-362.669	-28.808	0.269	-0.155
-361.654	-100.190	0.072	0.018
-360.639	-62.025	0.077	0.032
-359.625	21.529	0.118	-0.096
-358.610	26.240	0.179	0.150
-357.596	-89.574	0.083	-0.024
-356.581	520.022	0.100	-0.236
-355.566	154.219	-0.218	-0.301
-354.552	134.130	0.133	0.173
-353.537	296.053	-0.053	0.097
-352.523	800.000	-0.053	-0.162
-351.508	-200.000	-0.039	-0.540
-350.493	-91.098	-0.237	0.068
-349.479	144.866	-0.225	0.302
-348.464	-139.998	-0.314	0.033
-347.450	127.079	-0.116	0.148
-346.435	-125.906	-0.538	-0.081
-345.420	800.000	-0.079	-0.285
-344.406	-200.000	-0.010	0.057
-343.391	-130.584	-0.103	0.014
-342.377	-66.080	-0.263	-0.105
-341.362	-98.359	0.169	0.043
-340.348	-200.000	-0.002	0.119
-339.333	-133.428	-0.185	0.023
-338.318	84.248	0.055	0.061
-337.304	-61.153	-0.304	0.128
-336.289	418.986	-0.013	-0.027
-335.275	-122.799	0.191	0.031
-334.260	-32.868	0.078	-0.044
-333.245	-22.006	0.095	-0.058
-332.231	-62.533	0.237	-0.099
-331.216	99.544	0.097	-0.113
-330.202	800.000	-0.009	0.030
-329.187	-8.473	0.229	-0.154
-328.172	323.928	-0.154	-0.295
-327.158	-200.000	0.006	-0.212
-326.143	21.355	-0.063	0.051
-325.129	-42.959	0.065	-0.033
-324.114	36.858	0.128	-0.113
-323.099	-200.000	0.015	0.392
-322.085	-6.977	-0.088	-0.060
-321.070	-200.000	0.012	-0.163
-320.056	-44.483	0.125	-0.063
-319.041	-50.159	0.339	0.161
-318.026	-70.978	0.192	0.072
-317.012	-117.029	0.111	0.020
-315.997	-70.784	0.056	-0.021
-314.983	458.172	-0.101	0.226
-313.968	-2.510	-0.133	0.094
-312.953	-43.782	0.028	-0.014
-311.939	-200.000	-0.061	0.375
-310.924	-200.000	-0.077	0.545
-309.910	118.853	0.118	0.146
-308.895	33.571	-0.148	-0.129
-307.880	-88.094	-0.304	0.091
-306.866	103.502	0.133	0.157
-305.851	-200.000	-0.015	0.071
-304.837	-200.000	-0.004	-0.073
-303.822	-200.000	0.026	-0.253
-302.807	370.030	-0.036	-0.073
-301.793	800.000	0.025	-0.092
-300.778	-48.365	0.388	0.187
-299.764	89.557	0.101	-0.113
-298.749	-35.820	-0.310	-0.168
-297.735	800.000	0.050	-0.145
-296.720	61.925	-0.098	0.098
-295.705	-84.358	0.114	0.036
-294.691	-161.082	-0.143	0.007
-293.676	800.000	0.034	-0.127
-292.662	-86.617	0.213	0.065
-291.647	800.000	0.076	-0.308
-290.632	-119.785	0.229	-0.040
-289.618	76.808	-0.028	-0.030
-288.603	-200.000	0.019	-0.339
-287.589	583.377	0.050	-0.123
-286.574	-17.888	0.253	0.159
-285.559	-200.000	-0.004	0.271
-284.545	3.908	-0.523	0.383
-283.530	450.624	0.161	-0.355
-282.516	-52.514	0.074	0.034
-281.501	-200.000	-0.008	0.092
-280.486	729.965	-0.037	0.099
-279.472	-80.175	-0.184	0.062
-278.457	-200.000	-0.027	-0.269
-277.443	-39.268	-0.118	-0.062
-276.428	-67.304	-0.182	0.072
-275.413	-14.389	-0.259	0.167
-274.399	-40.017	0.117	0.061
-273.384	-56.652	0.145	0.064
-272.370	387.651	-0.037	0.076
-271.355	-139.024	-0.389	0.042
-270.340	-200.000	-0.008	-0.129
-269.326	-138.009	-0.123	0.014
-268.311	87.199	0.152	0.169
-267.297	20.327	0.129	-0.104
-266.282	-98.879	0.074	0.019
-265.267	485.120	0.088	-0.200
-264.253	800.000	0.122	-0.358
-263.238	800.000	-0.036	0.142
-262.224	229.020	-0.293	0.478
-261.209	16.597	0.108	-0.086
-260.195	143.427	0.105	-0.139
-259.180	-200.000	-0.044	0.205
-258.165	51.851	-0.066	0.062
-257.151	-114.658	-0.176	-0.034
-256.136	-200.000	0.021	-0.189
-255.122	330.068	-0.050	0.097
-254.107	-200.000	-0.028	0.378
-253.092	800.000	0.155	0.448
-252.078	-200.000	-0.005	-0.104
-251.063	86.072	-0.074	0.081
-250.049	122.157	-0.152	-0.190
-249.034	-29.873	0.159	0.091
-248.019	4.494	0.103	0.075
-247.005	-167.739	0.189	0.007
-245.990	800.000	0.067	-0.216
-244.976	-200.000	0.042	-0.190
-243.961	800.000	-0.098	0.330
-242.946	800.000	0.043	-0.177
-241.932	-200.000	-0.031	0.338
-240.917	3.665	0.095	-0.069
-239.903	-200.000	0.000	-0.147
-238.888	-200.000	-0.038	-0.306
-237.873	-200.000	-0.015	0.187
-236.859	-200.000	-0.041	0.259
-235.844	-18.879	-0.103	0.064
-234.830	-83.581	0.272	0.087
-233.815	-200.000	-0.011	0.058
-232.800	800.000	0.032	0.093
-231.786	276.873	-0.089	0.157
-230.771	648.769	-0.058	0.148
-229.757	104.320	0.113	-0.133
-228.742	261.239	-0.174	-0.301
-227.727	65.777	0.230	0.233
-226.713	-101.086	-0.271	0.066
-225.698	77.057	-0.213	-0.226
-224.684	800.000	-0.090	-0.286
-223.669	-108.680	0.186	0.040
-222.655	-200.000	0.010	0.152
-221.640	39.015	-0.340	-0.304
-220.625	247.601	-0.083	0.141
-219.611	-139.033	-0.230	0.025
-218.596	-200.000	-0.025	0.138
-217.582	417.376	-0.112	-0.239
-216.567	-166.045	0.371	0.016
-215.552	-55.759	0.210	0.094
-214.538	-129.958	0.211	-0.029
-213.523	-16.922	0.171	0.108
-212.509	-12.453	0.130	0.085
-211.494	-9.979	-0.148	-0.098
-210.479	-173.713	-0.386	0.011
-209.465	301.042	-0.120	0.221
-208.450	-55.215	0.226	-0.102
-207.436	102.012	-0.188	-0.220
-206.421	4.696	-0.216	-0.158
-205.406	106.004	0.094	-0.111
-204.392	541.668	-0.066	0.156
-203.377	-28.016	-0.208	0.120
-202.363	-161.670	-0.295	-0.015
-201.348	-200.000	-0.014	0.101
-200.333	-93.083	0.134	-0.037
-199.319	-104.336	0.276	0.064
-198.304	-19.265	-0.153	0.095
-197.290	-200.000	0.006	0.245
-196.275	25.153	0.218	-0.180
-195.260	24.809	-0.185	0.153
-194.246	-120.440	-0.079	0.013
-193.231	-17.710	0.460	-0.288
-192.217	-0.107	-0.089	-0.064
-191.202	-108.004	0.326	0.071
-190.187	-136.077	-0.186	0.022
-189.173	-127.898	0.225	0.032
-188.158	92.620	-0.147	0.165
-187.144	-126.125	-0.065	0.010
-186.129	6.944	0.147	-0.109
-185.114	-92.731	-0.224	-0.063
-184.100	-171.589	-0.092	0.003
-183.085	-200.000	-0.060	-0.400
-182.071	17.534	0.096	-0.076
-181.056	-57.184	0.138	0.061
-180.042	-125.041	0.323	0.049
-179.027	-19.445	-0.122	-0.076
-178.012	3.026	0.184	0.133
-176.998	-70.366	-0.141	-0.053
-175.983	-76.698	0.345	0.120
-174.969	438.352	0.083	0.181
-173.954	-31.483	0.093	-0.052
-172.939	193.187	0.151	-0.227
-171.925	-160.722	-0.136	0.007
-170.910	800.000	0.005	-0.018
-169.896	48.516	-0.121	-0.113
-168.881	-57.499	-0.179	0.078
-167.866	-46.002	-0.244	-0.120
-166.852	91.013	0.134	-0.150
-165.837	477.685	-0.082	-0.186
-164.823	53.125	-0.101	0.096
-163.808	800.000	0.068	0.190
-162.793	-135.730	-0.029	0.003
-161.779	-200.000	-0.002	-0.368
-160.764	339.381	0.079	0.154
-159.750	92.828	-0.158	0.177
-158.735	800.000	0.097	0.292
-157.720	-200.000	-0.057	-0.307
-156.706	37.336	-0.099	-0.087
-155.691	-200.000	0.099	0.442
-154.677	307.605	-0.164	-0.304
-153.662	-47.972	-0.055	0.027
-152.647	-65.523	0.228	-0.091
-151.633	-46.496	-0.128	-0.063
-150.618	123.262	0.190	-0.238
-149.604	-9.879	0.263	0.174
-148.589	170.743	-0.090	-0.128
-147.574	-32.190	0.052	0.029
-146.560	38.574	0.332	0.295
-145.545	-145.905	0.145	-0.013
-144.531	-27.606	-0.023	0.013
-143.516	-200.000	-0.036	0.218
-142.502	-54.172	0.177	-0.080
-141.487	612.467	0.069	0.172
-140.472	115.402	0.213	-0.259
-139.458	800.000	0.027	0.077
-138.443	-49.642	0.228	-0.108
-137.429	-88.628	-0.199	0.059
-136.414	-200.000	-0.020	-0.127
-135.399	367.417	-0.113	-0.227
-134.385	160.734	-0.161	0.224
-133.370	-200.000	-0.032	0.325
-132.356	-48.063	-0.263	-0.127
-131.341	-53.524	-0.157	0.071
-130.326	46.742	0.174	0.161
-129.312	615.801	0.108	-0.270
-128.297	-57.220	-0.305	0.133
-127.283	-146.088	-0.102	-0.009
-126.268	-45.674	-0.026	0.013
-125.253	-38.057	-0.085	0.045
-124.239	-200.000	0.009	0.058
-123.224	-43.900	0.255	0.128
-122.210	131.837	-0.264	0.338
-121.195	-108.123	-0.015	-0.003
-120.180	-9.300	0.175	0.116
-119.166	395.621	-0.123	0.255
-118.151	38.051	-0.144	-0.128
-117.137	47.684	0.118	0.109
-116.122	116.516	0.247	-0.301
-115.107	-64.842	0.334	0.134
-114.093	-125.379	0.059	-0.009
-113.078	-200.000	0.058	0.397
-112.064	-200.000	-0.007	0.101
-111.049	59.202	-0.176	-0.172
-110.034	115.015	-0.271	-0.329
-109.020	590.855	0.149	0.367
-108.005	55.277	0.219	0.211
-106.991	-97.850	-0.213	-0.055
-105.976	-200.000	0.005	-0.344
-104.962	-36.769	-0.021	0.011
-103.947	96.111	-0.180	-0.204
-102.932	61.410	0.241	0.238
-101.918	-52.397	0.435	0.200
-100.903	-74.314	0.497	0.179
-99.889	-200.000	0.028	-0.187
-98.874	-136.750	-0.317	-0.036
-97.859	48.570	-0.026	-0.024
-96.845	324.110	-0.223	0.423
-95.830	-90.346	0.127	-0.037
-94.816	800.000	0.087	-0.253
-93.801	800.000	0.041	-0.124
-92.786	243.600	-0.097	0.161
-91.772	-200.000	-0.016	0.119
-90.757	-45.249	-0.174	-0.086
-89.743	21.528	-0.288	-0.232
-88.728	69.186	0.123	0.126
-87.713	-149.816	0.260	-0.020
-86.699	-26.929	0.058	-0.034
-85.684	-160.773	0.244	-0.013
-84.670	-61.357	-0.070	-0.029
-83.655	238.962	-0.228	-0.377
-82.640	800.000	0.039	0.120
-81.626	800.000	-0.114	0.329
-80.611	215.306	0.042	-0.066
-79.597	243.095	-0.200	0.333
-78.582	-200.000	0.051	0.321
-77.567	-180.658	-0.164	0.003
-76.553	198.010	0.157	0.238
-75.538	761.933	0.062	-0.168
-74.524	800.000	-0.054	0.203
-73.509	-144.054	0.179	-0.017
-72.494	-200.000	0.020	0.090
-71.480	-109.707	-0.137	-0.029
-70.465	-200.000	0.001	0.200
-69.451	6.917	0.284	-0.210
-68.436	-200.000	-0.003	0.073
-67.422	800.000	0.015	0.044
-66.407	-195.163	-0.228	-0.002
-65.392	-68.384	0.072	0.028
-64.378	-94.815	-0.069	0.018
-63.363	-99.654	0.436	0.108
-62.349	-118.672	0.130	0.023
-61.334	174.028	-0.592	-0.849
-60.319	742.604	0.068	0.181
-59.305	414.605	-0.321	-0.678
-58.290	104.452	0.591	0.691
-57.276	800.000	0.580	1.620
-56.261	-200.000	77.856	508.202
-55.246	514.105	1332.494	3084.271
-54.232	148.550	2564.584	3437.087
-53.217	108.817	2343.084	2778.340
-52.203	49.074	1956.917	1823.666
-51.188	43.319	1744.242	1580.520
-50.173	40.547	1698.171	1517.542
-49.159	54.650	1734.560	1659.155
-48.144	59.946	1753.442	1718.007
-47.130	43.288	1716.833	1555.198
-46.115	40.220	1702.265	1518.450
-45.100	40.034	1698.223	1513.361
-44.086	40.009	1695.953	1511.080
-43.071	40.007	1692.766	1508.166
-42.057	39.964	1690.485	1505.752
-41.042	39.993	1688.186	1503.865
-40.027	39.964	1687.018	1502.544
-39.013	40.002	1684.816	1500.807
-37.998	39.985	1683.444	1499.400
-36.984	40.075	1681.700	1498.465
-35.969	40.060	1680.870	1497.555
-34.954	40.265	1678.214	1496.676
-33.940	40.262	1676.478	1495.053
-32.925	40.087	1674.794	1492.165
-31.911	40.057	1673.304	1490.558
-30.896	40.058	1671.286	1488.703
-29.881	40.119	1669.566	1487.572
-28.867	40.082	1667.795	1485.660
-27.852	40.094	1666.816	1484.818
-26.838	40.100	1665.099	1483.275
-25.823	40.117	1663.833	1482.215
-24.809	40.226	1662.326	1481.634
-23.794	40.119	1661.355	1479.902
-22.779	40.185	1659.762	1478.920
-21.765	40.156	1657.579	1476.701
-20.750	40.132	1655.738	1474.821
-19.736	40.192	1654.369	1473.994
-18.721	40.181	1653.438	1473.022
-17.706	40.199	1651.385	1471.265
-16.692	40.158	1649.923	1469.601
-15.677	40.150	1648.880	1468.558
-14.663	40.133	1647.545	1467.180
-13.648	40.156	1646.156	1466.061
-12.633	40.135	1644.681	1464.534
-11.619	40.120	1643.005	1462.869
-10.604	40.157	1641.354	1461.611
-9.590	40.161	1640.372	1460.710
-8.575	40.145	1638.738	1459.079
-7.560	40.192	1637.379	1458.159
-6.546	40.122	1636.645	1456.934
-5.531	40.134	1635.479	1455.921
-4.517	40.111	1634.002	1454.380
-3.502	40.070	1633.201	1453.309
-2.487	40.179	1631.281	1452.345
-1.473	39.980	1619.614	1440.449
-0.458	37.179	1598.938	1401.808
0.556	33.546	1597.904	1364.605
1.571	30.876	1622.481	1365.926
2.586	30.142	1636.933	1372.533
3.600	26.293	1581.590	1298.416
4.615	14.568	1462.219	1121.933
5.629	4.347	1389.009	1000.075
6.644	2.422	1379.387	980.729
7.659	2.316	1378.012	978.989
8.673	2.255	1376.953	977.759
9.688	2.138	1375.244	975.710
10.702	1.996	1372.486	972.763
11.717	5.594	1380.381	1001.314
12.731	16.685	1401.431	1088.152
13.746	25.320	1416.604	1155.683
14.761	26.878	1417.905	1166.671
15.775	27.104	1417.827	1167.958
16.790	27.224	1416.987	1167.935
17.804	27.328	1416.520	1168.111
18.819	27.459	1416.159	1168.553
19.834	27.487	1415.643	1168.205
20.848	27.645	1414.541	1168.204
21.863	27.615	1413.560	1167.098
22.877	27.571	1413.244	1166.450
23.892	27.556	1411.949	1165.186
24.907	27.542	1411.330	1164.481
25.921	27.602	1410.481	1164.056
26.936	27.506	1409.659	1162.662
27.950	27.475	1408.506	1161.414
28.965	27.632	1406.681	1160.803
29.980	27.566	1405.498	1159.306
30.994	27.445	1404.947	1157.981
32.009	27.630	1403.348	1157.738
33.023	27.481	1402.838	1156.267
34.038	27.598	1401.172	1155.531
35.053	27.565	1400.359	1154.549
36.067	27.553	1399.329	1153.520
37.082	27.491	1398.240	1152.128
38.096	27.495	1397.736	1151.639
39.111	27.521	1396.414	1150.614
40.126	27.486	1395.719	1149.719
41.140	27.512	1394.878	1149.085
42.155	27.491	1395.280	1149.185
43.169	27.587	1395.082	1149.522
44.184	27.461	1394.811	1148.403
45.199	27.435	1394.401	1147.801
46.213	27.508	1393.732	1147.607
47.228	27.575	1392.670	1147.052
48.242	27.605	1391.418	1146.109
49.257	27.571	1389.655	1144.345
50.271	27.514	1388.586	1143.004
51.286	27.551	1387.165	1141.965
52.301	27.483	1386.082	1140.545
53.315	27.471	1385.012	1139.491
54.330	27.509	1383.904	1138.716
55.344	27.551	1382.769	1137.943
56.359	27.459	1381.985	1136.626
57.374	27.473	1381.143	1135.915
58.388	27.530	1380.543	1135.677
59.403	27.487	1380.364	1135.166
60.417	27.375	1379.781	1133.882
61.432	27.459	1378.449	1133.211
62.447	27.458	1377.905	1132.661
63.461	27.455	1376.975	1131.779
64.476	27.591	1375.449	1131.264
65.490	27.615	1374.173	1130.265
66.505	27.537	1372.896	1128.633
67.520	27.642	1371.617	1128.129
68.534	27.504	1370.986	1126.655
69.549	27.454	1370.159	1125.568
70.563	27.574	1368.560	1124.899
71.578	27.590	1367.804	1124.277
72.593	27.495	1366.906	1122.852
73.607	27.515	1366.305	1122.383
74.622	27.494	1365.903	1121.821
75.636	27.486	1365.340	1121.212
76.651	27.508	1364.324	1120.414
77.666	27.435	1364.268	1119.820
78.680	27.581	1363.416	1119.920
79.695	27.605	1362.498	1119.210
80.709	27.467	1361.637	1117.561
81.724	27.434	1361.088	1116.809
82.739	27.528	1360.019	1116.410
83.753	27.640	1358.592	1115.820
84.768	27.679	1357.326	1114.921
85.782	27.564	1357.058	1113.898
86.797	27.577	1355.477	1112.584
87.812	27.558	1354.282	1111.388
88.826	27.663	1353.269	1111.100
89.841	27.516	1352.337	1109.338
90.855	27.646	1350.957	1108.898
91.870	27.538	1350.587	1107.842
92.884	27.596	1349.921	1107.548
93.899	27.617	1348.561	1106.462
94.914	27.584	1348.371	1106.011
95.928	27.650	1347.118	1105.282
96.943	27.665	1346.243	1104.561
97.957	27.576	1346.024	1103.744
98.972	27.595	1344.998	1102.922
99.987	27.565	1344.138	1101.934
101.001	27.541	1343.179	1100.906
102.016	27.540	1342.145	1099.957
103.030	27.547	1341.215	1099.137
104.045	27.438	1340.664	1097.931
105.060	27.549	1339.623	1097.652
106.074	27.699	1338.186	1097.278
107.089	27.611	1337.322	1095.946
108.103	27.619	1336.179	1094.959
109.118	27.674	1335.209	1094.399
110.133	27.730	1334.211	1093.822
111.147	27.645	1333.031	1092.246
112.162	27.726	1332.003	1091.791
113.176	27.714	1330.946	1090.757
114.191	27.718	1330.199	1090.072
115.206	27.704	1328.946	1088.864
116.220	27.648	1328.035	1087.690
117.235	27.745	1326.813	1087.168
118.249	27.625	1326.366	1085.994
119.264	27.657	1325.313	1085.224
120.279	27.665	1324.896	1084.836
121.293	27.662	1324.024	1084.004
122.308	27.609	1323.277	1082.983
123.322	27.615	1322.099	1081.960
124.337	27.695	1321.197	1081.598
125.352	27.880	1320.018	1081.634
126.366	27.664	1319.506	1079.839
127.381	27.745	1318.512	1079.412
128.395	27.765	1317.673	1078.745
129.410	27.684	1316.828	1077.484
130.424	27.679	1316.501	1077.086
131.439	27.740	1315.336	1076.403
132.454	27.672	1314.915	1075.562
133.468	27.742	1314.116	1075.224
134.483	27.748	1313.453	1074.624
135.497	27.790	1312.489	1073.983
136.512	27.676	1311.669	1072.550
137.527	27.775	1310.467	1072.050
138.541	27.729	1309.325	1070.753
139.556	27.757	1307.935	1069.683
140.570	27.730	1307.349	1068.954
141.585	27.705	1306.192	1067.769
142.600	27.640	1305.153	1066.443
143.614	27.663	1304.281	1065.768
144.629	27.661	1303.635	1065.135
145.643	27.682	1302.023	1063.845
146.658	27.636	1301.290	1062.884
147.673	27.660	1300.312	1062.136
148.687	27.666	1299.311	1061.259
149.702	27.603	1298.206	1059.892
150.716	27.564	1296.797	1058.421
151.731	27.742	1295.771	1058.525
152.746	27.639	1294.782	1057.025
153.760	27.622	1293.791	1056.025
154.775	27.647	1292.496	1055.018
155.789	27.761	1291.786	1055.007
156.804	27.634	1290.894	1053.451
157.819	27.627	1290.295	1052.825
158.833	27.611	1289.899	1052.319
159.848	27.687	1288.844	1051.804
160.862	27.783	1288.159	1051.707
161.877	27.741	1287.075	1050.485
162.892	27.707	1286.582	1049.792
163.906	27.739	1285.615	1049.094
164.921	27.842	1284.827	1048.955
165.935	27.715	1284.165	1047.587
166.950	27.697	1283.784	1047.083
167.964	27.830	1283.104	1047.196
168.979	27.771	1282.462	1046.245
169.994	27.872	1281.466	1045.918
171.008	27.773	1280.953	1044.836
172.023	27.794	1280.037	1044.117
173.037	27.847	1279.305	1043.732
174.052	27.840	1278.576	1043.007
175.067	27.857	1278.009	1042.546
176.081	27.897	1276.984	1041.846
177.096	27.717	1276.731	1040.524
178.110	27.808	1275.192	1039.697
179.125	27.861	1274.121	1039.030
180.140	27.917	1273.173	1038.482
181.154	27.803	1272.193	1036.948
182.169	27.771	1271.190	1035.854
183.183	27.805	1270.454	1035.355
184.198	27.819	1269.028	1034.184
185.213	27.788	1268.208	1033.247
186.227	27.911	1267.430	1033.219
187.242	27.886	1266.275	1032.042
188.256	27.879	1265.452	1031.239
189.271	27.914	1264.483	1030.559
190.286	27.838	1263.995	1029.638
191.300	27.921	1263.230	1029.394
192.315	27.872	1262.608	1028.518
193.329	27.929	1262.485	1028.652
194.344	27.896	1262.169	1028.116
195.359	27.937	1261.376	1027.611
196.373	27.880	1261.182	1027.041
197.388	27.883	1260.717	1026.586
198.402	27.973	1260.107	1026.503
199.417	27.868	1259.740	1025.523
200.432	27.795	1259.462	1024.799
201.446	27.857	1258.555	1024.316
202.461	27.809	1258.100	1023.586
203.475	28.011	1256.562	1023.378
204.490	27.901	1256.248	1022.413
205.504	27.900	1255.435	1021.659
206.519	27.888	1254.320	1020.591
207.534	28.037	1253.044	1020.297
208.548	27.924	1252.594	1019.210
209.563	27.938	1251.566	1018.357
210.577	27.962	1250.664	1017.668
211.592	27.917	1250.137	1016.901
212.607	28.008	1249.136	1016.500
213.621	27.957	1248.521	1015.626
214.636	28.139	1247.322	1015.575
215.650	27.931	1246.957	1014.029
216.665	27.927	1246.007	1013.148
217.680	28.042	1244.631	1012.573
218.694	28.028	1243.700	1011.651
219.709	28.100	1242.993	1011.385
220.723	28.009	1242.762	1010.601
221.738	27.972	1242.000	1009.688
222.753	27.979	1241.117	1008.920
223.767	27.896	1240.645	1007.989
224.782	28.084	1240.200	1008.579
225.796	28.248	1239.604	1008.908
226.811	28.072	1239.114	1007.447
227.826	28.017	1239.043	1006.997
228.840	28.167	1237.382	1006.384
229.855	28.074	1237.270	1005.695
230.869	28.159	1236.139	1005.153
231.884	28.110	1235.766	1004.490
232.899	28.121	1235.018	1003.856
233.913	28.133	1234.235	1003.195
234.928	28.217	1234.048	1003.414
235.942	28.271	1233.166	1002.903
236.957	28.181	1232.644	1001.898
237.972	28.197	1231.495	1000.966
238.986	28.091	1231.211	1000.066
240.001	28.168	1230.830	1000.088
241.015	28.166	1229.848	999.191
242.030	28.281	1228.934	998.985
243.045	28.253	1228.135	998.094
244.059	28.216	1227.690	997.442
245.074	28.239	1226.873	996.819
246.088	28.291	1225.773	996.117
247.103	28.255	1224.862	995.092
248.117	28.340	1224.035	994.799
249.132	28.275	1223.609	994.010
250.147	28.342	1222.725	993.568
251.161	28.435	1221.615	993.080
252.176	28.292	1221.340	991.992
253.190	28.297	1220.839	991.524
254.205	28.360	1220.111	991.188
255.220	28.368	1219.313	990.498
256.234	28.397	1218.869	990.204
257.249	28.375	1218.458	989.666
258.263	28.334	1217.662	988.711
259.278	28.448	1217.151	988.821
260.293	28.404	1216.559	988.014
261.307	28.405	1215.920	987.416
262.322	28.474	1215.378	987.257
263.336	28.316	1214.978	985.997
264.351	28.472	1214.161	986.082
265.366	28.401	1213.590	985.154
266.380	28.443	1212.708	984.573
267.395	28.525	1212.315	984.610
268.409	28.375	1211.627	983.157
269.424	28.440	1211.469	983.290
270.439	28.471	1210.780	982.812
271.453	28.492	1209.909	982.131
272.468	28.533	1208.464	981.090
273.482	28.525	1207.840	980.451
274.497	28.500	1208.290	980.598
275.512	28.564	1207.187	979.956
276.526	28.509	1206.742	979.215
277.541	28.439	1206.130	978.258
278.555	28.493	1205.534	977.978
279.570	28.545	1204.666	977.463
280.585	28.554	1203.718	976.657
281.599	28.524	1202.863	975.717
282.614	28.456	1202.327	974.834
283.628	28.632	1200.860	974.493
284.643	28.530	1200.256	973.376
285.657	28.554	1199.547	972.839
286.672	28.541	1198.654	971.963
287.687	28.642	1197.744	971.673
288.701	28.847	1196.928	972.011
289.716	28.703	1196.443	970.766
290.730	28.513	1196.385	969.630
291.745	28.634	1195.417	969.398
292.760	28.625	1194.762	968.734
293.774	28.640	1194.022	968.131
294.789	28.716	1193.459	967.986
295.803	28.688	1193.139	967.495
296.818	28.733	1192.042	966.754
297.833	28.705	1191.724	966.266
298.847	28.645	1191.255	965.481
299.862	28.683	1190.198	964.739
300.876	28.701	1189.270	963.997
301.891	28.799	1188.771	964.024
302.906	28.889	1188.005	963.788
303.920	28.846	1187.228	962.847
304.935	28.811	1186.652	962.112
305.949	28.825	1186.268	961.787
306.964	28.852	1185.743	961.420
307.979	28.827	1185.325	960.865
308.993	28.884	1184.275	960.225
310.008	28.870	1183.575	959.502
311.022	28.775	1183.102	958.534
312.037	28.771	1182.176	957.681
313.052	28.940	1180.831	957.387
314.066	28.814	1180.413	956.306
315.081	28.792	1179.863	955.661
316.095	28.887	1179.188	955.522
317.110	28.929	1178.720	955.278
318.125	28.943	1178.084	954.749
319.139	28.934	1177.212	953.913
320.154	28.913	1176.920	953.482
321.168	28.926	1176.181	952.867
322.183	28.955	1175.333	952.246
323.197	28.856	1174.924	951.319
324.212	28.892	1174.463	951.049
325.227	28.909	1173.962	950.644
326.241	28.958	1173.142	950.150
327.256	28.898	1172.756	949.441
328.270	28.956	1171.800	948.886
329.285	28.979	1171.138	948.385
330.300	29.008	1170.239	947.720
331.314	29.070	1169.320	947.211
332.329	29.064	1168.145	946.146
333.343	29.154	1167.577	946.066
334.358	29.078	1167.090	945.195
335.373	29.177	1166.359	945.028
336.387	29.115	1165.774	944.153
337.402	29.203	1165.022	943.912
338.416	29.186	1164.273	943.134
339.431	29.228	1163.274	942.457
340.446	29.224	1163.053	942.172
341.460	29.223	1162.479	941.617
342.475	29.270	1161.584	941.050
343.489	29.152	1160.648	939.609
344.504	29.183	1159.987	939.146
345.519	29.262	1158.778	938.487
346.533	29.321	1158.080	938.137
347.548	29.341	1157.371	937.586
348.562	29.208	1156.857	936.407
349.577	29.318	1156.070	936.250
350.592	29.146	1155.483	934.816
351.606	29.308	1154.599	934.838
352.621	29.316	1154.154	934.435
353.635	29.346	1153.537	934.005
354.650	29.308	1152.957	933.261
355.665	29.257	1152.434	932.498
356.679	29.296	1151.633	931.964
357.694	29.391	1151.143	931.965
358.708	29.356	1150.339	931.058
359.723	29.382	1149.559	930.474
360.738	29.277	1149.064	929.459
361.752	29.320	1148.581	929.205
362.767	29.364	1148.013	928.885
363.781	29.325	1147.534	928.218
364.796	29.390	1146.664	927.760
365.810	29.537	1146.045	927.916
366.825	29.482	1145.359	927.003
367.840	29.602	1144.960	927.196
368.854	29.560	1144.264	926.341
369.869	29.540	1143.630	925.646
370.883	29.541	1142.873	924.960
371.898	29.460	1142.364	924.058
372.913	29.574	1141.557	923.893
373.927	29.626	1140.881	923.526
374.942	29.641	1140.551	923.251
375.956	29.636	1140.242	922.896
376.971	29.580	1139.902	922.258
377.986	29.594	1138.915	921.446
379.000	29.614	1138.553	921.173
380.015	29.567	1138.165	920.542
381.029	29.614	1137.451	920.119
382.044	29.736	1136.731	920.062
383.059	29.726	1135.742	919.131
384.073	29.710	1135.385	918.681
385.088	29.708	1134.279	917.693
386.102	29.706	1133.422	916.908
387.117	29.711	1132.635	916.216
388.132	29.660	1131.832	915.233
389.146	29.688	1131.502	915.022
390.161	29.769	1130.574	914.590
391.175	29.678	1130.098	913.680
392.190	29.760	1129.247	913.313
393.205	29.823	1128.778	913.165
394.219	29.813	1128.053	912.448
395.234	29.898	1127.117	912.028
396.248	29.867	1126.094	910.967
397.263	29.864	1125.434	910.338
398.278	29.814	1125.194	909.817
399.292	29.944	1124.358	909.699
400.307	30.007	1123.908	909.565
401.321	29.952	1122.975	908.462
402.336	29.946	1122.128	907.664
403.350	30.000	1121.801	907.587
404.365	29.936	1121.202	906.704
405.380	29.959	1120.674	906.311
406.394	29.911	1119.515	905.059
407.409	29.990	1119.006	904.955
408.423	30.032	1118.206	904.429
409.438	30.144	1116.912	903.853
410.453	30.064	1116.533	903.074
411.467	29.974	1116.175	902.268
412.482	30.025	1115.633	901.995
413.496	30.005	1114.820	901.163
414.511	30.101	1114.263	901.100
415.526	30.028	1113.594	900.122
416.540	30.061	1113.626	900.229
417.555	30.080	1112.930	899.683
418.569	30.085	1112.470	899.252
419.584	30.185	1111.838	899.147
420.599	30.185	1111.397	898.709
421.613	91.048	1306.977	1389.017
422.628	85.419	1335.487	1389.157
