DTS Sentinel unit serial number:	SN413079Multiplexer serial number:	ORYXHardware model number:	OX4-SRSoftware version number:	ORYX F/W v4.00 Oryx Data Collector v3.7.2.0data status	okinstallation	princeton_trtdifferential loss correction	single-endedforward channel	channel 2reverse channel	N/Adate	2019/09/18time	00:27:34forward acquisition time	60.00reverse acquisition time	0.00gamma	496.2192k internal	0.2349k external	0.2349temperature offset calibration	0.9986default loss term (dB/km)	0.3790temperature slope calibration	1.0000multiplexer offset coefficient	1.0000multiplexer slope coefficient	1.0000fibre end	0.00T internal ref (°C)	23.56T ext. ref 1 (°C)	0.17T ext. ref 2 (°C)	17.13length (m)	temperature (°C)	Stokes	anti-Stokes-747.200	-200.000	-0.048	0.272
-746.185	86.603	0.253	0.278
-745.171	393.419	-0.209	0.435
-744.156	135.316	-0.288	0.374
-743.142	768.760	0.083	0.225
-742.127	-74.506	0.133	-0.048
-741.112	142.486	-0.204	-0.270
-740.098	116.993	0.182	-0.223
-739.083	87.106	-0.309	-0.340
-738.069	-164.528	-0.268	-0.012
-737.054	-124.271	-0.097	0.015
-736.039	-120.162	-0.320	-0.055
-735.025	-154.968	-0.301	0.020
-734.010	800.000	-0.093	0.319
-732.996	-143.949	-0.140	-0.013
-731.981	800.000	-0.071	0.215
-730.966	800.000	-0.082	-0.255
-729.952	322.273	0.174	0.331
-728.937	-60.542	0.402	0.170
-727.923	6.186	0.166	-0.123
-726.908	800.000	0.045	0.170
-725.894	-80.949	-0.387	0.128
-724.879	-41.554	0.110	0.057
-723.864	478.370	0.099	-0.223
-722.850	-189.162	-0.280	0.003
-721.835	-35.533	0.182	0.099
-720.821	800.000	-0.122	-0.338
-719.806	259.070	0.078	-0.134
-718.791	800.000	-0.126	-0.425
-717.777	-165.921	-0.364	-0.016
-716.762	-121.379	-0.431	-0.072
-715.748	128.566	-0.044	-0.056
-714.733	229.086	0.052	0.084
-713.718	-200.000	0.057	0.277
-712.704	136.485	0.129	-0.168
-711.689	-37.837	-0.186	0.099
-710.675	-181.090	0.219	0.004
-709.660	-124.022	0.322	-0.051
-708.645	18.880	0.246	0.196
-707.631	-200.000	-0.000	0.143
-706.616	-107.422	0.167	0.037
-705.602	-34.810	-0.252	-0.137
-704.587	74.335	0.190	-0.200
-703.572	-18.232	-0.131	-0.082
-702.558	-22.011	0.344	-0.209
-701.543	-200.000	0.023	-0.205
-700.529	787.778	0.040	0.109
-699.514	109.695	-0.312	-0.373
-698.499	-80.700	0.241	0.080
-697.485	-18.651	0.054	0.034
-696.470	-200.000	-0.031	-0.265
-695.456	-200.000	-0.308	-0.000
-694.441	-86.430	-0.167	-0.051
-693.426	-106.729	-0.055	0.012
-692.412	9.852	-0.134	0.102
-691.397	800.000	-0.060	0.216
-690.383	607.465	-0.042	-0.104
-689.368	506.802	0.042	0.097
-688.354	68.852	0.173	0.177
-687.339	276.914	0.163	-0.288
-686.324	-63.341	0.237	-0.097
-685.310	-200.000	0.293	-0.001
-684.295	112.476	-0.190	-0.229
-683.281	-200.000	-0.068	-0.312
-682.266	-165.492	0.237	-0.010
-681.251	303.078	0.117	0.215
-680.237	65.150	0.109	0.110
-679.222	-200.000	-0.015	-0.341
-678.208	-128.628	0.197	-0.028
-677.193	96.748	-0.216	0.246
-676.178	-50.410	0.136	-0.064
-675.164	-6.959	0.198	0.134
-674.149	242.794	-0.057	-0.096
-673.135	736.805	0.054	-0.145
-672.120	226.610	0.240	-0.388
-671.105	-82.979	0.151	-0.048
-670.091	-96.435	-0.294	0.077
-669.076	-200.000	-0.024	0.469
-668.062	69.329	0.036	0.037
-667.047	159.310	-0.125	-0.173
-666.032	134.233	-0.132	-0.171
-665.018	-200.000	-0.070	-0.420
-664.003	92.665	-0.174	-0.196
-662.989	-140.672	0.106	-0.011
-661.974	239.481	-0.166	-0.275
-660.959	-155.839	0.142	-0.009
-659.945	-111.330	0.105	-0.021
-658.930	-163.967	-0.080	-0.004
-657.916	299.218	-0.120	0.220
-656.901	44.396	0.119	0.108
-655.886	-63.031	0.257	-0.106
-654.872	74.502	0.097	0.101
-653.857	-49.877	-0.090	0.042
-652.843	179.565	-0.083	0.122
-651.828	118.945	0.259	0.319
-650.814	256.910	0.301	-0.514
-649.799	-39.652	-0.208	-0.108
-648.784	93.691	0.032	0.036
-647.770	6.759	-0.199	0.147
-646.755	-200.000	-0.039	-0.261
-645.741	121.165	-0.124	0.154
-644.726	145.031	-0.073	0.097
-643.711	115.738	-0.044	0.053
-642.697	167.362	-0.165	0.234
-641.682	-200.000	0.022	-0.193
-640.668	204.361	-0.046	0.070
-639.653	-200.000	-0.015	0.104
-638.638	47.650	-0.215	0.200
-637.624	-200.000	-0.029	-0.142
-636.609	-200.000	0.035	0.162
-635.595	-88.142	0.168	0.050
-634.580	113.928	0.020	-0.024
-633.565	1.530	-0.044	-0.032
-632.551	-200.000	0.040	0.178
-631.536	262.176	0.081	0.139
-630.522	-200.000	-0.025	0.207
-629.507	-120.424	-0.180	0.030
-628.492	215.191	0.143	-0.225
-627.478	-82.017	-0.178	0.058
-626.463	-200.000	0.008	0.192
-625.449	800.000	0.084	-0.243
-624.434	-172.881	0.250	0.008
-623.419	-87.959	0.188	-0.056
-622.405	-200.000	0.059	0.289
-621.390	-48.407	-0.147	-0.071
-620.376	-51.668	0.369	-0.171
-619.361	625.183	0.077	0.193
-618.346	-200.000	-0.025	-0.392
-617.332	-200.000	0.056	0.256
-616.317	800.000	-0.092	-0.361
-615.303	800.000	0.050	0.205
-614.288	-119.001	0.209	0.036
-613.273	-55.057	0.052	0.023
-612.259	34.524	0.124	0.108
-611.244	-108.061	-0.055	0.012
-610.230	-39.510	0.268	-0.139
-609.215	30.244	-0.196	0.166
-608.201	-200.000	-0.011	-0.097
-607.186	229.674	-0.198	0.321
-606.171	287.170	-0.045	0.081
-605.157	43.960	-0.049	0.045
-604.142	-200.000	-0.003	0.295
-603.128	57.704	-0.205	-0.199
-602.113	132.160	0.104	-0.132
-601.098	-79.593	0.248	0.083
-600.084	-200.000	-0.012	0.067
-599.069	16.489	-0.417	-0.327
-598.055	-103.941	0.117	0.027
-597.040	800.000	-0.087	0.290
-596.025	-52.811	-0.071	0.032
-595.011	-138.141	-0.270	-0.030
-593.996	102.458	0.307	0.357
-592.982	-200.000	0.031	0.445
-591.967	79.106	-0.260	-0.277
-590.952	-131.563	-0.359	-0.047
-589.938	66.453	0.131	-0.133
-588.923	-18.865	0.203	-0.125
-587.909	-65.498	0.080	-0.032
-586.894	85.195	-0.272	-0.297
-585.879	70.752	-0.207	-0.212
-584.865	-89.283	0.178	-0.052
-583.850	57.710	-0.104	0.101
-582.836	-177.802	0.202	0.005
-581.821	77.163	-0.174	-0.183
-580.806	-200.000	-0.009	-0.072
-579.792	173.675	0.085	-0.122
-578.777	-200.000	-0.034	0.169
-577.763	-145.202	-0.102	0.009
-576.748	-74.793	-0.318	-0.113
-575.733	204.216	0.067	-0.103
-574.719	-9.691	-0.218	-0.144
-573.704	-200.000	-0.005	-0.147
-572.690	306.915	-0.181	0.335
-571.675	56.152	-0.220	0.212
-570.661	16.556	-0.074	0.058
-569.646	-200.000	0.040	0.247
-568.631	800.000	0.086	-0.267
-567.617	800.000	-0.125	-0.480
-566.602	196.256	0.049	0.073
-565.588	-141.117	-0.182	0.018
-564.573	-95.563	-0.136	-0.036
-563.558	85.147	0.164	-0.178
-562.544	-51.272	-0.107	0.049
-561.529	44.924	0.167	-0.152
-560.515	-200.000	-0.046	-0.213
-559.500	159.710	-0.274	0.378
-558.485	-67.131	0.106	-0.041
-557.471	15.120	0.148	-0.115
-556.456	-200.000	-0.018	-0.133
-555.442	-17.006	-0.344	0.215
-554.427	205.114	-0.148	-0.228
-553.412	646.440	0.090	-0.227
-552.398	10.810	-0.133	0.101
-551.383	-96.673	-0.502	-0.131
-550.369	-134.044	-0.160	0.020
-549.354	-200.000	0.014	0.108
-548.339	800.000	-0.142	0.393
-547.325	-94.636	-0.348	-0.094
-546.310	800.000	-0.052	0.190
-545.296	-11.300	0.083	0.054
-544.281	165.438	0.048	0.067
-543.266	-43.802	0.273	-0.136
-542.252	-120.075	0.310	0.053
-541.237	800.000	0.036	0.144
-540.223	1.264	0.015	-0.011
-539.208	346.185	0.106	-0.207
-538.193	-200.000	-0.048	-0.211
-537.179	-200.000	-0.012	0.123
-536.164	23.139	0.258	-0.210
-535.150	800.000	0.025	0.070
-534.135	-172.065	-0.290	-0.009
-533.121	-16.796	-0.122	0.076
-532.106	-200.000	0.036	-0.159
-531.091	-200.000	-0.054	-0.280
-530.077	218.137	0.292	-0.461
-529.062	-53.907	0.288	-0.130
-528.048	800.000	-0.095	-0.401
-527.033	20.098	0.258	0.206
-526.018	-115.355	-0.224	0.042
-525.004	-200.000	-0.042	0.193
-523.989	-200.000	0.042	-0.369
-522.975	-200.000	-0.094	-0.455
-521.960	107.560	0.090	-0.106
-520.945	9.482	0.171	-0.128
-519.931	-200.000	-0.001	-0.172
-518.916	-95.617	-0.070	-0.019
-517.902	162.386	0.130	-0.180
-516.887	187.477	-0.061	-0.090
-515.872	-14.435	0.198	0.126
-514.858	-6.670	-0.232	0.156
-513.843	-200.000	0.010	0.286
-512.829	192.322	0.183	0.273
-511.814	757.533	0.030	-0.079
-510.799	19.110	0.060	0.047
-509.785	-200.000	-0.006	-0.116
-508.770	800.000	-0.012	0.033
-507.756	-124.581	-0.196	0.030
-506.741	800.000	0.058	0.185
-505.726	-200.000	0.006	0.136
-504.712	-200.000	0.398	0.002
-503.697	-54.414	0.332	0.149
-502.683	-25.341	0.185	0.108
-501.668	13.131	0.097	0.074
-500.653	-173.849	0.394	-0.012
-499.639	257.690	-0.195	-0.332
-498.624	-21.870	0.186	-0.112
-497.610	-200.000	0.037	0.378
-496.595	54.345	0.168	0.160
-495.581	119.646	0.207	-0.254
-494.566	-200.000	-0.025	-0.143
-493.551	-56.246	0.264	-0.116
-492.537	-83.458	0.129	-0.041
-491.522	-82.626	0.380	-0.122
-490.508	26.322	-0.209	-0.173
-489.493	-200.000	-0.013	0.083
-488.478	473.246	0.142	0.317
-487.464	44.920	-0.109	0.099
-486.449	-151.990	-0.098	-0.007
-485.435	-4.278	0.154	0.106
-484.420	201.793	-0.140	0.214
-483.405	-200.000	0.018	-0.172
-482.391	577.992	0.039	0.094
-481.376	-80.639	0.304	0.100
-480.362	738.818	0.192	0.510
-479.347	-200.000	0.054	0.241
-478.332	-11.828	-0.352	-0.228
-477.318	-163.570	0.243	0.011
-476.303	197.431	0.178	0.269
-475.289	-133.823	-0.249	0.031
-474.274	120.549	0.158	-0.194
-473.259	485.703	-0.050	0.112
-472.245	800.000	0.025	-0.083
-471.230	-95.968	-0.297	-0.078
-470.216	-200.000	-0.000	-0.105
-469.201	800.000	-0.080	-0.329
-468.186	-57.264	-0.349	0.152
-467.172	800.000	0.048	-0.161
-466.157	800.000	0.093	0.282
-465.143	-114.895	-0.087	-0.016
-464.128	232.502	-0.050	0.081
-463.113	-178.931	-0.076	0.002
-462.099	25.365	-0.051	-0.042
-461.084	-52.397	0.099	0.045
-460.070	-10.557	0.234	-0.153
-459.055	800.000	0.076	-0.221
-458.040	800.000	0.029	-0.088
-457.026	107.128	0.224	-0.263
-456.011	270.622	-0.157	-0.272
-454.997	253.697	0.022	0.036
-453.982	-17.567	-0.158	-0.098
-452.968	-144.987	0.022	0.002
-451.953	-41.472	0.253	0.128
-450.938	-42.985	-0.126	0.063
-449.924	33.227	0.104	-0.089
-448.909	394.969	-0.065	0.134
-447.895	-200.000	-0.006	-0.053
-446.880	800.000	-0.061	-0.216
-445.865	95.301	0.038	0.043
-444.851	800.000	-0.044	0.129
-443.836	271.365	-0.057	-0.099
-442.822	-16.793	-0.244	-0.152
-441.807	768.831	0.104	-0.280
-440.792	-200.000	0.013	0.166
-439.778	-200.000	0.012	-0.062
-438.763	32.984	-0.104	0.089
-437.749	-121.232	0.201	0.033
-436.734	-74.891	-0.434	-0.154
-435.719	-169.326	-0.277	-0.010
-434.705	-108.488	-0.171	-0.036
-433.690	100.626	0.187	0.214
-432.676	206.795	0.127	0.195
-431.661	0.744	-0.245	-0.173
-430.646	-146.274	-0.174	-0.015
-429.632	-2.834	-0.232	0.160
-428.617	79.310	0.150	0.158
-427.603	-127.336	-0.420	-0.060
-426.588	-200.000	0.021	-0.269
-425.573	-103.203	-0.209	-0.049
-424.559	-64.403	0.205	0.082
-423.544	-200.000	-0.013	-0.482
-422.530	800.000	0.030	0.087
-421.515	208.473	-0.105	0.162
-420.500	-102.738	-0.021	0.005
-419.486	-42.780	0.381	0.191
-418.471	-200.000	-0.013	-0.110
-417.457	376.073	0.090	0.182
-416.442	-122.372	-0.149	0.024
-415.428	-200.000	0.039	-0.311
-414.413	418.376	-0.137	-0.290
-413.398	27.100	-0.158	0.131
-412.384	-41.722	0.191	-0.097
-411.369	112.613	-0.058	-0.069
-410.355	-72.420	0.198	0.072
-409.340	119.643	0.097	-0.118
-408.325	-158.084	0.078	0.005
-407.311	-117.488	-0.053	0.010
-406.296	-200.000	-0.017	-0.175
-405.282	-200.000	-0.017	0.162
-404.267	-73.509	0.175	0.063
-403.252	-200.000	-0.027	-0.224
-402.238	25.615	0.121	0.099
-401.223	-200.000	0.066	0.332
-400.209	715.821	-0.161	0.420
-399.194	-200.000	0.031	-0.146
-398.179	-4.087	-0.182	-0.124
-397.165	-200.000	0.071	0.358
-396.150	209.453	0.080	0.124
-395.136	360.037	0.088	0.172
-394.121	800.000	-0.081	0.265
-393.106	-200.000	-0.354	0.000
-392.092	463.564	-0.035	-0.077
-391.077	-200.000	0.042	0.343
-390.063	-120.403	0.188	-0.032
-389.048	-16.104	0.508	-0.318
-388.033	13.330	0.325	-0.248
-387.019	-200.000	0.055	0.349
-386.004	-141.229	0.280	-0.028
-384.990	272.270	-0.139	0.242
-383.975	37.391	0.143	0.125
-382.960	328.992	-0.050	-0.094
-381.946	550.352	-0.020	-0.047
-380.931	136.492	-0.081	0.105
-379.917	-7.798	-0.217	-0.144
-378.902	-111.585	-0.415	-0.083
-377.888	35.253	-0.121	0.105
-376.873	166.486	-0.084	-0.117
-375.858	-87.575	0.149	-0.044
-374.844	-21.855	-0.111	0.066
-373.829	800.000	0.027	0.076
-372.815	800.000	-0.094	-0.273
-371.800	800.000	-0.040	0.153
-370.785	-4.069	-0.267	-0.182
-369.771	-200.000	-0.004	-0.160
-368.756	588.417	-0.022	0.053
-367.742	-0.238	0.025	-0.017
-366.727	23.571	-0.125	-0.101
-365.712	-149.646	0.135	0.010
-364.698	-113.482	-0.181	-0.035
-363.683	383.803	0.172	0.348
-362.669	358.500	-0.076	-0.149
-361.654	-166.336	0.152	-0.006
-360.639	-36.768	0.279	0.147
-359.625	99.000	0.220	0.250
-358.610	-95.669	-0.255	-0.067
-357.596	-91.287	0.224	0.063
-356.581	21.838	0.230	-0.184
-355.566	132.756	-0.116	-0.148
-354.552	8.188	-0.043	0.032
-353.537	-144.116	-0.270	0.025
-352.523	-152.016	-0.176	0.013
-351.508	302.238	-0.178	0.324
-350.493	51.915	0.104	0.098
-349.479	-119.592	0.171	0.029
-348.464	800.000	-0.041	-0.178
-347.450	299.043	0.148	-0.267
-346.435	-109.197	0.092	-0.019
-345.420	172.694	0.098	0.138
-344.406	-79.564	-0.087	0.029
-343.391	69.306	0.287	0.290
-342.377	-165.048	0.323	0.014
-341.362	800.000	-0.085	0.240
-340.348	355.585	-0.169	-0.330
-339.333	-146.515	-0.337	0.029
-338.318	-57.402	-0.147	0.064
-337.304	23.066	-0.059	-0.048
-336.289	-200.000	0.003	0.032
-335.275	-92.229	0.342	-0.095
-334.260	-53.484	-0.178	0.080
-333.245	-200.000	0.046	0.352
-332.231	-33.751	-0.366	0.198
-331.216	779.050	-0.119	0.320
-330.202	800.000	0.113	0.358
-329.187	-200.000	-0.079	-0.395
-328.172	69.126	-0.077	0.078
-327.158	-95.819	0.195	0.051
-326.143	800.000	0.007	0.023
-325.129	-67.323	-0.467	0.180
-324.114	-115.695	-0.268	0.049
-323.099	237.533	-0.102	0.166
-322.085	-200.000	-0.039	-0.456
-321.070	292.660	-0.063	-0.113
-320.056	185.848	0.127	0.186
-319.041	104.345	0.132	0.153
-318.026	-200.000	-0.054	-0.248
-317.012	-5.064	-0.180	-0.122
-315.997	800.000	-0.048	-0.137
-314.983	-200.000	-0.041	0.303
-313.968	55.281	0.104	-0.098
-312.953	800.000	-0.091	0.305
-311.939	-118.584	0.074	0.013
-310.924	800.000	-0.056	-0.157
-309.910	497.625	0.135	0.305
-308.895	800.000	-0.113	-0.424
-307.880	800.000	-0.165	-0.518
-306.866	800.000	-0.103	-0.291
-305.851	131.587	0.114	-0.143
-304.837	800.000	0.033	0.120
-303.822	184.018	0.234	0.340
-302.807	-13.016	0.057	0.036
-301.793	-50.958	0.156	-0.072
-300.778	800.000	0.108	0.423
-299.764	227.731	0.046	-0.073
-298.749	200.021	0.207	0.312
-297.735	368.564	0.050	-0.098
-296.720	-152.024	0.188	0.013
-295.705	203.726	-0.269	-0.409
-294.691	180.276	0.060	0.087
-293.676	-156.172	-0.148	-0.009
-292.662	153.419	-0.073	0.098
-291.647	-174.944	0.253	-0.007
-290.632	24.274	-0.143	0.116
-289.618	-47.770	0.089	-0.042
-288.603	-58.349	-0.118	0.050
-287.589	706.991	0.086	-0.222
-286.574	-125.762	-0.206	0.031
-285.559	-10.187	0.311	-0.202
-284.545	734.985	-0.029	0.076
-283.530	341.508	0.111	-0.213
-282.516	-23.862	0.143	0.084
-281.501	-149.696	-0.254	0.020
-280.486	53.946	0.253	0.238
-279.472	77.631	-0.027	-0.028
-278.457	-16.529	0.032	-0.020
-277.443	-200.000	-0.001	0.148
-276.428	800.000	-0.102	0.391
-275.413	800.000	-0.118	0.388
-274.399	-99.774	0.184	-0.045
-273.384	-3.009	-0.254	0.174
-272.370	-101.930	-0.276	0.065
-271.355	-159.368	-0.284	-0.016
-270.340	105.242	-0.231	-0.267
-269.326	800.000	0.054	-0.212
-268.311	-200.000	0.018	0.146
-267.297	216.749	0.144	0.225
-266.282	-102.521	0.141	0.033
-265.267	92.119	-0.151	-0.167
-264.253	3.580	0.153	0.109
-263.238	351.694	-0.132	0.256
-262.224	-145.140	0.376	-0.033
-261.209	-58.695	-0.171	-0.073
-260.195	17.296	-0.085	-0.066
-259.180	-122.680	-0.007	0.001
-258.165	-200.000	-0.044	-0.289
-257.151	-112.855	0.089	0.017
-256.136	-200.000	-0.108	-0.498
-255.122	-200.000	-0.031	-0.225
-254.107	16.619	0.207	0.160
-253.092	-44.445	0.260	-0.127
-252.078	-11.096	-0.054	-0.035
-251.063	-200.000	-0.008	0.040
-250.049	-81.236	-0.233	0.075
-249.034	353.345	0.263	0.511
-248.019	0.228	0.345	0.241
-247.005	358.765	0.110	-0.216
-245.990	-51.143	0.367	0.168
-244.976	224.623	0.069	0.110
-243.961	-185.551	-0.214	0.003
-242.946	-200.000	-0.020	0.253
-241.932	68.637	-0.066	0.066
-240.917	-150.090	-0.499	0.038
-239.903	235.550	0.216	-0.350
-238.888	-200.000	-0.097	-0.442
-237.873	-45.570	0.162	-0.079
-236.859	-120.992	0.334	-0.055
-235.844	-19.238	0.078	-0.048
-234.830	-200.000	0.056	0.286
-233.815	-200.000	0.093	-0.483
-232.800	-48.551	0.110	-0.052
-231.786	-86.257	0.155	0.047
-230.771	-124.163	0.390	0.060
-229.757	593.115	-0.081	0.196
-228.742	-48.638	0.242	0.114
-227.727	-104.123	-0.206	-0.047
-226.713	-112.358	0.053	0.010
-225.698	140.828	0.048	0.061
-224.684	-69.015	-0.195	0.073
-223.669	-200.000	-0.038	-0.197
-222.655	-94.188	-0.416	0.111
-221.640	-152.224	0.068	-0.005
-220.625	-200.000	0.027	-0.120
-219.611	-200.000	0.015	-0.087
-218.596	739.565	-0.095	0.248
-217.582	183.819	-0.154	-0.223
-216.567	-115.473	-0.224	0.041
-215.552	-142.401	-0.218	0.021
-214.538	146.901	0.105	-0.138
-213.523	-200.000	-0.023	-0.123
-212.509	800.000	0.102	-0.344
-211.494	-64.167	-0.334	0.133
-210.479	-149.838	-0.155	0.012
-209.465	336.021	0.047	0.089
-208.450	-200.000	-0.025	-0.162
-207.436	-3.163	0.315	-0.215
-206.421	-200.000	0.013	-0.190
-205.406	-200.000	-0.010	-0.047
-204.392	-51.122	0.216	-0.099
-203.377	11.728	-0.214	-0.161
-202.363	800.000	-0.064	0.211
-201.348	634.997	0.021	-0.052
-200.333	239.349	0.097	-0.158
-199.319	-54.019	0.225	-0.100
-198.304	-160.570	-0.420	-0.022
-197.290	-200.000	0.046	-0.283
-196.275	499.311	0.039	0.089
-195.260	93.495	0.148	-0.164
-194.246	800.000	-0.067	0.260
-193.231	-200.000	0.011	0.147
-192.217	-0.881	0.073	0.050
-191.202	-160.877	-0.390	0.020
-190.187	311.024	-0.173	0.318
-189.173	184.721	-0.021	0.030
-188.158	800.000	-0.032	0.110
-187.144	95.225	0.147	-0.164
-186.129	-75.642	0.257	0.089
-185.114	347.060	0.049	-0.095
-184.100	-19.439	0.159	-0.096
-183.085	230.889	0.178	-0.285
-182.071	800.000	-0.116	-0.362
-181.056	800.000	-0.056	-0.208
-180.042	-200.000	-0.019	0.127
-179.027	-200.000	0.000	0.284
-178.012	167.838	-0.122	-0.169
-176.998	-33.027	-0.321	0.174
-175.983	508.823	0.131	-0.298
-174.969	99.321	0.042	-0.048
-173.954	-32.512	0.247	0.134
-172.939	377.466	-0.116	0.232
-171.925	711.306	0.068	-0.176
-170.910	132.441	-0.229	-0.288
-169.896	-200.000	0.065	0.312
-168.881	-200.000	0.007	0.226
-167.866	128.615	-0.247	0.308
-166.852	99.829	0.241	0.273
-165.837	261.121	-0.049	-0.083
-164.823	91.148	0.115	0.126
-163.808	800.000	-0.091	0.280
-162.793	-3.827	-0.279	0.189
-161.779	-137.076	0.070	-0.008
-160.764	800.000	0.067	-0.277
-159.750	264.580	-0.040	0.069
-158.735	-54.442	0.308	-0.136
-157.720	24.502	0.165	0.133
-156.706	165.695	0.176	-0.242
-155.691	283.592	0.125	-0.219
-154.677	-24.890	0.328	0.190
-153.662	-117.343	0.375	0.066
-152.647	542.393	-0.128	-0.299
-151.633	570.244	-0.104	0.247
-150.618	2.398	0.096	0.068
-149.604	714.617	-0.059	-0.153
-148.589	182.573	-0.119	0.172
-147.574	44.413	0.023	0.020
-146.560	63.618	0.165	0.162
-145.545	800.000	-0.018	-0.051
-144.531	-57.924	-0.233	0.099
-143.516	268.395	0.112	-0.192
-142.502	-200.000	-0.019	-0.173
-141.487	-200.000	0.063	0.521
-140.472	149.849	0.228	0.302
-139.458	-139.365	0.280	-0.029
-138.443	53.160	-0.309	-0.289
-137.429	800.000	-0.113	0.316
-136.414	446.402	0.135	-0.289
-135.399	-200.000	0.044	0.205
-134.385	-67.587	0.309	-0.118
-133.370	-110.669	-0.146	-0.029
-132.356	175.996	0.084	0.118
-131.341	62.357	-0.095	-0.092
-130.326	-6.029	-0.168	0.112
-129.312	223.276	0.171	-0.268
-128.297	-113.928	-0.116	0.022
-127.283	-200.000	0.021	0.109
-126.268	-61.944	0.420	-0.171
-125.253	209.496	0.162	0.247
-124.239	800.000	-0.048	0.201
-123.224	-200.000	0.014	0.064
-122.210	134.718	0.199	0.252
-121.195	-200.000	0.079	-0.393
-120.180	-139.013	0.229	0.024
-119.166	258.811	0.064	0.107
-118.151	-200.000	0.050	-0.297
-117.137	218.483	-0.122	0.191
-116.122	130.376	0.199	0.248
-115.107	759.421	-0.079	-0.210
-114.093	605.217	-0.111	0.270
-113.078	-200.000	-0.038	0.307
-112.064	-95.027	0.375	0.099
-111.049	42.503	0.208	0.185
-110.034	800.000	-0.076	0.209
-109.020	-27.102	0.316	-0.179
-108.005	593.208	0.114	-0.275
-106.991	141.461	0.252	0.325
-105.976	128.403	0.154	0.191
-104.962	800.000	-0.077	-0.298
-103.947	112.326	0.050	-0.059
-102.932	-129.070	0.351	0.048
-101.918	-9.175	0.302	0.197
-100.903	7.622	-0.174	0.127
-99.889	-90.509	-0.221	0.062
-98.874	18.025	0.287	0.223
-97.859	800.000	-0.091	0.358
-96.845	-140.439	0.205	-0.021
-95.830	564.766	-0.033	-0.077
-94.816	-96.640	-0.456	0.117
-93.801	22.569	0.263	0.210
-92.786	-69.291	0.161	0.060
-91.772	150.257	-0.143	-0.189
-90.757	-159.375	-0.229	0.012
-89.743	-88.060	0.356	-0.104
-88.728	800.000	0.055	0.192
-87.713	-137.881	-0.196	0.021
-86.699	-96.349	0.056	-0.014
-85.684	-200.000	-0.055	0.276
-84.670	-0.230	0.073	-0.050
-83.655	-135.833	-0.380	0.044
-82.640	-31.293	0.405	-0.222
-81.626	69.865	0.128	0.128
-80.611	-65.625	-0.280	-0.109
-79.597	800.000	-0.073	0.258
-78.582	-172.192	0.295	0.009
-77.567	-90.781	0.236	0.066
-76.553	-200.000	0.004	-0.153
-75.538	-200.000	-0.086	0.400
-74.524	502.521	0.020	0.046
-73.509	-17.767	0.260	-0.159
-72.494	-200.000	-0.003	-0.237
-71.480	-148.665	0.265	0.021
-70.465	-71.173	0.169	0.062
-69.451	233.580	0.067	0.108
-68.436	90.787	-0.113	0.123
-67.422	-37.680	0.233	-0.121
-66.407	638.809	-0.149	-0.369
-65.392	-200.000	0.008	0.229
-64.378	-127.563	0.170	-0.024
-63.363	53.433	-0.302	0.282
-62.349	-111.370	0.217	0.043
-61.334	100.840	-0.938	-1.061
-60.319	-1.553	0.953	0.653
-59.305	294.344	-0.739	-1.314
-58.290	800.000	0.586	1.583
-57.276	166.256	0.934	1.286
-56.261	-200.000	124.141	662.452
-55.246	442.990	1547.993	3297.164
-54.232	146.614	2707.362	3535.337
-53.217	91.580	2281.025	2491.903
-52.203	32.703	1895.003	1593.133
-51.188	26.525	1693.169	1376.572
-50.173	24.464	1654.723	1329.920
-49.159	46.000	1723.089	1549.724
-48.144	43.608	1734.182	1541.432
-47.130	26.184	1686.244	1368.139
-46.115	23.695	1671.002	1337.006
-45.100	23.511	1665.738	1331.363
-44.086	23.450	1664.088	1329.532
-43.071	23.418	1661.847	1327.449
-42.057	23.441	1659.460	1325.660
-41.042	23.563	1656.738	1324.344
-40.027	23.397	1655.563	1322.115
-39.013	23.395	1653.261	1320.211
-37.998	23.376	1652.410	1319.338
-36.984	23.471	1650.651	1318.583
-35.969	23.547	1649.390	1318.092
-34.954	23.589	1647.640	1316.954
-33.940	23.488	1645.997	1314.839
-32.925	23.520	1644.179	1313.570
-31.911	23.504	1642.863	1312.346
-30.896	23.554	1641.211	1311.343
-29.881	23.625	1639.136	1310.163
-28.867	23.531	1638.122	1308.604
-27.852	23.587	1636.616	1307.764
-26.838	23.665	1634.808	1306.838
-25.823	23.512	1634.387	1305.324
-24.809	23.612	1632.290	1304.336
-23.794	23.559	1631.437	1303.210
-22.779	23.577	1629.586	1301.808
-21.765	23.483	1628.521	1300.222
-20.750	23.549	1626.388	1298.948
-19.736	23.679	1624.425	1298.282
-18.721	23.632	1623.393	1297.059
-17.706	23.538	1622.406	1295.536
-16.692	23.533	1620.595	1294.001
-15.677	23.604	1619.147	1293.307
-14.663	23.627	1618.255	1292.716
-13.648	23.633	1616.996	1291.703
-12.633	23.602	1615.480	1290.212
-11.619	23.573	1613.545	1288.406
-10.604	23.648	1612.167	1287.798
-9.590	23.600	1610.712	1286.236
-8.575	23.634	1609.725	1285.644
-7.560	23.673	1608.216	1284.672
-6.546	23.553	1607.708	1283.345
-5.531	23.676	1605.779	1282.642
-4.517	23.573	1605.166	1281.358
-3.502	23.539	1604.508	1280.538
-2.487	23.669	1602.126	1279.524
-1.473	23.229	1590.218	1266.816
-0.458	20.243	1571.213	1230.477
0.556	15.167	1572.811	1199.026
1.571	12.917	1596.922	1200.933
2.586	12.690	1609.225	1208.408
3.600	11.699	1554.952	1160.519
4.615	6.490	1449.190	1046.960
5.629	1.213	1390.583	970.827
6.644	0.276	1383.896	960.101
7.659	0.203	1382.368	958.492
8.673	0.153	1382.022	957.848
9.688	0.068	1379.687	955.609
10.702	0.025	1376.228	952.856
11.717	2.711	1379.386	971.996
12.731	9.625	1389.878	1023.334
13.746	15.247	1398.740	1065.605
14.761	16.821	1400.465	1076.834
15.775	16.253	1398.303	1071.473
16.790	15.250	1395.786	1063.089
17.804	14.538	1393.490	1056.736
18.819	14.118	1391.921	1052.800
19.834	13.966	1390.816	1050.909
20.848	13.750	1389.400	1048.378
21.863	13.456	1387.880	1045.283
22.877	13.340	1386.902	1043.719
23.892	13.279	1385.662	1042.310
24.907	13.254	1385.145	1041.675
25.921	13.267	1384.076	1040.860
26.936	13.298	1383.137	1040.253
27.950	13.252	1382.656	1039.512
28.965	13.420	1380.956	1039.199
29.980	13.424	1380.598	1038.862
30.994	13.488	1379.806	1038.574
32.009	13.490	1378.497	1037.511
33.023	13.381	1377.694	1036.129
34.038	13.503	1376.084	1035.592
35.053	13.408	1375.208	1034.247
36.067	13.425	1373.754	1033.170
37.082	13.458	1373.002	1032.715
38.096	13.489	1372.198	1032.214
39.111	13.411	1371.288	1030.950
40.126	13.362	1370.382	1029.875
41.140	13.348	1369.290	1028.875
42.155	13.219	1369.119	1027.857
43.169	13.273	1369.120	1028.101
44.184	13.252	1368.829	1027.662
45.199	13.162	1368.847	1027.025
46.213	13.298	1367.582	1026.827
47.228	13.445	1366.328	1026.704
48.242	13.295	1365.827	1025.308
49.257	13.350	1363.909	1024.118
50.271	13.339	1362.459	1022.873
51.286	13.393	1361.358	1022.286
52.301	13.369	1359.782	1020.867
53.315	13.277	1359.585	1020.062
54.330	13.374	1357.949	1019.339
55.344	13.299	1356.984	1018.067
56.359	13.261	1355.722	1016.793
57.374	13.231	1355.074	1016.031
58.388	13.191	1353.896	1014.816
59.403	13.150	1353.211	1013.959
60.417	13.183	1352.741	1013.723
61.432	13.152	1352.360	1013.155
62.447	13.236	1350.431	1012.137
63.461	13.229	1349.181	1011.066
64.476	13.111	1348.814	1009.979
65.490	13.193	1347.472	1009.388
66.505	13.104	1345.617	1007.362
67.520	13.195	1343.972	1006.599
68.534	13.240	1342.960	1006.025
69.549	13.175	1342.027	1004.841
70.563	13.162	1340.774	1003.735
71.578	13.160	1339.889	1002.975
72.593	13.117	1338.400	1001.510
73.607	13.131	1338.124	1001.300
74.622	13.140	1337.534	1000.823
75.636	13.198	1336.082	999.996
76.651	13.100	1335.522	998.898
77.666	13.078	1335.331	998.537
78.680	13.166	1334.416	998.294
79.695	13.170	1333.431	997.495
80.709	13.153	1333.375	997.259
81.724	13.232	1332.111	996.703
82.739	13.298	1331.189	996.325
83.753	13.362	1329.660	995.473
84.768	13.290	1329.108	994.537
85.782	13.444	1327.672	994.300
86.797	13.276	1326.818	992.565
87.812	13.239	1325.288	991.113
88.826	13.233	1324.016	990.035
89.841	13.360	1323.031	989.972
90.855	13.380	1321.996	989.230
91.870	13.334	1321.177	988.254
92.884	13.351	1320.605	987.842
93.899	13.426	1319.681	987.512
94.914	13.465	1318.732	986.949
95.928	13.454	1317.904	986.176
96.943	13.521	1316.112	985.146
97.957	13.430	1315.947	984.391
98.972	13.468	1315.111	983.905
99.987	13.458	1313.895	982.851
101.001	13.455	1312.907	982.003
102.016	13.384	1311.799	980.670
103.030	13.358	1311.049	979.866
104.045	13.341	1310.176	979.028
105.060	13.377	1308.842	978.155
106.074	13.247	1307.758	976.494
107.089	13.279	1306.151	975.396
108.103	13.315	1304.511	974.295
109.118	13.232	1303.584	973.029
110.133	13.206	1302.335	971.857
111.147	13.289	1300.699	971.039
112.162	13.263	1299.487	969.892
113.176	13.318	1298.681	969.528
114.191	13.320	1297.369	968.477
115.206	13.344	1296.227	967.682
116.220	13.335	1294.958	966.596
117.235	13.306	1294.310	965.857
118.249	13.353	1292.835	964.942
119.264	13.350	1292.005	964.218
120.279	13.290	1290.992	963.030
121.293	13.292	1289.990	962.208
122.308	13.295	1289.168	961.530
123.322	13.209	1288.106	960.150
124.337	13.186	1287.460	959.452
125.352	13.280	1285.391	958.370
126.366	13.226	1284.619	957.398
127.381	13.258	1283.101	956.365
128.395	13.230	1282.180	955.434
129.410	13.238	1281.281	954.723
130.424	13.327	1280.437	954.526
131.439	13.303	1279.596	953.675
132.454	13.381	1278.443	953.179
133.468	13.369	1277.368	952.226
134.483	13.324	1276.651	951.350
135.497	13.335	1275.916	950.780
136.512	13.365	1274.695	949.957
137.527	13.347	1273.044	948.541
138.541	13.373	1271.555	947.496
139.556	13.302	1270.233	946.021
140.570	13.415	1269.164	945.788
141.585	13.454	1267.883	944.973
142.600	13.459	1266.746	944.068
143.614	13.540	1266.242	944.069
144.629	13.537	1265.076	943.099
145.643	13.439	1264.457	941.996
146.658	13.373	1263.001	940.456
147.673	13.450	1261.237	939.493
148.687	13.470	1260.058	938.645
149.702	13.425	1258.655	937.262
150.716	13.504	1257.273	936.601
151.731	13.436	1256.600	935.633
152.746	13.371	1255.689	934.500
153.760	13.564	1253.732	934.052
154.775	13.558	1252.573	933.070
155.789	13.548	1251.554	932.171
156.804	13.421	1251.151	931.077
157.819	13.519	1249.820	930.553
158.833	13.606	1248.986	930.341
159.848	13.596	1247.869	929.368
160.862	13.728	1246.722	929.171
161.877	13.575	1245.833	927.570
162.892	13.545	1244.840	926.581
163.906	13.584	1243.732	925.891
164.921	13.579	1243.148	925.348
165.935	13.622	1241.881	924.564
166.950	13.616	1241.121	923.885
167.964	13.638	1240.612	923.542
168.979	13.697	1239.699	923.109
169.994	13.633	1239.110	922.233
171.008	13.677	1238.117	921.661
172.023	13.605	1237.434	920.668
173.037	13.790	1236.343	920.800
174.052	13.713	1235.895	919.962
175.067	13.684	1234.500	918.678
176.081	13.606	1233.428	917.367
177.096	13.597	1233.050	916.958
178.110	13.720	1231.384	916.319
179.125	13.733	1230.580	915.711
180.140	13.738	1229.148	914.590
181.154	13.749	1227.665	913.466
182.169	13.752	1226.728	912.706
183.183	13.750	1225.784	911.909
184.198	13.838	1224.853	911.623
185.213	13.889	1223.219	910.604
186.227	14.002	1221.611	909.945
187.242	13.926	1221.420	909.306
188.256	14.016	1220.406	908.963
189.271	13.943	1219.034	907.460
190.286	13.901	1218.172	906.509
191.300	13.819	1217.630	905.580
192.315	13.815	1216.720	904.800
193.329	13.723	1216.218	903.849
194.344	13.796	1215.744	903.814
195.359	13.894	1214.936	903.662
196.373	13.900	1214.231	903.090
197.388	14.010	1214.018	903.452
198.402	14.039	1213.500	903.145
199.417	14.103	1212.398	902.592
200.432	14.130	1211.648	902.100
201.446	14.226	1210.508	901.694
202.461	14.171	1209.737	900.738
203.475	14.109	1209.108	899.858
204.490	14.162	1207.911	899.170
205.504	14.131	1206.363	897.774
206.519	14.126	1205.077	896.712
207.534	14.173	1204.051	896.120
208.548	14.102	1203.317	895.113
209.563	14.191	1202.281	894.742
210.577	14.089	1201.395	893.453
211.592	14.135	1200.786	893.170
212.607	14.207	1199.734	892.693
213.621	14.230	1199.021	892.211
214.636	14.237	1198.107	891.485
215.650	14.257	1196.846	890.575
216.665	14.345	1196.308	890.570
217.680	14.297	1195.252	889.445
218.694	14.410	1194.177	889.173
219.709	14.386	1193.700	888.611
220.723	14.295	1192.806	887.380
221.738	14.256	1192.240	886.675
222.753	14.394	1191.441	886.732
223.767	14.352	1190.507	885.736
224.782	14.502	1189.464	885.681
225.796	14.574	1189.126	885.735
226.811	14.423	1188.686	884.526
227.826	14.469	1187.884	884.096
228.840	14.386	1187.583	883.352
229.855	14.523	1186.053	882.862
230.869	14.516	1185.556	882.373
231.884	14.484	1184.383	881.256
232.899	14.356	1183.956	880.185
233.913	14.436	1183.193	879.959
234.928	14.468	1182.406	879.468
235.942	14.359	1181.779	878.349
236.957	14.463	1181.109	878.319
237.972	14.479	1180.212	877.658
238.986	14.422	1179.877	877.034
240.001	14.433	1179.250	876.545
241.015	14.583	1178.040	876.356
242.030	14.633	1177.055	875.811
243.045	14.670	1176.261	875.336
244.059	14.593	1175.400	874.216
245.074	14.671	1174.748	874.058
246.088	14.600	1174.076	873.111
247.103	14.697	1172.866	872.638
248.117	14.725	1172.182	872.201
249.132	14.804	1171.457	871.995
250.147	14.909	1170.815	871.989
251.161	14.904	1170.035	871.303
252.176	14.844	1169.365	870.418
253.190	14.935	1168.742	870.351
254.205	14.961	1168.066	869.904
255.220	14.983	1167.649	869.629
256.234	14.961	1167.128	869.053
257.249	14.982	1166.115	868.330
258.263	15.053	1165.283	868.000
259.278	15.047	1165.058	867.726
260.293	15.102	1164.460	867.491
261.307	15.047	1163.783	866.621
262.322	15.171	1162.878	866.513
263.336	15.105	1162.620	865.905
264.351	15.064	1162.019	865.168
265.366	15.236	1161.006	865.225
266.380	15.142	1160.348	864.174
267.395	15.165	1159.262	863.407
268.409	15.073	1158.934	862.612
269.424	15.162	1158.295	862.518
270.439	15.146	1157.617	861.852
271.453	15.229	1156.648	861.484
272.468	15.115	1155.942	860.293
273.482	15.154	1155.141	859.822
274.497	15.136	1154.986	859.540
275.512	15.149	1153.921	858.739
276.526	15.139	1153.289	858.139
277.541	15.270	1152.248	857.958
278.555	15.161	1151.966	857.117
279.570	15.275	1150.958	856.874
280.585	15.250	1150.298	856.177
281.599	15.333	1149.103	855.638
282.614	15.332	1148.069	854.788
283.628	15.332	1147.020	853.928
284.643	15.344	1145.997	853.155
285.657	15.348	1145.359	852.622
286.672	15.342	1144.379	851.787
287.687	15.355	1143.615	851.207
288.701	15.454	1142.760	851.002
289.716	15.386	1141.732	849.815
290.730	15.382	1141.294	849.392
291.745	15.441	1140.378	848.932
292.760	15.533	1139.627	848.765
293.774	15.591	1139.090	848.581
294.789	15.568	1138.659	848.070
295.803	15.552	1138.145	847.533
296.818	15.541	1136.996	846.548
297.833	15.498	1136.627	845.978
298.847	15.520	1136.194	845.692
299.862	15.523	1135.460	845.087
300.876	15.487	1134.464	844.092
301.891	15.742	1133.079	844.267
302.906	15.620	1132.917	843.457
303.920	15.746	1132.341	843.588
304.935	15.576	1131.927	842.352
305.949	15.880	1131.197	843.255
306.964	15.747	1130.383	841.910
307.979	15.688	1129.513	840.890
308.993	15.821	1128.680	840.862
310.008	15.688	1128.371	839.894
311.022	15.787	1127.324	839.532
312.037	15.818	1126.505	839.002
313.052	15.842	1125.460	838.272
314.066	15.695	1124.604	836.825
315.081	15.809	1123.738	836.677
316.095	15.714	1123.140	835.686
317.110	15.734	1122.827	835.477
318.125	15.757	1121.889	834.818
319.139	15.710	1121.148	833.961
320.154	15.792	1120.440	833.766
321.168	15.766	1119.766	833.062
322.183	15.805	1119.193	832.757
323.197	15.892	1118.347	832.483
324.212	15.960	1117.685	832.252
325.227	15.943	1117.176	831.714
326.241	15.837	1116.926	830.934
327.256	15.816	1115.993	830.062
328.270	15.917	1114.985	829.736
329.285	15.846	1114.119	828.669
330.300	15.918	1112.984	828.107
331.314	15.934	1112.167	827.501
332.329	15.878	1111.525	826.677
333.343	15.853	1110.229	825.516
334.358	15.926	1109.674	825.391
335.373	16.039	1108.685	825.134
336.387	15.979	1107.968	824.231
337.402	16.079	1107.264	824.125
338.416	16.081	1106.498	823.491
339.431	16.083	1105.943	823.015
340.446	16.051	1105.577	822.515
341.460	16.237	1104.426	822.492
342.475	16.272	1103.796	822.121
343.489	16.206	1102.856	821.027
344.504	16.219	1102.112	820.461
345.519	16.351	1101.052	820.245
346.533	16.315	1100.795	819.803
347.548	16.266	1099.911	818.835
348.562	16.363	1098.983	818.544
349.577	16.324	1098.289	817.764
350.592	16.203	1097.359	816.416
351.606	16.196	1096.671	815.798
352.621	16.195	1095.989	815.210
353.635	16.369	1094.783	815.084
354.650	16.352	1094.338	814.597
355.665	16.326	1093.575	813.831
356.679	16.341	1092.989	813.393
357.694	16.371	1092.136	812.831
358.708	16.323	1092.176	812.562
359.723	16.416	1091.173	812.187
360.738	16.440	1090.559	811.777
361.752	16.504	1089.942	811.549
362.767	16.463	1089.282	810.794
363.781	16.545	1088.706	810.682
364.796	16.566	1088.052	810.224
365.810	16.576	1087.509	809.796
366.825	16.658	1086.626	809.461
367.840	16.568	1086.584	808.929
368.854	16.690	1086.182	809.140
369.869	16.677	1085.122	808.217
370.883	16.735	1083.724	807.381
371.898	16.675	1083.477	806.837
372.913	16.715	1082.861	806.501
373.927	16.829	1082.030	806.349
374.942	16.752	1081.970	805.871
375.956	16.785	1081.351	805.496
376.971	16.780	1081.090	805.203
377.986	16.731	1080.440	804.414
379.000	16.803	1079.464	803.959
380.015	16.779	1079.060	803.474
381.029	16.817	1078.714	803.326
382.044	16.928	1077.667	803.002
383.059	16.966	1076.661	802.360
384.073	16.946	1075.813	801.561
385.088	16.919	1075.051	800.796
386.102	16.983	1074.351	800.507
387.117	16.926	1073.582	799.592
388.132	16.788	1072.452	798.032
389.146	16.859	1071.725	797.753
390.161	16.874	1071.028	797.234
391.175	16.786	1070.405	796.284
392.190	16.987	1069.514	796.497
393.205	17.161	1068.377	796.395
394.219	16.956	1068.198	795.232
395.234	17.001	1066.958	794.446
396.248	17.129	1065.785	794.105
397.263	16.973	1065.171	792.848
398.278	17.030	1064.576	792.598
399.292	16.908	1064.337	791.781
400.307	16.885	1063.264	790.807
401.321	17.059	1062.347	790.863
402.336	17.009	1061.698	790.080
403.350	17.019	1061.132	789.636
404.365	17.027	1060.785	789.344
405.380	16.987	1060.131	788.601
406.394	17.171	1058.912	788.477
407.409	17.138	1057.942	787.536
408.423	17.282	1057.491	787.796
409.438	17.111	1057.271	786.770
410.453	17.228	1056.315	786.532
411.467	17.286	1055.560	786.167
412.482	17.403	1054.673	785.978
413.496	17.350	1054.101	785.238
414.511	17.315	1053.927	784.875
415.526	17.458	1053.052	784.816
416.540	17.393	1052.852	784.298
417.555	17.481	1051.827	783.867
418.569	17.465	1051.568	783.531
419.584	17.508	1051.112	783.323
420.599	17.552	1050.732	783.172
421.613	108.156	1330.852	1488.010
422.628	99.558	1371.622	1488.107
