DTS Sentinel unit serial number:	SN413079Multiplexer serial number:	ORYXHardware model number:	OX4-SRSoftware version number:	ORYX F/W v4.00 Oryx Data Collector v3.7.2.0data status	okinstallation	princeton_trtdifferential loss correction	single-endedforward channel	channel 2reverse channel	N/Adate	2019/09/13time	15:15:34forward acquisition time	60.00reverse acquisition time	0.00gamma	496.2192k internal	0.2315k external	0.2315temperature offset calibration	1.0215default loss term (dB/km)	0.3790temperature slope calibration	1.0000multiplexer offset coefficient	1.0000multiplexer slope coefficient	1.0000fibre end	0.00T internal ref (°C)	35.50T ext. ref 1 (°C)	4.74T ext. ref 2 (°C)	29.90length (m)	temperature (°C)	Stokes	anti-Stokes-747.200	-141.572	-0.443	0.045
-746.185	389.902	0.089	0.187
-745.171	27.606	0.158	0.135
-744.156	-34.117	-0.254	0.141
-743.142	-200.000	0.061	0.275
-742.127	-21.075	0.295	0.183
-741.112	71.618	-0.043	0.045
-740.098	-14.067	-0.118	-0.077
-739.083	800.000	0.039	0.148
-738.069	492.787	0.124	0.287
-737.054	667.038	-0.081	0.211
-736.039	307.434	0.061	-0.115
-735.025	698.686	0.101	0.270
-734.010	-133.058	-0.192	-0.025
-732.996	119.036	0.144	-0.180
-731.981	-90.428	0.057	0.017
-730.966	127.763	-0.127	0.163
-729.952	-37.404	-0.269	-0.146
-728.937	-200.000	-0.006	0.372
-727.923	4.955	-0.123	0.092
-726.908	230.093	-0.096	-0.160
-725.894	-200.000	-0.023	-0.120
-724.879	210.233	-0.211	-0.336
-723.864	-13.994	-0.183	-0.119
-722.850	-152.450	0.081	0.006
-721.835	-200.000	0.027	0.278
-720.821	602.815	0.057	0.144
-719.806	-84.557	-0.282	-0.090
-718.791	255.129	-0.082	0.142
-717.777	800.000	-0.093	0.335
-716.762	430.658	0.136	-0.297
-715.748	-47.634	-0.119	-0.058
-714.733	800.000	-0.132	-0.463
-713.718	512.931	-0.054	0.128
-712.704	45.855	0.010	-0.009
-711.689	69.755	-0.057	-0.060
-710.675	93.445	0.282	0.323
-709.660	-82.990	-0.305	-0.100
-708.645	-76.128	-0.286	0.102
-707.631	210.674	-0.081	-0.129
-706.616	-158.827	0.158	-0.009
-705.602	62.712	0.129	0.130
-704.587	-94.071	-0.248	-0.069
-703.572	-200.000	-0.011	0.278
-702.558	453.805	0.159	-0.356
-701.543	45.451	-0.319	-0.298
-700.529	800.000	-0.039	-0.137
-699.514	87.047	-0.130	0.145
-698.499	187.384	0.187	-0.283
-697.485	-2.838	0.198	-0.140
-696.470	508.166	-0.109	-0.257
-695.456	-144.233	0.237	0.022
-694.441	-142.744	0.062	-0.006
-693.426	-94.525	-0.251	-0.069
-692.412	800.000	-0.023	-0.068
-691.397	278.896	0.085	0.153
-690.383	-200.000	0.048	-0.316
-689.368	-50.555	0.122	-0.058
-688.354	107.754	-0.117	0.141
-687.339	-149.947	-0.135	0.011
-686.324	-130.955	-0.348	-0.047
-685.310	-122.693	0.174	0.028
-684.295	-147.629	-0.158	-0.013
-683.281	384.038	-0.043	0.090
-682.266	-88.730	0.125	0.037
-681.251	800.000	-0.036	-0.127
-680.237	13.899	0.174	-0.137
-679.222	-72.607	0.274	-0.102
-678.208	249.909	-0.084	0.145
-677.193	-114.087	-0.437	0.086
-676.178	-26.001	0.123	0.073
-675.164	800.000	-0.048	-0.152
-674.149	-200.000	-0.070	-0.402
-673.135	127.411	0.092	-0.117
-672.120	611.674	-0.136	0.345
-671.105	-200.000	-0.026	-0.184
-670.091	-127.146	0.063	-0.009
-669.076	-118.746	-0.305	-0.054
-668.062	-62.223	0.217	-0.091
-667.047	454.846	0.107	0.240
-666.032	-78.968	-0.429	0.147
-665.018	-83.011	0.069	-0.023
-664.003	85.634	0.151	0.167
-662.989	800.000	-0.079	-0.294
-661.974	-200.000	0.030	-0.251
-660.959	125.897	-0.118	-0.151
-659.945	-69.532	0.182	0.070
-658.930	113.179	0.145	-0.177
-657.916	-42.826	-0.180	0.092
-656.901	-200.000	0.015	-0.073
-655.886	-200.000	0.022	0.217
-654.872	800.000	0.047	0.196
-653.857	16.634	-0.235	-0.188
-652.843	423.689	-0.064	-0.138
-651.828	-200.000	-0.045	0.276
-650.814	190.310	-0.087	0.131
-649.799	-200.000	0.057	-0.254
-648.784	-200.000	0.037	-0.206
-647.770	12.468	0.036	-0.028
-646.755	-35.938	0.227	0.124
-645.741	28.624	0.263	-0.225
-644.726	23.739	0.143	0.119
-643.711	-157.733	0.431	0.026
-642.697	123.633	-0.261	0.330
-641.682	-19.807	-0.141	0.088
-640.668	32.421	-0.159	0.139
-639.653	-200.000	-0.057	-0.282
-638.638	264.582	0.073	0.129
-637.624	800.000	-0.045	-0.171
-636.609	-141.079	0.369	-0.038
-635.595	58.855	0.115	-0.114
-634.580	-195.693	-0.097	0.001
-633.565	-200.000	0.035	-0.294
-632.551	62.796	0.180	0.181
-631.536	-63.644	0.145	-0.060
-630.522	800.000	0.091	-0.253
-629.507	-141.090	0.146	-0.015
-628.492	800.000	-0.040	-0.154
-627.478	-34.413	0.124	0.068
-626.463	-29.888	0.065	0.038
-625.449	-200.000	-0.008	-0.162
-624.434	27.362	0.136	0.115
-623.419	378.179	-0.051	-0.106
-622.405	33.631	-0.200	-0.175
-621.390	13.885	-0.114	0.089
-620.376	-77.553	0.100	0.035
-619.361	-200.000	-0.040	-0.292
-618.346	34.247	0.197	-0.173
-617.332	132.604	-0.122	-0.159
-616.317	-200.000	-0.013	-0.174
-615.303	-200.000	0.049	-0.000
-614.288	-146.405	0.177	-0.016
-613.273	433.709	-0.058	0.127
-612.259	-106.798	0.422	0.094
-611.244	-84.521	-0.124	-0.040
-610.230	-115.917	0.127	0.024
-609.215	-3.182	-0.211	0.148
-608.201	-104.591	-0.307	0.071
-607.186	-162.271	0.087	0.004
-606.171	-200.000	-0.010	-0.556
-605.157	-80.194	-0.260	0.088
-604.142	-200.000	0.028	-0.141
-603.128	-179.515	-0.204	-0.005
-602.113	38.304	0.150	0.135
-601.098	800.000	0.026	0.080
-600.084	-3.620	-0.144	0.101
-599.069	-54.986	-0.162	0.073
-598.055	-69.901	-0.389	-0.150
-597.040	35.618	-0.020	0.018
-596.025	-200.000	-0.095	-0.491
-595.011	-128.073	0.519	0.075
-593.996	-200.000	0.022	0.136
-592.982	110.680	-0.327	-0.397
-591.967	-200.000	0.602	-0.000
-590.952	800.000	-0.007	-0.026
-589.938	-94.622	-0.211	-0.058
-588.923	-65.049	-0.074	0.030
-587.909	-200.000	0.001	-0.181
-586.894	-200.000	0.050	-0.259
-585.879	-200.000	-0.001	-0.077
-584.865	339.385	-0.087	0.172
-583.850	42.319	0.313	0.286
-582.836	-37.325	0.282	0.152
-581.821	17.354	0.069	0.055
-580.806	-200.000	-0.070	-0.536
-579.792	-200.000	0.030	-0.362
-578.777	-200.000	-0.030	-0.167
-577.763	-131.408	-0.323	-0.043
-576.748	-88.292	0.103	0.031
-575.733	302.785	0.018	-0.034
-574.719	36.886	-0.341	-0.304
-573.704	10.303	0.149	-0.114
-572.690	-7.776	0.114	0.078
-571.675	-89.224	-0.378	-0.112
-570.661	-20.278	0.123	0.076
-569.646	-124.549	0.344	-0.054
-568.631	-109.510	-0.387	-0.082
-567.617	541.764	0.091	0.218
-566.602	-58.489	-0.195	0.085
-565.588	-113.824	0.319	-0.062
-564.573	7.553	-0.008	0.006
-563.558	-200.000	0.018	-0.296
-562.544	-32.789	0.141	-0.079
-561.529	-136.483	-0.457	0.053
-560.515	18.209	-0.250	-0.201
-559.500	-155.476	-0.167	-0.011
-558.485	-163.096	-0.169	-0.008
-557.471	-200.000	0.014	0.241
-556.456	-200.000	-0.033	-0.338
-555.442	-98.208	-0.223	0.058
-554.427	-12.396	0.223	0.146
-553.412	-200.000	0.046	0.444
-552.398	1.082	-0.201	-0.145
-551.383	-24.592	0.338	-0.202
-550.369	320.368	0.161	0.308
-549.354	-121.113	0.171	-0.029
-548.339	-200.000	-0.052	0.338
-547.325	-90.388	0.137	0.040
-546.310	800.000	-0.042	0.174
-545.296	-200.000	0.041	-0.398
-544.281	166.153	-0.066	-0.094
-543.266	-39.259	-0.021	-0.011
-542.252	455.101	-0.097	-0.217
-541.237	-90.018	0.233	0.068
-540.223	49.877	-0.060	-0.056
-539.208	24.240	-0.158	-0.131
-538.193	303.370	0.090	0.168
-537.179	94.605	0.124	-0.142
-536.164	103.263	-0.151	0.178
-535.150	-146.064	0.398	-0.035
-534.135	-23.155	0.469	0.284
-533.121	-72.235	-0.039	0.015
-532.106	-200.000	-0.016	0.107
-531.091	37.219	-0.255	0.227
-530.077	271.209	-0.113	0.199
-529.062	-104.624	0.198	0.046
-528.048	-3.479	0.162	0.113
-527.033	-92.097	-0.122	0.035
-526.018	477.251	0.106	-0.240
-525.004	65.569	-0.226	0.230
-523.989	5.402	-0.257	-0.190
-522.975	124.548	-0.276	-0.349
-521.960	-37.659	0.232	-0.124
-520.945	-149.195	0.308	0.025
-519.931	-200.000	-0.003	-0.405
-518.916	137.580	0.080	0.105
-517.902	52.307	-0.310	0.297
-516.887	-200.000	0.015	-0.213
-515.872	800.000	0.027	-0.080
-514.858	-200.000	-0.227	0.000
-513.843	473.520	0.024	-0.055
-512.829	419.215	0.147	-0.315
-511.814	289.072	0.050	-0.092
-510.799	397.848	0.048	0.102
-509.785	-23.803	0.300	-0.180
-508.770	601.615	0.059	0.146
-507.756	209.795	-0.176	-0.277
-506.741	4.531	-0.160	-0.118
-505.726	20.312	-0.222	-0.180
-504.712	800.000	-0.061	0.196
-503.697	649.702	-0.049	-0.125
-502.683	261.182	-0.148	0.258
-501.668	635.880	0.027	-0.068
-500.653	800.000	-0.037	-0.127
-499.639	-71.806	-0.019	0.007
-498.624	179.507	-0.116	-0.171
-497.610	55.724	-0.128	0.125
-496.595	317.656	-0.080	-0.152
-495.581	199.549	0.252	0.388
-494.566	-132.123	-0.088	-0.011
-493.551	91.085	0.141	0.159
-492.537	209.794	0.055	0.087
-491.522	40.620	-0.167	0.151
-490.508	-66.797	-0.282	0.112
-489.493	401.978	-0.146	0.307
-488.478	-98.557	0.269	0.069
-487.464	132.938	-0.095	0.123
-486.449	606.612	0.082	-0.206
-485.435	73.231	-0.139	-0.146
-484.420	-36.500	-0.295	0.160
-483.405	-42.419	0.396	-0.202
-482.391	-200.000	0.010	0.322
-481.376	-34.828	0.187	0.102
-480.362	17.130	0.108	0.086
-479.347	-154.869	0.364	-0.024
-478.332	1.744	-0.158	0.114
-477.318	-3.329	0.089	0.062
-476.303	-7.949	0.175	-0.118
-475.289	-109.263	0.136	0.029
-474.274	-200.000	-0.013	-0.241
-473.259	262.677	-0.017	0.030
-472.245	-151.679	-0.384	-0.028
-471.230	800.000	-0.058	0.231
-470.216	-37.588	0.086	0.046
-469.201	346.641	0.150	0.296
-468.186	-200.000	-0.006	-0.149
-467.172	44.807	0.323	0.298
-466.157	-200.000	0.016	-0.133
-465.143	110.530	0.135	-0.163
-464.128	-19.680	-0.138	0.086
-463.113	-200.000	-0.030	0.154
-462.099	-62.904	0.206	-0.085
-461.084	-90.190	0.030	-0.009
-460.070	-200.000	0.062	0.342
-459.055	800.000	-0.066	0.220
-458.040	42.703	0.307	-0.280
-457.026	-59.502	-0.356	-0.153
-456.011	204.041	0.131	0.204
-454.997	-200.000	-0.039	0.231
-453.982	22.600	-0.291	0.239
-452.968	-200.000	0.052	0.353
-451.953	-200.000	0.004	-0.093
-450.938	-63.293	-0.322	-0.133
-449.924	-15.625	-0.248	0.159
-448.909	72.765	-0.124	-0.130
-447.895	800.000	0.092	0.272
-446.880	11.857	0.039	-0.030
-445.865	-67.302	-0.415	0.164
-444.851	49.578	-0.276	-0.260
-443.836	193.782	-0.101	-0.153
-442.822	106.415	-0.177	0.210
-441.807	-67.775	0.279	0.109
-440.792	78.762	-0.190	-0.203
-439.778	101.091	0.341	0.397
-438.763	15.635	0.366	-0.288
-437.749	37.760	-0.250	-0.222
-436.734	169.535	-0.056	-0.080
-435.719	-11.147	0.169	-0.112
-434.705	-121.317	0.319	-0.053
-433.690	-72.235	-0.101	0.037
-432.676	-158.568	0.386	-0.022
-431.661	136.097	0.185	-0.242
-430.646	-200.000	-0.092	-0.463
-429.632	45.210	0.227	-0.210
-428.617	-99.312	-0.252	-0.064
-427.603	-200.000	-0.013	-0.118
-426.588	-85.850	-0.262	0.081
-425.573	154.328	0.099	0.135
-424.559	739.839	-0.116	-0.311
-423.544	-48.282	-0.073	-0.035
-422.530	376.768	-0.106	0.217
-421.515	-13.843	0.237	0.153
-420.500	800.000	0.013	-0.044
-419.486	-173.881	0.126	-0.004
-418.471	138.724	-0.253	0.332
-417.457	800.000	-0.071	-0.204
-416.442	-130.841	0.157	-0.021
-415.428	-200.000	0.025	-0.140
-414.413	-149.810	-0.200	0.016
-413.398	-103.102	0.266	0.063
-412.384	491.910	-0.072	0.165
-411.369	-51.584	-0.151	0.071
-410.355	-200.000	-0.018	-0.081
-409.340	170.055	0.036	-0.052
-408.325	94.764	0.105	0.119
-407.311	7.708	-0.293	-0.219
-406.296	-200.000	-0.012	0.174
-405.282	11.833	0.099	-0.076
-404.267	-132.668	-0.230	0.029
-403.252	-31.721	-0.186	0.104
-402.238	800.000	0.021	-0.091
-401.223	-168.542	0.310	0.012
-400.209	-200.000	-0.017	-0.309
-399.194	800.000	-0.096	-0.284
-398.179	367.735	0.153	0.309
-397.165	-33.914	-0.056	-0.031
-396.150	70.172	-0.195	0.201
-395.136	93.445	-0.244	0.276
-394.121	-200.000	-0.012	0.071
-393.106	-200.000	-0.066	0.364
-392.092	119.711	0.298	0.369
-391.077	-87.221	-0.231	0.070
-390.063	-32.327	-0.202	0.113
-389.048	621.781	0.009	-0.022
-388.033	80.369	0.199	-0.214
-387.019	-33.239	0.028	0.015
-386.004	-200.000	0.020	0.161
-384.990	23.944	0.159	-0.131
-383.975	148.889	-0.058	0.078
-382.960	-200.000	-0.025	0.114
-381.946	250.632	0.195	0.330
-380.931	800.000	-0.132	0.516
-379.917	253.282	-0.134	0.229
-378.902	-200.000	0.010	0.148
-377.888	88.533	-0.155	-0.172
-376.873	-189.708	0.599	-0.007
-375.858	800.000	-0.073	-0.239
-374.844	-200.000	0.016	0.216
-373.829	80.494	-0.069	0.074
-372.815	-48.122	0.265	0.128
-371.800	631.012	0.067	-0.170
-370.785	46.375	0.065	-0.060
-369.771	28.253	-0.256	-0.216
-368.756	-107.827	-0.367	0.080
-367.742	-28.348	0.399	0.230
-366.727	20.041	0.156	0.126
-365.712	800.000	-0.016	0.059
-364.698	155.793	-0.138	-0.190
-363.683	46.594	0.175	-0.162
-362.669	-47.634	-0.234	0.113
-361.654	-171.519	0.315	-0.010
-360.639	-93.005	-0.370	0.103
-359.625	-178.271	0.136	-0.003
-358.610	57.259	-0.078	0.076
-357.596	66.346	0.176	-0.179
-356.581	635.311	0.033	-0.085
-355.566	-159.467	0.191	0.011
-354.552	-130.393	-0.114	-0.015
-353.537	232.129	0.138	-0.225
-352.523	218.426	0.105	-0.168
-351.508	-58.271	-0.261	-0.114
-350.493	-75.817	0.146	-0.052
-349.479	86.875	-0.197	0.217
-348.464	-126.895	-0.450	0.066
-347.450	-16.963	-0.131	0.083
-346.435	-5.181	0.257	0.176
-345.420	145.566	0.240	0.320
-344.406	-31.330	0.187	0.105
-343.391	374.599	-0.075	0.152
-342.377	-200.000	-0.052	0.360
-341.362	-200.000	-0.007	-0.197
-340.348	800.000	0.014	-0.060
-339.333	-149.236	-0.313	-0.025
-338.318	258.124	0.242	-0.415
-337.304	-69.623	0.254	0.097
-336.289	428.310	0.075	-0.162
-335.275	-149.920	-0.136	-0.011
-334.260	800.000	0.068	0.222
-333.245	296.893	-0.105	-0.191
-332.231	-1.860	-0.472	0.331
-331.216	-200.000	0.022	0.210
-330.202	800.000	-0.112	0.383
-329.187	-57.954	-0.286	0.125
-328.172	800.000	-0.097	0.325
-327.158	-137.151	-0.284	-0.032
-326.143	151.728	0.224	-0.305
-325.129	34.198	0.165	-0.143
-324.114	-72.337	0.090	-0.033
-323.099	136.844	-0.069	-0.090
-322.085	163.151	-0.327	0.458
-321.070	148.779	-0.171	-0.230
-320.056	-157.136	0.266	0.016
-319.041	-192.157	-0.149	0.001
-318.026	-14.705	0.134	0.086
-317.012	800.000	0.191	-0.563
-315.997	389.990	0.169	-0.349
-314.983	-33.417	0.175	-0.096
-313.968	-82.145	0.023	-0.007
-312.953	63.874	-0.237	0.237
-311.939	800.000	0.058	-0.182
-310.924	96.634	0.277	0.316
-309.910	-68.907	-0.354	0.136
-308.895	470.358	0.099	0.222
-307.880	43.123	-0.134	-0.122
-306.866	403.153	-0.047	0.098
-305.851	800.000	-0.027	0.115
-304.837	-200.000	0.290	0.001
-303.822	-159.289	-0.295	-0.016
-302.807	34.215	0.146	0.126
-301.793	-122.611	-0.453	0.073
-300.778	-37.368	0.182	0.097
-299.764	275.072	-0.105	-0.186
-298.749	800.000	-0.027	-0.092
-297.735	164.679	0.077	-0.108
-296.720	-134.315	0.389	0.048
-295.705	-200.000	0.025	-0.234
-294.691	-159.953	0.361	-0.020
-293.676	-200.000	0.009	-0.097
-292.662	342.991	0.132	0.258
-291.647	800.000	-0.049	-0.184
-290.632	208.619	-0.120	0.186
-289.618	-151.873	0.314	-0.023
-288.603	-80.466	-0.328	0.109
-287.589	764.491	-0.031	-0.083
-286.574	156.570	0.344	-0.473
-285.559	467.716	-0.127	-0.284
-284.545	-154.302	0.360	0.024
-283.530	-200.000	-0.030	-0.172
-282.516	107.220	0.037	0.044
-281.501	517.813	0.106	0.247
-280.486	322.982	0.044	0.084
-279.472	365.886	0.071	0.142
-278.457	60.717	0.077	0.076
-277.443	-200.000	0.051	0.362
-276.428	19.960	0.174	0.139
-275.413	687.406	-0.041	0.106
-274.399	508.208	0.188	-0.434
-273.384	-0.782	-0.352	-0.248
-272.370	219.815	-0.179	0.285
-271.355	800.000	0.143	-0.399
-270.340	-118.997	-0.314	0.055
-269.326	-85.623	0.245	-0.076
-268.311	-108.116	-0.177	0.038
-267.297	60.288	-0.169	-0.166
-266.282	-9.338	0.247	0.164
-265.267	-165.386	-0.404	0.018
-264.253	-200.000	-0.001	-0.012
-263.238	800.000	0.043	-0.120
-262.224	293.325	0.225	-0.408
-261.209	800.000	-0.114	-0.358
-260.195	62.419	-0.099	0.099
-259.180	800.000	-0.084	-0.300
-258.165	800.000	-0.106	0.328
-257.151	105.375	-0.098	0.115
-256.136	59.652	-0.190	0.186
-255.122	-140.086	0.141	-0.015
-254.107	258.058	-0.111	-0.190
-253.092	-138.391	-0.083	-0.009
-252.078	-131.230	0.260	0.034
-251.063	-86.869	0.088	-0.027
-250.049	485.902	-0.071	0.161
-249.034	333.911	-0.104	0.201
-248.019	6.005	0.042	-0.031
-247.005	-64.947	-0.159	0.064
-245.990	19.690	-0.017	0.013
-244.976	60.992	-0.185	-0.183
-243.961	61.768	0.286	0.283
-242.946	-46.652	0.068	0.033
-241.932	50.563	-0.098	0.092
-240.917	-23.776	-0.225	0.134
-239.903	-138.328	-0.214	-0.023
-238.888	158.578	0.384	-0.529
-237.873	43.074	-0.115	-0.105
-236.859	106.701	0.135	0.159
-235.844	276.080	-0.059	0.104
-234.830	800.000	-0.061	0.231
-233.815	-86.658	-0.453	-0.138
-232.800	-70.870	-0.186	0.070
-231.786	108.192	-0.121	-0.143
-230.771	468.556	-0.135	0.300
-229.757	477.131	0.057	0.129
-228.742	-8.011	0.276	-0.185
-227.727	-99.759	-0.050	-0.012
-226.713	57.244	-0.174	-0.168
-225.698	-5.046	-0.239	-0.163
-224.684	54.107	-0.115	0.109
-223.669	-175.994	-0.222	-0.006
-222.655	188.084	0.203	0.301
-221.640	-108.040	-0.332	0.072
-220.625	26.084	0.103	0.085
-219.611	-111.642	0.190	-0.038
-218.596	-200.000	-0.045	-0.241
-217.582	212.817	-0.017	0.027
-216.567	74.337	-0.105	0.109
-215.552	229.964	-0.043	0.069
-214.538	-63.331	-0.190	0.078
-213.523	-91.457	0.277	0.078
-212.509	199.265	-0.039	0.059
-211.494	-200.000	-0.018	0.286
-210.479	4.039	-0.136	0.098
-209.465	32.867	0.155	0.133
-208.450	42.306	0.184	0.166
-207.436	-181.278	0.200	-0.004
-206.421	470.746	0.037	0.083
-205.406	-38.149	0.105	-0.055
-204.392	76.476	0.145	0.152
-203.377	248.584	0.228	-0.382
-202.363	-64.634	-0.051	-0.020
-201.348	395.213	0.056	-0.116
-200.333	-100.474	-0.254	-0.062
-199.319	-99.564	0.257	-0.064
-198.304	-55.432	-0.209	-0.093
-197.290	-72.054	-0.228	-0.084
-196.275	-54.878	0.071	0.032
-195.260	196.515	-0.198	-0.299
-194.246	81.522	0.128	-0.137
-193.231	247.238	-0.099	-0.165
-192.217	288.188	0.110	0.197
-191.202	40.856	-0.133	0.119
-190.187	800.000	-0.056	0.196
-189.173	42.723	0.109	-0.099
-188.158	800.000	-0.039	0.134
-187.144	-62.737	-0.156	0.064
-186.129	800.000	0.094	-0.382
-185.114	-44.564	-0.445	-0.221
-184.100	49.153	0.237	-0.221
-183.085	-22.475	-0.261	-0.156
-182.071	-171.271	0.197	-0.007
-181.056	86.501	0.303	0.331
-180.042	-200.000	-0.025	0.131
-179.027	-40.535	-0.159	0.082
-178.012	-200.000	-0.011	-0.115
-176.998	-148.142	0.390	-0.032
-175.983	-105.113	-0.106	-0.024
-174.969	-200.000	0.003	0.051
-173.954	2.969	0.133	0.096
-172.939	744.751	0.048	0.128
-171.925	-181.650	-0.296	-0.006
-170.910	800.000	-0.032	-0.114
-169.896	-110.780	0.520	0.106
-168.881	338.585	0.096	-0.186
-167.866	-64.394	-0.191	-0.077
-166.852	-200.000	-0.016	0.159
-165.837	-200.000	0.007	-0.161
-164.823	-53.846	0.157	0.071
-163.808	80.125	-0.021	0.023
-162.793	-200.000	0.032	0.245
-161.779	800.000	0.095	0.299
-160.764	491.997	-0.024	-0.054
-159.750	-95.742	0.263	-0.070
-158.735	-143.437	0.090	0.009
-157.720	297.323	-0.121	-0.221
-156.706	-166.529	-0.192	0.008
-155.691	113.214	-0.199	0.239
-154.677	64.343	0.062	0.061
-153.662	-74.349	-0.200	0.071
-152.647	58.879	-0.110	0.107
-151.633	-14.239	0.251	-0.160
-150.618	191.887	-0.128	-0.191
-149.604	-119.207	0.182	-0.031
-148.589	-158.338	0.339	0.020
-147.574	-97.750	0.093	0.024
-146.560	800.000	-0.101	0.412
-145.545	-63.152	0.231	0.094
-144.531	133.982	0.095	-0.122
-143.516	-63.220	0.130	0.053
-142.502	36.699	-0.211	0.184
-141.487	-73.304	-0.315	-0.114
-140.472	51.115	-0.200	0.188
-139.458	-134.936	-0.321	-0.038
-138.443	-96.423	0.107	0.028
-137.429	576.031	-0.051	-0.123
-136.414	-200.000	0.003	0.242
-135.399	-2.418	0.231	-0.160
-134.385	-153.192	-0.185	-0.013
-133.370	-72.863	-0.154	-0.056
-132.356	-90.468	-0.085	0.024
-131.341	179.618	-0.045	-0.065
-130.326	494.662	0.074	0.169
-129.312	-200.000	0.012	-0.254
-128.297	51.170	-0.158	0.149
-127.283	-200.000	0.040	0.253
-126.268	19.889	0.260	-0.207
-125.253	-200.000	-0.021	0.120
-124.239	800.000	0.038	-0.118
-123.224	175.561	0.140	-0.200
-122.210	14.001	-0.259	0.199
-121.195	-108.574	-0.079	0.017
-120.180	-1.865	-0.219	-0.153
-119.166	24.313	-0.189	0.154
-118.151	28.027	-0.106	0.088
-117.137	-131.731	0.098	0.013
-116.122	322.061	-0.118	0.223
-115.107	117.455	0.314	0.382
-114.093	-200.000	-0.019	0.239
-113.078	108.545	-0.160	0.188
-112.064	-135.445	0.272	-0.032
-111.049	-200.000	0.015	-0.388
-110.034	-108.804	-0.234	0.049
-109.020	51.347	-0.106	0.099
-108.005	-59.771	0.038	-0.016
-106.991	800.000	-0.032	0.125
-105.976	800.000	-0.035	-0.103
-104.962	-89.656	0.216	-0.062
-103.947	-108.262	-0.314	-0.067
-102.932	685.794	-0.061	0.157
-101.918	-52.846	-0.112	-0.051
-100.903	-2.486	0.095	0.066
-99.889	75.224	0.211	-0.220
-98.874	800.000	-0.075	-0.298
-97.859	-66.104	-0.092	0.036
-96.845	38.733	0.137	-0.121
-95.830	-94.355	-0.255	0.069
-94.816	102.793	0.283	0.327
-93.801	-57.974	0.077	0.033
-92.786	-200.000	0.016	0.073
-91.772	-200.000	-0.004	0.297
-90.757	-107.588	-0.309	-0.067
-89.743	-96.868	0.554	0.144
-88.728	344.342	-0.148	0.286
-87.713	-200.000	0.029	0.282
-86.699	-171.418	0.116	0.004
-85.684	41.546	0.216	-0.193
-84.670	-26.704	-0.046	-0.026
-83.655	458.078	0.048	0.105
-82.640	-200.000	0.024	-0.125
-81.626	-4.320	0.049	0.034
-80.611	-200.000	-0.018	0.228
-79.597	129.251	0.077	0.097
-78.582	-200.000	0.009	-0.397
-77.567	7.614	-0.387	-0.286
-76.553	-23.661	-0.207	0.123
-75.538	204.965	-0.084	0.129
-74.524	717.275	-0.053	-0.139
-73.509	47.848	0.175	-0.161
-72.494	800.000	0.146	0.400
-71.480	-27.702	-0.228	0.131
-70.465	40.221	-0.118	-0.105
-69.451	800.000	0.114	-0.427
-68.436	181.527	0.077	-0.112
-67.422	-36.756	0.258	0.137
-66.407	-117.284	-0.257	-0.046
-65.392	-153.461	-0.137	-0.009
-64.378	89.937	-0.132	0.146
-63.363	-134.254	0.360	-0.044
-62.349	-106.620	-0.268	-0.059
-61.334	163.325	-0.773	-1.072
-60.319	-154.301	0.265	0.018
-59.305	-200.000	-0.083	-0.862
-58.290	486.909	0.483	1.087
-57.276	680.022	0.538	1.381
-56.261	-200.000	94.793	558.046
-55.246	636.223	1385.077	3468.804
-54.232	186.848	2610.147	3835.693
-53.217	117.221	2317.039	2808.888
-52.203	45.414	1929.071	1755.881
-51.188	38.848	1715.683	1511.226
-50.173	36.004	1670.094	1449.645
-49.159	52.664	1718.077	1618.790
-48.144	56.151	1735.323	1661.555
-47.130	38.610	1692.121	1488.427
-46.115	35.641	1676.957	1452.627
-45.100	35.376	1672.320	1446.553
-44.086	35.424	1669.270	1444.224
-43.071	35.355	1667.083	1441.751
-42.057	35.380	1665.098	1440.166
-41.042	35.398	1662.957	1438.392
-40.027	35.362	1661.274	1436.608
-39.013	35.372	1659.215	1434.848
-37.998	35.447	1657.078	1433.505
-36.984	35.424	1655.941	1432.289
-35.969	35.498	1654.577	1431.607
-34.954	35.460	1652.961	1429.868
-33.940	35.472	1651.560	1428.690
-32.925	35.470	1649.552	1426.885
-31.911	35.477	1647.956	1425.496
-30.896	35.507	1645.832	1423.823
-29.881	35.490	1644.035	1422.092
-28.867	35.452	1642.753	1420.642
-27.852	35.501	1640.987	1419.420
-26.838	35.548	1639.923	1418.789
-25.823	35.558	1638.492	1417.568
-24.809	35.485	1637.314	1415.954
-23.794	35.476	1635.827	1414.549
-22.779	35.568	1634.115	1413.691
-21.765	35.481	1632.432	1411.535
-20.750	35.498	1630.670	1410.084
-19.736	35.542	1629.399	1409.251
-18.721	35.505	1628.070	1407.771
-17.706	35.578	1626.256	1406.682
-16.692	35.486	1624.688	1404.598
-15.677	35.567	1623.189	1403.836
-14.663	35.589	1621.923	1402.845
-13.648	35.518	1620.825	1401.324
-12.633	35.532	1618.939	1399.743
-11.619	35.516	1617.577	1398.389
-10.604	35.529	1615.874	1396.961
-9.590	35.541	1614.559	1395.851
-8.575	35.567	1613.356	1394.943
-7.560	35.578	1611.801	1393.629
-6.546	35.559	1611.050	1392.782
-5.531	35.471	1609.979	1391.162
-4.517	35.534	1608.427	1390.225
-3.502	35.576	1607.599	1389.759
-2.487	35.597	1606.336	1388.760
-1.473	35.260	1594.193	1375.791
-0.458	31.955	1573.214	1334.173
0.556	30.044	1571.045	1292.905
1.571	26.956	1594.015	1289.783
2.586	25.553	1605.642	1289.025
3.600	22.279	1552.420	1223.459
4.615	13.900	1442.342	1082.221
5.629	6.216	1376.672	984.897
6.644	4.654	1368.026	968.902
7.659	4.732	1366.592	968.281
8.673	4.727	1365.481	967.379
9.688	4.827	1363.629	966.604
10.702	4.851	1361.407	965.090
11.717	8.408	1368.018	991.804
12.731	16.803	1384.236	1056.007
13.746	22.382	1392.238	1096.891
14.761	22.702	1391.164	1097.940
15.775	21.880	1389.486	1091.402
16.790	20.918	1386.618	1083.078
17.804	19.939	1384.608	1075.339
18.819	19.664	1383.191	1072.437
19.834	19.552	1382.130	1070.824
20.848	19.378	1380.841	1068.653
21.863	19.244	1379.371	1066.588
22.877	19.120	1378.527	1065.077
23.892	19.021	1377.604	1063.654
24.907	18.951	1376.990	1062.653
25.921	19.022	1375.855	1062.124
26.936	19.049	1375.150	1061.653
27.950	19.132	1374.057	1061.225
28.965	19.154	1373.355	1060.724
29.980	19.311	1372.011	1060.562
30.994	19.402	1370.708	1060.018
32.009	19.414	1369.653	1059.184
33.023	19.414	1368.380	1058.102
34.038	19.357	1366.754	1056.405
35.053	19.188	1365.948	1054.652
36.067	19.140	1365.010	1053.540
37.082	19.266	1363.720	1053.220
38.096	19.313	1363.078	1052.921
39.111	19.216	1362.576	1051.845
40.126	19.165	1361.408	1050.542
41.140	18.920	1360.126	1047.964
42.155	18.743	1359.739	1046.494
43.169	18.775	1359.513	1046.426
44.184	18.926	1358.547	1046.508
45.199	18.861	1358.683	1046.122
46.213	18.777	1358.768	1045.587
47.228	19.062	1357.803	1046.484
48.242	19.101	1356.339	1045.501
49.257	19.143	1355.217	1044.799
50.271	19.187	1353.158	1043.386
51.286	19.166	1352.112	1042.358
52.301	19.174	1351.033	1041.480
53.315	19.093	1349.785	1039.939
54.330	18.893	1348.837	1037.910
55.344	18.830	1347.457	1036.377
56.359	18.879	1346.546	1035.875
57.374	18.868	1345.583	1034.980
58.388	18.791	1344.323	1033.453
59.403	18.729	1344.282	1032.960
60.417	18.702	1343.415	1032.038
61.432	18.621	1342.869	1031.041
62.447	18.592	1341.593	1029.796
63.461	18.591	1340.582	1028.925
64.476	18.525	1339.316	1027.463
65.490	18.368	1338.536	1025.836
66.505	18.522	1336.879	1025.396
67.520	18.627	1335.102	1024.568
68.534	18.662	1334.521	1024.240
69.549	18.620	1333.090	1022.803
70.563	18.547	1332.116	1021.529
71.578	18.440	1331.208	1020.106
72.593	18.340	1329.652	1018.231
73.607	18.423	1329.144	1018.244
74.622	18.496	1328.662	1018.216
75.636	18.381	1328.090	1017.004
76.651	18.406	1327.800	1016.843
77.666	18.468	1326.789	1016.344
78.680	18.626	1326.230	1016.763
79.695	18.628	1325.764	1016.331
80.709	18.659	1325.416	1016.155
81.724	18.771	1324.331	1015.898
82.739	19.015	1323.317	1016.471
83.753	19.091	1322.783	1016.418
84.768	19.197	1322.192	1016.503
85.782	19.259	1320.979	1015.847
86.797	19.268	1319.628	1014.766
87.812	19.113	1318.315	1012.760
88.826	19.149	1316.951	1011.833
89.841	19.164	1315.852	1010.987
90.855	19.259	1315.480	1011.169
91.870	19.251	1314.812	1010.519
92.884	19.344	1314.245	1010.538
93.899	19.329	1313.419	1009.727
94.914	19.413	1312.354	1009.309
95.928	19.343	1311.845	1008.418
96.943	19.402	1310.747	1007.830
97.957	19.287	1309.883	1006.404
98.972	19.229	1309.078	1005.358
99.987	19.296	1307.836	1004.709
101.001	19.300	1306.860	1003.891
102.016	19.223	1305.951	1002.653
103.030	19.344	1304.783	1002.373
104.045	19.170	1304.601	1001.134
105.060	19.089	1302.624	999.060
106.074	18.925	1301.156	996.895
107.089	18.645	1299.526	993.935
108.103	18.600	1298.302	992.652
109.118	18.704	1296.868	992.068
110.133	18.577	1295.705	990.357
111.147	18.614	1294.332	989.433
112.162	18.783	1293.112	989.384
113.176	18.704	1292.078	988.053
114.191	18.822	1291.019	987.837
115.206	18.717	1290.073	986.420
116.220	18.721	1289.034	985.561
117.235	18.745	1287.752	984.634
118.249	18.653	1286.980	983.425
119.264	18.705	1285.300	982.355
120.279	18.648	1284.272	981.157
121.293	18.623	1283.312	980.189
122.308	18.449	1282.280	978.323
123.322	18.512	1281.116	977.706
124.337	18.485	1280.345	976.877
125.352	18.329	1279.029	974.900
126.366	18.379	1278.585	974.759
127.381	18.483	1276.843	973.936
128.395	18.452	1275.963	973.004
129.410	18.502	1275.239	972.651
130.424	18.600	1274.371	972.458
131.439	18.635	1274.155	972.405
132.454	18.664	1272.867	971.500
133.468	18.715	1271.739	970.844
134.483	18.790	1270.952	970.579
135.497	18.849	1270.155	970.220
136.512	18.783	1269.207	969.037
137.527	18.765	1267.816	967.788
138.541	18.772	1266.594	966.808
139.556	18.840	1265.581	966.329
140.570	19.008	1264.747	966.552
141.585	19.125	1263.069	965.839
142.600	19.148	1262.294	965.293
143.614	19.238	1261.701	965.258
144.629	19.236	1260.380	964.148
145.643	19.215	1259.346	963.155
146.658	19.215	1257.744	961.849
147.673	19.077	1256.256	959.854
148.687	18.907	1255.126	957.959
149.702	18.883	1253.813	956.738
150.716	18.840	1252.400	955.336
151.731	18.792	1251.668	954.425
152.746	18.781	1250.248	953.195
153.760	18.873	1249.416	952.988
154.775	18.892	1248.430	952.255
155.789	19.089	1247.239	952.358
156.804	19.183	1246.348	952.108
157.819	19.142	1244.861	950.661
158.833	19.315	1244.228	951.053
159.848	19.466	1243.236	951.041
160.862	19.408	1242.261	949.890
161.877	19.152	1241.279	947.650
162.892	18.772	1240.106	944.578
163.906	18.846	1239.156	944.177
164.921	18.763	1238.411	943.069
165.935	18.880	1237.692	943.083
166.950	19.066	1236.971	943.469
167.964	19.079	1235.945	942.674
168.979	18.994	1235.347	941.670
169.994	18.924	1235.093	941.008
171.008	18.940	1233.864	940.077
172.023	19.012	1233.120	939.821
173.037	19.216	1232.592	940.450
174.052	19.165	1231.551	939.293
175.067	19.063	1229.886	937.384
176.081	18.791	1229.351	935.415
177.096	18.893	1228.528	935.257
178.110	18.984	1227.101	934.586
179.125	19.061	1225.938	934.036
180.140	19.117	1224.473	933.137
181.154	19.128	1223.907	932.687
182.169	19.281	1222.570	932.413
183.183	19.299	1221.703	931.766
184.198	19.301	1220.672	930.909
185.213	19.478	1219.162	930.626
186.227	19.316	1218.663	929.289
187.242	19.502	1217.324	929.187
188.256	19.551	1216.492	928.733
189.271	19.512	1215.878	927.973
190.286	19.293	1214.692	925.810
191.300	18.943	1213.360	922.835
192.315	18.960	1212.309	922.044
193.329	18.877	1212.211	921.445
194.344	18.960	1212.214	921.813
195.359	19.077	1211.326	921.680
196.373	19.154	1210.732	921.562
197.388	19.239	1210.715	921.921
198.402	19.494	1210.041	922.685
199.417	19.679	1209.748	923.372
200.432	19.760	1208.584	922.834
201.446	19.835	1207.960	922.676
202.461	19.783	1207.459	921.933
203.475	19.881	1206.580	921.701
204.490	19.620	1204.805	918.875
205.504	19.444	1203.673	917.000
206.519	19.475	1202.191	915.951
207.534	19.463	1201.063	914.945
208.548	19.467	1200.452	914.424
209.563	19.573	1199.583	914.243
210.577	19.547	1198.492	913.193
211.592	19.568	1197.968	912.821
212.607	19.712	1197.077	912.821
213.621	19.681	1196.396	912.061
214.636	19.591	1195.797	911.047
215.650	19.650	1194.922	910.613
216.665	19.759	1193.601	910.096
217.680	19.991	1192.720	910.566
218.694	19.886	1192.437	909.716
219.709	19.811	1191.709	908.689
220.723	19.852	1190.495	907.896
221.738	19.779	1189.906	906.981
222.753	19.787	1189.489	906.626
223.767	19.826	1188.778	906.210
224.782	19.962	1188.145	906.357
225.796	20.106	1187.023	906.173
226.811	20.010	1186.646	905.308
227.826	19.836	1186.112	903.908
228.840	19.808	1184.615	902.541
229.855	19.764	1184.436	902.097
230.869	19.824	1183.343	901.499
231.884	19.699	1182.579	900.186
232.899	19.722	1181.726	899.574
233.913	19.600	1181.148	898.421
234.928	19.533	1180.654	897.617
235.942	19.622	1179.380	897.029
236.957	19.606	1178.166	895.948
237.972	19.594	1177.898	895.601
238.986	19.611	1176.971	894.903
240.001	19.716	1176.195	894.778
241.015	19.712	1175.389	894.065
242.030	19.678	1174.990	893.505
243.045	19.683	1174.415	893.016
244.059	19.774	1173.733	892.892
245.074	19.789	1172.926	892.275
246.088	19.876	1171.989	891.929
247.103	19.980	1171.355	891.903
248.117	20.103	1170.620	891.899
249.132	20.299	1170.065	892.405
250.147	20.486	1169.589	892.926
251.161	20.584	1169.153	893.016
252.176	20.613	1168.293	892.430
253.190	20.623	1168.302	892.410
254.205	20.836	1167.178	892.564
255.220	20.757	1166.475	891.539
256.234	20.657	1166.109	890.669
257.249	20.754	1165.024	890.261
258.263	20.645	1164.541	889.256
259.278	20.576	1163.981	888.394
260.293	20.653	1163.617	888.430
261.307	20.708	1163.111	888.250
262.322	20.802	1162.562	888.229
263.336	20.836	1161.432	887.462
264.351	20.921	1160.538	887.132
265.366	20.804	1160.450	886.391
266.380	20.829	1159.487	885.703
267.395	20.809	1158.273	884.596
268.409	20.790	1157.567	883.885
269.424	20.619	1157.089	882.571
270.439	20.639	1156.681	882.286
271.453	20.573	1155.702	881.123
272.468	20.547	1154.525	880.016
273.482	20.531	1153.876	879.365
274.497	20.554	1153.345	879.000
275.512	20.426	1152.913	877.944
276.526	20.608	1151.673	877.841
277.541	20.582	1150.854	877.007
278.555	20.660	1150.911	877.366
279.570	20.848	1150.092	877.614
280.585	21.005	1149.533	877.900
281.599	20.932	1148.295	876.507
282.614	20.728	1147.218	874.586
283.628	20.626	1146.049	873.105
284.643	20.644	1145.365	872.595
285.657	20.707	1144.367	872.074
286.672	20.653	1143.128	870.781
287.687	20.678	1142.871	870.634
288.701	20.666	1142.388	870.128
289.716	20.771	1141.012	869.528
290.730	20.867	1140.285	869.375
291.745	20.829	1139.877	868.799
292.760	20.817	1139.403	868.299
293.774	20.828	1138.976	867.956
294.789	20.995	1138.608	868.429
295.803	21.053	1137.747	867.981
296.818	20.904	1136.602	866.293
297.833	20.749	1135.912	864.919
298.847	20.832	1134.984	864.550
299.862	20.779	1134.390	863.756
300.876	20.860	1133.626	863.502
301.891	21.014	1133.070	863.764
302.906	21.147	1132.389	863.827
303.920	21.073	1132.080	863.149
304.935	21.292	1131.279	863.541
305.949	21.255	1131.062	863.118
306.964	21.343	1129.966	862.640
307.979	21.184	1128.959	861.009
308.993	21.129	1128.536	860.341
310.008	21.227	1128.268	860.544
311.022	21.188	1127.287	859.529
312.037	21.304	1126.100	859.114
313.052	21.176	1124.987	857.562
314.066	21.082	1123.748	856.079
315.081	20.959	1122.821	854.697
316.095	20.848	1122.410	853.764
317.110	20.930	1121.578	853.456
318.125	20.864	1120.980	852.600
319.139	20.830	1120.262	851.816
320.154	20.862	1119.484	851.304
321.168	20.936	1119.048	851.259
322.183	21.041	1118.130	850.995
323.197	20.995	1117.504	850.222
324.212	21.139	1117.198	850.613
325.227	21.135	1116.848	850.251
326.241	21.029	1116.062	849.065
327.256	21.278	1114.782	849.224
328.270	21.093	1114.249	847.847
329.285	21.039	1113.267	846.761
330.300	21.040	1112.401	846.034
331.314	21.107	1111.348	845.482
332.329	21.087	1110.514	844.675
333.343	21.003	1109.773	843.633
334.358	21.223	1109.012	844.038
335.373	21.251	1108.682	843.849
336.387	21.236	1108.012	843.192
337.402	21.322	1107.093	842.834
338.416	21.474	1106.124	842.754
339.431	21.476	1105.878	842.502
340.446	21.763	1104.961	843.112
341.460	21.643	1104.834	842.361
342.475	21.717	1103.864	841.903
343.489	21.723	1102.915	841.133
344.504	21.888	1101.847	841.036
345.519	21.832	1101.436	840.379
346.533	22.009	1100.300	840.287
347.548	21.942	1100.107	839.744
348.562	21.956	1099.055	838.933
349.577	21.755	1097.837	836.970
350.592	21.606	1097.017	835.559
351.606	21.530	1096.112	834.432
352.621	21.508	1095.487	833.779
353.635	21.289	1095.111	832.377
354.650	21.349	1094.467	832.096
355.665	21.513	1093.678	832.204
356.679	21.516	1093.404	831.936
357.694	21.626	1092.436	831.649
358.708	21.680	1091.864	831.396
359.723	21.739	1091.069	830.997
360.738	21.647	1090.380	829.961
361.752	21.737	1089.967	829.999
362.767	21.775	1089.617	829.841
363.781	21.716	1088.848	828.903
364.796	21.896	1088.414	829.351
365.810	22.004	1088.154	829.589
366.825	21.999	1087.458	828.960
367.840	22.123	1087.004	829.129
368.854	22.176	1086.551	828.956
369.869	22.234	1085.809	828.590
370.883	22.224	1084.367	827.373
371.898	22.006	1083.896	825.915
372.913	22.085	1083.226	825.699
373.927	22.055	1082.924	825.254
374.942	22.120	1082.690	825.309
375.956	22.196	1081.600	824.765
376.971	22.074	1081.067	823.709
377.986	22.159	1080.742	823.792
379.000	22.253	1080.220	823.760
380.015	22.414	1079.566	823.939
381.029	22.365	1079.365	823.483
382.044	22.433	1078.176	822.823
383.059	22.263	1077.553	821.479
384.073	22.240	1076.825	820.744
385.088	22.282	1076.063	820.288
386.102	22.425	1074.750	819.880
387.117	22.225	1073.755	818.121
388.132	22.005	1072.916	816.383
389.146	22.042	1071.905	815.716
390.161	22.129	1071.116	815.446
391.175	22.217	1070.432	815.260
392.190	22.262	1069.712	814.851
393.205	22.365	1069.430	815.039
394.219	22.313	1068.534	814.044
395.234	22.247	1067.353	812.767
396.248	22.162	1066.396	811.573
397.263	22.117	1065.201	810.387
398.278	22.095	1064.474	809.659
399.292	22.018	1063.712	808.651
400.307	21.909	1063.358	807.809
401.321	21.824	1062.598	806.771
402.336	21.903	1061.863	806.502
403.350	21.942	1061.245	806.141
404.365	21.971	1060.540	805.667
405.380	22.054	1060.121	805.661
406.394	22.197	1059.162	805.515
407.409	22.433	1058.267	805.844
408.423	22.656	1057.554	806.250
409.438	22.568	1057.171	805.485
410.453	22.563	1056.702	805.032
411.467	22.774	1055.762	805.209
412.482	22.647	1055.189	804.122
413.496	22.693	1054.701	803.885
414.511	22.708	1054.259	803.547
415.526	22.856	1053.729	803.745
416.540	22.821	1053.449	803.302
417.555	22.872	1052.987	803.109
418.569	22.759	1052.322	802.021
419.584	22.903	1051.514	801.984
420.599	22.824	1051.189	801.307
421.613	154.416	1400.211	1788.003
422.628	141.715	1451.078	1788.120
