DTS Sentinel unit serial number:	SN413079Multiplexer serial number:	ORYXHardware model number:	OX4-SRSoftware version number:	ORYX F/W v4.00 Oryx Data Collector v3.7.2.0data status	okinstallation	princeton_trtdifferential loss correction	single-endedforward channel	channel 2reverse channel	N/Adate	2019/09/17time	01:03:35forward acquisition time	60.00reverse acquisition time	0.00gamma	496.2192k internal	0.2329k external	0.2329temperature offset calibration	0.9972default loss term (dB/km)	0.3790temperature slope calibration	1.0000multiplexer offset coefficient	1.0000multiplexer slope coefficient	1.0000fibre end	0.00T internal ref (°C)	29.45T ext. ref 1 (°C)	0.11T ext. ref 2 (°C)	24.13length (m)	temperature (°C)	Stokes	anti-Stokes-747.200	-200.000	-0.035	0.304
-746.185	-132.663	0.100	-0.013
-745.171	517.307	-0.041	-0.097
-744.156	-200.000	0.009	0.100
-743.142	254.179	0.143	-0.247
-742.127	-130.793	-0.114	-0.015
-741.112	-40.853	0.048	-0.025
-740.098	-200.000	-0.016	-0.074
-739.083	-200.000	0.042	-0.304
-738.069	-62.892	0.110	-0.046
-737.054	-112.847	0.297	0.059
-736.039	-66.314	-0.121	-0.049
-735.025	464.146	0.100	0.225
-734.010	-147.162	-0.316	-0.027
-732.996	-73.562	-0.275	-0.101
-731.981	-200.000	-0.423	0.001
-730.966	360.635	-0.056	0.114
-729.952	-200.000	0.021	-0.194
-728.937	50.065	-0.259	-0.246
-727.923	130.055	0.289	-0.372
-726.908	157.201	0.166	-0.231
-725.894	-200.000	-0.001	0.106
-724.879	-200.000	0.043	-0.242
-723.864	14.168	-0.204	-0.160
-722.850	-56.134	-0.293	-0.131
-721.835	75.025	0.195	0.207
-720.821	-106.243	-0.154	0.035
-719.806	720.422	-0.078	0.209
-718.791	-200.000	0.052	-0.234
-717.777	-70.721	0.012	0.004
-716.762	-200.000	0.044	-0.207
-715.748	-32.363	-0.221	-0.124
-714.733	-200.000	-0.065	-0.427
-713.718	-81.794	0.092	-0.030
-712.704	-200.000	0.046	-0.217
-711.689	207.049	0.079	-0.124
-710.675	-200.000	0.007	-0.187
-709.660	234.201	-0.162	0.269
-708.645	194.947	-0.051	-0.079
-707.631	308.221	-0.118	-0.222
-706.616	-18.534	-0.290	0.182
-705.602	20.962	0.117	0.095
-704.587	800.000	-0.016	-0.064
-703.572	-109.840	-0.405	0.085
-702.558	-18.335	-0.247	0.156
-701.543	473.377	0.083	0.189
-700.529	-116.623	0.256	0.047
-699.514	549.765	-0.134	0.324
-698.499	36.136	-0.257	-0.227
-697.485	-15.116	-0.046	0.030
-696.470	7.216	-0.288	-0.216
-695.456	347.425	0.100	0.198
-694.441	44.410	-0.288	-0.266
-693.426	21.432	-0.260	-0.213
-692.412	-200.000	-0.041	-0.203
-691.397	283.368	0.113	0.203
-690.383	345.998	-0.158	-0.313
-689.368	800.000	0.036	-0.114
-688.354	800.000	0.175	-0.540
-687.339	800.000	-0.066	0.247
-686.324	-50.378	-0.143	0.068
-685.310	112.588	-0.315	0.383
-684.295	800.000	-0.032	-0.096
-683.281	235.472	-0.046	-0.077
-682.266	800.000	-0.102	0.324
-681.251	500.600	-0.164	-0.381
-680.237	-61.655	-0.142	0.060
-679.222	162.379	0.106	0.150
-678.208	800.000	-0.035	-0.115
-677.193	-114.256	-0.227	-0.044
-676.178	-118.588	-0.274	0.049
-675.164	-59.545	-0.337	-0.145
-674.149	-138.943	0.133	0.014
-673.135	-169.894	-0.278	0.010
-672.120	405.740	0.049	0.103
-671.105	290.381	-0.129	0.235
-670.091	-136.492	0.393	-0.046
-669.076	-50.265	-0.345	-0.164
-668.062	-200.000	-0.003	-0.232
-667.047	800.000	0.071	-0.284
-666.032	47.558	-0.151	0.141
-665.018	-200.000	-0.018	-0.401
-664.003	-200.000	0.101	-0.491
-662.989	-170.516	0.155	0.005
-661.974	-126.780	-0.156	0.023
-660.959	419.420	0.032	0.068
-659.945	-5.668	0.046	-0.032
-658.930	16.754	-0.239	0.190
-657.916	-67.764	-0.119	-0.047
-656.901	65.132	-0.157	0.160
-655.886	-109.008	0.446	-0.095
-654.872	-108.870	-0.173	-0.037
-653.857	800.000	-0.054	-0.171
-652.843	-89.968	-0.161	0.047
-651.828	-200.000	0.029	0.284
-650.814	800.000	-0.089	0.376
-649.799	31.183	0.355	0.306
-648.784	431.477	-0.049	0.106
-647.770	-200.000	-0.082	0.419
-646.755	-200.000	0.010	-0.174
-645.741	-129.026	-0.291	-0.041
-644.726	-34.242	0.237	-0.131
-643.711	-200.000	0.037	-0.296
-642.697	-6.993	0.154	0.105
-641.682	-157.532	0.231	0.014
-640.668	63.500	0.168	0.169
-639.653	8.007	0.180	-0.135
-638.638	-44.773	-0.243	-0.121
-637.624	-75.261	-0.310	-0.111
-636.609	800.000	0.077	-0.318
-635.595	-103.229	-0.106	0.025
-634.580	24.033	0.386	-0.319
-633.565	-200.000	-0.050	0.474
-632.551	-175.553	-0.140	0.004
-631.536	310.118	-0.042	-0.080
-630.522	164.631	0.149	-0.210
-629.507	99.272	-0.263	-0.305
-628.492	-112.359	-0.158	-0.032
-627.478	630.461	0.095	0.240
-626.463	-77.710	-0.174	0.060
-625.449	72.027	-0.208	-0.217
-624.434	162.276	-0.081	-0.113
-623.419	-94.574	0.230	0.063
-622.405	12.108	-0.114	0.088
-621.390	59.889	-0.232	0.230
-620.376	-121.522	-0.470	-0.078
-619.361	-200.000	-0.055	0.251
-618.346	-69.217	-0.174	-0.067
-617.332	800.000	0.061	0.221
-616.317	-75.508	0.118	0.042
-615.303	-200.000	-0.077	0.385
-614.288	-54.306	-0.155	-0.070
-613.273	-200.000	-0.002	-0.091
-612.259	-109.779	0.405	-0.085
-611.244	-200.000	0.027	-0.245
-610.230	-200.000	0.013	0.283
-609.215	-200.000	-0.024	0.123
-608.201	-200.000	-0.038	0.234
-607.186	-200.000	-0.197	-0.001
-606.171	-15.262	0.215	-0.138
-605.157	-38.485	-0.137	0.073
-604.142	-46.777	-0.232	-0.114
-603.128	-200.000	-0.011	-0.440
-602.113	-137.380	-0.152	0.017
-601.098	335.084	-0.232	0.450
-600.084	-16.275	0.243	0.155
-599.069	77.712	-0.232	-0.248
-598.055	-76.020	-0.125	0.044
-597.040	213.253	-0.053	-0.084
-596.025	66.798	-0.217	0.221
-595.011	265.775	0.128	0.224
-593.996	16.156	0.110	-0.087
-592.982	-200.000	0.053	-0.371
-591.967	-113.729	-0.080	0.016
-590.952	-25.337	0.066	-0.039
-589.938	-7.617	-0.089	0.060
-588.923	246.851	-0.140	0.237
-587.909	-109.750	-0.216	-0.046
-586.894	582.135	-0.119	0.292
-585.879	-200.000	-0.005	-0.155
-584.865	-70.205	0.232	-0.088
-583.850	82.914	-0.146	-0.159
-582.836	25.385	0.138	-0.115
-581.821	-75.736	0.081	0.029
-580.806	800.000	-0.025	-0.082
-579.792	102.762	-0.071	0.084
-578.777	619.264	-0.149	0.375
-577.763	-43.889	0.123	-0.062
-576.748	8.982	-0.188	0.142
-575.733	-112.196	0.253	-0.051
-574.719	75.418	0.042	0.045
-573.704	202.689	-0.014	-0.022
-572.690	168.948	0.088	-0.126
-571.675	441.043	0.110	0.240
-570.661	-88.516	-0.162	0.048
-569.646	800.000	0.011	-0.035
-568.631	800.000	-0.054	0.237
-567.617	-52.979	0.198	-0.091
-566.602	-123.232	-0.179	-0.029
-565.588	652.622	-0.133	-0.342
-564.573	-24.019	0.249	-0.149
-563.558	28.598	-0.508	-0.430
-562.544	-143.835	-0.144	0.014
-561.529	-21.788	0.151	-0.092
-560.515	-83.833	0.524	-0.167
-559.500	-200.000	-0.055	-0.288
-558.485	-200.000	0.005	-0.140
-557.471	-67.688	-0.113	0.044
-556.456	-142.838	0.077	-0.007
-555.442	-200.000	0.025	0.544
-554.427	-200.000	0.045	0.456
-553.412	-56.604	-0.216	0.096
-552.398	270.038	-0.088	0.154
-551.383	-200.000	0.028	-0.173
-550.369	96.129	0.129	-0.148
-549.354	-103.009	-0.137	0.032
-548.339	-5.465	0.109	-0.075
-547.325	239.415	0.209	0.348
-546.310	-70.034	0.461	-0.175
-545.296	97.230	-0.048	0.055
-544.281	-200.000	-0.207	-0.000
-543.266	-200.000	-0.010	-0.398
-542.252	-103.854	-0.125	0.029
-541.237	64.350	-0.074	-0.075
-540.223	-102.804	-0.022	-0.005
-539.208	65.121	-0.184	-0.186
-538.193	5.424	0.116	0.086
-537.179	219.393	-0.137	0.220
-536.164	-93.293	-0.368	0.102
-535.150	45.313	-0.215	-0.198
-534.135	583.837	-0.123	0.301
-533.121	114.176	-0.153	-0.186
-532.106	10.445	0.277	0.211
-531.091	-200.000	-0.051	0.338
-530.077	-200.000	0.010	0.204
-529.062	-121.120	0.273	0.046
-528.048	14.653	-0.247	0.193
-527.033	88.141	-0.299	-0.331
-526.018	-67.936	-0.108	0.042
-525.004	45.133	-0.134	-0.123
-523.989	-200.000	-0.026	-0.156
-522.975	381.069	-0.159	-0.326
-521.960	-200.000	-0.051	-0.274
-520.945	647.967	0.042	-0.107
-519.931	-29.026	-0.176	0.101
-518.916	203.768	0.139	-0.215
-517.902	800.000	-0.036	0.099
-516.887	-153.311	0.207	-0.014
-515.872	-119.759	0.244	0.042
-514.858	124.717	-0.119	0.149
-513.843	28.970	0.197	-0.166
-512.829	800.000	-0.032	0.095
-511.814	-200.000	-0.028	0.154
-510.799	-24.762	-0.350	0.208
-509.785	-200.000	0.003	-0.301
-508.770	-96.967	0.161	0.042
-507.756	-200.000	0.015	-0.075
-506.741	104.697	0.138	-0.162
-505.726	-200.000	0.037	0.277
-504.712	-83.932	0.291	-0.092
-503.697	177.087	-0.105	-0.152
-502.683	236.099	-0.219	0.361
-501.668	109.355	-0.105	-0.125
-500.653	196.054	0.100	-0.152
-499.639	-200.000	-0.030	-0.343
-498.624	-150.518	-0.145	0.011
-497.610	-45.166	-0.067	-0.033
-496.595	354.377	-0.083	-0.164
-495.581	-102.662	-0.189	0.045
-494.566	800.000	0.067	-0.280
-493.551	227.748	0.276	-0.448
-492.537	-63.213	-0.185	0.076
-491.522	465.027	-0.091	-0.203
-490.508	32.356	0.338	0.291
-489.493	42.861	-0.244	-0.222
-488.478	-167.593	0.196	0.008
-487.464	-68.714	0.106	0.041
-486.449	-21.361	-0.208	-0.127
-485.435	74.223	-0.055	0.057
-484.420	800.000	0.086	0.292
-483.405	-200.000	0.002	0.081
-482.391	-29.125	0.155	-0.088
-481.376	333.246	0.182	0.350
-480.362	800.000	0.063	0.189
-479.347	-35.879	-0.066	-0.036
-478.332	-11.130	0.273	0.180
-477.318	18.984	0.096	-0.076
-476.303	-120.645	0.412	-0.069
-475.289	-50.378	-0.170	-0.080
-474.274	-194.347	-0.136	-0.001
-473.259	1.102	-0.155	0.111
-472.245	211.663	0.076	-0.119
-471.230	-200.000	0.037	0.240
-470.216	-200.000	-0.014	0.275
-469.201	800.000	0.130	-0.371
-468.186	82.258	0.182	-0.197
-467.172	143.106	-0.225	-0.299
-466.157	-106.711	0.207	-0.046
-465.143	-23.921	0.158	-0.094
-464.128	695.874	-0.042	-0.109
-463.113	-146.666	-0.089	0.008
-462.099	88.502	-0.272	0.301
-461.084	184.263	-0.308	-0.454
-460.070	-101.003	-0.237	0.058
-459.055	61.757	0.047	-0.046
-458.040	-200.000	-0.010	0.111
-457.026	-66.731	0.328	0.129
-456.011	-200.000	-0.001	0.160
-454.997	-200.000	-0.007	-0.086
-453.982	-200.000	-0.035	0.218
-452.968	-200.000	0.013	-0.174
-451.953	-46.152	-0.341	-0.167
-450.938	-77.330	-0.127	0.044
-449.924	-95.887	-0.096	0.026
-448.909	-9.697	0.306	-0.203
-447.895	-70.998	-0.102	0.038
-446.880	380.743	-0.188	0.384
-445.865	-200.000	0.013	0.076
-444.851	118.346	0.201	-0.247
-443.836	800.000	0.022	-0.086
-442.822	30.619	0.095	0.081
-441.807	800.000	-0.104	0.342
-440.792	710.404	-0.021	-0.056
-439.778	66.140	-0.050	0.051
-438.763	800.000	-0.064	0.191
-437.749	323.345	0.089	0.169
-436.734	-15.339	-0.104	-0.066
-435.719	86.477	0.074	0.081
-434.705	457.696	0.033	-0.072
-433.690	41.032	0.150	-0.135
-432.676	-148.230	-0.356	-0.029
-431.661	209.814	0.021	-0.032
-430.646	-94.787	-0.386	0.104
-429.632	474.494	-0.172	0.386
-428.617	117.642	-0.194	0.237
-427.603	-18.747	-0.086	-0.053
-426.588	800.000	0.016	0.060
-425.573	258.479	-0.059	-0.101
-424.559	-177.854	-0.365	0.009
-423.544	-49.989	0.340	0.161
-422.530	475.239	0.055	-0.124
-421.515	-105.010	0.183	0.042
-420.500	343.470	0.015	-0.030
-419.486	800.000	0.059	0.204
-418.471	-69.375	0.203	-0.078
-417.457	-44.841	0.327	-0.162
-416.442	163.982	0.056	-0.078
-415.428	107.665	0.146	0.172
-414.413	-156.044	0.148	0.009
-413.398	-26.455	-0.324	0.189
-412.384	-53.612	-0.083	0.038
-411.369	349.146	-0.158	0.310
-410.355	-200.000	-0.034	-0.247
-409.340	-18.533	0.256	-0.159
-408.325	17.029	-0.173	-0.137
-407.311	269.280	0.099	-0.172
-406.296	-45.744	-0.205	0.101
-405.282	-200.000	-0.020	0.188
-404.267	-200.000	-0.010	-0.047
-403.252	-116.362	-0.063	0.012
-402.238	229.322	0.063	0.102
-401.223	-3.907	0.239	0.165
-400.209	800.000	-0.066	0.243
-399.194	55.720	0.324	-0.312
-398.179	23.340	0.302	-0.247
-397.165	-6.170	-0.292	0.198
-396.150	44.417	-0.092	-0.084
-395.136	-200.000	0.058	0.272
-394.121	531.247	0.050	-0.117
-393.106	169.011	-0.137	0.195
-392.092	48.686	0.033	0.030
-391.077	119.519	-0.032	0.039
-390.063	-128.026	-0.063	0.009
-389.048	-200.000	-0.068	0.345
-388.033	800.000	-0.054	0.184
-387.019	-117.727	-0.048	-0.009
-386.004	128.297	-0.180	0.228
-384.990	616.224	0.076	-0.189
-383.975	-21.869	0.268	-0.162
-382.960	-29.262	0.115	0.066
-381.946	130.712	0.060	0.076
-380.931	-23.399	0.044	-0.026
-379.917	40.940	0.203	-0.182
-378.902	-200.000	0.023	-0.137
-377.888	-138.627	-0.368	0.040
-376.873	800.000	0.029	-0.111
-375.858	-101.224	0.320	-0.078
-374.844	-168.653	0.289	-0.011
-373.829	-126.585	-0.282	0.041
-372.815	-132.990	0.220	0.028
-371.800	-200.000	-0.038	-0.194
-370.785	-46.205	0.289	0.141
-369.771	-167.201	0.152	-0.006
-368.756	42.082	0.181	0.163
-367.742	-200.000	-0.036	-0.190
-366.727	-143.631	0.182	0.017
-365.712	130.510	0.223	0.283
-364.698	181.991	-0.157	0.230
-363.683	-23.756	-0.280	-0.166
-362.669	-174.526	0.106	-0.003
-361.654	-82.928	0.094	-0.030
-360.639	-152.408	0.222	0.016
-359.625	-21.690	0.200	0.121
-358.610	800.000	0.078	0.237
-357.596	-119.260	0.192	0.033
-356.581	153.274	0.131	0.178
-355.566	-71.846	0.121	0.045
-354.552	-86.425	0.132	-0.040
-353.537	461.830	-0.034	0.076
-352.523	-67.357	-0.340	-0.132
-351.508	609.539	0.100	0.249
-350.493	-200.000	-0.079	0.000
-349.479	-200.000	-0.076	-0.563
-348.464	-88.736	0.227	0.067
-347.450	1.517	-0.347	0.247
-346.435	-200.000	0.031	-0.158
-345.420	-22.827	-0.205	-0.123
-344.406	96.869	-0.099	-0.113
-343.391	0.249	0.263	-0.186
-342.377	97.998	-0.121	0.138
-341.362	-43.004	0.188	-0.094
-340.348	-200.000	0.040	-0.217
-339.333	33.003	0.232	0.199
-338.318	230.382	-0.095	0.154
-337.304	194.514	0.129	-0.195
-336.289	-185.582	-0.302	0.005
-335.275	109.593	0.054	0.065
-334.260	-71.451	0.252	-0.093
-333.245	247.862	-0.218	-0.366
-332.231	-200.000	-0.003	-0.021
-331.216	-88.852	-0.318	0.093
-330.202	-9.462	-0.403	-0.267
-329.187	68.446	0.180	-0.183
-328.172	1.319	-0.129	-0.092
-327.158	117.123	0.159	0.193
-326.143	316.343	-0.130	0.243
-325.129	190.206	-0.151	0.224
-324.114	0.208	-0.284	0.200
-323.099	-200.000	-0.004	0.318
-322.085	80.650	0.329	0.351
-321.070	-200.000	0.039	-0.236
-320.056	194.381	-0.106	0.160
-319.041	-131.064	-0.109	-0.014
-318.026	-200.000	0.016	-0.128
-317.012	800.000	-0.034	0.138
-315.997	-68.840	-0.478	-0.183
-314.983	800.000	0.037	-0.118
-313.968	-16.350	-0.025	-0.015
-312.953	-57.475	0.257	0.112
-311.939	142.929	0.093	0.122
-310.924	800.000	0.103	-0.413
-309.910	-116.760	0.019	0.004
-308.895	-200.000	-0.021	0.131
-307.880	-166.035	-0.770	-0.033
-306.866	-61.235	0.080	-0.033
-305.851	142.973	-0.147	-0.193
-304.837	288.173	0.052	0.093
-303.822	-200.000	-0.017	0.146
-302.807	-200.000	0.017	0.206
-301.793	-200.000	-0.004	-0.129
-300.778	-22.752	0.124	0.074
-299.764	-12.418	0.179	0.116
-298.749	800.000	-0.055	0.225
-297.735	217.618	0.043	-0.067
-296.720	800.000	-0.064	-0.184
-295.705	-200.000	0.033	0.262
-294.691	-54.590	-0.092	-0.041
-293.676	-73.921	0.149	-0.053
-292.662	-66.504	0.236	-0.093
-291.647	-60.576	0.189	0.079
-290.632	168.459	-0.127	-0.179
-289.618	108.787	0.198	-0.235
-288.603	44.187	-0.133	-0.121
-287.589	156.864	0.055	0.075
-286.574	-160.183	0.395	0.021
-285.559	-6.337	-0.212	-0.143
-284.545	-177.459	0.292	0.007
-283.530	-26.674	-0.088	-0.051
-282.516	-62.296	-0.115	-0.047
-281.501	-70.996	-0.217	-0.081
-280.486	-15.111	-0.004	-0.003
-279.472	-200.000	0.020	-0.123
-278.457	143.065	0.095	0.125
-277.443	446.836	-0.070	0.153
-276.428	-200.000	-0.021	-0.205
-275.413	-93.260	-0.192	0.053
-274.399	-200.000	0.004	-0.154
-273.384	800.000	-0.051	0.160
-272.370	159.246	-0.156	-0.215
-271.355	241.466	0.192	-0.317
-270.340	-200.000	0.055	0.272
-269.326	-84.869	-0.129	0.040
-268.311	323.145	-0.061	-0.115
-267.297	-25.906	0.090	-0.052
-266.282	-30.862	-0.104	0.058
-265.267	433.615	0.026	-0.055
-264.253	-63.112	0.386	0.158
-263.238	86.532	0.218	-0.237
-262.224	-40.461	0.291	-0.149
-261.209	-200.000	-0.040	-0.215
-260.195	-58.431	-0.162	-0.069
-259.180	-75.507	0.277	-0.097
-258.165	800.000	0.115	-0.336
-257.151	-91.689	-0.174	-0.049
-256.136	800.000	-0.043	0.147
-255.122	92.248	-0.050	0.056
-254.107	-200.000	-0.083	0.439
-253.092	-128.523	-0.149	-0.021
-252.078	-128.090	0.137	0.019
-251.063	-200.000	0.022	-0.132
-250.049	429.970	-0.156	-0.333
-249.034	-200.000	0.029	-0.211
-248.019	62.233	0.106	0.104
-247.005	93.058	0.117	0.130
-245.990	-159.618	-0.137	0.008
-244.976	-200.000	0.006	0.182
-243.961	-20.380	0.277	-0.168
-242.946	-200.000	-0.016	-0.158
-241.932	39.666	0.113	0.100
-240.917	24.246	-0.230	-0.188
-239.903	-200.000	-0.006	0.046
-238.888	219.607	0.043	0.067
-237.873	800.000	0.094	0.282
-236.859	800.000	-0.068	-0.191
-235.844	-37.627	0.228	0.120
-234.830	-200.000	0.378	0.000
-233.815	395.639	-0.082	0.168
-232.800	122.655	-0.319	-0.394
-231.786	-128.479	-0.388	0.054
-230.771	800.000	-0.114	0.384
-229.757	-25.592	-0.153	-0.089
-228.742	-117.332	-0.427	-0.076
-227.727	800.000	0.071	-0.232
-226.713	800.000	0.032	-0.109
-225.698	50.832	-0.037	-0.034
-224.684	237.913	0.160	-0.262
-223.669	462.706	0.068	0.150
-222.655	-200.000	-0.029	-0.158
-221.640	-200.000	0.014	-0.092
-220.625	-90.257	0.178	0.051
-219.611	91.729	0.187	0.208
-218.596	-36.084	-0.260	0.138
-217.582	783.358	0.043	-0.115
-216.567	-119.606	0.223	0.038
-215.552	-142.990	0.044	-0.004
-214.538	800.000	0.096	0.287
-213.523	46.017	0.098	0.089
-212.509	234.678	-0.193	-0.314
-211.494	-200.000	0.032	-0.352
-210.479	-89.786	0.097	-0.028
-209.465	-200.000	0.011	0.271
-208.450	480.537	0.072	0.162
-207.436	153.649	-0.139	-0.188
-206.421	-17.785	-0.192	0.119
-205.406	3.215	0.116	0.083
-204.392	-184.203	0.087	0.001
-203.377	-29.504	-0.090	-0.051
-202.363	-200.000	0.018	0.274
-201.348	124.383	0.064	0.080
-200.333	-91.985	0.193	0.054
-199.319	-176.756	0.294	0.007
-198.304	800.000	-0.047	-0.128
-197.290	383.465	-0.082	0.167
-196.275	-200.000	-0.030	-0.308
-195.260	-100.405	-0.152	0.037
-194.246	800.000	-0.027	-0.107
-193.231	-158.120	-0.143	0.008
-192.217	-107.977	-0.140	0.030
-191.202	-150.173	-0.269	0.021
-190.187	195.292	-0.075	-0.112
-189.173	181.858	-0.101	0.147
-188.158	-200.000	-0.121	-0.000
-187.144	225.511	0.105	-0.168
-186.129	-161.788	-0.087	-0.004
-185.114	-133.558	0.117	-0.014
-184.100	-200.000	0.005	-0.144
-183.085	-200.000	-0.013	0.085
-182.071	65.557	0.103	-0.103
-181.056	580.266	0.146	0.353
-180.042	-90.151	0.262	-0.075
-179.027	157.492	0.100	0.137
-178.012	15.203	-0.176	-0.136
-176.998	-200.000	0.024	0.161
-175.983	-200.000	0.049	0.268
-174.969	-7.240	-0.226	0.151
-173.954	196.684	0.224	-0.336
-172.939	28.015	0.138	0.114
-171.925	-106.553	0.287	0.063
-170.910	182.407	-0.177	-0.258
-169.896	167.189	-0.071	0.099
-168.881	-66.698	0.265	-0.104
-167.866	-39.396	0.445	0.230
-166.852	-76.651	-0.498	-0.172
-165.837	-32.007	-0.297	0.164
-164.823	-95.680	0.230	0.060
-163.808	426.999	0.036	-0.077
-162.793	435.007	0.033	-0.071
-161.779	-93.715	0.239	0.065
-160.764	266.557	0.270	0.464
-159.750	-200.000	-0.002	0.135
-158.735	-22.745	-0.133	0.079
-157.720	116.160	0.177	-0.213
-156.706	-200.000	-0.035	-0.249
-155.691	269.298	0.186	0.322
-154.677	-5.706	0.145	-0.098
-153.662	800.000	-0.084	-0.249
-152.647	800.000	0.100	-0.409
-151.633	9.993	0.235	0.176
-150.618	-51.307	0.268	0.123
-149.604	-200.000	-0.059	-0.261
-148.589	3.118	-0.340	0.243
-147.574	10.284	0.103	0.077
-146.560	-118.366	-0.319	-0.056
-145.545	-200.000	-0.079	0.639
-144.531	-103.170	0.201	0.047
-143.516	-25.958	-0.305	0.177
-142.502	800.000	0.034	-0.131
-141.487	31.287	-0.274	0.231
-140.472	-21.776	0.099	-0.059
-139.458	-10.800	-0.077	0.050
-138.443	-28.476	0.118	-0.067
-137.429	674.015	-0.048	-0.123
-136.414	-71.867	0.186	0.068
-135.399	-200.000	0.007	-0.322
-134.385	8.090	0.203	-0.150
-133.370	-84.014	0.167	-0.052
-132.356	-22.356	0.086	-0.051
-131.341	-200.000	-0.044	0.360
-130.326	121.565	-0.114	0.140
-129.312	-48.730	0.250	0.118
-128.297	6.558	-0.171	0.125
-127.283	-8.691	0.202	-0.133
-126.268	-200.000	0.030	-0.210
-125.253	58.632	0.093	-0.090
-124.239	335.428	0.192	-0.366
-123.224	103.215	0.085	-0.098
-122.210	154.847	-0.149	0.202
-121.195	-75.041	0.197	-0.069
-120.180	69.692	0.107	-0.109
-119.166	21.577	-0.086	-0.069
-118.151	157.579	0.256	-0.348
-117.137	-79.118	0.524	-0.175
-116.122	12.676	0.177	-0.135
-115.107	80.529	-0.097	-0.102
-114.093	-133.785	-0.416	-0.051
-113.078	416.188	0.040	0.083
-112.064	-71.753	-0.104	-0.038
-111.049	49.524	-0.160	-0.148
-110.034	800.000	-0.091	-0.320
-109.020	-200.000	0.024	0.184
-108.005	502.604	0.035	-0.080
-106.991	20.363	0.106	0.084
-105.976	680.726	-0.058	0.149
-104.962	282.664	0.074	0.130
-103.947	-142.239	0.402	0.039
-102.932	-20.795	0.074	0.045
-101.918	23.596	0.258	-0.208
-100.903	113.099	-0.196	0.233
-99.889	92.461	0.036	-0.040
-98.874	213.340	-0.091	0.142
-97.859	800.000	0.121	-0.368
-96.845	6.578	0.214	0.156
-95.830	-200.000	0.033	-0.194
-94.816	24.921	0.199	0.162
-93.801	111.947	-0.078	-0.093
-92.786	115.071	-0.241	-0.288
-91.772	86.538	0.197	-0.214
-90.757	6.686	0.058	-0.042
-89.743	315.446	0.011	0.020
-88.728	-104.916	0.370	-0.083
-87.713	263.685	0.062	0.105
-86.699	230.763	0.211	0.339
-85.684	-86.783	0.147	-0.044
-84.670	800.000	0.079	0.223
-83.655	-82.866	0.212	-0.067
-82.640	-90.337	-0.096	-0.027
-81.626	-191.971	0.113	-0.001
-80.611	297.881	-0.145	-0.261
-79.597	-31.737	-0.087	-0.048
-78.582	-200.000	-0.024	-0.131
-77.567	298.851	0.066	0.120
-76.553	286.894	0.094	0.166
-75.538	-170.378	0.083	-0.003
-74.524	-29.373	-0.229	0.129
-73.509	277.806	0.092	-0.160
-72.494	-95.846	0.354	-0.093
-71.480	-200.000	0.012	0.341
-70.465	5.765	0.157	0.114
-69.451	-1.366	0.348	-0.241
-68.436	-144.719	0.164	0.015
-67.422	800.000	-0.106	0.343
-66.407	-71.929	-0.402	-0.147
-65.392	-143.916	0.388	0.036
-64.378	800.000	0.093	-0.399
-63.363	418.501	-0.032	-0.066
-62.349	452.779	0.038	0.083
-61.334	182.798	-0.776	-1.123
-60.319	193.395	0.391	0.579
-59.305	-200.000	-0.162	-0.884
-58.290	167.837	0.756	1.055
-57.276	775.345	0.651	1.743
-56.261	-200.000	108.956	594.308
-55.246	444.913	1487.006	3201.339
-54.232	145.804	2676.132	3517.549
-53.217	99.547	2287.617	2595.709
-52.203	38.410	1898.255	1658.614
-51.188	32.735	1687.118	1431.152
-50.173	30.086	1644.053	1374.938
-49.159	49.400	1698.236	1566.405
-48.144	49.576	1713.111	1581.389
-47.130	32.210	1671.272	1413.533
-46.115	29.592	1656.336	1381.297
-45.100	29.382	1651.582	1375.713
-44.086	29.357	1648.543	1372.941
-43.071	29.277	1646.081	1370.240
-42.057	29.326	1643.230	1368.181
-41.042	29.340	1641.770	1367.010
-40.027	29.359	1639.538	1365.240
-39.013	29.337	1637.463	1363.294
-37.998	29.305	1636.478	1362.185
-36.984	29.247	1635.485	1360.873
-35.969	29.402	1633.461	1360.278
-34.954	29.412	1632.210	1359.261
-33.940	29.431	1630.440	1357.869
-32.925	29.552	1628.517	1357.107
-31.911	29.512	1626.670	1355.220
-30.896	29.486	1624.617	1353.265
-29.881	29.489	1623.312	1352.147
-28.867	29.431	1621.793	1350.399
-27.852	29.467	1620.013	1349.128
-26.838	29.376	1618.869	1347.457
-25.823	29.504	1617.634	1347.311
-24.809	29.490	1616.589	1346.286
-23.794	29.470	1614.784	1344.582
-22.779	29.432	1613.641	1343.302
-21.765	29.479	1611.563	1341.859
-20.750	29.487	1609.723	1340.336
-19.736	29.510	1608.389	1339.337
-18.721	29.518	1607.225	1338.374
-17.706	29.489	1605.695	1336.833
-16.692	29.490	1604.226	1335.565
-15.677	29.480	1602.773	1334.230
-14.663	29.494	1601.974	1333.609
-13.648	29.502	1599.987	1331.963
-12.633	29.416	1598.511	1330.061
-11.619	29.462	1596.831	1328.940
-10.604	29.406	1595.437	1327.324
-9.590	29.499	1594.593	1327.237
-8.575	29.553	1592.756	1326.048
-7.560	29.495	1591.975	1324.929
-6.546	29.516	1590.605	1323.888
-5.531	29.505	1589.665	1322.969
-4.517	29.352	1588.765	1321.076
-3.502	29.400	1587.327	1320.170
-2.487	29.585	1585.303	1319.753
-1.473	29.261	1573.837	1307.857
-0.458	26.517	1555.325	1273.148
0.556	21.359	1556.927	1243.409
1.571	19.332	1579.694	1246.842
2.586	18.970	1593.155	1254.715
3.600	17.222	1540.239	1200.587
4.615	9.554	1430.506	1064.453
5.629	1.822	1366.186	967.552
6.644	0.301	1357.492	951.709
7.659	0.129	1356.156	949.602
8.673	0.008	1355.329	948.176
9.688	0.002	1353.457	946.741
10.702	-0.082	1349.714	943.514
11.717	3.586	1355.857	970.826
12.731	12.114	1369.423	1034.446
13.746	17.305	1376.062	1072.188
14.761	17.268	1374.495	1070.644
15.775	16.242	1371.945	1062.108
16.790	15.200	1369.621	1053.664
17.804	14.407	1367.178	1046.714
18.819	14.020	1365.879	1043.200
19.834	13.691	1364.791	1040.207
20.848	13.410	1363.837	1037.628
21.863	13.240	1362.464	1035.426
22.877	13.110	1360.941	1033.367
23.892	13.058	1360.064	1032.281
24.907	13.056	1358.815	1031.230
25.921	13.120	1358.334	1031.177
26.936	13.119	1357.328	1030.315
27.950	13.231	1356.320	1030.155
28.965	13.196	1355.691	1029.371
29.980	13.136	1354.712	1028.161
30.994	13.341	1353.615	1028.510
32.009	13.399	1352.274	1027.762
33.023	13.410	1351.398	1027.073
34.038	13.282	1350.174	1025.256
35.053	13.306	1349.291	1024.643
36.067	13.317	1348.367	1023.923
37.082	13.272	1347.405	1022.821
38.096	13.301	1346.539	1022.256
39.111	13.334	1346.050	1021.997
40.126	13.213	1344.942	1020.319
41.140	13.209	1343.821	1019.353
42.155	13.093	1343.557	1018.348
43.169	13.082	1343.436	1018.094
44.184	12.966	1344.026	1017.740
45.199	13.185	1343.135	1018.326
46.213	13.136	1342.070	1017.122
47.228	13.185	1341.292	1016.745
48.242	13.260	1340.060	1016.183
49.257	13.207	1338.544	1014.619
50.271	13.238	1337.329	1013.799
51.286	13.267	1335.942	1012.834
52.301	13.216	1334.919	1011.656
53.315	13.157	1333.380	1010.038
54.330	13.129	1333.048	1009.527
55.344	13.173	1331.500	1008.533
56.359	13.117	1330.393	1007.264
57.374	13.134	1329.641	1006.713
58.388	13.042	1329.024	1005.597
59.403	13.081	1328.395	1005.270
60.417	12.967	1327.979	1004.170
61.432	13.112	1326.567	1003.894
62.447	13.091	1325.633	1002.972
63.461	12.997	1324.389	1001.368
64.476	13.088	1323.043	1000.818
65.490	12.954	1322.341	999.387
66.505	12.948	1321.015	998.259
67.520	13.021	1319.522	997.485
68.534	13.075	1318.418	996.884
69.549	13.084	1317.911	996.471
70.563	13.061	1316.416	995.111
71.578	13.026	1315.252	993.933
72.593	12.911	1314.543	992.615
73.607	12.850	1314.341	992.011
74.622	12.930	1313.289	991.608
75.636	12.950	1312.110	990.748
76.651	13.013	1311.444	990.540
77.666	13.026	1310.831	990.068
78.680	13.023	1310.521	989.726
79.695	12.967	1309.343	988.415
80.709	13.050	1308.393	988.108
81.724	13.119	1307.886	988.049
82.739	13.174	1306.613	987.328
83.753	13.180	1305.721	986.604
84.768	13.256	1304.529	986.067
85.782	13.390	1303.292	985.845
86.797	13.218	1302.259	983.952
87.812	13.165	1301.382	982.883
88.826	13.182	1300.503	982.234
89.841	13.281	1298.965	981.575
90.855	13.311	1297.866	980.837
91.870	13.287	1297.097	980.024
92.884	13.288	1296.312	979.351
93.899	13.323	1295.507	978.867
94.914	13.373	1294.518	978.327
95.928	13.323	1293.958	977.520
96.943	13.241	1293.368	976.504
97.957	13.237	1292.505	975.741
98.972	13.334	1290.895	975.013
99.987	13.388	1289.339	974.067
101.001	13.196	1289.233	972.770
102.016	13.376	1287.751	972.629
103.030	13.386	1286.932	971.981
104.045	13.241	1286.113	970.424
105.060	13.295	1284.918	969.752
106.074	13.166	1283.548	967.877
107.089	13.148	1282.442	966.856
108.103	13.048	1281.315	965.335
109.118	13.084	1279.807	964.322
110.133	13.046	1278.522	963.050
111.147	13.173	1277.136	962.657
112.162	13.164	1275.626	961.382
113.176	13.116	1275.143	960.655
114.191	13.151	1274.098	959.984
115.206	13.090	1273.173	958.848
116.220	13.186	1271.401	957.988
117.235	13.159	1270.290	956.907
118.249	13.108	1269.352	955.824
119.264	13.103	1268.211	954.849
120.279	13.192	1266.723	954.158
121.293	13.137	1266.390	953.504
122.308	13.195	1264.500	952.332
123.322	13.089	1263.995	951.259
124.337	12.994	1263.207	950.035
125.352	13.026	1262.408	949.532
126.366	13.132	1260.882	948.908
127.381	13.138	1260.011	948.202
128.395	13.075	1258.657	946.741
129.410	13.170	1257.558	946.372
130.424	13.164	1257.236	946.015
131.439	13.191	1256.052	945.196
132.454	13.199	1254.852	944.254
133.468	13.163	1254.044	943.356
134.483	13.234	1252.999	942.893
135.497	13.218	1252.259	942.160
136.512	13.217	1250.829	940.993
137.527	13.169	1249.843	939.897
138.541	13.087	1248.567	938.386
139.556	13.167	1247.075	937.635
140.570	13.172	1246.138	936.877
141.585	13.301	1244.575	936.351
142.600	13.352	1243.459	935.719
143.614	13.231	1243.234	934.781
144.629	13.393	1241.747	934.497
145.643	13.394	1240.415	933.417
146.658	13.295	1239.483	932.074
147.673	13.236	1237.866	930.441
148.687	13.216	1237.287	929.814
149.702	13.135	1235.875	928.213
150.716	13.173	1234.561	927.356
151.731	13.258	1232.900	926.504
152.746	13.278	1231.923	925.803
153.760	13.279	1230.658	924.776
154.775	13.380	1229.811	924.619
155.789	13.412	1228.539	923.761
156.804	13.428	1227.626	923.082
157.819	13.515	1226.409	922.572
158.833	13.473	1225.662	921.694
159.848	13.614	1224.510	921.530
160.862	13.564	1223.523	920.426
161.877	13.441	1222.854	919.158
162.892	13.391	1221.778	917.993
163.906	13.370	1220.956	917.174
164.921	13.409	1220.083	916.658
165.935	13.398	1219.628	916.173
166.950	13.458	1218.437	915.530
167.964	13.492	1217.780	915.142
168.979	13.457	1217.153	914.394
169.994	13.393	1216.615	913.559
171.008	13.517	1215.840	913.578
172.023	13.539	1214.871	912.893
173.037	13.655	1213.823	912.663
174.052	13.531	1213.038	911.307
175.067	13.503	1211.881	910.204
176.081	13.447	1211.142	909.259
177.096	13.514	1210.129	908.790
178.110	13.485	1209.237	907.880
179.125	13.513	1208.098	907.099
180.140	13.529	1206.477	905.885
181.154	13.674	1205.066	905.538
182.169	13.637	1204.340	904.712
183.183	13.793	1202.605	904.178
184.198	13.705	1201.561	902.834
185.213	13.799	1200.491	902.459
186.227	13.730	1199.181	901.022
187.242	13.615	1199.140	900.289
188.256	13.815	1197.647	900.173
189.271	13.818	1196.729	899.417
190.286	13.728	1195.618	898.016
191.300	13.639	1194.921	896.933
192.315	13.501	1194.338	895.669
193.329	13.623	1193.425	895.562
194.344	13.636	1193.221	895.401
195.359	13.621	1192.314	894.563
196.373	13.734	1191.744	894.663
197.388	13.819	1190.961	894.454
198.402	13.968	1190.421	894.773
199.417	13.903	1189.886	893.940
200.432	13.983	1189.133	893.728
201.446	13.981	1188.028	892.807
202.461	13.995	1187.064	892.079
203.475	14.149	1186.229	892.199
204.490	14.003	1184.609	890.120
205.504	14.064	1183.378	889.441
206.519	13.981	1181.980	887.868
207.534	13.871	1181.495	886.837
208.548	13.927	1180.215	886.095
209.563	14.051	1179.207	885.921
210.577	14.024	1178.395	885.088
211.592	14.049	1178.164	884.973
212.607	14.119	1177.189	884.531
213.621	14.168	1175.999	883.822
214.636	14.048	1175.228	882.528
215.650	14.017	1174.576	881.796
216.665	14.036	1173.721	881.173
217.680	14.255	1172.611	881.425
218.694	14.137	1172.044	880.296
219.709	14.150	1171.429	879.825
220.723	14.099	1170.612	878.861
221.738	14.208	1169.378	878.433
222.753	14.265	1168.953	878.340
223.767	14.283	1168.164	877.763
224.782	14.348	1167.427	877.472
225.796	14.421	1166.635	877.185
226.811	14.382	1165.761	876.245
227.826	14.327	1165.122	875.400
228.840	14.232	1164.949	874.694
229.855	14.344	1163.802	874.340
230.869	14.283	1162.835	873.218
231.884	14.257	1162.514	872.760
232.899	14.269	1161.378	871.894
233.913	14.296	1160.587	871.366
234.928	14.303	1159.753	870.700
235.942	14.309	1159.305	870.314
236.957	14.253	1158.626	869.440
237.972	14.174	1158.366	868.751
238.986	14.253	1157.641	868.546
240.001	14.431	1156.605	868.616
241.015	14.449	1155.375	867.709
242.030	14.373	1154.405	866.513
243.045	14.348	1154.322	866.242
244.059	14.247	1153.721	865.189
245.074	14.476	1152.803	865.615
246.088	14.461	1151.970	864.834
247.103	14.464	1151.276	864.253
248.117	14.619	1149.750	863.832
249.132	14.571	1149.472	863.298
250.147	14.726	1148.887	863.584
251.161	14.690	1148.367	862.932
252.176	14.703	1147.818	862.508
253.190	14.765	1147.099	862.212
254.205	14.817	1146.662	862.075
255.220	14.832	1145.729	861.376
256.234	14.897	1144.974	861.065
257.249	14.945	1144.255	860.695
258.263	14.906	1144.140	860.335
259.278	14.843	1142.947	859.037
260.293	14.902	1142.517	858.940
261.307	14.975	1142.110	858.931
262.322	15.021	1141.386	858.550
263.336	14.997	1140.676	857.816
264.351	14.979	1140.247	857.325
265.366	14.916	1139.378	856.271
266.380	15.070	1138.485	856.315
267.395	14.980	1137.656	855.155
268.409	15.100	1137.156	855.317
269.424	15.056	1136.163	854.268
270.439	15.046	1136.214	854.182
271.453	14.958	1135.376	853.027
272.468	14.905	1134.462	851.992
273.482	14.988	1133.877	851.901
274.497	14.958	1132.733	850.816
275.512	14.955	1132.271	850.379
276.526	15.037	1131.879	850.422
277.541	15.079	1130.907	849.831
278.555	15.081	1129.946	849.045
279.570	15.090	1129.698	848.828
280.585	15.192	1128.435	848.321
281.599	15.160	1127.674	847.511
282.614	15.181	1126.290	846.503
283.628	15.122	1125.487	845.529
284.643	15.273	1124.735	845.647
285.657	15.333	1123.690	845.091
286.672	15.245	1122.885	843.965
287.687	15.214	1122.021	843.087
288.701	15.163	1121.625	842.457
289.716	15.257	1120.835	842.262
290.730	15.304	1119.915	841.735
291.745	15.395	1119.355	841.695
292.760	15.342	1118.928	841.033
293.774	15.346	1117.919	840.221
294.789	15.351	1117.823	840.099
295.803	15.371	1116.929	839.450
296.818	15.420	1116.080	838.987
297.833	15.460	1115.436	838.626
298.847	15.328	1114.825	837.436
299.862	15.340	1113.932	836.750
300.876	15.434	1113.036	836.469
301.891	15.322	1112.994	835.807
302.906	15.542	1111.913	836.015
303.920	15.571	1111.071	835.455
304.935	15.511	1110.892	834.948
305.949	15.590	1110.040	834.624
306.964	15.747	1108.985	834.538
307.979	15.666	1108.393	833.615
308.993	15.627	1107.847	832.935
310.008	15.622	1107.243	832.385
311.022	15.662	1106.257	831.768
312.037	15.647	1105.418	830.989
313.052	15.583	1104.254	829.727
314.066	15.470	1103.716	828.691
315.081	15.599	1102.635	828.441
316.095	15.585	1102.242	828.005
317.110	15.589	1101.197	827.165
318.125	15.605	1100.668	826.774
319.139	15.630	1099.826	826.190
320.154	15.552	1099.200	825.261
321.168	15.625	1098.494	825.020
322.183	15.677	1097.942	824.788
323.197	15.729	1097.161	824.383
324.212	15.755	1096.839	824.194
325.227	15.606	1096.353	823.024
326.241	15.704	1095.742	822.976
327.256	15.658	1095.048	822.156
328.270	15.691	1093.848	821.344
329.285	15.638	1093.163	820.495
330.300	15.714	1091.699	819.695
331.314	15.565	1091.253	818.560
332.329	15.739	1090.175	818.530
333.343	15.932	1088.875	818.417
334.358	15.931	1088.163	817.803
335.373	15.852	1088.042	817.256
336.387	15.976	1086.880	816.915
337.402	16.013	1086.244	816.544
338.416	15.927	1085.518	815.508
339.431	15.975	1085.153	815.393
340.446	15.958	1084.632	814.850
341.460	15.949	1083.780	814.093
342.475	15.982	1082.761	813.413
343.489	16.092	1081.968	813.277
344.504	16.068	1080.745	812.173
345.519	16.058	1080.650	811.982
346.533	16.185	1079.648	811.767
347.548	16.191	1078.606	810.941
348.562	16.291	1077.965	810.864
349.577	16.131	1077.472	809.655
350.592	16.057	1076.648	808.608
351.606	16.045	1075.898	807.917
352.621	16.129	1075.114	807.659
353.635	16.167	1074.465	807.282
354.650	16.147	1073.803	806.618
355.665	16.113	1073.118	805.871
356.679	16.149	1072.774	805.713
357.694	16.190	1072.021	805.273
358.708	16.251	1071.329	804.969
359.723	16.249	1070.554	804.307
360.738	16.223	1070.086	803.760
361.752	16.332	1069.219	803.556
362.767	16.350	1068.721	803.200
363.781	16.330	1068.333	802.742
364.796	16.374	1067.765	802.453
365.810	16.514	1067.114	802.554
366.825	16.434	1066.153	801.384
367.840	16.597	1065.847	801.856
368.854	16.601	1065.524	801.557
369.869	16.549	1064.711	800.630
370.883	16.535	1063.759	799.776
371.898	16.468	1062.940	798.777
372.913	16.442	1062.848	798.513
373.927	16.599	1061.871	798.446
374.942	16.594	1061.538	798.104
375.956	16.542	1061.257	797.576
376.971	16.593	1060.315	797.036
377.986	16.705	1059.597	796.957
379.000	16.715	1059.391	796.777
380.015	16.718	1058.793	796.273
381.029	16.780	1057.944	795.854
382.044	16.782	1057.121	795.171
383.059	16.698	1056.715	794.404
384.073	16.733	1055.994	793.956
385.088	16.784	1054.904	793.302
386.102	16.836	1053.971	792.774
387.117	16.709	1053.154	791.497
388.132	16.768	1052.324	791.077
389.146	16.691	1051.721	790.197
390.161	16.790	1050.718	789.833
391.175	16.657	1050.396	788.901
392.190	16.863	1049.529	789.142
393.205	16.893	1048.956	788.779
394.219	16.786	1048.129	787.589
395.234	16.876	1047.311	787.322
396.248	16.862	1046.142	786.310
397.263	16.865	1045.108	785.479
398.278	16.852	1044.420	784.830
399.292	16.790	1044.103	784.239
400.307	16.665	1043.385	783.049
401.321	16.816	1042.876	783.295
402.336	16.902	1041.630	782.689
403.350	16.770	1041.284	781.751
404.365	16.943	1040.222	781.682
405.380	16.914	1039.915	781.246
406.394	16.988	1039.113	780.916
407.409	16.903	1039.073	780.428
408.423	17.025	1038.093	780.181
409.438	17.110	1037.130	779.779
410.453	17.119	1036.401	779.203
411.467	17.279	1035.506	779.197
412.482	17.074	1035.259	778.000
413.496	17.308	1034.114	778.142
414.511	17.188	1033.735	777.239
415.526	17.193	1033.213	776.802
416.540	17.206	1032.985	776.621
417.555	17.420	1032.155	776.905
418.569	17.387	1031.515	776.204
419.584	17.247	1031.472	775.463
420.599	17.240	1030.710	774.791
421.613	103.463	1322.242	1469.687
422.628	94.688	1364.672	1469.781
