DTS Sentinel unit serial number:	SN413079Multiplexer serial number:	ORYXHardware model number:	OX4-SRSoftware version number:	ORYX F/W v4.00 Oryx Data Collector v3.7.2.0data status	okinstallation	princeton_trtdifferential loss correction	single-endedforward channel	channel 2reverse channel	N/Adate	2019/09/14time	00:23:34forward acquisition time	60.00reverse acquisition time	0.00gamma	496.2192k internal	0.2339k external	0.2339temperature offset calibration	1.0123default loss term (dB/km)	0.3790temperature slope calibration	1.0000multiplexer offset coefficient	1.0000multiplexer slope coefficient	1.0000fibre end	0.00T internal ref (°C)	26.50T ext. ref 1 (°C)	3.17T ext. ref 2 (°C)	21.33length (m)	temperature (°C)	Stokes	anti-Stokes-747.200	-21.724	-0.277	-0.169
-746.185	149.284	0.056	-0.077
-745.171	-99.073	-0.204	-0.052
-744.156	240.771	-0.130	0.217
-743.142	111.122	-0.221	0.267
-742.127	800.000	0.095	0.331
-741.112	20.588	-0.176	0.143
-740.098	800.000	0.062	0.185
-739.083	105.731	0.136	-0.161
-738.069	800.000	-0.138	0.408
-737.054	13.972	-0.159	-0.124
-736.039	464.436	0.046	-0.104
-735.025	-27.005	0.126	-0.074
-734.010	-200.000	-0.038	-0.215
-732.996	-165.754	-0.219	-0.009
-731.981	14.813	0.200	-0.157
-730.966	63.254	0.094	0.095
-729.952	263.816	-0.251	-0.437
-728.937	231.977	-0.084	-0.138
-727.923	-200.000	-0.023	0.137
-726.908	-179.976	0.076	-0.002
-725.894	55.032	0.116	-0.112
-724.879	-200.000	-0.079	-0.526
-723.864	223.194	-0.069	-0.111
-722.850	-74.730	-0.131	0.047
-721.835	588.513	-0.085	0.210
-720.821	-3.762	-0.277	0.193
-719.806	800.000	-0.085	-0.312
-718.791	-200.000	-0.014	0.319
-717.777	-22.727	0.017	-0.010
-716.762	-8.555	-0.135	-0.091
-715.748	95.292	0.168	-0.191
-714.733	-121.162	0.195	0.033
-713.718	7.838	-0.087	0.065
-712.704	74.194	-0.119	0.125
-711.689	-40.180	-0.068	-0.035
-710.675	-200.000	0.023	-0.122
-709.660	-200.000	-0.007	0.132
-708.645	-41.498	-0.178	0.092
-707.631	-91.153	0.273	-0.078
-706.616	-122.625	-0.166	-0.027
-705.602	-7.970	-0.096	0.065
-704.587	-200.000	-0.089	-0.424
-703.572	800.000	0.053	0.214
-702.558	606.539	0.134	-0.335
-701.543	-200.000	-0.074	-0.474
-700.529	160.160	-0.100	0.139
-699.514	-200.000	0.024	-0.156
-698.499	9.943	0.038	0.029
-697.485	342.393	-0.031	-0.060
-696.470	59.122	-0.062	0.061
-695.456	-120.894	-0.354	0.060
-694.441	26.609	-0.227	-0.190
-693.426	43.851	0.123	-0.112
-692.412	-200.000	0.010	-0.344
-691.397	129.671	-0.135	-0.172
-690.383	-200.000	0.032	-0.261
-689.368	784.488	-0.043	-0.118
-688.354	304.744	0.171	-0.317
-687.339	114.249	0.160	-0.195
-686.324	-65.169	-0.244	0.098
-685.310	12.984	-0.338	-0.261
-684.295	800.000	0.066	-0.246
-683.281	250.423	-0.277	0.471
-682.266	-11.594	-0.201	-0.132
-681.251	-200.000	-0.087	0.000
-680.237	-110.757	-0.353	0.073
-679.222	-200.000	-0.013	-0.077
-678.208	7.461	0.182	-0.136
-677.193	-140.219	-0.390	-0.041
-676.178	13.864	-0.207	-0.161
-675.164	-33.611	-0.375	0.207
-674.149	-200.000	-0.061	-0.274
-673.135	-105.078	0.441	-0.101
-672.120	-128.220	-0.443	-0.063
-671.105	-85.044	0.388	-0.122
-670.091	-9.466	-0.088	-0.059
-669.076	-135.180	0.250	0.030
-668.062	57.350	-0.172	-0.168
-667.047	-65.471	-0.084	0.034
-666.032	800.000	0.068	-0.277
-665.018	414.871	-0.182	-0.387
-664.003	296.341	-0.123	-0.226
-662.989	-86.941	-0.153	0.047
-661.974	-3.327	0.100	0.070
-660.959	-4.831	-0.166	0.115
-659.945	166.151	0.060	-0.084
-658.930	-67.248	-0.187	-0.074
-657.916	-176.533	-0.380	0.010
-656.901	-163.943	0.300	-0.014
-655.886	612.225	0.052	-0.130
-654.872	-60.965	0.160	-0.068
-653.857	-30.176	-0.236	0.134
-652.843	385.640	0.046	0.095
-651.828	786.627	-0.104	-0.286
-650.814	800.000	0.045	-0.163
-649.799	-137.776	-0.266	-0.030
-648.784	-189.247	-0.237	0.003
-647.770	-128.330	0.343	0.049
-646.755	-82.105	0.120	-0.039
-645.741	97.657	0.337	0.388
-644.726	-200.000	0.064	-0.304
-643.711	-149.937	0.192	-0.015
-642.697	800.000	-0.061	0.169
-641.682	-117.096	0.132	0.024
-640.668	-36.329	-0.178	-0.096
-639.653	-55.707	0.192	0.086
-638.638	-48.571	-0.137	-0.066
-637.624	61.419	-0.093	-0.092
-636.609	800.000	0.046	-0.158
-635.595	-112.127	-0.253	0.051
-634.580	-18.443	-0.042	-0.026
-633.565	-142.330	-0.050	0.005
-632.551	800.000	-0.110	0.320
-631.536	-18.553	-0.263	-0.164
-630.522	615.341	0.023	0.058
-629.507	62.029	0.130	0.130
-628.492	-200.000	-0.002	-0.312
-627.478	-96.874	0.206	0.054
-626.463	-46.134	0.140	-0.069
-625.449	141.057	-0.210	-0.277
-624.434	-200.000	-0.010	-0.102
-623.419	84.660	0.140	0.153
-622.405	-104.102	0.186	-0.043
-621.390	-75.738	0.438	0.155
-620.376	-79.873	0.085	0.029
-619.361	-121.940	0.038	0.006
-618.346	-167.316	-0.115	-0.005
-617.332	-200.000	-0.038	-0.349
-616.317	-62.446	-0.285	0.118
-615.303	-64.147	0.463	-0.188
-614.288	35.679	0.105	-0.092
-613.273	84.742	-0.360	0.393
-612.259	16.879	-0.192	-0.152
-611.244	-101.097	-0.221	0.054
-610.230	800.000	0.061	0.194
-609.215	-67.460	-0.223	0.088
-608.201	32.125	-0.038	0.032
-607.186	-96.074	0.188	0.050
-606.171	8.188	-0.279	0.209
-605.157	207.465	-0.123	0.192
-604.142	-7.386	-0.333	-0.225
-603.128	-195.788	0.415	0.003
-602.113	-169.649	-0.283	-0.010
-601.098	-147.252	0.093	0.008
-600.084	-143.675	-0.252	0.024
-599.069	43.384	-0.074	0.067
-598.055	800.000	0.058	-0.209
-597.040	140.589	-0.127	0.167
-596.025	-165.360	-0.376	0.016
-595.011	800.000	0.155	-0.469
-593.996	-24.754	-0.295	0.175
-592.982	-55.734	0.319	-0.142
-591.967	319.700	0.172	-0.326
-590.952	737.866	-0.091	-0.243
-589.938	-175.188	0.124	-0.003
-588.923	-200.000	-0.044	-0.279
-587.909	-51.327	0.192	0.090
-586.894	37.204	-0.119	-0.105
-585.879	54.699	-0.075	0.072
-584.865	800.000	-0.092	0.339
-583.850	-149.329	0.291	0.023
-582.836	426.658	-0.083	0.179
-581.821	-200.000	-0.018	-0.171
-580.806	-104.428	0.307	-0.071
-579.792	-200.000	-0.016	0.091
-578.777	-102.923	-0.455	0.108
-577.763	800.000	-0.033	0.126
-576.748	-110.898	-0.248	-0.051
-575.733	-72.944	0.325	0.119
-574.719	-96.179	0.136	-0.036
-573.704	-84.450	-0.163	-0.051
-572.690	260.107	0.126	-0.217
-571.675	130.222	0.076	-0.098
-570.661	-114.414	-0.065	-0.012
-569.646	-60.772	-0.288	0.122
-568.631	-87.856	0.155	-0.047
-567.617	-132.824	0.327	0.042
-566.602	-1.379	0.334	0.235
-565.588	12.266	-0.088	0.068
-564.573	800.000	-0.122	0.425
-563.558	800.000	-0.099	0.415
-562.544	25.089	-0.106	0.088
-561.529	118.859	0.117	-0.143
-560.515	614.137	0.060	-0.150
-559.500	83.670	-0.208	-0.226
-558.485	-137.377	0.156	-0.018
-557.471	104.993	0.402	0.472
-556.456	738.389	-0.055	-0.148
-555.442	-58.959	0.120	-0.051
-554.427	-41.121	-0.358	0.184
-553.412	-13.751	0.417	0.268
-552.398	282.942	0.108	-0.193
-551.383	-135.679	0.300	0.035
-550.369	283.938	-0.064	0.114
-549.354	14.790	0.118	-0.092
-548.339	10.700	-0.238	-0.181
-547.325	366.809	-0.128	-0.258
-546.310	-172.346	-0.075	0.002
-545.296	-183.751	-0.384	0.007
-544.281	-9.934	-0.323	0.214
-543.266	36.180	0.124	-0.108
-542.252	-115.538	-0.211	-0.040
-541.237	-200.000	-0.027	0.396
-540.223	107.596	0.177	-0.210
-539.208	-59.829	0.196	-0.083
-538.193	6.136	-0.071	-0.053
-537.179	93.905	0.150	-0.169
-536.164	800.000	-0.068	0.273
-535.150	428.127	-0.120	0.258
-534.135	-133.945	0.145	0.018
-533.121	800.000	-0.164	-0.486
-532.106	32.544	0.151	-0.130
-531.091	-47.367	-0.114	0.055
-530.077	-200.000	0.016	-0.379
-529.062	-81.000	-0.154	-0.051
-528.048	247.061	-0.208	0.349
-527.033	-200.000	-0.008	0.065
-526.018	179.033	0.024	0.034
-525.004	-200.000	-0.005	0.076
-523.989	36.931	0.212	0.186
-522.975	107.017	0.145	0.171
-521.960	-117.002	-0.109	-0.020
-520.945	-74.740	-0.446	0.159
-519.931	73.262	0.181	-0.189
-518.916	-46.077	0.417	-0.204
-517.902	-46.537	0.030	-0.015
-516.887	-131.278	0.153	0.020
-515.872	218.771	-0.077	0.122
-514.858	365.024	-0.115	0.230
-513.843	-23.969	0.195	0.116
-512.829	-62.819	-0.196	-0.081
-511.814	-112.585	0.136	0.027
-510.799	-200.000	-0.038	-0.224
-509.785	58.054	-0.147	-0.143
-508.770	86.838	0.107	-0.117
-507.756	800.000	0.114	-0.338
-506.741	-158.874	-0.288	-0.016
-505.726	-160.273	-0.252	0.014
-504.712	-8.105	-0.209	-0.140
-503.697	-107.676	-0.134	0.029
-502.683	800.000	-0.055	-0.156
-501.668	-132.251	0.045	-0.006
-500.653	16.761	0.145	0.114
-499.639	109.291	0.248	0.295
-498.624	-200.000	0.021	-0.199
-497.610	-200.000	0.025	-0.253
-496.595	-42.350	-0.195	0.099
-495.581	13.711	0.160	0.124
-494.566	-178.289	-0.268	-0.006
-493.551	-91.874	-0.211	0.059
-492.537	-26.612	0.193	0.112
-491.522	-68.849	0.109	0.042
-490.508	-200.000	-0.017	-0.106
-489.493	800.000	0.173	0.536
-488.478	-42.619	-0.117	-0.059
-487.464	733.028	0.026	-0.070
-486.449	-94.899	0.174	0.047
-485.435	-119.368	-0.538	0.093
-484.420	-200.000	0.054	-0.237
-483.405	29.712	-0.100	0.084
-482.391	148.963	-0.053	-0.071
-481.376	617.473	-0.094	-0.234
-480.362	673.982	0.142	0.366
-479.347	-200.000	0.002	0.052
-478.332	-145.315	0.109	-0.010
-477.318	-72.069	-0.523	-0.193
-476.303	-66.674	0.368	0.145
-475.289	24.123	-0.174	-0.143
-474.274	-1.086	0.154	-0.108
-473.259	175.736	-0.139	-0.200
-472.245	-200.000	-0.041	-0.243
-471.230	-20.796	0.411	0.250
-470.216	-200.000	-0.016	-0.244
-469.201	-200.000	0.052	0.252
-468.186	-59.910	0.049	0.021
-467.172	-200.000	0.020	-0.089
-466.157	-58.028	0.353	0.153
-465.143	136.890	-0.239	-0.309
-464.128	563.474	0.050	-0.120
-463.113	-74.043	0.027	0.010
-462.099	-31.096	-0.037	0.021
-461.084	414.606	-0.073	-0.155
-460.070	179.913	-0.075	0.110
-459.055	108.117	-0.081	0.096
-458.040	-154.027	-0.618	0.042
-457.026	-200.000	0.012	-0.058
-456.011	349.190	-0.171	-0.336
-454.997	17.260	0.374	-0.294
-453.982	-200.000	0.019	-0.236
-452.968	-43.433	-0.128	0.064
-451.953	-83.330	-0.096	0.031
-450.938	-82.018	-0.319	-0.103
-449.924	284.610	0.121	0.216
-448.909	562.048	0.007	-0.016
-447.895	37.788	-0.142	-0.125
-446.880	707.085	0.052	-0.135
-445.865	-140.321	0.259	0.027
-444.851	611.571	-0.079	-0.195
-443.836	734.292	-0.184	-0.487
-442.822	-200.000	0.000	-0.228
-441.807	-46.899	-0.319	0.155
-440.792	800.000	0.023	-0.068
-439.778	-124.542	-0.186	-0.029
-438.763	-200.000	0.031	-0.319
-437.749	86.873	0.187	0.205
-436.734	800.000	0.087	0.345
-435.719	-200.000	-0.081	0.474
-434.705	-26.831	0.080	-0.046
-433.690	113.575	0.130	-0.156
-432.676	114.069	-0.074	-0.089
-431.661	-200.000	0.010	0.127
-430.646	24.276	-0.079	0.064
-429.632	72.795	0.182	-0.188
-428.617	-200.000	0.001	-0.260
-427.603	800.000	0.126	0.348
-426.588	380.181	0.163	0.331
-425.573	-32.722	0.053	-0.029
-424.559	148.400	0.042	0.057
-423.544	119.064	-0.107	0.131
-422.530	751.900	0.049	-0.130
-421.515	-200.000	-0.034	-0.172
-420.500	-200.000	0.053	-0.252
-419.486	-95.394	0.138	0.037
-418.471	800.000	-0.050	-0.182
-417.457	13.992	-0.098	0.075
-416.442	227.881	-0.051	-0.083
-415.428	-200.000	0.066	-0.367
-414.413	-41.758	-0.170	0.086
-413.398	-62.946	-0.164	0.067
-412.384	-84.763	0.250	0.078
-411.369	293.686	0.092	-0.167
-410.355	229.036	0.206	-0.332
-409.340	26.619	0.223	-0.185
-408.325	298.246	-0.170	-0.309
-407.311	95.797	-0.085	0.096
-406.296	-12.845	-0.226	0.146
-405.282	11.929	0.366	0.279
-404.267	800.000	-0.062	-0.199
-403.252	68.337	0.263	-0.267
-402.238	-200.000	-0.004	-0.164
-401.223	-53.212	-0.280	0.127
-400.209	800.000	0.082	-0.293
-399.194	253.994	-0.114	-0.193
-398.179	-102.428	0.136	0.032
-397.165	576.274	-0.023	0.055
-396.150	114.560	0.189	-0.228
-395.136	-129.067	-0.139	0.019
-394.121	800.000	0.084	-0.331
-393.106	140.200	-0.103	-0.135
-392.092	800.000	0.090	0.284
-391.077	-68.681	0.271	0.104
-390.063	43.381	-0.119	-0.108
-389.048	-200.000	-0.048	-0.246
-388.033	-155.144	-0.147	0.009
-387.019	-38.933	0.065	-0.034
-386.004	-57.002	0.329	0.143
-384.990	9.791	-0.109	0.082
-383.975	-200.000	0.010	0.087
-382.960	-39.988	0.010	0.005
-381.946	-200.000	-0.045	-0.211
-380.931	429.553	-0.095	0.202
-379.917	43.267	-0.161	0.145
-378.902	291.861	-0.026	0.046
-377.888	-112.278	0.095	0.019
-376.873	1.387	0.320	0.227
-375.858	-101.972	-0.260	-0.062
-374.844	-200.000	0.014	0.269
-373.829	-200.000	-0.005	-0.027
-372.815	-200.000	0.053	0.256
-371.800	10.604	-0.335	0.253
-370.785	-92.337	-0.249	0.069
-369.771	800.000	0.044	0.174
-368.756	705.622	0.056	0.146
-367.742	-200.000	-0.033	-0.220
-366.727	800.000	-0.006	-0.024
-365.712	-200.000	0.028	-0.336
-364.698	-15.798	0.342	-0.215
-363.683	331.138	0.209	0.398
-362.669	-45.151	-0.046	0.023
-361.654	21.523	-0.078	-0.063
-360.639	-110.201	0.057	-0.012
-359.625	1.135	-0.174	0.123
-358.610	-200.000	0.043	-0.291
-357.596	-62.452	0.495	-0.203
-356.581	-153.514	0.104	-0.007
-355.566	-166.713	-0.363	0.015
-354.552	-200.000	-0.003	0.184
-353.537	-157.955	0.107	-0.006
-352.523	-9.155	0.332	0.219
-351.508	350.879	0.044	0.087
-350.493	800.000	0.058	-0.223
-349.479	-50.855	-0.144	0.067
-348.464	-137.878	-0.447	0.049
-347.450	-123.675	0.128	0.020
-346.435	-123.465	0.137	0.021
-345.420	-5.208	0.204	0.139
-344.406	301.153	0.072	0.131
-343.391	-70.178	-0.209	-0.078
-342.377	-53.538	-0.159	0.072
-341.362	40.546	0.039	0.034
-340.348	-93.859	0.103	-0.028
-339.333	-200.000	-0.048	0.280
-338.318	197.415	-0.064	0.096
-337.304	800.000	-0.093	-0.303
-336.289	402.342	0.159	0.329
-335.275	-86.202	-0.509	0.155
-334.260	-11.862	0.177	-0.114
-333.245	-51.884	-0.133	-0.061
-332.231	-200.000	-0.004	0.026
-331.216	-70.025	0.234	-0.088
-330.202	170.050	0.094	-0.133
-329.187	108.236	0.161	-0.190
-328.172	259.734	0.071	0.121
-327.158	-64.715	-0.078	0.031
-326.143	31.484	-0.097	-0.082
-325.129	-122.687	0.172	0.027
-324.114	-161.526	-0.176	-0.009
-323.099	800.000	-0.019	-0.061
-322.085	29.514	-0.160	0.134
-321.070	432.051	0.085	-0.181
-320.056	-52.113	0.402	-0.184
-319.041	404.122	0.090	-0.187
-318.026	800.000	0.028	-0.106
-317.012	238.729	0.214	0.351
-315.997	80.253	0.085	-0.090
-314.983	-117.581	-0.272	0.048
-313.968	-12.036	-0.280	0.181
-312.953	800.000	0.071	0.274
-311.939	-30.658	-0.133	0.074
-310.924	-200.000	-0.013	0.103
-309.910	336.739	0.122	0.234
-308.895	279.632	0.081	-0.142
-307.880	-92.316	-0.395	0.110
-306.866	-167.582	-0.076	0.003
-305.851	-27.889	0.362	-0.207
-304.837	-200.000	-0.016	0.440
-303.822	-200.000	-0.004	0.329
-302.807	167.046	-0.100	0.140
-301.793	-200.000	0.008	-0.269
-300.778	-200.000	-0.015	-0.265
-299.764	53.083	0.182	0.171
-298.749	124.464	-0.133	0.165
-297.735	35.998	-0.273	0.237
-296.720	-200.000	-0.023	0.223
-295.705	89.964	0.182	0.200
-294.691	-59.576	-0.132	-0.056
-293.676	-150.431	-0.260	0.020
-292.662	8.514	-0.091	0.067
-291.647	5.183	-0.153	-0.111
-290.632	-119.081	0.361	-0.062
-289.618	-110.635	-0.314	0.064
-288.603	-33.052	-0.210	0.115
-287.589	-200.000	-0.026	-0.147
-286.574	219.900	-0.016	-0.025
-285.559	800.000	0.033	0.093
-284.545	120.962	0.147	-0.180
-283.530	-182.920	0.202	-0.004
-282.516	766.636	-0.073	-0.195
-281.501	-200.000	0.031	-0.222
-280.486	-43.470	-0.216	0.107
-279.472	287.870	-0.129	-0.230
-278.457	-180.145	0.477	-0.010
-277.443	-200.000	-0.022	-0.264
-276.428	-200.000	-0.011	0.068
-275.413	57.719	0.140	-0.135
-274.399	-2.370	-0.132	0.091
-273.384	-106.511	-0.064	-0.014
-272.370	800.000	0.043	-0.145
-271.355	104.438	-0.205	0.238
-270.340	-11.016	0.058	-0.038
-269.326	42.720	-0.272	0.244
-268.311	170.722	0.078	-0.110
-267.297	57.244	0.264	0.254
-266.282	65.032	-0.170	-0.169
-265.267	800.000	0.042	-0.115
-264.253	-200.000	-0.002	0.045
-263.238	416.957	0.030	0.063
-262.224	320.839	0.176	0.330
-261.209	800.000	0.036	0.120
-260.195	-200.000	-0.039	-0.189
-259.180	-155.070	0.202	0.013
-258.165	626.427	0.048	-0.120
-257.151	-200.000	-0.004	0.178
-256.136	-177.660	-0.087	0.002
-255.122	50.847	0.218	-0.204
-254.107	494.551	0.082	0.185
-253.092	-39.209	-0.192	-0.099
-252.078	-6.449	0.242	0.163
-251.063	-184.891	-0.181	-0.003
-250.049	-200.000	0.022	0.221
-249.034	297.958	0.095	-0.173
-248.019	530.908	0.059	-0.137
-247.005	-52.388	-0.170	-0.077
-245.990	-200.000	0.052	0.276
-244.976	361.519	0.072	-0.142
-243.961	-158.792	0.282	-0.016
-242.946	-3.002	-0.076	-0.052
-241.932	-88.487	0.189	0.055
-240.917	200.080	-0.146	-0.221
-239.903	137.181	-0.192	0.247
-238.888	800.000	-0.056	-0.168
-237.873	220.026	-0.049	0.077
-236.859	-200.000	0.037	0.272
-235.844	-196.349	-0.241	-0.002
-234.830	-65.904	-0.155	-0.061
-233.815	124.883	0.241	-0.299
-232.800	-200.000	-0.002	-0.060
-231.786	-13.555	-0.130	0.083
-230.771	5.215	0.098	-0.071
-229.757	201.965	-0.128	0.194
-228.742	321.861	0.068	-0.128
-227.727	-24.663	-0.125	0.073
-226.713	-200.000	-0.037	-0.416
-225.698	334.506	-0.111	0.211
-224.684	-125.759	0.437	-0.065
-223.669	-96.409	-0.191	0.050
-222.655	330.347	0.068	0.130
-221.640	-74.249	0.075	0.027
-220.625	-45.227	0.251	0.122
-219.611	-14.278	0.139	-0.088
-218.596	-200.000	0.006	0.207
-217.582	260.648	-0.011	0.019
-216.567	-200.000	0.298	-0.000
-215.552	-80.075	-0.298	0.098
-214.538	687.603	0.039	-0.101
-213.523	127.500	0.017	0.021
-212.509	473.837	0.113	-0.249
-211.494	25.002	-0.067	-0.055
-210.479	18.248	0.190	-0.149
-209.465	-200.000	0.007	-0.061
-208.450	-133.611	-0.393	0.048
-207.436	89.003	0.130	0.143
-206.421	-174.368	-0.100	-0.003
-205.406	63.504	0.184	0.181
-204.392	-200.000	0.006	0.246
-203.377	-41.388	0.052	-0.026
-202.363	-97.438	-0.136	-0.035
-201.348	-200.000	-0.015	0.346
-200.333	155.253	0.168	0.227
-199.319	-71.160	-0.157	0.058
-198.304	51.177	-0.033	0.031
-197.290	-136.200	-0.037	-0.004
-196.275	-123.579	-0.273	-0.043
-195.260	684.356	-0.031	0.080
-194.246	3.449	-0.273	-0.195
-193.231	-70.183	-0.218	-0.081
-192.217	-86.736	0.254	-0.076
-191.202	-191.762	-0.474	-0.005
-190.187	-16.341	-0.088	0.055
-189.173	-200.000	-0.002	-0.059
-188.158	-136.972	-0.195	0.022
-187.144	-200.000	0.063	-0.421
-186.129	-163.842	-0.107	-0.005
-185.114	4.943	-0.072	0.052
-184.100	800.000	-0.057	-0.164
-183.085	-153.054	0.170	-0.012
-182.071	36.580	-0.125	0.108
-181.056	-89.975	0.033	-0.009
-180.042	35.937	-0.241	0.208
-179.027	-74.088	0.271	0.096
-178.012	415.989	0.217	0.454
-176.998	-200.000	0.043	-0.310
-175.983	-135.921	0.208	0.024
-174.969	54.602	0.117	-0.111
-173.954	-200.000	0.015	0.159
-172.939	-64.276	-0.398	0.159
-171.925	108.088	-0.212	-0.248
-170.910	-86.313	0.149	0.045
-169.896	230.861	0.172	-0.276
-168.881	-96.761	0.225	-0.058
-167.866	93.176	-0.205	0.227
-166.852	184.254	-0.097	0.141
-165.837	-110.908	0.048	0.010
-164.823	-200.000	0.032	0.288
-163.808	410.875	-0.134	-0.279
-162.793	410.227	0.155	-0.322
-161.779	-69.657	0.419	0.157
-160.764	-18.586	0.174	0.106
-159.750	-0.946	0.147	0.102
-158.735	28.101	0.371	-0.307
-157.720	-200.000	0.010	0.133
-156.706	248.187	-0.223	0.369
-155.691	-39.218	0.134	0.069
-154.677	800.000	0.033	-0.092
-153.662	-40.132	0.232	-0.118
-152.647	527.700	0.054	0.124
-151.633	-96.901	0.122	-0.031
-150.618	800.000	0.016	0.064
-149.604	-5.464	0.214	0.144
-148.589	656.179	0.083	-0.208
-147.574	270.090	0.116	-0.200
-146.560	575.572	0.059	0.141
-145.545	-200.000	0.032	0.198
-144.531	261.547	-0.212	-0.361
-143.516	-30.304	-0.085	-0.047
-142.502	-200.000	0.019	0.114
-141.487	11.810	-0.236	0.178
-140.472	184.841	-0.071	0.104
-139.458	-139.867	-0.217	-0.023
-138.443	-158.669	0.322	0.018
-137.429	449.577	0.068	-0.147
-136.414	-86.340	0.086	0.026
-135.399	-74.252	-0.082	0.029
-134.385	800.000	-0.099	0.291
-133.370	-200.000	0.101	0.446
-132.356	-200.000	-0.008	0.211
-131.341	-68.842	-0.509	0.192
-130.326	94.370	-0.111	0.123
-129.312	50.791	-0.070	-0.065
-128.297	-200.000	-0.003	-0.071
-127.283	789.158	-0.059	-0.159
-126.268	-61.906	-0.278	0.114
-125.253	68.228	0.325	0.326
-124.239	-142.004	0.383	-0.037
-123.224	-149.389	-0.110	0.009
-122.210	181.374	-0.063	0.091
-121.195	54.029	-0.137	0.129
-120.180	-53.238	0.328	0.147
-119.166	317.828	-0.057	0.105
-118.151	800.000	-0.052	0.196
-117.137	-200.000	-0.024	0.110
-116.122	-199.205	0.257	0.001
-115.107	-59.422	0.140	-0.059
-114.093	331.148	0.100	-0.189
-113.078	4.762	0.236	-0.170
-112.064	800.000	-0.016	-0.067
-111.049	-25.967	0.137	-0.079
-110.034	-98.316	0.128	0.032
-109.020	-80.546	0.259	0.084
-108.005	-200.000	0.010	0.159
-106.991	4.343	0.209	0.150
-105.976	202.296	-0.104	0.156
-104.962	800.000	0.026	-0.102
-103.947	-200.000	0.017	-0.428
-102.932	278.686	0.029	0.051
-101.918	-200.000	-0.206	-0.000
-100.903	-58.604	0.146	0.062
-99.889	-145.190	-0.162	-0.014
-98.874	-43.545	0.128	0.063
-97.859	-26.915	-0.115	-0.066
-96.845	623.534	-0.090	0.222
-95.830	-200.000	0.090	0.392
-94.816	19.157	0.341	0.268
-93.801	800.000	-0.077	-0.300
-92.786	139.993	0.168	-0.216
-91.772	4.100	-0.100	-0.071
-90.757	-29.060	0.128	-0.072
-89.743	800.000	0.057	0.174
-88.728	100.868	-0.023	-0.026
-87.713	-20.924	0.377	0.226
-86.699	-128.224	0.086	0.012
-85.684	26.941	0.152	-0.125
-84.670	-30.908	0.183	-0.101
-83.655	-94.093	0.156	-0.042
-82.640	47.882	0.134	-0.123
-81.626	-200.000	-0.022	-0.122
-80.611	-120.138	0.248	-0.042
-79.597	-21.049	-0.148	-0.088
-78.582	-111.730	-0.249	-0.049
-77.567	-200.000	-0.003	-0.118
-76.553	243.300	-0.104	0.170
-75.538	-120.842	0.172	0.028
-74.524	486.235	-0.011	-0.026
-73.509	28.193	0.202	0.167
-72.494	313.337	0.117	0.215
-71.480	50.281	-0.089	0.082
-70.465	292.646	0.011	0.020
-69.451	210.320	-0.132	0.203
-68.436	15.236	-0.206	0.157
-67.422	-118.090	0.114	-0.020
-66.407	-200.000	-0.014	-0.323
-65.392	-8.747	-0.258	-0.169
-64.378	-167.415	0.265	0.010
-63.363	38.970	0.219	-0.191
-62.349	-200.000	-0.010	0.232
-61.334	43.657	-1.179	-1.053
-60.319	-25.965	0.695	0.400
-59.305	800.000	-0.368	-1.134
-58.290	800.000	0.385	1.211
-57.276	286.210	0.641	1.130
-56.261	-200.000	115.906	644.970
-55.246	503.945	1537.643	3474.114
-54.232	175.314	2715.531	3842.442
-53.217	98.717	2290.410	2580.277
-52.203	35.480	1899.079	1627.563
-51.188	29.564	1693.167	1406.150
-50.173	27.178	1651.938	1354.105
-49.159	47.315	1709.383	1554.425
-48.144	46.027	1723.055	1557.037
-47.130	29.205	1679.600	1391.946
-46.115	26.575	1666.034	1360.911
-45.100	26.382	1661.011	1355.306
-44.086	26.383	1658.449	1353.166
-43.071	26.480	1655.403	1351.352
-42.057	26.349	1653.457	1348.738
-41.042	26.388	1651.501	1347.376
-40.027	26.402	1649.403	1345.712
-39.013	26.326	1647.783	1343.773
-37.998	26.323	1646.113	1342.335
-36.984	26.411	1644.747	1341.822
-35.969	26.443	1643.297	1340.828
-34.954	26.503	1641.762	1339.961
-33.940	26.518	1640.049	1338.621
-32.925	26.461	1637.979	1336.456
-31.911	26.566	1636.368	1335.864
-30.896	26.441	1634.607	1333.453
-29.881	26.463	1633.292	1332.493
-28.867	26.485	1631.786	1331.371
-27.852	26.488	1630.336	1330.155
-26.838	26.446	1629.059	1328.758
-25.823	26.562	1627.317	1328.133
-24.809	26.524	1626.621	1327.234
-23.794	26.504	1624.694	1325.462
-22.779	26.481	1623.775	1324.487
-21.765	26.501	1621.211	1322.490
-20.750	26.497	1619.921	1321.358
-19.736	26.549	1618.695	1320.689
-18.721	26.585	1617.056	1319.556
-17.706	26.557	1615.622	1318.133
-16.692	26.495	1614.033	1316.335
-15.677	26.593	1612.258	1315.541
-14.663	26.614	1611.165	1314.756
-13.648	26.497	1610.218	1313.080
-12.633	26.613	1608.392	1312.382
-11.619	26.512	1606.961	1310.428
-10.604	26.548	1605.175	1309.178
-9.590	26.616	1603.522	1308.267
-8.575	26.585	1602.598	1307.244
-7.560	26.509	1601.628	1305.852
-6.546	26.432	1600.841	1304.604
-5.531	26.601	1598.785	1304.087
-4.517	26.500	1598.489	1303.072
-3.502	26.499	1597.216	1301.974
-2.487	26.602	1595.418	1301.194
-1.473	26.196	1583.968	1288.909
-0.458	23.389	1564.626	1253.300
0.556	20.837	1566.104	1223.174
1.571	18.512	1590.404	1225.441
2.586	18.187	1602.417	1232.246
3.600	15.955	1546.900	1173.907
4.615	9.272	1439.575	1048.890
5.629	4.024	1380.913	973.141
6.644	3.158	1373.404	962.350
7.659	3.137	1372.050	961.185
8.673	3.125	1371.136	960.379
9.688	3.250	1369.496	959.926
10.702	3.163	1366.234	957.014
11.717	5.755	1370.878	976.344
12.731	12.887	1384.512	1030.692
13.746	19.014	1394.276	1076.322
14.761	20.367	1395.999	1086.022
15.775	19.675	1394.432	1080.384
16.790	18.790	1390.997	1072.108
17.804	17.910	1388.840	1064.860
18.819	17.655	1388.148	1062.646
19.834	17.482	1386.532	1060.240
20.848	17.204	1385.743	1057.811
21.863	17.117	1384.078	1055.903
22.877	16.953	1383.306	1054.201
23.892	17.003	1381.925	1053.369
24.907	17.003	1381.142	1052.677
25.921	16.951	1380.588	1051.841
26.936	16.904	1379.923	1050.947
27.950	16.997	1378.682	1050.485
28.965	17.133	1377.278	1050.163
29.980	17.271	1376.230	1050.124
30.994	17.186	1375.557	1048.997
32.009	17.358	1374.036	1048.801
33.023	17.219	1373.545	1047.481
34.038	17.215	1371.630	1045.901
35.053	17.097	1370.469	1044.197
36.067	17.080	1369.495	1043.256
37.082	17.166	1368.126	1042.654
38.096	17.238	1367.436	1042.474
39.111	17.263	1366.725	1041.993
40.126	17.209	1365.792	1040.856
41.140	16.876	1364.861	1038.017
42.155	16.739	1364.381	1036.726
43.169	16.714	1364.021	1036.208
44.184	16.672	1363.837	1035.716
45.199	16.753	1363.377	1035.771
46.213	16.825	1362.731	1035.632
47.228	17.141	1361.853	1036.801
48.242	17.064	1360.707	1035.364
49.257	16.998	1359.446	1033.911
50.271	17.006	1357.899	1032.691
51.286	17.036	1356.254	1031.534
52.301	17.080	1355.128	1030.852
53.315	16.969	1353.951	1029.192
54.330	16.958	1352.588	1027.998
55.344	16.815	1351.775	1026.421
56.359	16.836	1351.051	1025.909
57.374	16.750	1350.509	1024.890
58.388	16.727	1349.060	1023.560
59.403	16.679	1349.147	1023.245
60.417	16.621	1347.832	1021.806
61.432	16.635	1346.944	1021.128
62.447	16.551	1345.822	1019.678
63.461	16.520	1344.758	1018.598
64.476	16.582	1343.692	1018.073
65.490	16.528	1342.506	1016.758
66.505	16.626	1340.511	1015.743
67.520	16.560	1339.839	1014.750
68.534	16.581	1338.963	1014.126
69.549	16.634	1337.470	1013.218
70.563	16.519	1336.683	1011.844
71.578	16.378	1335.428	1009.965
72.593	16.445	1334.509	1009.580
73.607	16.420	1333.744	1008.762
74.622	16.373	1333.117	1007.918
75.636	16.446	1332.305	1007.649
76.651	16.506	1331.637	1007.413
77.666	16.468	1331.228	1006.790
78.680	16.460	1330.768	1006.305
79.695	16.539	1329.988	1006.097
80.709	16.694	1328.799	1006.025
81.724	16.810	1328.770	1006.608
82.739	16.716	1327.925	1005.317
83.753	16.926	1326.833	1005.647
84.768	17.026	1326.287	1005.741
85.782	17.177	1324.871	1005.471
86.797	17.193	1323.532	1004.461
87.812	17.004	1322.496	1002.465
88.826	17.041	1321.214	1001.627
89.841	17.053	1320.234	1000.862
90.855	17.234	1319.047	1000.943
91.870	17.100	1318.541	999.678
92.884	17.141	1317.631	999.146
93.899	17.177	1316.944	998.747
94.914	17.224	1315.935	998.168
95.928	17.254	1315.231	997.724
96.943	17.204	1314.475	996.768
97.957	17.096	1313.404	995.235
98.972	17.147	1312.051	994.421
99.987	17.146	1311.218	993.692
101.001	17.167	1310.267	993.008
102.016	17.051	1309.529	991.684
103.030	17.250	1308.114	991.685
104.045	17.142	1307.435	990.454
105.060	16.973	1306.195	988.440
106.074	16.651	1304.860	985.471
107.089	16.617	1303.222	983.946
108.103	16.615	1302.024	982.945
109.118	16.634	1300.226	981.611
110.133	16.671	1299.060	980.856
111.147	16.575	1298.030	979.440
112.162	16.715	1296.775	979.214
113.176	16.782	1295.186	978.315
114.191	16.850	1294.320	977.966
115.206	16.852	1293.423	977.213
116.220	16.765	1292.560	975.973
117.235	16.793	1291.105	974.949
118.249	16.720	1290.197	973.755
119.264	16.743	1288.946	972.861
120.279	16.678	1287.808	971.539
121.293	16.589	1286.997	970.330
122.308	16.489	1285.783	968.761
123.322	16.436	1284.742	967.585
124.337	16.497	1283.466	966.885
125.352	16.582	1281.989	966.173
126.366	16.476	1281.344	964.995
127.381	16.546	1280.304	964.531
128.395	16.435	1279.679	963.339
129.410	16.539	1278.607	963.041
130.424	16.613	1277.680	962.674
131.439	16.679	1276.697	962.228
132.454	16.653	1275.946	961.429
133.468	16.864	1274.845	961.708
134.483	16.715	1274.556	960.560
135.497	16.717	1273.399	959.614
136.512	16.690	1272.091	958.393
137.527	16.906	1270.633	958.433
138.541	16.608	1270.001	956.188
139.556	16.824	1268.234	955.989
140.570	16.994	1267.418	956.247
141.585	17.111	1265.667	955.502
142.600	17.154	1265.026	955.176
143.614	17.217	1264.363	954.941
144.629	17.232	1263.354	954.181
145.643	17.155	1262.083	952.705
146.658	17.010	1260.744	950.798
147.673	16.920	1259.603	949.348
148.687	16.838	1258.153	947.713
149.702	16.841	1256.558	946.447
150.716	16.742	1255.662	945.133
151.731	16.833	1253.942	944.262
152.746	16.825	1253.290	943.644
153.760	17.042	1252.030	943.818
154.775	17.100	1251.048	943.318
155.789	16.917	1250.051	941.466
156.804	17.098	1249.482	941.959
157.819	17.146	1247.995	941.018
158.833	17.133	1247.661	940.612
159.848	17.337	1246.523	940.798
160.862	17.145	1245.808	939.117
161.877	17.070	1243.987	937.246
162.892	16.915	1243.181	935.698
163.906	16.793	1242.598	934.504
164.921	16.808	1241.407	933.609
165.935	16.981	1240.700	933.947
166.950	17.003	1239.936	933.413
167.964	16.938	1238.942	932.222
168.979	17.050	1237.987	932.035
169.994	16.975	1237.808	931.408
171.008	17.108	1236.327	930.940
172.023	17.146	1236.070	930.874
173.037	17.329	1235.124	931.082
174.052	17.269	1234.222	929.989
175.067	16.997	1233.117	927.587
176.081	16.897	1231.913	926.055
177.096	16.988	1231.090	925.849
178.110	17.004	1230.052	925.076
179.125	17.019	1229.033	924.311
180.140	17.139	1227.539	923.757
181.154	17.138	1226.704	923.038
182.169	17.219	1225.556	922.537
183.183	17.372	1224.465	922.462
184.198	17.339	1223.403	921.402
185.213	17.415	1221.886	920.591
186.227	17.415	1221.298	920.062
187.242	17.410	1220.271	919.183
188.256	17.473	1219.265	918.682
189.271	17.449	1218.552	917.933
190.286	17.289	1216.903	915.750
191.300	16.936	1216.498	913.464
192.315	16.924	1215.375	912.474
193.329	16.941	1214.974	912.183
194.344	16.942	1214.684	911.892
195.359	17.118	1214.229	912.412
196.373	17.158	1213.678	912.133
197.388	17.377	1212.869	912.619
198.402	17.463	1212.785	912.939
199.417	17.556	1211.964	912.736
200.432	17.613	1211.213	912.395
201.446	17.696	1210.782	912.433
202.461	17.636	1209.791	911.290
203.475	17.732	1208.420	910.686
204.490	17.638	1207.115	909.123
205.504	17.458	1206.051	907.278
206.519	17.402	1205.017	906.124
207.534	17.340	1203.891	904.866
208.548	17.445	1203.075	904.733
209.563	17.504	1202.127	904.250
210.577	17.511	1201.058	903.405
211.592	17.577	1200.512	903.264
212.607	17.688	1199.803	903.241
213.621	17.741	1198.593	902.528
214.636	17.675	1197.384	901.191
215.650	17.705	1196.992	900.975
216.665	17.719	1195.916	900.158
217.680	17.822	1195.086	899.996
218.694	17.830	1194.595	899.590
219.709	17.921	1193.181	898.923
220.723	17.801	1193.273	898.280
221.738	17.820	1192.571	897.772
222.753	17.745	1191.354	896.383
223.767	17.832	1190.869	896.399
224.782	17.930	1190.158	896.295
225.796	18.022	1189.565	896.256
226.811	17.963	1188.673	895.191
227.826	17.900	1188.169	894.403
228.840	17.879	1187.278	893.547
229.855	17.828	1186.402	892.538
230.869	17.836	1185.354	891.714
231.884	17.795	1184.548	890.814
232.899	17.689	1183.701	889.546
233.913	17.616	1183.360	888.828
234.928	17.720	1182.215	888.431
235.942	17.609	1181.555	887.282
236.957	17.598	1181.069	886.779
237.972	17.626	1179.932	885.994
238.986	17.544	1179.588	885.232
240.001	17.796	1178.494	885.642
241.015	17.640	1178.076	884.438
242.030	17.789	1176.858	884.215
243.045	17.781	1176.216	883.615
244.059	17.954	1175.613	883.978
245.074	17.980	1174.783	883.410
246.088	17.965	1173.986	882.657
247.103	18.144	1173.042	882.795
248.117	18.111	1172.694	882.284
249.132	18.306	1172.039	882.716
250.147	18.427	1171.516	882.869
251.161	18.590	1170.950	883.205
252.176	18.548	1170.333	882.446
253.190	18.584	1169.762	882.118
254.205	18.640	1168.958	881.723
255.220	18.543	1168.617	880.891
256.234	18.637	1167.944	880.787
257.249	18.582	1166.725	879.509
258.263	18.589	1166.324	879.163
259.278	18.648	1165.270	878.595
260.293	18.651	1165.473	878.685
261.307	18.733	1164.769	878.499
262.322	18.653	1164.052	877.469
263.336	18.752	1163.080	877.166
264.351	18.723	1162.875	876.784
265.366	18.732	1161.932	876.039
266.380	18.716	1161.123	875.273
267.395	18.714	1160.063	874.387
268.409	18.654	1159.752	873.765
269.424	18.590	1158.844	872.681
270.439	18.662	1158.138	872.438
271.453	18.551	1157.338	871.197
272.468	18.435	1156.480	869.884
273.482	18.485	1155.636	869.422
274.497	18.517	1155.047	869.068
275.512	18.597	1153.824	868.473
276.526	18.663	1153.544	868.521
277.541	18.647	1152.887	867.866
278.555	18.584	1152.155	866.922
279.570	18.713	1151.546	867.037
280.585	18.854	1150.767	867.087
281.599	18.894	1149.468	866.235
282.614	18.713	1148.741	864.697
283.628	18.709	1148.077	864.102
284.643	18.718	1146.793	863.102
285.657	18.690	1146.041	862.318
286.672	18.764	1144.692	861.601
287.687	18.687	1144.246	860.799
288.701	18.728	1143.423	860.311
289.716	18.818	1142.449	859.952
290.730	18.756	1141.923	859.171
291.745	18.745	1141.525	858.742
292.760	18.762	1141.024	858.373
293.774	18.965	1140.139	858.645
294.789	18.928	1139.827	858.149
295.803	18.955	1138.977	857.567
296.818	18.803	1138.268	856.203
297.833	18.852	1137.479	855.776
298.847	18.846	1136.534	854.960
299.862	18.847	1136.029	854.510
300.876	18.969	1134.994	854.261
301.891	18.933	1134.420	853.573
302.906	19.145	1133.530	853.879
303.920	19.227	1133.349	854.074
304.935	19.176	1133.006	853.487
305.949	19.349	1132.284	853.725
306.964	19.392	1131.595	853.344
307.979	19.223	1130.517	851.619
308.993	19.075	1130.353	850.687
310.008	19.222	1129.141	850.425
311.022	19.305	1128.565	850.328
312.037	19.246	1127.241	848.964
313.052	19.123	1126.239	847.531
314.066	19.019	1125.420	846.327
315.081	19.030	1124.464	845.584
316.095	18.978	1123.813	844.769
317.110	19.087	1122.764	844.437
318.125	18.971	1122.105	843.300
319.139	18.924	1121.733	842.715
320.154	19.011	1120.931	842.461
321.168	18.955	1120.263	841.611
322.183	19.081	1119.977	841.940
323.197	19.061	1119.318	841.274
324.212	19.086	1118.598	840.780
325.227	19.081	1117.712	840.013
326.241	19.099	1117.526	839.887
327.256	19.098	1116.541	839.068
328.270	18.961	1115.640	837.650
329.285	19.030	1114.839	837.312
330.300	19.033	1113.782	836.455
331.314	19.082	1113.008	836.038
332.329	19.026	1112.210	835.093
333.343	19.041	1110.976	834.165
334.358	19.157	1110.371	834.200
335.373	19.287	1109.501	834.104
336.387	19.307	1108.905	833.676
337.402	19.381	1107.909	833.215
338.416	19.429	1107.656	833.180
339.431	19.434	1107.122	832.729
340.446	19.568	1106.203	832.607
341.460	19.556	1105.868	832.226
342.475	19.727	1104.734	832.124
343.489	19.704	1104.430	831.710
344.504	19.748	1103.200	830.922
345.519	19.693	1102.298	829.906
346.533	19.746	1101.638	829.590
347.548	19.816	1100.971	829.347
348.562	19.815	1099.867	828.440
349.577	19.652	1099.446	827.268
350.592	19.617	1098.324	826.184
351.606	19.544	1097.650	825.253
352.621	19.472	1096.734	824.149
353.635	19.394	1096.536	823.553
354.650	19.508	1095.768	823.448
355.665	19.523	1094.861	822.767
356.679	19.702	1093.860	822.794
357.694	19.613	1093.781	822.236
358.708	19.641	1093.014	821.722
359.723	19.695	1092.694	821.662
360.738	19.684	1091.761	820.838
361.752	19.788	1091.305	820.916
362.767	19.715	1090.941	820.221
363.781	19.780	1090.121	819.844
364.796	19.833	1089.410	819.485
365.810	19.907	1088.789	819.295
366.825	20.020	1088.494	819.534
367.840	20.188	1088.039	819.916
368.854	20.237	1087.153	819.407
369.869	20.234	1086.648	818.942
370.883	20.097	1085.765	817.555
371.898	20.057	1085.089	816.784
372.913	20.097	1084.110	816.165
373.927	20.056	1084.126	815.913
374.942	20.148	1083.361	815.698
375.956	20.069	1083.139	815.083
376.971	20.184	1082.171	814.826
377.986	20.224	1081.508	814.440
379.000	20.297	1080.978	814.311
380.015	20.311	1080.353	813.837
381.029	20.434	1079.779	813.906
382.044	20.439	1079.224	813.441
383.059	20.323	1078.684	812.421
384.073	20.342	1077.860	811.814
385.088	20.404	1076.829	811.255
386.102	20.414	1075.637	810.335
387.117	20.111	1074.582	808.055
388.132	20.156	1073.672	807.507
389.146	20.078	1073.308	806.798
390.161	20.210	1072.252	806.548
391.175	20.179	1071.352	805.656
392.190	20.288	1070.763	805.647
393.205	20.306	1070.227	805.259
394.219	20.298	1069.372	804.506
395.234	20.266	1068.460	803.601
396.248	20.287	1067.438	802.859
397.263	20.162	1066.819	801.741
398.278	20.120	1065.926	800.806
399.292	20.147	1064.599	799.865
400.307	20.090	1064.422	799.396
401.321	20.106	1063.778	798.918
402.336	20.131	1063.065	798.425
403.350	20.151	1062.167	797.774
404.365	20.061	1061.752	796.976
405.380	20.254	1060.786	797.065
406.394	20.319	1059.983	796.691
407.409	20.281	1059.665	796.209
408.423	20.484	1058.846	796.452
409.438	20.595	1058.113	796.340
410.453	20.568	1057.588	795.748
411.467	20.580	1057.058	795.337
412.482	20.605	1056.146	794.695
413.496	20.718	1055.763	794.851
414.511	20.810	1054.954	794.590
415.526	20.948	1054.608	794.889
416.540	20.859	1054.566	794.381
417.555	20.865	1053.743	793.719
418.569	20.836	1052.953	792.920
419.584	20.786	1052.578	792.339
420.599	20.809	1052.367	792.218
421.613	155.678	1404.164	1797.318
422.628	142.849	1455.393	1797.425
