DTS Sentinel unit serial number:	SN413079Multiplexer serial number:	ORYXHardware model number:	OX4-SRSoftware version number:	ORYX F/W v4.00 Oryx Data Collector v3.7.2.0data status	okinstallation	princeton_trtdifferential loss correction	single-endedforward channel	channel 2reverse channel	N/Adate	2019/09/13time	12:51:35forward acquisition time	60.00reverse acquisition time	0.00gamma	496.2192k internal	0.2315k external	0.2315temperature offset calibration	1.0213default loss term (dB/km)	0.3790temperature slope calibration	1.0000multiplexer offset coefficient	1.0000multiplexer slope coefficient	1.0000fibre end	0.00T internal ref (°C)	34.75T ext. ref 1 (°C)	4.57T ext. ref 2 (°C)	30.41length (m)	temperature (°C)	Stokes	anti-Stokes-747.200	69.131	0.156	0.163
-746.185	-65.822	0.290	0.118
-745.171	-111.535	0.178	-0.037
-744.156	-139.961	-0.383	0.041
-743.142	-83.641	0.130	0.042
-742.127	-200.000	-0.002	-0.132
-741.112	-78.547	0.495	-0.172
-740.098	-33.569	-0.077	-0.043
-739.083	458.259	0.029	-0.066
-738.069	127.223	0.284	0.366
-737.054	-64.014	-0.081	-0.034
-736.039	1.523	0.101	-0.074
-735.025	787.697	0.075	-0.209
-734.010	-84.928	-0.179	-0.057
-732.996	-200.000	-0.036	-0.178
-731.981	-80.703	-0.244	-0.082
-730.966	-138.054	-0.257	-0.029
-729.952	-86.720	-0.365	-0.113
-728.937	-113.295	-0.347	-0.069
-727.923	-47.965	0.100	0.049
-726.908	800.000	0.085	-0.332
-725.894	39.471	0.201	0.183
-724.879	-200.000	0.008	0.265
-723.864	-200.000	0.010	0.115
-722.850	-18.918	-0.240	-0.151
-721.835	-35.961	-0.214	0.117
-720.821	66.728	0.129	0.133
-719.806	727.458	0.074	0.200
-718.791	-32.584	-0.422	0.238
-717.777	-52.490	-0.159	-0.075
-716.762	800.000	-0.045	0.151
-715.748	775.064	0.067	-0.186
-714.733	-12.083	0.257	-0.171
-713.718	-58.963	-0.301	0.132
-712.704	176.407	0.203	-0.299
-711.689	-149.448	0.231	0.019
-710.675	592.016	0.072	0.179
-709.660	392.109	-0.087	-0.183
-708.645	-200.000	-0.020	-0.200
-707.631	125.229	-0.177	0.226
-706.616	-134.478	-0.296	-0.037
-705.602	-97.058	-0.416	-0.110
-704.587	-52.189	0.150	-0.071
-703.572	246.158	0.012	-0.020
-702.558	-116.228	-0.194	0.036
-701.543	-200.000	0.016	-0.086
-700.529	800.000	-0.094	0.275
-699.514	800.000	-0.047	-0.143
-698.499	71.307	-0.244	-0.256
-697.485	-13.904	0.112	-0.073
-696.470	252.034	0.068	-0.118
-695.456	-88.103	-0.112	0.034
-694.441	800.000	0.011	-0.034
-693.426	-81.488	0.121	0.040
-692.412	75.349	-0.195	0.209
-691.397	-70.534	-0.118	0.045
-690.383	-22.033	0.335	0.205
-689.368	15.912	-0.202	-0.161
-688.354	-43.945	0.212	0.108
-687.339	329.827	0.075	0.147
-686.324	-23.837	0.085	0.052
-685.310	800.000	0.118	0.362
-684.295	321.935	-0.138	0.265
-683.281	95.305	-0.220	-0.254
-682.266	-10.479	-0.260	-0.174
-681.251	67.902	0.065	-0.067
-680.237	-109.024	-0.167	0.036
-679.222	-200.000	0.028	-0.153
-678.208	138.063	-0.057	0.076
-677.193	-164.093	0.162	0.008
-676.178	-100.396	-0.131	0.033
-675.164	-200.000	-0.027	0.245
-674.149	-164.072	0.276	-0.013
-673.135	-76.655	-0.219	0.078
-672.120	128.751	0.085	0.110
-671.105	800.000	0.021	-0.061
-670.091	-40.896	0.196	0.102
-669.076	252.585	0.165	-0.285
-668.062	-21.445	-0.033	-0.020
-667.047	-158.858	0.382	0.022
-666.032	-159.665	0.072	-0.004
-665.018	-200.000	0.023	0.300
-664.003	602.515	-0.083	0.209
-662.989	-200.000	-0.024	-0.358
-661.974	197.574	-0.117	-0.180
-660.959	-40.516	-0.446	-0.234
-659.945	-46.289	-0.375	0.186
-658.930	800.000	-0.103	-0.429
-657.916	114.634	-0.174	0.214
-656.901	48.550	0.186	-0.176
-655.886	-125.397	-0.493	0.076
-654.872	14.022	0.157	0.124
-653.857	-43.678	-0.075	0.038
-652.843	544.495	0.070	-0.168
-651.828	232.490	0.249	0.413
-650.814	169.990	-0.086	0.124
-649.799	24.228	-0.171	0.143
-648.784	-200.000	0.010	0.130
-647.770	-81.973	0.150	0.050
-646.755	-200.000	0.055	0.337
-645.741	-118.324	-0.280	-0.050
-644.726	97.656	-0.155	-0.180
-643.711	128.590	0.165	-0.212
-642.697	-80.852	-0.188	-0.063
-641.682	800.000	-0.064	0.182
-640.668	-45.463	0.148	0.074
-639.653	-56.859	0.180	-0.080
-638.638	166.767	-0.112	0.161
-637.624	85.140	-0.310	-0.343
-636.609	-58.547	0.253	0.111
-635.595	276.948	-0.117	0.210
-634.580	-64.543	0.147	0.060
-633.565	800.000	-0.076	-0.318
-632.551	-75.099	-0.384	0.139
-631.536	-91.574	0.197	0.057
-630.522	163.415	0.280	-0.397
-629.507	729.991	0.136	-0.366
-628.492	250.778	-0.158	0.271
-627.478	53.544	0.211	0.204
-626.463	-148.313	-0.226	0.019
-625.449	800.000	0.205	0.631
-624.434	-200.000	-0.009	-0.066
-623.419	413.998	0.043	-0.092
-622.405	-58.396	-0.218	0.095
-621.390	-48.112	-0.202	0.098
-620.376	-71.838	-0.137	-0.051
-619.361	-100.945	0.044	-0.011
-618.346	40.575	-0.346	-0.315
-617.332	16.019	-0.242	0.192
-616.317	-200.000	0.023	-0.137
-615.303	-161.944	0.235	0.012
-614.288	154.803	-0.101	0.140
-613.273	-99.756	0.317	0.080
-612.259	73.645	-0.116	0.123
-611.244	800.000	-0.080	0.239
-610.230	-149.275	-0.203	-0.016
-609.215	-200.000	0.002	-0.126
-608.201	-96.728	0.296	-0.078
-607.186	275.377	0.103	-0.184
-606.171	800.000	0.087	0.273
-605.157	-200.000	0.011	0.118
-604.142	-68.169	0.253	-0.099
-603.128	-200.000	-0.002	-0.047
-602.113	-110.356	-0.212	-0.044
-601.098	199.913	-0.157	0.243
-600.084	119.110	0.228	-0.285
-599.069	92.406	-0.129	-0.147
-598.055	-72.412	-0.309	-0.115
-597.040	-83.847	-0.301	-0.097
-596.025	-200.000	0.037	0.306
-595.011	-200.000	0.002	0.305
-593.996	-200.000	-0.041	-0.401
-592.982	-200.000	-0.007	-0.184
-591.967	50.333	-0.168	-0.160
-590.952	296.783	0.028	0.051
-589.938	-43.142	-0.288	0.147
-588.923	-94.721	0.277	0.076
-587.909	-118.700	-0.110	-0.020
-586.894	-78.645	0.187	0.064
-585.879	-115.407	0.273	-0.052
-584.865	800.000	0.140	-0.423
-583.850	800.000	-0.016	-0.067
-582.836	85.700	-0.191	-0.211
-581.821	9.405	-0.212	-0.162
-580.806	147.092	-0.057	-0.077
-579.792	-90.988	-0.153	0.044
-578.777	208.890	0.153	0.242
-577.763	-42.187	-0.092	0.048
-576.748	620.494	0.051	-0.129
-575.733	-39.590	0.076	-0.040
-574.719	-200.000	-0.014	0.108
-573.704	-88.093	0.285	-0.086
-572.690	-112.514	-0.388	0.078
-571.675	-107.546	-0.157	0.035
-570.661	-126.815	0.293	0.043
-569.646	234.443	0.040	-0.066
-568.631	800.000	-0.011	-0.045
-567.617	191.273	0.271	0.410
-566.602	-25.933	-0.149	-0.088
-565.588	521.624	0.054	-0.128
-564.573	-200.000	0.001	0.141
-563.558	-200.000	0.023	-0.168
-562.544	800.000	-0.019	-0.057
-561.529	-200.000	-0.024	-0.318
-560.515	-106.559	0.103	-0.023
-559.500	105.833	0.185	-0.220
-558.485	-79.849	0.108	-0.037
-557.471	-82.468	0.137	-0.045
-556.456	112.915	0.079	-0.096
-555.442	-200.000	0.020	-0.343
-554.427	-3.720	0.455	0.318
-553.412	45.628	0.088	0.081
-552.398	109.978	-0.294	-0.354
-551.383	-200.000	0.042	0.243
-550.369	-200.000	-0.033	0.176
-549.354	199.003	-0.148	-0.229
-548.339	32.336	0.141	-0.123
-547.325	247.291	0.141	0.239
-546.310	468.521	0.122	0.276
-545.296	-143.132	0.141	0.014
-544.281	800.000	-0.084	-0.270
-543.266	53.105	-0.280	-0.269
-542.252	-109.543	0.113	0.024
-541.237	800.000	0.040	0.147
-540.223	-200.000	0.059	0.348
-539.208	207.195	0.072	-0.113
-538.193	-84.226	0.510	0.163
-537.179	-24.677	-0.129	-0.077
-536.164	-111.758	-0.140	0.028
-535.150	-200.000	-0.006	0.134
-534.135	113.433	-0.183	0.223
-533.121	377.566	-0.032	-0.065
-532.106	-65.005	-0.285	0.116
-531.091	-113.109	0.169	-0.034
-530.077	-51.671	0.276	-0.130
-529.062	-50.033	0.170	-0.081
-528.048	74.151	-0.219	0.231
-527.033	-200.000	0.043	-0.466
-526.018	800.000	0.018	0.055
-525.004	724.829	0.139	-0.373
-523.989	131.129	0.073	0.094
-522.975	-90.181	-0.232	-0.068
-521.960	177.533	0.100	0.147
-520.945	-200.000	-0.022	0.304
-519.931	54.253	-0.057	0.055
-518.916	-14.751	0.209	0.135
-517.902	265.184	-0.224	0.392
-516.887	128.950	0.079	0.101
-515.872	574.185	-0.024	0.058
-514.858	800.000	-0.084	0.250
-513.843	8.057	0.185	-0.139
-512.829	168.408	-0.084	0.120
-511.814	217.308	-0.025	-0.040
-510.799	-200.000	0.037	0.206
-509.785	552.032	-0.095	-0.229
-508.770	43.295	0.352	0.323
-507.756	800.000	-0.136	-0.416
-506.741	-92.669	0.306	-0.086
-505.726	-114.835	-0.243	-0.046
-504.712	800.000	0.059	0.176
-503.697	-145.632	-0.327	0.029
-502.683	-101.409	-0.179	-0.044
-501.668	-200.000	0.022	-0.276
-500.653	-156.779	-0.220	-0.014
-499.639	-57.910	-0.314	0.138
-498.624	800.000	-0.050	0.191
-497.610	-58.482	-0.047	0.021
-496.595	-144.024	0.041	0.004
-495.581	-171.652	-0.196	0.007
-494.566	-200.000	-0.035	0.210
-493.551	-200.000	0.003	-0.021
-492.537	119.030	0.375	-0.465
-491.522	106.975	0.251	-0.299
-490.508	-132.607	0.230	-0.030
-489.493	156.693	0.111	-0.154
-488.478	-200.000	-0.006	-0.127
-487.464	192.864	0.164	-0.248
-486.449	202.640	-0.043	-0.066
-485.435	800.000	-0.050	-0.154
-484.420	551.437	-0.050	-0.120
-483.405	-145.487	0.150	-0.014
-482.391	-200.000	0.026	-0.138
-481.376	-55.031	-0.230	-0.104
-480.362	800.000	-0.045	-0.162
-479.347	-200.000	0.027	0.161
-478.332	393.020	-0.088	-0.185
-477.318	800.000	-0.117	0.364
-476.303	-48.817	-0.053	-0.025
-475.289	800.000	0.081	-0.332
-474.274	295.369	0.076	-0.139
-473.259	595.423	-0.049	-0.121
-472.245	398.622	-0.112	-0.235
-471.230	-109.717	0.226	-0.048
-470.216	315.978	0.130	0.246
-469.201	-200.000	-0.021	0.164
-468.186	-41.297	0.406	0.210
-467.172	732.268	-0.091	-0.245
-466.157	-33.754	-0.273	0.151
-465.143	-123.359	0.315	-0.050
-464.128	336.029	-0.127	0.247
-463.113	-26.346	-0.084	-0.049
-462.099	243.676	-0.111	0.186
-461.084	800.000	0.074	0.247
-460.070	97.849	-0.200	0.231
-459.055	800.000	-0.025	0.096
-458.040	23.060	-0.235	-0.193
-457.026	58.893	-0.127	0.125
-456.011	-109.333	-0.168	-0.036
-454.997	-78.103	0.146	0.050
-453.982	-117.288	-0.289	0.053
-452.968	-200.000	0.008	0.108
-451.953	18.167	-0.064	0.051
-450.938	49.157	0.211	-0.199
-449.924	-43.547	-0.280	0.141
-448.909	303.506	-0.151	-0.280
-447.895	-68.051	0.206	-0.081
-446.880	-157.658	0.229	-0.014
-445.865	800.000	0.046	-0.128
-444.851	-200.000	-0.081	0.420
-443.836	-200.000	-0.031	-0.185
-442.822	193.743	-0.032	-0.048
-441.807	167.813	-0.145	-0.206
-440.792	-28.912	-0.102	0.058
-439.778	-200.000	0.010	0.279
-438.763	127.198	-0.077	-0.097
-437.749	-19.053	0.219	-0.136
-436.734	-200.000	0.004	0.311
-435.719	-102.197	0.147	-0.035
-434.705	25.724	0.192	-0.160
-433.690	-115.530	-0.242	-0.046
-432.676	134.966	0.246	0.320
-431.661	383.688	0.034	-0.071
-430.646	-27.649	-0.155	-0.090
-429.632	-97.261	0.150	0.039
-428.617	-173.950	-0.091	-0.003
-427.603	40.432	0.135	0.121
-426.588	-131.781	0.234	0.031
-425.573	-166.558	0.243	0.010
-424.559	-86.982	0.264	0.081
-423.544	-85.847	-0.092	0.029
-422.530	48.577	-0.194	-0.182
-421.515	-113.445	0.376	0.074
-420.500	800.000	-0.070	-0.208
-419.486	216.998	0.052	0.083
-418.471	80.096	-0.227	0.244
-417.457	-137.116	-0.094	0.011
-416.442	800.000	-0.091	0.264
-415.428	214.788	-0.129	-0.205
-414.413	800.000	-0.067	-0.189
-413.398	800.000	-0.015	-0.065
-412.384	800.000	-0.083	0.277
-411.369	-200.000	0.027	0.195
-410.355	221.082	0.125	0.201
-409.340	165.451	0.098	-0.139
-408.325	-81.732	0.131	0.043
-407.311	-200.000	0.016	-0.178
-406.296	82.234	0.123	0.134
-405.282	-60.157	-0.138	-0.059
-404.267	800.000	-0.075	0.237
-403.252	-102.522	-0.099	-0.024
-402.238	-166.469	-0.213	-0.009
-401.223	191.871	-0.154	0.232
-400.209	55.489	-0.142	0.137
-399.194	800.000	0.121	-0.389
-398.179	-55.517	-0.111	0.050
-397.165	170.205	0.192	-0.275
-396.150	-14.411	0.085	-0.054
-395.136	-17.923	0.348	0.218
-394.121	0.561	-0.201	0.144
-393.106	-108.278	0.108	0.023
-392.092	540.833	0.026	0.062
-391.077	-100.401	-0.418	-0.104
-390.063	410.321	-0.146	-0.310
-389.048	-200.000	0.017	0.200
-388.033	-117.747	-0.175	0.031
-387.019	461.790	-0.084	0.188
-386.004	-29.819	0.113	-0.064
-384.990	-0.075	-0.092	0.065
-383.975	326.578	-0.036	-0.069
-382.960	603.632	0.032	0.080
-381.946	-200.000	-0.080	-0.388
-380.931	-200.000	0.004	-0.072
-379.917	775.581	0.131	-0.358
-378.902	-200.000	0.003	0.069
-377.888	24.348	-0.161	0.133
-376.873	502.537	-0.045	0.103
-375.858	-89.791	-0.299	-0.087
-374.844	306.767	-0.055	0.103
-373.829	-101.991	0.090	-0.022
-372.815	-200.000	0.051	0.476
-371.800	83.938	-0.232	0.253
-370.785	-200.000	0.008	-0.239
-369.771	404.052	0.147	-0.309
-368.756	800.000	0.045	-0.180
-367.742	70.375	-0.059	-0.061
-366.727	-200.000	-0.006	0.187
-365.712	-73.899	-0.144	-0.052
-364.698	408.868	-0.140	0.295
-363.683	298.991	0.040	0.074
-362.669	-68.094	0.227	0.088
-361.654	96.686	0.140	-0.160
-360.639	-200.000	-0.005	-0.097
-359.625	598.327	0.030	0.073
-358.610	87.306	-0.150	0.165
-357.596	284.106	0.047	0.085
-356.581	-180.435	0.273	0.006
-355.566	316.740	-0.151	-0.284
-354.552	-181.926	-0.189	0.004
-353.537	-70.095	-0.176	-0.067
-352.523	-116.512	-0.425	-0.078
-351.508	800.000	-0.029	-0.112
-350.493	109.854	-0.085	0.102
-349.479	397.315	0.163	-0.339
-348.464	-200.000	0.008	-0.259
-347.450	-14.116	-0.252	-0.162
-346.435	72.944	-0.158	0.165
-345.420	-200.000	0.011	-0.151
-344.406	230.648	-0.166	0.270
-343.391	782.500	0.071	0.193
-342.377	-200.000	0.012	-0.068
-341.362	-12.983	0.038	-0.025
-340.348	-200.000	0.024	-0.189
-339.333	-86.013	-0.138	-0.043
-338.318	-200.000	-0.038	0.457
-337.304	-154.087	0.195	-0.013
-336.289	65.547	0.166	-0.167
-335.275	276.774	0.087	-0.155
-334.260	-85.885	-0.104	0.032
-333.245	-59.400	-0.270	-0.116
-332.231	163.226	0.037	-0.052
-331.216	-77.006	-0.117	-0.041
-330.202	-123.253	-0.065	0.010
-329.187	-149.437	-0.447	-0.035
-328.172	112.512	-0.167	0.201
-327.158	-146.700	0.140	-0.012
-326.143	119.483	-0.161	0.199
-325.129	151.044	-0.138	-0.187
-324.114	-50.968	0.250	0.117
-323.099	-119.690	0.208	0.036
-322.085	-48.796	-0.150	0.072
-321.070	233.498	-0.191	0.313
-320.056	9.994	-0.342	-0.259
-319.041	58.353	0.187	-0.183
-318.026	210.561	-0.046	-0.071
-317.012	-46.957	0.363	-0.177
-315.997	-81.544	-0.250	-0.082
-314.983	111.418	0.094	0.113
-313.968	-120.467	0.171	0.029
-312.953	1.837	0.105	-0.075
-311.939	57.403	0.133	-0.129
-310.924	-4.571	-0.190	-0.131
-309.910	269.454	-0.098	-0.171
-308.895	-200.000	0.005	-0.046
-307.880	-125.115	0.391	0.060
-306.866	419.388	-0.106	-0.225
-305.851	233.374	-0.038	-0.062
-304.837	-69.271	-0.119	-0.046
-303.822	-88.429	-0.144	0.043
-302.807	-83.841	0.353	-0.112
-301.793	-51.046	0.142	0.066
-300.778	-200.000	-0.002	0.148
-299.764	68.676	0.195	-0.200
-298.749	-141.512	-0.156	0.016
-297.735	707.775	0.020	-0.054
-296.720	145.476	-0.085	-0.113
-295.705	-200.000	-0.063	0.324
-294.691	297.447	0.087	0.159
-293.676	-179.066	0.224	-0.005
-292.662	78.436	0.082	0.088
-291.647	4.735	0.107	-0.078
-290.632	140.688	-0.099	0.131
-289.618	-112.393	0.029	-0.006
-288.603	-179.746	0.139	-0.003
-287.589	-12.255	0.278	-0.181
-286.574	-56.742	-0.262	0.116
-285.559	-144.342	0.186	0.017
-284.545	-52.895	-0.119	0.055
-283.530	-200.000	0.035	0.175
-282.516	-26.855	-0.101	-0.059
-281.501	800.000	0.163	0.703
-280.486	42.779	0.181	0.164
-279.472	109.897	0.261	0.311
-278.457	-67.740	0.187	0.073
-277.443	175.432	-0.153	0.221
-276.428	-78.798	-0.139	0.047
-275.413	-200.000	-0.051	0.230
-274.399	-76.465	-0.121	-0.042
-273.384	89.854	0.287	-0.319
-272.370	-74.559	-0.210	0.075
-271.355	698.329	0.069	0.181
-270.340	59.109	0.132	0.129
-269.326	-50.384	0.028	-0.013
-268.311	18.113	-0.129	-0.103
-267.297	-30.450	0.436	-0.246
-266.282	-200.000	0.038	-0.226
-265.267	238.815	0.137	-0.227
-264.253	-200.000	-0.014	-0.147
-263.238	686.557	-0.105	0.274
-262.224	-200.000	-0.015	0.229
-261.209	-41.721	-0.200	-0.102
-260.195	800.000	-0.078	-0.277
-259.180	-200.000	0.084	-0.386
-258.165	80.799	-0.145	-0.156
-257.151	151.838	-0.067	-0.091
-256.136	198.365	-0.125	0.190
-255.122	-200.000	0.033	-0.288
-254.107	72.495	0.135	0.140
-253.092	93.564	-0.065	0.073
-252.078	-200.000	0.013	-0.095
-251.063	799.080	0.084	0.229
-250.049	-35.761	0.266	0.143
-249.034	-8.402	-0.212	0.142
-248.019	-66.589	0.256	-0.101
-247.005	-200.000	-0.042	-0.269
-245.990	-186.344	0.309	0.004
-244.976	-12.551	-0.331	-0.215
-243.961	-157.052	0.186	0.011
-242.946	-149.429	0.183	0.014
-241.932	-194.322	0.225	-0.002
-240.917	-36.405	0.216	-0.116
-239.903	-114.012	0.074	0.014
-238.888	-58.879	0.194	0.084
-237.873	459.883	-0.047	0.105
-236.859	-148.449	0.078	-0.006
-235.844	372.691	-0.077	0.156
-234.830	-85.363	0.210	-0.065
-233.815	60.643	0.215	0.211
-232.800	-200.000	-0.066	0.311
-231.786	-58.691	-0.138	-0.059
-230.771	43.409	0.152	0.138
-229.757	-94.904	0.084	0.023
-228.742	38.742	0.156	-0.138
-227.727	800.000	-0.038	0.120
-226.713	-135.772	-0.125	-0.015
-225.698	-133.810	-0.303	0.038
-224.684	126.364	0.109	0.137
-223.669	53.834	0.098	-0.093
-222.655	321.449	-0.124	0.234
-221.640	217.589	0.124	0.196
-220.625	-18.743	-0.173	0.107
-219.611	-90.984	-0.437	-0.125
-218.596	-154.418	0.145	0.010
-217.582	21.079	0.249	-0.200
-216.567	22.994	-0.165	0.135
-215.552	-177.785	-0.235	0.006
-214.538	-94.516	-0.160	-0.043
-213.523	-200.000	0.060	0.523
-212.509	-101.343	-0.228	0.055
-211.494	221.008	-0.114	-0.182
-210.479	-112.596	0.131	0.026
-209.465	800.000	0.079	-0.242
-208.450	304.166	0.149	-0.275
-207.436	800.000	-0.028	0.096
-206.421	800.000	0.063	0.247
-205.406	19.493	-0.131	0.105
-204.392	800.000	0.054	-0.208
-203.377	-91.225	-0.239	-0.068
-202.363	-21.183	-0.253	-0.153
-201.348	-157.850	-0.071	-0.004
-200.333	-17.676	0.062	0.038
-199.319	131.421	0.119	-0.152
-198.304	-118.194	-0.142	0.025
-197.290	-58.158	0.187	-0.081
-196.275	460.607	0.176	-0.389
-195.260	336.104	-0.150	-0.288
-194.246	169.559	-0.076	-0.108
-193.231	800.000	0.041	0.165
-192.217	-200.000	-0.036	0.298
-191.202	-167.015	0.279	-0.011
-190.187	305.040	0.088	-0.163
-189.173	-78.309	0.190	0.065
-188.158	-200.000	0.020	0.125
-187.144	15.022	0.117	0.091
-186.129	-73.509	-0.381	0.138
-185.114	33.812	0.154	0.133
-184.100	534.131	0.053	0.125
-183.085	161.595	-0.117	-0.162
-182.071	800.000	0.063	-0.224
-181.056	541.179	0.092	-0.218
-180.042	-9.889	0.246	-0.162
-179.027	186.125	-0.214	0.315
-178.012	140.248	-0.222	-0.290
-176.998	317.903	-0.072	0.135
-175.983	-73.783	-0.070	-0.025
-174.969	83.548	0.203	0.220
-173.954	-150.394	0.190	-0.015
-172.939	800.000	-0.023	0.085
-171.925	-29.174	0.090	0.051
-170.910	108.698	0.080	-0.094
-169.896	724.042	-0.062	-0.163
-168.881	362.458	0.083	0.164
-167.866	62.055	-0.110	0.109
-166.852	-120.217	0.284	0.048
-165.837	800.000	-0.068	-0.189
-164.823	-164.032	0.120	-0.006
-163.808	-8.542	-0.287	-0.191
-162.793	-200.000	-0.029	-0.136
-161.779	365.462	0.122	0.243
-160.764	800.000	0.015	0.046
-159.750	236.151	0.109	-0.179
-158.735	0.864	-0.150	-0.107
-157.720	-180.698	-0.145	-0.003
-156.706	367.969	0.019	-0.038
-155.691	128.332	0.121	0.152
-154.677	800.000	0.094	-0.335
-153.662	-200.000	-0.030	0.138
-152.647	-200.000	-0.057	0.315
-151.633	-83.352	-0.160	-0.051
-150.618	134.275	0.061	-0.078
-149.604	-3.669	0.152	0.105
-148.589	424.122	0.077	0.163
-147.574	354.540	-0.094	-0.185
-146.560	-200.000	-0.026	-0.222
-145.545	-200.000	0.031	-0.240
-144.531	327.978	-0.114	0.217
-143.516	-74.708	-0.225	0.080
-142.502	305.220	0.071	-0.130
-141.487	-200.000	0.016	-0.145
-140.472	-200.000	-0.039	-0.228
-139.458	-37.229	-0.211	0.112
-138.443	-41.279	0.059	0.030
-137.429	-200.000	0.008	0.153
-136.414	-75.116	0.308	0.109
-135.399	56.358	-0.102	-0.098
-134.385	-32.634	0.042	-0.023
-133.370	210.447	0.092	-0.143
-132.356	-114.290	0.249	-0.048
-131.341	-200.000	-0.011	-0.291
-130.326	295.623	0.024	-0.043
-129.312	-52.202	-0.055	-0.025
-128.297	-121.959	-0.174	-0.028
-127.283	-134.564	0.032	0.004
-126.268	-162.508	0.127	0.006
-125.253	1.264	0.152	-0.108
-124.239	800.000	-0.060	0.175
-123.224	-120.583	-0.172	-0.029
-122.210	-108.050	-0.337	0.072
-121.195	-162.076	0.104	-0.005
-120.180	-165.259	0.375	-0.016
-119.166	-23.582	-0.260	0.154
-118.151	-200.000	0.023	-0.388
-117.137	91.578	-0.086	-0.096
-116.122	-166.063	0.116	0.005
-115.107	-98.215	0.472	0.120
-114.093	89.698	-0.115	0.127
-113.078	-81.781	-0.227	-0.074
-112.064	-68.741	0.340	0.130
-111.049	159.088	0.152	-0.209
-110.034	711.605	0.054	-0.142
-109.020	-200.000	-0.038	0.320
-108.005	-26.613	0.174	-0.101
-106.991	-13.914	0.142	-0.091
-105.976	365.360	-0.119	0.236
-104.962	-85.185	0.215	0.066
-103.947	800.000	0.048	-0.164
-102.932	-90.022	-0.169	0.049
-101.918	-50.138	-0.069	0.032
-100.903	-160.241	0.305	-0.016
-99.889	-200.000	0.045	-0.254
-98.874	-200.000	0.047	-0.361
-97.859	-105.017	-0.324	0.073
-96.845	-200.000	-0.030	0.170
-95.830	228.762	-0.170	0.274
-94.816	-111.683	0.107	-0.021
-93.801	484.436	-0.060	0.135
-92.786	79.226	0.193	0.204
-91.772	-14.678	0.070	-0.045
-90.757	34.743	-0.032	-0.028
-89.743	240.127	-0.154	0.253
-88.728	-66.319	0.277	-0.109
-87.713	-105.648	-0.128	-0.029
-86.699	-65.837	0.151	-0.060
-85.684	241.893	0.148	-0.244
-84.670	-68.700	0.131	0.050
-83.655	110.502	0.258	-0.307
-82.640	-171.268	0.274	0.009
-81.626	-127.904	0.165	-0.023
-80.611	800.000	0.023	0.082
-79.597	74.499	0.091	0.094
-78.582	-200.000	0.030	-0.191
-77.567	102.925	0.135	0.156
-76.553	126.094	0.133	-0.166
-75.538	-107.633	-0.133	0.029
-74.524	147.597	0.149	0.199
-73.509	-72.051	0.395	-0.145
-72.494	693.064	-0.054	0.139
-71.480	-64.757	-0.334	0.134
-70.465	800.000	-0.112	0.341
-69.451	426.528	0.062	0.133
-68.436	-108.836	-0.247	-0.052
-67.422	90.115	-0.102	0.113
-66.407	-148.278	0.369	0.030
-65.392	16.960	-0.112	0.088
-64.378	-36.392	0.301	0.160
-63.363	-162.576	-0.016	-0.001
-62.349	55.372	0.269	-0.257
-61.334	32.363	-0.664	-0.566
-60.319	-111.979	0.497	0.099
-59.305	-200.000	-0.068	-0.776
-58.290	227.004	0.542	0.869
-57.276	-200.000	0.339	1.626
-56.261	-200.000	95.241	561.098
-55.246	639.254	1387.803	3482.280
-54.232	185.006	2622.731	3837.889
-53.217	115.527	2325.060	2803.314
-52.203	44.464	1934.965	1753.234
-51.188	38.168	1719.180	1509.202
-50.173	35.268	1673.873	1447.515
-49.159	51.617	1721.925	1614.631
-48.144	55.152	1739.496	1658.097
-47.130	37.758	1696.252	1485.712
-46.115	34.815	1681.055	1450.060
-45.100	34.668	1676.105	1444.621
-44.086	34.544	1673.558	1441.426
-43.071	34.680	1670.845	1440.063
-42.057	34.534	1668.575	1436.946
-41.042	34.558	1666.634	1435.402
-40.027	34.676	1664.162	1434.098
-39.013	34.567	1662.724	1431.987
-37.998	34.596	1660.811	1430.502
-36.984	34.684	1659.122	1429.651
-35.969	34.747	1657.747	1428.879
-34.954	34.800	1656.342	1428.002
-33.940	34.778	1654.360	1426.075
-32.925	34.728	1652.478	1424.025
-31.911	34.742	1650.455	1422.331
-30.896	34.745	1648.807	1420.873
-29.881	34.741	1647.515	1419.672
-28.867	34.722	1645.783	1417.988
-27.852	34.692	1644.603	1416.687
-26.838	34.747	1642.762	1415.457
-25.823	34.781	1641.078	1414.202
-24.809	34.742	1640.055	1412.977
-23.794	34.840	1638.574	1412.368
-22.779	34.822	1637.132	1410.936
-21.765	34.794	1635.541	1409.300
-20.750	34.704	1633.944	1407.202
-19.736	34.819	1632.248	1406.533
-18.721	34.843	1630.374	1405.037
-17.706	34.807	1628.683	1403.265
-16.692	34.816	1627.394	1402.160
-15.677	34.754	1626.142	1400.575
-14.663	34.837	1624.704	1399.885
-13.648	34.714	1623.515	1397.904
-12.633	34.799	1621.961	1397.133
-11.619	34.765	1619.949	1395.101
-10.604	34.788	1618.637	1394.081
-9.590	34.886	1617.234	1393.529
-8.575	34.829	1616.058	1392.049
-7.560	34.685	1614.777	1389.843
-6.546	34.722	1613.695	1389.125
-5.531	34.721	1612.652	1388.161
-4.517	34.778	1611.791	1387.779
-3.502	34.788	1610.395	1386.596
-2.487	34.845	1608.632	1385.440
-1.473	34.560	1597.689	1373.909
-0.458	31.634	1576.897	1335.139
0.556	29.971	1576.002	1296.914
1.571	27.180	1599.674	1296.407
2.586	26.067	1612.189	1298.429
3.600	22.650	1557.749	1230.665
4.615	13.816	1446.056	1084.832
5.629	5.999	1379.899	986.181
6.644	4.646	1370.748	971.109
7.659	4.511	1369.744	969.471
8.673	4.556	1368.976	969.124
9.688	4.586	1367.405	968.113
10.702	4.573	1364.782	966.084
11.717	8.270	1371.510	993.819
12.731	16.905	1387.485	1059.487
13.746	22.512	1396.084	1101.108
14.761	22.814	1395.080	1102.104
15.775	22.001	1393.470	1095.665
16.790	21.039	1390.511	1087.249
17.804	20.164	1388.430	1080.076
18.819	19.875	1387.116	1077.159
19.834	19.714	1386.112	1075.280
20.848	19.594	1384.897	1073.496
21.863	19.451	1383.767	1071.639
22.877	19.208	1382.969	1069.421
23.892	19.232	1381.800	1068.573
24.907	19.162	1381.489	1067.802
25.921	19.304	1380.233	1067.614
26.936	19.311	1379.166	1066.736
27.950	19.301	1378.289	1065.906
28.965	19.351	1377.320	1065.369
29.980	19.624	1376.212	1066.101
30.994	19.618	1375.194	1065.181
32.009	19.700	1373.950	1064.632
33.023	19.551	1372.788	1062.721
34.038	19.571	1371.074	1061.418
35.053	19.435	1370.188	1059.804
36.067	19.409	1368.919	1058.568
37.082	19.410	1368.292	1057.999
38.096	19.475	1367.220	1057.471
39.111	19.411	1366.374	1056.331
40.126	19.333	1365.487	1055.078
41.140	19.178	1364.318	1053.134
42.155	19.058	1363.644	1051.785
43.169	18.949	1363.657	1051.040
44.184	18.977	1363.224	1050.783
45.199	18.927	1363.356	1050.482
46.213	19.218	1362.655	1051.631
47.228	19.326	1362.379	1051.982
48.242	19.393	1360.762	1051.049
49.257	19.381	1358.981	1049.504
50.271	19.364	1357.690	1048.315
51.286	19.475	1356.264	1047.793
52.301	19.379	1355.044	1046.173
53.315	19.166	1353.747	1043.789
54.330	19.119	1352.771	1042.659
55.344	19.045	1351.850	1041.409
56.359	19.005	1350.906	1040.349
57.374	19.023	1349.834	1039.539
58.388	18.946	1349.275	1038.557
59.403	18.866	1348.658	1037.505
60.417	18.919	1347.635	1036.943
61.432	18.795	1347.009	1035.624
62.447	18.800	1345.825	1034.654
63.461	18.678	1345.022	1033.206
64.476	18.700	1343.361	1031.971
65.490	18.681	1342.573	1031.161
66.505	18.778	1340.819	1030.309
67.520	18.784	1339.951	1029.586
68.534	18.802	1338.822	1028.731
69.549	18.794	1337.989	1027.957
70.563	18.735	1336.876	1026.658
71.578	18.640	1335.409	1024.869
72.593	18.569	1334.785	1023.878
73.607	18.579	1333.761	1023.062
74.622	18.645	1332.790	1022.619
75.636	18.580	1332.566	1021.970
76.651	18.669	1332.050	1022.012
77.666	18.660	1331.480	1021.429
78.680	18.737	1331.241	1021.615
79.695	18.846	1330.186	1021.366
80.709	18.996	1329.706	1021.799
81.724	19.053	1328.833	1021.376
82.739	19.061	1328.155	1020.810
83.753	19.181	1327.984	1021.297
84.768	19.386	1326.546	1021.320
85.782	19.457	1325.585	1020.908
86.797	19.483	1324.632	1020.236
87.812	19.340	1323.039	1018.075
88.826	19.326	1321.961	1017.075
89.841	19.387	1320.911	1016.532
90.855	19.559	1319.968	1016.735
91.870	19.563	1319.658	1016.429
92.884	19.534	1318.352	1015.162
93.899	19.587	1317.447	1014.685
94.914	19.516	1317.023	1013.853
95.928	19.644	1316.108	1013.807
96.943	19.588	1314.991	1012.532
97.957	19.539	1314.299	1011.620
98.972	19.454	1313.211	1010.194
99.987	19.429	1312.221	1009.198
101.001	19.467	1311.430	1008.722
102.016	19.439	1310.325	1007.623
103.030	19.499	1309.609	1007.333
104.045	19.460	1308.502	1006.163
105.060	19.191	1307.491	1003.732
106.074	19.064	1305.558	1001.416
107.089	18.851	1303.895	998.816
108.103	18.786	1302.489	997.272
109.118	18.793	1301.224	996.254
110.133	18.799	1299.782	995.097
111.147	18.746	1298.740	993.905
112.162	18.812	1297.822	993.499
113.176	18.941	1296.451	993.106
114.191	18.904	1295.717	992.242
115.206	18.989	1294.284	991.548
116.220	18.865	1293.036	989.786
117.235	18.895	1292.023	989.099
118.249	18.928	1290.930	988.362
119.264	18.721	1289.783	986.211
120.279	18.756	1288.295	985.186
121.293	18.741	1287.347	984.288
122.308	18.617	1286.458	982.811
123.322	18.557	1285.484	981.633
124.337	18.545	1284.202	980.502
125.352	18.517	1283.214	979.497
126.366	18.619	1282.203	979.226
127.381	18.649	1281.016	978.403
128.395	18.619	1280.505	977.755
129.410	18.576	1279.529	976.675
130.424	18.747	1279.148	977.276
131.439	18.805	1278.099	976.717
132.454	18.914	1276.805	976.259
133.468	18.930	1276.172	975.781
134.483	19.038	1275.163	975.532
135.497	18.980	1274.330	974.481
136.512	18.972	1273.024	973.349
137.527	19.026	1271.808	972.643
138.541	19.087	1270.290	971.736
139.556	19.158	1269.048	971.103
140.570	19.197	1268.266	970.641
141.585	19.252	1267.129	969.992
142.600	19.392	1266.109	969.911
143.614	19.396	1265.342	969.261
144.629	19.455	1264.357	968.754
145.643	19.479	1263.084	967.830
146.658	19.196	1262.256	965.521
147.673	19.103	1260.548	963.605
148.687	18.996	1259.346	962.003
149.702	19.037	1257.388	960.653
150.716	18.963	1256.357	959.369
151.731	18.907	1255.512	958.324
152.746	18.964	1254.191	957.552
153.760	19.124	1252.671	957.192
154.775	19.262	1251.787	957.202
155.789	19.267	1250.567	956.211
156.804	19.300	1249.583	955.559
157.819	19.246	1249.327	954.976
158.833	19.394	1247.929	954.646
159.848	19.544	1246.837	954.552
160.862	19.498	1246.429	953.904
161.877	19.245	1244.802	951.177
162.892	18.980	1243.746	948.823
163.906	19.009	1242.521	947.967
164.921	19.015	1241.953	947.479
165.935	19.101	1240.807	946.995
166.950	19.178	1240.462	947.073
167.964	19.316	1239.638	947.117
168.979	19.216	1238.780	945.831
169.994	19.049	1238.160	944.356
171.008	19.126	1237.537	944.218
172.023	19.308	1236.680	944.477
173.037	19.491	1236.192	945.022
174.052	19.428	1235.081	943.748
175.067	19.170	1234.035	941.455
176.081	19.061	1232.524	939.622
177.096	19.009	1232.205	939.014
178.110	19.131	1230.692	938.442
179.125	19.146	1229.371	937.435
180.140	19.323	1228.480	937.634
181.154	19.398	1227.233	937.005
182.169	19.513	1226.685	937.128
183.183	19.565	1225.401	936.348
184.198	19.553	1224.087	935.197
185.213	19.490	1223.381	934.231
186.227	19.577	1222.193	933.713
187.242	19.609	1221.138	932.995
188.256	19.648	1220.704	932.792
189.271	19.780	1219.368	932.402
190.286	19.423	1218.515	929.742
191.300	19.025	1217.372	926.647
192.315	19.063	1215.917	925.663
193.329	19.105	1215.472	925.465
194.344	19.222	1215.255	925.846
195.359	19.239	1215.041	925.694
196.373	19.316	1214.641	925.722
197.388	19.439	1214.056	925.852
198.402	19.616	1214.122	926.771
199.417	19.844	1213.340	927.315
200.432	19.927	1213.074	927.474
201.446	20.004	1212.056	927.026
202.461	20.071	1211.077	926.555
203.475	19.963	1210.236	925.253
204.490	19.829	1208.528	923.145
205.504	19.652	1207.705	921.495
206.519	19.590	1206.203	919.939
207.534	19.571	1204.602	918.531
208.548	19.645	1204.210	918.548
209.563	19.635	1203.129	917.585
210.577	19.589	1202.742	916.966
211.592	19.646	1201.636	916.346
212.607	19.853	1200.970	916.851
213.621	19.864	1200.119	916.181
214.636	19.733	1198.864	914.448
215.650	19.930	1198.293	914.971
216.665	19.932	1197.495	914.291
217.680	20.055	1196.832	914.355
218.694	20.076	1195.913	913.686
219.709	20.011	1195.143	912.671
220.723	20.048	1194.322	912.160
221.738	19.924	1193.788	911.016
222.753	19.928	1192.520	909.993
223.767	20.024	1191.719	909.805
224.782	20.039	1191.447	909.593
225.796	20.146	1190.993	909.727
226.811	20.143	1190.150	908.989
227.826	20.022	1189.009	907.402
228.840	19.943	1187.889	906.056
229.855	19.976	1187.630	905.950
230.869	19.969	1186.762	905.171
231.884	19.899	1185.763	903.961
232.899	19.765	1185.271	902.809
233.913	19.735	1184.519	901.999
234.928	19.726	1183.601	901.171
235.942	19.676	1182.845	900.258
236.957	19.635	1181.924	899.260
237.972	19.655	1181.568	899.015
238.986	19.615	1180.900	898.220
240.001	19.716	1179.911	897.910
241.015	19.808	1179.241	897.799
242.030	19.808	1178.427	897.104
243.045	19.898	1177.645	896.896
244.059	19.976	1177.151	896.840
245.074	19.999	1176.240	896.190
246.088	20.135	1175.392	896.168
247.103	20.180	1174.803	895.872
248.117	20.273	1174.427	895.983
249.132	20.372	1173.559	895.752
250.147	20.626	1173.172	896.690
251.161	20.750	1172.653	896.852
252.176	20.829	1171.446	896.254
253.190	20.879	1171.284	896.309
254.205	20.853	1170.681	895.638
255.220	21.044	1169.790	895.858
256.234	20.949	1169.268	894.888
257.249	20.864	1168.905	894.094
258.263	20.772	1168.066	892.903
259.278	20.891	1167.250	892.812
260.293	20.951	1166.871	892.750
261.307	20.946	1166.282	892.191
262.322	21.066	1165.602	892.206
263.336	21.022	1165.347	891.707
264.351	21.002	1164.371	890.781
265.366	21.040	1163.682	890.367
266.380	20.968	1162.947	889.361
267.395	20.960	1161.976	888.497
268.409	20.841	1161.236	887.245
269.424	20.814	1160.429	886.415
270.439	20.753	1160.391	885.999
271.453	20.732	1159.167	884.876
272.468	20.707	1157.660	883.524
273.482	20.689	1157.436	883.182
274.497	20.687	1156.657	882.501
275.512	20.728	1156.192	882.271
276.526	20.731	1155.464	881.655
277.541	20.718	1154.849	881.043
278.555	20.798	1153.922	880.660
279.570	20.954	1153.410	880.984
280.585	21.069	1153.015	881.184
281.599	21.013	1152.073	880.102
282.614	20.818	1150.763	878.038
283.628	20.844	1149.292	876.973
284.643	20.812	1148.439	876.080
285.657	20.862	1147.375	875.442
286.672	20.904	1146.694	875.060
287.687	20.957	1145.849	874.604
288.701	20.918	1145.238	873.861
289.716	20.952	1144.550	873.432
290.730	20.882	1143.917	872.516
291.745	20.976	1142.683	871.970
292.760	20.982	1143.055	872.207
293.774	20.993	1142.384	871.674
294.789	21.224	1141.519	872.089
295.803	21.260	1140.627	871.512
296.818	20.924	1140.210	869.437
297.833	21.059	1139.030	869.137
298.847	20.921	1138.021	867.603
299.862	21.005	1137.373	867.451
300.876	21.051	1136.626	867.032
301.891	21.189	1135.930	867.108
302.906	21.151	1135.941	866.854
303.920	21.323	1135.239	867.093
304.935	21.351	1134.619	866.683
305.949	21.568	1133.514	866.836
306.964	21.451	1133.238	865.970
307.979	21.258	1132.632	864.471
308.993	21.297	1131.564	863.773
310.008	21.347	1130.740	863.317
311.022	21.332	1130.430	862.930
312.037	21.593	1128.814	862.905
313.052	21.346	1128.176	861.124
314.066	21.228	1126.836	859.446
315.081	21.093	1126.237	858.249
316.095	21.005	1125.610	857.264
317.110	21.040	1124.758	856.709
318.125	20.981	1123.738	855.569
319.139	21.124	1123.126	855.724
320.154	21.029	1122.551	854.748
321.168	21.007	1121.873	854.050
322.183	21.169	1121.262	854.299
323.197	21.111	1120.761	853.558
324.212	21.252	1119.975	853.576
325.227	21.239	1119.605	853.154
326.241	21.116	1118.909	851.944
327.256	21.200	1117.919	851.526
328.270	21.094	1117.290	850.457
329.285	20.991	1116.738	849.461
330.300	21.079	1115.583	848.932
331.314	21.175	1114.285	848.336
332.329	21.249	1113.263	847.843
333.343	21.149	1112.951	847.047
334.358	21.405	1112.282	847.705
335.373	21.430	1111.320	847.015
336.387	21.547	1110.617	846.969
337.402	21.497	1110.075	846.242
338.416	21.494	1109.529	845.736
339.431	21.648	1108.799	845.845
340.446	21.743	1108.526	846.025
341.460	21.765	1107.702	845.425
342.475	21.901	1107.321	845.717
343.489	21.941	1105.960	844.795
344.504	22.070	1104.601	844.303
345.519	22.110	1104.422	844.284
346.533	22.123	1103.606	843.646
347.548	22.202	1102.722	843.274
348.562	22.088	1102.289	842.320
349.577	21.864	1101.186	840.333
350.592	21.683	1100.427	838.809
351.606	21.554	1099.205	837.189
352.621	21.456	1098.756	836.306
353.635	21.455	1098.160	835.773
354.650	21.526	1097.500	835.534
355.665	21.652	1096.277	835.128
356.679	21.687	1095.938	834.962
357.694	21.722	1095.216	834.509
358.708	21.834	1094.725	834.593
359.723	21.753	1094.431	833.911
360.738	21.701	1094.174	833.392
361.752	21.790	1093.159	832.969
362.767	21.726	1092.632	832.190
363.781	21.934	1091.948	832.583
364.796	22.015	1091.314	832.407
365.810	22.158	1091.058	832.819
366.825	22.236	1090.696	832.837
367.840	22.319	1089.943	832.583
368.854	22.425	1089.970	833.030
369.869	22.459	1088.812	832.230
370.883	22.232	1087.801	830.313
371.898	22.129	1086.683	828.902
372.913	22.211	1086.371	828.975
373.927	22.231	1086.164	828.841
374.942	22.307	1085.674	828.747
375.956	22.238	1084.793	827.679
376.971	22.350	1084.015	827.539
377.986	22.421	1083.330	827.277
379.000	22.520	1082.997	827.412
380.015	22.550	1082.779	827.315
381.029	22.656	1082.162	827.270
382.044	22.546	1081.690	826.316
383.059	22.515	1080.893	825.490
384.073	22.579	1079.808	824.887
385.088	22.496	1078.968	823.787
386.102	22.511	1077.985	823.030
387.117	22.408	1077.048	821.765
388.132	22.220	1076.034	820.039
389.146	22.180	1075.138	819.099
390.161	22.218	1074.577	818.773
391.175	22.091	1073.767	817.495
392.190	22.244	1073.286	817.767
393.205	22.423	1072.488	817.921
394.219	22.469	1071.684	817.446
395.234	22.366	1070.609	816.079
396.248	22.269	1069.650	814.826
397.263	22.281	1068.318	813.794
398.278	22.305	1067.700	813.360
399.292	22.019	1067.199	811.585
400.307	22.020	1066.355	810.875
401.321	22.007	1065.797	810.321
402.336	22.097	1065.267	810.262
403.350	22.046	1064.511	809.380
404.365	22.167	1063.375	809.000
405.380	22.217	1063.201	809.029
406.394	22.328	1062.501	808.932
407.409	22.410	1061.856	808.748
408.423	22.553	1061.428	809.005
409.438	22.593	1060.608	808.492
410.453	22.718	1059.918	808.471
411.467	22.895	1059.020	808.524
412.482	22.858	1058.815	808.125
413.496	22.994	1057.917	807.989
414.511	22.887	1057.744	807.300
415.526	23.059	1057.014	807.457
416.540	23.160	1057.047	807.869
417.555	23.008	1056.326	806.554
418.569	22.986	1055.429	805.697
419.584	22.917	1054.812	804.839
420.599	22.934	1054.507	804.616
421.613	154.539	1400.999	1790.216
422.628	141.924	1451.479	1790.305
