DTS Sentinel unit serial number:	SN413079Multiplexer serial number:	ORYXHardware model number:	OX4-SRSoftware version number:	ORYX F/W v4.00 Oryx Data Collector v3.7.2.0data status	okinstallation	princeton_trtdifferential loss correction	single-endedforward channel	channel 2reverse channel	N/Adate	2019/09/18time	07:55:35forward acquisition time	60.00reverse acquisition time	0.00gamma	496.2192k internal	0.2347k external	0.2347temperature offset calibration	0.9977default loss term (dB/km)	0.3790temperature slope calibration	1.0000multiplexer offset coefficient	1.0000multiplexer slope coefficient	1.0000fibre end	0.00T internal ref (°C)	23.50T ext. ref 1 (°C)	0.20T ext. ref 2 (°C)	19.35length (m)	temperature (°C)	Stokes	anti-Stokes-747.200	173.456	-0.069	0.100
-746.185	609.151	-0.132	-0.330
-745.171	-105.542	-0.176	0.040
-744.156	319.351	0.056	0.106
-743.142	-81.277	-0.544	0.179
-742.127	94.780	-0.418	0.476
-741.112	217.040	-0.144	0.229
-740.098	-151.457	-0.355	0.026
-739.083	37.722	0.181	0.161
-738.069	189.196	-0.032	-0.048
-737.054	-200.000	-0.008	0.183
-736.039	158.556	-0.088	-0.123
-735.025	-84.394	0.331	-0.105
-734.010	-126.596	0.079	0.012
-732.996	-72.235	-0.370	-0.137
-731.981	800.000	-0.034	0.114
-730.966	-1.190	0.057	-0.041
-729.952	186.841	-0.201	0.299
-728.937	-44.493	-0.089	0.045
-727.923	20.411	-0.033	0.027
-726.908	-83.730	-0.109	0.035
-725.894	-200.000	-0.038	0.264
-724.879	-200.000	-0.029	0.160
-723.864	79.694	0.231	-0.248
-722.850	-94.396	0.049	0.013
-721.835	-45.657	-0.277	-0.137
-720.821	109.700	-0.217	0.260
-719.806	-200.000	-0.001	-0.076
-718.791	-55.037	-0.310	-0.139
-717.777	-50.347	0.220	0.104
-716.762	45.204	0.055	-0.051
-715.748	800.000	0.052	-0.220
-714.733	-167.013	-0.292	0.012
-713.718	434.567	-0.041	-0.089
-712.704	117.664	0.051	0.062
-711.689	800.000	0.123	0.392
-710.675	800.000	0.090	-0.307
-709.660	800.000	0.060	-0.193
-708.645	800.000	-0.076	0.276
-707.631	58.763	-0.119	-0.116
-706.616	73.089	0.157	0.164
-705.602	660.538	0.077	-0.197
-704.587	800.000	-0.045	0.164
-703.572	47.308	-0.132	-0.122
-702.558	-17.145	0.118	-0.074
-701.543	-12.586	-0.215	-0.140
-700.529	42.021	-0.132	-0.120
-699.514	800.000	0.042	0.123
-698.499	800.000	-0.088	0.336
-697.485	179.869	-0.059	-0.087
-696.470	-81.995	-0.269	-0.088
-695.456	-93.875	-0.383	-0.105
-694.441	27.448	0.058	-0.048
-693.426	-200.000	0.014	0.159
-692.412	-72.770	0.190	-0.070
-691.397	-66.757	-0.182	-0.072
-690.383	-78.716	-0.297	-0.101
-689.368	-83.566	0.489	-0.156
-688.354	-127.582	0.099	-0.014
-687.339	-200.000	0.033	0.245
-686.324	104.024	-0.208	0.244
-685.310	-26.279	0.076	0.045
-684.295	95.174	-0.267	0.303
-683.281	-85.893	0.093	-0.029
-682.266	-200.000	-0.039	-0.251
-681.251	-55.356	-0.025	-0.011
-680.237	-154.331	-0.066	-0.004
-679.222	-26.613	0.044	0.026
-678.208	-23.974	0.319	0.190
-677.193	72.856	-0.230	-0.239
-676.178	800.000	0.069	0.291
-675.164	-135.436	0.180	0.021
-674.149	-126.201	-0.260	0.039
-673.135	38.245	-0.202	0.180
-672.120	-3.910	0.216	-0.149
-671.105	712.541	-0.160	-0.421
-670.091	-61.707	-0.170	-0.071
-669.076	-94.763	-0.174	-0.047
-668.062	-200.000	0.018	-0.110
-667.047	84.763	0.094	0.103
-666.032	77.704	0.206	-0.219
-665.018	705.522	-0.051	0.133
-664.003	99.292	-0.181	0.209
-662.989	800.000	-0.028	-0.088
-661.974	-172.566	-0.141	-0.004
-660.959	1.609	-0.234	-0.168
-659.945	33.346	-0.369	-0.319
-658.930	0.455	-0.103	-0.073
-657.916	55.657	0.113	-0.109
-656.901	-39.665	0.106	-0.055
-655.886	69.203	-0.133	-0.137
-654.872	-200.000	0.129	-0.600
-653.857	71.907	0.113	-0.117
-652.843	-121.526	-0.407	0.067
-651.828	40.394	0.116	-0.104
-650.814	-94.326	0.270	0.073
-649.799	193.632	-0.263	0.396
-648.784	-200.000	0.046	0.209
-647.770	-26.531	-0.052	0.030
-646.755	-13.335	-0.089	0.057
-645.741	197.131	-0.017	0.025
-644.726	-200.000	0.110	0.492
-643.711	115.449	-0.117	-0.143
-642.697	-130.985	-0.138	-0.018
-641.682	-166.380	-0.111	0.005
-640.668	-39.974	-0.126	-0.066
-639.653	-49.014	0.369	-0.176
-638.638	800.000	0.026	-0.091
-637.624	57.513	0.101	-0.098
-636.609	47.508	-0.077	-0.071
-635.595	-30.490	0.316	-0.178
-634.580	-20.750	-0.189	-0.115
-633.565	-71.674	-0.308	0.115
-632.551	-155.165	0.129	-0.008
-631.536	800.000	0.052	-0.216
-630.522	-164.172	0.276	-0.013
-629.507	-67.944	-0.107	-0.042
-628.492	-86.326	0.129	0.039
-627.478	80.839	-0.093	-0.100
-626.463	-200.000	-0.035	0.288
-625.449	-27.106	-0.112	-0.065
-624.434	-54.794	-0.311	0.140
-623.419	-200.000	0.033	0.286
-622.405	544.526	0.038	-0.090
-621.390	-77.632	-0.295	-0.102
-620.376	64.958	0.160	-0.160
-619.361	800.000	0.041	-0.169
-618.346	-83.425	-0.262	0.083
-617.332	-116.212	0.112	0.021
-616.317	-58.297	0.193	-0.084
-615.303	-89.705	-0.245	0.071
-614.288	-79.654	-0.180	-0.060
-613.273	51.905	0.179	0.170
-612.259	-57.751	-0.107	-0.046
-611.244	-55.605	-0.121	0.054
-610.230	176.593	-0.131	0.189
-609.215	-42.864	0.033	-0.016
-608.201	11.588	-0.087	-0.066
-607.186	118.123	0.013	-0.016
-606.171	800.000	-0.053	-0.175
-605.157	235.596	0.188	0.308
-604.142	33.501	0.200	0.173
-603.128	249.370	-0.134	-0.226
-602.113	800.000	0.049	-0.184
-601.098	-84.831	-0.129	-0.040
-600.084	3.773	0.059	0.043
-599.069	800.000	-0.066	0.252
-598.055	515.004	-0.142	-0.330
-597.040	4.477	0.179	-0.130
-596.025	99.028	0.193	0.221
-595.011	23.990	-0.140	0.115
-593.996	-200.000	-0.019	-0.217
-592.982	360.085	0.045	0.090
-591.967	-172.178	-0.323	0.010
-590.952	376.671	-0.130	-0.263
-589.938	-70.406	0.408	0.154
-588.923	193.585	-0.189	-0.285
-587.909	-19.834	-0.279	-0.171
-586.894	329.825	0.061	0.117
-585.879	-28.067	0.210	-0.121
-584.865	-45.690	0.024	-0.012
-583.850	466.930	-0.087	0.195
-582.836	6.041	0.185	-0.136
-581.821	-118.971	0.179	0.031
-580.806	-12.041	-0.276	0.179
-579.792	86.425	-0.225	-0.246
-578.777	291.668	-0.085	-0.153
-577.763	-77.419	-0.181	0.062
-576.748	-200.000	-0.044	-0.357
-575.733	-124.623	0.334	-0.051
-574.719	-14.334	-0.224	0.143
-573.704	-6.466	0.208	0.141
-572.690	588.632	0.078	-0.190
-571.675	-106.167	0.019	0.004
-570.661	-200.000	-0.062	-0.280
-569.646	596.469	0.117	-0.289
-568.631	508.499	0.162	-0.373
-567.617	-80.762	-0.300	0.099
-566.602	-127.125	-0.055	-0.008
-565.588	-200.000	-0.064	-0.462
-564.573	-200.000	-0.070	0.313
-563.558	-22.127	-0.167	-0.101
-562.544	800.000	-0.088	-0.245
-561.529	-200.000	-0.037	0.276
-560.515	-200.000	-0.018	-0.420
-559.500	93.859	0.186	-0.210
-558.485	800.000	-0.032	-0.105
-557.471	32.917	0.128	0.110
-556.456	-58.467	-0.194	0.084
-555.442	46.808	-0.241	-0.222
-554.427	714.702	-0.164	-0.430
-553.412	78.928	0.177	-0.188
-552.398	-37.348	-0.162	0.086
-551.383	-200.000	-0.040	-0.320
-550.369	-2.040	-0.145	0.101
-549.354	3.557	0.222	0.160
-548.339	800.000	0.065	-0.224
-547.325	-89.597	0.352	-0.103
-546.310	-51.413	-0.092	-0.043
-545.296	765.084	-0.093	0.251
-544.281	10.709	0.045	-0.034
-543.266	-200.000	-0.012	-0.228
-542.252	-125.935	0.085	-0.013
-541.237	800.000	-0.142	0.483
-540.223	-62.964	-0.273	0.112
-539.208	19.236	-0.381	0.303
-538.193	-200.000	-0.015	0.163
-537.179	-131.174	0.280	0.037
-536.164	-107.649	-0.124	0.027
-535.150	598.794	0.093	-0.229
-534.135	34.243	0.176	0.152
-533.121	-89.437	-0.248	-0.072
-532.106	10.043	-0.137	-0.103
-531.091	-200.000	-0.021	0.327
-530.077	-111.345	-0.070	0.014
-529.062	114.325	-0.303	0.366
-528.048	-49.852	0.352	-0.166
-527.033	211.759	0.078	-0.121
-526.018	245.094	0.085	-0.142
-525.004	-48.014	-0.088	0.042
-523.989	800.000	0.058	-0.172
-522.975	-200.000	-0.025	-0.113
-521.960	-200.000	-0.043	-0.248
-520.945	593.436	0.067	-0.165
-519.931	800.000	0.047	0.158
-518.916	134.004	0.167	-0.214
-517.902	-200.000	-0.074	-0.407
-516.887	-44.235	0.193	0.096
-515.872	-142.999	-0.221	-0.021
-514.858	-100.854	0.170	0.042
-513.843	41.413	-0.388	0.348
-512.829	179.289	0.072	0.104
-511.814	298.802	-0.115	-0.211
-510.799	-200.000	-0.039	-0.237
-509.785	445.163	-0.164	-0.356
-508.770	-200.000	0.017	-0.123
-507.756	35.346	-0.160	0.139
-506.741	800.000	0.046	0.170
-505.726	-153.141	0.426	0.030
-504.712	-10.648	-0.255	-0.167
-503.697	-75.044	-0.387	-0.137
-502.683	-103.627	-0.049	0.011
-501.668	707.401	0.045	0.119
-500.653	-161.218	0.410	-0.021
-499.639	-88.608	0.141	-0.042
-498.624	-62.985	-0.347	-0.142
-497.610	-85.867	0.320	0.098
-496.595	231.526	-0.015	0.025
-495.581	154.974	0.038	0.052
-494.566	-81.743	-0.145	-0.047
-493.551	151.508	0.045	0.060
-492.537	250.087	0.074	-0.125
-491.522	-200.000	0.013	0.194
-490.508	-107.883	-0.215	0.046
-489.493	-200.000	0.043	-0.191
-488.478	67.726	0.130	-0.131
-487.464	134.656	-0.066	-0.085
-486.449	-53.056	-0.188	-0.085
-485.435	-155.764	-0.249	0.016
-484.420	419.607	-0.023	-0.048
-483.405	533.035	0.100	0.235
-482.391	182.594	0.178	-0.260
-481.376	-194.215	0.188	0.002
-480.362	-97.242	-0.053	0.014
-479.347	800.000	-0.095	0.329
-478.332	201.651	0.087	-0.133
-477.318	-200.000	0.007	0.291
-476.303	-18.723	-0.126	0.078
-475.289	-150.996	-0.067	-0.005
-474.274	-64.436	0.224	0.090
-473.259	-106.099	0.192	0.043
-472.245	273.305	-0.055	-0.096
-471.230	73.228	0.166	-0.171
-470.216	242.852	0.017	-0.029
-469.201	67.514	-0.098	0.099
-468.186	-97.396	-0.429	-0.111
-467.172	-21.218	0.059	-0.036
-466.157	-91.640	-0.092	0.026
-465.143	-15.455	0.131	0.083
-464.128	606.238	0.145	0.357
-463.113	41.515	0.224	-0.201
-462.099	202.503	-0.236	-0.360
-461.084	81.906	-0.140	-0.150
-460.070	-69.317	0.276	0.105
-459.055	-200.000	-0.018	0.397
-458.040	800.000	0.050	-0.145
-457.026	-200.000	0.026	-0.335
-456.011	389.204	0.046	-0.094
-454.997	800.000	-0.028	0.117
-453.982	62.145	-0.108	-0.107
-452.968	449.126	-0.007	-0.015
-451.953	214.601	0.116	-0.182
-450.938	-119.831	0.178	-0.030
-449.924	20.568	-0.152	-0.122
-448.909	-97.114	-0.103	-0.027
-447.895	-55.937	0.503	-0.222
-446.880	-84.056	-0.302	-0.095
-445.865	354.884	0.077	-0.152
-444.851	-46.854	-0.169	-0.081
-443.836	239.560	-0.098	0.161
-442.822	800.000	-0.057	-0.209
-441.807	184.741	0.092	0.135
-440.792	-101.910	-0.118	0.028
-439.778	-200.000	0.000	-0.004
-438.763	104.198	0.041	0.048
-437.749	-200.000	-0.011	0.072
-436.734	-200.000	0.039	0.349
-435.719	289.409	-0.128	-0.229
-434.705	459.457	-0.128	-0.282
-433.690	210.699	-0.039	0.061
-432.676	-35.279	-0.226	0.122
-431.661	-165.736	0.297	-0.013
-430.646	195.843	-0.086	-0.130
-429.632	21.334	0.158	0.127
-428.617	71.483	-0.156	0.160
-427.603	-75.670	0.454	-0.159
-426.588	442.578	0.139	0.301
-425.573	-200.000	0.041	-0.210
-424.559	-19.221	0.267	0.164
-423.544	-79.223	0.062	-0.021
-422.530	33.109	-0.270	0.231
-421.515	-20.756	-0.328	0.199
-420.500	31.753	-0.169	-0.143
-419.486	-200.000	0.008	0.116
-418.471	-91.017	-0.460	-0.130
-417.457	-200.000	-0.001	-0.049
-416.442	175.635	-0.101	0.145
-415.428	800.000	0.014	-0.049
-414.413	192.485	0.111	-0.165
-413.398	290.011	0.081	-0.146
-412.384	401.772	-0.186	-0.386
-411.369	800.000	0.043	-0.145
-410.355	178.985	0.078	0.113
-409.340	-200.000	-0.020	-0.101
-408.325	-113.384	0.173	0.033
-407.311	342.382	0.022	0.042
-406.296	310.713	-0.078	-0.144
-405.282	-200.000	0.022	-0.145
-404.267	-200.000	-0.038	0.332
-403.252	-46.070	0.214	0.104
-402.238	-200.000	-0.058	-0.289
-401.223	-33.703	-0.063	0.034
-400.209	800.000	-0.082	0.224
-399.194	-200.000	0.048	-0.310
-398.179	-187.274	-0.336	0.004
-397.165	-135.267	0.193	0.023
-396.150	800.000	0.037	0.114
-395.136	-15.393	0.228	-0.144
-394.121	800.000	0.029	-0.104
-393.106	-56.948	-0.261	-0.114
-392.092	-100.805	0.303	0.074
-391.077	800.000	-0.028	0.077
-390.063	-128.931	0.220	-0.030
-389.048	483.549	-0.094	0.211
-388.033	-13.525	0.154	-0.098
-387.019	-74.102	0.245	0.087
-386.004	-170.796	-0.393	-0.013
-384.990	-18.148	0.169	-0.104
-383.975	29.677	-0.161	0.135
-382.960	800.000	-0.054	0.210
-381.946	-17.275	0.124	-0.077
-380.931	-122.685	0.255	0.041
-379.917	-15.655	0.206	0.129
-378.902	-171.876	0.154	-0.005
-377.888	-178.348	0.089	-0.002
-376.873	32.273	-0.182	0.155
-375.858	-17.485	0.160	0.099
-374.844	-39.693	0.163	0.084
-373.829	-88.515	0.141	-0.042
-372.815	593.845	-0.111	0.271
-371.800	488.833	0.012	0.026
-370.785	-46.223	-0.070	0.034
-369.771	-74.912	0.194	-0.069
-368.756	-51.570	-0.086	0.039
-367.742	84.423	-0.145	0.156
-366.727	-200.000	-0.025	0.189
-365.712	344.184	-0.132	-0.256
-364.698	-170.700	0.181	-0.006
-363.683	-35.699	0.138	-0.074
-362.669	375.436	-0.076	-0.152
-361.654	-6.626	0.255	0.171
-360.639	80.137	-0.195	-0.206
-359.625	800.000	0.068	-0.200
-358.610	-200.000	0.008	0.318
-357.596	-200.000	-0.051	0.227
-356.581	25.025	-0.071	-0.058
-355.566	-111.578	-0.110	-0.022
-354.552	800.000	0.055	0.178
-353.537	-200.000	0.060	-0.365
-352.523	-48.705	-0.141	0.066
-351.508	207.267	0.197	0.303
-350.493	-39.874	0.247	0.127
-349.479	-142.921	-0.361	0.034
-348.464	-200.000	-0.048	0.233
-347.450	-82.706	0.143	0.045
-346.435	256.325	-0.071	0.119
-345.420	-200.000	0.037	0.177
-344.406	156.042	0.274	-0.372
-343.391	149.023	0.104	0.139
-342.377	270.099	-0.113	0.195
-341.362	-12.390	-0.173	0.111
-340.348	122.147	0.292	0.358
-339.333	302.414	-0.156	-0.284
-338.318	57.631	0.131	0.126
-337.304	12.810	0.314	0.238
-336.289	47.478	-0.203	-0.186
-335.275	-125.504	0.277	-0.041
-334.260	-200.000	-0.029	-0.196
-333.245	800.000	-0.053	-0.197
-332.231	237.613	-0.124	-0.202
-331.216	-200.000	-0.075	0.372
-330.202	8.455	-0.113	0.084
-329.187	22.406	-0.238	-0.191
-328.172	2.118	-0.076	-0.054
-327.158	170.948	0.329	0.464
-326.143	-200.000	0.010	0.279
-325.129	800.000	0.106	-0.448
-324.114	162.635	0.125	-0.173
-323.099	393.531	-0.044	0.089
-322.085	42.822	0.108	-0.097
-321.070	-61.520	-0.242	-0.100
-320.056	18.475	0.229	-0.180
-319.041	437.077	-0.106	0.228
-318.026	-19.967	0.134	-0.081
-317.012	272.014	-0.034	-0.059
-315.997	42.888	-0.072	-0.064
-314.983	800.000	0.128	0.359
-313.968	-33.955	-0.229	0.124
-312.953	44.600	-0.144	0.130
-311.939	-20.507	-0.142	-0.086
-310.924	28.641	0.031	-0.026
-309.910	16.129	-0.275	0.213
-308.895	760.888	-0.160	0.427
-307.880	-10.453	-0.415	-0.270
-306.866	-89.369	0.150	0.044
-305.851	485.404	0.048	0.107
-304.837	-200.000	0.023	0.194
-303.822	-106.471	-0.216	-0.047
-302.807	55.285	0.118	-0.112
-301.793	-47.630	-0.314	-0.150
-300.778	274.443	0.025	0.044
-299.764	14.194	0.211	0.161
-298.749	253.394	0.160	0.269
-297.735	47.118	-0.222	0.203
-296.720	36.767	-0.459	0.398
-295.705	800.000	0.065	0.181
-294.691	800.000	0.153	-0.451
-293.676	-52.670	-0.326	-0.148
-292.662	-42.843	-0.089	-0.044
-291.647	506.779	0.114	0.259
-290.632	-200.000	-0.001	-0.103
-289.618	221.859	0.063	-0.099
-288.603	2.739	0.159	-0.113
-287.589	-138.024	0.188	-0.021
-286.574	-177.657	0.042	-0.001
-285.559	-200.000	0.005	0.023
-284.545	51.763	0.095	0.089
-283.530	-200.000	0.037	0.280
-282.516	302.429	-0.162	0.294
-281.501	115.517	-0.090	-0.108
-280.486	-23.924	0.201	-0.118
-279.472	101.701	-0.166	0.190
-278.457	244.262	-0.175	0.288
-277.443	-200.000	-0.018	-0.115
-276.428	74.968	0.074	0.077
-275.413	800.000	0.048	-0.134
-274.399	2.594	0.270	-0.192
-273.384	800.000	0.048	-0.156
-272.370	-108.406	0.012	-0.002
-271.355	607.841	0.076	-0.186
-270.340	719.009	-0.006	-0.016
-269.326	401.189	0.026	-0.055
-268.311	328.643	0.143	-0.270
-267.297	204.960	0.130	0.198
-266.282	-37.645	0.297	-0.155
-265.267	-200.000	-0.006	0.144
-264.253	-200.000	0.071	-0.399
-263.238	125.282	-0.108	0.133
-262.224	-117.786	-0.247	-0.043
-261.209	-200.000	0.049	0.230
-260.195	800.000	-0.087	-0.240
-259.180	459.363	-0.037	-0.082
-258.165	-31.671	-0.237	0.131
-257.151	72.348	-0.141	0.144
-256.136	94.076	0.319	-0.355
-255.122	-79.640	-0.250	0.083
-254.107	-200.000	0.008	0.073
-253.092	800.000	0.056	-0.193
-252.078	-51.149	-0.225	0.103
-251.063	-109.839	-0.124	-0.025
-250.049	-200.000	0.024	0.326
-249.034	-55.555	0.419	-0.184
-248.019	-92.974	0.061	0.017
-247.005	505.139	-0.047	0.107
-245.990	-11.165	-0.397	0.256
-244.976	-74.239	0.105	-0.037
-243.961	54.047	-0.106	-0.100
-242.946	-200.000	0.040	-0.211
-241.932	178.632	0.123	-0.176
-240.917	800.000	-0.069	0.255
-239.903	-0.224	-0.198	0.138
-238.888	-200.000	0.023	0.183
-237.873	-62.082	0.229	0.094
-236.859	-114.920	-0.276	-0.052
-235.844	273.747	0.214	0.371
-234.830	-111.878	0.107	0.021
-233.815	-110.426	0.133	-0.027
-232.800	44.561	-0.279	0.252
-231.786	-75.480	0.334	0.116
-230.771	193.763	-0.063	-0.094
-229.757	408.674	-0.179	0.372
-228.742	-150.555	0.147	-0.011
-227.727	-179.019	0.234	-0.005
-226.713	-148.043	0.408	-0.033
-225.698	-117.051	-0.108	0.019
-224.684	-200.000	-0.059	-0.283
-223.669	268.734	-0.089	-0.152
-222.655	-39.141	0.019	0.010
-221.640	-35.674	-0.234	-0.124
-220.625	-131.966	0.079	0.010
-219.611	97.103	0.167	0.188
-218.596	-49.218	-0.442	0.207
-217.582	-84.752	-0.313	-0.096
-216.567	-174.557	-0.210	0.006
-215.552	356.373	0.107	0.208
-214.538	104.685	-0.203	-0.235
-213.523	-137.983	0.668	0.073
-212.509	82.953	-0.098	0.105
-211.494	-157.502	-0.192	-0.011
-210.479	800.000	0.075	-0.206
-209.465	-80.873	0.230	0.075
-208.450	51.153	-0.119	-0.111
-207.436	-75.024	0.441	-0.155
-206.421	-22.561	-0.195	-0.116
-205.406	-200.000	0.026	0.117
-204.392	-66.295	-0.086	-0.033
-203.377	12.433	-0.135	0.102
-202.363	532.167	-0.065	0.149
-201.348	-135.976	0.265	0.030
-200.333	-200.000	0.007	0.068
-199.319	170.765	0.053	-0.074
-198.304	-105.411	0.219	0.049
-197.290	-2.735	-0.406	0.278
-196.275	-163.758	-0.244	0.011
-195.260	-151.303	-0.102	0.007
-194.246	-200.000	0.055	0.469
-193.231	90.048	0.227	0.248
-192.217	-95.367	0.263	-0.069
-191.202	-13.347	-0.107	-0.068
-190.187	-117.120	0.071	0.013
-189.173	220.826	-0.178	0.280
-188.158	-200.000	-0.042	0.212
-187.144	66.296	0.231	0.230
-186.129	-200.000	0.024	-0.290
-185.114	369.265	-0.157	-0.311
-184.100	205.703	0.215	0.327
-183.085	800.000	-0.123	-0.433
-182.071	-69.806	0.118	0.044
-181.056	-200.000	-0.016	0.087
-180.042	303.268	-0.133	-0.241
-179.027	-82.780	0.371	-0.117
-178.012	-200.000	0.016	-0.247
-176.998	370.879	-0.070	0.140
-175.983	541.739	0.156	0.363
-174.969	-18.831	0.150	0.091
-173.954	431.249	-0.057	-0.120
-172.939	-143.111	0.159	0.015
-171.925	462.576	-0.079	0.171
-170.910	-200.000	0.011	0.062
-169.896	-7.235	0.187	0.124
-168.881	210.671	0.134	-0.206
-167.866	-1.044	-0.155	0.107
-166.852	62.156	0.128	-0.125
-165.837	417.862	-0.058	0.120
-164.823	16.262	0.151	-0.116
-163.808	-145.838	-0.215	0.019
-162.793	-63.016	0.260	0.105
-161.779	-27.712	-0.103	0.058
-160.764	-42.957	0.360	-0.178
-159.750	39.657	0.163	0.143
-158.735	27.796	-0.182	-0.150
-157.720	-166.035	0.441	0.018
-156.706	-48.847	-0.118	-0.056
-155.691	-200.000	0.044	-0.207
-154.677	-95.511	0.277	0.072
-153.662	101.743	-0.114	0.130
-152.647	-200.000	0.059	-0.273
-151.633	-69.433	0.156	0.059
-150.618	800.000	-0.062	0.194
-149.604	30.345	0.313	-0.261
-148.589	800.000	-0.083	-0.313
-147.574	-40.347	0.151	0.077
-146.560	-200.000	0.027	0.125
-145.545	-125.931	-0.109	0.016
-144.531	60.840	-0.174	-0.169
-143.516	45.568	0.306	-0.276
-142.502	689.566	0.118	0.302
-141.487	-127.583	0.177	0.025
-140.472	64.239	-0.056	0.055
-139.458	-108.923	0.143	0.030
-138.443	800.000	0.064	-0.192
-137.429	-133.483	0.339	-0.041
-136.414	-200.000	-0.080	0.428
-135.399	800.000	-0.018	-0.055
-134.385	800.000	0.088	-0.257
-133.370	266.637	-0.083	0.142
-132.356	800.000	-0.136	0.417
-131.341	137.258	0.158	0.202
-130.326	800.000	-0.041	0.148
-129.312	13.054	-0.329	-0.248
-128.297	21.386	-0.287	0.228
-127.283	56.301	0.123	0.116
-126.268	190.735	0.145	-0.213
-125.253	58.513	-0.124	-0.119
-124.239	-22.862	-0.252	-0.149
-123.224	-200.000	-0.004	-0.144
-122.210	-103.439	0.187	0.043
-121.195	800.000	-0.101	0.354
-120.180	509.187	0.049	-0.111
-119.166	-125.319	-0.631	-0.094
-118.151	800.000	-0.083	-0.230
-117.137	-56.304	-0.099	0.043
-116.122	86.574	0.100	0.107
-115.107	-200.000	0.003	-0.289
-114.093	-24.261	0.155	0.090
-113.078	230.594	-0.080	-0.128
-112.064	163.921	0.090	-0.123
-111.049	800.000	0.037	0.146
-110.034	234.623	-0.089	0.143
-109.020	783.812	-0.111	-0.296
-108.005	57.954	0.125	0.119
-106.991	800.000	0.063	-0.225
-105.976	-200.000	0.011	-0.104
-104.962	-57.342	-0.136	0.058
-103.947	2.512	-0.210	0.148
-102.932	243.893	-0.088	-0.144
-101.918	626.447	-0.062	0.154
-100.903	580.231	-0.077	-0.185
-99.889	168.943	-0.113	0.157
-98.874	-114.563	-0.451	0.084
-97.859	99.533	0.229	0.258
-96.845	-6.824	-0.158	0.104
-95.830	-67.902	0.145	-0.055
-94.816	800.000	-0.058	0.205
-93.801	445.800	0.185	0.397
-92.786	-200.000	0.008	-0.177
-91.772	5.755	0.106	0.077
-90.757	21.569	0.176	-0.140
-89.743	418.540	0.049	0.102
-88.728	235.050	-0.145	-0.233
-87.713	-63.221	-0.193	-0.077
-86.699	800.000	-0.068	0.199
-85.684	-93.412	0.243	-0.066
-84.670	-200.000	0.014	-0.169
-83.655	-200.000	-0.000	0.263
-82.640	30.924	-0.107	-0.089
-81.626	32.516	0.067	0.056
-80.611	37.914	0.080	-0.069
-79.597	503.574	0.175	-0.394
-78.582	-52.176	0.090	0.040
-77.567	-200.000	-0.001	-0.209
-76.553	-132.271	-0.172	-0.022
-75.538	-164.299	0.110	0.005
-74.524	67.114	-0.227	-0.226
-73.509	-76.686	-0.259	0.088
-72.494	485.904	-0.091	0.202
-71.480	56.019	0.210	0.199
-70.465	53.913	0.274	0.257
-69.451	-0.845	-0.084	0.058
-68.436	-97.240	-0.291	-0.074
-67.422	800.000	0.130	0.473
-66.407	126.734	0.052	-0.064
-65.392	134.631	-0.376	-0.475
-64.378	-89.562	-0.154	0.044
-63.363	-94.803	-0.112	-0.030
-62.349	800.000	-0.145	0.446
-61.334	74.351	-0.869	-0.889
-60.319	32.261	0.505	0.424
-59.305	786.755	-0.377	-1.006
-58.290	307.817	0.812	1.475
-57.276	-200.000	0.257	1.643
-56.261	-200.000	122.348	621.130
-55.246	404.691	1558.923	3196.772
-54.232	143.198	2730.212	3534.977
-53.217	89.079	2308.989	2501.852
-52.203	32.521	1916.641	1611.691
-51.188	26.578	1710.391	1392.642
-50.173	24.257	1671.794	1343.684
-49.159	44.845	1739.604	1557.621
-48.144	42.925	1751.631	1553.531
-47.130	26.086	1703.332	1382.903
-46.115	23.614	1687.518	1351.214
-45.100	23.336	1683.379	1345.734
-44.086	23.396	1680.393	1343.749
-43.071	23.356	1678.665	1342.017
-42.057	23.394	1675.471	1339.694
-41.042	23.506	1673.559	1338.955
-40.027	23.447	1671.801	1337.056
-39.013	23.462	1669.477	1335.254
-37.998	23.387	1668.296	1333.689
-36.984	23.441	1667.133	1333.113
-35.969	23.348	1666.047	1331.499
-34.954	23.576	1663.775	1331.341
-33.940	23.419	1662.940	1329.440
-32.925	23.460	1660.817	1327.997
-31.911	23.472	1659.068	1326.635
-30.896	23.483	1657.132	1325.120
-29.881	23.509	1655.638	1324.064
-28.867	23.520	1654.070	1322.837
-27.852	23.489	1652.899	1321.619
-26.838	23.512	1651.478	1320.600
-25.823	23.474	1649.643	1318.798
-24.809	23.491	1648.776	1318.180
-23.794	23.531	1647.103	1317.089
-22.779	23.536	1645.621	1315.887
-21.765	23.425	1644.431	1314.058
-20.750	23.469	1642.371	1312.689
-19.736	23.523	1640.992	1311.936
-18.721	23.563	1639.536	1311.009
-17.706	23.553	1637.727	1309.440
-16.692	23.551	1635.868	1307.890
-15.677	23.545	1634.971	1307.075
-14.663	23.568	1633.621	1306.115
-13.648	23.562	1632.381	1305.026
-12.633	23.499	1631.302	1303.648
-11.619	23.450	1630.035	1302.222
-10.604	23.578	1627.822	1301.340
-9.590	23.632	1626.585	1300.698
-8.575	23.642	1625.021	1299.471
-7.560	23.593	1624.087	1298.314
-6.546	23.477	1623.002	1296.547
-5.531	23.499	1621.963	1295.827
-4.517	23.365	1621.534	1294.450
-3.502	23.480	1620.026	1294.037
-2.487	23.613	1617.452	1292.894
-1.473	23.327	1606.491	1282.012
-0.458	20.834	1587.410	1248.888
0.556	15.880	1590.435	1220.234
1.571	13.918	1615.161	1224.646
2.586	13.632	1628.252	1232.336
3.600	12.614	1573.298	1183.321
4.615	6.950	1464.593	1063.455
5.629	1.298	1405.490	983.888
6.644	0.258	1398.460	972.172
7.659	0.227	1397.550	971.255
8.673	0.143	1396.808	970.115
9.688	0.172	1393.835	968.151
10.702	0.024	1391.339	965.380
11.717	2.661	1395.511	985.149
12.731	9.674	1405.834	1037.625
13.746	15.122	1413.969	1078.716
14.761	16.552	1415.322	1088.866
15.775	16.112	1413.414	1084.472
16.790	15.151	1410.506	1075.977
17.804	14.351	1408.842	1069.477
18.819	14.003	1406.999	1065.753
19.834	13.882	1405.305	1063.600
20.848	13.517	1404.329	1060.431
21.863	13.417	1402.998	1058.692
22.877	13.231	1401.678	1056.412
23.892	13.223	1400.800	1055.606
24.907	13.036	1400.039	1053.747
25.921	13.022	1399.435	1053.108
26.936	13.062	1398.329	1052.435
27.950	13.169	1397.447	1052.361
28.965	13.123	1396.483	1051.252
29.980	13.324	1395.275	1051.523
30.994	13.352	1394.241	1050.829
32.009	13.432	1393.028	1050.331
33.023	13.377	1392.361	1049.389
34.038	13.323	1391.222	1048.095
35.053	13.250	1390.152	1046.732
36.067	13.282	1388.967	1045.947
37.082	13.353	1387.631	1045.299
38.096	13.343	1387.038	1044.696
39.111	13.225	1386.069	1043.130
40.126	13.219	1385.440	1042.530
41.140	13.126	1384.619	1041.234
42.155	13.053	1384.633	1040.687
43.169	13.155	1383.673	1040.520
44.184	13.127	1383.416	1040.059
45.199	13.115	1382.965	1039.552
46.213	13.105	1382.494	1039.039
47.228	13.187	1381.909	1039.027
48.242	13.292	1379.874	1038.060
49.257	13.169	1378.746	1036.349
50.271	13.231	1377.192	1035.480
51.286	13.207	1375.789	1034.180
52.301	13.238	1374.714	1033.475
53.315	13.194	1373.991	1032.567
54.330	13.238	1372.424	1031.571
55.344	13.187	1371.319	1030.334
56.359	13.134	1370.206	1029.076
57.374	13.194	1369.231	1028.622
58.388	13.178	1368.793	1028.104
59.403	13.035	1368.412	1026.836
60.417	13.157	1367.010	1026.453
61.432	13.138	1366.354	1025.752
62.447	13.119	1365.096	1024.597
63.461	12.965	1363.875	1022.639
64.476	12.971	1363.080	1021.991
65.490	13.049	1361.290	1021.035
66.505	13.070	1360.073	1020.166
67.520	13.018	1359.044	1018.982
68.534	13.166	1357.863	1018.918
69.549	13.027	1357.122	1017.419
70.563	13.042	1355.763	1016.401
71.578	13.063	1354.341	1015.373
72.593	13.030	1353.739	1014.629
73.607	12.979	1353.312	1013.907
74.622	13.013	1352.209	1013.201
75.636	13.121	1351.125	1012.955
76.651	12.981	1350.391	1011.459
77.666	12.940	1349.778	1010.659
78.680	13.082	1349.083	1010.919
79.695	13.007	1348.195	1009.706
80.709	12.987	1348.096	1009.421
81.724	13.089	1347.183	1009.273
82.739	13.089	1345.888	1008.212
83.753	13.210	1344.752	1008.009
84.768	13.253	1343.749	1007.429
85.782	13.274	1342.775	1006.737
86.797	13.178	1341.456	1005.077
87.812	13.224	1339.798	1004.027
88.826	13.168	1338.883	1002.911
89.841	13.141	1337.629	1001.721
90.855	13.207	1336.963	1001.534
91.870	13.319	1335.883	1001.310
92.884	13.295	1335.187	1000.557
93.899	13.320	1334.242	999.910
94.914	13.281	1333.506	999.033
95.928	13.335	1333.017	998.908
96.943	13.310	1332.013	997.915
97.957	13.353	1330.696	997.098
98.972	13.215	1330.225	995.824
99.987	13.265	1328.755	994.939
101.001	13.273	1327.534	993.989
102.016	13.268	1326.891	993.389
103.030	13.232	1326.028	992.437
104.045	13.262	1324.646	991.495
105.060	13.126	1324.243	990.289
106.074	13.151	1322.574	989.105
107.089	13.116	1320.739	987.434
108.103	13.132	1319.944	986.849
109.118	13.157	1318.123	985.549
110.133	13.092	1316.813	984.095
111.147	13.210	1315.047	983.387
112.162	13.293	1314.118	983.102
113.176	13.168	1313.390	981.727
114.191	13.199	1312.204	980.937
115.206	13.261	1310.899	980.240
116.220	13.119	1310.305	978.870
117.235	13.163	1308.662	977.817
118.249	13.186	1307.963	977.342
119.264	13.176	1306.364	976.003
120.279	13.214	1305.138	975.225
121.293	13.144	1304.249	974.064
122.308	13.098	1303.977	973.501
123.322	13.100	1302.779	972.533
124.337	13.200	1301.007	971.711
125.352	13.023	1300.317	970.073
126.366	13.115	1299.135	969.644
127.381	13.090	1297.965	968.539
128.395	13.070	1296.692	967.385
129.410	13.161	1295.878	967.226
130.424	13.102	1295.279	966.347
131.439	13.153	1294.469	965.957
132.454	13.180	1292.949	964.892
133.468	13.250	1291.852	964.399
134.483	13.314	1291.023	964.067
135.497	13.233	1290.500	963.120
136.512	13.234	1288.679	961.679
137.527	13.135	1287.594	960.210
138.541	13.139	1286.206	959.112
139.556	13.141	1285.114	958.224
140.570	13.247	1284.170	958.054
141.585	13.264	1282.722	956.985
142.600	13.292	1281.289	955.994
143.614	13.421	1280.398	955.990
144.629	13.355	1279.384	954.767
145.643	13.400	1278.650	954.392
146.658	13.299	1277.297	952.717
147.673	13.294	1275.786	951.480
148.687	13.282	1274.708	950.521
149.702	13.298	1272.911	949.189
150.716	13.279	1271.789	948.158
151.731	13.284	1271.431	947.837
152.746	13.311	1269.631	946.564
153.760	13.307	1268.501	945.614
154.775	13.307	1267.544	944.817
155.789	13.361	1266.027	943.912
156.804	13.471	1265.041	943.719
157.819	13.499	1263.848	942.910
158.833	13.472	1262.837	941.915
159.848	13.517	1261.948	941.424
160.862	13.520	1260.608	940.363
161.877	13.501	1259.731	939.513
162.892	13.394	1259.056	938.321
163.906	13.422	1257.929	937.558
164.921	13.460	1256.833	936.872
165.935	13.574	1255.572	936.491
166.950	13.538	1255.267	935.979
167.964	13.515	1254.502	935.197
168.979	13.577	1253.825	934.958
169.994	13.607	1252.770	934.260
171.008	13.448	1252.209	932.864
172.023	13.512	1251.375	932.520
173.037	13.568	1250.971	932.448
174.052	13.567	1249.706	931.419
175.067	13.651	1248.503	930.913
176.081	13.412	1247.883	929.027
177.096	13.544	1246.994	929.021
178.110	13.560	1245.576	927.973
179.125	13.615	1244.607	927.475
180.140	13.542	1243.582	926.224
181.154	13.524	1242.089	924.930
182.169	13.703	1240.536	924.686
183.183	13.679	1239.549	923.736
184.198	13.674	1238.637	922.950
185.213	13.678	1237.384	921.957
186.227	13.801	1236.340	921.776
187.242	13.769	1235.214	920.679
188.256	13.808	1234.363	920.181
189.271	13.937	1233.156	919.911
190.286	13.724	1232.086	917.854
191.300	13.638	1231.666	916.988
192.315	13.643	1230.884	916.350
193.329	13.603	1230.203	915.540
194.344	13.698	1229.537	915.487
195.359	13.792	1229.184	915.661
196.373	13.728	1228.520	914.734
197.388	13.880	1227.507	914.738
198.402	13.879	1227.474	914.629
199.417	14.043	1226.402	914.652
200.432	13.859	1225.982	913.243
201.446	14.008	1224.965	913.226
202.461	14.001	1223.888	912.299
203.475	14.095	1222.788	911.918
204.490	14.041	1221.923	910.896
205.504	13.987	1219.883	908.999
206.519	13.992	1218.967	908.264
207.534	13.915	1218.129	907.137
208.548	14.008	1217.274	906.929
209.563	14.012	1216.209	906.076
210.577	14.024	1215.724	905.699
211.592	14.025	1214.856	904.979
212.607	14.201	1213.860	905.116
213.621	13.968	1213.430	903.446
214.636	14.147	1212.233	903.445
215.650	14.084	1211.741	902.661
216.665	14.301	1209.827	902.328
217.680	14.301	1209.139	901.734
218.694	14.313	1208.059	900.915
219.709	14.278	1207.344	900.112
220.723	14.251	1206.925	899.575
221.738	14.296	1206.246	899.231
222.753	14.176	1205.798	898.170
223.767	14.301	1204.803	898.023
224.782	14.269	1204.465	897.523
225.796	14.263	1203.552	896.730
226.811	14.448	1202.555	896.901
227.826	14.386	1202.102	896.154
228.840	14.364	1201.319	895.369
229.855	14.387	1200.577	894.861
230.869	14.333	1199.923	894.003
231.884	14.308	1199.149	893.214
232.899	14.280	1198.187	892.268
233.913	14.350	1197.634	892.153
234.928	14.278	1196.809	891.077
235.942	14.441	1195.550	890.931
236.957	14.310	1195.341	889.996
237.972	14.453	1193.917	889.620
238.986	14.291	1193.519	888.380
240.001	14.334	1192.886	888.058
241.015	14.333	1192.044	887.348
242.030	14.400	1191.221	887.017
243.045	14.427	1190.336	886.421
244.059	14.418	1189.466	885.646
245.074	14.421	1188.904	885.163
246.088	14.499	1188.213	884.987
247.103	14.493	1187.192	884.115
248.117	14.520	1186.642	883.773
249.132	14.574	1185.624	883.222
250.147	14.747	1184.604	883.296
251.161	14.744	1184.120	882.842
252.176	14.773	1183.381	882.366
253.190	14.762	1182.672	881.703
254.205	14.726	1182.472	881.285
255.220	14.773	1181.901	881.030
256.234	14.724	1181.258	880.215
257.249	14.906	1180.047	880.194
258.263	14.977	1179.471	880.058
259.278	14.928	1179.008	879.375
260.293	14.827	1178.497	878.386
261.307	15.020	1178.048	878.987
262.322	14.866	1177.183	877.457
263.336	14.980	1176.077	877.151
264.351	14.992	1175.938	877.037
265.366	15.071	1175.369	876.948
266.380	14.897	1174.649	875.419
267.395	14.993	1173.376	874.897
268.409	15.048	1172.535	874.480
269.424	14.895	1172.426	873.519
270.439	14.928	1171.878	873.206
271.453	14.923	1171.352	872.711
272.468	14.910	1170.246	871.741
273.482	14.985	1169.299	871.354
274.497	15.066	1168.780	871.311
275.512	15.123	1167.807	870.801
276.526	15.039	1167.380	869.969
277.541	14.993	1166.839	869.253
278.555	15.060	1165.724	868.693
279.570	15.184	1165.063	868.767
280.585	15.169	1164.047	867.854
281.599	15.107	1163.370	866.952
282.614	15.222	1161.872	866.353
283.628	15.173	1161.187	865.512
284.643	15.224	1160.189	864.954
285.657	15.175	1159.324	863.982
286.672	15.280	1158.410	863.763
287.687	15.253	1157.376	862.776
288.701	15.309	1156.943	862.669
289.716	15.270	1155.807	861.543
290.730	15.284	1155.079	860.998
291.745	15.234	1154.619	860.319
292.760	15.398	1153.650	860.364
293.774	15.239	1153.471	859.340
294.789	15.302	1152.961	859.207
295.803	15.392	1151.990	858.866
296.818	15.415	1150.962	858.139
297.833	15.380	1150.314	857.401
298.847	15.400	1149.634	856.924
299.862	15.463	1148.844	856.578
300.876	15.475	1147.869	855.840
301.891	15.431	1147.446	855.225
302.906	15.499	1146.855	855.055
303.920	15.598	1146.009	854.852
304.935	15.525	1145.641	854.129
305.949	15.700	1144.452	854.056
306.964	15.628	1144.076	853.336
307.979	15.630	1143.161	852.589
308.993	15.569	1142.788	851.925
310.008	15.684	1141.580	851.529
311.022	15.683	1141.071	851.069
312.037	15.705	1140.126	850.401
313.052	15.715	1139.160	849.655
314.066	15.689	1137.852	848.474
315.081	15.687	1137.299	847.978
316.095	15.570	1136.667	846.838
317.110	15.668	1135.844	846.648
318.125	15.563	1135.191	845.557
319.139	15.671	1134.751	845.697
320.154	15.578	1134.087	844.660
321.168	15.692	1133.184	844.485
322.183	15.651	1132.833	843.945
323.197	15.628	1132.352	843.395
324.212	15.600	1131.966	842.892
325.227	15.873	1130.494	843.086
326.241	15.764	1130.136	842.199
327.256	15.756	1129.564	841.663
328.270	15.728	1128.476	840.636
329.285	15.823	1127.160	840.053
330.300	15.771	1126.382	839.142
331.314	15.813	1125.343	838.502
332.329	15.716	1124.818	837.556
333.343	15.824	1123.960	837.377
334.358	15.817	1123.124	836.647
335.373	15.866	1122.139	836.082
336.387	15.914	1121.144	835.505
337.402	15.865	1120.697	834.855
338.416	15.968	1119.952	834.735
339.431	15.912	1119.507	834.054
340.446	16.072	1118.852	834.285
341.460	16.118	1117.837	833.681
342.475	15.945	1117.453	832.465
343.489	16.120	1116.093	832.242
344.504	16.173	1115.251	831.804
345.519	16.300	1113.985	831.412
346.533	16.074	1113.658	829.981
347.548	16.197	1112.965	829.995
348.562	16.175	1112.368	829.368
349.577	16.236	1111.008	828.579
350.592	16.249	1110.310	828.048
351.606	16.203	1109.681	827.282
352.621	16.122	1109.334	826.554
353.635	16.059	1108.573	825.602
354.650	16.186	1107.373	825.256
355.665	16.165	1106.919	824.746
356.679	16.168	1106.639	824.480
357.694	16.208	1105.920	824.064
358.708	16.250	1105.336	823.761
359.723	16.234	1104.797	823.210
360.738	16.272	1103.719	822.520
361.752	16.247	1103.486	822.148
362.767	16.278	1102.691	821.636
363.781	16.359	1102.063	821.488
364.796	16.414	1101.362	821.163
365.810	16.337	1101.175	820.573
366.825	16.413	1100.494	820.361
367.840	16.532	1099.421	820.069
368.854	16.548	1098.579	819.443
369.869	16.603	1098.184	819.344
370.883	16.474	1097.404	818.068
371.898	16.383	1096.713	817.040
372.913	16.455	1096.269	816.983
373.927	16.501	1095.988	816.922
374.942	16.627	1095.038	816.752
375.956	16.633	1094.165	816.057
376.971	16.592	1093.988	815.655
377.986	16.575	1093.746	815.320
379.000	16.684	1093.198	815.367
380.015	16.800	1091.931	814.908
381.029	16.705	1091.547	814.092
382.044	16.861	1090.560	814.033
383.059	16.797	1089.908	813.165
384.073	16.866	1089.001	812.748
385.088	16.895	1087.932	812.018
386.102	16.848	1087.495	811.392
387.117	16.791	1086.457	810.277
388.132	16.769	1085.361	809.279
389.146	16.788	1084.843	808.912
390.161	16.765	1084.116	808.193
391.175	16.860	1083.272	807.945
392.190	16.877	1082.685	807.513
393.205	16.871	1081.930	806.850
394.219	16.796	1081.130	805.826
395.234	16.884	1079.856	805.224
396.248	16.921	1078.989	804.682
397.263	16.909	1077.980	803.803
398.278	17.072	1077.012	803.780
399.292	16.839	1076.803	802.450
400.307	16.865	1076.102	801.980
401.321	16.866	1075.615	801.548
402.336	16.955	1074.749	801.256
403.350	16.911	1074.192	800.561
404.365	16.853	1073.563	799.748
405.380	16.968	1072.755	799.616
406.394	17.049	1071.735	799.165
407.409	17.004	1071.179	798.472
408.423	17.074	1070.449	798.186
409.438	17.132	1070.086	798.117
410.453	17.250	1069.116	797.877
411.467	17.299	1067.958	797.169
412.482	17.202	1067.370	796.207
413.496	17.231	1066.842	795.876
414.511	17.227	1066.406	795.465
415.526	17.233	1065.910	795.051
416.540	17.313	1065.391	794.969
417.555	17.294	1065.113	794.603
418.569	17.324	1064.372	794.119
419.584	17.290	1063.721	793.404
420.599	17.306	1063.205	793.026
421.613	107.505	1330.887	1487.931
422.628	99.300	1369.833	1487.990
