DTS Sentinel unit serial number:	SN413079Multiplexer serial number:	ORYXHardware model number:	OX4-SRSoftware version number:	ORYX F/W v4.00 Oryx Data Collector v3.7.2.0data status	okinstallation	princeton_trtdifferential loss correction	single-endedforward channel	channel 2reverse channel	N/Adate	2019/09/10time	20:41:11forward acquisition time	60.00reverse acquisition time	0.00gamma	496.2192k internal	0.2330k external	0.2330temperature offset calibration	0.9946default loss term (dB/km)	0.3790temperature slope calibration	1.0000multiplexer offset coefficient	1.0000multiplexer slope coefficient	1.0000fibre end	0.00T internal ref (°C)	31.87T ext. ref 1 (°C)	-0.31T ext. ref 2 (°C)	25.20length (m)	temperature (°C)	Stokes	anti-Stokes-747.200	800.000	0.033	-0.141
-746.185	800.000	0.016	0.053
-745.171	424.249	-0.055	-0.120
-744.156	800.000	-0.103	0.343
-743.142	19.811	-0.044	-0.036
-742.127	-178.701	0.122	-0.003
-741.112	458.196	-0.072	0.161
-740.098	-200.000	-0.068	0.369
-739.083	-104.023	0.153	0.036
-738.069	-110.114	-0.159	0.034
-737.054	267.298	-0.150	0.265
-736.039	-145.549	-0.274	-0.025
-735.025	800.000	0.120	0.390
-734.010	12.448	-0.160	-0.124
-732.996	-47.923	-0.097	0.047
-731.981	144.493	-0.112	0.151
-730.966	-200.000	-0.038	0.221
-729.952	454.981	-0.087	-0.195
-728.937	40.817	-0.187	-0.170
-727.923	-109.343	-0.195	-0.042
-726.908	-200.000	-0.010	0.087
-725.894	265.098	0.075	-0.132
-724.879	-6.228	-0.201	0.138
-723.864	-100.848	-0.227	-0.056
-722.850	-61.344	0.166	-0.070
-721.835	229.304	-0.056	-0.091
-720.821	270.002	0.052	0.093
-719.806	708.186	0.067	0.177
-718.791	-200.000	-0.160	0.001
-717.777	-0.073	-0.096	0.069
-716.762	192.085	0.098	0.148
-715.748	-87.827	0.329	0.100
-714.733	-145.910	-0.262	0.023
-713.718	585.894	0.074	-0.182
-712.704	-200.000	-0.022	-0.188
-711.689	347.028	0.204	-0.405
-710.675	-200.000	0.022	0.170
-709.660	-167.502	0.273	0.011
-708.645	-38.577	-0.076	0.040
-707.631	293.518	0.105	-0.193
-706.616	-12.789	0.008	0.006
-705.602	322.007	0.087	0.167
-704.587	94.389	-0.263	0.300
-703.572	-98.798	0.078	0.020
-702.558	98.878	0.137	0.159
-701.543	-117.736	0.100	0.018
-700.529	-87.734	-0.128	0.039
-699.514	234.005	0.159	0.263
-698.499	-41.381	0.020	-0.011
-697.485	-153.073	0.103	-0.007
-696.470	-200.000	0.017	-0.398
-695.456	-200.000	-0.059	-0.295
-694.441	15.945	0.190	0.151
-693.426	-26.699	-0.105	-0.062
-692.412	-200.000	-0.016	-0.278
-691.397	737.726	0.151	-0.406
-690.383	-163.638	-0.289	-0.014
-689.368	181.433	-0.129	0.190
-688.354	12.170	0.443	-0.342
-687.339	-32.874	0.319	-0.178
-686.324	-63.734	-0.344	-0.142
-685.310	187.984	-0.141	-0.211
-684.295	-47.063	-0.158	-0.078
-683.281	-16.629	0.337	0.215
-682.266	-200.000	0.042	0.262
-681.251	-141.451	0.128	0.013
-680.237	235.680	0.162	0.268
-679.222	-49.356	0.208	-0.100
-678.208	-11.237	-0.295	-0.195
-677.193	-0.419	0.241	-0.172
-676.178	800.000	-0.106	-0.437
-675.164	109.830	0.163	-0.197
-674.149	175.472	-0.244	-0.355
-673.135	-83.587	0.093	-0.030
-672.120	-72.565	0.101	-0.037
-671.105	-50.637	-0.116	0.055
-670.091	-16.765	-0.063	-0.040
-669.076	-200.000	-0.356	-0.001
-668.062	-140.080	-0.283	0.030
-667.047	187.418	0.223	-0.335
-666.032	-200.000	-0.345	-0.001
-665.018	217.878	-0.135	0.216
-664.003	800.000	-0.046	0.164
-662.989	8.783	-0.361	0.273
-661.974	800.000	-0.017	0.060
-660.959	54.423	-0.104	-0.100
-659.945	-117.343	-0.238	-0.043
-658.930	22.305	0.056	0.046
-657.916	148.624	0.163	-0.222
-656.901	69.244	-0.059	0.061
-655.886	-200.000	0.007	-0.229
-654.872	408.550	-0.152	0.324
-653.857	-22.363	0.128	-0.078
-652.843	111.916	0.121	-0.147
-651.828	247.181	0.156	0.264
-650.814	800.000	-0.016	0.066
-649.799	-200.000	-0.010	0.048
-648.784	-135.789	-0.211	0.025
-647.770	58.185	0.085	-0.083
-646.755	387.249	-0.048	-0.099
-645.741	-171.110	-0.269	-0.009
-644.726	-95.992	0.285	-0.076
-643.711	406.343	0.022	-0.046
-642.697	-200.000	-0.034	-0.695
-641.682	800.000	-0.044	-0.136
-640.668	-78.696	0.302	-0.104
-639.653	-200.000	-0.020	-0.090
-638.638	-200.000	0.011	0.416
-637.624	-22.875	0.101	-0.061
-636.609	125.596	0.025	0.032
-635.595	-123.351	0.389	0.062
-634.580	293.566	0.107	-0.196
-633.565	-27.030	-0.101	0.059
-632.551	-55.894	0.219	-0.098
-631.536	105.736	-0.152	-0.180
-630.522	-123.846	0.300	-0.047
-629.507	-34.532	-0.282	0.155
-628.492	-123.758	-0.295	0.047
-627.478	-13.258	-0.197	-0.128
-626.463	-151.758	0.135	0.010
-625.449	800.000	0.061	0.208
-624.434	271.291	-0.086	0.152
-623.419	-146.542	0.248	-0.022
-622.405	800.000	0.037	-0.150
-621.390	187.236	0.008	0.013
-620.376	-200.000	-0.025	0.262
-619.361	-30.729	0.091	-0.051
-618.346	-67.990	-0.159	-0.062
-617.332	392.041	-0.103	-0.214
-616.317	-138.996	-0.268	0.029
-615.303	126.525	-0.241	-0.306
-614.288	49.267	-0.162	-0.152
-613.273	57.492	-0.128	0.125
-612.259	13.107	-0.257	0.199
-611.244	-116.915	-0.033	0.006
-610.230	-94.089	0.060	0.017
-609.215	745.377	0.076	0.206
-608.201	800.000	0.150	-0.543
-607.186	93.936	-0.084	0.095
-606.171	209.164	0.104	-0.163
-605.157	126.083	0.076	-0.096
-604.142	-11.263	-0.167	-0.110
-603.128	-96.951	-0.405	0.106
-602.113	-200.000	-0.030	0.282
-601.098	-200.000	-0.019	0.353
-600.084	51.594	-0.253	0.241
-599.069	1.005	0.178	0.128
-598.055	16.244	-0.086	-0.068
-597.040	384.282	0.126	0.260
-596.025	800.000	-0.041	0.140
-595.011	-100.721	-0.284	-0.070
-593.996	-145.335	0.236	0.021
-592.982	197.267	-0.133	0.204
-591.967	265.733	0.201	0.351
-590.952	-156.263	-0.275	0.017
-589.938	-17.977	-0.213	0.133
-588.923	9.679	0.099	0.075
-587.909	-41.455	0.187	-0.096
-586.894	77.591	-0.113	-0.120
-585.879	-2.851	0.175	0.122
-584.865	128.315	-0.126	0.161
-583.850	49.767	-0.151	0.143
-582.836	-2.283	0.091	-0.064
-581.821	-200.000	0.020	0.245
-580.806	2.832	-0.091	-0.066
-579.792	282.495	-0.057	0.101
-578.777	-200.000	-0.001	0.030
-577.763	-103.217	-0.124	-0.029
-576.748	62.939	0.029	0.029
-575.733	-134.614	-0.241	-0.029
-574.719	-140.395	-0.092	0.010
-573.704	65.503	0.132	0.134
-572.690	-200.000	-0.001	0.376
-571.675	461.865	0.055	0.122
-570.661	46.304	0.119	0.111
-569.646	40.905	-0.053	0.048
-568.631	769.655	-0.090	-0.245
-567.617	125.891	-0.042	-0.052
-566.602	78.151	0.213	-0.227
-565.588	665.873	0.080	-0.206
-564.573	129.868	0.182	0.233
-563.558	-46.591	-0.212	0.104
-562.544	-13.245	-0.091	0.059
-561.529	337.750	0.234	0.455
-560.515	-200.000	0.015	0.239
-559.500	29.258	-0.139	0.118
-558.485	181.789	-0.150	0.221
-557.471	86.691	0.202	0.222
-556.456	-200.000	0.030	0.000
-555.442	-200.000	0.035	-0.296
-554.427	54.088	-0.105	-0.101
-553.412	270.098	0.134	-0.235
-552.398	800.000	-0.031	-0.126
-551.383	211.575	-0.121	-0.190
-550.369	-23.572	-0.093	0.056
-549.354	-119.142	-0.513	-0.090
-548.339	236.493	0.124	-0.205
-547.325	-200.000	0.002	-0.057
-546.310	-200.000	0.037	0.297
-545.296	398.772	0.129	-0.270
-544.281	6.698	-0.176	0.131
-543.266	-81.102	-0.120	0.040
-542.252	143.183	0.041	0.054
-541.237	377.608	-0.133	0.273
-540.223	696.857	0.113	-0.297
-539.208	-200.000	0.020	0.149
-538.193	-200.000	-0.027	-0.323
-537.179	-200.000	-0.029	-0.169
-536.164	21.246	-0.181	0.147
-535.150	650.952	0.035	-0.090
-534.135	710.770	0.158	0.417
-533.121	-200.000	0.002	0.139
-532.106	199.251	0.107	0.164
-531.091	70.464	0.105	-0.109
-530.077	800.000	0.035	-0.129
-529.062	-18.642	0.128	0.079
-528.048	251.446	0.085	-0.145
-527.033	-140.240	-0.252	0.026
-526.018	-95.329	0.357	0.096
-525.004	-200.000	-0.023	0.179
-523.989	-33.307	-0.129	-0.071
-522.975	-24.007	-0.218	-0.130
-521.960	-100.735	0.401	-0.099
-520.945	158.170	0.090	-0.124
-519.931	-200.000	-0.008	-0.213
-518.916	-162.605	0.220	-0.011
-517.902	-200.000	-0.002	0.337
-516.887	295.639	0.089	-0.162
-515.872	179.211	-0.211	-0.308
-514.858	-14.036	0.236	-0.152
-513.843	-62.934	0.201	0.083
-512.829	800.000	-0.058	0.240
-511.814	-31.834	-0.117	-0.065
-510.799	800.000	0.068	-0.241
-509.785	-11.215	-0.186	0.122
-508.770	-155.830	0.249	0.016
-507.756	-56.751	-0.258	-0.114
-506.741	-131.127	-0.433	-0.058
-505.726	412.228	-0.074	0.158
-504.712	-145.728	-0.187	0.017
-503.697	-76.053	-0.221	-0.078
-502.683	-12.754	0.288	0.187
-501.668	169.367	0.198	0.282
-500.653	88.307	-0.142	0.157
-499.639	280.652	-0.081	0.145
-498.624	-67.181	-0.213	-0.083
-497.610	-65.211	0.395	0.159
-496.595	22.162	-0.085	0.070
-495.581	6.126	-0.050	0.037
-494.566	198.788	0.131	0.200
-493.551	31.208	-0.206	0.176
-492.537	-138.074	-0.122	-0.013
-491.522	-136.715	-0.136	0.016
-490.508	5.843	0.141	0.104
-489.493	-138.001	-0.133	-0.015
-488.478	72.504	-0.093	0.097
-487.464	201.182	0.140	0.216
-486.449	372.456	0.177	-0.359
-485.435	-121.280	0.154	0.026
-484.420	256.178	-0.043	-0.074
-483.405	-200.000	-0.034	0.285
-482.391	-77.012	-0.294	-0.102
-481.376	-130.495	-0.303	-0.041
-480.362	357.874	0.133	0.264
-479.347	800.000	0.132	0.422
-478.332	-112.887	-0.092	0.018
-477.318	50.469	0.172	0.162
-476.303	-180.611	0.268	0.005
-475.289	-200.000	0.002	-0.205
-474.274	87.599	0.125	-0.138
-473.259	226.340	0.129	-0.208
-472.245	-200.000	0.007	0.150
-471.230	-62.491	-0.217	0.090
-470.216	178.102	-0.061	0.089
-469.201	800.000	0.025	-0.103
-468.186	-200.000	-0.022	0.177
-467.172	-41.376	0.090	-0.046
-466.157	800.000	0.043	0.174
-465.143	-67.330	0.425	0.166
-464.128	242.079	0.153	-0.256
-463.113	-166.377	-0.441	-0.018
-462.099	800.000	0.075	0.218
-461.084	138.779	0.178	-0.232
-460.070	121.910	0.149	-0.185
-459.055	1.760	-0.096	0.069
-458.040	281.624	-0.120	-0.213
-457.026	-200.000	0.189	-0.000
-456.011	79.623	0.050	0.053
-454.997	-200.000	-0.023	-0.445
-453.982	-84.912	-0.352	-0.110
-452.968	-2.752	-0.117	0.081
-451.953	800.000	-0.046	-0.164
-450.938	-24.623	-0.325	0.192
-449.924	260.309	-0.066	0.114
-448.909	800.000	-0.078	0.305
-447.895	-117.467	0.131	-0.024
-446.880	477.592	-0.054	-0.122
-445.865	-41.784	0.354	-0.181
-444.851	-200.000	0.021	0.412
-443.836	-200.000	0.035	0.433
-442.822	-151.738	0.145	-0.011
-441.807	-200.000	-0.043	-0.232
-440.792	392.727	0.226	0.468
-439.778	-125.738	0.196	-0.030
-438.763	87.104	-0.172	-0.189
-437.749	416.493	0.142	0.303
-436.734	-105.273	-0.272	-0.062
-435.719	-92.718	-0.130	-0.036
-434.705	800.000	-0.064	0.252
-433.690	462.430	-0.136	-0.303
-432.676	-81.595	-0.247	0.081
-431.661	-103.873	-0.411	0.096
-430.646	800.000	0.041	-0.113
-429.632	632.438	0.013	-0.033
-428.617	116.816	0.159	0.194
-427.603	-28.754	-0.397	-0.227
-426.588	-94.084	0.257	0.070
-425.573	30.671	-0.155	-0.132
-424.559	413.474	0.088	-0.185
-423.544	-142.970	0.220	0.021
-422.530	-152.700	-0.072	-0.005
-421.515	-59.289	-0.042	0.018
-420.500	-70.643	0.071	0.027
-419.486	800.000	0.036	-0.137
-418.471	-200.000	-0.005	-0.285
-417.457	70.705	0.109	0.112
-416.442	-200.000	-0.002	-0.177
-415.428	-0.134	0.281	0.199
-414.413	498.188	0.110	-0.253
-413.398	293.020	-0.136	-0.246
-412.384	-91.831	-0.157	0.044
-411.369	275.990	-0.088	-0.156
-410.355	26.745	0.185	0.154
-409.340	-112.256	0.160	0.032
-408.325	426.628	-0.109	0.233
-407.311	-4.036	0.205	-0.141
-406.296	267.666	-0.120	0.209
-405.282	-200.000	0.000	-0.142
-404.267	800.000	0.078	-0.241
-403.252	344.750	-0.057	0.112
-402.238	489.467	0.118	-0.267
-401.223	118.188	0.210	-0.258
-400.209	800.000	-0.083	-0.248
-399.194	49.965	0.181	0.170
-398.179	-9.055	-0.092	0.061
-397.165	-97.730	0.136	0.035
-396.150	800.000	-0.023	0.094
-395.136	-66.927	0.125	-0.049
-394.121	-200.000	-0.022	-0.200
-393.106	279.649	-0.065	0.115
-392.092	-49.509	-0.068	-0.032
-391.077	-200.000	-0.020	0.210
-390.063	800.000	0.068	-0.285
-389.048	-200.000	0.001	0.106
-388.033	-152.689	0.253	-0.018
-387.019	109.674	-0.122	-0.145
-386.004	-98.352	-0.190	0.048
-384.990	800.000	0.057	-0.174
-383.975	276.757	-0.120	-0.212
-382.960	-200.000	-0.025	0.133
-381.946	356.086	0.064	0.127
-380.931	372.547	-0.128	0.258
-379.917	-200.000	0.007	0.209
-378.902	328.056	-0.052	0.099
-377.888	-200.000	-0.016	-0.130
-376.873	-121.022	0.293	-0.049
-375.858	190.539	-0.302	-0.451
-374.844	-26.717	0.089	0.052
-373.829	73.728	0.131	-0.136
-372.815	-90.810	0.237	-0.068
-371.800	-80.977	-0.285	-0.094
-370.785	-200.000	0.039	0.207
-369.771	-200.000	0.005	0.094
-368.756	-8.001	-0.173	-0.116
-367.742	202.912	-0.089	-0.136
-366.727	-43.368	0.192	0.096
-365.712	-134.075	-0.222	0.027
-364.698	208.617	0.083	0.129
-363.683	311.252	0.065	0.122
-362.669	79.448	-0.111	-0.118
-361.654	-200.000	0.072	0.327
-360.639	-15.496	0.223	0.141
-359.625	-84.218	0.140	-0.044
-358.610	-200.000	-0.006	-0.026
-357.596	-200.000	-0.017	-0.117
-356.581	-68.420	0.220	0.085
-355.566	-200.000	-0.035	-0.278
-354.552	557.496	-0.119	-0.284
-353.537	335.270	-0.035	-0.066
-352.523	40.370	-0.196	-0.175
-351.508	-200.000	0.016	0.204
-350.493	-48.920	-0.419	0.199
-349.479	690.356	0.027	-0.071
-348.464	-12.187	0.365	0.237
-347.450	32.641	-0.166	-0.142
-346.435	15.358	0.156	-0.121
-345.420	-80.629	-0.313	-0.103
-344.406	19.772	-0.091	0.073
-343.391	-103.554	0.137	-0.032
-342.377	-47.210	0.307	-0.148
-341.362	511.024	0.044	-0.102
-340.348	207.450	-0.050	0.078
-339.333	-140.753	-0.162	-0.017
-338.318	121.512	0.103	0.127
-337.304	800.000	0.018	-0.069
-336.289	-115.173	-0.273	0.051
-335.275	-101.365	0.184	0.044
-334.260	800.000	0.049	-0.186
-333.245	58.000	0.318	0.309
-332.231	-200.000	-0.012	-0.172
-331.216	11.218	0.169	-0.128
-330.202	110.727	-0.199	0.238
-329.187	800.000	0.005	0.019
-328.172	-71.262	-0.165	-0.061
-327.158	800.000	0.097	-0.330
-326.143	-200.000	0.005	-0.425
-325.129	-113.093	-0.592	-0.116
-324.114	-200.000	-0.032	0.194
-323.099	705.202	-0.048	-0.126
-322.085	-200.000	-0.011	0.203
-321.070	713.525	0.010	0.025
-320.056	-200.000	0.014	0.110
-319.041	59.920	0.025	-0.024
-318.026	485.081	0.055	-0.125
-317.012	-11.587	-0.289	0.188
-315.997	-200.000	-0.003	-0.418
-314.983	64.188	0.120	0.119
-313.968	800.000	0.005	-0.017
-312.953	-118.948	-0.017	0.003
-311.939	405.425	-0.117	-0.245
-310.924	-116.264	-0.385	-0.071
-309.910	-131.252	0.361	0.047
-308.895	-68.704	0.153	-0.059
-307.880	30.120	0.125	0.105
-306.866	622.167	0.128	0.319
-305.851	-93.991	-0.153	0.042
-304.837	-95.416	0.121	-0.032
-303.822	-75.122	-0.238	0.084
-302.807	61.784	0.101	0.099
-301.793	-37.218	-0.293	-0.155
-300.778	77.808	-0.178	0.188
-299.764	277.425	-0.105	0.185
-298.749	-84.803	-0.089	-0.028
-297.735	-200.000	0.031	0.161
-296.720	500.799	0.125	0.286
-295.705	285.501	0.130	-0.232
-294.691	-200.000	0.004	0.359
-293.676	800.000	-0.065	0.202
-292.662	800.000	-0.154	0.479
-291.647	-117.246	-0.247	-0.044
-290.632	-24.073	-0.434	-0.257
-289.618	-27.073	-0.233	-0.134
-288.603	-19.791	0.073	-0.045
-287.589	-200.000	-0.021	-0.161
-286.574	729.572	0.105	0.278
-285.559	800.000	0.053	-0.148
-284.545	25.550	-0.050	-0.041
-283.530	-186.650	-0.084	-0.001
-282.516	391.151	0.126	0.259
-281.501	-150.414	-0.045	0.003
-280.486	-168.867	0.253	-0.009
-279.472	104.197	-0.115	-0.134
-278.457	106.179	-0.126	0.148
-277.443	39.547	-0.232	-0.206
-276.428	168.393	0.133	-0.187
-275.413	-110.205	0.239	0.049
-274.399	-200.000	0.003	-0.089
-273.384	-200.000	-0.045	0.239
-272.370	82.197	-0.105	-0.112
-271.355	-69.309	-0.099	0.038
-270.340	-92.635	0.135	0.037
-269.326	-115.830	0.152	0.028
-268.311	800.000	-0.046	0.130
-267.297	34.665	0.152	-0.132
-266.282	6.413	0.217	0.159
-265.267	-20.392	0.060	-0.036
-264.253	150.610	0.143	-0.192
-263.238	-200.000	0.011	-0.128
-262.224	-160.228	0.226	-0.012
-261.209	-122.957	0.240	0.038
-260.195	278.073	0.122	0.215
-259.180	128.428	-0.334	0.420
-258.165	-135.933	0.250	0.029
-257.151	-200.000	0.436	0.000
-256.136	800.000	-0.099	-0.399
-255.122	-46.457	0.138	-0.067
-254.107	1.541	-0.201	-0.143
-253.092	-4.600	0.193	-0.131
-252.078	665.384	0.060	0.153
-251.063	57.294	-0.182	0.175
-250.049	-95.195	0.196	-0.052
-249.034	-21.185	-0.221	0.133
-248.019	-17.776	0.259	-0.161
-247.005	-94.677	-0.182	0.049
-245.990	30.921	-0.030	0.026
-244.976	2.525	0.006	-0.004
-243.961	131.740	-0.118	0.150
-242.946	-96.039	-0.234	-0.061
-241.932	-200.000	0.021	-0.129
-240.917	-87.626	0.149	-0.044
-239.903	-200.000	0.014	-0.093
-238.888	800.000	0.080	0.222
-237.873	-200.000	0.024	-0.150
-236.859	6.123	0.205	-0.150
-235.844	310.489	0.034	0.063
-234.830	614.898	-0.058	-0.144
-233.815	-200.000	-0.007	0.058
-232.800	-106.200	0.121	-0.027
-231.786	121.707	0.046	-0.056
-230.771	-29.238	0.120	-0.068
-229.757	-121.251	0.222	-0.037
-228.742	247.800	-0.189	0.315
-227.727	61.628	0.113	-0.111
-226.713	-86.366	-0.129	-0.039
-225.698	271.878	-0.134	-0.233
-224.684	-164.249	-0.209	-0.009
-223.669	44.497	-0.273	-0.248
-222.655	125.377	-0.185	-0.231
-221.640	-176.798	0.393	0.010
-220.625	-55.884	0.062	0.027
-219.611	341.396	0.068	-0.130
-218.596	-25.796	-0.157	-0.091
-217.582	-200.000	0.014	-0.383
-216.567	79.912	0.257	0.273
-215.552	92.320	-0.093	-0.103
-214.538	-109.054	0.282	-0.059
-213.523	-160.639	0.191	-0.010
-212.509	754.835	0.029	0.078
-211.494	129.184	0.025	0.031
-210.479	305.591	0.156	0.287
-209.465	-200.000	0.003	-0.401
-208.450	-72.036	0.226	0.083
-207.436	21.138	0.160	0.128
-206.421	-91.966	0.176	-0.049
-205.406	10.743	0.073	-0.055
-204.392	-84.936	-0.406	0.126
-203.377	194.570	0.195	-0.292
-202.363	-200.000	-0.008	0.364
-201.348	-98.747	-0.117	-0.029
-200.333	800.000	0.106	0.414
-199.319	776.369	0.082	-0.222
-198.304	-200.000	-0.061	-0.337
-197.290	-36.014	0.284	0.151
-196.275	2.780	-0.378	0.270
-195.260	73.768	-0.142	-0.147
-194.246	38.959	-0.019	-0.017
-193.231	-166.045	-0.246	-0.010
-192.217	485.249	0.035	-0.078
-191.202	-146.450	-0.336	-0.029
-190.187	108.302	-0.073	0.085
-189.173	3.671	0.233	-0.167
-188.158	28.649	-0.202	-0.168
-187.144	253.758	-0.063	0.106
-186.129	800.000	-0.016	-0.045
-185.114	800.000	0.170	-0.697
-184.100	297.598	0.296	-0.535
-183.085	-74.812	-0.357	0.126
-182.071	4.486	-0.454	-0.328
-181.056	800.000	0.036	-0.116
-180.042	-1.369	-0.301	0.209
-179.027	-129.829	-0.076	-0.010
-178.012	74.220	0.113	-0.117
-176.998	185.434	0.140	0.204
-175.983	-39.575	0.370	0.191
-174.969	-70.727	0.281	0.105
-173.954	-58.023	0.156	0.067
-172.939	-45.837	0.256	0.124
-171.925	-9.641	0.141	0.093
-170.910	268.859	0.112	0.194
-169.896	152.894	-0.226	-0.304
-168.881	328.432	0.081	-0.154
-167.866	32.673	0.142	-0.121
-166.852	10.879	0.231	0.174
-165.837	-5.421	0.070	-0.047
-164.823	267.594	0.102	0.176
-163.808	534.610	-0.095	0.221
-162.793	789.536	-0.032	-0.087
-161.779	75.108	-0.055	0.057
-160.764	-200.000	-0.017	-0.086
-159.750	9.017	-0.145	-0.108
-158.735	-114.091	0.090	0.017
-157.720	524.091	0.116	0.268
-156.706	800.000	-0.018	-0.066
-155.691	-200.000	0.010	-0.152
-154.677	-43.337	-0.273	-0.136
-153.662	-200.000	0.014	-0.130
-152.647	800.000	0.019	0.067
-151.633	-95.123	0.342	-0.091
-150.618	-97.835	-0.147	0.037
-149.604	-200.000	-0.041	-0.193
-148.589	-138.475	0.328	-0.036
-147.574	242.472	0.151	0.248
-146.560	-172.192	0.476	0.015
-145.545	61.842	-0.251	0.246
-144.531	110.521	-0.115	-0.136
-143.516	-200.000	-0.071	0.331
-142.502	92.989	-0.142	0.158
-141.487	-132.283	0.096	0.012
-140.472	294.590	-0.158	0.284
-139.458	20.882	0.210	0.168
-138.443	-200.000	0.074	0.437
-137.429	-125.973	-0.261	-0.039
-136.414	86.315	0.177	-0.191
-135.399	120.265	-0.093	-0.113
-134.385	-200.000	-0.005	0.100
-133.370	-200.000	-0.057	-0.291
-132.356	484.438	0.119	-0.267
-131.341	800.000	0.041	-0.171
-130.326	-200.000	-0.050	0.253
-129.312	274.659	0.108	0.188
-128.297	-104.275	-0.561	-0.128
-127.283	362.898	-0.036	-0.071
-126.268	17.359	0.090	-0.070
-125.253	396.328	0.131	-0.269
-124.239	66.401	-0.275	0.275
-123.224	9.993	0.092	-0.069
-122.210	178.419	-0.097	-0.140
-121.195	17.433	0.273	0.213
-120.180	-200.000	-0.032	0.193
-119.166	4.667	0.083	0.060
-118.151	-2.132	0.242	-0.167
-117.137	-200.000	-0.012	-0.214
-116.122	115.868	0.233	0.280
-115.107	-113.961	-0.110	0.021
-114.093	116.638	0.261	0.315
-113.078	-200.000	0.029	-0.215
-112.064	-132.525	0.078	0.010
-111.049	167.283	0.129	-0.180
-110.034	317.760	-0.061	-0.113
-109.020	-82.904	-0.192	-0.061
-108.005	294.171	-0.017	0.030
-106.991	169.769	-0.127	-0.179
-105.976	800.000	0.054	-0.155
-104.962	-200.000	0.004	-0.101
-103.947	-200.000	0.008	0.091
-102.932	225.706	-0.059	-0.094
-101.918	-200.000	-0.064	-0.467
-100.903	67.487	0.129	0.129
-99.889	-200.000	0.008	0.086
-98.874	292.448	-0.118	0.212
-97.859	270.987	0.057	0.099
-96.845	48.618	-0.125	0.115
-95.830	-32.259	0.052	0.028
-94.816	80.839	0.093	-0.099
-93.801	108.908	0.037	0.043
-92.786	-200.000	0.017	-0.094
-91.772	-200.000	-0.059	-0.428
-90.757	92.719	0.165	-0.183
-89.743	115.584	-0.125	-0.150
-88.728	-100.724	0.357	0.086
-87.713	800.000	0.041	-0.120
-86.699	162.439	0.141	0.194
-85.684	-117.631	0.287	-0.051
-84.670	-32.810	0.075	0.041
-83.655	155.190	-0.040	-0.054
-82.640	-143.429	0.416	-0.039
-81.626	-111.952	-0.136	0.027
-80.611	118.378	-0.178	-0.216
-79.597	-48.308	0.355	-0.168
-78.582	2.154	0.116	-0.082
-77.567	87.540	0.245	0.266
-76.553	-115.520	0.136	0.025
-75.538	-156.881	0.055	-0.003
-74.524	80.751	0.312	0.330
-73.509	-200.000	-0.044	0.248
-72.494	-195.038	0.140	0.001
-71.480	176.758	-0.095	0.136
-70.465	-40.838	0.157	0.080
-69.451	-106.610	-0.320	-0.070
-68.436	159.065	0.094	0.128
-67.422	-200.000	0.044	0.227
-66.407	-153.296	-0.145	0.010
-65.392	-80.664	-0.107	0.035
-64.378	174.116	0.116	-0.165
-63.363	-200.000	-0.056	0.424
-62.349	800.000	0.069	0.259
-61.334	6.189	-1.034	-0.751
-60.319	-62.371	0.519	0.212
-59.305	800.000	-0.276	-1.175
-58.290	161.330	0.618	0.848
-57.276	262.156	0.668	1.136
-56.261	-200.000	97.627	606.891
-55.246	621.508	1399.005	3450.598
-54.232	192.333	2597.826	3842.167
-53.217	111.451	2275.951	2689.978
-52.203	41.347	1895.276	1680.107
-51.188	35.265	1683.338	1446.462
-50.173	32.431	1639.812	1388.135
-49.159	50.098	1687.935	1561.420
-48.144	51.729	1703.609	1588.049
-47.130	34.738	1663.631	1425.370
-46.115	31.944	1649.529	1392.523
-45.100	31.816	1644.141	1386.973
-44.086	31.736	1641.981	1384.503
-43.071	31.760	1639.542	1382.573
-42.057	31.623	1637.479	1379.764
-41.042	31.676	1635.153	1378.144
-40.027	31.702	1633.064	1376.517
-39.013	31.706	1631.324	1375.029
-37.998	31.711	1629.505	1373.474
-36.984	31.860	1627.886	1373.148
-35.969	31.911	1626.098	1371.959
-34.954	31.902	1625.003	1370.914
-33.940	31.845	1623.150	1368.883
-32.925	31.857	1621.502	1367.524
-31.911	31.806	1619.809	1365.666
-30.896	31.858	1617.765	1364.273
-29.881	31.816	1616.539	1362.874
-28.867	31.768	1614.880	1361.077
-27.852	31.844	1613.994	1360.827
-26.838	31.873	1611.790	1359.127
-25.823	31.840	1610.879	1358.063
-24.809	31.936	1609.074	1357.184
-23.794	31.896	1607.660	1355.647
-22.779	31.905	1606.166	1354.395
-21.765	31.921	1604.648	1353.177
-20.750	31.904	1602.986	1351.603
-19.736	31.966	1601.746	1350.951
-18.721	31.940	1599.979	1349.215
-17.706	31.899	1598.668	1347.761
-16.692	31.955	1597.068	1346.764
-15.677	31.861	1596.105	1345.222
-14.663	31.970	1594.283	1344.417
-13.648	31.942	1592.964	1343.053
-12.633	32.000	1591.346	1342.050
-11.619	31.970	1590.099	1340.728
-10.604	31.925	1588.585	1339.077
-9.590	31.880	1587.439	1337.741
-8.575	31.945	1586.167	1337.072
-7.560	31.848	1585.357	1335.646
-6.546	31.875	1584.025	1334.664
-5.531	31.871	1582.789	1333.541
-4.517	31.925	1581.591	1332.862
-3.502	31.910	1580.530	1331.813
-2.487	31.994	1578.543	1330.682
-1.473	31.562	1566.688	1317.589
-0.458	28.701	1546.783	1280.873
0.556	22.859	1546.959	1248.769
1.571	20.421	1570.942	1250.488
2.586	19.915	1584.655	1257.615
3.600	17.825	1532.818	1201.665
4.615	9.571	1422.466	1060.898
5.629	1.361	1357.455	960.552
6.644	-0.192	1348.897	944.648
7.659	-0.250	1347.904	943.506
8.673	-0.397	1346.794	941.723
9.688	-0.402	1344.461	939.977
10.702	-0.655	1341.701	936.380
11.717	2.380	1347.030	959.063
12.731	11.305	1364.642	1027.991
13.746	18.455	1376.221	1081.922
14.761	19.710	1377.457	1090.725
15.775	19.953	1376.846	1091.675
16.790	19.870	1376.815	1091.031
17.804	19.996	1376.261	1091.289
18.819	20.132	1376.155	1091.966
19.834	20.253	1375.131	1091.820
20.848	20.315	1374.414	1091.545
21.863	20.301	1373.825	1090.890
22.877	20.337	1372.371	1089.865
23.892	20.328	1371.768	1089.234
24.907	20.300	1370.900	1088.272
25.921	20.377	1369.919	1087.880
26.936	20.268	1369.111	1086.460
27.950	20.303	1368.196	1085.856
28.965	20.285	1366.803	1084.543
29.980	20.304	1365.344	1083.406
30.994	20.299	1364.202	1082.377
32.009	20.379	1362.787	1081.657
33.023	20.239	1362.389	1080.373
34.038	20.378	1360.741	1079.833
35.053	20.295	1359.815	1078.487
36.067	20.354	1358.480	1077.700
37.082	20.325	1357.860	1076.931
38.096	20.301	1356.587	1075.675
39.111	20.188	1356.012	1074.429
40.126	20.378	1354.980	1074.687
41.140	20.347	1354.793	1074.253
42.155	20.290	1354.619	1073.669
43.169	20.228	1354.908	1073.422
44.184	20.343	1354.266	1073.527
45.199	20.287	1353.583	1072.545
46.213	20.316	1352.833	1072.035
47.228	20.370	1351.744	1071.413
48.242	20.456	1350.726	1071.040
49.257	20.317	1349.217	1068.889
50.271	20.436	1347.072	1067.827
51.286	20.283	1346.506	1066.344
52.301	20.379	1345.158	1065.775
53.315	20.296	1344.961	1065.012
54.330	20.365	1343.673	1064.322
55.344	20.290	1342.876	1063.136
56.359	20.347	1341.187	1062.052
57.374	20.169	1340.873	1060.623
58.388	20.332	1339.763	1060.650
59.403	20.396	1339.577	1060.794
60.417	20.372	1338.696	1059.859
61.432	20.342	1338.261	1059.239
62.447	20.308	1337.019	1057.956
63.461	20.341	1335.724	1057.035
64.476	20.425	1334.835	1056.753
65.490	20.258	1333.862	1054.874
66.505	20.351	1332.036	1053.902
67.520	20.398	1330.712	1053.041
68.534	20.334	1329.846	1051.877
69.549	20.387	1328.857	1051.326
70.563	20.394	1327.981	1050.581
71.578	20.325	1327.275	1049.509
72.593	20.268	1326.374	1048.359
73.607	20.340	1325.313	1047.867
74.622	20.344	1324.796	1047.384
75.636	20.339	1324.020	1046.652
76.651	20.333	1323.423	1046.050
77.666	20.282	1322.813	1045.166
78.680	20.363	1322.555	1045.358
79.695	20.263	1321.642	1043.945
80.709	20.379	1320.438	1043.598
81.724	20.314	1319.753	1042.571
82.739	20.327	1318.638	1041.679
83.753	20.447	1317.608	1041.490
84.768	20.337	1316.414	1039.799
85.782	20.389	1315.364	1039.184
86.797	20.400	1313.905	1038.005
87.812	20.367	1313.629	1037.498
88.826	20.403	1312.210	1036.502
89.841	20.381	1310.932	1035.270
90.855	20.479	1309.648	1034.750
91.870	20.412	1308.967	1033.721
92.884	20.359	1308.254	1032.750
93.899	20.369	1307.549	1032.161
94.914	20.342	1306.702	1031.243
95.928	20.424	1305.760	1030.892
96.943	20.427	1304.630	1029.931
97.957	20.280	1304.773	1029.079
98.972	20.496	1303.509	1029.271
99.987	20.385	1302.641	1027.835
101.001	20.497	1301.098	1027.190
102.016	20.316	1300.707	1025.720
103.030	20.320	1300.173	1025.231
104.045	20.376	1298.794	1024.384
105.060	20.397	1297.567	1023.450
106.074	20.462	1296.757	1023.103
107.089	20.418	1295.444	1021.718
108.103	20.473	1294.375	1021.106
109.118	20.491	1293.103	1020.122
110.133	20.437	1292.020	1018.860
111.147	20.610	1290.385	1018.490
112.162	20.364	1289.719	1016.435
113.176	20.520	1287.738	1015.698
114.191	20.538	1287.054	1015.175
115.206	20.514	1286.223	1014.285
116.220	20.446	1285.170	1012.969
117.235	20.377	1284.428	1011.896
118.249	20.391	1283.650	1011.275
119.264	20.441	1282.291	1010.405
120.279	20.478	1281.481	1009.892
121.293	20.538	1281.027	1009.792
122.308	20.416	1279.959	1008.155
123.322	20.502	1278.647	1007.529
124.337	20.529	1277.776	1006.911
125.352	20.529	1276.553	1005.855
126.366	20.472	1276.251	1005.198
127.381	20.451	1275.189	1004.157
128.395	20.648	1273.671	1004.010
129.410	20.491	1273.042	1002.517
130.424	20.627	1272.391	1002.703
131.439	20.536	1271.678	1001.527
132.454	20.463	1270.361	999.980
133.468	20.514	1269.532	999.529
134.483	20.553	1268.720	999.029
135.497	20.566	1267.802	998.293
136.512	20.481	1267.110	997.170
137.527	20.625	1265.304	996.483
138.541	20.538	1264.259	995.078
139.556	20.448	1263.327	993.740
140.570	20.531	1261.825	992.944
141.585	20.605	1260.364	992.129
142.600	20.441	1259.552	990.466
143.614	20.570	1258.698	990.443
144.629	20.576	1257.371	989.343
145.643	20.384	1256.512	987.488
146.658	20.386	1255.454	986.583
147.673	20.519	1254.679	986.644
148.687	20.448	1253.915	985.550
149.702	20.528	1252.075	984.469
150.716	20.485	1251.229	983.475
151.731	20.486	1250.255	982.630
152.746	20.570	1249.174	982.164
153.760	20.593	1248.322	981.541
154.775	20.554	1247.441	980.541
155.789	20.455	1246.565	979.208
156.804	20.467	1245.404	978.274
157.819	20.529	1244.303	977.673
158.833	20.566	1243.836	977.428
159.848	20.542	1242.980	976.536
160.862	20.408	1242.637	975.427
161.877	20.678	1240.948	975.525
162.892	20.682	1240.028	974.740
163.906	20.554	1240.118	974.009
164.921	20.650	1238.823	973.438
165.935	20.592	1238.210	972.550
166.950	20.566	1237.826	972.013
167.964	20.661	1236.915	971.748
168.979	20.545	1237.176	971.216
169.994	20.686	1235.958	970.959
171.008	20.704	1235.002	970.226
172.023	20.644	1234.487	969.399
173.037	20.610	1234.044	968.778
174.052	20.670	1232.991	968.197
175.067	20.505	1232.478	966.791
176.081	20.647	1231.443	966.684
177.096	20.577	1230.738	965.653
178.110	20.597	1229.599	964.789
179.125	20.723	1228.418	964.472
180.140	20.668	1227.539	963.395
181.154	20.647	1226.429	962.322
182.169	20.591	1225.717	961.370
183.183	20.582	1224.724	960.451
184.198	20.692	1223.083	959.689
185.213	20.681	1222.420	959.025
186.227	20.648	1221.723	958.207
187.242	20.622	1221.006	957.422
188.256	20.796	1219.908	957.432
189.271	20.707	1219.024	956.165
190.286	20.692	1218.422	955.522
191.300	20.721	1217.965	955.238
192.315	20.667	1217.434	954.444
193.329	20.776	1216.432	954.173
194.344	20.754	1216.317	953.874
195.359	20.619	1215.895	952.718
196.373	20.693	1215.476	952.714
197.388	20.720	1214.881	952.308
198.402	20.629	1214.708	951.593
199.417	20.629	1213.991	950.946
200.432	20.776	1213.038	950.917
201.446	20.699	1212.871	950.280
202.461	20.785	1211.832	949.853
203.475	20.666	1211.209	948.635
204.490	20.726	1209.742	947.725
205.504	20.716	1208.954	946.973
206.519	20.904	1207.675	946.906
207.534	20.773	1206.922	945.522
208.548	20.724	1205.966	944.421
209.563	20.816	1205.109	944.170
210.577	20.777	1204.713	943.559
211.592	20.753	1203.781	942.620
212.607	20.774	1203.121	942.130
213.621	20.799	1202.101	941.387
214.636	20.850	1201.417	941.044
215.650	20.925	1200.682	940.790
216.665	20.821	1199.617	939.309
217.680	20.800	1198.640	938.348
218.694	20.957	1197.772	938.430
219.709	20.884	1197.206	937.513
220.723	20.812	1196.852	936.761
221.738	20.814	1195.974	936.004
222.753	20.782	1195.246	935.182
223.767	20.784	1194.780	934.742
224.782	20.971	1194.110	935.139
225.796	21.002	1193.224	934.530
226.811	20.961	1192.866	933.945
227.826	20.857	1192.260	932.832
228.840	20.914	1191.440	932.412
229.855	20.857	1191.045	931.719
230.869	20.917	1190.256	931.338
231.884	20.842	1190.108	930.741
232.899	20.889	1188.794	929.882
233.913	20.949	1188.613	929.975
234.928	20.990	1187.969	929.606
235.942	21.062	1186.528	928.781
236.957	21.021	1186.205	928.229
237.972	21.012	1185.611	927.634
238.986	20.942	1185.180	926.840
240.001	21.052	1184.740	926.999
241.015	21.224	1183.579	926.921
242.030	21.107	1183.070	925.821
243.045	21.172	1182.193	925.398
244.059	20.993	1181.671	923.960
245.074	21.090	1180.752	923.673
246.088	21.150	1180.251	923.514
247.103	21.132	1179.026	922.380
248.117	21.123	1178.073	921.509
249.132	21.029	1178.051	920.911
250.147	21.203	1176.801	920.769
251.161	21.078	1176.255	919.604
252.176	21.061	1175.494	918.837
253.190	21.163	1174.902	918.827
254.205	21.173	1174.486	918.476
255.220	21.170	1173.766	917.817
256.234	21.245	1173.039	917.559
257.249	21.212	1172.409	916.810
258.263	21.176	1172.036	916.252
259.278	21.213	1171.153	915.674
260.293	21.136	1170.986	915.057
261.307	21.228	1170.463	915.050
262.322	21.157	1169.924	914.179
263.336	21.248	1169.018	913.864
264.351	21.157	1168.670	913.036
265.366	21.150	1168.133	912.496
266.380	21.239	1167.019	912.014
267.395	21.288	1166.309	911.630
268.409	21.199	1166.088	910.913
269.424	21.228	1165.038	910.166
270.439	21.274	1164.851	910.177
271.453	21.272	1164.438	909.762
272.468	21.204	1163.482	908.582
273.482	21.197	1162.745	907.889
274.497	21.208	1162.609	907.762
275.512	21.317	1161.777	907.596
276.526	21.244	1161.006	906.535
277.541	21.268	1160.337	906.057
278.555	21.393	1159.810	906.213
279.570	21.272	1159.052	904.916
280.585	21.467	1157.892	904.936
281.599	21.358	1157.325	903.851
282.614	21.335	1156.560	903.057
283.628	21.457	1155.054	902.428
284.643	21.374	1154.697	901.641
285.657	21.392	1153.737	900.903
286.672	21.495	1152.833	900.651
287.687	21.326	1152.286	899.271
288.701	21.453	1151.551	899.275
289.716	21.540	1150.394	898.736
290.730	21.529	1149.894	898.212
291.745	21.475	1149.539	897.574
292.760	21.505	1148.849	897.112
293.774	21.475	1148.735	896.790
294.789	21.470	1148.075	896.168
295.803	21.387	1147.734	895.400
296.818	21.538	1146.513	895.138
297.833	21.496	1145.748	894.248
298.847	21.631	1144.924	894.213
299.862	21.526	1144.534	893.297
300.876	21.449	1144.293	892.636
301.891	21.505	1143.426	892.168
302.906	21.591	1142.849	892.078
303.920	21.674	1142.055	891.801
304.935	21.680	1140.943	890.882
305.949	21.599	1140.682	890.190
306.964	21.612	1140.425	889.976
307.979	21.692	1139.345	889.460
308.993	21.669	1138.820	888.854
310.008	21.655	1137.738	887.858
311.022	21.631	1137.057	887.127
312.037	21.705	1136.481	886.973
313.052	21.707	1135.505	886.146
314.066	21.641	1134.627	885.046
315.081	21.669	1134.460	884.982
316.095	21.695	1133.379	884.190
317.110	21.705	1133.214	884.034
318.125	21.676	1132.487	883.241
319.139	21.754	1131.378	882.692
320.154	21.688	1130.686	881.739
321.168	21.779	1130.318	881.834
322.183	21.770	1129.958	881.431
323.197	21.769	1129.131	880.704
324.212	21.729	1128.764	880.139
325.227	21.745	1128.376	879.835
326.241	21.791	1127.772	879.519
327.256	21.826	1127.056	879.057
328.270	21.867	1126.421	878.688
329.285	21.726	1125.511	877.200
330.300	21.820	1124.498	876.798
331.314	21.874	1123.774	876.429
332.329	21.757	1122.973	875.139
333.343	21.824	1122.198	874.795
334.358	21.916	1121.378	874.535
335.373	21.861	1120.635	873.607
336.387	21.952	1120.014	873.497
337.402	21.911	1119.211	872.592
338.416	22.026	1118.678	872.668
339.431	21.976	1118.122	871.910
340.446	21.958	1117.516	871.271
341.460	21.963	1116.897	870.737
342.475	22.037	1116.097	870.399
343.489	22.066	1114.992	869.607
344.504	21.895	1114.462	868.268
345.519	22.004	1113.371	867.881
346.533	22.149	1112.433	867.790
347.548	22.069	1111.994	866.976
348.562	21.954	1111.499	865.946
349.577	21.971	1110.896	865.485
350.592	21.929	1110.101	864.578
351.606	21.951	1109.281	863.971
352.621	22.090	1108.744	864.162
353.635	22.125	1108.165	863.805
354.650	22.103	1107.196	862.868
355.665	22.065	1106.918	862.389
356.679	22.194	1106.090	862.298
357.694	22.174	1105.527	861.687
358.708	22.195	1104.676	861.048
359.723	22.041	1104.063	859.741
360.738	22.238	1103.485	860.177
361.752	22.092	1103.133	859.115
362.767	22.151	1102.687	858.978
363.781	22.245	1102.075	858.886
364.796	22.328	1101.275	858.589
365.810	22.234	1101.193	857.991
366.825	22.188	1100.595	857.228
367.840	22.381	1099.929	857.573
368.854	22.342	1098.992	856.577
369.869	22.278	1098.472	855.781
370.883	22.273	1097.829	855.181
371.898	22.382	1097.044	855.023
372.913	22.185	1096.631	853.671
373.927	22.334	1096.090	853.897
374.942	22.366	1095.707	853.680
375.956	22.520	1094.765	853.613
376.971	22.336	1094.506	852.444
377.986	22.336	1093.985	851.964
379.000	22.380	1093.211	851.500
380.015	22.459	1092.637	851.362
381.029	22.356	1092.406	850.608
382.044	22.297	1091.334	849.413
383.059	22.497	1090.729	849.830
384.073	22.557	1090.007	849.484
385.088	22.586	1088.717	848.539
386.102	22.548	1088.205	847.883
387.117	22.490	1087.378	846.884
388.132	22.425	1086.618	845.908
389.146	22.445	1085.825	845.310
390.161	22.316	1085.893	844.670
391.175	22.553	1084.786	844.868
392.190	22.640	1083.915	844.532
393.205	22.620	1083.167	843.782
394.219	22.543	1082.732	843.000
395.234	22.622	1081.833	842.602
396.248	22.572	1080.609	841.337
397.263	22.610	1080.057	841.011
398.278	22.644	1079.576	840.725
399.292	22.657	1078.939	840.217
400.307	22.661	1078.110	839.514
401.321	22.611	1077.707	838.892
402.336	22.707	1077.099	838.800
403.350	22.592	1076.460	837.682
404.365	22.699	1075.637	837.472
405.380	22.792	1075.021	837.363
406.394	22.724	1074.180	836.309
407.409	22.709	1073.431	835.583
408.423	22.828	1072.827	835.602
409.438	22.823	1071.801	834.705
410.453	22.819	1071.417	834.314
411.467	22.839	1070.654	833.740
412.482	22.683	1070.247	832.611
413.496	22.692	1069.753	832.198
414.511	22.717	1068.880	831.561
415.526	22.764	1068.334	831.284
416.540	22.913	1067.756	831.462
417.555	22.755	1067.438	830.398
418.569	22.841	1066.707	830.161
419.584	22.788	1066.386	829.589
420.599	22.879	1065.947	829.600
421.613	149.082	1397.635	1795.063
422.628	137.258	1445.972	1795.159
