DTS Sentinel unit serial number:	SN413079Multiplexer serial number:	ORYXHardware model number:	OX4-SRSoftware version number:	ORYX F/W v4.00 Oryx Data Collector v3.7.2.0data status	okinstallation	princeton_trtdifferential loss correction	single-endedforward channel	channel 2reverse channel	N/Adate	2019/09/13time	13:39:35forward acquisition time	60.00reverse acquisition time	0.00gamma	496.2192k internal	0.2315k external	0.2315temperature offset calibration	1.0208default loss term (dB/km)	0.3790temperature slope calibration	1.0000multiplexer offset coefficient	1.0000multiplexer slope coefficient	1.0000fibre end	0.00T internal ref (°C)	35.11T ext. ref 1 (°C)	4.58T ext. ref 2 (°C)	31.50length (m)	temperature (°C)	Stokes	anti-Stokes-747.200	-22.758	0.357	0.219
-746.185	57.768	-0.212	0.210
-745.171	-114.119	0.463	0.091
-744.156	-117.941	-0.247	0.045
-743.142	32.534	-0.244	0.214
-742.127	-142.606	0.340	0.034
-741.112	41.133	-0.215	0.197
-740.098	72.498	-0.077	-0.081
-739.083	124.756	0.057	-0.073
-738.069	514.277	0.093	0.220
-737.054	17.433	0.297	0.239
-736.039	-166.376	-0.334	0.014
-735.025	-125.604	0.202	0.031
-734.010	-116.361	-0.336	-0.063
-732.996	-19.431	-0.239	0.150
-731.981	-50.244	-0.364	-0.174
-730.966	-107.717	-0.156	0.034
-729.952	7.417	-0.292	-0.221
-728.937	-90.783	0.279	0.081
-727.923	-169.389	-0.210	0.008
-726.908	232.960	-0.097	0.162
-725.894	-200.000	-0.063	0.375
-724.879	154.297	-0.127	0.176
-723.864	-80.548	-0.372	-0.126
-722.850	-81.288	0.151	0.051
-721.835	-0.428	-0.116	0.083
-720.821	493.054	0.062	-0.143
-719.806	-25.336	0.102	0.061
-718.791	-156.900	-0.344	-0.021
-717.777	108.502	-0.164	-0.199
-716.762	13.887	0.093	-0.073
-715.748	146.169	0.214	-0.291
-714.733	-48.032	0.130	-0.064
-713.718	-90.747	-0.388	-0.113
-712.704	-103.106	-0.198	-0.047
-711.689	-200.000	-0.018	-0.164
-710.675	388.769	0.100	-0.210
-709.660	-18.305	0.194	-0.123
-708.645	78.556	0.110	-0.119
-707.631	125.384	-0.174	0.222
-706.616	29.597	-0.144	-0.124
-705.602	-200.000	0.012	-0.169
-704.587	-24.077	0.114	-0.069
-703.572	-105.825	0.133	0.030
-702.558	-59.612	0.318	-0.138
-701.543	-110.855	0.093	-0.019
-700.529	-18.557	-0.153	0.097
-699.514	17.588	-0.105	-0.085
-698.499	-136.777	-0.206	-0.024
-697.485	125.551	-0.129	-0.164
-696.470	7.524	-0.034	0.026
-695.456	97.035	-0.230	0.266
-694.441	-106.725	-0.125	0.028
-693.426	-200.000	-0.010	0.151
-692.412	-141.053	0.089	0.009
-691.397	-57.885	0.202	0.089
-690.383	25.602	-0.174	0.146
-689.368	-108.238	0.209	-0.046
-688.354	-71.833	-0.192	0.072
-687.339	-200.000	-0.031	-0.147
-686.324	725.446	0.034	0.091
-685.310	-62.612	-0.182	0.076
-684.295	-111.873	-0.033	-0.007
-683.281	-200.000	-0.042	-0.212
-682.266	315.886	0.029	-0.056
-681.251	800.000	-0.076	0.233
-680.237	-200.000	-0.021	-0.205
-679.222	800.000	0.072	-0.219
-678.208	800.000	-0.050	-0.143
-677.193	-200.000	0.006	-0.035
-676.178	185.494	0.129	0.194
-675.164	142.486	-0.163	-0.219
-674.149	-200.000	0.047	-0.262
-673.135	800.000	-0.040	-0.152
-672.120	-200.000	-0.043	0.230
-671.105	800.000	0.058	-0.208
-670.091	79.774	-0.293	-0.318
-669.076	-58.391	-0.270	-0.119
-668.062	-149.820	-0.094	-0.007
-667.047	-200.000	-0.029	-0.294
-666.032	-73.084	-0.136	-0.050
-665.018	-139.290	0.282	-0.031
-664.003	-200.000	-0.013	0.234
-662.989	-200.000	0.012	-0.204
-661.974	-200.000	-0.003	-0.088
-660.959	687.763	0.062	0.163
-659.945	338.357	0.128	-0.252
-658.930	-200.000	0.023	-0.111
-657.916	-100.058	0.242	-0.061
-656.901	415.152	-0.062	0.134
-655.886	583.136	0.036	0.090
-654.872	-70.654	-0.138	0.053
-653.857	345.378	0.131	0.261
-652.843	800.000	-0.042	0.124
-651.828	-200.000	0.001	0.024
-650.814	-200.000	0.014	0.226
-649.799	-92.858	0.291	0.082
-648.784	-141.687	-0.157	0.016
-647.770	-200.000	-0.041	-0.240
-646.755	800.000	0.038	-0.148
-645.741	-75.337	0.156	0.056
-644.726	24.378	-0.090	0.075
-643.711	298.511	0.227	0.422
-642.697	145.511	-0.032	0.044
-641.682	-123.848	-0.331	0.053
-640.668	800.000	-0.087	0.244
-639.653	67.916	-0.182	0.188
-638.638	58.803	0.006	0.006
-637.624	-78.330	0.154	-0.053
-636.609	-35.134	0.148	0.081
-635.595	278.060	0.067	-0.120
-634.580	-92.703	-0.182	-0.051
-633.565	62.029	0.106	0.107
-632.551	460.671	-0.040	-0.089
-631.536	185.475	0.046	-0.069
-630.522	800.000	0.121	-0.359
-629.507	-126.857	0.153	0.023
-628.492	800.000	-0.081	0.288
-627.478	100.866	0.104	-0.122
-626.463	-128.687	0.159	-0.023
-625.449	-200.000	-0.036	-0.202
-624.434	-8.662	0.210	0.142
-623.419	-115.086	-0.229	-0.044
-622.405	-17.799	-0.304	0.192
-621.390	6.927	-0.050	-0.038
-620.376	-141.544	-0.219	-0.022
-619.361	-37.887	0.038	-0.020
-618.346	-114.409	-0.415	0.080
-617.332	-140.284	-0.219	0.023
-616.317	143.966	-0.239	-0.321
-615.303	-77.198	-0.116	-0.041
-614.288	108.298	0.082	0.099
-613.273	-200.000	-0.002	0.015
-612.259	-28.039	-0.185	-0.108
-611.244	123.393	-0.096	-0.122
-610.230	44.157	0.070	0.064
-609.215	-78.703	-0.180	0.062
-608.201	-37.088	0.100	-0.054
-607.186	156.911	-0.120	0.167
-606.171	-51.779	0.025	-0.012
-605.157	-40.366	0.146	0.077
-604.142	186.541	-0.058	0.087
-603.128	-200.000	-0.003	-0.311
-602.113	-200.000	0.071	0.372
-601.098	-91.509	-0.208	0.060
-600.084	71.433	-0.133	-0.139
-599.069	-200.000	-0.023	0.242
-598.055	-32.845	-0.140	-0.079
-597.040	291.606	-0.105	0.193
-596.025	800.000	-0.038	0.130
-595.011	128.766	-0.207	0.266
-593.996	-65.684	-0.075	0.030
-592.982	800.000	0.038	0.157
-591.967	-200.000	0.033	-0.247
-590.952	-60.265	0.248	0.106
-589.938	-44.604	-0.383	0.193
-588.923	117.066	0.247	-0.306
-587.909	4.823	0.105	-0.078
-586.894	393.608	-0.066	-0.139
-585.879	189.792	0.071	-0.108
-584.865	-196.397	0.302	0.002
-583.850	89.878	-0.016	0.018
-582.836	652.245	-0.069	-0.177
-581.821	-125.350	-0.217	-0.033
-580.806	177.627	0.188	0.275
-579.792	-200.000	0.020	-0.139
-578.777	-200.000	0.038	0.248
-577.763	136.855	-0.088	-0.115
-576.748	371.823	0.066	-0.136
-575.733	-112.203	0.062	-0.013
-574.719	83.722	-0.073	-0.081
-573.704	1.653	-0.077	0.056
-572.690	800.000	-0.029	0.121
-571.675	12.948	-0.125	0.097
-570.661	-159.996	0.130	-0.007
-569.646	-200.000	0.004	-0.218
-568.631	-165.478	-0.034	0.001
-567.617	-11.676	-0.169	-0.112
-566.602	800.000	-0.050	-0.157
-565.588	218.224	-0.115	-0.184
-564.573	-161.068	-0.079	0.004
-563.558	114.192	0.278	0.341
-562.544	-200.000	-0.003	0.035
-561.529	-75.451	0.089	-0.032
-560.515	-178.728	-0.213	-0.005
-559.500	-200.000	-0.011	0.102
-558.485	-200.000	-0.056	0.280
-557.471	13.614	-0.348	-0.272
-556.456	-200.000	0.005	0.066
-555.442	-159.113	-0.309	-0.018
-554.427	-54.056	0.189	0.086
-553.412	-139.950	-0.259	-0.027
-552.398	25.758	-0.061	-0.051
-551.383	-136.508	0.138	-0.016
-550.369	-40.351	0.315	-0.165
-549.354	-200.000	-0.012	0.183
-548.339	-200.000	0.011	0.197
-547.325	-200.000	0.006	-0.074
-546.310	-200.000	0.003	-0.123
-545.296	-200.000	0.020	0.152
-544.281	398.005	0.058	0.123
-543.266	-96.089	-0.024	-0.006
-542.252	-65.239	0.275	0.111
-541.237	-7.955	-0.333	-0.226
-540.223	-200.000	-0.036	-0.278
-539.208	800.000	0.050	0.183
-538.193	800.000	-0.104	-0.374
-537.179	101.262	-0.140	0.164
-536.164	800.000	-0.054	0.161
-535.150	-123.934	0.424	-0.067
-534.135	-200.000	0.019	-0.175
-533.121	-2.859	0.295	0.207
-532.106	245.283	0.210	0.355
-531.091	114.597	0.152	0.186
-530.077	449.514	0.164	0.364
-529.062	444.066	-0.108	-0.239
-528.048	29.664	0.124	-0.106
-527.033	-120.180	0.318	-0.055
-526.018	62.095	-0.117	-0.117
-525.004	-200.000	-0.014	-0.226
-523.989	-200.000	-0.014	0.186
-522.975	137.781	0.135	-0.177
-521.960	-200.000	0.009	0.136
-520.945	383.866	0.053	-0.109
-519.931	29.358	0.279	-0.238
-518.916	64.749	0.281	0.285
-517.902	136.542	-0.175	-0.230
-516.887	-127.050	0.260	0.038
-515.872	-72.064	-0.079	-0.030
-514.858	-200.000	-0.034	0.161
-513.843	800.000	0.103	0.431
-512.829	-153.530	-0.142	0.010
-511.814	299.655	0.112	-0.208
-510.799	119.547	-0.127	-0.158
-509.785	261.946	-0.078	0.135
-508.770	800.000	-0.051	0.187
-507.756	96.260	0.232	-0.267
-506.741	-200.000	0.070	-0.337
-505.726	800.000	0.029	-0.120
-504.712	89.037	-0.311	-0.348
-503.697	131.818	-0.121	-0.156
-502.683	10.212	0.134	0.102
-501.668	-200.000	0.078	-0.370
-500.653	-200.000	-0.005	-0.060
-499.639	-161.285	0.202	0.011
-498.624	-167.165	0.217	0.009
-497.610	176.527	-0.226	0.329
-496.595	-200.000	0.013	-0.077
-495.581	58.784	-0.090	0.089
-494.566	334.844	0.026	-0.050
-493.551	-169.284	0.204	0.008
-492.537	321.662	-0.090	0.172
-491.522	-200.000	-0.002	0.189
-490.508	-163.357	-0.278	0.013
-489.493	361.206	-0.058	0.117
-488.478	762.739	-0.092	-0.250
-487.464	141.336	0.069	-0.092
-486.449	-103.379	0.169	-0.040
-485.435	-43.229	-0.053	0.027
-484.420	-26.228	0.202	-0.119
-483.405	-98.861	0.084	-0.022
-482.391	6.978	0.098	0.073
-481.376	-20.499	0.314	-0.194
-480.362	-142.420	-0.107	-0.011
-479.347	67.387	-0.105	-0.107
-478.332	-200.000	-0.029	-0.164
-477.318	38.258	-0.246	-0.220
-476.303	-200.000	-0.004	-0.271
-475.289	308.932	0.147	0.275
-474.274	13.737	-0.162	0.126
-473.259	225.082	0.223	-0.362
-472.245	120.692	0.377	-0.470
-471.230	48.421	-0.062	0.058
-470.216	-113.268	0.248	0.049
-469.201	59.099	0.063	-0.062
-468.186	-56.518	0.036	0.016
-467.172	165.258	-0.084	0.119
-466.157	-171.662	0.066	0.002
-465.143	-8.339	-0.291	-0.196
-464.128	548.411	-0.057	0.136
-463.113	53.319	-0.114	0.110
-462.099	39.474	0.327	-0.294
-461.084	-162.096	0.256	-0.013
-460.070	203.492	-0.057	-0.088
-459.055	-147.414	-0.210	-0.018
-458.040	-118.357	0.208	0.037
-457.026	-146.412	0.151	0.013
-456.011	-37.876	-0.195	0.104
-454.997	-130.674	0.475	0.064
-453.982	-200.000	-0.178	0.001
-452.968	87.329	-0.073	-0.081
-451.953	77.247	0.202	0.215
-450.938	-118.951	-0.168	-0.030
-449.924	-21.389	0.188	-0.115
-448.909	-200.000	-0.021	0.326
-447.895	-200.000	-0.007	-0.033
-446.880	800.000	0.092	0.295
-445.865	-100.038	0.126	-0.031
-444.851	800.000	-0.037	0.115
-443.836	24.848	0.077	0.064
-442.822	800.000	0.033	-0.103
-441.807	134.905	-0.130	0.169
-440.792	-154.427	-0.212	0.014
-439.778	20.118	-0.205	0.166
-438.763	187.424	0.186	-0.277
-437.749	188.362	0.098	0.146
-436.734	86.194	-0.164	-0.181
-435.719	800.000	-0.098	0.350
-434.705	158.280	-0.063	0.087
-433.690	-72.336	0.152	0.056
-432.676	-22.749	-0.298	0.180
-431.661	-200.000	-0.005	-0.201
-430.646	-115.496	0.317	-0.060
-429.632	40.034	0.206	0.185
-428.617	-97.407	0.125	-0.032
-427.603	165.955	0.020	-0.028
-426.588	54.257	-0.058	-0.056
-425.573	-20.644	-0.191	0.117
-424.559	48.922	0.112	-0.105
-423.544	-200.000	-0.024	0.164
-422.530	-76.293	-0.192	-0.068
-421.515	-200.000	0.044	-0.408
-420.500	-200.000	-0.010	-0.168
-419.486	83.135	-0.325	-0.354
-418.471	-200.000	-0.011	-0.084
-417.457	800.000	-0.044	-0.168
-416.442	338.093	-0.150	-0.291
-415.428	-200.000	-0.038	-0.430
-414.413	512.839	0.017	-0.040
-413.398	483.910	-0.028	-0.063
-412.384	321.412	0.025	0.047
-411.369	8.309	0.358	0.269
-410.355	800.000	0.127	0.396
-409.340	800.000	-0.073	0.256
-408.325	23.167	-0.097	-0.080
-407.311	256.870	0.055	-0.095
-406.296	387.666	-0.081	-0.168
-405.282	800.000	0.032	0.121
-404.267	-1.817	0.198	0.139
-403.252	-200.000	0.013	0.235
-402.238	-200.000	0.002	-0.156
-401.223	15.450	0.148	0.116
-400.209	95.466	-0.275	-0.313
-399.194	800.000	0.080	-0.328
-398.179	667.282	-0.092	-0.238
-397.165	471.347	0.027	0.060
-396.150	-119.435	0.101	0.018
-395.136	-52.544	0.313	-0.145
-394.121	579.776	-0.020	0.048
-393.106	17.839	-0.070	-0.055
-392.092	800.000	0.032	0.135
-391.077	-105.915	0.161	0.036
-390.063	144.627	0.083	-0.111
-389.048	-37.846	0.255	0.135
-388.033	479.846	-0.028	0.064
-387.019	8.848	0.251	0.189
-386.004	-34.568	-0.250	-0.137
-384.990	-200.000	0.063	-0.499
-383.975	-200.000	0.008	-0.233
-382.960	-142.216	0.143	-0.014
-381.946	800.000	-0.039	-0.155
-380.931	-200.000	-0.059	-0.536
-379.917	-200.000	0.000	-0.053
-378.902	-110.601	0.090	0.019
-377.888	-159.774	-0.078	-0.004
-376.873	422.225	0.080	0.171
-375.858	-66.050	-0.414	-0.165
-374.844	104.902	0.049	-0.058
-373.829	105.366	0.091	-0.107
-372.815	157.226	-0.065	-0.090
-371.800	800.000	0.092	0.271
-370.785	-200.000	0.031	0.163
-369.771	-200.000	0.041	-0.388
-368.756	-28.978	-0.033	-0.019
-367.742	-64.190	0.119	-0.049
-366.727	-200.000	-0.001	-0.192
-365.712	174.701	-0.264	0.381
-364.698	129.803	0.144	0.184
-363.683	-169.080	0.207	0.008
-362.669	643.888	-0.061	0.156
-361.654	-86.596	-0.381	0.117
-360.639	-98.790	-0.102	-0.026
-359.625	-198.505	-0.078	0.000
-358.610	9.987	0.250	-0.190
-357.596	-200.000	0.000	0.043
-356.581	-34.031	0.082	-0.045
-355.566	-54.444	0.292	0.132
-354.552	41.039	0.197	-0.177
-353.537	19.231	0.306	-0.245
-352.523	-200.000	0.031	0.148
-351.508	800.000	0.053	0.183
-350.493	-81.785	-0.213	-0.070
-349.479	28.359	-0.276	-0.233
-348.464	262.830	-0.130	-0.225
-347.450	-104.802	-0.391	-0.090
-346.435	-200.000	-0.031	0.384
-345.420	-33.745	-0.168	0.092
-344.406	-200.000	-0.019	0.138
-343.391	-118.043	0.354	0.063
-342.377	-84.198	-0.240	0.076
-341.362	800.000	-0.065	-0.251
-340.348	-145.340	0.091	-0.008
-339.333	-125.123	0.466	-0.071
-338.318	-71.260	0.126	0.047
-337.304	9.307	0.120	-0.090
-336.289	-109.470	0.366	-0.077
-335.275	234.489	0.131	0.216
-334.260	251.160	-0.002	0.004
-333.245	-126.911	0.210	-0.031
-332.231	-128.662	-0.120	0.017
-331.216	17.916	0.056	-0.044
-330.202	-200.000	-0.036	0.225
-329.187	-104.447	0.224	0.052
-328.172	800.000	-0.038	-0.138
-327.158	-172.941	-0.149	0.005
-326.143	135.013	-0.094	-0.121
-325.129	-49.363	-0.096	0.046
-324.114	396.589	-0.165	-0.343
-323.099	-66.144	-0.226	0.090
-322.085	282.266	-0.121	-0.216
-321.070	-30.766	-0.277	-0.156
-320.056	-200.000	0.044	0.313
-319.041	-200.000	-0.022	-0.184
-318.026	310.537	0.041	-0.076
-317.012	287.272	-0.054	0.098
-315.997	-125.596	-0.265	0.040
-314.983	800.000	-0.134	0.376
-313.968	68.825	0.034	-0.034
-312.953	-200.000	0.010	0.380
-311.939	-200.000	-0.017	-0.212
-310.924	90.236	-0.108	-0.121
-309.910	-200.000	0.011	0.127
-308.895	608.382	-0.086	0.215
-307.880	-200.000	-0.064	-0.407
-306.866	21.861	0.105	-0.086
-305.851	470.108	0.078	-0.174
-304.837	543.031	-0.067	-0.159
-303.822	255.096	0.091	-0.156
-302.807	-15.924	0.044	-0.028
-301.793	415.220	0.075	0.158
-300.778	-160.494	0.125	0.007
-299.764	800.000	0.049	-0.161
-298.749	-3.405	-0.117	0.081
-297.735	108.725	-0.184	0.219
-296.720	32.467	0.307	-0.264
-295.705	-81.161	-0.317	-0.104
-294.691	-183.012	-0.226	-0.004
-293.676	-192.706	0.021	-0.000
-292.662	-63.486	-0.437	-0.179
-291.647	-111.018	-0.244	0.050
-290.632	-79.227	0.061	0.021
-289.618	-200.000	0.022	-0.350
-288.603	-18.872	-0.188	-0.117
-287.589	63.972	0.392	0.392
-286.574	36.556	-0.129	-0.113
-285.559	658.744	-0.009	-0.024
-284.545	-25.461	0.144	-0.085
-283.530	226.378	0.052	0.084
-282.516	-200.000	-0.025	-0.117
-281.501	228.490	0.141	0.229
-280.486	-149.303	-0.193	-0.015
-279.472	-200.000	-0.034	0.312
-278.457	-68.511	-0.157	0.061
-277.443	-5.760	0.161	-0.110
-276.428	800.000	-0.042	0.155
-275.413	-200.000	0.026	0.149
-274.399	584.235	0.118	0.290
-273.384	-84.105	-0.079	0.025
-272.370	-108.639	-0.170	0.036
-271.355	-81.102	0.025	-0.008
-270.340	5.117	0.137	0.101
-269.326	-65.441	-0.379	-0.152
-268.311	330.678	0.114	0.218
-267.297	145.834	0.015	0.020
-266.282	-48.163	-0.118	-0.057
-265.267	98.148	-0.161	-0.184
-264.253	-53.331	-0.061	-0.028
-263.238	12.951	-0.131	0.101
-262.224	495.126	0.114	-0.259
-261.209	360.316	0.028	-0.057
-260.195	-2.726	0.284	0.197
-259.180	355.651	0.237	0.470
-258.165	-46.157	-0.294	0.144
-257.151	263.012	0.203	0.351
-256.136	111.058	-0.139	-0.166
-255.122	-38.532	0.248	-0.131
-254.107	14.721	-0.141	-0.109
-253.092	-56.051	0.253	-0.112
-252.078	-125.314	0.121	0.018
-251.063	-200.000	0.053	-0.288
-250.049	691.462	-0.108	-0.281
-249.034	-74.379	-0.064	0.023
-248.019	800.000	-0.085	-0.263
-247.005	-200.000	0.044	-0.228
-245.990	163.735	0.364	-0.509
-244.976	31.719	-0.289	0.247
-243.961	-171.335	0.102	0.003
-242.946	45.943	-0.098	0.090
-241.932	-186.400	-0.239	-0.003
-240.917	-102.786	0.138	0.033
-239.903	353.173	-0.050	0.100
-238.888	-157.418	-0.222	0.013
-237.873	62.967	-0.121	0.121
-236.859	-102.491	-0.162	-0.039
-235.844	-66.033	-0.316	-0.125
-234.830	800.000	0.103	0.285
-233.815	800.000	0.058	0.240
-232.800	-136.566	0.152	0.017
-231.786	5.437	0.303	0.222
-230.771	-200.000	-0.030	0.303
-229.757	-200.000	-0.068	0.310
-228.742	-90.026	0.108	-0.031
-227.727	-44.740	0.164	-0.081
-226.713	-200.000	-0.231	-0.000
-225.698	-200.000	-0.010	0.184
-224.684	800.000	-0.146	0.448
-223.669	-104.640	-0.261	-0.060
-222.655	-113.443	-0.284	0.055
-221.640	12.019	-0.175	-0.133
-220.625	32.757	0.072	-0.062
-219.611	-74.323	0.112	-0.040
-218.596	183.842	0.177	0.260
-217.582	-39.906	0.131	-0.068
-216.567	-162.678	-0.251	-0.012
-215.552	41.959	-0.356	0.321
-214.538	-200.000	0.041	0.187
-213.523	149.804	-0.071	0.096
-212.509	-81.330	-0.148	-0.049
-211.494	800.000	0.013	-0.039
-210.479	249.096	-0.239	0.401
-209.465	178.339	0.116	-0.168
-208.450	185.551	0.053	0.079
-207.436	130.106	-0.230	0.292
-206.421	16.064	-0.201	-0.157
-205.406	-118.962	0.179	0.031
-204.392	43.153	-0.035	0.032
-203.377	-200.000	-0.038	0.271
-202.363	800.000	-0.072	-0.205
-201.348	800.000	-0.106	-0.295
-200.333	175.067	-0.098	0.141
-199.319	800.000	0.024	-0.101
-198.304	-200.000	0.012	0.218
-197.290	490.812	-0.090	0.204
-196.275	158.659	-0.089	-0.122
-195.260	130.194	0.245	0.311
-194.246	800.000	-0.061	-0.223
-193.231	277.200	-0.120	-0.213
-192.217	800.000	0.050	0.157
-191.202	186.596	0.099	-0.146
-190.187	228.078	-0.108	-0.175
-189.173	20.353	-0.158	-0.127
-188.158	-169.436	-0.228	0.008
-187.144	85.572	0.103	-0.113
-186.129	460.158	0.054	0.119
-185.114	800.000	0.044	-0.129
-184.100	-123.643	0.075	0.012
-183.085	-200.000	-0.007	-0.186
-182.071	-134.642	0.340	0.041
-181.056	-76.946	-0.318	0.110
-180.042	207.997	0.235	0.364
-179.027	-173.152	-0.224	0.007
-178.012	475.968	0.040	0.090
-176.998	-200.000	-0.007	0.199
-175.983	390.503	0.080	-0.164
-174.969	-112.484	0.235	-0.047
-173.954	89.327	0.153	0.169
-172.939	800.000	0.084	0.253
-171.925	58.320	0.186	0.180
-170.910	38.778	0.289	0.256
-169.896	-200.000	0.008	-0.541
-168.881	261.273	-0.031	-0.053
-167.866	5.129	-0.381	0.278
-166.852	-127.729	0.194	-0.028
-165.837	-78.606	-0.157	0.053
-164.823	135.784	0.040	-0.051
-163.808	-43.507	-0.158	0.079
-162.793	10.270	-0.050	0.037
-161.779	-51.112	0.254	-0.118
-160.764	254.535	0.029	-0.050
-159.750	800.000	-0.061	0.260
-158.735	478.158	0.094	0.211
-157.720	26.917	0.155	-0.129
-156.706	-99.854	0.234	-0.058
-155.691	-150.044	0.330	0.025
-154.677	580.702	0.163	0.394
-153.662	126.661	-0.253	-0.317
-152.647	240.672	0.075	0.123
-151.633	4.945	0.140	-0.102
-150.618	237.689	-0.048	-0.080
-149.604	-91.326	0.220	-0.062
-148.589	-14.761	0.012	-0.007
-147.574	200.736	0.163	0.248
-146.560	800.000	-0.017	0.074
-145.545	252.891	0.118	0.199
-144.531	113.546	-0.081	0.098
-143.516	-102.546	0.427	0.101
-142.502	-200.000	-0.021	-0.169
-141.487	288.041	-0.077	-0.138
-140.472	79.922	0.082	0.088
-139.458	192.363	0.168	-0.251
-138.443	-200.000	-0.057	-0.325
-137.429	7.670	-0.085	0.063
-136.414	-33.759	-0.079	-0.043
-135.399	-200.000	0.036	0.344
-134.385	800.000	-0.086	0.289
-133.370	-26.774	-0.246	-0.142
-132.356	18.736	-0.224	-0.178
-131.341	-31.328	0.187	-0.104
-130.326	800.000	-0.095	0.335
-129.312	260.810	-0.117	-0.200
-128.297	-94.167	-0.192	-0.052
-127.283	-200.000	0.064	-0.371
-126.268	-89.467	-0.067	0.019
-125.253	-38.971	-0.037	0.019
-124.239	436.125	-0.158	-0.341
-123.224	-200.000	-0.002	0.025
-122.210	-200.000	0.015	0.457
-121.195	-110.622	-0.235	-0.048
-120.180	-200.000	0.019	-0.199
-119.166	53.248	-0.053	-0.050
-118.151	-28.049	0.062	0.035
-117.137	124.778	0.145	-0.181
-116.122	800.000	0.049	-0.196
-115.107	-99.976	0.083	0.020
-114.093	54.507	-0.133	0.127
-113.078	69.811	0.097	0.099
-112.064	800.000	0.027	0.100
-111.049	600.146	0.034	0.082
-110.034	-200.000	0.232	-0.001
-109.020	90.829	-0.226	0.250
-108.005	-200.000	0.009	0.409
-106.991	-99.035	0.342	-0.086
-105.976	-200.000	-0.034	0.219
-104.962	-56.783	-0.142	-0.062
-103.947	-168.798	-0.103	0.004
-102.932	-200.000	-0.054	0.288
-101.918	113.166	0.197	0.236
-100.903	-200.000	-0.105	0.460
-99.889	-125.745	-0.166	0.025
-98.874	-17.713	0.168	-0.104
-97.859	16.260	-0.156	0.121
-96.845	-108.412	0.365	-0.078
-95.830	-179.307	0.210	0.005
-94.816	470.446	-0.210	0.467
-93.801	-200.000	0.030	-0.280
-92.786	-45.735	0.041	-0.020
-91.772	-108.070	0.488	0.105
-90.757	-88.348	0.397	0.117
-89.743	-200.000	0.068	-0.302
-88.728	-96.484	-0.112	0.029
-87.713	800.000	0.089	-0.260
-86.699	-60.221	-0.119	-0.050
-85.684	-200.000	0.042	-0.190
-84.670	284.482	-0.125	-0.222
-83.655	366.466	0.136	-0.271
-82.640	-200.000	0.024	0.250
-81.626	-155.211	0.113	0.007
-80.611	79.612	0.135	0.144
-79.597	150.658	-0.246	0.329
-78.582	226.422	0.280	-0.449
-77.567	-124.889	-0.292	0.044
-76.553	780.081	0.081	-0.218
-75.538	312.911	0.183	-0.339
-74.524	-200.000	0.022	-0.094
-73.509	800.000	0.029	0.086
-72.494	-119.113	0.133	-0.023
-71.480	-200.000	-0.047	-0.347
-70.465	250.167	-0.105	0.176
-69.451	567.446	-0.073	0.175
-68.436	-127.547	-0.333	-0.048
-67.422	70.628	-0.082	-0.084
-66.407	-200.000	-0.018	0.164
-65.392	47.887	0.233	0.214
-64.378	-200.000	0.007	-0.366
-63.363	-200.000	-0.024	-0.156
-62.349	1.571	0.137	-0.097
-61.334	-30.829	-1.013	-0.565
-60.319	800.000	0.141	0.488
-59.305	-200.000	-0.230	-1.162
-58.290	249.349	0.620	1.036
-57.276	600.505	0.607	1.488
-56.261	-200.000	95.096	556.763
-55.246	638.202	1383.467	3469.320
-54.232	186.361	2613.761	3837.104
-53.217	116.906	2322.792	2813.332
-52.203	44.989	1933.668	1756.632
-51.188	38.525	1718.550	1511.449
-50.173	35.578	1672.829	1448.988
-49.159	51.730	1721.305	1614.949
-48.144	55.180	1738.955	1657.844
-47.130	38.195	1695.085	1488.066
-46.115	35.191	1680.210	1452.225
-45.100	35.031	1675.409	1446.806
-44.086	34.928	1672.989	1443.882
-43.071	34.933	1669.839	1441.145
-42.057	34.912	1667.858	1439.214
-41.042	34.967	1665.774	1437.775
-40.027	34.994	1664.041	1436.425
-39.013	34.959	1662.293	1434.594
-37.998	34.958	1660.131	1432.663
-36.984	35.030	1659.122	1432.279
-35.969	35.186	1657.474	1431.965
-34.954	35.101	1656.104	1430.086
-33.940	35.158	1654.114	1428.738
-32.925	35.109	1652.062	1426.542
-31.911	35.217	1650.141	1425.635
-30.896	35.085	1648.811	1423.443
-29.881	35.045	1647.254	1421.750
-28.867	35.065	1645.229	1420.094
-27.852	35.053	1644.119	1418.986
-26.838	35.045	1642.288	1417.290
-25.823	35.112	1641.033	1416.654
-24.809	35.190	1639.598	1415.935
-23.794	35.116	1638.491	1414.376
-22.779	35.131	1637.039	1413.174
-21.765	35.175	1634.733	1411.454
-20.750	35.102	1633.092	1409.444
-19.736	35.126	1631.957	1408.579
-18.721	35.131	1630.497	1407.300
-17.706	35.218	1628.757	1406.382
-16.692	35.134	1627.012	1404.205
-15.677	35.120	1625.244	1402.519
-14.663	35.191	1624.399	1402.259
-13.648	35.112	1623.437	1400.792
-12.633	35.146	1621.724	1399.507
-11.619	35.189	1619.706	1398.020
-10.604	35.176	1618.245	1396.613
-9.590	35.143	1617.349	1395.546
-8.575	35.135	1615.546	1393.874
-7.560	35.134	1614.114	1392.578
-6.546	35.095	1613.159	1391.414
-5.531	35.086	1612.101	1390.381
-4.517	35.172	1610.766	1389.797
-3.502	35.131	1610.115	1388.886
-2.487	35.229	1608.296	1387.967
-1.473	35.047	1597.473	1377.263
-0.458	32.322	1577.771	1340.830
0.556	30.595	1576.923	1302.728
1.571	27.691	1600.541	1301.436
2.586	26.544	1613.238	1303.391
3.600	23.140	1558.869	1235.620
4.615	14.073	1446.000	1087.035
5.629	6.165	1379.637	987.554
6.644	4.597	1371.303	971.704
7.659	4.490	1370.366	970.287
8.673	4.547	1369.517	969.955
9.688	4.687	1367.147	969.061
10.702	4.688	1364.813	967.333
11.717	8.420	1372.033	995.654
12.731	17.108	1388.366	1061.982
13.746	22.526	1396.552	1102.146
14.761	22.764	1395.511	1102.708
15.775	21.999	1392.982	1095.843
16.790	20.891	1390.901	1087.201
17.804	19.999	1388.415	1079.600
18.819	19.772	1387.447	1077.340
19.834	19.609	1386.146	1075.218
20.848	19.418	1385.098	1073.123
21.863	19.304	1384.015	1071.479
22.877	19.169	1382.836	1069.636
23.892	19.099	1381.855	1068.344
24.907	19.031	1381.144	1067.279
25.921	19.061	1380.337	1066.745
26.936	19.190	1378.968	1066.396
27.950	19.147	1378.433	1065.619
28.965	19.273	1377.384	1065.494
29.980	19.471	1375.873	1065.451
30.994	19.414	1374.759	1064.146
32.009	19.564	1373.983	1064.372
33.023	19.423	1372.773	1062.475
34.038	19.436	1371.131	1061.192
35.053	19.333	1369.925	1059.533
36.067	19.374	1368.668	1058.718
37.082	19.369	1367.824	1057.941
38.096	19.364	1367.108	1057.263
39.111	19.406	1366.110	1056.653
40.126	19.241	1365.394	1054.992
41.140	18.988	1363.945	1052.236
42.155	18.756	1363.673	1050.514
43.169	18.818	1363.333	1050.539
44.184	18.852	1363.053	1050.435
45.199	18.813	1362.701	1049.835
46.213	18.937	1362.437	1050.292
47.228	19.177	1361.652	1051.061
48.242	19.306	1360.389	1050.780
49.257	19.237	1358.762	1049.011
50.271	19.158	1357.532	1047.488
51.286	19.258	1356.192	1046.967
52.301	19.177	1354.969	1045.439
53.315	19.082	1354.329	1044.278
54.330	18.876	1352.900	1041.834
55.344	18.858	1351.354	1040.442
56.359	18.902	1350.732	1040.139
57.374	18.951	1349.782	1039.610
58.388	18.805	1348.887	1037.949
59.403	18.680	1348.660	1036.925
60.417	18.816	1347.324	1036.629
61.432	18.781	1346.171	1035.436
62.447	18.652	1345.213	1033.834
63.461	18.578	1344.340	1032.621
64.476	18.605	1343.295	1031.893
65.490	18.654	1341.319	1030.579
66.505	18.529	1340.495	1029.104
67.520	18.686	1339.137	1028.909
68.534	18.715	1338.273	1028.332
69.549	18.729	1336.764	1027.160
70.563	18.508	1336.273	1025.375
71.578	18.566	1334.524	1024.286
72.593	18.427	1334.204	1023.118
73.607	18.441	1333.701	1022.725
74.622	18.419	1332.972	1021.949
75.636	18.539	1331.638	1021.548
76.651	18.531	1331.217	1021.088
77.666	18.469	1331.120	1020.550
78.680	18.555	1330.633	1020.598
79.695	18.630	1329.995	1020.466
80.709	18.814	1328.827	1020.575
81.724	18.792	1328.835	1020.362
82.739	19.009	1327.449	1020.492
83.753	19.099	1327.006	1020.595
84.768	19.221	1326.203	1020.610
85.782	19.335	1325.527	1020.678
86.797	19.428	1323.383	1019.481
87.812	19.133	1323.008	1017.364
88.826	19.249	1321.328	1016.665
89.841	19.272	1320.768	1016.276
90.855	19.238	1319.883	1015.307
91.870	19.373	1318.927	1015.279
92.884	19.362	1318.215	1014.575
93.899	19.418	1317.632	1014.367
94.914	19.420	1316.556	1013.456
95.928	19.402	1315.981	1012.822
96.943	19.410	1314.966	1012.000
97.957	19.333	1313.896	1010.635
98.972	19.337	1312.819	1009.737
99.987	19.399	1311.945	1009.338
101.001	19.338	1311.110	1008.253
102.016	19.261	1310.137	1006.963
103.030	19.356	1309.244	1006.745
104.045	19.267	1308.321	1005.423
105.060	19.163	1307.094	1003.784
106.074	18.819	1305.954	1000.819
107.089	18.784	1303.627	998.743
108.103	18.647	1302.733	997.176
109.118	18.664	1301.503	996.241
110.133	18.700	1299.889	995.129
111.147	18.769	1298.801	994.609
112.162	18.725	1297.464	993.240
113.176	18.901	1296.365	993.329
114.191	18.841	1295.366	992.127
115.206	18.855	1294.226	991.251
116.220	18.714	1293.322	989.657
117.235	18.794	1292.189	989.161
118.249	18.757	1291.249	988.140
119.264	18.683	1290.142	986.784
120.279	18.577	1289.129	985.311
121.293	18.555	1287.681	983.992
122.308	18.574	1286.763	983.313
123.322	18.447	1285.742	981.717
124.337	18.375	1284.692	980.415
125.352	18.454	1283.167	979.617
126.366	18.460	1282.580	979.116
127.381	18.435	1281.459	978.032
128.395	18.540	1280.284	977.648
129.410	18.628	1279.561	977.508
130.424	18.635	1278.779	976.868
131.439	18.688	1277.626	976.202
132.454	18.724	1277.291	976.062
133.468	18.787	1276.205	975.506
134.483	18.771	1275.957	975.134
135.497	18.812	1274.494	974.167
136.512	18.828	1273.332	973.279
137.527	18.822	1272.338	972.402
138.541	18.951	1270.507	971.643
139.556	19.041	1269.450	971.257
140.570	19.065	1268.845	970.845
141.585	19.089	1267.660	969.991
142.600	19.176	1266.628	969.600
143.614	19.324	1265.810	969.723
144.629	19.400	1264.788	969.281
145.643	19.368	1263.466	968.003
146.658	19.272	1262.395	966.559
147.673	19.042	1260.693	963.881
148.687	18.949	1259.509	962.373
149.702	18.840	1258.073	960.581
150.716	18.832	1256.502	959.252
151.731	18.915	1255.322	958.728
152.746	18.888	1253.831	957.355
153.760	18.910	1253.238	956.941
154.775	19.012	1252.335	956.731
155.789	19.176	1251.004	956.542
156.804	19.134	1250.128	955.552
157.819	19.181	1249.405	955.177
158.833	19.316	1248.485	955.140
159.848	19.436	1247.383	954.874
160.862	19.431	1246.702	954.239
161.877	19.078	1245.728	951.458
162.892	18.937	1244.095	949.350
163.906	18.836	1243.241	948.058
164.921	18.932	1242.229	947.729
165.935	18.963	1241.564	947.311
166.950	19.093	1241.213	947.676
167.964	19.094	1240.228	946.841
168.979	19.043	1239.434	945.870
169.994	19.027	1238.571	945.042
171.008	19.007	1238.086	944.481
172.023	19.248	1237.010	944.896
173.037	19.280	1236.574	944.655
174.052	19.284	1235.622	943.867
175.067	19.035	1234.073	941.240
176.081	18.930	1232.891	939.680
177.096	18.891	1232.180	938.844
178.110	19.094	1230.851	938.854
179.125	19.124	1229.413	937.837
180.140	19.173	1228.689	937.466
181.154	19.360	1227.212	937.273
182.169	19.300	1226.931	936.652
183.183	19.478	1225.670	936.574
184.198	19.307	1224.908	934.978
185.213	19.362	1223.333	933.994
186.227	19.440	1222.308	933.547
187.242	19.525	1221.735	933.489
188.256	19.561	1220.552	932.695
189.271	19.542	1219.818	931.951
190.286	19.438	1218.302	930.151
191.300	19.004	1217.344	926.998
192.315	18.816	1216.650	925.372
193.329	18.878	1216.336	925.388
194.344	19.106	1215.175	925.647
195.359	19.168	1215.037	925.793
196.373	19.230	1214.752	925.828
197.388	19.288	1214.636	925.970
198.402	19.543	1213.945	926.727
199.417	19.644	1213.579	926.911
200.432	19.774	1212.745	926.886
201.446	19.837	1212.184	926.715
202.461	19.913	1211.314	926.376
203.475	19.825	1210.676	925.334
204.490	19.724	1208.481	923.034
205.504	19.467	1207.814	921.071
206.519	19.482	1206.531	920.095
207.534	19.409	1205.223	918.624
208.548	19.557	1203.863	918.294
209.563	19.552	1203.758	918.104
210.577	19.599	1202.411	917.246
211.592	19.554	1201.945	916.572
212.607	19.754	1201.216	916.996
213.621	19.821	1200.099	916.415
214.636	19.677	1199.698	915.267
215.650	19.686	1199.010	914.710
216.665	19.836	1197.481	914.253
217.680	20.086	1196.865	915.022
218.694	20.004	1196.196	913.995
219.709	19.907	1195.326	912.743
220.723	19.846	1194.981	912.078
221.738	19.925	1193.795	911.503
222.753	19.828	1193.039	910.339
223.767	19.863	1192.485	910.018
224.782	19.958	1191.783	909.900
225.796	20.009	1191.877	910.162
226.811	19.980	1191.013	909.268
227.826	19.943	1189.814	908.078
228.840	19.899	1189.416	907.463
229.855	19.790	1188.306	905.966
230.869	19.929	1187.104	905.697
231.884	19.845	1186.609	904.800
232.899	19.711	1185.717	903.337
233.913	19.624	1185.148	902.369
234.928	19.633	1184.182	901.603
235.942	19.629	1183.435	900.930
236.957	19.602	1182.545	900.035
237.972	19.638	1181.647	899.459
238.986	19.619	1180.953	898.751
240.001	19.568	1180.709	898.221
241.015	19.668	1179.676	897.873
242.030	19.841	1178.964	898.152
243.045	19.786	1178.550	897.471
244.059	19.797	1177.742	896.834
245.074	19.937	1176.506	896.541
246.088	20.005	1176.097	896.499
247.103	20.098	1175.372	896.348
248.117	20.308	1174.698	896.841
249.132	20.400	1174.237	896.887
250.147	20.479	1174.147	897.147
251.161	20.754	1173.215	897.774
252.176	20.637	1172.802	896.773
253.190	20.749	1171.873	896.562
254.205	20.788	1171.366	896.294
255.220	20.849	1170.946	896.205
256.234	20.767	1170.350	895.252
257.249	20.765	1169.048	894.164
258.263	20.755	1168.558	893.662
259.278	20.798	1167.911	893.307
260.293	20.806	1167.653	893.070
261.307	20.889	1167.246	893.104
262.322	20.896	1166.376	892.398
263.336	21.014	1165.309	892.104
264.351	20.937	1165.145	891.509
265.366	20.955	1164.444	890.983
266.380	20.924	1163.715	890.187
267.395	20.844	1162.674	888.904
268.409	20.706	1161.989	887.599
269.424	20.679	1161.381	886.920
270.439	20.692	1161.245	886.802
271.453	20.685	1159.815	885.595
272.468	20.517	1158.835	883.913
273.482	20.532	1158.417	883.593
274.497	20.490	1158.051	883.024
275.512	20.604	1156.824	882.591
276.526	20.656	1156.218	882.311
277.541	20.602	1155.469	881.388
278.555	20.772	1154.782	881.647
279.570	20.829	1154.239	881.444
280.585	20.910	1153.723	881.380
281.599	21.047	1152.649	881.174
282.614	20.809	1151.441	878.974
283.628	20.714	1150.147	877.427
284.643	20.682	1149.567	876.746
285.657	20.729	1148.395	876.009
286.672	20.726	1147.675	875.370
287.687	20.762	1146.563	874.624
288.701	20.743	1146.123	874.116
289.716	20.750	1145.135	873.319
290.730	20.847	1144.850	873.512
291.745	20.872	1143.818	872.774
292.760	20.882	1143.300	872.353
293.774	20.992	1142.494	872.210
294.789	21.019	1142.445	872.230
295.803	21.151	1141.488	872.080
296.818	20.934	1140.796	870.392
297.833	20.835	1139.542	868.866
298.847	20.756	1139.048	868.017
299.862	20.735	1138.548	867.455
300.876	20.838	1137.879	867.378
301.891	20.948	1137.612	867.649
302.906	21.211	1136.415	867.964
303.920	21.325	1135.555	867.800
304.935	21.349	1135.496	867.796
305.949	21.467	1134.746	867.733
306.964	21.423	1133.901	866.789
307.979	21.229	1133.315	865.302
308.993	21.211	1132.648	864.627
310.008	21.316	1131.933	864.526
311.022	21.326	1131.501	864.169
312.037	21.293	1130.295	863.011
313.052	21.174	1129.410	861.669
314.066	21.103	1127.947	860.126
315.081	20.876	1127.244	858.396
316.095	20.905	1126.305	857.749
317.110	20.895	1125.707	857.169
318.125	20.958	1124.791	856.702
319.139	20.916	1124.303	856.051
320.154	20.978	1123.543	855.701
321.168	21.052	1122.768	855.397
322.183	21.068	1121.981	854.803
323.197	21.151	1121.287	854.603
324.212	21.145	1121.096	854.350
325.227	21.077	1120.835	853.744
326.241	21.050	1120.068	852.955
327.256	21.066	1119.162	852.268
328.270	21.058	1118.258	851.462
329.285	21.108	1116.972	850.651
330.300	20.961	1116.155	849.237
331.314	21.102	1115.444	849.307
332.329	21.092	1114.488	848.458
333.343	21.143	1113.715	848.040
334.358	21.211	1113.176	847.887
335.373	21.290	1112.397	847.601
336.387	21.517	1111.157	847.682
337.402	21.462	1110.591	846.909
338.416	21.412	1110.359	846.412
339.431	21.502	1109.328	845.986
340.446	21.676	1108.872	846.407
341.460	21.800	1108.522	846.661
342.475	21.848	1107.923	846.364
343.489	21.731	1106.673	844.768
344.504	21.946	1105.587	844.901
345.519	21.841	1105.281	844.085
346.533	21.890	1104.749	843.841
347.548	22.027	1103.889	843.768
348.562	21.953	1103.010	842.665
349.577	21.747	1101.714	840.615
350.592	21.573	1101.089	839.226
351.606	21.483	1100.182	838.029
352.621	21.365	1099.445	836.829
353.635	21.394	1098.935	836.506
354.650	21.552	1097.976	836.459
355.665	21.559	1097.444	836.012
356.679	21.617	1096.651	835.612
357.694	21.535	1096.698	835.181
358.708	21.709	1095.890	835.325
359.723	21.796	1095.399	835.287
360.738	21.690	1094.463	833.994
361.752	21.811	1094.063	834.192
362.767	21.749	1092.970	832.992
363.781	21.761	1092.851	832.884
364.796	21.917	1092.358	833.177
365.810	22.021	1091.823	833.187
366.825	22.151	1091.374	833.389
367.840	22.222	1091.238	833.545
368.854	22.373	1090.011	833.249
369.869	22.347	1089.602	832.740
370.883	22.229	1088.299	831.115
371.898	22.019	1087.644	829.547
372.913	21.940	1087.402	828.917
373.927	22.166	1086.681	829.361
374.942	22.251	1086.511	829.559
375.956	22.396	1085.188	829.156
376.971	22.074	1085.183	827.563
377.986	22.113	1084.577	827.213
379.000	22.345	1083.970	827.769
380.015	22.505	1083.358	827.980
381.029	22.430	1082.777	827.109
382.044	22.562	1081.877	826.969
383.059	22.507	1081.309	826.204
384.073	22.459	1080.509	825.294
385.088	22.440	1079.734	824.542
386.102	22.465	1078.883	823.934
387.117	22.292	1077.677	822.133
388.132	22.129	1076.466	820.374
389.146	22.174	1075.809	820.012
390.161	22.048	1074.943	818.691
391.175	22.106	1073.941	818.124
392.190	22.284	1073.818	818.788
393.205	22.425	1073.027	818.769
394.219	22.296	1072.714	817.858
395.234	22.251	1071.344	816.530
396.248	22.110	1070.210	814.942
397.263	22.154	1069.427	814.475
398.278	22.141	1068.656	813.758
399.292	22.025	1067.929	812.595
400.307	21.897	1067.495	811.600
401.321	21.895	1066.715	810.924
402.336	21.975	1066.126	810.776
403.350	21.940	1065.328	809.937
404.365	21.976	1064.604	809.482
405.380	22.141	1063.938	809.662
406.394	22.175	1063.073	809.088
407.409	22.317	1062.484	809.224
408.423	22.560	1061.677	809.652
409.438	22.690	1060.975	809.644
410.453	22.688	1060.678	809.337
411.467	22.603	1060.148	808.468
412.482	22.777	1059.586	808.767
413.496	22.797	1058.335	807.830
414.511	22.770	1058.365	807.661
415.526	23.007	1057.952	808.355
416.540	23.031	1057.469	808.025
417.555	23.000	1056.917	807.391
418.569	22.857	1056.501	806.351
419.584	22.973	1055.543	806.074
420.599	22.850	1055.166	805.156
421.613	154.310	1400.437	1789.324
422.628	141.752	1450.737	1789.437
