DTS Sentinel unit serial number:	SN413079Multiplexer serial number:	ORYXHardware model number:	OX4-SRSoftware version number:	ORYX F/W v4.00 Oryx Data Collector v3.7.2.0data status	okinstallation	princeton_trtdifferential loss correction	single-endedforward channel	channel 2reverse channel	N/Adate	2019/09/16time	20:51:35forward acquisition time	60.00reverse acquisition time	0.00gamma	496.2192k internal	0.2330k external	0.2330temperature offset calibration	0.9966default loss term (dB/km)	0.3790temperature slope calibration	1.0000multiplexer offset coefficient	1.0000multiplexer slope coefficient	1.0000fibre end	0.00T internal ref (°C)	32.23T ext. ref 1 (°C)	0.08T ext. ref 2 (°C)	25.63length (m)	temperature (°C)	Stokes	anti-Stokes-747.200	99.350	-0.234	0.273
-746.185	-54.295	-0.210	0.096
-745.171	3.459	0.239	-0.175
-744.156	178.665	-0.075	0.110
-743.142	-200.000	0.018	-0.180
-742.127	-149.674	-0.189	0.015
-741.112	-29.899	-0.097	0.056
-740.098	46.521	-0.251	0.235
-739.083	-140.998	-0.191	0.020
-738.069	652.438	-0.096	0.249
-737.054	-200.000	-0.026	0.224
-736.039	52.151	-0.075	-0.072
-735.025	-63.571	0.404	0.167
-734.010	97.524	0.085	-0.098
-732.996	229.166	-0.126	-0.207
-731.981	-111.929	-0.124	0.025
-730.966	-86.695	-0.158	0.049
-729.952	152.106	0.076	-0.105
-728.937	165.264	0.186	-0.264
-727.923	-1.714	-0.297	0.210
-726.908	313.412	-0.188	-0.356
-725.894	-32.658	0.111	-0.062
-724.879	-113.136	-0.152	0.030
-723.864	46.598	-0.105	0.098
-722.850	73.842	0.117	-0.124
-721.835	91.734	-0.318	-0.359
-720.821	59.359	0.144	-0.143
-719.806	106.415	-0.025	0.030
-718.791	-200.000	0.017	0.087
-717.777	-200.000	0.033	-0.163
-716.762	800.000	-0.058	-0.161
-715.748	800.000	0.063	-0.186
-714.733	294.167	-0.110	0.202
-713.718	-200.000	-0.008	-0.376
-712.704	8.175	-0.178	-0.134
-711.689	453.003	0.100	0.223
-710.675	-57.988	0.159	-0.070
-709.660	800.000	-0.092	-0.260
-708.645	800.000	0.121	0.351
-707.631	-35.898	-0.290	0.158
-706.616	-69.141	-0.196	0.076
-705.602	-91.826	-0.116	-0.033
-704.587	-200.000	-0.025	-0.116
-703.572	800.000	0.025	0.095
-702.558	-78.860	-0.044	0.015
-701.543	500.671	0.043	-0.101
-700.529	-25.421	-0.164	-0.097
-699.514	-200.000	-0.058	-0.297
-698.499	-200.000	-0.030	-0.140
-697.485	-91.531	0.243	-0.070
-696.470	-200.000	-0.065	-0.308
-695.456	-82.179	-0.317	0.104
-694.441	-31.045	0.228	-0.129
-693.426	-132.212	-0.153	-0.020
-692.412	-27.255	0.036	0.021
-691.397	720.732	0.088	0.236
-690.383	-146.238	0.225	0.020
-689.368	-20.724	0.154	0.095
-688.354	-74.978	0.293	-0.106
-687.339	-9.732	-0.068	0.046
-686.324	219.058	0.095	-0.152
-685.310	130.697	0.236	-0.303
-684.295	-83.804	-0.073	-0.023
-683.281	42.390	0.138	0.126
-682.266	710.561	-0.124	-0.329
-681.251	-172.074	0.187	0.006
-680.237	800.000	-0.109	-0.379
-679.222	89.128	0.091	0.102
-678.208	-89.580	0.263	-0.078
-677.193	800.000	0.026	0.082
-676.178	95.114	0.083	0.095
-675.164	255.954	0.085	-0.146
-674.149	504.311	0.215	-0.500
-673.135	-139.008	0.110	0.012
-672.120	104.089	0.101	0.119
-671.105	-200.000	-0.058	0.277
-670.091	-61.440	-0.156	-0.066
-669.076	800.000	0.078	-0.235
-668.062	-200.000	-0.010	-0.196
-667.047	44.005	0.199	-0.183
-666.032	-200.000	0.019	0.240
-665.018	0.333	0.099	0.071
-664.003	-200.000	-0.042	-0.271
-662.989	-20.710	-0.302	-0.186
-661.974	96.402	0.218	-0.251
-660.959	-200.000	0.011	-0.127
-659.945	176.896	-0.066	0.096
-658.930	48.857	-0.053	0.050
-657.916	74.161	-0.142	-0.149
-656.901	497.299	0.088	0.204
-655.886	-35.009	-0.224	-0.122
-654.872	-85.656	0.206	-0.064
-653.857	0.272	-0.087	0.063
-652.843	270.872	-0.082	-0.144
-651.828	-137.505	-0.165	-0.019
-650.814	-69.809	0.374	0.143
-649.799	-52.141	-0.076	0.036
-648.784	-129.027	-0.434	-0.061
-647.770	-187.868	-0.275	-0.004
-646.755	-200.000	-0.004	-0.214
-645.741	800.000	-0.048	0.152
-644.726	-106.395	0.157	0.035
-643.711	-177.639	-0.300	-0.007
-642.697	-43.644	0.163	0.082
-641.682	-12.317	-0.169	0.111
-640.668	199.890	0.104	0.160
-639.653	800.000	-0.019	-0.070
-638.638	176.045	0.212	-0.309
-637.624	367.747	-0.157	-0.319
-636.609	-68.092	0.188	0.074
-635.595	140.137	-0.065	-0.086
-634.580	-140.586	0.306	0.032
-633.565	800.000	-0.033	-0.123
-632.551	-52.855	-0.048	-0.022
-631.536	-86.431	-0.391	-0.120
-630.522	32.930	0.251	-0.218
-629.507	-63.760	-0.366	-0.150
-628.492	286.304	0.057	-0.103
-627.478	138.445	-0.165	0.217
-626.463	161.154	-0.060	-0.085
-625.449	-129.048	-0.286	-0.040
-624.434	800.000	0.126	-0.384
-623.419	-110.461	-0.246	0.051
-622.405	221.195	0.086	-0.139
-621.390	55.432	0.089	0.086
-620.376	-124.076	-0.080	0.013
-619.361	-148.791	0.545	-0.044
-618.346	-17.437	0.318	-0.201
-617.332	784.620	-0.112	-0.308
-616.317	-175.795	0.139	-0.004
-615.303	800.000	0.081	-0.230
-614.288	-11.501	-0.284	-0.187
-613.273	-140.857	0.220	-0.023
-612.259	88.039	-0.190	0.211
-611.244	109.442	0.139	-0.167
-610.230	800.000	-0.096	-0.279
-609.215	-200.000	0.026	0.138
-608.201	800.000	0.084	-0.262
-607.186	-7.669	-0.242	0.164
-606.171	-61.191	0.401	-0.170
-605.157	-22.105	0.295	-0.179
-604.142	-84.562	0.162	-0.051
-603.128	-200.000	0.052	-0.342
-602.113	214.871	0.061	-0.096
-601.098	-122.654	-0.065	0.010
-600.084	-89.133	0.498	0.147
-599.069	109.015	-0.116	-0.139
-598.055	-102.497	-0.106	0.025
-597.040	-200.000	0.008	0.130
-596.025	-81.572	0.155	0.051
-595.011	268.036	0.160	-0.281
-593.996	-200.000	-0.003	-0.505
-592.982	-1.737	0.153	-0.108
-591.967	-150.147	-0.268	-0.021
-590.952	93.538	-0.157	-0.178
-589.938	28.033	0.206	0.174
-588.923	-200.000	0.056	0.285
-587.909	800.000	0.028	0.091
-586.894	-3.781	0.289	-0.201
-585.879	30.975	-0.227	0.195
-584.865	-40.783	0.182	0.094
-583.850	453.152	-0.107	-0.236
-582.836	29.367	-0.103	0.088
-581.821	-68.066	0.297	-0.116
-580.806	-200.000	0.027	0.158
-579.792	-15.683	-0.375	0.239
-578.777	-121.652	-0.345	-0.057
-577.763	-100.188	0.274	-0.068
-576.748	281.083	-0.104	0.185
-575.733	183.240	-0.138	-0.204
-574.719	-43.949	-0.216	0.109
-573.704	108.797	0.142	0.170
-572.690	73.178	0.087	0.091
-571.675	-200.000	-0.019	0.263
-570.661	-27.811	0.360	-0.209
-569.646	-200.000	-0.078	-0.429
-568.631	800.000	-0.062	-0.208
-567.617	122.353	-0.202	-0.252
-566.602	-107.652	0.246	-0.054
-565.588	-200.000	0.003	0.065
-564.573	-109.622	0.075	-0.016
-563.558	-83.547	-0.333	0.106
-562.544	-200.000	-0.024	0.232
-561.529	-6.761	-0.265	0.180
-560.515	-131.617	-0.318	0.042
-559.500	-129.094	-0.181	0.025
-558.485	561.048	0.114	-0.276
-557.471	294.426	0.142	-0.259
-556.456	-200.000	-0.045	-0.275
-555.442	-104.828	0.051	-0.012
-554.427	153.395	0.203	-0.277
-553.412	-22.386	-0.166	0.100
-552.398	42.526	0.296	0.269
-551.383	178.436	-0.086	0.125
-550.369	-90.257	0.184	-0.054
-549.354	-166.639	-0.133	-0.005
-548.339	532.069	-0.038	-0.089
-547.325	270.397	0.065	0.113
-546.310	6.426	-0.382	-0.284
-545.296	-1.625	0.103	-0.072
-544.281	800.000	0.027	-0.098
-543.266	60.792	-0.228	-0.226
-542.252	-40.423	-0.208	-0.108
-541.237	-200.000	-0.007	0.409
-540.223	-87.380	-0.120	-0.036
-539.208	365.755	0.118	0.237
-538.193	124.829	0.320	0.403
-537.179	-89.992	-0.061	-0.018
-536.164	221.100	-0.028	0.045
-535.150	231.309	-0.148	-0.242
-534.135	800.000	0.128	0.363
-533.121	-50.403	0.141	-0.067
-532.106	18.299	-0.261	0.208
-531.091	-200.000	0.006	0.059
-530.077	-18.872	0.132	-0.082
-529.062	-143.992	-0.213	0.020
-528.048	41.115	0.121	-0.109
-527.033	-67.312	-0.135	0.053
-526.018	483.190	0.097	-0.220
-525.004	-37.159	-0.092	-0.049
-523.989	87.383	-0.090	0.100
-522.975	-200.000	0.021	-0.143
-521.960	800.000	-0.024	-0.100
-520.945	-200.000	0.174	0.001
-519.931	-58.402	0.056	-0.025
-518.916	-26.874	0.355	-0.207
-517.902	333.269	-0.120	0.232
-516.887	-164.141	-0.299	-0.014
-515.872	152.037	-0.159	-0.217
-514.858	-72.514	0.290	-0.107
-513.843	29.720	0.180	0.153
-512.829	-200.000	0.027	0.183
-511.814	-200.000	0.064	-0.311
-510.799	-109.110	-0.502	0.107
-509.785	188.466	0.096	-0.143
-508.770	-200.000	0.022	0.212
-507.756	800.000	-0.052	0.182
-506.741	383.580	-0.041	-0.085
-505.726	-34.767	0.137	-0.075
-504.712	311.672	-0.034	0.063
-503.697	-91.553	-0.248	-0.071
-502.683	-16.820	0.210	0.132
-501.668	800.000	0.002	0.009
-500.653	-200.000	0.004	-0.236
-499.639	246.493	0.089	-0.150
-498.624	-50.998	0.527	0.247
-497.610	800.000	-0.030	-0.102
-496.595	-46.038	-0.225	0.110
-495.581	-32.525	0.033	0.018
-494.566	-90.160	0.089	-0.026
-493.551	44.166	-0.195	0.178
-492.537	-81.663	-0.121	0.040
-491.522	-46.301	-0.170	0.083
-490.508	-8.315	-0.175	0.117
-489.493	800.000	0.023	0.080
-488.478	19.356	-0.222	-0.177
-487.464	-200.000	-0.024	-0.456
-486.449	800.000	-0.113	-0.338
-485.435	-69.020	0.282	0.109
-484.420	-200.000	-0.025	-0.666
-483.405	7.939	-0.071	0.053
-482.391	55.917	0.055	0.053
-481.376	396.456	0.053	0.110
-480.362	-100.325	-0.100	-0.025
-479.347	-200.000	0.092	-0.401
-478.332	692.188	-0.095	0.248
-477.318	800.000	-0.058	0.163
-476.303	800.000	-0.080	0.342
-475.289	-200.000	0.030	-0.140
-474.274	800.000	0.021	0.089
-473.259	110.269	0.186	-0.222
-472.245	-147.256	-0.298	-0.025
-471.230	-7.971	0.207	-0.139
-470.216	-1.932	0.195	0.136
-469.201	-118.039	-0.075	0.013
-468.186	-34.429	0.131	0.072
-467.172	-27.285	0.111	0.064
-466.157	-7.559	-0.123	0.083
-465.143	-200.000	0.208	0.000
-464.128	109.765	-0.310	0.370
-463.113	-87.838	-0.073	-0.022
-462.099	-187.062	0.107	0.001
-461.084	-95.399	-0.158	0.042
-460.070	-200.000	-0.007	-0.071
-459.055	-9.391	0.070	0.047
-458.040	529.421	0.031	-0.072
-457.026	-200.000	-0.008	-0.122
-456.011	-20.535	-0.192	0.118
-454.997	800.000	0.060	-0.168
-453.982	-29.383	-0.230	0.131
-452.968	-12.582	0.238	0.155
-451.953	-131.450	0.314	-0.041
-450.938	-50.095	0.168	0.079
-449.924	150.548	-0.147	-0.199
-448.909	-105.367	-0.233	-0.053
-447.895	38.490	-0.138	-0.122
-446.880	-82.455	-0.094	-0.030
-445.865	199.044	-0.160	0.243
-444.851	90.081	-0.105	-0.116
-443.836	401.761	0.096	0.200
-442.822	-3.922	0.179	0.123
-441.807	-165.310	0.383	0.017
-440.792	156.211	-0.158	-0.217
-439.778	800.000	-0.122	-0.398
-438.763	140.693	-0.062	0.082
-437.749	647.146	-0.157	0.399
-436.734	-32.454	-0.216	0.120
-435.719	770.452	0.048	0.129
-434.705	115.909	0.185	-0.225
-433.690	-140.995	-0.115	0.012
-432.676	-59.897	-0.177	0.075
-431.661	800.000	-0.087	-0.285
-430.646	-103.330	0.475	0.111
-429.632	18.511	-0.126	-0.100
-428.617	136.195	0.272	0.353
-427.603	265.526	-0.181	0.314
-426.588	800.000	0.031	0.119
-425.573	-200.000	-0.009	0.110
-424.559	-151.882	0.246	0.018
-423.544	261.286	0.100	-0.173
-422.530	32.339	-0.197	0.169
-421.515	81.898	0.113	0.122
-420.500	-71.764	-0.211	0.078
-419.486	800.000	0.056	0.200
-418.471	-200.000	0.055	-0.240
-417.457	-200.000	0.007	0.066
-416.442	404.545	0.078	0.164
-415.428	-145.871	0.232	0.020
-414.413	44.239	0.134	-0.123
-413.398	-13.746	-0.273	0.175
-412.384	-1.289	-0.127	0.089
-411.369	626.632	0.089	-0.224
-410.355	-122.232	-0.111	0.018
-409.340	-44.910	-0.266	-0.132
-408.325	-89.441	-0.221	-0.065
-407.311	-200.000	-0.030	-0.223
-406.296	82.314	-0.098	0.106
-405.282	-122.744	0.182	0.029
-404.267	-69.504	-0.041	-0.016
-403.252	800.000	-0.012	-0.040
-402.238	-200.000	0.053	-0.261
-401.223	705.487	-0.069	0.180
-400.209	215.349	-0.071	-0.112
-399.194	106.902	-0.061	0.072
-398.179	800.000	-0.032	-0.092
-397.165	284.448	0.046	0.082
-396.150	-46.957	0.273	0.133
-395.136	-56.930	0.155	-0.068
-394.121	-38.438	0.145	0.076
-393.106	800.000	-0.052	0.186
-392.092	263.444	0.039	-0.068
-391.077	800.000	-0.095	-0.375
-390.063	-200.000	-0.006	-0.153
-389.048	258.910	-0.062	-0.106
-388.033	-46.786	-0.113	0.055
-387.019	24.446	0.214	0.176
-386.004	800.000	0.035	0.102
-384.990	307.403	0.041	-0.076
-383.975	-133.850	-0.143	-0.018
-382.960	-200.000	-0.014	-0.161
-381.946	-33.915	-0.209	-0.114
-380.931	31.524	-0.097	0.083
-379.917	-5.761	0.285	0.194
-378.902	-52.151	-0.044	-0.020
-377.888	-183.501	0.439	0.008
-376.873	800.000	0.072	-0.258
-375.858	-10.984	-0.315	-0.206
-374.844	-200.000	-0.037	-0.261
-373.829	-62.021	0.138	0.057
-372.815	176.839	0.192	0.276
-371.800	-200.000	0.035	-0.363
-370.785	-200.000	0.044	-0.230
-369.771	292.064	0.166	0.300
-368.756	-200.000	-0.039	-0.275
-367.742	-51.774	0.087	0.040
-366.727	800.000	0.104	-0.347
-365.712	153.682	-0.053	-0.071
-364.698	262.851	-0.028	0.048
-363.683	90.263	-0.102	0.114
-362.669	143.754	0.150	0.198
-361.654	-35.093	0.085	-0.046
-360.639	-20.644	-0.183	0.112
-359.625	-72.934	0.024	0.009
-358.610	-200.000	0.067	0.327
-357.596	158.720	0.237	-0.327
-356.581	85.290	0.167	0.182
-355.566	-29.593	0.391	0.222
-354.552	800.000	-0.048	0.198
-353.537	189.011	-0.028	0.041
-352.523	800.000	-0.132	0.398
-351.508	-120.975	0.331	0.055
-350.493	574.372	0.105	0.254
-349.479	-54.335	-0.211	0.095
-348.464	511.690	0.139	-0.320
-347.450	43.088	0.169	-0.153
-346.435	800.000	0.055	0.192
-345.420	-200.000	0.029	-0.273
-344.406	-93.697	-0.143	-0.039
-343.391	-200.000	0.003	0.385
-342.377	281.606	0.044	0.078
-341.362	-200.000	0.001	-0.117
-340.348	80.626	-0.181	0.194
-339.333	254.418	0.083	-0.141
-338.318	800.000	-0.060	-0.176
-337.304	800.000	0.074	-0.222
-336.289	-200.000	-0.024	-0.285
-335.275	75.151	0.164	-0.171
-334.260	67.917	-0.047	0.048
-333.245	357.454	-0.185	0.365
-332.231	-167.362	0.134	-0.005
-331.216	-44.081	-0.315	-0.157
-330.202	-200.000	0.083	-0.363
-329.187	6.175	-0.135	-0.099
-328.172	357.656	0.157	0.309
-327.158	120.142	0.100	0.123
-326.143	-200.000	-0.026	0.146
-325.129	37.491	0.130	0.114
-324.114	544.568	0.072	-0.170
-323.099	-44.818	0.248	-0.123
-322.085	-105.861	-0.317	0.071
-321.070	-35.018	-0.003	0.001
-320.056	408.101	0.239	0.501
-319.041	108.490	-0.245	0.289
-318.026	800.000	0.161	0.478
-317.012	6.988	-0.195	0.144
-315.997	173.108	-0.133	-0.190
-314.983	800.000	0.086	0.255
-313.968	-200.000	0.029	0.248
-312.953	45.891	-0.124	0.113
-311.939	-169.571	0.099	-0.004
-310.924	-200.000	-0.031	0.313
-309.910	567.489	0.110	0.264
-308.895	-200.000	-0.023	0.103
-307.880	-67.649	-0.106	0.041
-306.866	-114.760	0.133	0.025
-305.851	287.970	-0.031	-0.056
-304.837	-34.302	0.068	-0.037
-303.822	175.053	0.073	0.105
-302.807	-49.196	-0.254	0.120
-301.793	-50.784	0.395	0.184
-300.778	39.515	-0.230	-0.204
-299.764	-4.322	-0.113	-0.077
-298.749	-64.073	-0.092	-0.037
-297.735	4.623	-0.145	0.105
-296.720	356.946	-0.115	0.226
-295.705	34.033	-0.169	-0.146
-294.691	537.081	-0.056	-0.131
-293.676	-2.939	-0.079	-0.055
-292.662	-165.553	0.437	0.019
-291.647	-200.000	0.017	-0.306
-290.632	-40.195	0.141	-0.073
-289.618	469.480	-0.149	-0.331
-288.603	397.145	-0.086	-0.179
-287.589	-139.021	0.376	-0.040
-286.574	-118.909	-0.250	0.043
-285.559	800.000	0.010	-0.040
-284.545	-10.895	0.096	-0.063
-283.530	-105.375	-0.160	-0.036
-282.516	122.953	0.190	-0.235
-281.501	584.137	-0.064	0.155
-280.486	25.073	-0.081	-0.066
-279.472	-82.062	-0.021	-0.007
-278.457	529.920	0.119	0.278
-277.443	-123.906	0.390	-0.061
-276.428	-200.000	0.005	-0.031
-275.413	-17.744	0.272	0.169
-274.399	-58.813	0.089	0.038
-273.384	-35.511	-0.239	-0.128
-272.370	77.825	0.138	0.146
-271.355	-63.412	-0.138	0.056
-270.340	398.855	-0.134	0.277
-269.326	366.266	0.185	0.369
-268.311	-25.358	-0.259	-0.151
-267.297	541.627	0.068	-0.160
-266.282	-171.624	-0.276	0.009
-265.267	-107.517	0.274	-0.059
-264.253	-69.312	-0.193	0.073
-263.238	-200.000	0.009	-0.255
-262.224	-80.383	-0.173	0.057
-261.209	181.476	0.063	-0.092
-260.195	176.586	-0.087	-0.125
-259.180	-200.000	-0.050	-0.275
-258.165	220.483	-0.077	-0.122
-257.151	-146.964	-0.261	-0.022
-256.136	-150.614	0.160	-0.012
-255.122	-30.095	-0.138	0.078
-254.107	421.707	0.077	0.163
-253.092	-74.343	0.260	-0.093
-252.078	-51.162	0.083	-0.038
-251.063	70.997	-0.154	0.158
-250.049	-0.335	-0.249	-0.175
-249.034	162.464	0.067	0.093
-248.019	316.399	0.036	0.068
-247.005	-113.518	0.242	-0.047
-245.990	95.766	0.195	0.219
-244.976	-200.000	0.012	-0.131
-243.961	800.000	-0.038	-0.112
-242.946	50.857	-0.142	0.132
-241.932	-86.264	-0.250	-0.076
-240.917	234.585	0.119	-0.194
-239.903	152.253	-0.163	0.220
-238.888	-148.455	-0.259	-0.021
-237.873	-200.000	0.004	0.124
-236.859	568.976	-0.136	0.326
-235.844	-34.690	0.193	-0.104
-234.830	238.414	-0.049	-0.080
-233.815	800.000	-0.015	0.060
-232.800	-92.940	0.296	0.082
-231.786	-22.739	0.121	0.072
-230.771	-44.313	-0.262	-0.129
-229.757	241.402	0.089	-0.146
-228.742	5.890	-0.160	-0.117
-227.727	274.924	0.080	-0.140
-226.713	245.671	-0.184	-0.305
-225.698	113.341	-0.254	-0.304
-224.684	550.461	-0.072	-0.171
-223.669	374.944	-0.060	-0.120
-222.655	244.339	0.162	0.268
-221.640	-186.328	0.284	-0.004
-220.625	59.080	0.138	0.134
-219.611	174.882	-0.101	0.145
-218.596	253.338	-0.027	0.045
-217.582	-123.407	0.315	0.049
-216.567	-200.000	-0.016	-0.215
-215.552	549.159	-0.168	-0.396
-214.538	-176.661	0.205	0.005
-213.523	23.954	-0.207	0.168
-212.509	119.920	-0.037	0.046
-211.494	-102.147	0.195	0.046
-210.479	-200.000	-0.036	0.246
-209.465	-200.000	-0.086	0.468
-208.450	40.511	0.088	0.078
-207.436	-160.189	-0.260	0.014
-206.421	-200.000	0.022	-0.149
-205.406	-6.979	0.244	0.164
-204.392	77.617	-0.094	-0.098
-203.377	174.131	0.192	-0.274
-202.363	-141.540	-0.183	-0.018
-201.348	75.617	0.176	0.184
-200.333	331.063	0.075	0.143
-199.319	2.525	0.196	-0.140
-198.304	-98.681	-0.285	-0.071
-197.290	800.000	0.055	-0.153
-196.275	-47.155	0.249	0.120
-195.260	-56.546	0.080	0.035
-194.246	-200.000	-0.022	-0.206
-193.231	150.386	0.201	0.269
-192.217	-143.660	0.265	-0.025
-191.202	619.454	0.116	0.286
-190.187	360.243	0.131	-0.259
-189.173	-200.000	-0.013	-0.148
-188.158	-79.775	0.271	-0.090
-187.144	145.374	-0.247	0.326
-186.129	458.547	0.087	0.191
-185.114	-136.306	-0.352	0.040
-184.100	21.909	0.199	-0.160
-183.085	800.000	0.037	0.112
-182.071	63.466	-0.148	0.146
-181.056	160.300	-0.165	0.226
-180.042	-73.378	-0.189	0.068
-179.027	-200.000	-0.020	0.174
-178.012	-133.899	-0.321	-0.039
-176.998	-200.000	0.012	0.169
-175.983	-200.000	-0.030	0.305
-174.969	46.381	0.185	-0.169
-173.954	56.576	-0.151	0.144
-172.939	-200.000	-0.025	0.567
-171.925	747.405	-0.061	-0.162
-170.910	800.000	0.053	-0.191
-169.896	-40.177	-0.138	-0.071
-168.881	309.582	0.136	0.251
-167.866	-14.667	0.142	0.090
-166.852	-108.605	-0.120	-0.025
-165.837	-81.856	0.331	-0.107
-164.823	-88.594	-0.090	-0.026
-163.808	-154.821	0.132	-0.009
-162.793	105.669	0.075	0.087
-161.779	-107.009	-0.216	0.047
-160.764	82.775	0.101	-0.108
-159.750	-200.000	0.010	0.163
-158.735	158.411	-0.189	0.258
-157.720	800.000	-0.123	0.456
-156.706	-118.874	-0.304	0.053
-155.691	18.891	-0.152	-0.120
-154.677	154.368	-0.211	-0.285
-153.662	800.000	0.071	0.211
-152.647	800.000	-0.071	0.210
-151.633	-68.112	-0.129	0.049
-150.618	83.978	0.210	0.225
-149.604	73.925	-0.006	0.006
-148.589	-6.153	-0.249	-0.167
-147.574	-54.105	-0.129	0.058
-146.560	800.000	-0.047	0.199
-145.545	622.135	-0.031	-0.077
-144.531	132.499	0.230	0.292
-143.516	-200.000	-0.065	-0.502
-142.502	27.607	0.170	-0.141
-141.487	-127.326	0.208	-0.030
-140.472	124.098	0.196	0.243
-139.458	800.000	0.051	0.178
-138.443	800.000	-0.056	0.189
-137.429	131.279	-0.142	-0.179
-136.414	-200.000	0.002	0.457
-135.399	8.539	-0.145	0.108
-134.385	-16.219	0.084	0.052
-133.370	-200.000	0.018	-0.228
-132.356	68.891	0.090	0.091
-131.341	92.184	-0.279	-0.310
-130.326	785.046	-0.157	-0.423
-129.312	561.410	0.053	-0.125
-128.297	800.000	-0.075	-0.266
-127.283	99.345	0.094	-0.107
-126.268	477.987	0.160	-0.355
-125.253	508.517	-0.160	0.365
-124.239	17.979	-0.152	0.119
-123.224	-200.000	0.035	0.272
-122.210	475.125	-0.035	-0.077
-121.195	-27.645	0.193	0.110
-120.180	507.507	-0.209	0.476
-119.166	-102.475	-0.295	-0.069
-118.151	800.000	-0.066	0.217
-117.137	749.990	-0.061	-0.162
-116.122	10.875	0.223	0.167
-115.107	-68.090	0.061	-0.023
-114.093	-200.000	0.002	0.381
-113.078	203.621	-0.114	0.173
-112.064	110.774	-0.092	-0.108
-111.049	-166.044	-0.107	-0.004
-110.034	12.145	0.216	0.163
-109.020	112.365	-0.132	-0.157
-108.005	-16.632	0.191	0.119
-106.991	-29.135	0.222	-0.125
-105.976	-112.177	-0.127	-0.025
-104.962	34.776	0.045	-0.039
-103.947	107.687	0.151	-0.177
-102.932	-77.924	-0.065	0.022
-101.918	554.440	-0.029	0.068
-100.903	-30.206	-0.156	0.087
-99.889	-200.000	0.062	-0.286
-98.874	120.867	0.129	-0.158
-97.859	-150.078	0.255	-0.019
-96.845	40.686	0.245	0.217
-95.830	-200.000	0.043	0.358
-94.816	-135.618	0.181	0.021
-93.801	265.166	0.091	-0.155
-92.786	283.231	-0.121	-0.213
-91.772	-90.716	-0.354	-0.100
-90.757	127.929	0.090	0.112
-89.743	106.502	-0.150	0.175
-88.728	168.199	-0.080	-0.111
-87.713	-16.540	0.321	-0.199
-86.699	-200.000	-0.002	-0.088
-85.684	-9.079	-0.219	-0.144
-84.670	-200.000	-0.005	-0.185
-83.655	126.417	0.196	-0.244
-82.640	-124.600	-0.191	-0.029
-81.626	-55.074	0.280	-0.124
-80.611	-126.614	-0.238	-0.035
-79.597	35.937	0.232	0.200
-78.582	266.160	0.078	-0.133
-77.567	331.402	0.191	-0.361
-76.553	-112.017	0.271	0.054
-75.538	-91.957	0.289	0.080
-74.524	-77.100	-0.224	0.077
-73.509	85.801	0.171	-0.184
-72.494	739.517	-0.136	0.357
-71.480	697.032	0.035	0.089
-70.465	1.370	0.157	0.110
-69.451	-64.052	0.067	0.027
-68.436	-156.588	0.414	0.025
-67.422	-200.000	-0.035	0.210
-66.407	-60.076	0.220	0.092
-65.392	-2.892	0.325	0.223
-64.378	-200.000	0.041	0.444
-63.363	-65.146	0.294	0.116
-62.349	-189.558	-0.171	-0.002
-61.334	75.254	-0.939	-0.970
-60.319	454.513	0.259	0.563
-59.305	237.462	-0.566	-0.920
-58.290	218.247	0.579	0.905
-57.276	438.403	0.630	1.348
-56.261	-200.000	95.519	591.274
-55.246	572.488	1368.473	3268.075
-54.232	164.313	2540.299	3508.662
-53.217	108.570	2263.887	2649.447
-52.203	41.762	1894.947	1683.097
-51.188	35.512	1686.726	1451.049
-50.173	32.900	1642.775	1393.926
-49.159	50.770	1689.666	1567.806
-48.144	52.348	1705.799	1594.510
-47.130	35.167	1667.475	1431.683
-46.115	32.386	1653.209	1398.738
-45.100	32.151	1649.036	1393.410
-44.086	32.321	1645.751	1391.834
-43.071	32.211	1643.696	1389.229
-42.057	32.203	1641.454	1387.221
-41.042	32.226	1638.999	1385.259
-40.027	32.202	1637.401	1383.680
-39.013	32.078	1635.536	1381.135
-37.998	32.009	1634.094	1379.354
-36.984	32.082	1632.634	1378.608
-35.969	32.217	1631.126	1378.266
-34.954	32.326	1629.301	1377.466
-33.940	32.180	1628.281	1375.486
-32.925	32.223	1626.402	1374.154
-31.911	32.144	1625.024	1372.358
-30.896	32.279	1622.535	1371.185
-29.881	32.198	1621.477	1369.651
-28.867	32.200	1619.709	1368.118
-27.852	32.159	1618.233	1366.516
-26.838	32.162	1616.757	1365.235
-25.823	32.266	1615.314	1364.720
-24.809	32.188	1614.099	1363.076
-23.794	32.147	1612.770	1361.597
-22.779	32.212	1611.240	1360.722
-21.765	32.207	1609.474	1359.144
-20.750	32.296	1607.503	1358.066
-19.736	32.258	1606.831	1357.174
-18.721	32.371	1604.914	1356.311
-17.706	32.347	1603.399	1354.804
-16.692	32.303	1602.079	1353.323
-15.677	32.316	1600.344	1351.897
-14.663	32.309	1599.320	1350.930
-13.648	32.290	1598.052	1349.666
-12.633	32.380	1596.200	1348.694
-11.619	32.238	1595.083	1346.680
-10.604	32.333	1593.325	1345.819
-9.590	32.288	1592.077	1344.394
-8.575	32.364	1590.404	1343.467
-7.560	32.282	1589.597	1342.146
-6.546	32.238	1588.550	1340.895
-5.531	32.336	1587.250	1340.446
-4.517	32.225	1586.023	1338.562
-3.502	32.244	1584.536	1337.392
-2.487	32.292	1583.568	1336.861
-1.473	31.929	1571.285	1323.880
-0.458	29.003	1550.600	1285.980
0.556	23.082	1551.168	1250.989
1.571	20.596	1573.963	1251.392
2.586	19.994	1587.006	1257.278
3.600	18.123	1534.578	1202.491
4.615	10.155	1425.349	1064.553
5.629	1.984	1359.215	963.614
6.644	0.199	1351.121	946.582
7.659	0.113	1349.620	944.902
8.673	0.021	1348.660	943.574
9.688	-0.023	1346.896	941.977
10.702	-0.120	1343.516	938.924
11.717	3.690	1349.936	967.222
12.731	12.306	1364.162	1031.661
13.746	17.580	1370.328	1069.425
14.761	17.266	1368.293	1065.774
15.775	16.263	1365.747	1057.416
16.790	15.219	1362.688	1048.428
17.804	14.396	1361.171	1042.024
18.819	14.038	1359.582	1038.480
19.834	13.716	1358.246	1035.358
20.848	13.515	1356.870	1032.962
21.863	13.256	1355.698	1030.365
22.877	13.072	1354.726	1028.390
23.892	12.982	1353.787	1027.023
24.907	13.051	1353.135	1026.872
25.921	13.152	1351.764	1026.366
26.936	13.146	1350.580	1025.340
27.950	13.197	1350.191	1025.269
28.965	13.178	1349.455	1024.501
29.980	13.312	1348.148	1024.250
30.994	13.270	1348.122	1023.876
32.009	13.398	1346.518	1023.364
33.023	13.376	1345.407	1022.290
34.038	13.308	1344.562	1021.135
35.053	13.363	1342.806	1020.052
36.067	13.351	1341.820	1019.141
37.082	13.228	1341.213	1017.828
38.096	13.338	1340.418	1017.815
39.111	13.330	1339.996	1017.354
40.126	13.238	1338.770	1015.766
41.140	13.102	1337.966	1014.233
42.155	13.026	1337.927	1013.645
43.169	13.030	1337.509	1013.264
44.184	13.086	1337.229	1013.307
45.199	13.051	1336.863	1012.728
46.213	13.171	1335.868	1012.615
47.228	13.227	1335.271	1012.421
48.242	13.297	1333.760	1011.611
49.257	13.219	1332.942	1010.423
50.271	13.200	1331.563	1009.172
51.286	13.202	1330.296	1008.136
52.301	13.223	1328.898	1007.115
53.315	13.129	1327.706	1005.548
54.330	13.095	1327.311	1004.955
55.344	13.145	1325.468	1003.775
56.359	13.145	1324.561	1003.003
57.374	13.052	1323.868	1001.824
58.388	13.141	1322.722	1001.407
59.403	13.033	1322.495	1000.489
60.417	13.077	1321.920	1000.236
61.432	13.087	1320.469	999.109
62.447	13.001	1319.927	998.087
63.461	12.973	1318.553	996.789
64.476	12.916	1317.827	995.811
65.490	13.020	1316.276	995.178
66.505	13.057	1314.535	993.996
67.520	13.055	1313.323	992.981
68.534	13.059	1312.618	992.384
69.549	13.132	1310.682	991.269
70.563	12.969	1310.330	989.937
71.578	12.928	1309.395	988.898
72.593	12.937	1308.220	987.977
73.607	12.870	1307.482	986.929
74.622	12.904	1306.453	986.271
75.636	12.874	1305.860	985.558
76.651	12.892	1305.198	985.076
77.666	13.012	1304.162	984.924
78.680	13.047	1303.785	984.762
79.695	12.958	1303.345	983.809
80.709	13.055	1301.887	983.203
81.724	13.066	1301.373	982.793
82.739	13.137	1300.542	982.498
83.753	13.016	1300.076	981.341
84.768	13.209	1298.498	981.212
85.782	13.305	1297.494	980.933
86.797	13.278	1295.847	979.441
87.812	13.183	1294.788	977.993
88.826	13.186	1293.738	977.127
89.841	13.202	1293.054	976.622
90.855	13.294	1291.831	976.153
91.870	13.230	1290.953	975.026
92.884	13.157	1290.509	974.179
93.899	13.318	1289.350	974.165
94.914	13.325	1288.398	973.399
95.928	13.255	1288.050	972.636
96.943	13.351	1287.130	972.419
97.957	13.334	1286.366	971.660
98.972	13.275	1285.060	970.240
99.987	13.240	1284.108	969.229
101.001	13.373	1282.773	968.916
102.016	13.360	1282.196	968.320
103.030	13.434	1281.210	967.920
104.045	13.211	1280.658	966.111
105.060	13.164	1279.476	964.861
106.074	13.153	1277.876	963.505
107.089	13.102	1276.584	962.149
108.103	13.069	1275.628	961.152
109.118	13.093	1274.374	960.259
110.133	13.116	1272.855	959.163
111.147	13.117	1271.965	958.416
112.162	13.134	1270.547	957.363
113.176	13.134	1269.418	956.425
114.191	13.183	1268.397	955.855
115.206	13.213	1267.731	955.440
116.220	13.144	1266.306	953.887
117.235	13.187	1265.155	953.182
118.249	13.142	1264.145	952.075
119.264	13.089	1263.654	951.321
120.279	13.192	1262.041	950.614
121.293	13.157	1260.718	949.333
122.308	13.066	1259.817	948.044
123.322	13.067	1259.278	947.560
124.337	13.056	1258.231	946.625
125.352	13.148	1256.617	945.856
126.366	12.997	1255.972	944.424
127.381	13.128	1254.491	943.973
128.395	13.139	1253.580	943.270
129.410	13.108	1252.435	942.143
130.424	13.122	1252.035	941.839
131.439	13.176	1251.119	941.380
132.454	13.213	1250.291	940.878
133.468	13.146	1249.470	939.798
134.483	13.261	1248.331	939.510
135.497	13.326	1247.295	939.021
136.512	13.121	1246.243	936.982
137.527	13.314	1244.574	936.737
138.541	13.216	1243.268	935.116
139.556	13.188	1242.161	934.040
140.570	13.249	1241.211	933.590
141.585	13.330	1240.147	933.162
142.600	13.404	1238.783	932.474
143.614	13.358	1238.145	931.652
144.629	13.365	1236.717	930.533
145.643	13.369	1235.701	929.709
146.658	13.379	1234.187	928.543
147.673	13.259	1233.134	926.994
148.687	13.259	1231.943	926.019
149.702	13.281	1230.514	924.984
150.716	13.305	1229.371	924.179
151.731	13.383	1228.054	923.542
152.746	13.344	1226.827	922.320
153.760	13.277	1225.966	921.218
154.775	13.382	1224.534	920.645
155.789	13.368	1224.103	920.163
156.804	13.361	1222.618	918.925
157.819	13.365	1221.903	918.332
158.833	13.505	1220.664	918.092
159.848	13.590	1219.595	917.676
160.862	13.504	1219.177	916.804
161.877	13.383	1218.075	915.225
162.892	13.416	1217.047	914.557
163.906	13.412	1216.121	913.757
164.921	13.348	1215.606	912.936
165.935	13.494	1214.484	912.820
166.950	13.380	1213.987	911.736
167.964	13.526	1212.608	911.421
168.979	13.544	1212.217	911.145
169.994	13.569	1211.376	910.571
171.008	13.505	1210.598	909.556
172.023	13.507	1210.314	909.271
173.037	13.585	1209.118	908.723
174.052	13.628	1208.166	908.163
175.067	13.523	1207.494	907.001
176.081	13.602	1205.950	906.191
177.096	13.503	1205.359	905.128
178.110	13.501	1204.630	904.489
179.125	13.475	1203.220	903.209
180.140	13.609	1201.574	902.622
181.154	13.567	1200.558	901.552
182.169	13.657	1199.634	901.269
183.183	13.627	1198.495	900.170
184.198	13.625	1197.251	899.146
185.213	13.687	1196.462	898.806
186.227	13.793	1194.905	898.132
187.242	13.679	1194.437	897.087
188.256	13.815	1193.252	896.851
189.271	13.814	1192.333	896.075
190.286	13.699	1191.200	894.525
191.300	13.634	1190.272	893.398
192.315	13.574	1189.366	892.316
193.329	13.556	1189.343	892.119
194.344	13.597	1188.467	891.604
195.359	13.642	1188.034	891.445
196.373	13.725	1187.331	891.282
197.388	13.831	1186.505	891.156
198.402	13.885	1186.166	891.108
199.417	13.931	1185.402	890.705
200.432	13.914	1184.763	890.054
201.446	13.961	1183.681	889.416
202.461	13.992	1183.002	888.993
203.475	14.038	1181.912	888.341
204.490	14.038	1180.487	887.190
205.504	13.941	1179.560	885.895
206.519	13.952	1178.629	885.176
207.534	13.933	1177.566	884.202
208.548	13.989	1176.112	883.328
209.563	13.966	1175.323	882.534
210.577	13.921	1174.620	881.691
211.592	14.017	1173.801	881.507
212.607	14.115	1173.276	881.554
213.621	14.160	1172.296	880.980
214.636	14.113	1171.328	879.925
215.650	14.001	1170.609	878.713
216.665	14.042	1169.456	877.989
217.680	14.103	1168.857	877.780
218.694	14.213	1167.942	877.600
219.709	14.177	1166.922	876.566
220.723	14.233	1166.392	876.380
221.738	14.202	1165.561	875.516
222.753	14.227	1164.820	875.016
223.767	14.313	1164.032	874.796
224.782	14.263	1163.721	874.223
225.796	14.461	1163.084	874.708
226.811	14.330	1162.893	873.798
227.826	14.295	1161.718	872.657
228.840	14.287	1160.936	871.949
229.855	14.204	1160.489	871.103
230.869	14.214	1159.381	870.245
231.884	14.302	1158.548	870.002
232.899	14.347	1157.733	869.549
233.913	14.319	1157.322	869.018
234.928	14.325	1156.515	868.366
235.942	14.183	1156.139	867.267
236.957	14.331	1155.350	867.367
237.972	14.246	1154.401	866.138
238.986	14.305	1153.562	865.739
240.001	14.238	1152.849	864.777
241.015	14.434	1151.952	865.047
242.030	14.385	1151.612	864.457
243.045	14.376	1150.475	863.482
244.059	14.426	1149.506	862.938
245.074	14.455	1148.731	862.428
246.088	14.553	1148.108	862.394
247.103	14.491	1147.341	861.421
248.117	14.630	1146.120	861.141
249.132	14.576	1145.976	860.681
250.147	14.593	1145.306	860.189
251.161	14.812	1144.413	860.568
252.176	14.700	1144.277	859.815
253.190	14.781	1143.459	859.541
254.205	14.835	1142.772	859.228
255.220	14.861	1142.282	858.917
256.234	14.828	1141.570	858.133
257.249	14.794	1141.039	857.482
258.263	14.809	1140.041	856.735
259.278	14.882	1139.638	856.733
260.293	14.804	1139.125	855.871
261.307	14.882	1138.451	855.688
262.322	15.001	1137.887	855.795
263.336	14.915	1137.370	854.892
264.351	14.904	1136.894	854.404
265.366	15.034	1135.914	854.251
266.380	14.983	1135.162	853.351
267.395	15.064	1133.951	852.778
268.409	14.921	1133.609	851.718
269.424	14.930	1133.139	851.335
270.439	15.041	1132.223	851.135
271.453	14.906	1131.746	850.017
272.468	14.927	1131.074	849.544
273.482	14.930	1130.260	848.872
274.497	15.102	1129.452	849.063
275.512	15.019	1128.789	848.069
276.526	14.885	1128.225	846.888
277.541	15.055	1127.136	846.858
278.555	15.038	1126.893	846.514
279.570	15.122	1125.990	846.186
280.585	15.160	1125.010	845.567
281.599	15.174	1124.380	845.091
282.614	15.267	1123.265	844.645
283.628	15.205	1122.349	843.569
284.643	15.136	1121.569	842.564
285.657	15.097	1121.125	841.956
286.672	15.183	1120.208	841.628
287.687	15.261	1118.714	840.819
288.701	15.385	1117.311	840.315
289.716	15.209	1117.458	839.468
290.730	15.269	1116.351	838.863
291.745	15.265	1115.928	838.448
292.760	15.285	1115.401	838.080
293.774	15.346	1114.255	837.448
294.789	15.358	1113.998	837.242
295.803	15.452	1113.603	837.340
296.818	15.267	1113.095	835.959
297.833	15.258	1112.434	835.347
298.847	15.373	1111.082	834.829
299.862	15.424	1110.509	834.578
300.876	15.354	1110.215	833.935
301.891	15.495	1109.177	833.783
302.906	15.627	1108.368	833.755
303.920	15.521	1107.979	832.861
304.935	15.687	1106.890	832.794
305.949	15.655	1106.486	832.259
306.964	15.593	1105.957	831.480
307.979	15.640	1105.016	830.930
308.993	15.526	1104.585	829.971
310.008	15.565	1103.940	829.602
311.022	15.678	1102.776	829.214
312.037	15.720	1102.142	828.869
313.052	15.612	1101.249	827.595
314.066	15.647	1100.084	826.819
315.081	15.611	1099.469	826.106
316.095	15.630	1099.013	825.781
317.110	15.616	1098.072	824.930
318.125	15.544	1097.536	824.102
319.139	15.734	1096.317	824.045
320.154	15.641	1096.093	823.352
321.168	15.647	1095.486	822.850
322.183	15.614	1095.048	822.288
323.197	15.669	1094.353	821.962
324.212	15.675	1093.772	821.479
325.227	15.706	1093.059	821.026
326.241	15.665	1093.068	820.759
327.256	15.591	1092.218	819.689
328.270	15.717	1090.906	819.245
329.285	15.707	1089.766	818.267
330.300	15.653	1089.138	817.459
331.314	15.602	1088.337	816.538
332.329	15.719	1087.164	816.155
333.343	15.816	1086.593	816.121
334.358	15.878	1085.577	815.590
335.373	15.862	1084.749	814.815
336.387	15.858	1083.911	814.098
337.402	15.811	1083.760	813.681
338.416	15.834	1083.157	813.268
339.431	15.856	1082.436	812.764
340.446	15.996	1081.858	812.932
341.460	15.957	1081.492	812.395
342.475	15.934	1080.793	811.691
343.489	16.116	1079.187	811.286
344.504	16.109	1078.120	810.381
345.519	16.146	1077.552	810.060
346.533	16.284	1076.595	809.927
347.548	16.257	1075.967	809.257
348.562	16.193	1075.246	808.336
349.577	16.065	1074.332	806.963
350.592	16.158	1074.160	807.210
351.606	16.081	1073.316	806.133
352.621	16.099	1072.511	805.544
353.635	16.176	1071.761	805.280
354.650	16.129	1071.020	804.424
355.665	16.010	1070.847	803.655
356.679	16.136	1070.091	803.619
357.694	16.272	1069.290	803.594
358.708	16.238	1068.704	802.923
359.723	16.068	1068.399	801.814
360.738	16.251	1067.557	801.981
361.752	16.208	1066.871	801.188
362.767	16.366	1066.362	801.486
363.781	16.318	1065.900	800.838
364.796	16.376	1065.394	800.660
365.810	16.355	1064.413	799.757
366.825	16.489	1063.924	799.950
367.840	16.459	1063.642	799.527
368.854	16.550	1062.609	799.107
369.869	16.531	1061.893	798.410
370.883	16.477	1061.143	797.521
371.898	16.531	1060.434	797.172
372.913	16.490	1059.920	796.523
373.927	16.434	1059.630	795.969
374.942	16.476	1059.238	795.803
375.956	16.551	1058.402	795.458
376.971	16.660	1057.588	795.287
377.986	16.628	1056.991	794.617
379.000	16.659	1056.430	794.270
380.015	16.751	1055.879	794.217
381.029	16.722	1055.314	793.587
382.044	16.811	1054.489	793.314
383.059	16.690	1054.015	792.318
384.073	16.753	1053.405	792.084
385.088	16.758	1052.382	791.271
386.102	16.822	1051.351	790.723
387.117	16.667	1050.562	789.337
388.132	16.635	1049.691	788.463
389.146	16.575	1049.284	787.808
390.161	16.757	1048.098	787.694
391.175	16.673	1047.713	786.945
392.190	16.758	1046.768	786.560
393.205	16.872	1046.037	786.470
394.219	16.821	1045.102	785.461
395.234	16.864	1044.343	785.022
396.248	16.743	1043.496	783.757
397.263	16.765	1042.549	783.074
398.278	16.824	1041.730	782.665
399.292	16.814	1041.032	782.023
400.307	16.741	1040.506	781.225
401.321	16.792	1039.504	780.636
402.336	16.785	1039.167	780.283
403.350	16.834	1038.207	779.717
404.365	16.909	1037.515	779.475
405.380	16.888	1037.199	779.072
406.394	16.913	1036.603	778.672
407.409	16.857	1035.989	777.882
408.423	17.038	1034.901	777.829
409.438	17.062	1034.489	777.558
410.453	17.211	1033.261	777.249
411.467	17.294	1032.636	777.087
412.482	17.194	1032.315	776.321
413.496	17.064	1031.471	775.025
414.511	17.221	1030.710	775.102
415.526	17.389	1030.308	775.494
416.540	17.253	1030.188	774.716
417.555	17.236	1029.778	774.263
418.569	17.337	1029.122	774.160
419.584	17.189	1028.642	773.057
420.599	17.336	1028.014	773.183
421.613	102.424	1318.930	1460.642
422.628	93.694	1361.275	1460.741
