DTS Sentinel unit serial number:	SN413079Multiplexer serial number:	ORYXHardware model number:	OX4-SRSoftware version number:	ORYX F/W v4.00 Oryx Data Collector v3.7.2.0data status	okinstallation	princeton_trtdifferential loss correction	single-endedforward channel	channel 2reverse channel	N/Adate	2019/09/16time	08:23:35forward acquisition time	60.00reverse acquisition time	0.00gamma	496.2192k internal	0.2328k external	0.2328temperature offset calibration	0.9977default loss term (dB/km)	0.3790temperature slope calibration	1.0000multiplexer offset coefficient	1.0000multiplexer slope coefficient	1.0000fibre end	0.00T internal ref (°C)	29.09T ext. ref 1 (°C)	11.86T ext. ref 2 (°C)	25.53length (m)	temperature (°C)	Stokes	anti-Stokes-747.200	-122.823	0.385	-0.063
-746.185	156.438	-0.201	0.279
-745.171	-200.000	-0.002	0.347
-744.156	-200.000	0.025	0.116
-743.142	-86.610	0.105	-0.033
-742.127	-13.370	-0.199	0.130
-741.112	531.050	-0.109	-0.260
-740.098	306.432	-0.055	0.104
-739.083	800.000	0.024	-0.075
-738.069	199.000	-0.191	0.295
-737.054	468.217	0.069	-0.156
-736.039	360.207	0.177	0.356
-735.025	208.052	0.190	0.299
-734.010	-13.449	-0.340	0.222
-732.996	-130.087	-0.083	-0.011
-731.981	329.721	-0.132	0.256
-730.966	800.000	0.083	0.341
-729.952	53.914	-0.125	0.121
-728.937	800.000	-0.010	0.029
-727.923	-53.419	-0.460	-0.212
-726.908	-5.936	-0.145	0.100
-725.894	-85.282	-0.124	-0.039
-724.879	-73.898	-0.290	-0.106
-723.864	227.566	-0.055	0.089
-722.850	-42.367	-0.169	0.087
-721.835	-42.171	-0.090	0.046
-720.821	-120.028	-0.117	0.020
-719.806	-0.625	0.026	-0.019
-718.791	205.659	0.170	-0.265
-717.777	174.935	-0.008	-0.012
-716.762	115.187	-0.174	-0.214
-715.748	77.567	0.094	0.101
-714.733	501.989	-0.093	-0.216
-713.718	10.131	0.231	0.177
-712.704	112.155	-0.192	-0.234
-711.689	92.182	-0.381	-0.432
-710.675	-52.090	0.343	-0.160
-709.660	-113.533	-0.139	-0.027
-708.645	-23.756	-0.040	0.024
-707.631	-42.755	-0.100	-0.051
-706.616	-64.630	-0.340	-0.139
-705.602	-14.852	0.163	0.105
-704.587	16.661	0.261	0.208
-703.572	-200.000	0.035	-0.534
-702.558	-200.000	-0.050	-0.221
-701.543	800.000	0.118	-0.380
-700.529	-97.023	-0.395	0.104
-699.514	-61.925	0.314	0.132
-698.499	800.000	-0.060	0.256
-697.485	-39.782	-0.335	0.176
-696.470	5.655	0.152	-0.113
-695.456	552.052	-0.119	-0.288
-694.441	-160.445	-0.528	-0.029
-693.426	-92.942	0.029	-0.008
-692.412	800.000	-0.049	-0.211
-691.397	102.684	-0.020	-0.023
-690.383	19.487	0.290	0.234
-689.368	800.000	0.084	0.315
-688.354	-4.953	0.089	0.062
-687.339	-200.000	0.038	0.179
-686.324	14.955	0.203	-0.160
-685.310	-21.305	-0.288	-0.177
-684.295	169.693	-0.142	0.203
-683.281	16.426	0.211	0.167
-682.266	279.760	-0.214	0.384
-681.251	-125.142	-0.215	0.033
-680.237	24.122	-0.056	0.046
-679.222	34.465	-0.092	-0.081
-678.208	-91.938	-0.018	0.005
-677.193	252.402	-0.148	0.254
-676.178	4.220	-0.263	0.194
-675.164	113.269	-0.112	0.137
-674.149	358.062	0.074	-0.148
-673.135	-86.508	0.101	-0.031
-672.120	-114.584	0.151	-0.029
-671.105	327.309	0.035	0.068
-670.091	40.011	-0.192	0.174
-669.076	-1.337	0.130	0.093
-668.062	408.389	-0.070	-0.149
-667.047	-7.557	-0.147	-0.100
-666.032	-80.531	0.233	0.078
-665.018	-113.233	-0.374	0.074
-664.003	325.391	-0.070	0.134
-662.989	800.000	0.057	0.204
-661.974	-200.000	-0.034	0.195
-660.959	86.736	0.122	0.135
-659.945	-27.588	0.242	-0.141
-658.930	-200.000	-0.029	0.301
-657.916	-200.000	0.000	0.133
-656.901	-126.304	0.172	0.026
-655.886	-57.933	0.125	-0.055
-654.872	-8.926	-0.297	-0.200
-653.857	46.844	0.088	-0.082
-652.843	19.825	-0.293	-0.237
-651.828	229.491	0.079	-0.129
-650.814	226.594	0.181	-0.296
-649.799	86.171	-0.227	-0.250
-648.784	76.552	0.063	0.067
-647.770	-166.829	0.207	0.009
-646.755	-106.772	0.075	0.017
-645.741	-200.000	0.017	0.152
-644.726	-185.559	0.273	0.004
-643.711	17.998	0.031	-0.025
-642.697	-200.000	-0.056	0.310
-641.682	67.939	-0.183	0.188
-640.668	-200.000	-0.191	-0.000
-639.653	-71.176	0.221	0.083
-638.638	30.255	0.211	0.181
-637.624	-40.224	-0.161	0.084
-636.609	-141.663	0.427	0.043
-635.595	-29.470	0.059	-0.034
-634.580	276.863	-0.057	-0.101
-633.565	-99.983	0.076	0.019
-632.551	-113.224	-0.330	0.065
-631.536	-90.674	-0.158	-0.046
-630.522	20.487	0.161	-0.130
-629.507	-13.308	-0.114	-0.074
-628.492	-46.428	0.309	-0.152
-627.478	-200.000	-0.005	-0.205
-626.463	-18.789	0.122	0.076
-625.449	-60.301	0.337	0.144
-624.434	-166.717	-0.197	0.008
-623.419	257.856	0.225	-0.388
-622.405	-200.000	0.010	-0.080
-621.390	-40.219	0.183	0.095
-620.376	596.078	0.056	-0.138
-619.361	800.000	-0.010	0.036
-618.346	532.793	-0.057	-0.134
-617.332	-132.637	0.068	-0.009
-616.317	-148.377	-0.446	-0.037
-615.303	195.968	-0.058	-0.088
-614.288	-200.000	0.012	-0.195
-613.273	580.648	-0.078	-0.193
-612.259	-200.000	0.004	0.228
-611.244	-11.209	0.086	-0.057
-610.230	-154.781	0.263	-0.017
-609.215	-184.525	-0.089	0.001
-608.201	-89.794	-0.321	-0.094
-607.186	609.614	-0.226	-0.565
-606.171	179.076	0.125	-0.183
-605.157	73.645	-0.108	-0.113
-604.142	-34.837	-0.399	0.218
-603.128	-76.741	-0.103	-0.036
-602.113	-122.988	0.084	0.014
-601.098	103.804	-0.126	-0.148
-600.084	354.895	-0.047	0.094
-599.069	-200.000	0.022	-0.143
-598.055	-32.503	-0.250	-0.139
-597.040	92.749	-0.173	0.196
-596.025	47.367	0.287	0.268
-595.011	-200.000	-0.001	0.049
-593.996	573.494	0.053	0.129
-592.982	-148.504	0.260	0.021
-591.967	128.252	0.334	0.426
-590.952	586.034	-0.138	0.340
-589.938	743.740	-0.096	0.258
-588.923	8.126	-0.218	0.164
-587.909	260.183	0.096	-0.165
-586.894	172.257	-0.092	0.133
-585.879	65.305	0.165	0.167
-584.865	-22.434	-0.247	-0.150
-583.850	-200.000	-0.049	-0.255
-582.836	-122.153	-0.116	-0.019
-581.821	431.203	-0.246	-0.534
-580.806	-91.543	0.021	-0.006
-579.792	-181.595	-0.313	0.006
-578.777	160.465	-0.073	0.102
-577.763	-200.000	-0.008	0.294
-576.748	579.569	-0.108	-0.265
-575.733	-90.589	0.375	-0.109
-574.719	100.109	0.310	0.359
-573.704	161.871	-0.118	-0.166
-572.690	-196.514	-0.160	-0.001
-571.675	-200.000	0.008	0.048
-570.661	-200.000	0.029	-0.297
-569.646	6.308	0.202	-0.150
-568.631	800.000	0.110	-0.344
-567.617	211.633	0.032	-0.050
-566.602	269.641	-0.117	-0.205
-565.588	-200.000	0.058	-0.426
-564.573	282.558	-0.121	-0.218
-563.558	-75.284	-0.120	-0.043
-562.544	-200.000	0.014	0.061
-561.529	-200.000	-0.011	0.090
-560.515	265.008	0.032	-0.055
-559.500	-113.711	-0.255	-0.050
-558.485	48.786	0.224	-0.210
-557.471	313.875	-0.133	-0.250
-556.456	134.597	0.026	-0.034
-555.442	-66.832	-0.105	-0.042
-554.427	240.419	-0.222	0.370
-553.412	-36.269	0.318	-0.171
-552.398	-96.963	0.015	0.004
-551.383	-200.000	-0.008	-0.077
-550.369	76.530	-0.107	-0.113
-549.354	181.107	0.084	-0.124
-548.339	-200.000	-0.066	-0.318
-547.325	-49.135	0.370	0.177
-546.310	-5.636	-0.048	0.033
-545.296	800.000	0.035	-0.124
-544.281	150.144	0.101	0.137
-543.266	223.131	0.092	-0.148
-542.252	163.656	-0.091	-0.127
-541.237	452.571	-0.093	-0.206
-540.223	-171.142	-0.326	-0.011
-539.208	-200.000	0.034	0.261
-538.193	-95.105	-0.419	-0.113
-537.179	-200.000	-0.027	0.309
-536.164	28.610	0.196	0.165
-535.150	47.565	-0.169	-0.157
-534.135	735.597	0.076	-0.203
-533.121	609.956	-0.067	0.167
-532.106	-84.423	0.088	-0.028
-531.091	162.286	-0.156	-0.219
-530.077	800.000	0.040	-0.113
-529.062	739.459	0.083	0.222
-528.048	-138.994	0.136	-0.015
-527.033	105.968	0.145	-0.171
-526.018	244.742	0.106	-0.179
-525.004	-70.725	-0.082	-0.031
-523.989	269.378	-0.132	-0.232
-522.975	-200.000	0.013	-0.100
-521.960	-60.666	-0.306	0.130
-520.945	23.689	0.082	0.067
-519.931	-42.525	0.226	-0.115
-518.916	-34.140	-0.043	-0.024
-517.902	-200.000	-0.057	-0.285
-516.887	-70.591	0.345	0.130
-515.872	800.000	-0.096	0.357
-514.858	-84.243	0.408	0.129
-513.843	-54.185	-0.081	0.037
-512.829	-99.024	-0.499	-0.126
-511.814	-46.856	0.124	-0.061
-510.799	800.000	0.006	-0.024
-509.785	-82.852	-0.204	0.066
-508.770	8.832	-0.183	-0.137
-507.756	86.980	-0.073	0.081
-506.741	-127.236	-0.246	0.036
-505.726	800.000	0.096	0.411
-504.712	-111.665	-0.168	0.034
-503.697	45.072	-0.171	-0.157
-502.683	-113.068	-0.238	-0.047
-501.668	55.269	-0.062	-0.060
-500.653	-112.684	-0.495	-0.098
-499.639	-5.246	0.273	-0.188
-498.624	4.045	-0.349	-0.255
-497.610	-96.445	0.154	-0.041
-496.595	125.682	0.162	0.204
-495.581	-200.000	-0.031	0.349
-494.566	-62.577	-0.306	-0.127
-493.551	64.400	-0.165	0.166
-492.537	800.000	0.013	0.041
-491.522	51.038	-0.152	0.143
-490.508	99.376	-0.053	0.061
-489.493	-200.000	-0.024	-0.152
-488.478	-166.834	0.198	-0.008
-487.464	-84.147	0.076	0.024
-486.449	-200.000	-0.017	0.292
-485.435	-57.322	0.166	-0.073
-484.420	582.957	0.115	0.282
-483.405	-101.771	-0.145	0.035
-482.391	-89.679	-0.076	0.022
-481.376	-56.330	0.193	0.085
-480.362	-122.920	-0.037	0.006
-479.347	800.000	0.018	0.062
-478.332	54.728	0.182	0.175
-477.318	142.465	0.028	0.037
-476.303	22.570	-0.313	0.255
-475.289	51.693	0.242	0.230
-474.274	-200.000	-0.199	0.000
-473.259	-65.169	0.277	0.111
-472.245	404.465	-0.153	-0.321
-471.230	800.000	-0.133	-0.452
-470.216	416.881	-0.020	0.043
-469.201	-60.203	-0.257	0.109
-468.186	800.000	0.035	0.146
-467.172	63.918	-0.271	0.272
-466.157	-200.000	-0.011	-0.354
-465.143	-200.000	0.032	0.156
-464.128	-136.161	0.306	-0.036
-463.113	-134.753	-0.185	0.022
-462.099	-200.000	0.047	0.271
-461.084	-34.896	0.171	0.093
-460.070	431.760	0.204	-0.440
-459.055	-85.956	-0.232	-0.072
-458.040	791.464	0.086	0.236
-457.026	-200.000	-0.009	-0.130
-456.011	72.190	-0.315	0.327
-454.997	-122.515	0.219	0.036
-453.982	399.013	0.148	-0.309
-452.968	-200.000	0.037	0.295
-451.953	800.000	0.094	-0.297
-450.938	-147.861	-0.162	0.013
-449.924	246.133	-0.148	0.249
-448.909	-200.000	0.039	0.221
-447.895	64.827	0.033	-0.033
-446.880	800.000	0.022	0.069
-445.865	26.377	-0.123	0.103
-444.851	-200.000	0.020	-0.222
-443.836	342.717	0.090	0.175
-442.822	-62.772	-0.234	0.096
-441.807	-67.099	0.259	-0.102
-440.792	-200.000	-0.011	0.081
-439.778	-63.984	-0.480	0.195
-438.763	-135.472	-0.192	0.023
-437.749	123.241	-0.163	-0.204
-436.734	800.000	0.100	-0.316
-435.719	152.181	0.096	0.131
-434.705	538.528	-0.139	-0.328
-433.690	-83.775	0.243	-0.077
-432.676	-200.000	-0.000	-0.092
-431.661	35.804	0.079	0.069
-430.646	-181.601	-0.098	0.002
-429.632	257.717	0.051	0.087
-428.617	800.000	-0.020	-0.077
-427.603	309.601	-0.072	-0.134
-426.588	-200.000	0.002	0.155
-425.573	800.000	0.054	-0.227
-424.559	-185.704	0.116	0.002
-423.544	-56.268	0.344	-0.152
-422.530	369.118	0.082	0.165
-421.515	-53.197	0.082	-0.038
-420.500	-113.492	0.108	-0.021
-419.486	-150.298	0.093	0.007
-418.471	551.210	0.046	-0.111
-417.457	-16.572	-0.068	0.043
-416.442	14.077	0.180	-0.140
-415.428	-118.260	0.118	0.021
-414.413	20.624	0.126	0.101
-413.398	200.256	-0.218	0.333
-412.384	-150.417	0.160	-0.012
-411.369	-72.783	-0.184	-0.067
-410.355	-200.000	-0.008	-0.351
-409.340	6.383	0.116	0.086
-408.325	105.199	0.120	0.141
-407.311	-65.843	0.154	0.061
-406.296	-84.652	-0.152	0.048
-405.282	165.217	0.149	0.209
-404.267	-200.000	0.026	-0.203
-403.252	-200.000	0.028	-0.161
-402.238	0.101	-0.093	0.066
-401.223	512.565	-0.026	-0.060
-400.209	-30.528	0.164	0.092
-399.194	-79.603	-0.130	-0.044
-398.179	309.639	-0.079	-0.148
-397.165	-35.165	0.201	-0.109
-396.150	340.415	-0.212	-0.410
-395.136	6.707	-0.265	0.196
-394.121	-116.657	-0.310	0.057
-393.106	-200.000	-0.041	0.419
-392.092	800.000	-0.070	0.262
-391.077	-200.000	0.014	-0.089
-390.063	-10.174	-0.179	0.118
-389.048	156.092	0.159	-0.218
-388.033	93.362	0.134	0.151
-387.019	-13.125	0.110	0.071
-386.004	119.510	-0.267	-0.329
-384.990	9.916	-0.143	0.108
-383.975	164.458	-0.085	0.119
-382.960	800.000	0.123	0.369
-381.946	800.000	-0.059	-0.238
-380.931	-26.716	0.245	-0.142
-379.917	-19.933	0.304	-0.187
-378.902	48.750	0.043	0.040
-377.888	-200.000	-0.039	-0.330
-376.873	-96.600	-0.140	0.037
-375.858	-200.000	-0.003	0.030
-374.844	103.780	-0.126	-0.147
-373.829	800.000	0.014	0.057
-372.815	-121.468	-0.514	-0.085
-371.800	81.647	0.126	-0.135
-370.785	-102.625	0.189	-0.045
-369.771	231.018	-0.100	0.163
-368.756	31.084	-0.186	-0.158
-367.742	-137.984	-0.100	0.011
-366.727	-141.462	-0.102	-0.010
-365.712	-28.152	0.021	0.012
-364.698	45.474	-0.228	-0.209
-363.683	-157.131	0.245	0.015
-362.669	9.728	-0.316	0.238
-361.654	-200.000	0.079	0.442
-360.639	401.820	0.096	0.201
-359.625	800.000	-0.091	-0.380
-358.610	-200.000	-0.014	0.254
-357.596	-200.000	-0.015	0.141
-356.581	43.264	-0.034	-0.031
-355.566	-94.038	-0.146	0.040
-354.552	-83.496	0.237	-0.075
-353.537	-143.401	-0.151	0.014
-352.523	800.000	0.090	0.316
-351.508	366.006	0.172	0.344
-350.493	749.211	-0.097	0.259
-349.479	125.072	-0.030	0.038
-348.464	-63.679	0.304	-0.124
-347.450	-45.608	0.162	-0.080
-346.435	30.970	0.221	-0.188
-345.420	-92.018	0.278	-0.078
-344.406	-200.000	0.023	-0.116
-343.391	715.659	-0.067	-0.175
-342.377	357.003	0.044	-0.086
-341.362	212.308	0.127	0.198
-340.348	-55.366	-0.246	0.110
-339.333	24.643	-0.237	0.195
-338.318	267.656	-0.172	0.299
-337.304	30.309	0.108	0.091
-336.289	-134.203	-0.176	-0.021
-335.275	-101.417	0.261	-0.063
-334.260	-200.000	0.030	-0.524
-333.245	32.980	0.192	-0.165
-332.231	28.009	-0.128	-0.107
-331.216	609.573	-0.035	0.086
-330.202	-200.000	0.008	0.232
-329.187	-200.000	-0.038	0.586
-328.172	-200.000	0.001	-0.272
-327.158	-200.000	0.028	0.271
-326.143	800.000	-0.032	0.123
-325.129	800.000	-0.054	0.150
-324.114	-73.742	-0.193	-0.070
-323.099	-200.000	-0.008	-0.311
-322.085	570.587	-0.099	-0.238
-321.070	-4.435	-0.132	0.090
-320.056	-185.665	-0.268	0.004
-319.041	-80.222	0.148	0.049
-318.026	-200.000	-0.014	-0.151
-317.012	-126.833	0.166	0.024
-315.997	-200.000	-0.030	0.320
-314.983	-154.648	0.152	0.010
-313.968	295.555	0.083	0.151
-312.953	-200.000	-0.009	-0.177
-311.939	-200.000	0.002	0.266
-310.924	35.657	0.252	0.220
-309.910	387.847	0.092	0.189
-308.895	800.000	0.156	0.540
-307.880	800.000	-0.096	-0.272
-306.866	-59.281	0.124	0.053
-305.851	28.915	0.066	-0.056
-304.837	216.751	-0.121	0.191
-303.822	800.000	-0.027	-0.117
-302.807	195.728	0.062	0.094
-301.793	-23.370	0.143	0.085
-300.778	800.000	0.075	0.311
-299.764	200.308	0.151	-0.230
-298.749	-150.066	0.034	0.003
-297.735	582.400	0.171	0.415
-296.720	129.796	-0.240	-0.304
-295.705	800.000	-0.090	-0.339
-294.691	7.144	-0.242	-0.178
-293.676	800.000	0.058	0.165
-292.662	397.986	0.090	-0.186
-291.647	9.475	0.325	-0.243
-290.632	211.305	-0.267	0.415
-289.618	800.000	-0.030	0.104
-288.603	90.600	-0.140	-0.155
-287.589	750.184	-0.062	-0.166
-286.574	298.873	0.122	0.222
-285.559	-101.709	-0.207	0.050
-284.545	746.879	0.068	0.181
-283.530	-30.012	0.170	0.096
-282.516	-167.159	-0.252	-0.010
-281.501	-0.243	-0.133	0.093
-280.486	37.581	0.179	0.157
-279.472	-200.000	-0.030	0.167
-278.457	-145.677	0.345	0.031
-277.443	-145.433	-0.180	0.016
-276.428	396.307	0.136	0.281
-275.413	77.973	0.039	0.041
-274.399	-125.449	-0.164	-0.025
-273.384	303.900	-0.136	-0.249
-272.370	800.000	0.110	0.327
-271.355	-146.551	-0.093	0.008
-270.340	-21.000	-0.348	-0.211
-269.326	-200.000	0.003	0.227
-268.311	-200.000	0.006	-0.337
-267.297	-28.525	0.356	-0.203
-266.282	800.000	0.039	-0.170
-265.267	800.000	0.047	0.135
-264.253	-130.852	0.175	-0.023
-263.238	-122.749	0.107	-0.017
-262.224	-200.000	0.011	-0.160
-261.209	-69.897	0.184	0.070
-260.195	-200.000	0.010	0.114
-259.180	13.172	-0.419	0.321
-258.165	572.854	0.143	-0.344
-257.151	800.000	0.023	-0.093
-256.136	20.861	-0.189	0.151
-255.122	436.699	-0.184	-0.397
-254.107	800.000	-0.104	-0.285
-253.092	-1.092	0.196	-0.137
-252.078	-98.193	0.100	0.025
-251.063	-130.582	-0.529	-0.071
-250.049	440.901	-0.088	0.190
-249.034	289.387	-0.106	0.190
-248.019	-200.000	-0.068	0.315
-247.005	-91.708	0.454	-0.128
-245.990	98.762	0.187	0.213
-244.976	-139.902	0.193	0.020
-243.961	-138.351	0.395	-0.043
-242.946	-45.506	0.020	-0.010
-241.932	800.000	0.109	0.431
-240.917	355.248	-0.127	-0.249
-239.903	202.170	-0.042	0.065
-238.888	-33.513	0.098	0.053
-237.873	44.087	0.306	0.277
-236.859	-200.000	0.037	0.186
-235.844	136.119	-0.149	-0.191
-234.830	-99.993	-0.189	0.047
-233.815	19.424	0.253	0.201
-232.800	-31.726	0.240	-0.133
-231.786	99.730	-0.072	-0.082
-230.771	39.506	-0.057	-0.051
-229.757	800.000	0.004	-0.012
-228.742	-200.000	0.013	0.121
-227.727	61.210	0.120	0.118
-226.713	-128.168	0.165	-0.023
-225.698	302.447	0.065	-0.119
-224.684	-200.000	0.002	-0.075
-223.669	172.388	-0.125	-0.178
-222.655	498.546	0.168	0.383
-221.640	-47.590	0.282	-0.135
-220.625	800.000	-0.042	-0.172
-219.611	-115.874	0.195	0.036
-218.596	8.243	0.126	-0.094
-217.582	199.002	0.112	-0.169
-216.567	-53.950	-0.081	-0.037
-215.552	-116.534	0.179	-0.033
-214.538	101.500	0.127	-0.146
-213.523	-145.849	-0.210	-0.018
-212.509	-17.890	0.303	0.188
-211.494	800.000	-0.013	0.039
-210.479	665.766	0.182	0.464
-209.465	103.728	-0.191	-0.221
-208.450	309.325	-0.175	-0.323
-207.436	-111.736	-0.108	-0.022
-206.421	-200.000	0.008	-0.039
-205.406	7.959	-0.263	-0.195
-204.392	125.533	0.241	-0.301
-203.377	-84.997	0.280	0.087
-202.363	-12.644	-0.023	-0.015
-201.348	-5.656	-0.166	-0.112
-200.333	-200.000	-0.014	0.140
-199.319	-92.151	-0.164	0.046
-198.304	-177.255	-0.097	0.002
-197.290	-131.456	-0.342	0.045
-196.275	800.000	0.048	-0.154
-195.260	-200.000	0.038	0.243
-194.246	-34.343	0.476	-0.257
-193.231	350.360	-0.161	-0.313
-192.217	-200.000	-0.004	0.048
-191.202	800.000	0.093	0.392
-190.187	-2.131	0.204	-0.141
-189.173	-26.564	0.099	-0.057
-188.158	-20.843	-0.275	0.166
-187.144	-189.689	0.227	-0.003
-186.129	-200.000	-0.047	0.351
-185.114	-10.672	-0.213	-0.139
-184.100	-200.000	0.028	-0.321
-183.085	373.912	0.131	0.263
-182.071	-200.000	0.035	0.177
-181.056	-200.000	-0.030	-0.494
-180.042	-200.000	0.022	0.296
-179.027	-67.698	-0.359	-0.139
-178.012	376.295	-0.110	-0.220
-176.998	-200.000	0.003	-0.269
-175.983	-101.607	-0.106	-0.025
-174.969	-200.000	0.038	-0.253
-173.954	-40.211	0.121	-0.062
-172.939	800.000	-0.099	0.333
-171.925	80.725	-0.242	-0.257
-170.910	325.410	0.109	-0.205
-169.896	-109.233	-0.172	0.036
-168.881	-69.734	0.173	-0.065
-167.866	800.000	0.043	-0.177
-166.852	119.785	0.181	-0.221
-165.837	231.615	-0.019	-0.031
-164.823	-200.000	0.036	0.178
-163.808	58.506	-0.148	-0.144
-162.793	-200.000	-0.042	0.222
-161.779	800.000	0.085	-0.249
-160.764	-121.116	0.179	0.029
-159.750	-200.000	0.057	0.418
-158.735	26.436	-0.199	0.164
-157.720	-164.632	0.190	0.008
-156.706	-200.000	-0.019	-0.271
-155.691	-13.445	0.178	0.114
-154.677	200.250	0.266	0.402
-153.662	541.948	0.117	0.275
-152.647	-48.687	0.125	-0.059
-151.633	37.014	-0.179	0.156
-150.618	-4.765	0.246	-0.167
-149.604	287.176	-0.146	0.260
-148.589	-200.000	-0.016	0.126
-147.574	174.584	0.043	0.061
-146.560	8.358	-0.175	0.129
-145.545	320.412	-0.071	0.133
-144.531	-155.169	-0.174	-0.011
-143.516	800.000	0.167	-0.459
-142.502	-28.612	-0.035	-0.020
-141.487	195.604	0.159	0.238
-140.472	-200.000	-0.014	-0.267
-139.458	-48.834	0.283	0.133
-138.443	800.000	0.055	-0.178
-137.429	2.072	0.249	-0.177
-136.414	-123.337	-0.241	0.038
-135.399	-120.717	0.069	-0.011
-134.385	-161.081	0.168	-0.009
-133.370	178.331	0.111	0.159
-132.356	-12.531	-0.164	-0.105
-131.341	-175.457	0.282	0.008
-130.326	46.045	0.133	-0.121
-129.312	-120.436	0.168	-0.028
-128.297	60.288	-0.261	0.254
-127.283	-27.829	-0.044	0.025
-126.268	208.819	0.002	0.003
-125.253	11.350	0.208	-0.157
-124.239	553.814	-0.047	0.110
-123.224	-85.927	-0.283	0.086
-122.210	-174.990	-0.147	-0.004
-121.195	800.000	0.075	-0.215
-120.180	-200.000	-0.025	-0.175
-119.166	-8.794	-0.153	-0.101
-118.151	435.945	-0.084	-0.180
-117.137	151.953	-0.112	-0.150
-116.122	16.293	-0.279	0.217
-115.107	-26.019	0.141	-0.082
-114.093	-200.000	-0.020	-0.116
-113.078	44.570	-0.102	0.092
-112.064	74.542	0.137	-0.142
-111.049	68.251	0.155	-0.156
-110.034	182.921	0.056	-0.081
-109.020	170.781	0.203	-0.285
-108.005	451.900	0.053	-0.116
-106.991	-19.163	-0.043	-0.026
-105.976	15.680	-0.031	0.024
-104.962	-185.647	0.269	-0.004
-103.947	-136.604	0.407	-0.046
-102.932	-27.715	-0.073	-0.041
-101.918	-200.000	-0.004	-0.134
-100.903	800.000	0.033	-0.141
-99.889	230.332	-0.105	0.169
-98.874	167.723	-0.062	0.087
-97.859	-125.762	0.186	0.028
-96.845	-162.088	0.057	-0.003
-95.830	800.000	0.069	-0.214
-94.816	160.022	-0.107	0.146
-93.801	-112.720	0.222	0.043
-92.786	800.000	0.085	0.287
-91.772	-128.767	0.332	0.046
-90.757	-63.405	0.057	0.023
-89.743	53.628	0.315	-0.297
-88.728	179.695	0.226	-0.325
-87.713	207.243	-0.044	0.067
-86.699	-200.000	0.031	0.205
-85.684	-200.000	0.011	-0.281
-84.670	-200.000	0.027	-0.162
-83.655	-62.449	0.156	0.064
-82.640	69.016	0.070	0.071
-81.626	289.509	0.048	-0.086
-80.611	246.362	-0.238	0.395
-79.597	800.000	0.017	0.056
-78.582	-200.000	0.008	0.167
-77.567	-6.876	-0.113	0.076
-76.553	722.851	0.083	0.217
-75.538	800.000	-0.051	-0.193
-74.524	800.000	-0.019	0.074
-73.509	-200.000	-0.016	0.312
-72.494	-107.580	0.311	-0.067
-71.480	-109.681	-0.436	-0.090
-70.465	268.448	0.021	0.037
-69.451	-52.569	0.226	0.102
-68.436	238.491	-0.039	0.064
-67.422	-29.252	0.102	0.057
-66.407	1.630	0.243	0.172
-65.392	-57.648	-0.036	0.016
-64.378	-13.538	0.205	0.131
-63.363	-72.679	-0.126	0.045
-62.349	-200.000	-0.020	-0.645
-61.334	46.469	-1.151	-1.048
-60.319	-2.838	0.572	0.392
-59.305	-200.000	-0.240	-1.073
-58.290	545.909	0.462	1.083
-57.276	-200.000	0.370	1.810
-56.261	-200.000	107.080	583.490
-55.246	440.705	1484.123	3183.018
-54.232	144.149	2687.937	3517.475
-53.217	98.868	2305.991	2610.927
-52.203	38.104	1913.873	1670.102
-51.188	32.190	1701.389	1439.480
-50.173	29.625	1658.007	1383.538
-49.159	48.335	1711.130	1570.710
-48.144	48.437	1726.865	1585.863
-47.130	31.811	1684.193	1421.827
-46.115	29.182	1669.934	1389.930
-45.100	29.049	1664.992	1384.757
-44.086	29.029	1662.078	1382.129
-43.071	28.949	1659.614	1379.424
-42.057	28.855	1657.597	1376.990
-41.042	28.902	1655.339	1375.411
-40.027	28.996	1653.397	1374.446
-39.013	28.912	1651.381	1372.088
-37.998	28.892	1649.649	1370.448
-36.984	28.942	1648.336	1369.678
-35.969	29.044	1647.030	1369.296
-34.954	29.141	1645.445	1368.642
-33.940	29.023	1643.831	1366.374
-32.925	28.952	1642.678	1364.835
-31.911	29.106	1640.269	1363.919
-30.896	29.165	1638.141	1362.528
-29.881	29.080	1636.927	1360.841
-28.867	29.164	1634.907	1359.725
-27.852	29.085	1633.603	1358.004
-26.838	29.183	1631.876	1357.236
-25.823	29.157	1630.749	1356.055
-24.809	29.162	1629.457	1354.962
-23.794	29.198	1627.755	1353.758
-22.779	29.112	1626.425	1351.969
-21.765	29.083	1625.312	1350.775
-20.750	29.059	1623.664	1349.176
-19.736	29.132	1622.010	1348.281
-18.721	29.175	1620.468	1347.262
-17.706	29.135	1619.274	1345.920
-16.692	29.214	1617.118	1344.652
-15.677	29.103	1616.251	1343.072
-14.663	29.194	1614.599	1342.307
-13.648	29.113	1613.489	1340.743
-12.633	29.084	1611.855	1339.118
-11.619	29.085	1610.951	1338.320
-10.604	29.142	1608.698	1336.812
-9.590	29.114	1608.018	1335.991
-8.575	29.183	1606.572	1335.237
-7.560	29.152	1605.303	1333.906
-6.546	29.127	1604.309	1332.844
-5.531	29.014	1603.578	1331.365
-4.517	29.037	1602.323	1330.437
-3.502	29.175	1600.606	1329.957
-2.487	29.123	1599.024	1328.212
-1.473	29.048	1587.993	1318.463
-0.458	26.767	1569.663	1287.014
0.556	22.003	1571.676	1259.503
1.571	19.970	1596.306	1264.294
2.586	19.736	1609.066	1272.569
3.600	18.854	1559.308	1226.812
4.615	15.774	1458.838	1127.060
5.629	12.544	1402.568	1062.654
6.644	11.913	1395.165	1052.898
7.659	11.879	1394.006	1051.710
8.673	11.882	1392.918	1050.817
9.688	11.786	1391.085	1048.728
10.702	11.660	1388.264	1045.698
11.717	13.295	1390.345	1057.643
12.731	16.395	1395.981	1081.710
13.746	18.113	1397.632	1093.898
14.761	17.699	1395.576	1089.545
15.775	16.725	1392.882	1081.129
16.790	15.707	1390.203	1072.467
17.804	14.784	1387.997	1064.788
18.819	14.409	1386.291	1061.000
19.834	14.061	1384.747	1057.510
20.848	13.727	1383.889	1054.638
21.863	13.514	1382.370	1052.037
22.877	13.453	1381.096	1050.589
23.892	13.327	1380.592	1049.307
24.907	13.378	1379.395	1048.632
25.921	13.378	1378.919	1048.177
26.936	13.417	1377.483	1047.238
27.950	13.409	1377.240	1046.909
28.965	13.529	1375.700	1046.405
29.980	13.556	1374.570	1045.623
30.994	13.657	1373.207	1045.131
32.009	13.726	1371.784	1044.389
33.023	13.702	1370.759	1043.369
34.038	13.626	1369.159	1041.578
35.053	13.554	1368.125	1040.247
36.067	13.620	1366.691	1039.482
37.082	13.553	1365.955	1038.407
38.096	13.652	1365.119	1038.303
39.111	13.490	1364.454	1036.689
40.126	13.478	1363.471	1035.778
41.140	13.381	1362.467	1034.312
42.155	13.365	1361.726	1033.561
43.169	13.420	1361.256	1033.453
44.184	13.352	1361.348	1033.006
45.199	13.413	1360.896	1032.952
46.213	13.408	1360.110	1032.239
47.228	13.391	1359.645	1031.687
48.242	13.435	1358.151	1030.735
49.257	13.446	1356.624	1029.556
50.271	13.505	1354.741	1028.402
51.286	13.566	1353.227	1027.540
52.301	13.461	1352.373	1026.149
53.315	13.414	1351.600	1025.177
54.330	13.442	1350.135	1024.148
55.344	13.429	1348.533	1022.764
56.359	13.358	1348.126	1021.930
57.374	13.456	1347.041	1021.622
58.388	13.291	1346.750	1020.288
59.403	13.285	1345.623	1019.305
60.417	13.286	1345.103	1018.833
61.432	13.315	1344.062	1018.130
62.447	13.321	1343.315	1017.510
63.461	13.210	1342.072	1015.795
64.476	13.266	1340.673	1014.990
65.490	13.290	1339.218	1013.948
66.505	13.220	1338.131	1012.605
67.520	13.287	1336.562	1011.743
68.534	13.256	1335.937	1010.989
69.549	13.284	1335.160	1010.481
70.563	13.224	1334.133	1009.246
71.578	13.301	1332.703	1008.546
72.593	13.180	1332.357	1007.457
73.607	13.086	1331.248	1005.958
74.622	13.098	1330.664	1005.500
75.636	13.163	1329.641	1005.032
76.651	13.195	1329.009	1004.665
77.666	13.056	1328.684	1003.481
78.680	13.134	1328.172	1003.479
79.695	13.131	1327.396	1002.787
80.709	13.218	1326.705	1002.706
81.724	13.290	1325.535	1002.170
82.739	13.387	1324.363	1001.778
83.753	13.393	1323.752	1001.268
84.768	13.497	1322.645	1000.970
85.782	13.353	1321.925	999.467
86.797	13.517	1319.712	998.693
87.812	13.534	1318.873	998.070
88.826	13.493	1317.700	996.850
89.841	13.362	1316.975	995.427
90.855	13.557	1315.549	995.433
91.870	13.507	1315.057	994.673
92.884	13.535	1314.131	994.048
93.899	13.543	1313.100	993.227
94.914	13.536	1312.677	992.777
95.928	13.663	1311.446	992.521
96.943	13.554	1310.382	990.979
97.957	13.503	1309.525	989.934
98.972	13.564	1308.107	989.139
99.987	13.527	1307.271	988.200
101.001	13.570	1306.538	987.815
102.016	13.512	1305.602	986.673
103.030	13.503	1305.052	986.117
104.045	13.564	1303.661	985.344
105.060	13.487	1302.225	983.715
106.074	13.322	1301.768	982.302
107.089	13.350	1299.562	980.716
108.103	13.304	1298.709	979.710
109.118	13.420	1297.009	979.026
110.133	13.323	1295.997	977.603
111.147	13.351	1294.684	976.695
112.162	13.293	1293.689	975.515
113.176	13.451	1292.591	975.531
114.191	13.320	1291.870	974.128
115.206	13.410	1290.218	973.327
116.220	13.418	1288.625	972.083
117.235	13.333	1287.714	970.813
118.249	13.394	1286.862	970.440
119.264	13.402	1285.742	969.562
120.279	13.417	1284.685	968.762
121.293	13.266	1283.704	967.056
122.308	13.324	1282.472	966.381
123.322	13.257	1281.725	965.339
124.337	13.295	1280.717	964.720
125.352	13.277	1279.214	963.397
126.366	13.272	1277.850	962.256
127.381	13.397	1276.803	962.105
128.395	13.380	1275.999	961.320
129.410	13.271	1275.389	960.143
130.424	13.427	1274.099	959.990
131.439	13.505	1273.122	959.618
132.454	13.447	1271.930	958.299
133.468	13.401	1271.134	957.351
134.483	13.441	1270.721	957.188
135.497	13.426	1269.844	956.357
136.512	13.406	1268.223	954.935
137.527	13.451	1266.902	954.116
138.541	13.550	1264.922	953.106
139.556	13.515	1264.220	952.292
140.570	13.517	1263.228	951.471
141.585	13.594	1261.307	950.382
142.600	13.597	1260.505	949.712
143.614	13.562	1259.966	949.023
144.629	13.748	1258.376	948.806
145.643	13.610	1257.481	947.255
146.658	13.540	1256.456	946.000
147.673	13.488	1254.912	944.459
148.687	13.591	1253.603	943.980
149.702	13.570	1252.340	942.824
150.716	13.501	1251.192	941.485
151.731	13.555	1250.126	940.905
152.746	13.449	1248.681	939.131
153.760	13.527	1247.838	938.858
154.775	13.643	1246.810	938.659
155.789	13.665	1245.526	937.733
156.804	13.678	1244.289	936.788
157.819	13.795	1243.457	936.741
158.833	13.692	1243.039	935.766
159.848	13.749	1241.637	934.945
160.862	13.781	1240.356	934.079
161.877	13.670	1239.551	932.764
162.892	13.607	1238.461	931.507
163.906	13.575	1237.618	930.613
164.921	13.605	1236.830	930.104
165.935	13.694	1235.360	929.416
166.950	13.675	1234.948	928.918
167.964	13.743	1234.000	928.505
168.979	13.743	1233.472	928.023
169.994	13.594	1232.707	926.534
171.008	13.760	1231.408	926.405
172.023	13.811	1231.278	926.507
173.037	13.691	1230.661	925.295
174.052	13.800	1229.854	925.211
175.067	13.727	1228.459	923.675
176.081	13.706	1227.765	922.952
177.096	13.821	1226.066	922.234
178.110	13.776	1225.142	921.207
179.125	13.815	1223.957	920.452
180.140	13.803	1222.740	919.389
181.154	13.813	1221.842	918.684
182.169	13.836	1220.722	917.891
183.183	13.974	1219.723	917.823
184.198	13.995	1218.318	916.796
185.213	14.050	1217.107	916.109
186.227	14.049	1216.228	915.362
187.242	14.030	1215.253	914.438
188.256	14.019	1214.430	913.679
189.271	14.063	1213.795	913.365
190.286	13.909	1212.582	911.526
191.300	13.809	1211.558	910.125
192.315	13.713	1211.227	909.268
193.329	13.663	1210.207	908.148
194.344	13.791	1209.530	908.261
195.359	13.846	1208.773	907.916
196.373	13.936	1208.458	908.090
197.388	14.036	1207.913	908.147
198.402	14.135	1207.467	908.271
199.417	14.135	1206.942	907.795
200.432	14.179	1206.112	907.333
201.446	14.300	1204.975	907.057
202.461	14.241	1204.186	906.058
203.475	14.259	1202.664	904.929
204.490	14.221	1202.096	904.217
205.504	14.243	1200.316	902.917
206.519	14.168	1199.305	901.673
207.534	14.236	1198.249	901.168
208.548	14.124	1197.001	899.539
209.563	14.195	1196.533	899.493
210.577	14.267	1195.149	898.766
211.592	14.223	1194.346	897.845
212.607	14.367	1193.558	897.944
213.621	14.434	1192.468	897.408
214.636	14.322	1192.364	896.647
215.650	14.350	1191.114	895.777
216.665	14.461	1190.099	895.530
217.680	14.367	1189.411	894.429
218.694	14.477	1188.494	894.250
219.709	14.414	1187.564	893.136
220.723	14.442	1186.784	892.623
221.738	14.434	1186.199	892.056
222.753	14.423	1185.884	891.685
223.767	14.589	1184.659	891.570
224.782	14.622	1183.989	891.162
225.796	14.596	1183.302	890.429
226.811	14.551	1182.855	889.772
227.826	14.493	1182.249	888.932
228.840	14.527	1181.316	888.331
229.855	14.517	1180.898	887.885
230.869	14.546	1179.800	887.136
231.884	14.546	1178.951	886.417
232.899	14.489	1178.048	885.360
233.913	14.475	1177.489	884.783
234.928	14.443	1176.606	883.875
235.942	14.539	1175.605	883.553
236.957	14.521	1174.668	882.676
237.972	14.429	1174.415	881.918
238.986	14.517	1173.800	881.845
240.001	14.553	1173.580	881.791
241.015	14.610	1172.152	880.939
242.030	14.628	1170.908	880.025
243.045	14.644	1170.285	879.565
244.059	14.611	1169.722	878.886
245.074	14.667	1169.068	878.612
246.088	14.704	1167.927	877.874
247.103	14.776	1167.385	877.764
248.117	14.797	1166.532	877.157
249.132	14.873	1165.814	876.936
250.147	14.969	1165.192	876.897
251.161	14.892	1164.908	876.202
252.176	14.961	1163.886	875.715
253.190	15.018	1163.045	875.302
254.205	14.986	1162.649	874.758
255.220	15.112	1161.590	874.547
256.234	14.954	1161.488	873.564
257.249	15.060	1160.720	873.464
258.263	15.055	1159.746	872.626
259.278	15.195	1159.269	872.920
260.293	15.139	1158.459	871.940
261.307	15.181	1157.741	871.543
262.322	15.169	1157.377	871.131
263.336	15.229	1156.811	870.936
264.351	15.333	1155.728	870.583
265.366	15.199	1155.684	869.778
266.380	15.274	1154.493	869.195
267.395	15.250	1153.680	868.384
268.409	15.210	1152.807	867.441
269.424	15.109	1152.807	866.839
270.439	15.335	1151.689	867.090
271.453	15.312	1150.721	866.170
272.468	15.076	1150.739	864.886
273.482	15.138	1149.861	864.468
274.497	15.206	1149.402	864.398
275.512	15.255	1148.388	863.810
276.526	15.254	1147.800	863.289
277.541	15.319	1146.588	862.635
278.555	15.289	1145.769	861.791
279.570	15.386	1145.085	861.696
280.585	15.417	1144.452	861.303
281.599	15.433	1143.740	860.774
282.614	15.434	1142.661	859.889
283.628	15.545	1141.280	859.342
284.643	15.482	1140.541	858.389
285.657	15.466	1139.866	857.722
286.672	15.409	1139.158	856.822
287.687	15.371	1138.295	855.903
288.701	15.520	1137.270	855.816
289.716	15.488	1136.737	855.175
290.730	15.517	1136.169	854.823
291.745	15.483	1135.184	853.830
292.760	15.564	1134.707	853.808
293.774	15.530	1134.107	853.110
294.789	15.635	1133.270	852.934
295.803	15.677	1132.696	852.641
296.818	15.603	1131.900	851.591
297.833	15.595	1131.572	851.229
298.847	15.535	1130.574	850.098
299.862	15.586	1129.896	849.772
300.876	15.652	1128.916	849.294
301.891	15.690	1128.317	848.958
302.906	15.684	1128.064	848.663
303.920	15.763	1127.082	848.251
304.935	15.873	1126.064	847.960
305.949	15.881	1125.888	847.793
306.964	15.911	1125.394	847.498
307.979	15.779	1124.363	845.986
308.993	15.811	1123.364	845.318
310.008	15.761	1123.184	844.857
311.022	15.921	1122.167	844.820
312.037	15.950	1120.969	843.987
313.052	15.871	1120.509	843.170
314.066	15.686	1119.696	841.560
315.081	15.864	1118.430	841.424
316.095	15.800	1117.573	840.383
317.110	15.749	1117.230	839.795
318.125	15.787	1116.610	839.447
319.139	15.701	1115.841	838.367
320.154	15.846	1114.944	838.342
321.168	15.844	1114.629	838.021
322.183	15.901	1113.670	837.505
323.197	15.947	1112.984	837.146
324.212	15.944	1112.403	836.622
325.227	15.913	1111.704	835.867
326.241	15.921	1111.114	835.390
327.256	16.005	1110.065	834.941
328.270	15.961	1109.364	834.125
329.285	15.896	1108.570	833.131
330.300	15.956	1107.869	832.828
331.314	15.913	1106.835	831.762
332.329	16.059	1105.566	831.455
333.343	15.977	1104.958	830.521
334.358	16.103	1104.025	830.365
335.373	16.187	1102.854	829.824
336.387	16.064	1102.801	829.106
337.402	16.035	1102.410	828.598
338.416	16.208	1101.440	828.643
339.431	16.139	1100.674	827.655
340.446	16.264	1099.806	827.544
341.460	16.335	1099.043	827.247
342.475	16.316	1098.496	826.667
343.489	16.346	1097.653	826.107
344.504	16.428	1096.233	825.365
345.519	16.480	1095.320	824.858
346.533	16.425	1095.087	824.342
347.548	16.415	1094.347	823.662
348.562	16.378	1093.946	823.109
349.577	16.385	1092.707	822.136
350.592	16.258	1092.263	821.113
351.606	16.365	1090.876	820.518
352.621	16.313	1090.493	819.903
353.635	16.284	1090.086	819.384
354.650	16.293	1089.433	818.865
355.665	16.488	1088.304	818.885
356.679	16.409	1087.818	818.067
357.694	16.462	1087.204	817.790
358.708	16.445	1086.708	817.263
359.723	16.501	1085.910	816.859
360.738	16.490	1085.457	816.393
361.752	16.622	1084.763	816.436
362.767	16.571	1084.520	815.936
363.781	16.566	1083.829	815.321
364.796	16.645	1082.947	814.962
365.810	16.598	1082.670	814.455
366.825	16.666	1081.949	814.172
367.840	16.768	1081.093	813.944
368.854	16.857	1080.501	813.856
369.869	16.670	1080.190	812.651
370.883	16.804	1078.959	812.294
371.898	16.728	1078.315	811.372
372.913	16.798	1077.855	811.290
373.927	16.676	1077.410	810.299
374.942	16.954	1076.810	811.107
375.956	16.921	1076.254	810.457
376.971	16.727	1075.977	809.249
377.986	16.886	1074.871	809.105
379.000	16.865	1074.707	808.813
380.015	17.031	1073.970	808.974
381.029	16.971	1073.369	808.168
382.044	17.075	1072.591	808.003
383.059	16.986	1071.753	806.877
384.073	16.968	1071.100	806.231
385.088	17.031	1070.313	805.865
386.102	17.021	1069.566	805.184
387.117	16.996	1068.412	804.127
388.132	16.970	1067.588	803.311
389.146	16.904	1066.651	802.221
390.161	16.939	1066.045	801.863
391.175	16.946	1065.429	801.358
392.190	17.013	1064.801	801.131
393.205	17.000	1064.271	800.603
394.219	17.060	1063.169	799.983
395.234	17.061	1062.220	799.203
396.248	17.076	1060.965	798.262
397.263	16.977	1060.451	797.337
398.278	16.988	1059.799	796.828
399.292	17.174	1058.335	796.529
400.307	16.924	1058.122	795.127
401.321	17.034	1057.667	795.231
402.336	17.007	1057.080	794.592
403.350	17.065	1056.149	794.093
404.365	17.155	1055.217	793.743
405.380	16.993	1054.864	792.648
406.394	17.198	1054.064	792.933
407.409	17.271	1053.011	792.412
408.423	17.362	1051.970	791.986
409.438	17.349	1051.942	791.832
410.453	17.354	1051.375	791.356
411.467	17.337	1050.953	790.891
412.482	17.416	1049.972	790.450
413.496	17.401	1049.314	789.813
414.511	17.490	1048.643	789.655
415.526	17.523	1048.121	789.343
416.540	17.517	1047.848	789.040
417.555	17.506	1047.344	788.539
418.569	17.434	1046.856	787.770
419.584	17.540	1046.552	787.964
420.599	17.512	1045.622	787.061
421.613	103.361	1322.952	1469.583
422.628	95.009	1363.312	1469.681
