DTS Sentinel unit serial number:	SN413079Multiplexer serial number:	ORYXHardware model number:	OX4-SRSoftware version number:	ORYX F/W v4.00 Oryx Data Collector v3.7.2.0data status	okinstallation	princeton_trtdifferential loss correction	single-endedforward channel	channel 2reverse channel	N/Adate	2019/09/16time	17:19:35forward acquisition time	60.00reverse acquisition time	0.00gamma	496.2192k internal	0.2309k external	0.2309temperature offset calibration	0.9944default loss term (dB/km)	0.3790temperature slope calibration	1.0000multiplexer offset coefficient	1.0000multiplexer slope coefficient	1.0000fibre end	0.00T internal ref (°C)	38.78T ext. ref 1 (°C)	15.40T ext. ref 2 (°C)	32.83length (m)	temperature (°C)	Stokes	anti-Stokes-747.200	202.157	0.076	-0.120
-746.185	-19.041	0.204	-0.129
-745.171	758.197	-0.103	0.283
-744.156	57.451	-0.378	0.375
-743.142	669.046	0.077	0.201
-742.127	800.000	-0.061	0.205
-741.112	232.559	-0.126	-0.210
-740.098	299.047	0.051	0.095
-739.083	-88.410	0.158	0.048
-738.069	487.679	0.096	0.222
-737.054	-118.567	-0.303	-0.054
-736.039	40.098	0.181	0.165
-735.025	173.687	-0.152	0.223
-734.010	322.741	-0.125	-0.243
-732.996	-200.000	-0.026	-0.427
-731.981	-200.000	-0.014	-0.149
-730.966	-200.000	0.011	0.192
-729.952	-133.012	-0.421	-0.054
-728.937	-68.831	-0.142	0.056
-727.923	31.316	-0.151	-0.132
-726.908	-200.000	-0.012	-0.106
-725.894	-0.896	-0.279	-0.200
-724.879	28.346	-0.231	0.198
-723.864	800.000	0.081	-0.238
-722.850	37.531	0.349	-0.314
-721.835	-84.674	0.281	0.090
-720.821	-6.762	-0.169	0.117
-719.806	367.846	-0.185	-0.379
-718.791	-1.042	0.218	0.157
-717.777	-19.117	-0.279	-0.176
-716.762	800.000	0.097	-0.362
-715.748	-60.455	-0.141	-0.061
-714.733	-200.000	-0.019	-0.300
-713.718	93.014	-0.056	-0.064
-712.704	-70.079	-0.628	-0.242
-711.689	-166.769	0.069	0.003
-710.675	76.071	-0.157	-0.168
-709.660	-31.285	-0.215	-0.123
-708.645	25.197	-0.183	0.154
-707.631	-42.443	-0.087	0.045
-706.616	590.779	0.101	-0.253
-705.602	2.515	0.156	-0.114
-704.587	800.000	0.130	0.377
-703.572	-200.000	0.046	-0.228
-702.558	27.159	-0.166	0.141
-701.543	467.214	0.011	-0.025
-700.529	-33.090	0.255	0.143
-699.514	311.975	-0.056	-0.107
-698.499	-49.186	-0.168	-0.082
-697.485	-200.000	-0.002	0.057
-696.470	338.958	-0.032	-0.063
-695.456	4.164	0.175	0.130
-694.441	142.709	-0.027	0.036
-693.426	-109.590	0.193	0.041
-692.412	12.648	-0.099	-0.077
-691.397	109.532	0.245	-0.297
-690.383	-19.571	-0.332	-0.209
-689.368	161.286	0.195	0.276
-688.354	177.590	0.137	-0.203
-687.339	55.873	-0.221	0.217
-686.324	-99.716	-0.380	-0.097
-685.310	143.214	0.093	0.125
-684.295	342.708	-0.065	0.129
-683.281	140.148	-0.142	0.190
-682.266	-142.923	-0.178	-0.018
-681.251	-125.206	0.096	-0.015
-680.237	56.390	0.261	0.257
-679.222	-108.087	-0.143	-0.031
-678.208	-94.095	0.085	-0.024
-677.193	-200.000	-0.057	-0.300
-676.178	-200.000	-0.000	0.020
-675.164	-147.211	-0.367	-0.032
-674.149	-200.000	-0.021	-0.104
-673.135	-200.000	0.019	0.146
-672.120	-25.038	0.230	-0.138
-671.105	-137.271	0.146	0.017
-670.091	-135.704	-0.198	-0.024
-669.076	224.713	0.163	-0.266
-668.062	-145.670	0.257	-0.023
-667.047	800.000	0.063	0.220
-666.032	208.573	-0.266	-0.421
-665.018	-65.617	0.162	-0.066
-664.003	-68.395	-0.204	0.080
-662.989	593.390	-0.124	0.310
-661.974	25.242	-0.204	0.172
-660.959	-200.000	-0.014	-0.120
-659.945	-110.286	-0.208	-0.044
-658.930	-47.617	-0.101	0.050
-657.916	-200.000	-0.012	-0.228
-656.901	165.625	-0.047	0.068
-655.886	103.591	-0.084	-0.100
-654.872	-200.000	-0.044	-0.293
-653.857	-110.694	0.220	-0.046
-652.843	87.547	0.196	-0.220
-651.828	168.746	0.156	-0.226
-650.814	-200.000	0.008	-0.356
-649.799	5.524	0.122	-0.091
-648.784	657.401	-0.040	-0.103
-647.770	-128.883	-0.285	0.041
-646.755	442.508	0.054	-0.120
-645.741	-113.029	-0.141	-0.028
-644.726	24.297	-0.160	-0.134
-643.711	-200.000	0.083	-0.377
-642.697	-103.957	0.127	-0.030
-641.682	-37.113	0.090	-0.049
-640.668	414.535	-0.084	-0.181
-639.653	-151.994	-0.302	0.022
-638.638	464.685	0.174	-0.394
-637.624	800.000	0.011	0.031
-636.609	-135.921	0.191	0.023
-635.595	-200.000	-0.043	0.248
-634.580	-169.340	-0.158	0.006
-633.565	29.673	0.093	-0.080
-632.551	-38.290	-0.121	0.065
-631.536	-166.161	0.017	-0.001
-630.522	-200.000	0.012	-0.240
-629.507	-200.000	0.080	-0.372
-628.492	0.618	-0.221	0.160
-627.478	-30.700	0.168	0.096
-626.463	55.879	0.179	0.176
-625.449	800.000	0.034	0.114
-624.434	479.088	-0.046	0.105
-623.419	-13.754	-0.338	-0.221
-622.405	-200.000	-0.010	-0.075
-621.390	-200.000	0.063	0.281
-620.376	-130.845	-0.363	-0.049
-619.361	-7.143	0.096	-0.066
-618.346	9.016	-0.060	0.046
-617.332	16.711	0.142	-0.113
-616.317	800.000	-0.037	0.116
-615.303	65.379	-0.135	-0.138
-614.288	344.691	-0.089	0.176
-613.273	0.078	0.216	-0.156
-612.259	-200.000	-0.064	0.335
-611.244	-200.000	-0.025	0.221
-610.230	800.000	-0.048	-0.198
-609.215	509.131	0.166	0.389
-608.201	800.000	0.049	0.191
-607.186	-148.973	-0.100	-0.008
-606.171	11.209	-0.247	0.191
-605.157	-24.322	0.031	0.019
-604.142	788.611	0.046	-0.128
-603.128	-25.619	0.169	0.101
-602.113	41.877	0.155	0.142
-601.098	232.840	0.184	0.305
-600.084	-78.444	-0.065	-0.023
-599.069	-37.995	0.175	0.094
-598.055	74.876	-0.119	-0.126
-597.040	-200.000	-0.022	0.303
-596.025	-35.798	0.292	0.160
-595.011	686.859	-0.089	0.236
-593.996	-200.000	-0.005	-0.344
-592.982	-38.113	-0.098	0.052
-591.967	-189.644	-0.057	-0.001
-590.952	-140.091	0.154	0.016
-589.938	489.348	-0.056	0.128
-588.923	72.587	-0.087	0.091
-587.909	393.415	0.056	-0.118
-586.894	-200.000	0.012	-0.284
-585.879	-103.268	-0.319	-0.076
-584.865	-31.061	-0.162	0.092
-583.850	6.186	-0.239	-0.179
-582.836	-200.000	0.036	0.224
-581.821	-200.000	0.018	0.097
-580.806	-97.851	-0.127	-0.033
-579.792	-53.932	0.226	0.104
-578.777	286.289	-0.206	-0.375
-577.763	-200.000	0.015	0.090
-576.748	-200.000	-0.007	0.099
-575.733	-98.228	-0.066	-0.017
-574.719	-200.000	-0.053	-0.379
-573.704	-81.774	-0.059	0.019
-572.690	54.132	0.134	-0.130
-571.675	-141.252	-0.440	0.045
-570.661	800.000	-0.065	-0.228
-569.646	31.656	-0.132	-0.114
-568.631	13.546	-0.025	-0.019
-567.617	171.391	-0.081	-0.117
-566.602	-63.415	0.293	0.121
-565.588	-151.499	0.071	0.005
-564.573	15.390	-0.172	-0.136
-563.558	-200.000	0.014	-0.101
-562.544	74.432	-0.165	0.175
-561.529	155.545	0.087	-0.121
-560.515	-41.706	0.138	-0.072
-559.500	299.271	0.057	0.106
-558.485	-200.000	0.002	0.051
-557.471	186.255	0.121	-0.182
-556.456	-78.325	0.207	0.072
-555.442	-137.796	0.256	-0.029
-554.427	86.001	-0.126	0.140
-553.412	-47.956	0.238	-0.116
-552.398	-132.594	0.194	0.025
-551.383	54.354	-0.314	0.305
-550.369	800.000	0.072	0.278
-549.354	-200.000	-0.037	-0.289
-548.339	2.148	-0.166	-0.121
-547.325	7.911	-0.303	0.229
-546.310	578.823	-0.024	-0.059
-545.296	800.000	-0.078	0.237
-544.281	-93.927	0.315	-0.087
-543.266	-27.092	-0.170	0.100
-542.252	417.410	0.078	0.167
-541.237	178.708	0.029	0.043
-540.223	-114.954	-0.196	-0.038
-539.208	-197.832	-0.257	0.002
-538.193	108.675	0.070	-0.085
-537.179	800.000	0.080	0.282
-536.164	-79.468	-0.043	-0.015
-535.150	-105.414	-0.074	-0.017
-534.135	-200.000	-0.014	0.089
-533.121	-3.452	-0.019	0.014
-532.106	-130.505	0.151	-0.021
-531.091	-144.161	0.110	0.010
-530.077	-200.000	0.024	0.196
-529.062	800.000	-0.046	0.137
-528.048	-74.494	0.182	-0.066
-527.033	800.000	-0.073	-0.270
-526.018	-15.588	-0.178	0.115
-525.004	48.414	0.039	0.037
-523.989	-61.366	-0.364	0.154
-522.975	122.774	0.164	0.207
-521.960	-71.943	0.121	0.045
-520.945	53.287	-0.158	0.153
-519.931	13.125	0.086	0.067
-518.916	-200.000	-0.014	0.224
-517.902	120.710	-0.203	0.254
-516.887	-76.566	0.210	0.074
-515.872	-121.595	-0.153	0.026
-514.858	149.926	-0.145	-0.198
-513.843	-135.136	0.271	-0.033
-512.829	-200.000	-0.255	0.001
-511.814	56.640	-0.073	0.071
-510.799	-200.000	-0.011	0.103
-509.785	-56.287	-0.206	-0.092
-508.770	24.678	-0.172	-0.143
-507.756	-73.275	-0.302	-0.111
-506.741	800.000	0.049	0.141
-505.726	800.000	-0.124	-0.345
-504.712	-200.000	-0.051	-0.233
-503.697	781.412	0.050	-0.138
-502.683	35.848	0.308	-0.273
-501.668	-200.000	0.041	-0.333
-500.653	356.452	-0.212	0.426
-499.639	226.852	-0.171	-0.280
-498.624	-135.304	0.259	-0.031
-497.610	-104.859	0.013	-0.003
-496.595	-200.000	0.006	0.266
-495.581	-188.238	-0.119	0.002
-494.566	-200.000	-0.017	0.095
-493.551	283.355	-0.130	0.234
-492.537	800.000	0.066	-0.189
-491.522	35.353	0.018	-0.016
-490.508	80.481	0.282	0.306
-489.493	-200.000	0.057	0.423
-488.478	-197.254	0.315	0.002
-487.464	800.000	0.040	-0.111
-486.449	-200.000	-0.035	0.255
-485.435	-90.748	0.138	0.040
-484.420	160.618	0.199	0.279
-483.405	277.299	-0.060	0.108
-482.391	166.038	-0.109	0.155
-481.376	-78.820	-0.169	0.058
-480.362	-173.716	0.364	-0.011
-479.347	-200.000	0.044	0.251
-478.332	72.638	-0.009	-0.010
-477.318	179.627	0.265	-0.390
-476.303	-130.685	-0.293	0.040
-475.289	-46.060	-0.225	0.111
-474.274	-200.000	0.043	-0.329
-473.259	-200.000	0.003	-0.066
-472.245	141.902	0.059	-0.079
-471.230	-166.634	-0.291	-0.012
-470.216	-200.000	0.023	-0.139
-469.201	209.308	0.126	-0.198
-468.186	52.519	0.281	0.270
-467.172	-200.000	0.007	0.118
-466.157	-25.605	0.179	-0.106
-465.143	-200.000	-0.015	-0.066
-464.128	280.173	0.138	0.247
-463.113	-75.558	0.182	0.065
-462.099	-118.007	0.229	-0.041
-461.084	682.162	0.079	0.207
-460.070	-200.000	-0.030	-0.142
-459.055	63.831	0.063	0.064
-458.040	73.761	-0.025	-0.027
-457.026	800.000	-0.059	-0.222
-456.011	-200.000	-0.005	-0.102
-454.997	-112.317	0.329	0.066
-453.982	34.831	0.239	-0.210
-452.968	183.734	-0.082	0.121
-451.953	-200.000	0.060	-0.310
-450.938	-116.908	0.145	0.027
-449.924	-200.000	-0.042	0.347
-448.909	-16.931	-0.175	-0.111
-447.895	-200.000	-0.005	-0.259
-446.880	230.609	0.148	0.244
-445.865	-200.000	-0.009	-0.074
-444.851	145.377	-0.077	0.104
-443.836	-93.369	-0.280	0.078
-442.822	64.353	-0.088	-0.089
-441.807	287.805	-0.055	-0.101
-440.792	800.000	-0.063	-0.193
-439.778	36.381	0.142	-0.125
-438.763	-89.603	-0.222	0.065
-437.749	36.213	-0.088	-0.077
-436.734	31.566	-0.131	-0.113
-435.719	-5.983	-0.123	-0.084
-434.705	-154.812	-0.152	-0.010
-433.690	-64.558	-0.116	-0.047
-432.676	-24.994	-0.086	0.051
-431.661	169.106	0.083	0.119
-430.646	330.088	-0.102	0.198
-429.632	-20.971	-0.129	-0.079
-428.617	781.678	-0.106	0.291
-427.603	-58.127	0.228	-0.100
-426.588	596.771	-0.050	0.125
-425.573	-200.000	-0.025	-0.204
-424.559	-200.000	-0.014	-0.068
-423.544	-33.845	-0.096	0.053
-422.530	-121.135	-0.139	-0.023
-421.515	-200.000	0.021	0.278
-420.500	-200.000	-0.003	-0.320
-419.486	-3.113	0.220	0.154
-418.471	-151.620	-0.180	-0.013
-417.457	800.000	0.045	-0.196
-416.442	-41.174	0.595	0.308
-415.428	-74.319	-0.206	0.075
-414.413	654.649	0.074	-0.191
-413.398	-200.000	-0.010	-0.121
-412.384	-200.000	-0.014	-0.220
-411.369	800.000	0.044	0.192
-410.355	-176.593	-0.287	-0.007
-409.340	2.503	0.259	0.188
-408.325	-200.000	0.021	0.352
-407.311	-154.958	-0.075	-0.005
-406.296	8.731	0.315	-0.238
-405.282	-200.000	-0.003	0.072
-404.267	-156.750	-0.390	0.024
-403.252	-11.318	0.230	0.152
-402.238	274.619	-0.040	0.071
-401.223	-71.082	-0.226	0.085
-400.209	432.530	0.028	0.061
-399.194	-109.645	-0.074	-0.016
-398.179	-114.160	0.157	-0.030
-397.165	14.936	-0.146	-0.114
-396.150	-200.000	0.034	-0.184
-395.136	17.766	-0.221	-0.176
-394.121	-35.533	0.164	0.089
-393.106	221.728	0.127	-0.205
-392.092	711.536	0.050	-0.133
-391.077	800.000	-0.043	-0.153
-390.063	259.662	0.128	-0.221
-389.048	-198.717	0.226	0.001
-388.033	-200.000	-0.026	0.197
-387.019	-188.946	0.215	0.003
-386.004	-59.362	0.284	-0.122
-384.990	-200.000	0.034	0.230
-383.975	-69.633	-0.111	0.042
-382.960	125.225	-0.080	0.101
-381.946	118.637	-0.143	-0.177
-380.931	-68.302	-0.125	0.049
-379.917	800.000	-0.052	0.226
-378.902	-38.893	-0.339	0.179
-377.888	800.000	-0.035	0.132
-376.873	800.000	0.060	-0.178
-375.858	127.365	-0.070	-0.089
-374.844	-41.559	0.047	-0.024
-373.829	-129.541	-0.350	0.048
-372.815	-73.165	0.153	-0.056
-371.800	-200.000	-0.076	-0.350
-370.785	-84.138	-0.181	-0.058
-369.771	63.038	0.116	0.116
-368.756	53.611	0.129	0.124
-367.742	-200.000	-0.006	-0.178
-366.727	-200.000	0.038	-0.191
-365.712	387.295	-0.147	-0.304
-364.698	-200.000	-0.000	-0.233
-363.683	211.171	0.234	0.369
-362.669	374.843	-0.111	0.226
-361.654	-200.000	0.016	0.128
-360.639	18.901	0.137	-0.110
-359.625	-28.836	0.331	0.191
-358.610	-88.043	0.312	-0.094
-357.596	-200.000	0.021	-0.259
-356.581	800.000	-0.048	-0.191
-355.566	116.472	-0.177	-0.217
-354.552	-112.555	0.139	-0.028
-353.537	-174.784	-0.164	0.005
-352.523	-25.336	0.030	-0.018
-351.508	-200.000	-0.023	-0.230
-350.493	800.000	-0.035	0.100
-349.479	538.245	0.125	0.296
-348.464	562.803	0.125	0.302
-347.450	-8.624	0.153	0.103
-346.435	800.000	-0.072	0.239
-345.420	-32.775	-0.030	-0.017
-344.406	-78.831	-0.193	-0.066
-343.391	-78.480	-0.088	-0.030
-342.377	-200.000	-0.004	0.259
-341.362	28.720	-0.194	-0.165
-340.348	-200.000	0.003	-0.287
-339.333	200.502	-0.151	0.231
-338.318	273.365	-0.037	-0.066
-337.304	-64.936	-0.424	0.171
-336.289	269.301	0.036	-0.062
-335.275	155.133	0.114	-0.157
-334.260	800.000	0.026	0.092
-333.245	153.934	0.049	-0.067
-332.231	800.000	0.037	0.116
-331.216	-134.026	0.126	0.016
-330.202	2.028	0.194	0.140
-329.187	-123.749	-0.396	-0.063
-328.172	-78.540	-0.283	0.097
-327.158	-56.120	0.260	0.116
-326.143	52.520	-0.202	0.193
-325.129	800.000	0.061	-0.189
-324.114	-200.000	-0.004	-0.030
-323.099	600.064	-0.092	-0.228
-322.085	-186.320	0.293	0.004
-321.070	-176.832	0.136	0.003
-320.056	-14.422	0.044	-0.028
-319.041	-200.000	-0.020	-0.430
-318.026	800.000	0.127	-0.467
-317.012	800.000	-0.040	-0.116
-315.997	314.878	0.163	-0.307
-314.983	-32.463	-0.120	-0.067
-313.968	-19.512	-0.193	0.120
-312.953	-135.471	-0.223	-0.027
-311.939	108.620	-0.051	-0.061
-310.924	325.502	0.035	0.066
-309.910	800.000	0.104	0.320
-308.895	800.000	-0.086	-0.257
-307.880	193.596	-0.124	0.188
-306.866	369.506	-0.026	-0.052
-305.851	800.000	-0.044	-0.147
-304.837	580.991	-0.081	0.198
-303.822	89.911	-0.060	-0.067
-302.807	-100.800	0.259	-0.064
-301.793	-135.949	-0.385	-0.045
-300.778	-96.067	0.103	-0.027
-299.764	207.009	-0.187	0.290
-298.749	-103.990	-0.273	0.064
-297.735	-12.670	0.241	0.157
-296.720	-88.098	-0.282	0.084
-295.705	61.279	0.115	-0.114
-294.691	-200.000	0.004	0.273
-293.676	-6.391	-0.200	-0.136
-292.662	107.553	0.133	0.158
-291.647	121.906	0.143	0.179
-290.632	-131.524	0.114	-0.015
-289.618	-68.435	-0.332	-0.128
-288.603	800.000	0.062	0.214
-287.589	-15.458	0.074	0.047
-286.574	-82.500	0.113	0.037
-285.559	36.509	0.103	-0.091
-284.545	-200.000	-0.011	-0.384
-283.530	-48.101	-0.302	0.145
-282.516	-148.728	0.234	-0.019
-281.501	-200.000	0.005	0.148
-280.486	216.416	-0.099	-0.157
-279.472	800.000	-0.034	0.106
-278.457	800.000	0.043	-0.139
-277.443	800.000	-0.089	-0.305
-276.428	-200.000	-0.005	-0.066
-275.413	-57.944	0.191	-0.083
-274.399	0.948	0.108	0.077
-273.384	168.866	0.129	-0.184
-272.370	-20.471	0.116	-0.071
-271.355	115.563	0.156	0.191
-270.340	-67.093	-0.146	0.057
-269.326	800.000	-0.038	-0.149
-268.311	-13.967	0.129	0.083
-267.297	-5.071	0.194	0.133
-266.282	117.771	-0.206	-0.253
-265.267	-200.000	0.018	0.115
-264.253	-132.029	-0.122	0.016
-263.238	-200.000	-0.022	-0.400
-262.224	135.398	0.044	-0.058
-261.209	-157.338	-0.273	-0.016
-260.195	-65.065	-0.121	-0.049
-259.180	465.523	0.098	0.220
-258.165	-112.205	-0.204	0.041
-257.151	-128.877	0.486	0.068
-256.136	167.928	-0.121	0.172
-255.122	107.144	-0.207	-0.245
-254.107	-200.000	0.013	0.157
-253.092	97.070	0.057	-0.065
-252.078	-200.000	-0.013	0.158
-251.063	-42.462	-0.113	-0.058
-250.049	129.432	0.131	-0.167
-249.034	173.956	0.399	0.575
-248.019	800.000	-0.068	0.192
-247.005	41.200	-0.075	-0.067
-245.990	454.442	0.088	-0.194
-244.976	-200.000	0.006	-0.215
-243.961	-74.961	0.095	-0.034
-242.946	395.192	0.066	-0.136
-241.932	-33.376	-0.300	-0.165
-240.917	249.029	-0.080	0.135
-239.903	-114.603	0.581	0.111
-238.888	132.197	0.131	0.168
-237.873	88.617	-0.304	-0.337
-236.859	-12.087	-0.188	0.123
-235.844	-36.009	0.466	-0.251
-234.830	298.880	-0.233	-0.427
-233.815	800.000	0.037	0.130
-232.800	-200.000	0.034	0.220
-231.786	133.332	0.225	0.290
-230.771	-200.000	0.034	-0.253
-229.757	-101.628	-0.080	-0.019
-228.742	-172.686	0.178	0.006
-227.727	177.945	0.116	-0.169
-226.713	153.469	-0.052	0.071
-225.698	800.000	0.071	0.203
-224.684	316.634	0.122	0.229
-223.669	-71.142	0.052	-0.019
-222.655	479.704	0.094	-0.212
-221.640	82.515	0.155	0.167
-220.625	-63.958	0.225	0.091
-219.611	-200.000	-0.042	0.228
-218.596	-200.000	0.002	-0.052
-217.582	-111.419	-0.219	0.044
-216.567	110.383	-0.354	0.423
-215.552	716.494	-0.125	-0.331
-214.538	-84.077	0.302	0.095
-213.523	171.199	-0.090	-0.128
-212.509	-200.000	0.037	0.242
-211.494	-113.484	-0.216	-0.042
-210.479	-104.487	0.189	0.043
-209.465	-111.711	0.125	0.025
-208.450	-102.956	0.063	0.015
-207.436	-200.000	0.063	0.362
-206.421	208.811	-0.169	0.262
-205.406	-95.797	-0.117	-0.031
-204.392	800.000	-0.088	0.351
-203.377	-200.000	-0.008	0.046
-202.363	-126.929	-0.168	0.025
-201.348	-47.259	0.287	0.139
-200.333	-77.911	-0.256	0.088
-199.319	-139.767	0.225	0.024
-198.304	-200.000	0.011	-0.199
-197.290	501.027	-0.031	-0.071
-196.275	-200.000	0.014	0.084
-195.260	83.417	0.140	-0.152
-194.246	-37.045	-0.330	0.176
-193.231	76.437	-0.397	-0.418
-192.217	800.000	0.054	0.236
-191.202	-200.000	-0.036	-0.220
-190.187	-15.735	0.153	-0.097
-189.173	122.356	-0.260	-0.323
-188.158	-200.000	-0.020	-0.094
-187.144	-111.866	0.235	-0.047
-186.129	-126.703	0.442	0.065
-185.114	-97.647	-0.232	-0.060
-184.100	561.582	0.154	-0.369
-183.085	100.727	0.328	0.379
-182.071	149.347	0.101	0.136
-181.056	231.193	-0.071	0.116
-180.042	800.000	-0.143	-0.509
-179.027	211.892	-0.057	0.089
-178.012	800.000	-0.080	-0.240
-176.998	-73.138	0.348	0.127
-175.983	226.094	0.089	-0.144
-174.969	61.462	-0.200	0.198
-173.954	74.467	-0.103	0.108
-172.939	137.025	0.192	0.249
-171.925	2.866	0.142	-0.102
-170.910	-90.753	0.282	0.081
-169.896	365.541	0.116	-0.232
-168.881	-31.238	0.121	0.068
-167.866	16.100	-0.203	0.159
-166.852	-200.000	0.003	-0.111
-165.837	-200.000	-0.009	0.083
-164.823	492.948	0.115	-0.262
-163.808	385.960	0.135	-0.276
-162.793	2.625	0.077	0.055
-161.779	22.609	0.063	-0.051
-160.764	637.554	-0.117	0.295
-159.750	800.000	0.022	-0.093
-158.735	3.378	0.131	-0.094
-157.720	-200.000	-0.078	-0.403
-156.706	800.000	-0.118	0.327
-155.691	800.000	-0.055	0.171
-154.677	-116.132	0.088	-0.016
-153.662	25.779	-0.255	-0.211
-152.647	-180.910	0.399	-0.008
-151.633	-200.000	-0.057	-0.398
-150.618	-159.099	-0.053	0.003
-149.604	-200.000	0.001	0.114
-148.589	-67.907	0.080	-0.031
-147.574	87.758	0.098	0.108
-146.560	-8.558	-0.243	-0.162
-145.545	-35.723	0.097	0.052
-144.531	64.639	-0.182	0.183
-143.516	-200.000	0.005	-0.047
-142.502	800.000	0.073	-0.211
-141.487	238.833	-0.099	0.164
-140.472	-161.350	-0.141	-0.007
-139.458	-200.000	-0.063	0.288
-138.443	527.401	0.117	0.275
-137.429	181.140	-0.122	0.179
-136.414	-76.993	-0.274	0.095
-135.399	151.618	-0.131	0.176
-134.385	-116.112	-0.386	-0.071
-133.370	800.000	0.100	-0.407
-132.356	800.000	-0.025	-0.102
-131.341	717.652	0.132	-0.347
-130.326	-200.000	0.023	0.139
-129.312	800.000	0.051	0.217
-128.297	15.127	0.224	-0.174
-127.283	133.021	0.123	-0.157
-126.268	152.444	0.203	-0.275
-125.253	-49.734	0.127	0.060
-124.239	-29.742	-0.272	0.154
-123.224	71.815	0.162	0.167
-122.210	300.493	-0.086	-0.158
-121.195	-52.744	0.226	0.103
-120.180	-124.192	0.173	-0.027
-119.166	89.048	-0.300	-0.331
-118.151	-31.660	-0.373	-0.208
-117.137	-25.195	-0.205	-0.120
-116.122	13.772	0.268	0.207
-115.107	-89.663	-0.088	0.026
-114.093	168.652	-0.198	0.280
-113.078	800.000	-0.039	-0.169
-112.064	-151.855	-0.380	-0.028
-111.049	135.265	0.025	-0.032
-110.034	292.762	-0.070	-0.127
-109.020	-200.000	0.024	-0.109
-108.005	135.837	0.138	0.178
-106.991	-172.254	0.190	0.006
-105.976	92.506	0.119	0.133
-104.962	-200.000	-0.039	0.195
-103.947	-200.000	0.007	0.298
-102.932	226.121	0.030	0.048
-101.918	327.893	0.043	-0.081
-100.903	-107.769	0.299	-0.065
-99.889	-20.194	-0.062	0.038
-98.874	-84.676	-0.249	0.078
-97.859	596.156	0.135	-0.332
-96.845	-109.581	0.083	0.017
-95.830	-50.991	-0.156	-0.073
-94.816	70.805	-0.232	0.237
-93.801	434.862	-0.163	0.350
-92.786	-79.208	0.166	-0.056
-91.772	-89.294	-0.052	0.015
-90.757	461.723	0.047	0.104
-89.743	94.383	-0.089	0.101
-88.728	-200.000	0.014	0.089
-87.713	-65.621	0.127	-0.051
-86.699	96.479	-0.039	-0.044
-85.684	332.733	-0.059	0.114
-84.670	-131.974	-0.111	-0.014
-83.655	233.004	0.054	-0.089
-82.640	152.485	-0.062	0.084
-81.626	187.888	0.061	-0.090
-80.611	800.000	-0.105	0.352
-79.597	-200.000	-0.030	-0.145
-78.582	157.821	0.077	0.105
-77.567	-165.617	0.250	0.011
-76.553	-58.398	0.309	-0.133
-75.538	800.000	0.008	-0.030
-74.524	-200.000	0.016	0.233
-73.509	30.082	0.167	0.141
-72.494	84.247	0.107	-0.116
-71.480	-200.000	0.063	0.287
-70.465	800.000	0.100	-0.368
-69.451	-183.147	-0.236	-0.004
-68.436	-200.000	0.016	-0.237
-67.422	800.000	-0.035	-0.136
-66.407	-66.461	0.100	0.039
-65.392	-44.634	-0.306	-0.151
-64.378	99.653	0.083	-0.095
-63.363	800.000	-0.089	0.257
-62.349	-66.827	0.501	0.196
-61.334	98.522	-0.713	-0.813
-60.319	80.508	0.217	0.231
-59.305	400.075	-0.412	-0.855
-58.290	75.652	0.542	0.566
-57.276	765.874	0.603	1.621
-56.261	-200.000	84.416	524.986
-55.246	522.102	1349.374	3133.565
-54.232	151.403	2565.107	3454.454
-53.217	109.663	2332.717	2765.484
-52.203	47.906	1948.968	1800.575
-51.188	41.877	1738.703	1559.438
-50.173	39.255	1692.561	1498.056
-49.159	53.843	1734.882	1648.203
-48.144	57.919	1753.901	1697.629
-47.130	41.876	1713.093	1536.217
-46.115	38.892	1698.240	1500.066
-45.100	38.718	1693.813	1494.773
-44.086	38.688	1691.105	1492.096
-43.071	38.672	1688.387	1489.514
-42.057	38.578	1686.280	1486.885
-41.042	38.617	1684.005	1485.111
-40.027	38.661	1682.020	1483.636
-39.013	38.689	1679.779	1481.811
-37.998	38.609	1678.821	1480.307
-36.984	38.606	1677.427	1478.998
-35.969	38.729	1675.842	1478.469
-34.954	38.820	1673.661	1477.167
-33.940	38.754	1671.781	1474.953
-32.925	38.797	1670.239	1473.856
-31.911	38.791	1668.468	1472.192
-30.896	38.715	1667.436	1470.653
-29.881	38.660	1665.492	1468.469
-28.867	38.763	1663.448	1467.382
-27.852	38.696	1661.823	1465.387
-26.838	38.702	1661.087	1464.723
-25.823	38.805	1659.203	1463.772
-24.809	38.795	1658.040	1462.615
-23.794	38.871	1656.164	1461.465
-22.779	38.839	1654.683	1459.867
-21.765	38.834	1653.061	1458.338
-20.750	38.773	1651.801	1456.717
-19.736	38.844	1650.249	1455.813
-18.721	38.854	1648.708	1454.476
-17.706	38.767	1647.241	1452.474
-16.692	38.881	1644.903	1451.204
-15.677	38.823	1644.416	1450.286
-14.663	38.857	1643.403	1449.582
-13.648	38.909	1641.529	1448.255
-12.633	38.870	1639.957	1446.524
-11.619	38.818	1637.837	1444.218
-10.604	38.820	1636.657	1443.131
-9.590	38.857	1635.447	1442.278
-8.575	38.850	1634.452	1441.293
-7.560	38.798	1633.217	1439.763
-6.546	38.812	1631.959	1438.704
-5.531	38.815	1630.852	1437.692
-4.517	38.784	1629.751	1436.437
-3.502	38.730	1628.975	1435.302
-2.487	38.844	1626.748	1434.117
-1.473	38.437	1615.022	1420.764
-0.458	35.373	1594.010	1380.221
0.556	28.718	1592.281	1340.137
1.571	25.734	1615.334	1337.295
2.586	24.897	1628.916	1342.143
3.600	23.853	1580.230	1294.316
4.615	20.159	1479.161	1186.203
5.629	16.312	1417.803	1111.623
6.644	15.509	1408.934	1099.318
7.659	15.429	1407.317	1097.433
8.673	15.346	1406.740	1096.346
9.688	15.315	1404.473	1094.279
10.702	15.154	1401.935	1091.152
11.717	16.922	1404.378	1104.484
12.731	19.697	1409.308	1126.376
13.746	19.636	1407.092	1124.109
14.761	17.558	1402.770	1107.061
15.775	16.275	1398.925	1095.610
16.790	15.176	1396.041	1086.132
17.804	14.334	1393.884	1078.906
18.819	13.840	1392.468	1074.518
19.834	13.409	1390.964	1070.473
20.848	13.147	1389.384	1067.471
21.863	12.944	1388.009	1065.009
22.877	12.801	1387.096	1063.295
23.892	12.721	1385.930	1061.788
24.907	12.741	1385.491	1061.490
25.921	12.773	1384.351	1060.726
26.936	12.762	1383.091	1059.598
27.950	12.840	1382.357	1059.439
28.965	12.898	1381.379	1058.970
29.980	13.016	1380.174	1058.711
30.994	12.987	1378.761	1057.348
32.009	13.064	1377.717	1056.944
33.023	12.998	1376.455	1055.462
34.038	13.011	1375.093	1054.407
35.053	12.960	1373.830	1053.018
36.067	12.927	1372.667	1051.826
37.082	12.904	1371.874	1050.976
38.096	12.892	1370.996	1050.134
39.111	12.965	1369.630	1049.463
40.126	12.883	1368.937	1048.316
41.140	12.802	1368.161	1047.112
42.155	12.693	1367.857	1046.092
43.169	12.720	1367.432	1045.848
44.184	12.635	1367.375	1045.174
45.199	12.731	1366.241	1044.821
46.213	12.821	1365.594	1044.805
47.228	12.800	1365.322	1044.370
48.242	12.871	1363.690	1043.481
49.257	12.822	1362.578	1042.229
50.271	12.823	1360.924	1040.879
51.286	12.828	1360.059	1040.157
52.301	12.887	1358.336	1039.120
53.315	12.833	1357.337	1037.924
54.330	12.817	1355.941	1036.663
55.344	12.709	1354.946	1035.133
56.359	12.819	1353.854	1034.894
57.374	12.770	1353.271	1034.049
58.388	12.714	1352.711	1033.179
59.403	12.707	1352.261	1032.698
60.417	12.618	1351.751	1031.662
61.432	12.655	1350.828	1031.100
62.447	12.589	1349.486	1029.569
63.461	12.590	1347.745	1028.153
64.476	12.648	1347.042	1027.891
65.490	12.623	1345.918	1026.790
66.505	12.666	1344.506	1025.886
67.520	12.603	1343.485	1024.627
68.534	12.615	1341.897	1023.394
69.549	12.728	1340.821	1023.188
70.563	12.648	1340.090	1022.046
71.578	12.627	1338.745	1020.797
72.593	12.492	1338.342	1019.561
73.607	12.516	1337.112	1018.685
74.622	12.447	1337.018	1018.095
75.636	12.543	1336.004	1017.827
76.651	12.558	1335.253	1017.258
77.666	12.508	1334.898	1016.588
78.680	12.510	1334.230	1015.999
79.695	12.632	1333.420	1016.048
80.709	12.682	1332.145	1015.291
81.724	12.722	1331.238	1014.758
82.739	12.678	1330.687	1013.980
83.753	12.831	1329.303	1013.777
84.768	12.805	1328.702	1013.069
85.782	12.835	1327.527	1012.265
86.797	12.818	1325.961	1010.876
87.812	12.876	1324.702	1010.186
88.826	12.810	1323.731	1008.951
89.841	12.775	1322.785	1007.926
90.855	12.904	1321.465	1007.622
91.870	12.907	1320.922	1007.133
92.884	12.849	1320.216	1006.153
93.899	12.932	1319.483	1006.011
94.914	13.014	1318.228	1005.463
95.928	12.846	1317.885	1004.093
96.943	12.942	1316.492	1003.528
97.957	12.944	1315.347	1002.574
98.972	12.896	1314.784	1001.765
99.987	12.877	1313.694	1000.735
101.001	12.912	1312.645	1000.058
102.016	12.837	1311.528	998.665
103.030	12.976	1310.203	998.409
104.045	12.896	1309.299	997.145
105.060	12.878	1308.374	996.245
106.074	12.747	1307.007	994.323
107.089	12.797	1305.460	993.364
108.103	12.737	1304.383	992.093
109.118	12.651	1303.374	990.717
110.133	12.696	1301.317	989.337
111.147	12.794	1300.073	988.896
112.162	12.711	1298.920	987.435
113.176	12.762	1298.062	986.997
114.191	12.812	1296.881	986.312
115.206	12.799	1295.615	985.183
116.220	12.766	1294.751	984.242
117.235	12.792	1293.666	983.485
118.249	12.751	1292.834	982.523
119.264	12.712	1291.621	981.282
120.279	12.657	1290.360	979.910
121.293	12.716	1288.783	978.973
122.308	12.701	1288.124	978.302
123.322	12.690	1286.754	977.105
124.337	12.699	1285.826	976.372
125.352	12.602	1284.953	975.047
126.366	12.646	1283.656	974.233
127.381	12.624	1282.889	973.436
128.395	12.632	1281.536	972.371
129.410	12.678	1280.686	971.911
130.424	12.834	1279.467	971.821
131.439	12.835	1278.506	971.010
132.454	12.814	1277.596	970.108
133.468	12.889	1276.873	969.915
134.483	12.865	1275.696	968.796
135.497	12.784	1275.150	967.816
136.512	12.784	1273.585	966.544
137.527	12.826	1272.365	965.781
138.541	12.848	1271.151	964.902
139.556	12.912	1269.305	963.788
140.570	12.881	1268.590	962.983
141.585	13.030	1267.319	962.799
142.600	13.017	1266.179	961.771
143.614	12.989	1265.761	961.205
144.629	13.080	1264.211	960.475
145.643	13.048	1263.028	959.305
146.658	12.942	1261.681	957.583
147.673	12.909	1260.413	956.344
148.687	12.845	1259.116	954.904
149.702	12.783	1258.075	953.672
150.716	12.737	1256.797	952.354
151.731	12.748	1255.442	951.305
152.746	12.804	1254.214	950.615
153.760	12.876	1253.210	950.183
154.775	12.937	1252.238	949.715
155.789	12.948	1250.900	948.680
156.804	12.961	1250.065	948.032
157.819	13.050	1248.678	947.412
158.833	13.087	1248.208	947.182
159.848	13.132	1247.037	946.469
160.862	13.079	1246.138	945.396
161.877	13.027	1244.845	944.038
162.892	12.973	1244.070	943.057
163.906	12.930	1243.314	942.154
164.921	12.920	1242.367	941.294
165.935	13.084	1241.379	941.397
166.950	13.000	1240.858	940.443
167.964	13.046	1239.967	939.945
168.979	13.024	1239.115	939.092
169.994	12.977	1238.807	938.504
171.008	13.061	1237.579	937.970
172.023	13.128	1236.722	937.621
173.037	13.106	1236.337	937.119
174.052	13.151	1235.127	936.372
175.067	13.121	1233.999	935.268
176.081	13.043	1232.816	933.847
177.096	13.069	1231.913	933.224
178.110	13.105	1230.921	932.597
179.125	13.025	1230.066	931.416
180.140	13.209	1228.081	930.866
181.154	13.211	1227.363	930.249
182.169	13.227	1226.053	929.265
183.183	13.267	1224.556	928.274
184.198	13.242	1223.638	927.355
185.213	13.307	1222.646	926.884
186.227	13.285	1221.432	925.758
187.242	13.266	1220.827	925.114
188.256	13.286	1219.866	924.416
189.271	13.296	1218.633	923.451
190.286	13.204	1217.677	922.132
191.300	13.178	1216.589	921.081
192.315	13.034	1215.866	919.652
193.329	13.165	1214.929	919.594
194.344	13.193	1214.632	919.439
195.359	13.154	1214.046	918.698
196.373	13.281	1213.933	919.238
197.388	13.232	1213.562	918.603
198.402	13.504	1212.641	919.337
199.417	13.537	1211.984	918.937
200.432	13.486	1211.202	917.981
201.446	13.468	1210.458	917.237
202.461	13.550	1209.300	916.733
203.475	13.619	1208.129	916.144
204.490	13.530	1207.180	914.852
205.504	13.426	1205.738	913.105
206.519	13.508	1204.367	912.441
207.534	13.413	1203.813	911.414
208.548	13.518	1202.409	910.846
209.563	13.543	1201.988	910.585
210.577	13.405	1201.085	909.062
211.592	13.520	1199.999	908.793
212.607	13.645	1199.277	908.852
213.621	13.544	1198.306	907.482
214.636	13.613	1197.367	907.065
215.650	13.568	1196.546	906.117
216.665	13.629	1195.491	905.575
217.680	13.673	1194.809	905.218
218.694	13.667	1194.121	904.581
219.709	13.647	1193.235	903.723
220.723	13.695	1192.488	903.337
221.738	13.728	1191.684	902.831
222.753	13.700	1190.895	901.999
223.767	13.709	1190.107	901.371
224.782	13.873	1189.437	901.675
225.796	13.946	1188.671	901.409
226.811	13.848	1187.846	900.176
227.826	13.809	1187.783	899.832
228.840	13.850	1186.784	899.220
229.855	13.859	1185.874	898.498
230.869	13.831	1185.240	897.788
231.884	13.810	1184.575	897.093
232.899	13.893	1183.171	896.399
233.913	13.806	1182.512	895.348
234.928	13.744	1181.937	894.503
235.942	13.704	1181.169	893.623
236.957	13.740	1180.180	892.992
237.972	13.908	1179.302	893.154
238.986	13.795	1178.961	892.206
240.001	13.855	1178.075	891.780
241.015	13.876	1177.015	891.009
242.030	13.924	1176.527	890.819
243.045	13.870	1175.805	889.906
244.059	13.911	1174.994	889.431
245.074	13.957	1174.013	888.859
246.088	14.037	1173.296	888.666
247.103	14.014	1172.431	887.806
248.117	14.050	1171.558	887.258
249.132	14.095	1171.006	887.004
250.147	14.197	1170.693	887.231
251.161	14.271	1169.403	886.571
252.176	14.256	1168.852	885.995
253.190	14.260	1168.283	885.502
254.205	14.292	1167.672	885.136
255.220	14.337	1166.898	884.710
256.234	14.325	1166.458	884.230
257.249	14.400	1165.763	884.024
258.263	14.332	1164.970	882.985
259.278	14.354	1164.592	882.737
260.293	14.468	1163.860	882.706
261.307	14.485	1162.972	882.045
262.322	14.444	1162.312	881.251
263.336	14.516	1161.961	881.289
264.351	14.485	1161.348	880.581
265.366	14.622	1160.132	880.301
266.380	14.612	1159.831	879.944
267.395	14.535	1158.940	878.787
268.409	14.390	1158.391	877.526
269.424	14.458	1157.581	877.192
270.439	14.387	1157.166	876.426
271.453	14.381	1156.324	875.682
272.468	14.505	1154.975	875.234
273.482	14.488	1154.483	874.692
274.497	14.528	1153.730	874.253
275.512	14.462	1153.344	873.538
276.526	14.555	1152.507	873.313
277.541	14.554	1151.708	872.625
278.555	14.525	1150.895	871.783
279.570	14.680	1150.231	872.010
280.585	14.665	1149.458	871.271
281.599	14.596	1148.766	870.310
282.614	14.668	1147.899	869.949
283.628	14.649	1146.195	868.485
284.643	14.704	1145.418	868.101
285.657	14.782	1144.670	867.864
286.672	14.760	1143.827	867.035
287.687	14.703	1143.032	866.060
288.701	14.642	1142.224	865.052
289.716	14.700	1141.714	864.894
290.730	14.750	1140.660	864.278
291.745	14.788	1139.971	863.875
292.760	14.806	1139.719	863.698
293.774	14.877	1138.819	863.309
294.789	14.766	1138.574	862.475
295.803	14.915	1137.549	862.388
296.818	14.873	1136.895	861.598
297.833	14.861	1136.135	860.884
298.847	14.799	1135.310	859.865
299.862	14.749	1134.585	858.983
300.876	14.944	1133.739	859.271
301.891	14.943	1132.963	858.598
302.906	14.999	1132.021	858.098
303.920	15.089	1131.341	857.965
304.935	15.041	1130.969	857.364
305.949	15.104	1130.151	856.989
306.964	15.120	1129.287	856.342
307.979	15.082	1128.893	855.770
308.993	15.091	1127.830	854.935
310.008	15.168	1127.169	854.753
311.022	15.232	1126.184	854.254
312.037	15.105	1125.696	853.165
313.052	15.255	1124.576	853.003
314.066	15.007	1123.792	851.068
315.081	15.114	1123.251	851.131
316.095	15.110	1121.986	850.075
317.110	15.078	1121.417	849.408
318.125	15.026	1120.810	848.606
319.139	15.149	1120.063	848.589
320.154	15.062	1119.357	847.538
321.168	15.080	1118.623	846.998
322.183	15.091	1118.294	846.732
323.197	15.114	1117.771	846.379
324.212	15.147	1116.779	845.717
325.227	15.133	1116.374	845.263
326.241	15.236	1115.651	845.161
327.256	15.199	1114.888	844.324
328.270	15.211	1113.980	843.623
329.285	15.167	1113.080	842.644
330.300	15.225	1111.899	841.968
331.314	15.213	1111.252	841.340
332.329	15.223	1110.181	840.506
333.343	15.257	1109.182	839.849
334.358	15.154	1108.411	838.674
335.373	15.296	1107.994	838.993
336.387	15.224	1107.224	837.977
337.402	15.364	1106.282	837.887
338.416	15.350	1105.552	837.194
339.431	15.339	1105.292	836.867
340.446	15.456	1104.510	836.783
341.460	15.522	1103.446	836.229
342.475	15.458	1102.849	835.387
343.489	15.468	1102.209	834.876
344.504	15.523	1101.445	834.499
345.519	15.557	1100.458	833.845
346.533	15.551	1099.692	833.160
347.548	15.669	1098.735	832.949
348.562	15.608	1097.674	831.766
349.577	15.586	1097.210	831.234
350.592	15.628	1096.383	830.743
351.606	15.578	1095.507	829.758
352.621	15.485	1094.882	828.753
353.635	15.636	1094.262	828.951
354.650	15.539	1093.844	828.084
355.665	15.585	1092.918	827.536
356.679	15.632	1091.975	826.979
357.694	15.681	1091.491	826.785
358.708	15.782	1090.556	826.499
359.723	15.578	1090.531	825.405
360.738	15.710	1089.911	825.510
361.752	15.830	1089.098	825.409
362.767	15.777	1088.617	824.714
363.781	15.779	1088.160	824.301
364.796	15.749	1087.662	823.703
365.810	15.899	1086.914	823.800
366.825	15.908	1086.149	823.189
367.840	15.907	1085.789	822.839
368.854	15.902	1085.257	822.337
369.869	16.041	1084.084	822.054
370.883	15.966	1083.363	821.073
371.898	15.926	1082.999	820.526
372.913	15.947	1082.189	819.944
373.927	16.037	1081.769	819.993
374.942	16.030	1081.283	819.517
375.956	16.045	1080.608	819.007
376.971	16.045	1080.219	818.638
377.986	16.026	1079.928	818.253
379.000	16.040	1079.267	817.746
380.015	16.211	1078.696	818.069
381.029	16.239	1077.539	817.258
382.044	16.191	1077.053	816.583
383.059	16.224	1076.345	816.132
384.073	16.264	1075.364	815.509
385.088	16.202	1074.672	814.613
386.102	16.249	1073.694	814.027
387.117	16.142	1072.649	812.650
388.132	16.144	1071.739	811.895
389.146	16.247	1070.572	811.437
390.161	16.215	1070.267	810.979
391.175	16.278	1069.604	810.706
392.190	16.261	1068.680	809.854
393.205	16.274	1068.469	809.683
394.219	16.360	1067.546	809.326
395.234	16.235	1066.757	808.059
396.248	16.325	1065.409	807.397
397.263	16.241	1064.266	806.055
398.278	16.331	1063.531	805.856
399.292	16.336	1063.040	805.440
400.307	16.146	1062.407	803.981
401.321	16.226	1061.927	803.930
402.336	16.251	1061.223	803.444
403.350	16.425	1060.111	803.359
404.365	16.317	1059.568	802.361
405.380	16.219	1059.039	801.425
406.394	16.435	1057.911	801.525
407.409	16.487	1057.175	801.145
408.423	16.548	1056.632	800.952
409.438	16.553	1056.022	800.439
410.453	16.669	1055.446	800.482
411.467	16.601	1054.869	799.653
412.482	16.597	1053.650	798.639
413.496	16.551	1053.360	798.132
414.511	16.655	1052.608	797.979
415.526	16.626	1052.499	797.692
416.540	16.777	1051.694	797.719
417.555	16.725	1051.046	796.912
418.569	16.814	1050.703	797.004
419.584	16.737	1050.210	796.196
420.599	16.673	1049.874	795.568
421.613	91.485	1306.313	1406.398
422.628	84.126	1343.674	1406.510
