DTS Sentinel unit serial number:	SN413079Multiplexer serial number:	ORYXHardware model number:	OX4-SRSoftware version number:	ORYX F/W v4.00 Oryx Data Collector v3.7.2.0data status	okinstallation	princeton_trtdifferential loss correction	single-endedforward channel	channel 2reverse channel	N/Adate	2019/09/11time	09:41:10forward acquisition time	60.00reverse acquisition time	0.00gamma	496.2192k internal	0.2316k external	0.2316temperature offset calibration	0.9967default loss term (dB/km)	0.3790temperature slope calibration	1.0000multiplexer offset coefficient	1.0000multiplexer slope coefficient	1.0000fibre end	0.00T internal ref (°C)	34.87T ext. ref 1 (°C)	0.13T ext. ref 2 (°C)	31.31length (m)	temperature (°C)	Stokes	anti-Stokes-747.200	624.435	-0.045	0.115
-746.185	78.800	-0.335	0.363
-745.171	800.000	-0.062	-0.179
-744.156	11.675	-0.091	0.071
-743.142	800.000	-0.042	0.180
-742.127	-200.000	-0.092	0.485
-741.112	122.021	-0.137	0.174
-740.098	271.895	-0.070	0.124
-739.083	-66.416	-0.205	0.083
-738.069	7.271	-0.018	-0.014
-737.054	800.000	0.072	0.233
-736.039	-12.406	-0.180	-0.119
-735.025	800.000	-0.080	0.273
-734.010	136.850	0.014	0.019
-732.996	-200.000	0.024	-0.242
-731.981	9.426	-0.078	-0.060
-730.966	22.961	0.234	0.194
-729.952	-91.350	-0.148	0.043
-728.937	-112.072	0.231	0.047
-727.923	94.266	-0.071	0.081
-726.908	-112.395	-0.277	-0.056
-725.894	19.601	0.077	-0.062
-724.879	474.784	0.106	-0.242
-723.864	57.399	0.154	-0.152
-722.850	317.113	0.030	-0.058
-721.835	-84.736	0.113	0.036
-720.821	-91.938	-0.055	0.016
-719.806	623.258	0.124	0.315
-718.791	-53.252	-0.402	-0.187
-717.777	-134.670	-0.181	-0.022
-716.762	-200.000	0.023	-0.112
-715.748	-21.407	-0.332	-0.205
-714.733	27.626	-0.248	0.211
-713.718	-155.533	-0.056	0.004
-712.704	157.261	-0.098	-0.138
-711.689	800.000	0.039	0.110
-710.675	110.095	0.232	-0.282
-709.660	53.395	0.177	-0.172
-708.645	-185.637	-0.320	-0.005
-707.631	800.000	-0.086	0.363
-706.616	800.000	0.079	-0.315
-705.602	560.903	-0.077	-0.188
-704.587	76.290	0.100	-0.108
-703.572	-200.000	-0.055	0.338
-702.558	-200.000	0.015	-0.370
-701.543	-200.000	0.002	0.046
-700.529	20.042	0.207	-0.169
-699.514	112.182	-0.236	-0.288
-698.499	-105.564	0.398	-0.091
-697.485	342.109	-0.110	0.217
-696.470	-200.000	-0.029	0.228
-695.456	453.818	-0.105	0.235
-694.441	-37.708	0.099	0.053
-693.426	-112.782	0.079	-0.016
-692.412	147.226	0.061	-0.083
-691.397	-55.991	-0.179	-0.081
-690.383	203.486	-0.200	-0.313
-689.368	695.611	0.049	-0.129
-688.354	-125.878	0.287	-0.044
-687.339	-200.000	-0.011	-0.182
-686.324	-101.364	0.239	-0.059
-685.310	-200.000	0.015	-0.238
-684.295	14.507	0.124	0.098
-683.281	-200.000	0.009	0.104
-682.266	-200.000	-0.010	-0.178
-681.251	-23.721	0.264	-0.160
-680.237	-200.000	-0.020	0.112
-679.222	-131.231	0.289	-0.039
-678.208	-200.000	-0.003	-0.072
-677.193	-52.774	-0.340	-0.159
-676.178	181.601	0.059	0.087
-675.164	255.142	0.137	0.238
-674.149	-200.000	0.053	-0.383
-673.135	-200.000	0.025	0.255
-672.120	-14.276	-0.182	-0.119
-671.105	800.000	0.009	0.031
-670.091	244.703	0.054	0.091
-669.076	800.000	-0.046	0.137
-668.062	-17.884	-0.198	0.125
-667.047	-154.186	-0.285	-0.019
-666.032	21.479	0.172	0.141
-665.018	-85.653	0.286	-0.090
-664.003	352.114	0.043	0.086
-662.989	597.108	0.093	-0.232
-661.974	334.376	0.055	-0.108
-660.959	465.389	-0.095	-0.214
-659.945	197.093	0.081	0.124
-658.930	-113.034	0.134	0.027
-657.916	145.495	0.258	-0.349
-656.901	-16.877	0.295	0.188
-655.886	-158.673	-0.174	-0.010
-654.872	800.000	0.103	0.381
-653.857	-200.000	0.103	-0.510
-652.843	-200.000	-0.019	-0.102
-651.828	-161.317	0.145	0.008
-650.814	800.000	0.038	-0.149
-649.799	-200.000	0.030	0.212
-648.784	-59.125	-0.211	-0.092
-647.770	-20.812	-0.058	-0.036
-646.755	-69.778	-0.115	0.044
-645.741	-5.602	-0.166	-0.115
-644.726	-91.111	0.123	-0.035
-643.711	-183.872	0.339	-0.006
-642.697	98.751	-0.120	-0.139
-641.682	-83.010	0.355	-0.115
-640.668	-58.021	0.272	-0.120
-639.653	-200.000	-0.010	-0.161
-638.638	-148.958	0.178	0.014
-637.624	-200.000	0.050	0.277
-636.609	8.320	0.155	-0.118
-635.595	-200.000	0.029	-0.315
-634.580	-131.412	0.093	-0.012
-633.565	-66.310	-0.231	-0.093
-632.551	-115.737	0.110	-0.021
-631.536	-200.000	0.029	-0.328
-630.522	308.352	0.110	-0.207
-629.507	78.281	0.109	0.117
-628.492	-200.000	0.018	0.117
-627.478	112.363	-0.119	-0.145
-626.463	-131.908	0.195	0.026
-625.449	800.000	-0.048	-0.140
-624.434	800.000	0.126	-0.352
-623.419	-3.982	-0.152	-0.106
-622.405	191.628	0.074	0.112
-621.390	-111.727	0.536	0.109
-620.376	111.820	0.176	-0.214
-619.361	-38.264	-0.194	-0.103
-618.346	385.415	-0.124	-0.258
-617.332	-200.000	-0.035	0.163
-616.317	132.819	-0.143	0.186
-615.303	-132.367	0.164	-0.021
-614.288	190.690	0.072	-0.109
-613.273	60.678	-0.233	-0.232
-612.259	40.431	0.305	0.276
-611.244	-34.624	-0.444	-0.245
-610.230	-200.000	-0.006	0.069
-609.215	-27.085	-0.185	0.109
-608.201	800.000	0.069	0.240
-607.186	-139.739	-0.259	-0.028
-606.171	-70.544	-0.142	-0.054
-605.157	28.110	-0.174	-0.148
-604.142	-0.378	0.115	-0.082
-603.128	-200.000	-0.053	-0.398
-602.113	331.362	0.154	0.298
-601.098	-54.052	-0.027	-0.012
-600.084	-86.613	-0.267	0.082
-599.069	154.993	0.172	-0.239
-598.055	-35.092	0.093	0.051
-597.040	398.930	0.030	-0.064
-596.025	-2.242	-0.165	-0.117
-595.011	-37.252	0.068	0.036
-593.996	579.610	-0.069	-0.170
-592.982	137.839	-0.053	-0.070
-591.967	192.200	-0.159	-0.242
-590.952	-90.213	-0.379	-0.111
-589.938	-200.000	0.011	-0.137
-588.923	-102.377	-0.308	0.074
-587.909	680.272	-0.234	-0.612
-586.894	-157.200	0.143	0.009
-585.879	16.763	-0.192	0.153
-584.865	127.179	-0.181	0.231
-583.850	159.905	-0.280	-0.392
-582.836	149.746	-0.272	0.371
-581.821	-143.276	0.302	0.029
-580.806	-200.000	0.137	0.630
-579.792	800.000	0.103	0.383
-578.777	800.000	0.087	0.245
-577.763	294.740	0.127	-0.233
-576.748	-60.696	0.103	-0.044
-575.733	-159.010	-0.279	-0.016
-574.719	-200.000	-0.052	0.330
-573.704	-3.164	-0.267	0.188
-572.690	-200.000	-0.047	0.420
-571.675	-179.118	-0.305	-0.007
-570.661	-47.397	0.202	-0.099
-569.646	-200.000	-0.045	0.256
-568.631	-120.309	-0.184	0.032
-567.617	-33.753	0.205	-0.114
-566.602	16.035	-0.233	-0.185
-565.588	64.012	0.076	-0.077
-564.573	6.759	-0.034	0.025
-563.558	-109.834	-0.368	0.078
-562.544	516.397	-0.173	0.408
-561.529	152.743	-0.032	0.044
-560.515	-200.000	0.001	-0.189
-559.500	800.000	-0.057	-0.163
-558.485	45.883	0.157	0.146
-557.471	-158.964	-0.075	0.004
-556.456	-89.400	-0.132	0.039
-555.442	13.304	-0.118	-0.092
-554.427	177.563	-0.083	0.122
-553.412	279.332	0.141	0.253
-552.398	-189.303	0.350	-0.004
-551.383	-128.100	0.117	0.017
-550.369	371.423	0.083	-0.169
-549.354	34.443	-0.127	0.111
-548.339	114.076	0.348	0.425
-547.325	615.811	-0.045	0.113
-546.310	-6.929	0.226	0.155
-545.296	-4.707	0.168	-0.116
-544.281	200.622	-0.143	-0.221
-543.266	-53.233	0.122	0.056
-542.252	-121.478	-0.178	0.030
-541.237	208.332	-0.119	-0.186
-540.223	365.408	0.130	-0.263
-539.208	106.619	0.071	0.084
-538.193	187.803	-0.173	-0.259
-537.179	-86.148	-0.431	-0.134
-536.164	800.000	-0.064	0.259
-535.150	90.602	0.331	0.373
-534.135	76.906	0.205	0.219
-533.121	-200.000	0.036	0.170
-532.106	-97.100	0.044	-0.012
-531.091	-125.834	0.182	0.028
-530.077	-38.116	0.075	0.040
-529.062	109.423	0.174	-0.209
-528.048	-30.906	-0.192	-0.109
-527.033	-79.697	0.125	0.042
-526.018	-41.200	0.242	0.126
-525.004	-200.000	-0.026	0.132
-523.989	176.554	-0.017	0.025
-522.975	-200.000	-0.044	0.205
-521.960	800.000	0.079	0.224
-520.945	-200.000	0.004	0.090
-519.931	-77.983	0.167	0.058
-518.916	37.263	0.272	0.242
-517.902	490.104	0.131	0.300
-516.887	-155.921	-0.157	0.010
-515.872	-149.651	-0.253	-0.020
-514.858	379.129	-0.215	0.442
-513.843	-14.362	0.114	0.074
-512.829	-42.367	-0.356	-0.183
-511.814	386.458	0.133	-0.276
-510.799	339.407	0.062	-0.122
-509.785	-200.000	0.017	-0.255
-508.770	-108.368	-0.269	-0.058
-507.756	-76.667	-0.077	0.027
-506.741	-74.187	0.019	-0.007
-505.726	-200.000	-0.027	0.297
-504.712	-32.809	-0.174	0.097
-503.697	332.822	-0.237	-0.459
-502.683	-3.133	0.155	-0.109
-501.668	293.543	-0.262	0.480
-500.653	12.300	0.222	0.172
-499.639	148.799	-0.201	0.272
-498.624	-200.000	-0.042	0.268
-497.610	800.000	0.051	-0.217
-496.595	-200.000	-0.008	0.190
-495.581	-179.371	-0.322	0.007
-494.566	73.801	-0.209	-0.220
-493.551	133.482	-0.265	0.344
-492.537	114.044	0.048	-0.058
-491.522	800.000	-0.008	-0.026
-490.508	40.649	-0.255	-0.231
-489.493	-200.000	0.095	0.449
-488.478	800.000	0.044	0.148
-487.464	-163.974	0.029	-0.001
-486.449	-7.766	0.049	0.033
-485.435	-200.000	-0.010	0.110
-484.420	10.130	-0.131	0.100
-483.405	92.799	0.183	-0.207
-482.391	38.528	0.251	0.224
-481.376	62.119	-0.127	0.127
-480.362	-12.672	-0.377	0.247
-479.347	134.685	0.148	0.192
-478.332	50.143	0.170	0.161
-477.318	303.856	0.109	-0.202
-476.303	-60.730	-0.113	-0.048
-475.289	-14.894	-0.294	0.189
-474.274	-51.958	0.228	0.106
-473.259	800.000	0.043	-0.131
-472.245	209.850	0.092	0.145
-471.230	-81.962	0.146	0.048
-470.216	800.000	0.111	-0.374
-469.201	171.904	0.077	0.111
-468.186	-38.209	0.138	0.074
-467.172	-200.000	0.016	-0.168
-466.157	-27.235	-0.050	-0.029
-465.143	-200.000	0.025	-0.206
-464.128	-99.800	0.078	-0.020
-463.113	578.269	-0.057	0.139
-462.099	-31.284	0.181	0.102
-461.084	800.000	-0.125	0.365
-460.070	123.110	-0.110	0.137
-459.055	203.304	-0.043	-0.067
-458.040	-14.174	0.263	0.170
-457.026	-200.000	0.035	0.261
-456.011	524.688	-0.046	-0.108
-454.997	-200.000	-0.022	-0.128
-453.982	-200.000	0.012	0.325
-452.968	800.000	-0.125	0.387
-451.953	248.373	0.070	-0.118
-450.938	-80.625	-0.260	0.087
-449.924	800.000	-0.112	0.348
-448.909	-200.000	-0.020	0.216
-447.895	30.866	0.057	0.049
-446.880	788.394	-0.032	0.088
-445.865	83.922	-0.250	-0.273
-444.851	800.000	0.087	0.269
-443.836	800.000	-0.044	-0.161
-442.822	74.760	0.094	0.100
-441.807	-115.620	-0.192	0.036
-440.792	-58.387	0.121	-0.053
-439.778	-200.000	-0.037	-0.268
-438.763	800.000	-0.075	-0.262
-437.749	-125.393	-0.074	-0.011
-436.734	444.070	-0.102	0.225
-435.719	-200.000	0.022	0.278
-434.705	800.000	0.053	-0.171
-433.690	-25.156	-0.282	0.167
-432.676	432.796	0.043	-0.093
-431.661	-42.284	0.095	-0.049
-430.646	40.005	-0.235	-0.211
-429.632	-200.000	-0.030	0.167
-428.617	-147.718	-0.152	-0.013
-427.603	309.795	0.075	-0.141
-426.588	-95.646	-0.217	0.058
-425.573	800.000	0.025	0.074
-424.559	-121.993	-0.124	0.020
-423.544	-106.198	-0.169	-0.038
-422.530	800.000	-0.060	-0.171
-421.515	8.121	0.093	0.070
-420.500	-200.000	0.014	0.157
-419.486	-36.682	-0.164	0.088
-418.471	-99.074	-0.278	0.070
-417.457	-114.956	-0.188	0.036
-416.442	-112.608	0.217	-0.043
-415.428	78.991	0.221	0.237
-414.413	-74.259	-0.126	-0.046
-413.398	800.000	-0.029	-0.111
-412.384	40.776	0.247	-0.223
-411.369	-27.665	0.129	-0.075
-410.355	-122.201	-0.343	-0.056
-409.340	-200.000	-0.028	0.135
-408.325	-129.916	0.204	0.028
-407.311	124.630	0.176	-0.221
-406.296	800.000	-0.105	-0.295
-405.282	366.143	0.083	-0.167
-404.267	192.585	-0.006	0.009
-403.252	-114.021	-0.106	-0.020
-402.238	330.996	0.194	-0.374
-401.223	-200.000	-0.005	-0.183
-400.209	-100.127	0.180	0.045
-399.194	41.603	0.211	-0.191
-398.179	-200.000	-0.022	-0.284
-397.165	203.029	-0.103	0.159
-396.150	-31.845	0.109	0.061
-395.136	-31.606	0.111	-0.062
-394.121	-200.000	0.041	-0.253
-393.106	800.000	0.081	0.301
-392.092	800.000	0.036	0.141
-391.077	146.686	-0.087	-0.117
-390.063	733.676	0.054	-0.143
-389.048	-162.619	0.147	0.007
-388.033	800.000	0.062	-0.221
-387.019	-22.447	-0.242	-0.146
-386.004	-91.625	0.141	-0.040
-384.990	280.094	-0.065	-0.117
-383.975	-118.158	-0.337	-0.060
-382.960	800.000	0.111	-0.307
-381.946	800.000	-0.032	0.139
-380.931	-109.874	-0.292	0.061
-379.917	-31.902	0.453	-0.254
-378.902	-200.000	-0.044	0.217
-377.888	-15.268	-0.209	0.133
-376.873	-200.000	-0.030	-0.198
-375.858	-200.000	-0.003	-0.355
-374.844	-172.266	0.117	-0.004
-373.829	-111.025	0.198	-0.041
-372.815	-51.009	0.132	0.062
-371.800	105.335	-0.089	0.105
-370.785	-200.000	-0.004	0.061
-369.771	163.141	0.141	0.198
-368.756	-200.000	0.014	0.285
-367.742	-186.396	-0.176	-0.003
-366.727	-124.870	0.134	-0.021
-365.712	-47.063	-0.138	0.067
-364.698	6.572	-0.201	-0.149
-363.683	1.012	-0.135	0.097
-362.669	226.955	-0.171	0.278
-361.654	-103.303	0.084	-0.020
-360.639	467.934	0.022	-0.050
-359.625	-21.356	0.280	0.171
-358.610	-21.496	-0.122	-0.074
-357.596	-19.926	0.217	-0.134
-356.581	-85.179	-0.028	-0.009
-355.566	-81.192	0.143	-0.047
-354.552	285.868	-0.112	0.201
-353.537	-97.522	-0.268	0.069
-352.523	118.299	-0.183	-0.225
-351.508	-55.754	-0.281	-0.125
-350.493	155.859	-0.205	-0.282
-349.479	-54.852	0.089	-0.040
-348.464	-40.931	0.217	0.112
-347.450	-120.306	-0.206	0.035
-346.435	-53.981	0.278	-0.126
-345.420	18.172	0.171	-0.136
-344.406	283.286	0.049	-0.088
-343.391	-27.568	-0.078	0.045
-342.377	-123.802	-0.166	-0.026
-341.362	311.996	-0.135	-0.252
-340.348	-80.573	-0.216	0.072
-339.333	-102.972	-0.100	0.024
-338.318	-142.882	0.313	-0.030
-337.304	-109.858	-0.084	-0.017
-336.289	764.985	0.096	-0.261
-335.275	-120.539	0.082	-0.014
-334.260	-145.209	0.133	-0.012
-333.245	121.785	-0.052	0.064
-332.231	-152.559	0.141	0.010
-331.216	-30.014	0.204	-0.116
-330.202	-200.000	0.025	-0.136
-329.187	800.000	-0.062	-0.205
-328.172	607.795	-0.062	0.155
-327.158	83.200	0.086	0.093
-326.143	-83.476	0.302	0.096
-325.129	43.655	-0.126	0.115
-324.114	345.149	-0.129	0.251
-323.099	-200.000	-0.011	0.172
-322.085	-191.278	-0.236	-0.002
-321.070	-11.524	0.174	0.114
-320.056	800.000	-0.015	-0.059
-319.041	-93.410	0.265	-0.073
-318.026	800.000	-0.017	-0.051
-317.012	-161.448	-0.130	0.007
-315.997	601.495	0.027	0.067
-314.983	-46.275	0.167	-0.082
-313.968	151.646	0.137	-0.185
-312.953	-200.000	0.023	-0.142
-311.939	-155.457	-0.394	-0.025
-310.924	800.000	-0.057	-0.163
-309.910	-180.710	0.140	-0.003
-308.895	-200.000	0.003	0.137
-307.880	479.152	0.112	-0.253
-306.866	235.366	-0.103	-0.169
-305.851	231.803	-0.092	0.151
-304.837	157.775	0.176	0.243
-303.822	22.188	0.241	0.196
-302.807	86.401	-0.088	0.097
-301.793	5.131	0.191	-0.140
-300.778	2.652	0.242	0.175
-299.764	-18.563	-0.205	0.127
-298.749	713.333	0.078	0.206
-297.735	-128.987	0.160	0.022
-296.720	-140.920	0.351	0.036
-295.705	314.146	-0.106	-0.198
-294.691	11.940	-0.227	0.174
-293.676	-4.795	0.230	-0.158
-292.662	-131.040	-0.330	-0.044
-291.647	62.311	-0.165	-0.164
-290.632	-117.205	0.090	-0.016
-289.618	-176.588	-0.097	0.002
-288.603	47.698	-0.191	0.177
-287.589	-200.000	0.035	-0.245
-286.574	-200.000	0.022	0.106
-285.559	184.574	-0.215	0.317
-284.545	27.293	0.106	-0.088
-283.530	-115.558	0.446	-0.083
-282.516	-7.896	-0.255	0.171
-281.501	-170.416	-0.257	-0.009
-280.486	52.324	-0.171	0.163
-279.472	-200.000	-0.001	-0.202
-278.457	-97.536	-0.084	-0.022
-277.443	-46.957	0.351	-0.170
-276.428	-56.456	0.229	-0.101
-275.413	-74.896	0.123	0.044
-274.399	-200.000	-0.005	-0.074
-273.384	-97.722	-0.136	0.035
-272.370	-48.531	-0.124	0.059
-271.355	-72.993	0.303	-0.111
-270.340	800.000	-0.015	0.053
-269.326	-76.916	-0.053	-0.018
-268.311	-186.051	0.243	-0.004
-267.297	-74.041	0.210	0.076
-266.282	-19.876	0.155	-0.095
-265.267	622.888	-0.047	0.117
-264.253	344.633	-0.031	0.060
-263.238	96.779	0.037	-0.042
-262.224	-41.922	-0.507	-0.258
-261.209	-110.886	0.456	0.093
-260.195	-159.208	-0.109	-0.006
-259.180	381.548	0.102	0.209
-258.165	283.014	0.047	0.084
-257.151	335.325	-0.180	-0.346
-256.136	4.298	-0.262	-0.191
-255.122	-45.766	-0.059	0.029
-254.107	-143.256	0.205	-0.020
-253.092	-45.982	-0.053	0.026
-252.078	-110.744	0.511	0.105
-251.063	-75.053	-0.116	-0.041
-250.049	-170.258	-0.161	0.006
-249.034	712.693	-0.026	-0.069
-248.019	746.015	-0.091	-0.243
-247.005	-144.036	0.116	0.011
-245.990	800.000	0.082	-0.270
-244.976	96.889	0.128	0.146
-243.961	228.736	0.092	-0.149
-242.946	93.307	0.064	0.072
-241.932	-79.850	0.078	0.026
-240.917	93.841	0.285	-0.321
-239.903	-85.757	0.273	-0.084
-238.888	74.475	-0.345	0.360
-237.873	-127.432	-0.254	-0.037
-236.859	127.310	0.162	0.204
-235.844	413.585	0.083	0.176
-234.830	-155.755	-0.360	-0.023
-233.815	-75.878	-0.218	-0.077
-232.800	-200.000	0.001	-0.095
-231.786	-200.000	0.014	0.000
-230.771	-65.305	-0.256	0.102
-229.757	-200.000	0.030	-0.573
-228.742	-40.922	-0.044	0.022
-227.727	44.584	0.169	0.154
-226.713	425.167	0.100	0.213
-225.698	-43.115	0.127	0.064
-224.684	-110.355	0.358	0.074
-223.669	297.933	0.081	0.147
-222.655	-200.000	-0.209	0.001
-221.640	-119.321	0.167	0.029
-220.625	-200.000	0.026	0.197
-219.611	44.862	-0.070	0.064
-218.596	181.429	-0.030	-0.044
-217.582	-112.203	-0.077	-0.015
-216.567	-149.964	0.201	0.016
-215.552	-150.000	0.119	-0.009
-214.538	351.146	-0.035	0.068
-213.523	146.192	-0.081	0.108
-212.509	175.411	-0.107	-0.154
-211.494	52.868	-0.078	-0.074
-210.479	154.493	-0.106	0.145
-209.465	262.369	0.161	-0.277
-208.450	-200.000	0.002	-0.034
-207.436	-46.338	-0.302	0.147
-206.421	-32.067	-0.027	-0.015
-205.406	-0.892	0.274	-0.192
-204.392	13.273	0.243	-0.187
-203.377	164.034	-0.075	0.105
-202.363	128.677	-0.007	-0.009
-201.348	-44.104	-0.106	0.053
-200.333	800.000	-0.053	-0.214
-199.319	36.012	0.328	-0.287
-198.304	-200.000	-0.041	0.360
-197.290	279.569	-0.150	0.265
-196.275	-136.692	-0.287	0.033
-195.260	800.000	-0.177	-0.509
-194.246	800.000	-0.027	-0.095
-193.231	-11.287	-0.209	0.137
-192.217	-200.000	-0.023	0.269
-191.202	-27.252	0.250	0.145
-190.187	125.619	0.065	-0.081
-189.173	-146.325	0.243	0.021
-188.158	-80.606	-0.236	-0.078
-187.144	-139.984	0.133	0.014
-186.129	109.163	0.091	0.107
-185.114	-145.541	0.355	-0.032
-184.100	-200.000	-0.009	-0.111
-183.085	78.422	0.320	0.338
-182.071	13.000	0.128	-0.098
-181.056	553.614	-0.019	0.044
-180.042	502.711	0.050	-0.114
-179.027	241.607	0.176	-0.291
-178.012	-200.000	-0.018	-0.112
-176.998	-126.949	0.119	-0.017
-175.983	570.825	0.021	0.051
-174.969	-50.585	-0.206	-0.096
-173.954	-200.000	0.026	-0.302
-172.939	58.095	-0.060	0.059
-171.925	67.503	-0.305	0.309
-170.910	97.909	-0.041	0.047
-169.896	-128.576	-0.115	0.016
-168.881	-200.000	-0.020	0.179
-167.866	800.000	-0.056	0.170
-166.852	800.000	0.043	-0.134
-165.837	-29.914	-0.178	0.100
-164.823	-149.906	0.098	-0.008
-163.808	237.494	0.149	-0.244
-162.793	800.000	0.082	-0.343
-161.779	-200.000	0.033	-0.173
-160.764	-200.000	0.020	-0.118
-159.750	70.088	-0.102	0.105
-158.735	170.284	0.124	0.176
-157.720	-200.000	-0.063	-0.345
-156.706	60.386	0.218	0.214
-155.691	66.615	0.207	0.209
-154.677	800.000	0.066	-0.194
-153.662	523.962	-0.070	-0.163
-152.647	-200.000	0.007	-0.338
-151.633	-30.753	0.267	-0.149
-150.618	-200.000	0.031	0.292
-149.604	-200.000	0.017	-0.283
-148.589	-68.948	0.045	-0.017
-147.574	410.617	-0.051	-0.107
-146.560	-5.716	0.171	-0.116
-145.545	-41.306	0.218	0.111
-144.531	157.939	0.204	-0.280
-143.516	-79.796	0.232	-0.077
-142.502	252.758	-0.181	-0.305
-141.487	-123.953	-0.287	-0.045
-140.472	224.826	-0.173	-0.277
-139.458	-52.971	0.155	-0.071
-138.443	319.488	0.218	0.408
-137.429	-66.115	-0.178	0.070
-136.414	-92.437	0.329	0.091
-135.399	-152.417	0.228	-0.016
-134.385	800.000	0.063	-0.271
-133.370	402.668	0.124	-0.259
-132.356	4.578	0.285	0.207
-131.341	183.261	-0.096	0.140
-130.326	116.397	0.246	0.298
-129.312	414.269	0.085	0.179
-128.297	186.463	0.047	0.069
-127.283	-93.634	0.230	0.063
-126.268	4.144	0.083	0.060
-125.253	800.000	-0.039	0.109
-124.239	-113.624	0.347	-0.067
-123.224	145.898	0.271	0.359
-122.210	162.561	-0.110	-0.152
-121.195	-175.113	-0.247	0.007
-120.180	68.564	-0.171	-0.174
-119.166	703.695	0.062	0.162
-118.151	206.870	-0.062	0.096
-117.137	-45.511	-0.415	-0.203
-116.122	-21.953	-0.220	-0.132
-115.107	-150.155	0.396	0.030
-114.093	-200.000	-0.036	0.261
-113.078	-200.000	-0.456	0.000
-112.064	182.935	-0.117	0.171
-111.049	-88.945	0.255	-0.075
-110.034	28.735	-0.241	0.201
-109.020	-3.691	0.151	0.104
-108.005	432.944	-0.059	0.126
-106.991	-200.000	0.036	0.286
-105.976	115.442	0.205	-0.247
-104.962	64.688	0.170	-0.169
-103.947	-119.096	0.264	0.046
-102.932	-200.000	0.060	-0.287
-101.918	361.619	-0.024	0.048
-100.903	-200.000	0.012	-0.261
-99.889	-38.323	0.245	0.128
-98.874	-200.000	0.027	-0.305
-97.859	-186.221	0.207	0.003
-96.845	-57.802	0.126	0.055
-95.830	133.938	0.117	0.149
-94.816	133.210	-0.223	0.284
-93.801	39.849	0.187	0.165
-92.786	-200.000	0.053	0.324
-91.772	206.861	0.196	0.302
-90.757	800.000	-0.012	-0.034
-89.743	74.890	-0.202	0.210
-88.728	-170.644	-0.372	0.013
-87.713	566.568	0.039	-0.093
-86.699	77.675	0.153	-0.161
-85.684	-81.393	0.273	0.089
-84.670	-5.762	-0.154	-0.104
-83.655	-99.217	0.454	0.113
-82.640	58.235	0.276	0.267
-81.626	76.156	-0.142	-0.149
-80.611	609.873	-0.115	0.283
-79.597	-200.000	-0.024	0.187
-78.582	228.742	-0.124	-0.200
-77.567	-48.259	0.148	0.070
-76.553	-149.750	-0.137	0.011
-75.538	-70.826	-0.182	-0.068
-74.524	-157.993	-0.122	0.007
-73.509	-97.355	-0.265	0.068
-72.494	557.738	0.038	-0.091
-71.480	800.000	-0.151	0.583
-70.465	-10.864	0.279	-0.182
-69.451	480.283	-0.020	0.044
-68.436	-200.000	0.056	0.314
-67.422	195.218	-0.096	0.144
-66.407	155.317	0.051	0.070
-65.392	-200.000	-0.006	-0.200
-64.378	800.000	-0.036	0.115
-63.363	22.230	0.290	-0.234
-62.349	89.920	-0.129	0.142
-61.334	70.520	-0.568	-0.579
-60.319	6.338	0.502	0.368
-59.305	-200.000	-0.075	-0.729
-58.290	6.762	0.935	0.686
-57.276	357.861	0.613	1.207
-56.261	-200.000	93.322	518.596
-55.246	571.130	1371.194	3291.057
-54.232	185.716	2620.599	3839.070
-53.217	111.748	2331.356	2774.353
-52.203	44.260	1941.563	1756.471
-51.188	38.121	1724.657	1512.806
-50.173	35.282	1679.124	1451.355
-49.159	51.108	1725.920	1613.600
-48.144	54.070	1743.979	1653.165
-47.130	37.760	1701.055	1489.112
-46.115	34.899	1685.815	1453.995
-45.100	34.678	1680.682	1447.840
-44.086	34.705	1678.579	1446.176
-43.071	34.764	1675.768	1444.138
-42.057	34.539	1673.465	1440.400
-41.042	34.653	1670.990	1439.073
-40.027	34.618	1669.598	1437.551
-39.013	34.699	1667.012	1435.875
-37.998	34.675	1665.690	1434.503
-36.984	34.668	1664.832	1433.649
-35.969	34.831	1662.787	1433.056
-34.954	34.908	1661.054	1432.083
-33.940	34.866	1659.111	1430.033
-32.925	34.837	1657.180	1428.100
-31.911	34.844	1655.856	1426.951
-30.896	34.856	1654.211	1425.569
-29.881	34.843	1652.443	1423.889
-28.867	34.872	1650.862	1422.691
-27.852	34.908	1648.970	1421.271
-26.838	34.907	1647.545	1419.977
-25.823	34.881	1646.276	1418.636
-24.809	34.902	1645.235	1417.839
-23.794	34.950	1643.647	1416.768
-22.779	34.902	1642.450	1415.322
-21.765	34.822	1640.350	1412.868
-20.750	34.831	1638.539	1411.319
-19.736	34.944	1636.908	1410.690
-18.721	34.979	1635.345	1409.543
-17.706	34.970	1633.862	1408.144
-16.692	34.833	1632.776	1406.144
-15.677	34.821	1631.236	1404.672
-14.663	34.937	1630.307	1404.671
-13.648	34.917	1628.727	1403.110
-12.633	34.943	1626.741	1401.533
-11.619	34.940	1625.526	1400.409
-10.604	34.944	1623.378	1398.530
-9.590	35.068	1621.811	1398.026
-8.575	34.938	1621.021	1396.341
-7.560	34.869	1619.899	1394.820
-6.546	34.913	1618.462	1393.851
-5.531	34.995	1617.040	1393.164
-4.517	34.809	1616.218	1391.050
-3.502	34.937	1615.151	1391.007
-2.487	34.987	1613.581	1389.962
-1.473	34.826	1602.456	1379.163
-0.458	32.368	1583.136	1344.933
0.556	27.185	1583.470	1314.352
1.571	25.028	1609.121	1319.659
2.586	24.449	1623.683	1327.174
3.600	21.304	1568.584	1259.396
4.615	10.961	1451.839	1096.199
5.629	1.803	1383.093	985.190
6.644	0.267	1374.372	969.017
7.659	0.149	1372.389	966.779
8.673	0.064	1371.738	965.686
9.688	0.030	1369.707	963.953
10.702	-0.233	1366.954	960.247
11.717	3.149	1373.966	986.810
12.731	13.522	1393.460	1067.915
13.746	21.478	1407.607	1130.272
14.761	23.030	1409.912	1142.057
15.775	23.211	1409.056	1142.430
16.790	23.207	1408.985	1142.248
17.804	23.332	1407.864	1142.043
18.819	23.614	1407.358	1143.348
19.834	23.657	1406.907	1143.162
20.848	23.650	1406.651	1142.802
21.863	23.653	1405.579	1141.850
22.877	23.546	1404.684	1140.334
23.892	23.706	1403.749	1140.505
24.907	23.700	1402.847	1139.633
25.921	23.762	1401.216	1138.605
26.936	23.714	1400.637	1137.725
27.950	23.625	1399.906	1136.458
28.965	23.744	1398.388	1135.886
29.980	23.673	1397.231	1134.397
30.994	23.555	1396.046	1132.580
32.009	23.640	1394.414	1131.694
33.023	23.676	1393.351	1130.964
34.038	23.635	1392.361	1129.800
35.053	23.536	1391.311	1128.216
36.067	23.682	1390.159	1128.114
37.082	23.640	1389.535	1127.239
38.096	23.643	1388.570	1126.373
39.111	23.538	1388.002	1125.146
40.126	23.666	1387.113	1125.141
41.140	23.657	1386.702	1124.649
42.155	23.653	1386.137	1124.067
43.169	23.606	1386.575	1124.024
44.184	23.595	1386.320	1123.647
45.199	23.600	1386.069	1123.379
46.213	23.616	1384.839	1122.382
47.228	23.660	1383.902	1121.801
48.242	23.575	1382.833	1120.296
49.257	23.628	1380.957	1119.017
50.271	23.687	1379.666	1118.244
51.286	23.566	1378.761	1116.648
52.301	23.563	1377.551	1115.550
53.315	23.637	1376.485	1115.054
54.330	23.690	1375.501	1114.489
55.344	23.643	1374.231	1113.065
56.359	23.483	1373.236	1111.157
57.374	23.534	1372.677	1110.929
58.388	23.574	1371.945	1110.487
59.403	23.551	1371.935	1110.239
60.417	23.568	1371.184	1109.638
61.432	23.628	1369.685	1108.699
62.447	23.636	1369.075	1108.160
63.461	23.566	1368.080	1106.823
64.476	23.532	1367.364	1105.933
65.490	23.652	1366.063	1105.526
66.505	23.703	1363.931	1104.021
67.520	23.695	1362.798	1102.960
68.534	23.685	1361.999	1102.149
69.549	23.725	1360.645	1101.208
70.563	23.658	1360.082	1100.240
71.578	23.745	1358.956	1099.770
72.593	23.612	1358.465	1098.449
73.607	23.586	1358.003	1097.816
74.622	23.544	1356.932	1096.595
75.636	23.649	1355.752	1096.194
76.651	23.699	1355.326	1096.063
77.666	23.631	1354.940	1095.234
78.680	23.595	1354.751	1094.762
79.695	23.590	1353.737	1093.811
80.709	23.584	1353.055	1093.126
81.724	23.591	1352.450	1092.583
82.739	23.739	1350.822	1092.086
83.753	23.644	1350.337	1091.014
84.768	23.672	1348.577	1089.665
85.782	23.674	1347.530	1088.734
86.797	23.753	1345.922	1087.823
87.812	23.697	1345.168	1086.773
88.826	23.713	1344.241	1086.030
89.841	23.729	1343.591	1085.504
90.855	23.561	1342.684	1083.646
91.870	23.659	1341.865	1083.488
92.884	23.774	1340.555	1083.037
93.899	23.726	1340.045	1082.240
94.914	23.736	1339.035	1081.385
95.928	23.641	1338.590	1080.355
96.943	23.703	1337.735	1079.944
97.957	23.727	1336.745	1079.195
98.972	23.701	1335.864	1078.232
99.987	23.667	1335.182	1077.379
101.001	23.630	1334.245	1076.300
102.016	23.723	1333.303	1076.012
103.030	23.636	1332.304	1074.583
104.045	23.712	1331.548	1074.339
105.060	23.690	1330.534	1073.292
106.074	23.774	1329.540	1072.901
107.089	23.744	1328.105	1071.469
108.103	23.847	1326.891	1071.014
109.118	23.799	1326.127	1070.013
110.133	23.746	1324.992	1068.688
111.147	23.762	1323.922	1067.824
112.162	23.784	1322.592	1066.786
113.176	23.729	1321.974	1065.868
114.191	23.842	1321.265	1065.880
115.206	23.750	1319.593	1063.881
116.220	23.746	1318.612	1062.976
117.235	23.834	1317.431	1062.456
118.249	23.763	1316.668	1061.320
119.264	23.675	1315.908	1060.092
120.279	23.802	1315.139	1060.133
121.293	23.832	1314.088	1059.371
122.308	23.821	1313.286	1058.564
123.322	23.782	1312.033	1057.233
124.337	23.765	1311.681	1056.752
125.352	23.773	1310.997	1056.153
126.366	23.880	1309.257	1055.297
127.381	23.754	1308.820	1054.103
128.395	23.848	1307.931	1053.850
129.410	23.772	1307.169	1052.693
130.424	23.918	1306.187	1052.671
131.439	23.808	1305.936	1051.727
132.454	23.784	1304.588	1050.407
133.468	23.772	1304.031	1049.792
134.483	23.717	1303.475	1048.930
135.497	23.845	1302.479	1048.787
136.512	23.835	1301.028	1047.469
137.527	23.969	1300.002	1047.342
138.541	23.886	1298.960	1045.916
139.556	23.895	1297.519	1044.716
140.570	23.744	1297.313	1043.573
141.585	23.778	1295.955	1042.587
142.600	23.772	1294.760	1041.497
143.614	23.904	1293.646	1041.285
144.629	23.739	1292.448	1039.262
145.643	23.708	1291.641	1038.342
146.658	23.684	1290.616	1037.282
147.673	23.780	1289.460	1036.824
148.687	23.705	1288.548	1035.561
149.702	23.696	1287.447	1034.533
150.716	23.648	1286.309	1033.245
151.731	23.712	1285.257	1032.683
152.746	23.830	1284.075	1032.330
153.760	23.805	1283.115	1031.316
154.775	23.830	1282.199	1030.638
155.789	23.837	1280.934	1029.568
156.804	23.734	1280.287	1028.364
157.819	23.786	1279.353	1027.820
158.833	23.679	1278.791	1026.659
159.848	23.833	1277.809	1026.669
160.862	23.821	1277.251	1026.061
161.877	23.921	1275.855	1025.425
162.892	23.899	1275.383	1024.830
163.906	23.858	1274.684	1023.942
164.921	23.829	1274.179	1023.276
165.935	23.826	1273.206	1022.387
166.950	23.808	1272.637	1021.736
167.964	23.786	1272.244	1021.208
168.979	23.842	1271.387	1020.751
169.994	23.912	1270.566	1020.401
171.008	23.916	1270.050	1019.917
172.023	23.993	1269.338	1019.700
173.037	23.978	1268.167	1018.583
174.052	23.963	1267.780	1018.094
175.067	23.889	1267.242	1017.152
176.081	23.934	1266.272	1016.537
177.096	23.924	1265.612	1015.862
178.110	23.936	1264.489	1014.938
179.125	23.912	1263.822	1014.176
180.140	23.940	1262.520	1013.200
181.154	23.961	1261.327	1012.274
182.169	24.050	1260.085	1011.696
183.183	23.882	1259.183	1009.928
184.198	23.981	1258.323	1009.707
185.213	23.918	1257.211	1008.371
186.227	24.002	1256.324	1008.046
187.242	24.028	1255.343	1007.314
188.256	23.961	1254.405	1006.096
189.271	24.043	1253.836	1006.011
190.286	23.983	1253.463	1005.288
191.300	24.034	1252.571	1004.768
192.315	23.895	1252.516	1003.852
193.329	23.957	1251.940	1003.650
194.344	23.969	1251.576	1003.336
195.359	23.982	1250.778	1002.680
196.373	24.025	1249.900	1002.135
197.388	23.926	1250.169	1001.703
198.402	23.948	1249.110	1000.888
199.417	24.080	1248.810	1001.304
200.432	24.070	1248.051	1000.548
201.446	23.987	1247.751	999.755
202.461	23.963	1246.833	998.791
203.475	24.032	1245.928	998.367
204.490	24.071	1245.138	997.866
205.504	24.046	1243.746	996.522
206.519	24.026	1243.329	995.989
207.534	24.122	1242.134	995.481
208.548	24.095	1241.242	994.526
209.563	23.999	1240.476	993.285
210.577	24.098	1239.531	992.996
211.592	24.082	1239.084	992.461
212.607	24.040	1238.648	991.791
213.621	24.074	1237.910	991.299
214.636	24.093	1236.962	990.559
215.650	24.084	1236.024	989.669
216.665	24.037	1235.134	988.610
217.680	24.153	1234.189	988.407
218.694	24.054	1233.439	987.171
219.709	24.077	1232.651	986.578
220.723	24.096	1232.329	986.338
221.738	24.227	1231.073	985.975
222.753	24.171	1229.963	984.684
223.767	24.204	1229.703	984.574
224.782	24.294	1229.335	984.691
225.796	24.101	1229.057	983.312
226.811	24.208	1228.180	983.117
227.826	24.315	1227.407	982.999
228.840	24.153	1227.487	982.082
229.855	24.174	1226.938	981.674
230.869	24.126	1225.810	980.418
231.884	24.154	1225.359	980.124
232.899	24.261	1224.043	979.576
233.913	24.358	1223.275	979.405
234.928	24.203	1223.074	978.310
235.942	24.332	1222.260	978.275
236.957	24.383	1221.847	978.138
237.972	24.222	1221.306	976.735
238.986	24.223	1220.372	975.910
240.001	24.315	1220.295	976.266
241.015	24.403	1219.157	975.748
242.030	24.374	1218.498	974.980
243.045	24.403	1217.536	974.279
244.059	24.375	1216.569	973.270
245.074	24.431	1215.830	972.897
246.088	24.407	1215.023	972.036
247.103	24.419	1214.455	971.558
248.117	24.332	1213.672	970.372
249.132	24.259	1213.145	969.470
250.147	24.522	1212.216	970.069
251.161	24.514	1211.302	969.209
252.176	24.394	1210.853	968.113
253.190	24.517	1209.851	967.890
254.205	24.546	1209.097	967.358
255.220	24.417	1209.076	966.562
256.234	24.514	1208.328	966.402
257.249	24.485	1207.558	965.543
258.263	24.503	1206.635	964.818
259.278	24.563	1206.355	964.832
260.293	24.471	1206.207	964.132
261.307	24.395	1205.779	963.291
262.322	24.578	1204.845	963.449
263.336	24.451	1204.359	962.287
264.351	24.595	1203.716	962.468
265.366	24.571	1202.954	961.642
266.380	24.580	1202.227	961.023
267.395	24.633	1201.129	960.345
268.409	24.548	1200.608	959.387
269.424	24.554	1200.480	959.236
270.439	24.549	1199.996	958.735
271.453	24.496	1199.422	957.906
272.468	24.520	1198.044	956.851
273.482	24.449	1197.837	956.221
274.497	24.555	1197.487	956.426
275.512	24.568	1196.848	955.900
276.526	24.559	1196.302	955.329
277.541	24.535	1195.547	954.514
278.555	24.581	1194.879	954.141
279.570	24.695	1193.630	953.668
280.585	24.543	1193.380	952.572
281.599	24.655	1192.465	952.355
282.614	24.502	1191.625	950.785
283.628	24.678	1190.613	950.831
284.643	24.744	1189.587	950.278
285.657	24.636	1188.529	948.774
286.672	24.697	1187.858	948.482
287.687	24.789	1187.399	948.516
288.701	24.632	1186.906	947.208
289.716	24.640	1186.212	946.611
290.730	24.700	1185.006	945.885
291.745	24.815	1184.751	946.205
292.760	24.660	1184.574	945.160
293.774	24.641	1183.771	944.337
294.789	24.789	1183.191	944.572
295.803	24.768	1182.612	943.912
296.818	24.801	1181.582	943.179
297.833	24.929	1180.712	943.078
298.847	24.887	1180.501	942.607
299.862	24.841	1179.569	941.535
300.876	24.856	1178.620	940.772
301.891	24.928	1178.267	940.789
302.906	25.005	1177.524	940.516
303.920	24.879	1177.328	939.616
304.935	25.006	1176.177	939.277
305.949	24.912	1175.994	938.557
306.964	24.962	1175.246	938.139
307.979	24.955	1174.114	937.115
308.993	24.917	1173.889	936.651
310.008	24.882	1172.953	935.639
311.022	24.886	1172.296	935.054
312.037	24.940	1171.073	934.277
313.052	24.946	1170.593	933.842
314.066	24.975	1169.586	933.107
315.081	25.047	1169.029	932.958
316.095	25.038	1168.172	932.141
317.110	24.937	1167.817	931.252
318.125	25.160	1166.862	931.565
319.139	24.924	1166.632	930.076
320.154	25.038	1165.896	929.999
321.168	25.044	1165.468	929.606
322.183	25.039	1164.815	928.977
323.197	25.016	1164.242	928.320
324.212	25.042	1163.721	927.957
325.227	25.128	1163.361	928.029
326.241	25.098	1162.559	927.155
327.256	25.135	1161.822	926.677
328.270	25.136	1160.801	925.782
329.285	25.218	1159.966	925.462
330.300	25.184	1159.305	924.674
331.314	25.217	1158.604	924.202
332.329	25.197	1157.388	923.050
333.343	25.186	1156.846	922.478
334.358	25.183	1156.054	921.752
335.373	25.199	1155.543	921.345
336.387	25.313	1154.613	921.106
337.402	25.202	1154.435	920.312
338.416	25.239	1153.728	919.855
339.431	25.237	1153.296	919.418
340.446	25.160	1152.594	918.387
341.460	25.414	1151.577	918.794
342.475	25.386	1150.841	917.983
343.489	25.356	1149.904	917.000
344.504	25.236	1149.100	915.664
345.519	25.301	1147.849	914.917
346.533	25.373	1147.694	915.080
347.548	25.423	1146.805	914.545
348.562	25.418	1145.918	913.730
349.577	25.334	1145.211	912.658
350.592	25.272	1144.671	911.832
351.606	25.374	1143.766	911.548
352.621	25.361	1143.262	911.002
353.635	25.458	1142.515	910.817
354.650	25.408	1141.880	909.975
355.665	25.416	1141.326	909.494
356.679	25.492	1140.739	909.331
357.694	25.424	1140.449	908.676
358.708	25.483	1139.462	908.110
359.723	25.461	1138.737	907.340
360.738	25.395	1138.606	906.822
361.752	25.424	1137.852	906.284
362.767	25.533	1137.157	906.202
363.781	25.491	1136.925	905.725
364.796	25.621	1135.688	905.312
365.810	25.627	1135.148	904.832
366.825	25.516	1134.999	904.074
367.840	25.578	1134.742	904.104
368.854	25.712	1134.220	904.281
369.869	25.694	1133.041	903.169
370.883	25.581	1132.033	901.721
371.898	25.546	1131.605	901.127
372.913	25.598	1131.278	901.047
373.927	25.615	1131.027	900.850
374.942	25.720	1129.846	900.357
375.956	25.728	1129.366	899.931
376.971	25.691	1128.996	899.371
377.986	25.640	1128.953	899.005
379.000	25.638	1127.966	898.132
380.015	25.826	1127.007	898.222
381.029	25.735	1126.617	897.382
382.044	25.808	1125.677	896.915
383.059	25.743	1125.148	896.093
384.073	25.697	1124.780	895.492
385.088	25.771	1123.654	894.882
386.102	25.778	1122.919	894.254
387.117	25.708	1121.932	893.040
388.132	25.699	1120.823	892.034
389.146	25.837	1120.533	892.407
390.161	25.769	1119.950	891.528
391.175	25.739	1119.250	890.745
392.190	25.816	1118.902	890.767
393.205	25.866	1117.965	890.191
394.219	25.834	1117.158	889.311
395.234	25.891	1116.835	889.258
396.248	25.845	1115.605	887.971
397.263	25.943	1114.712	887.667
398.278	25.988	1114.194	887.397
399.292	26.065	1113.574	887.201
400.307	25.919	1113.035	885.978
401.321	25.896	1112.613	885.450
402.336	25.861	1111.884	884.617
403.350	26.039	1110.749	884.510
404.365	26.034	1110.167	883.942
405.380	26.041	1109.188	883.122
406.394	26.040	1108.857	882.773
407.409	25.971	1108.123	881.774
408.423	26.113	1107.244	881.688
409.438	26.206	1106.359	881.362
410.453	26.201	1105.791	880.805
411.467	26.092	1105.287	879.794
412.482	26.144	1104.564	879.395
413.496	26.089	1103.675	878.341
414.511	26.139	1103.246	878.165
415.526	26.080	1102.845	877.481
416.540	26.163	1102.552	877.577
417.555	26.161	1101.818	876.904
418.569	26.161	1101.300	876.416
419.584	26.202	1100.874	876.199
420.599	26.136	1100.819	875.756
421.613	145.967	1402.303	1792.031
422.628	135.376	1446.227	1792.139
