DTS Sentinel unit serial number:	SN413079Multiplexer serial number:	ORYXHardware model number:	OX4-SRSoftware version number:	ORYX F/W v4.00 Oryx Data Collector v3.7.2.0data status	okinstallation	princeton_trtdifferential loss correction	single-endedforward channel	channel 2reverse channel	N/Adate	2019/09/15time	15:43:34forward acquisition time	60.00reverse acquisition time	0.00gamma	496.2192k internal	0.2290k external	0.2290temperature offset calibration	0.9952default loss term (dB/km)	0.3790temperature slope calibration	1.0000multiplexer offset coefficient	1.0000multiplexer slope coefficient	1.0000fibre end	0.00T internal ref (°C)	41.80T ext. ref 1 (°C)	5.18T ext. ref 2 (°C)	40.42length (m)	temperature (°C)	Stokes	anti-Stokes-747.200	-200.000	-0.038	0.238
-746.185	-200.000	-0.009	0.197
-745.171	18.692	0.073	-0.060
-744.156	-100.109	0.319	0.081
-743.142	-53.861	0.224	-0.105
-742.127	31.829	0.263	0.232
-741.112	-95.420	-0.225	0.062
-740.098	85.007	0.178	0.200
-739.083	363.668	-0.146	0.301
-738.069	398.431	0.161	0.344
-737.054	333.755	0.094	0.186
-736.039	-200.000	-0.020	0.125
-735.025	194.104	-0.112	0.174
-734.010	-20.101	-0.087	-0.055
-732.996	349.969	-0.141	-0.284
-731.981	709.783	-0.084	0.227
-730.966	-200.000	0.016	-0.254
-729.952	-152.277	-0.360	-0.027
-728.937	-38.861	-0.241	-0.130
-727.923	-155.167	-0.316	-0.021
-726.908	-7.170	-0.283	0.197
-725.894	-29.847	0.118	0.069
-724.879	534.962	0.018	0.045
-723.864	211.303	0.045	0.073
-722.850	601.675	0.146	-0.372
-721.835	800.000	0.058	0.187
-720.821	107.868	-0.173	-0.211
-719.806	249.078	0.133	-0.230
-718.791	549.937	-0.045	-0.110
-717.777	800.000	-0.052	-0.203
-716.762	-99.748	-0.166	-0.043
-715.748	800.000	0.014	-0.060
-714.733	-200.000	-0.056	-0.294
-713.718	-145.192	0.263	0.024
-712.704	-200.000	0.002	0.152
-711.689	159.236	0.056	-0.079
-710.675	215.357	-0.098	-0.158
-709.660	-52.200	-0.415	-0.197
-708.645	-86.523	-0.228	-0.071
-707.631	313.517	0.117	-0.225
-706.616	38.737	-0.020	-0.019
-705.602	-57.748	0.102	-0.046
-704.587	136.638	0.131	0.175
-703.572	-60.057	-0.225	-0.098
-702.558	-146.134	-0.163	-0.015
-701.543	445.745	0.136	0.305
-700.529	319.312	-0.183	-0.354
-699.514	-121.344	-0.377	-0.064
-698.499	548.578	0.106	0.259
-697.485	800.000	-0.103	0.349
-696.470	330.302	-0.042	-0.083
-695.456	187.608	0.115	0.175
-694.441	510.953	0.063	0.149
-693.426	117.011	0.060	-0.075
-692.412	-119.990	0.129	-0.023
-691.397	167.785	-0.125	-0.182
-690.383	-200.000	0.018	-0.105
-689.368	319.665	0.116	0.226
-688.354	426.235	-0.101	0.223
-687.339	363.697	0.031	0.063
-686.324	-115.948	-0.461	-0.088
-685.310	-59.800	0.159	-0.070
-684.295	-81.167	-0.342	-0.115
-683.281	166.579	0.189	0.274
-682.266	-134.881	-0.205	-0.025
-681.251	-24.045	-0.149	0.091
-680.237	453.119	0.146	-0.329
-679.222	-144.890	0.246	0.023
-678.208	40.314	-0.344	0.316
-677.193	49.462	-0.211	-0.203
-676.178	-200.000	0.016	-0.093
-675.164	231.726	0.003	-0.005
-674.149	19.233	-0.166	-0.136
-673.135	10.052	-0.104	-0.081
-672.120	3.215	0.149	-0.111
-671.105	212.679	-0.243	-0.392
-670.091	106.297	-0.243	-0.294
-669.076	-12.534	-0.047	0.031
-668.062	800.000	-0.017	-0.067
-667.047	-34.412	-0.436	0.244
-666.032	800.000	-0.115	-0.424
-665.018	-100.124	-0.168	-0.043
-664.003	800.000	-0.098	-0.281
-662.989	-139.224	-0.132	-0.014
-661.974	800.000	0.062	0.191
-660.959	-58.344	-0.204	-0.091
-659.945	-200.000	0.000	-0.129
-658.930	172.311	-0.083	-0.121
-657.916	-63.566	-0.330	0.138
-656.901	105.699	0.061	0.073
-655.886	587.879	-0.142	-0.356
-654.872	-68.004	-0.119	0.047
-653.857	121.693	-0.089	0.113
-652.843	800.000	0.038	0.155
-651.828	800.000	-0.046	0.161
-650.814	-119.766	-0.333	-0.059
-649.799	800.000	0.074	0.293
-648.784	-31.870	-0.274	-0.157
-647.770	-10.280	-0.239	-0.162
-646.755	-200.000	-0.037	-0.369
-645.741	399.210	-0.093	-0.198
-644.726	174.072	0.177	0.261
-643.711	23.247	-0.105	0.088
-642.697	70.500	-0.130	-0.137
-641.682	444.943	0.027	0.059
-640.668	-1.432	-0.039	-0.028
-639.653	-109.532	0.084	-0.018
-638.638	-200.000	0.021	-0.145
-637.624	9.313	-0.077	-0.059
-636.609	-3.571	0.202	0.143
-635.595	-137.566	-0.177	-0.020
-634.580	222.466	0.204	-0.336
-633.565	-188.221	-0.125	0.002
-632.551	487.831	-0.127	-0.296
-631.536	-36.358	-0.050	0.028
-630.522	-68.309	0.101	0.040
-629.507	-42.628	-0.270	0.140
-628.492	634.706	0.053	0.137
-627.478	-200.000	0.036	-0.172
-626.463	326.129	0.029	-0.056
-625.449	-38.259	0.278	0.150
-624.434	25.085	0.194	-0.164
-623.419	-200.000	-0.049	-0.320
-622.405	13.811	-0.329	-0.261
-621.390	512.922	-0.120	0.285
-620.376	800.000	-0.018	0.064
-619.361	-200.000	-0.039	-0.258
-618.346	308.168	0.112	0.212
-617.332	120.409	-0.109	-0.138
-616.317	-200.000	0.007	-0.106
-615.303	-200.000	-0.009	0.099
-614.288	-47.181	0.136	0.067
-613.273	-46.639	0.220	-0.110
-612.259	246.632	0.072	-0.124
-611.244	1.281	0.094	-0.069
-610.230	-46.007	-0.129	0.065
-609.215	28.901	-0.077	-0.067
-608.201	708.140	0.082	0.221
-607.186	35.331	-0.159	-0.142
-606.171	-80.088	-0.111	0.038
-605.157	800.000	-0.039	0.133
-604.142	34.988	0.179	0.159
-603.128	-78.718	0.194	0.067
-602.113	-141.565	-0.262	-0.027
-601.098	138.042	-0.170	0.227
-600.084	27.399	-0.151	-0.130
-599.069	-61.782	-0.298	-0.127
-598.055	-41.524	0.093	-0.049
-597.040	166.606	-0.100	-0.145
-596.025	-110.313	-0.254	-0.054
-595.011	-1.819	-0.207	0.149
-593.996	-75.515	-0.045	0.016
-592.982	113.268	0.146	-0.181
-591.967	309.252	-0.137	-0.260
-590.952	-142.644	0.173	-0.017
-589.938	294.048	0.060	-0.111
-588.923	-200.000	0.027	-0.267
-587.909	169.740	0.112	-0.163
-586.894	-147.791	0.378	-0.032
-585.879	766.562	-0.126	-0.348
-584.865	153.907	-0.173	0.241
-583.850	77.976	-0.184	0.199
-582.836	-200.000	-0.034	-0.198
-581.821	73.195	-0.048	0.051
-580.806	299.711	0.117	-0.219
-579.792	94.130	0.112	-0.130
-578.777	-99.988	0.342	-0.087
-577.763	39.884	0.129	-0.118
-576.748	-122.663	0.227	-0.037
-575.733	83.185	0.044	-0.049
-574.719	540.615	-0.058	-0.140
-573.704	-121.896	0.238	-0.040
-572.690	281.285	-0.062	0.112
-571.675	-105.698	-0.156	0.036
-570.661	-200.000	0.083	-0.420
-569.646	88.800	0.159	0.179
-568.631	0.700	-0.062	0.045
-567.617	-200.000	0.005	-0.275
-566.602	-75.304	0.040	0.014
-565.588	800.000	-0.035	0.132
-564.573	-200.000	-0.008	-0.394
-563.558	255.515	-0.194	-0.338
-562.544	-14.799	-0.098	0.064
-561.529	-137.204	0.303	-0.035
-560.515	-20.721	0.242	-0.151
-559.500	31.445	-0.164	-0.144
-558.485	-30.111	-0.370	-0.214
-557.471	800.000	0.044	-0.186
-556.456	239.722	-0.151	-0.256
-555.442	-200.000	0.012	-0.157
-554.427	-109.109	0.070	0.015
-553.412	-52.318	-0.285	0.134
-552.398	800.000	-0.019	0.067
-551.383	111.859	-0.214	0.263
-550.369	-3.845	-0.016	-0.011
-549.354	204.443	-0.085	-0.134
-548.339	-110.867	-0.116	-0.024
-547.325	93.002	-0.134	0.153
-546.310	800.000	-0.046	0.160
-545.296	-184.020	0.145	-0.002
-544.281	800.000	0.036	-0.104
-543.266	-48.682	-0.257	0.125
-542.252	799.840	0.035	-0.097
-541.237	-200.000	-0.013	-0.375
-540.223	-105.227	-0.159	0.037
-539.208	182.303	-0.038	-0.058
-538.193	-157.488	0.321	0.020
-537.179	-12.391	-0.108	0.072
-536.164	30.503	0.198	0.172
-535.150	-200.000	0.002	0.069
-534.135	9.359	0.340	0.262
-533.121	144.248	0.007	0.009
-532.106	-53.751	0.321	0.149
-531.091	-70.349	-0.207	0.080
-530.077	-89.088	0.179	-0.054
-529.062	30.443	-0.132	0.114
-528.048	55.345	0.169	-0.166
-527.033	29.435	-0.159	-0.138
-526.018	-182.428	0.157	0.003
-525.004	-42.742	0.230	0.119
-523.989	-200.000	-0.039	0.308
-522.975	-200.000	-0.021	0.128
-521.960	132.692	-0.261	0.341
-520.945	643.823	-0.131	0.340
-519.931	-92.370	-0.145	0.041
-518.916	55.340	0.210	0.206
-517.902	800.000	-0.064	0.260
-516.887	-200.000	0.039	0.312
-515.872	800.000	0.085	-0.368
-514.858	137.264	0.061	0.082
-513.843	54.855	-0.075	0.073
-512.829	-141.529	0.105	0.011
-511.814	8.010	-0.134	-0.102
-510.799	800.000	0.059	0.200
-509.785	-200.000	-0.011	0.221
-508.770	232.569	0.062	0.103
-507.756	362.121	0.062	-0.126
-506.741	-162.685	-0.255	-0.013
-505.726	153.976	-0.223	-0.310
-504.712	6.560	-0.310	-0.233
-503.697	93.333	-0.262	-0.301
-502.683	-55.186	-0.265	-0.121
-501.668	1.389	0.019	0.014
-500.653	800.000	-0.010	-0.043
-499.639	-74.955	-0.203	-0.074
-498.624	-26.073	-0.060	0.036
-497.610	69.237	-0.109	-0.114
-496.595	28.184	-0.230	-0.197
-495.581	292.993	-0.187	-0.346
-494.566	-147.767	0.042	0.004
-493.551	274.964	0.119	0.215
-492.537	-89.323	0.222	-0.066
-491.522	-14.883	-0.151	-0.098
-490.508	-155.304	-0.141	-0.009
-489.493	-10.213	0.315	0.212
-488.478	-42.574	0.050	0.026
-487.464	-67.476	0.127	-0.051
-486.449	-141.138	-0.547	0.057
-485.435	800.000	0.066	0.254
-484.420	-108.175	-0.078	0.017
-483.405	113.403	0.020	-0.025
-482.391	84.802	-0.193	0.214
-481.376	-200.000	0.003	-0.188
-480.362	-200.000	-0.108	0.000
-479.347	282.604	0.014	-0.025
-478.332	107.072	-0.185	0.223
-477.318	-63.719	0.308	-0.128
-476.303	-53.778	-0.295	0.136
-475.289	42.046	0.176	0.162
-474.274	133.775	0.083	0.109
-473.259	-200.000	-0.012	0.145
-472.245	-102.487	-0.058	-0.014
-471.230	53.620	-0.119	-0.116
-470.216	18.625	0.285	-0.231
-469.201	-9.877	-0.183	-0.123
-468.186	-200.000	-0.020	0.199
-467.172	-152.818	0.262	-0.019
-466.157	-0.616	0.333	-0.239
-465.143	-127.039	-0.177	0.026
-464.128	-119.301	0.257	-0.045
-463.113	-200.000	-0.022	-0.164
-462.099	-149.198	0.196	0.016
-461.084	-82.000	-0.208	-0.069
-460.070	-200.000	0.023	-0.518
-459.055	449.800	-0.158	0.353
-458.040	-200.000	0.008	0.218
-457.026	-200.000	0.020	0.326
-456.011	285.834	-0.072	0.132
-454.997	275.623	-0.052	0.093
-453.982	343.689	-0.037	0.073
-452.968	-45.477	0.169	-0.085
-451.953	706.444	0.229	-0.611
-450.938	33.142	0.129	-0.113
-449.924	215.662	0.052	0.084
-448.909	-137.206	-0.393	0.045
-447.895	-200.000	0.014	0.111
-446.880	-37.741	0.162	-0.087
-445.865	-81.309	0.123	0.041
-444.851	391.194	0.228	0.480
-443.836	-52.392	-0.215	-0.101
-442.822	265.232	0.117	-0.207
-441.807	-52.834	0.190	0.088
-440.792	230.120	-0.115	-0.190
-439.778	674.778	0.049	0.130
-438.763	-48.262	0.379	0.185
-437.749	28.234	-0.226	0.193
-436.734	42.905	0.028	-0.026
-435.719	788.521	-0.055	0.153
-434.705	-147.305	-0.509	0.044
-433.690	-200.000	-0.001	0.291
-432.676	11.897	0.279	-0.217
-431.661	169.747	-0.313	0.453
-430.646	-41.265	-0.187	0.098
-429.632	-118.229	0.411	0.074
-428.617	-149.703	-0.028	0.002
-427.603	-200.000	0.038	-0.224
-426.588	-29.829	-0.325	0.188
-425.573	-200.000	-0.030	-0.154
-424.559	371.902	-0.044	0.090
-423.544	-200.000	0.001	-0.102
-422.530	-200.000	0.020	0.433
-421.515	-180.148	0.093	0.002
-420.500	468.148	0.063	0.144
-419.486	-173.864	0.172	-0.005
-418.471	-200.000	0.057	0.267
-417.457	153.640	-0.140	0.194
-416.442	267.291	0.096	0.170
-415.428	170.271	0.059	-0.086
-414.413	-65.331	0.153	-0.062
-413.398	-200.000	0.044	0.382
-412.384	38.363	0.126	0.113
-411.369	-148.134	0.268	0.022
-410.355	230.349	0.154	0.255
-409.340	-13.974	0.170	0.111
-408.325	-36.798	-0.046	0.025
-407.311	-92.136	0.195	0.056
-406.296	-106.384	0.153	0.035
-405.282	-200.000	0.002	-0.115
-404.267	-200.000	-0.006	-0.222
-403.252	75.144	-0.185	0.197
-402.238	-68.902	-0.439	0.171
-401.223	217.211	-0.035	0.057
-400.209	-126.964	-0.199	0.030
-399.194	-81.640	0.382	0.127
-398.179	89.377	-0.152	0.171
-397.165	800.000	0.105	0.333
-396.150	-200.000	-0.015	-0.078
-395.136	-61.963	0.150	-0.063
-394.121	50.226	0.078	-0.074
-393.106	-108.271	-0.156	0.034
-392.092	-96.000	-0.267	-0.072
-391.077	71.355	0.218	-0.228
-390.063	-124.266	-0.186	-0.029
-389.048	37.548	0.132	0.118
-388.033	553.731	-0.107	0.259
-387.019	800.000	0.047	-0.171
-386.004	30.335	-0.111	-0.096
-384.990	777.772	-0.012	-0.032
-383.975	178.542	-0.167	-0.247
-382.960	-43.177	0.385	-0.197
-381.946	736.076	0.096	-0.261
-380.931	-98.163	0.080	0.021
-379.917	-200.000	-0.021	0.280
-378.902	96.452	-0.070	0.081
-377.888	-200.000	0.024	-0.224
-376.873	800.000	-0.038	0.153
-375.858	427.821	-0.097	-0.212
-374.844	-13.546	-0.292	-0.191
-373.829	11.788	0.125	-0.097
-372.815	129.780	0.139	0.179
-371.800	-36.468	-0.207	0.113
-370.785	-200.000	0.005	-0.093
-369.771	-140.984	0.259	-0.027
-368.756	86.054	-0.085	0.095
-367.742	-32.263	0.031	-0.017
-366.727	-200.000	0.016	0.232
-365.712	-200.000	-0.015	-0.090
-364.698	-111.512	-0.273	-0.056
-363.683	54.542	0.233	-0.226
-362.669	60.882	0.170	-0.170
-361.654	117.863	-0.040	-0.050
-360.639	133.711	-0.104	-0.136
-359.625	800.000	-0.041	0.170
-358.610	67.879	0.269	0.278
-357.596	13.836	-0.112	0.088
-356.581	-76.043	0.148	0.053
-355.566	-86.263	-0.111	-0.034
-354.552	-197.630	-0.447	-0.003
-353.537	-35.501	0.208	-0.114
-352.523	-37.131	0.339	-0.183
-351.508	151.826	0.085	-0.116
-350.493	-15.472	0.174	0.112
-349.479	-200.000	-0.003	0.175
-348.464	284.248	-0.146	-0.264
-347.450	65.012	-0.118	0.120
-346.435	-42.517	0.148	-0.076
-345.420	-200.000	-0.002	0.095
-344.406	-200.000	0.022	-0.129
-343.391	239.835	0.117	-0.197
-342.377	292.681	0.195	0.358
-341.362	-154.145	0.167	0.011
-340.348	-200.000	-0.050	0.227
-339.333	-169.424	0.121	-0.004
-338.318	-167.690	0.158	-0.006
-337.304	43.942	-0.162	0.149
-336.289	-50.263	-0.026	-0.012
-335.275	-15.475	0.291	0.187
-334.260	89.189	0.125	0.141
-333.245	98.900	-0.261	-0.304
-332.231	653.529	-0.080	-0.206
-331.216	671.875	-0.152	-0.397
-330.202	67.883	-0.101	0.104
-329.187	-89.279	0.281	-0.083
-328.172	91.730	0.136	-0.154
-327.158	800.000	0.063	0.260
-326.143	-145.642	-0.141	-0.013
-325.129	185.490	0.089	0.133
-324.114	-112.311	0.156	-0.032
-323.099	-113.743	0.304	0.060
-322.085	-104.763	0.181	-0.042
-321.070	-55.826	-0.070	0.032
-320.056	800.000	0.131	-0.449
-319.041	-200.000	0.000	-0.438
-318.026	4.009	0.318	-0.234
-317.012	-200.000	-0.013	-0.062
-315.997	291.108	-0.091	0.166
-314.983	-12.699	-0.103	-0.067
-313.968	73.495	0.220	-0.232
-312.953	-83.456	0.223	0.072
-311.939	-200.000	-0.018	-0.094
-310.924	-63.883	0.071	-0.029
-309.910	800.000	0.052	-0.146
-308.895	-150.822	0.138	-0.011
-307.880	80.621	0.136	-0.148
-306.866	298.354	0.021	0.039
-305.851	-33.267	0.054	0.030
-304.837	-117.828	-0.198	0.036
-303.822	-122.351	0.313	0.051
-302.807	800.000	-0.079	0.345
-301.793	305.867	0.091	-0.170
-300.778	72.237	0.095	-0.100
-299.764	115.218	-0.102	0.125
-298.749	546.011	-0.088	0.211
-297.735	76.859	-0.132	-0.141
-296.720	218.799	0.079	-0.128
-295.705	-156.351	0.126	0.008
-294.691	-0.940	-0.434	-0.309
-293.676	172.770	0.002	-0.002
-292.662	-79.651	-0.101	-0.034
-291.647	691.156	-0.104	-0.275
-290.632	-200.000	-0.024	0.119
-289.618	59.157	0.075	-0.075
-288.603	211.732	-0.289	-0.457
-287.589	-145.191	-0.243	-0.022
-286.574	-45.171	0.273	-0.136
-285.559	-143.313	0.282	-0.027
-284.545	161.678	-0.109	0.154
-283.530	-5.127	-0.140	-0.097
-282.516	367.182	-0.087	-0.176
-281.501	800.000	-0.097	0.345
-280.486	281.323	-0.034	-0.062
-279.472	540.411	-0.081	-0.193
-278.457	-34.613	-0.078	-0.043
-277.443	-172.415	0.337	-0.011
-276.428	559.236	0.059	-0.144
-275.413	82.559	-0.206	0.225
-274.399	22.149	0.216	-0.177
-273.384	313.754	0.178	0.336
-272.370	149.143	0.060	-0.082
-271.355	377.864	-0.139	0.285
-270.340	-200.000	-0.027	-0.186
-269.326	132.946	0.068	0.088
-268.311	721.096	-0.028	0.075
-267.297	-162.186	0.241	-0.012
-266.282	126.831	-0.050	-0.063
-265.267	694.355	0.046	0.121
-264.253	72.720	0.078	0.082
-263.238	-163.702	0.168	-0.008
-262.224	74.291	-0.165	-0.174
-261.209	22.619	-0.115	-0.095
-260.195	-200.000	0.008	-0.258
-259.180	-84.004	0.263	0.084
-258.165	-32.311	0.192	0.107
-257.151	-1.354	-0.131	-0.093
-256.136	411.401	0.046	0.097
-255.122	-123.562	-0.363	0.058
-254.107	359.312	0.031	0.063
-253.092	-200.000	0.001	-0.116
-252.078	800.000	-0.053	-0.173
-251.063	30.827	0.140	0.121
-250.049	-200.000	-0.035	0.173
-249.034	198.324	-0.146	0.224
-248.019	142.799	-0.251	0.335
-247.005	-200.000	-0.003	0.064
-245.990	-200.000	0.035	-0.273
-244.976	-166.680	-0.119	0.005
-243.961	46.463	0.128	-0.119
-242.946	-200.000	0.003	-0.254
-241.932	-131.738	-0.241	0.032
-240.917	-123.927	-0.257	0.041
-239.903	-200.000	0.067	0.373
-238.888	74.670	0.223	-0.236
-237.873	35.163	-0.231	0.204
-236.859	450.527	-0.029	0.064
-235.844	217.558	0.187	0.299
-234.830	22.839	-0.148	-0.122
-233.815	-63.684	0.131	-0.054
-232.800	-200.000	0.059	-0.268
-231.786	-82.410	-0.033	-0.011
-230.771	133.053	0.112	0.145
-229.757	-200.000	0.023	-0.287
-228.742	-200.000	-0.045	0.339
-227.727	-61.487	-0.067	-0.028
-226.713	-76.903	-0.446	0.157
-225.698	565.985	-0.097	-0.235
-224.684	182.884	0.029	-0.043
-223.669	-198.908	0.219	-0.001
-222.655	-50.522	-0.326	0.154
-221.640	800.000	0.026	0.097
-220.625	-47.137	-0.335	0.164
-219.611	800.000	-0.062	-0.248
-218.596	-127.118	-0.341	-0.050
-217.582	694.672	-0.079	0.208
-216.567	-50.296	0.284	-0.135
-215.552	104.178	0.263	0.311
-214.538	-80.340	0.167	-0.056
-213.523	-200.000	-0.032	0.241
-212.509	-122.778	-0.150	0.024
-211.494	-200.000	-0.016	0.255
-210.479	491.849	-0.073	-0.168
-209.465	-57.108	0.089	-0.039
-208.450	-200.000	-0.005	-0.099
-207.436	786.056	-0.109	0.299
-206.421	530.078	0.170	0.403
-205.406	185.125	-0.236	0.351
-204.392	409.135	-0.027	-0.058
-203.377	1.537	0.149	-0.107
-202.363	565.079	-0.086	0.209
-201.348	-74.470	0.215	0.078
-200.333	136.847	0.269	0.353
-199.319	-200.000	-0.002	0.248
-198.304	97.907	0.146	0.168
-197.290	-200.000	-0.005	0.158
-196.275	-131.835	0.376	-0.049
-195.260	-45.048	0.143	0.071
-194.246	-121.636	-0.556	0.092
-193.231	-66.651	0.290	0.115
-192.217	-200.000	-0.042	-0.243
-191.202	-23.168	-0.142	0.086
-190.187	-200.000	0.001	0.184
-189.173	17.624	-0.191	0.152
-188.158	140.634	0.114	-0.151
-187.144	-200.000	0.033	0.214
-186.129	643.894	-0.105	-0.269
-185.114	-159.894	0.156	0.009
-184.100	-99.608	-0.201	0.050
-183.085	-33.358	-0.161	-0.089
-182.071	243.677	-0.143	0.241
-181.056	38.513	-0.196	-0.175
-180.042	-200.000	0.022	0.099
-179.027	187.197	0.051	0.076
-178.012	167.164	-0.063	-0.090
-176.998	114.926	0.230	0.281
-175.983	800.000	-0.109	0.350
-174.969	-113.277	0.163	0.032
-173.954	-136.200	0.282	-0.033
-172.939	-67.748	0.207	0.081
-171.925	199.397	0.101	-0.156
-170.910	106.490	0.109	0.129
-169.896	98.178	0.216	0.250
-168.881	-119.202	0.209	0.036
-167.866	-101.167	-0.298	-0.073
-166.852	21.525	-0.118	0.097
-165.837	-200.000	-0.047	0.000
-164.823	41.266	-0.240	-0.217
-163.808	-200.000	0.018	-0.194
-162.793	-51.246	-0.334	0.157
-161.779	800.000	0.053	-0.175
-160.764	800.000	-0.075	-0.220
-159.750	122.261	-0.121	-0.151
-158.735	40.027	0.113	-0.102
-157.720	-200.000	-0.120	0.000
-156.706	311.951	0.172	-0.323
-155.691	-38.586	-0.269	-0.142
-154.677	-93.513	0.475	0.132
-153.662	166.860	0.114	-0.162
-152.647	-160.854	-0.267	-0.014
-151.633	-149.294	0.103	-0.008
-150.618	-25.909	0.163	0.096
-149.604	-79.314	0.074	-0.025
-148.589	-200.000	0.009	0.056
-147.574	-94.172	0.179	-0.049
-146.560	27.875	-0.156	-0.132
-145.545	-5.720	0.313	-0.215
-144.531	-81.426	-0.172	0.057
-143.516	-68.906	0.208	0.080
-142.502	-200.000	0.007	0.124
-141.487	-70.536	-0.198	-0.075
-140.472	-200.000	0.024	0.135
-139.458	-200.000	-0.041	0.297
-138.443	-51.309	0.278	-0.130
-137.429	-101.967	0.009	0.002
-136.414	127.388	0.301	-0.383
-135.399	800.000	-0.073	0.216
-134.385	800.000	-0.021	0.086
-133.370	-200.000	-0.014	-0.379
-132.356	122.501	0.079	-0.099
-131.341	481.414	0.039	-0.088
-130.326	-136.414	-0.384	-0.045
-129.312	158.998	0.040	0.056
-128.297	-200.000	-0.027	-0.314
-127.283	272.104	0.143	0.252
-126.268	273.194	0.055	0.098
-125.253	31.243	0.094	-0.081
-124.239	335.740	-0.163	-0.317
-123.224	558.289	-0.052	0.125
-122.210	-82.422	0.511	0.166
-121.195	7.621	0.081	0.060
-120.180	109.024	-0.045	-0.054
-119.166	-200.000	0.022	0.217
-118.151	-200.000	-0.009	-0.136
-117.137	800.000	-0.023	0.096
-116.122	-200.000	-0.036	0.245
-115.107	-200.000	0.019	0.387
-114.093	146.665	-0.042	-0.057
-113.078	-45.801	0.519	-0.256
-112.064	-200.000	-0.034	0.195
-111.049	73.385	-0.289	-0.302
-110.034	378.476	0.153	0.313
-109.020	110.680	-0.038	-0.046
-108.005	-6.810	0.215	-0.146
-106.991	557.286	0.061	0.148
-105.976	800.000	-0.004	-0.015
-104.962	183.035	0.093	-0.137
-103.947	-200.000	0.012	-0.090
-102.932	191.894	-0.040	0.060
-101.918	-90.571	0.404	-0.117
-100.903	-40.284	0.053	0.028
-99.889	-83.896	-0.141	-0.045
-98.874	-97.545	0.298	-0.077
-97.859	800.000	0.090	-0.289
-96.845	137.055	0.171	0.224
-95.830	345.943	0.073	0.143
-94.816	22.915	-0.279	-0.228
-93.801	141.754	0.159	-0.210
-92.786	-140.712	-0.137	0.014
-91.772	56.103	-0.204	0.197
-90.757	-15.038	0.328	-0.210
-89.743	181.827	0.168	0.247
-88.728	281.926	-0.061	0.109
-87.713	-120.764	0.136	0.023
-86.699	463.474	0.072	0.160
-85.684	800.000	0.060	0.181
-84.670	123.284	-0.113	-0.141
-83.655	27.747	-0.279	-0.235
-82.640	800.000	0.073	0.305
-81.626	31.405	-0.196	0.168
-80.611	-200.000	-0.009	0.141
-79.597	-45.721	-0.059	0.029
-78.582	46.891	-0.169	0.156
-77.567	-191.638	0.207	0.002
-76.553	-98.408	-0.307	0.078
-75.538	-200.000	-0.054	0.471
-74.524	372.869	-0.086	0.174
-73.509	-91.616	-0.310	0.088
-72.494	616.215	0.097	0.243
-71.480	800.000	-0.077	0.317
-70.465	-68.161	0.160	0.062
-69.451	235.749	-0.175	0.288
-68.436	59.731	0.250	0.246
-67.422	-79.739	0.117	-0.039
-66.407	-71.025	0.304	-0.114
-65.392	800.000	-0.058	-0.194
-64.378	-44.893	-0.205	-0.102
-63.363	-129.907	0.170	0.023
-62.349	-22.849	0.123	-0.074
-61.334	39.730	-0.645	-0.577
-60.319	-200.000	-0.003	-0.358
-59.305	800.000	-0.228	-0.712
-58.290	244.250	0.351	0.588
-57.276	-200.000	0.262	1.427
-56.261	-200.000	75.513	540.265
-55.246	535.419	1330.419	3146.599
-54.232	142.297	2565.615	3394.872
-53.217	112.300	2360.205	2845.737
-52.203	51.314	1971.354	1865.970
-51.188	45.279	1759.545	1617.835
-50.173	42.289	1714.055	1552.842
-49.159	56.469	1747.834	1694.243
-48.144	62.566	1766.606	1759.830
-47.130	45.230	1729.717	1589.780
-46.115	41.869	1716.098	1551.191
-45.100	41.767	1711.018	1545.749
-44.086	41.716	1708.419	1542.945
-43.071	41.776	1706.054	1541.205
-42.057	41.633	1703.388	1537.635
-41.042	41.677	1701.427	1536.142
-40.027	41.672	1699.578	1534.378
-39.013	41.668	1697.587	1532.487
-37.998	41.624	1696.502	1531.108
-36.984	41.696	1694.271	1529.586
-35.969	41.869	1692.589	1529.329
-34.954	41.989	1690.636	1528.422
-33.940	41.873	1688.833	1525.847
-32.925	41.895	1687.100	1524.389
-31.911	41.840	1685.645	1522.594
-30.896	41.811	1683.705	1520.563
-29.881	41.818	1682.005	1519.015
-28.867	41.738	1680.651	1517.127
-27.852	41.774	1679.225	1516.056
-26.838	41.782	1677.445	1514.446
-25.823	41.856	1675.750	1513.412
-24.809	41.943	1673.681	1512.145
-23.794	41.821	1673.085	1510.626
-22.779	41.779	1671.345	1508.677
-21.765	41.766	1669.426	1506.786
-20.750	41.747	1667.730	1505.050
-19.736	41.833	1666.270	1504.321
-18.721	41.828	1665.071	1503.145
-17.706	41.823	1663.385	1501.524
-16.692	41.816	1661.366	1499.590
-15.677	41.732	1660.375	1498.003
-14.663	41.848	1658.670	1497.276
-13.648	41.771	1657.735	1495.793
-12.633	41.842	1655.620	1494.359
-11.619	41.786	1654.247	1492.640
-10.604	41.702	1652.786	1490.636
-9.590	41.717	1651.527	1489.556
-8.575	41.759	1650.107	1488.526
-7.560	41.893	1648.365	1487.899
-6.546	41.863	1647.501	1486.832
-5.531	41.844	1646.456	1485.689
-4.517	41.681	1645.266	1483.345
-3.502	41.814	1644.028	1483.161
-2.487	41.821	1642.957	1482.187
-1.473	42.101	1632.436	1474.699
-0.458	40.394	1614.763	1446.231
0.556	34.607	1612.431	1410.687
1.571	31.402	1634.975	1406.218
2.586	30.021	1648.275	1407.048
3.600	25.878	1593.020	1329.271
4.615	15.650	1476.452	1161.580
5.629	7.120	1405.060	1049.004
6.644	5.373	1394.813	1029.759
7.659	5.229	1393.016	1027.395
8.673	5.126	1391.987	1025.866
9.688	5.013	1390.278	1023.779
10.702	4.812	1387.829	1020.567
11.717	8.490	1395.095	1050.014
12.731	16.244	1409.562	1112.086
13.746	19.397	1412.937	1135.445
14.761	17.732	1409.135	1121.346
15.775	16.383	1405.798	1109.737
16.790	15.353	1402.998	1100.672
17.804	14.500	1400.703	1093.187
18.819	14.061	1399.502	1089.275
19.834	13.818	1397.693	1086.185
20.848	13.506	1396.476	1083.102
21.863	13.316	1395.021	1080.633
22.877	13.127	1394.007	1078.521
23.892	13.144	1392.863	1077.645
24.907	13.151	1392.129	1077.032
25.921	13.179	1391.190	1076.393
26.936	13.171	1390.282	1075.540
27.950	13.220	1389.797	1075.388
28.965	13.327	1388.159	1074.726
29.980	13.353	1387.040	1073.931
30.994	13.391	1386.177	1073.414
32.009	13.422	1384.844	1072.489
33.023	13.453	1383.285	1071.386
34.038	13.359	1382.287	1069.907
35.053	13.266	1380.929	1068.165
36.067	13.238	1379.637	1066.892
37.082	13.324	1378.390	1066.382
38.096	13.342	1377.874	1066.005
39.111	13.387	1376.884	1065.439
40.126	13.299	1375.771	1063.914
41.140	13.161	1375.280	1062.555
42.155	13.089	1374.400	1061.319
43.169	13.121	1374.438	1061.455
44.184	13.145	1374.067	1061.229
45.199	13.005	1373.883	1060.100
46.213	13.124	1373.047	1060.123
47.228	13.206	1372.412	1060.063
48.242	13.283	1371.066	1059.422
49.257	13.304	1369.507	1058.262
50.271	13.253	1367.972	1056.653
51.286	13.251	1367.040	1055.826
52.301	13.327	1365.337	1054.906
53.315	13.212	1364.581	1053.493
54.330	13.068	1363.235	1051.442
55.344	13.142	1361.719	1050.655
56.359	13.224	1360.839	1050.402
57.374	13.122	1360.286	1049.234
58.388	13.043	1359.224	1047.819
59.403	13.041	1359.125	1047.640
60.417	12.975	1357.990	1046.250
61.432	12.998	1357.158	1045.665
62.447	12.867	1356.448	1044.197
63.461	12.800	1355.207	1042.724
64.476	12.929	1354.129	1042.616
65.490	12.865	1353.076	1041.313
66.505	13.001	1350.806	1040.326
67.520	13.058	1349.772	1039.798
68.534	12.975	1349.092	1038.660
69.549	13.046	1347.892	1038.089
70.563	13.008	1346.773	1036.898
71.578	12.867	1345.755	1035.137
72.593	12.801	1344.809	1033.906
73.607	12.837	1344.724	1033.975
74.622	12.871	1343.277	1032.983
75.636	12.814	1342.577	1031.998
76.651	12.909	1341.963	1032.025
77.666	12.857	1341.460	1031.224
78.680	12.936	1340.785	1031.105
79.695	12.922	1340.038	1030.353
80.709	12.919	1339.763	1030.035
81.724	13.021	1338.259	1029.424
82.739	13.058	1337.635	1029.081
83.753	13.134	1336.656	1028.713
84.768	13.295	1335.215	1028.515
85.782	13.301	1334.168	1027.650
86.797	13.267	1332.894	1026.370
87.812	13.176	1332.274	1025.234
88.826	13.215	1330.612	1024.107
89.841	13.152	1329.748	1022.962
90.855	13.297	1328.815	1023.049
91.870	13.332	1327.678	1022.303
92.884	13.285	1327.146	1021.513
93.899	13.349	1326.538	1021.345
94.914	13.412	1325.222	1020.634
95.928	13.396	1324.551	1019.930
96.943	13.275	1323.678	1018.422
97.957	13.354	1322.583	1017.971
98.972	13.348	1321.326	1016.881
99.987	13.290	1320.704	1015.955
101.001	13.292	1319.158	1014.688
102.016	13.233	1318.381	1013.635
103.030	13.314	1317.821	1013.614
104.045	13.272	1317.041	1012.667
105.060	13.154	1315.888	1010.970
106.074	13.177	1314.681	1010.094
107.089	13.062	1312.825	1007.873
108.103	12.960	1311.770	1006.352
109.118	13.005	1310.274	1005.390
110.133	13.058	1309.310	1004.887
111.147	13.010	1307.585	1003.183
112.162	13.148	1305.785	1002.550
113.176	13.168	1305.093	1002.051
114.191	13.141	1304.077	1001.020
115.206	13.117	1303.327	1000.205
116.220	13.112	1301.845	998.951
117.235	13.091	1300.900	998.009
118.249	13.100	1299.729	997.079
119.264	13.015	1298.429	995.481
120.279	13.038	1297.520	994.836
121.293	13.084	1296.198	994.009
122.308	13.092	1294.802	992.900
123.322	13.046	1293.783	991.754
124.337	13.064	1292.735	990.973
125.352	12.981	1291.977	989.803
126.366	12.958	1290.736	988.631
127.381	13.019	1290.096	988.417
128.395	13.050	1288.859	987.567
129.410	13.009	1288.022	986.594
130.424	13.043	1287.185	986.065
131.439	13.102	1286.192	985.570
132.454	13.202	1284.909	985.096
133.468	13.115	1284.321	984.040
134.483	13.214	1283.467	983.891
135.497	13.270	1282.013	983.019
136.512	13.163	1281.121	981.615
137.527	13.054	1280.223	980.191
138.541	13.251	1278.271	979.781
139.556	13.241	1276.833	978.531
140.570	13.374	1275.598	978.283
141.585	13.388	1274.459	977.407
142.600	13.378	1273.373	976.427
143.614	13.458	1272.473	976.123
144.629	13.382	1271.475	974.823
145.643	13.380	1270.046	973.630
146.658	13.350	1269.067	972.614
147.673	13.341	1267.289	971.113
148.687	13.231	1266.463	969.753
149.702	13.179	1264.953	968.205
150.716	13.249	1263.508	967.421
151.731	13.246	1262.153	966.283
152.746	13.247	1261.212	965.479
153.760	13.325	1259.888	964.840
154.775	13.269	1259.264	963.950
155.789	13.428	1257.787	963.656
156.804	13.315	1257.233	962.491
157.819	13.512	1255.469	962.200
158.833	13.506	1255.196	961.873
159.848	13.508	1253.924	960.821
160.862	13.494	1253.561	960.379
161.877	13.373	1251.962	958.368
162.892	13.260	1250.643	956.618
163.906	13.252	1249.965	955.967
164.921	13.263	1249.003	955.212
165.935	13.253	1248.104	954.383
166.950	13.440	1247.048	954.568
167.964	13.355	1246.333	953.448
168.979	13.398	1245.356	952.864
169.994	13.341	1244.688	951.939
171.008	13.441	1244.169	952.034
172.023	13.489	1243.179	951.470
173.037	13.578	1242.137	951.096
174.052	13.500	1241.493	950.073
175.067	13.474	1240.340	948.957
176.081	13.379	1239.475	947.670
177.096	13.457	1238.175	947.037
178.110	13.471	1237.291	946.355
179.125	13.522	1235.700	945.345
180.140	13.569	1234.433	944.561
181.154	13.466	1233.395	943.097
182.169	13.572	1232.108	942.631
183.183	13.609	1231.238	942.096
184.198	13.606	1230.320	941.290
185.213	13.546	1228.960	939.829
186.227	13.689	1228.000	939.820
187.242	13.606	1227.251	938.696
188.256	13.631	1226.173	937.927
189.271	13.665	1225.114	937.226
190.286	13.677	1223.751	936.167
191.300	13.481	1222.898	934.328
192.315	13.482	1222.115	933.650
193.329	13.287	1222.399	932.688
194.344	13.466	1220.976	932.529
195.359	13.517	1220.311	932.222
196.373	13.617	1220.228	932.640
197.388	13.689	1219.295	932.249
198.402	13.766	1218.778	932.202
199.417	13.893	1218.075	932.296
200.432	13.875	1217.647	931.788
201.446	13.924	1216.599	931.177
202.461	13.963	1215.734	930.648
203.475	13.928	1214.865	929.710
204.490	13.884	1213.303	928.181
205.504	13.876	1211.744	926.862
206.519	13.761	1210.999	925.570
207.534	13.792	1210.038	924.926
208.548	13.916	1208.654	924.476
209.563	13.773	1207.963	923.074
210.577	13.794	1207.264	922.572
211.592	13.913	1206.416	922.505
212.607	13.861	1205.631	921.537
213.621	13.989	1204.855	921.567
214.636	14.029	1203.486	920.664
215.650	14.003	1202.629	919.781
216.665	14.071	1201.707	919.370
217.680	14.137	1201.027	919.131
218.694	14.151	1200.019	918.357
219.709	14.068	1199.518	917.433
220.723	14.114	1199.159	917.334
221.738	14.152	1197.868	916.472
222.753	14.094	1197.165	915.536
223.767	14.020	1196.820	914.782
224.782	14.155	1195.706	914.594
225.796	14.265	1194.946	914.534
226.811	14.271	1194.341	914.028
227.826	14.245	1193.511	913.168
228.840	14.334	1192.766	913.003
229.855	14.250	1191.833	911.746
230.869	14.134	1191.563	910.824
231.884	14.171	1190.477	910.118
232.899	14.088	1189.680	908.974
233.913	14.066	1188.949	908.216
234.928	14.092	1188.216	907.717
235.942	14.060	1187.608	906.998
236.957	14.095	1186.730	906.439
237.972	14.110	1186.116	905.969
238.986	14.176	1184.819	905.259
240.001	14.088	1184.788	904.674
241.015	14.210	1183.617	904.363
242.030	14.283	1183.030	904.230
243.045	14.268	1182.245	903.473
244.059	14.317	1181.050	902.743
245.074	14.289	1180.581	902.155
246.088	14.374	1179.345	901.588
247.103	14.453	1178.871	901.572
248.117	14.436	1178.140	900.842
249.132	14.564	1177.251	900.775
250.147	14.582	1176.838	900.478
251.161	14.626	1176.337	900.249
252.176	14.639	1175.437	899.555
253.190	14.738	1174.875	899.574
254.205	14.768	1174.199	899.138
255.220	14.784	1173.442	898.567
256.234	14.757	1172.886	897.914
257.249	14.819	1172.373	897.779
258.263	14.882	1171.199	897.140
259.278	14.806	1171.055	896.539
260.293	14.730	1170.704	895.782
261.307	14.840	1169.464	895.344
262.322	14.921	1169.311	895.583
263.336	14.933	1168.416	894.883
264.351	14.977	1167.795	894.563
265.366	14.992	1167.166	894.082
266.380	14.920	1166.389	893.026
267.395	14.909	1165.643	892.312
268.409	14.882	1164.795	891.443
269.424	14.760	1164.236	890.288
270.439	14.845	1164.171	890.607
271.453	14.831	1162.706	889.338
272.468	14.874	1161.521	888.580
273.482	14.828	1161.129	887.956
274.497	14.832	1160.594	887.490
275.512	14.915	1159.665	887.143
276.526	14.846	1158.922	886.129
277.541	14.929	1157.966	885.757
278.555	14.983	1157.545	885.643
279.570	15.049	1156.819	885.359
280.585	14.981	1155.830	884.165
281.599	15.094	1155.280	884.260
282.614	15.051	1154.010	882.987
283.628	14.984	1152.808	881.634
284.643	15.074	1151.813	881.269
285.657	15.056	1150.942	880.432
286.672	15.126	1150.243	880.185
287.687	15.038	1149.293	878.918
288.701	15.104	1148.436	878.531
289.716	15.082	1147.718	877.792
290.730	15.226	1146.803	877.766
291.745	15.180	1146.476	877.197
292.760	15.057	1145.485	875.718
293.774	15.174	1145.100	875.956
294.789	15.234	1144.713	875.900
295.803	15.251	1144.010	875.371
296.818	15.203	1143.333	874.527
297.833	15.140	1142.518	873.496
298.847	15.270	1141.401	873.242
299.862	15.156	1141.043	872.298
300.876	15.253	1140.183	872.067
301.891	15.397	1139.514	872.228
302.906	15.333	1138.546	871.075
303.920	15.519	1137.636	871.268
304.935	15.529	1137.019	870.773
305.949	15.529	1136.964	870.653
306.964	15.492	1136.080	869.706
307.979	15.375	1135.362	868.475
308.993	15.438	1134.551	868.101
310.008	15.429	1133.858	867.447
311.022	15.542	1132.984	867.287
312.037	15.498	1132.117	866.319
313.052	15.467	1131.065	865.279
314.066	15.453	1130.257	864.509
315.081	15.401	1129.339	863.464
316.095	15.397	1128.617	862.814
317.110	15.394	1127.814	862.110
318.125	15.405	1127.032	861.492
319.139	15.544	1126.274	861.550
320.154	15.499	1125.869	860.931
321.168	15.567	1124.649	860.274
322.183	15.362	1124.666	859.159
323.197	15.536	1123.862	859.361
324.212	15.499	1123.257	858.632
325.227	15.502	1122.659	858.116
326.241	15.679	1121.747	858.247
327.256	15.593	1120.729	856.949
328.270	15.580	1119.783	856.085
329.285	15.582	1118.855	855.312
330.300	15.520	1118.468	854.626
331.314	15.593	1117.120	853.887
332.329	15.534	1116.030	852.682
333.343	15.559	1115.459	852.296
334.358	15.720	1114.552	852.345
335.373	15.617	1114.337	851.580
336.387	15.657	1113.696	851.217
337.402	15.753	1112.649	850.829
338.416	15.887	1111.575	850.612
339.431	15.756	1111.278	849.644
340.446	15.931	1110.488	849.847
341.460	15.959	1109.739	849.345
342.475	15.898	1109.074	848.451
343.489	15.991	1108.138	848.130
344.504	15.949	1107.197	847.122
345.519	15.913	1106.364	846.227
346.533	15.966	1105.671	845.889
347.548	16.053	1105.090	845.806
348.562	16.220	1103.739	845.536
349.577	16.124	1102.884	844.324
350.592	15.979	1102.140	842.957
351.606	16.043	1101.378	842.620
352.621	15.871	1101.142	841.505
353.635	15.920	1100.375	841.088
354.650	15.962	1099.445	840.509
355.665	15.920	1098.699	839.659
356.679	16.049	1097.896	839.611
357.694	16.052	1097.634	839.352
358.708	16.040	1096.948	838.693
359.723	16.149	1096.284	838.654
360.738	16.094	1095.806	837.940
361.752	16.025	1095.302	837.138
362.767	16.138	1094.701	837.164
363.781	16.189	1093.878	836.714
364.796	16.194	1093.294	836.220
365.810	16.260	1092.738	836.047
366.825	16.287	1092.233	835.718
367.840	16.323	1091.490	835.254
368.854	16.458	1091.140	835.580
369.869	16.351	1090.572	834.542
370.883	16.267	1089.693	833.383
371.898	16.214	1088.512	832.146
372.913	16.330	1087.850	832.137
373.927	16.568	1087.419	832.906
374.942	16.386	1087.359	831.891
375.956	16.479	1086.359	831.509
376.971	16.455	1086.104	831.122
377.986	16.404	1085.469	830.313
379.000	16.457	1085.299	830.369
380.015	16.487	1084.566	829.880
381.029	16.631	1083.745	829.888
382.044	16.555	1082.653	828.605
383.059	16.521	1082.195	828.016
384.073	16.627	1081.554	827.967
385.088	16.637	1080.455	827.105
386.102	16.699	1079.303	826.448
387.117	16.674	1078.492	825.634
388.132	16.499	1077.608	824.034
389.146	16.459	1076.757	823.115
390.161	16.488	1076.188	822.747
391.175	16.610	1075.097	822.433
392.190	16.673	1074.686	822.350
393.205	16.681	1073.999	821.791
394.219	16.650	1073.192	820.952
395.234	16.642	1072.404	820.236
396.248	16.623	1071.317	819.241
397.263	16.632	1069.920	818.143
398.278	16.751	1068.812	817.797
399.292	16.585	1068.592	816.758
400.307	16.612	1067.800	816.209
401.321	16.701	1067.008	815.961
402.336	16.602	1066.345	814.905
403.350	16.597	1065.823	814.412
404.365	16.644	1065.455	814.285
405.380	16.626	1064.720	813.564
406.394	16.731	1063.703	813.218
407.409	16.739	1063.233	812.826
408.423	16.835	1062.567	812.703
409.438	16.897	1061.774	812.323
410.453	17.003	1060.912	812.099
411.467	16.967	1060.661	811.661
412.482	16.917	1060.063	810.894
413.496	17.035	1059.014	810.584
414.511	17.104	1058.341	810.327
415.526	17.095	1058.030	809.974
416.540	17.112	1057.866	809.858
417.555	17.134	1057.030	809.249
418.569	17.076	1056.532	808.519
419.584	17.168	1055.862	808.372
420.599	17.213	1055.212	808.021
421.613	81.725	1289.231	1346.779
422.628	75.267	1323.338	1346.920
