DTS Sentinel unit serial number:	SN413079Multiplexer serial number:	ORYXHardware model number:	OX4-SRSoftware version number:	ORYX F/W v4.00 Oryx Data Collector v3.7.2.0data status	okinstallation	princeton_trtdifferential loss correction	single-endedforward channel	channel 2reverse channel	N/Adate	2019/09/16time	01:43:34forward acquisition time	60.00reverse acquisition time	0.00gamma	496.2192k internal	0.2337k external	0.2337temperature offset calibration	0.9966default loss term (dB/km)	0.3790temperature slope calibration	1.0000multiplexer offset coefficient	1.0000multiplexer slope coefficient	1.0000fibre end	0.00T internal ref (°C)	27.37T ext. ref 1 (°C)	10.00T ext. ref 2 (°C)	22.25length (m)	temperature (°C)	Stokes	anti-Stokes-747.200	168.741	0.040	0.058
-746.185	-4.678	0.161	-0.112
-745.171	-47.078	0.135	-0.066
-744.156	800.000	-0.103	0.306
-743.142	-200.000	-0.011	0.188
-742.127	591.398	0.186	0.461
-741.112	-48.629	0.192	-0.093
-740.098	179.709	-0.315	0.463
-739.083	-36.627	0.132	-0.071
-738.069	-103.590	-0.245	-0.058
-737.054	-17.784	0.009	-0.006
-736.039	-17.937	-0.327	0.206
-735.025	-141.967	0.106	-0.011
-734.010	800.000	-0.117	-0.326
-732.996	800.000	-0.038	-0.155
-731.981	147.958	-0.169	-0.229
-730.966	-200.000	0.024	0.130
-729.952	-24.316	0.167	0.100
-728.937	-200.000	-0.053	-0.396
-727.923	-5.583	0.156	-0.107
-726.908	-200.000	0.019	-0.199
-725.894	-12.743	-0.199	0.130
-724.879	800.000	0.051	0.160
-723.864	800.000	-0.123	-0.470
-722.850	-200.000	0.018	-0.412
-721.835	-99.578	-0.099	-0.025
-720.821	-200.000	-0.014	-0.185
-719.806	-121.937	-0.187	-0.031
-718.791	-113.842	-0.194	0.038
-717.777	302.153	-0.127	-0.235
-716.762	417.018	0.140	0.299
-715.748	-157.465	0.056	-0.003
-714.733	-104.963	0.238	-0.055
-713.718	236.907	-0.103	-0.171
-712.704	54.352	-0.114	0.110
-711.689	-192.468	-0.094	-0.001
-710.675	581.727	-0.097	0.238
-709.660	192.920	-0.149	0.226
-708.645	800.000	0.163	0.452
-707.631	8.633	0.259	-0.195
-706.616	-13.508	0.259	-0.169
-705.602	297.216	0.183	-0.337
-704.587	314.552	-0.124	0.234
-703.572	-200.000	0.031	0.179
-702.558	-131.795	-0.388	0.051
-701.543	96.644	-0.113	0.130
-700.529	132.242	-0.176	0.228
-699.514	-200.000	0.020	0.131
-698.499	539.004	0.086	-0.205
-697.485	153.552	-0.125	-0.172
-696.470	800.000	0.077	-0.228
-695.456	800.000	-0.055	0.205
-694.441	-123.138	0.150	-0.024
-693.426	800.000	-0.042	0.168
-692.412	707.943	0.121	0.320
-691.397	-3.054	-0.160	0.112
-690.383	-200.000	0.086	0.496
-689.368	308.113	-0.140	-0.263
-688.354	-90.797	0.370	-0.107
-687.339	-85.530	-0.273	0.085
-686.324	-130.421	-0.359	0.049
-685.310	-200.000	0.055	0.341
-684.295	178.563	0.117	0.171
-683.281	800.000	0.115	0.407
-682.266	-68.959	0.191	-0.074
-681.251	-90.439	-0.045	0.013
-680.237	54.716	0.077	-0.074
-679.222	-130.362	0.281	-0.038
-678.208	-112.170	0.293	-0.059
-677.193	17.718	0.101	0.081
-676.178	-6.217	0.180	-0.123
-675.164	-200.000	-0.002	0.008
-674.149	-72.686	0.309	-0.114
-673.135	800.000	0.012	0.039
-672.120	-68.677	0.211	-0.082
-671.105	-112.172	-0.389	-0.078
-670.091	-22.763	0.381	0.230
-669.076	31.956	-0.246	0.212
-668.062	800.000	-0.048	0.207
-667.047	107.184	0.271	0.322
-666.032	-119.388	-0.600	-0.104
-665.018	-102.328	0.140	0.034
-664.003	-66.357	0.075	0.030
-662.989	424.558	0.039	-0.085
-661.974	-200.000	-0.025	0.276
-660.959	188.304	0.198	0.296
-659.945	-200.000	0.009	-0.234
-658.930	800.000	-0.024	0.098
-657.916	800.000	0.019	-0.079
-656.901	-200.000	-0.010	-0.159
-655.886	12.512	-0.223	-0.172
-654.872	241.655	0.185	-0.309
-653.857	-200.000	0.012	-0.169
-652.843	-8.495	0.050	-0.033
-651.828	67.272	0.287	-0.293
-650.814	-200.000	-0.058	-0.436
-649.799	-200.000	-0.006	0.221
-648.784	-92.876	-0.447	-0.125
-647.770	-200.000	0.053	-0.233
-646.755	-200.000	-0.058	-0.278
-645.741	402.715	-0.053	0.111
-644.726	-27.024	0.224	-0.131
-643.711	292.648	-0.146	-0.265
-642.697	-133.503	0.208	-0.026
-641.682	800.000	0.055	0.207
-640.668	-109.087	0.445	0.095
-639.653	289.111	-0.122	0.222
-638.638	14.116	0.095	0.074
-637.624	105.488	0.150	-0.177
-636.609	-2.859	0.111	0.078
-635.595	-163.809	0.121	-0.006
-634.580	135.106	-0.168	-0.219
-633.565	800.000	0.044	-0.191
-632.551	104.572	0.139	-0.164
-631.536	-90.273	-0.054	0.016
-630.522	270.366	0.083	0.145
-629.507	-72.844	-0.266	0.098
-628.492	3.983	0.083	-0.061
-627.478	3.957	-0.333	-0.243
-626.463	-78.928	-0.232	-0.079
-625.449	-5.148	-0.101	-0.070
-624.434	103.927	-0.262	-0.308
-623.419	800.000	-0.050	-0.147
-622.405	235.856	-0.216	0.356
-621.390	163.960	-0.273	0.384
-620.376	-78.768	-0.213	-0.073
-619.361	-200.000	-0.073	-0.321
-618.346	-67.850	0.264	-0.103
-617.332	131.689	-0.135	-0.174
-616.317	717.981	0.066	-0.175
-615.303	199.825	0.130	-0.199
-614.288	-47.652	-0.088	0.043
-613.273	101.378	-0.122	-0.142
-612.259	-106.229	0.051	-0.011
-611.244	-129.420	-0.056	-0.008
-610.230	158.351	0.155	0.214
-609.215	104.057	-0.098	0.115
-608.201	-200.000	0.072	-0.460
-607.186	-127.215	-0.283	-0.041
-606.171	58.238	0.236	-0.231
-605.157	37.343	0.134	-0.118
-604.142	246.859	-0.133	-0.224
-603.128	800.000	-0.004	0.012
-602.113	-107.387	0.118	0.026
-601.098	198.161	-0.141	-0.215
-600.084	-200.000	0.001	-0.303
-599.069	48.149	0.389	0.363
-598.055	27.282	0.175	0.147
-597.040	96.745	-0.395	0.452
-596.025	800.000	0.085	-0.295
-595.011	800.000	0.066	-0.256
-593.996	-200.000	0.042	-0.449
-592.982	-200.000	0.028	0.329
-591.967	171.362	0.216	-0.309
-590.952	298.877	-0.125	-0.230
-589.938	800.000	-0.128	-0.423
-588.923	-59.277	-0.071	-0.031
-587.909	274.170	0.179	-0.316
-586.894	122.629	-0.149	0.186
-585.879	-157.442	-0.087	0.005
-584.865	22.608	0.159	0.130
-583.850	800.000	-0.140	0.410
-582.836	58.724	0.195	0.191
-581.821	-54.595	-0.052	0.024
-580.806	58.896	0.117	0.115
-579.792	97.965	0.161	0.185
-578.777	-196.532	0.215	0.001
-577.763	39.082	-0.154	-0.138
-576.748	635.651	0.056	0.143
-575.733	-25.173	0.092	0.054
-574.719	-163.648	-0.092	-0.004
-573.704	-111.940	0.319	-0.064
-572.690	284.340	0.105	0.189
-571.675	800.000	-0.067	-0.247
-570.661	-200.000	0.041	-0.396
-569.646	-127.210	0.281	0.041
-568.631	261.701	0.295	-0.510
-567.617	800.000	0.072	-0.207
-566.602	297.405	0.082	0.149
-565.588	132.027	-0.041	-0.052
-564.573	99.316	0.141	-0.163
-563.558	-70.897	-0.273	0.103
-562.544	800.000	0.043	-0.151
-561.529	50.048	0.149	0.140
-560.515	-100.384	-0.116	0.029
-559.500	218.314	0.125	-0.199
-558.485	93.051	0.150	0.169
-557.471	-76.534	0.285	-0.100
-556.456	-89.499	0.265	-0.078
-555.442	-124.109	0.130	-0.020
-554.427	519.770	-0.078	-0.182
-553.412	41.314	0.091	0.082
-552.398	-101.844	-0.166	-0.040
-551.383	668.109	0.069	0.179
-550.369	30.003	-0.200	-0.170
-549.354	-200.000	0.006	0.088
-548.339	7.054	-0.377	-0.280
-547.325	800.000	0.127	-0.436
-546.310	715.903	-0.164	0.434
-545.296	-200.000	-0.042	0.216
-544.281	-200.000	0.021	0.158
-543.266	-200.000	-0.038	0.333
-542.252	-96.362	0.101	0.027
-541.237	35.453	-0.114	-0.099
-540.223	225.569	-0.120	-0.193
-539.208	303.530	0.014	-0.025
-538.193	-33.293	-0.096	0.053
-537.179	-106.394	-0.119	-0.026
-536.164	247.193	-0.220	-0.369
-535.150	-102.735	0.247	-0.059
-534.135	-130.913	-0.258	0.034
-533.121	-170.151	-0.248	0.009
-532.106	800.000	0.046	-0.148
-531.091	-200.000	-0.003	-0.028
-530.077	277.712	0.212	-0.376
-529.062	-200.000	0.034	0.264
-528.048	510.979	0.049	-0.113
-527.033	800.000	0.040	-0.165
-526.018	-111.380	-0.557	-0.113
-525.004	-191.684	-0.362	0.004
-523.989	302.002	0.051	-0.093
-522.975	72.325	-0.286	-0.297
-521.960	-200.000	-0.003	0.211
-520.945	-17.063	-0.308	-0.193
-519.931	-200.000	-0.010	0.175
-518.916	504.087	0.024	0.056
-517.902	-200.000	0.004	0.083
-516.887	79.040	0.211	0.225
-515.872	-70.491	0.108	-0.041
-514.858	-200.000	0.031	0.252
-513.843	3.554	0.187	0.136
-512.829	-115.344	-0.268	0.050
-511.814	349.836	-0.282	0.554
-510.799	-94.908	0.244	0.066
-509.785	395.796	-0.058	0.120
-508.770	26.203	-0.098	-0.081
-507.756	800.000	0.060	-0.183
-506.741	-72.671	-0.161	0.059
-505.726	800.000	0.059	0.188
-504.712	774.858	0.135	-0.366
-503.697	-92.978	-0.357	-0.099
-502.683	-200.000	0.005	0.313
-501.668	-137.010	0.035	0.004
-500.653	224.632	0.131	0.211
-499.639	-101.698	-0.214	0.052
-498.624	30.107	0.077	-0.065
-497.610	-66.434	-0.248	0.098
-496.595	377.735	-0.033	0.067
-495.581	100.891	0.067	0.078
-494.566	-44.696	-0.066	0.033
-493.551	-50.641	-0.254	0.119
-492.537	-101.662	0.288	0.070
-491.522	69.573	-0.215	0.220
-490.508	-147.122	-0.084	-0.007
-489.493	-175.009	-0.298	0.008
-488.478	800.000	0.022	0.096
-487.464	800.000	-0.060	-0.227
-486.449	-94.538	-0.110	-0.030
-485.435	-149.223	-0.174	-0.014
-484.420	-200.000	0.021	-0.165
-483.405	800.000	0.127	0.438
-482.391	-16.426	-0.231	0.146
-481.376	-168.461	0.093	0.004
-480.362	-75.245	-0.281	0.100
-479.347	31.336	0.190	-0.162
-478.332	14.371	0.107	-0.083
-477.318	110.054	-0.161	0.192
-476.303	-91.009	0.188	0.054
-475.289	64.711	-0.149	-0.149
-474.274	198.034	-0.100	0.152
-473.259	226.613	-0.140	-0.225
-472.245	223.774	0.135	-0.217
-471.230	-28.870	-0.222	0.127
-470.216	16.283	-0.361	0.283
-469.201	-122.056	-0.197	0.032
-468.186	101.598	0.218	0.252
-467.172	800.000	0.131	0.391
-466.157	376.956	-0.090	-0.182
-465.143	-73.758	-0.127	-0.046
-464.128	-101.657	-0.271	0.065
-463.113	36.899	0.316	-0.277
-462.099	-200.000	0.002	0.074
-461.084	-26.995	-0.251	0.146
-460.070	-200.000	0.000	-0.206
-459.055	-200.000	0.031	-0.192
-458.040	800.000	-0.083	-0.289
-457.026	538.496	0.023	-0.054
-456.011	-200.000	0.009	0.195
-454.997	-153.940	0.295	0.020
-453.982	53.067	-0.203	0.193
-452.968	204.977	0.159	-0.244
-451.953	-14.104	-0.116	0.074
-450.938	616.887	0.008	-0.019
-449.924	-5.321	0.110	0.075
-448.909	-11.423	-0.226	-0.148
-447.895	-63.455	-0.220	-0.090
-446.880	200.551	0.201	-0.307
-445.865	-200.000	-0.003	-0.140
-444.851	-53.065	-0.160	0.073
-443.836	-147.389	-0.282	-0.024
-442.822	305.277	0.148	-0.274
-441.807	74.534	-0.191	0.199
-440.792	-200.000	-0.015	0.211
-439.778	197.443	0.151	0.229
-438.763	181.406	-0.070	-0.102
-437.749	-200.000	-0.074	0.371
-436.734	-200.000	-0.010	0.116
-435.719	-108.513	0.243	0.052
-434.705	-29.062	0.108	-0.061
-433.690	-200.000	-0.036	0.265
-432.676	390.551	0.138	-0.283
-431.661	6.121	-0.107	0.079
-430.646	144.905	-0.182	0.242
-429.632	-134.102	0.179	-0.022
-428.617	-65.059	0.261	-0.105
-427.603	306.433	0.056	-0.103
-426.588	-200.000	-0.046	0.264
-425.573	355.707	-0.111	-0.220
-424.559	-80.333	0.176	-0.058
-423.544	-164.722	0.173	0.008
-422.530	-72.280	-0.333	0.122
-421.515	800.000	-0.033	-0.119
-420.500	-141.085	0.323	0.033
-419.486	-200.000	0.010	-0.308
-418.471	-41.130	-0.110	0.056
-417.457	-200.000	-0.006	0.053
-416.442	-34.538	-0.335	0.182
-415.428	88.380	-0.104	-0.114
-414.413	-200.000	-0.013	-0.072
-413.398	27.440	-0.189	-0.157
-412.384	-154.408	0.235	-0.016
-411.369	190.779	-0.039	-0.058
-410.355	-27.098	-0.355	0.205
-409.340	800.000	0.079	0.297
-408.325	-139.974	-0.390	0.041
-407.311	-200.000	0.005	-0.199
-406.296	132.194	-0.161	0.206
-405.282	-60.053	0.212	-0.090
-404.267	-16.184	0.082	0.051
-403.252	-200.000	0.003	-0.016
-402.238	136.667	0.159	-0.206
-401.223	213.216	0.263	0.411
-400.209	-200.000	-0.053	-0.351
-399.194	379.744	0.174	-0.353
-398.179	-62.055	-0.180	0.074
-397.165	800.000	0.090	0.258
-396.150	390.180	-0.102	-0.210
-395.136	-166.436	0.254	-0.011
-394.121	162.210	-0.136	0.189
-393.106	-37.905	-0.212	-0.112
-392.092	385.163	0.245	0.499
-391.077	60.992	-0.081	-0.079
-390.063	374.889	0.072	-0.145
-389.048	17.291	0.035	-0.028
-388.033	92.662	0.223	0.250
-387.019	800.000	0.059	0.216
-386.004	-109.901	0.258	0.053
-384.990	-42.343	0.077	0.039
-383.975	-200.000	-0.023	-0.368
-382.960	-71.358	-0.225	0.083
-381.946	-190.880	-0.324	0.003
-380.931	228.276	-0.102	-0.164
-379.917	497.000	-0.179	-0.409
-378.902	254.841	0.148	-0.251
-377.888	63.106	-0.341	-0.338
-376.873	113.336	-0.205	-0.246
-375.858	-61.912	-0.298	0.123
-374.844	-42.135	0.369	-0.187
-373.829	-116.420	0.253	-0.046
-372.815	68.990	0.172	-0.175
-371.800	9.841	-0.086	-0.064
-370.785	-200.000	-0.019	0.208
-369.771	-22.257	-0.193	-0.116
-368.756	18.126	-0.467	0.369
-367.742	138.194	0.291	-0.377
-366.727	-16.613	-0.340	0.213
-365.712	-200.000	-0.004	0.061
-364.698	-200.000	-0.031	0.256
-363.683	-173.628	0.394	0.012
-362.669	-86.403	-0.302	0.092
-361.654	137.349	-0.071	0.092
-360.639	-61.033	0.164	0.069
-359.625	595.209	-0.140	-0.343
-358.610	-118.239	0.036	0.006
-357.596	-113.486	-0.016	0.003
-356.581	251.449	-0.110	0.184
-355.566	-83.314	-0.072	-0.023
-354.552	-121.608	0.379	-0.062
-353.537	-30.413	0.147	-0.082
-352.523	17.507	-0.376	0.295
-351.508	-200.000	-0.056	-0.261
-350.493	76.912	-0.160	-0.168
-349.479	474.039	-0.011	0.024
-348.464	96.015	0.179	0.202
-347.450	-200.000	-0.081	-0.349
-346.435	-94.238	0.086	-0.023
-345.420	-117.169	0.097	-0.017
-344.406	172.073	-0.091	0.129
-343.391	798.699	-0.070	-0.192
-342.377	128.036	-0.188	-0.236
-341.362	-76.222	0.008	0.003
-340.348	-1.567	0.259	0.181
-339.333	-70.324	0.246	0.092
-338.318	-200.000	-0.006	-0.162
-337.304	-135.187	-0.170	-0.020
-336.289	-147.681	-0.525	-0.044
-335.275	63.396	0.134	0.133
-334.260	52.480	-0.100	-0.095
-333.245	-142.224	-0.147	0.014
-332.231	368.158	0.103	-0.206
-331.216	-147.823	0.161	0.013
-330.202	209.780	0.135	0.209
-329.187	56.834	-0.203	-0.195
-328.172	-135.192	0.061	0.007
-327.158	344.940	0.027	0.052
-326.143	-142.905	0.036	0.003
-325.129	163.796	0.229	-0.319
-324.114	-200.000	-0.028	-0.296
-323.099	157.185	-0.152	-0.208
-322.085	-200.000	-0.018	0.289
-321.070	-71.095	0.173	-0.064
-320.056	-37.380	-0.243	0.128
-319.041	-50.695	0.193	0.090
-318.026	-103.718	-0.226	0.052
-317.012	82.945	-0.168	0.181
-315.997	-83.842	-0.569	0.179
-314.983	-200.000	0.025	0.244
-313.968	13.438	-0.211	-0.162
-312.953	-93.393	-0.088	0.024
-311.939	-200.000	0.001	-0.028
-310.924	342.035	-0.084	0.163
-309.910	132.119	-0.158	0.201
-308.895	-47.273	0.048	-0.023
-307.880	-174.597	-0.195	0.005
-306.866	183.183	-0.168	-0.245
-305.851	-92.014	0.212	-0.059
-304.837	-121.272	-0.034	-0.006
-303.822	-200.000	0.061	0.397
-302.807	-200.000	0.072	-0.326
-301.793	-116.785	0.264	0.048
-300.778	-200.000	0.017	0.181
-299.764	-200.000	-0.021	-0.200
-298.749	119.908	0.060	0.074
-297.735	-85.687	-0.081	0.025
-296.720	-70.744	0.171	0.064
-295.705	286.010	0.096	-0.170
-294.691	67.620	0.220	-0.222
-293.676	-35.252	-0.173	0.093
-292.662	-58.225	0.368	0.158
-291.647	-200.000	0.028	-0.128
-290.632	-65.334	0.219	0.087
-289.618	-68.876	0.092	0.035
-288.603	-89.365	0.452	0.131
-287.589	14.449	0.082	0.063
-286.574	-35.549	-0.104	0.056
-285.559	-91.374	-0.144	-0.040
-284.545	-1.697	0.193	0.134
-283.530	-200.000	-0.025	0.200
-282.516	146.404	0.154	0.204
-281.501	-59.048	-0.095	-0.040
-280.486	-167.174	-0.366	0.015
-279.472	-200.000	-0.060	-0.405
-278.457	12.921	0.113	-0.086
-277.443	573.533	0.073	-0.176
-276.428	800.000	0.034	0.094
-275.413	0.396	0.279	-0.196
-274.399	-200.000	-0.010	-0.046
-273.384	-39.884	-0.313	0.161
-272.370	4.723	-0.294	0.213
-271.355	3.692	0.279	0.201
-270.340	217.203	0.087	-0.137
-269.326	-153.900	-0.207	0.014
-268.311	-121.109	0.218	0.036
-267.297	545.237	-0.034	0.079
-266.282	255.158	-0.052	-0.088
-265.267	63.070	0.040	0.039
-264.253	173.495	0.067	0.095
-263.238	17.700	0.242	-0.190
-262.224	-26.240	0.291	-0.169
-261.209	199.520	-0.054	0.082
-260.195	-116.232	0.317	-0.058
-259.180	48.765	0.182	0.169
-258.165	-102.450	-0.163	0.038
-257.151	102.553	0.314	0.362
-256.136	-172.318	-0.114	-0.004
-255.122	-71.181	-0.164	-0.061
-254.107	336.298	-0.063	0.120
-253.092	151.585	0.128	-0.171
-252.078	-98.015	0.421	-0.107
-251.063	99.703	-0.069	0.079
-250.049	800.000	0.028	-0.083
-249.034	-65.311	0.185	0.073
-248.019	800.000	-0.053	0.213
-247.005	800.000	0.100	-0.428
-245.990	-200.000	-0.001	0.111
-244.976	18.464	0.121	-0.095
-243.961	-200.000	-0.068	-0.466
-242.946	800.000	-0.018	-0.059
-241.932	-126.945	0.183	-0.026
-240.917	88.040	-0.253	0.276
-239.903	328.334	0.095	0.179
-238.888	294.562	-0.056	-0.101
-237.873	-100.415	0.416	0.102
-236.859	224.063	-0.093	-0.148
-235.844	152.929	0.364	0.489
-234.830	-200.000	0.068	0.390
-233.815	296.191	-0.119	0.215
-232.800	-108.975	0.357	-0.075
-231.786	-147.984	-0.232	0.019
-230.771	-110.472	0.051	-0.010
-229.757	-115.079	0.247	0.046
-228.742	800.000	-0.034	-0.110
-227.727	85.491	0.173	-0.187
-226.713	184.094	0.054	0.078
-225.698	-200.000	0.029	0.249
-224.684	-200.000	-0.021	0.186
-223.669	-116.803	0.258	-0.046
-222.655	-200.000	0.024	0.219
-221.640	180.605	0.074	-0.107
-220.625	-150.845	-0.145	-0.011
-219.611	-200.000	-0.020	-0.166
-218.596	-26.694	0.127	-0.073
-217.582	800.000	0.086	-0.337
-216.567	-85.115	0.153	-0.047
-215.552	-200.000	-0.001	-0.237
-214.538	-75.357	0.236	0.083
-213.523	165.538	0.145	0.201
-212.509	388.193	0.158	0.322
-211.494	-200.000	-0.017	-0.229
-210.479	-200.000	0.012	-0.314
-209.465	-60.932	0.477	-0.198
-208.450	-146.813	0.156	-0.013
-207.436	-200.000	0.071	0.400
-206.421	-200.000	0.065	0.320
-205.406	-200.000	0.035	-0.189
-204.392	396.196	-0.097	-0.199
-203.377	800.000	0.102	0.302
-202.363	-28.986	-0.375	-0.212
-201.348	29.597	-0.313	0.261
-200.333	-41.668	-0.427	0.216
-199.319	-139.402	-0.292	0.031
-198.304	-30.443	0.102	-0.057
-197.290	-200.000	-0.021	-0.243
-196.275	800.000	-0.039	-0.116
-195.260	94.541	0.078	-0.087
-194.246	629.516	-0.115	0.286
-193.231	243.930	-0.216	0.356
-192.217	-200.000	-0.004	0.036
-191.202	88.756	-0.100	0.110
-190.187	-200.000	0.056	0.261
-189.173	-69.868	-0.109	-0.041
-188.158	-41.426	0.007	0.003
-187.144	-200.000	-0.057	0.287
-186.129	619.186	0.037	0.091
-185.114	-87.360	0.278	0.083
-184.100	198.733	-0.142	0.213
-183.085	-107.506	-0.036	0.008
-182.071	-15.585	0.290	0.182
-181.056	-200.000	-0.003	-0.212
-180.042	-126.384	-0.085	0.012
-179.027	75.757	0.206	-0.213
-178.012	52.278	0.085	0.080
-176.998	-148.092	-0.170	-0.014
-175.983	616.760	0.047	-0.116
-174.969	-42.166	-0.090	-0.045
-173.954	299.770	0.092	0.166
-172.939	-200.000	0.002	0.102
-171.925	800.000	-0.056	-0.212
-170.910	-128.475	0.274	0.038
-169.896	-200.000	-0.044	-0.286
-168.881	-5.707	-0.224	0.151
-167.866	11.526	0.158	-0.119
-166.852	10.695	0.308	0.230
-165.837	-151.438	0.228	0.017
-164.823	800.000	-0.096	0.275
-163.808	-81.832	-0.258	0.083
-162.793	-200.000	-0.014	-0.173
-161.779	13.983	-0.156	-0.119
-160.764	-91.548	0.314	0.088
-159.750	-64.542	0.169	0.067
-158.735	-200.000	-0.030	0.163
-157.720	-200.000	0.018	0.287
-156.706	15.636	0.376	0.290
-155.691	726.523	-0.090	0.236
-154.677	-200.000	0.046	0.221
-153.662	-28.590	0.187	-0.106
-152.647	230.756	-0.175	0.281
-151.633	-23.429	0.213	-0.125
-150.618	67.091	0.088	0.088
-149.604	215.542	-0.086	0.134
-148.589	800.000	0.049	-0.193
-147.574	-77.986	-0.235	-0.079
-146.560	-63.756	0.228	0.092
-145.545	-194.817	0.196	0.001
-144.531	159.757	-0.179	-0.245
-143.516	-152.212	-0.278	0.020
-142.502	-80.825	-0.173	-0.056
-141.487	-11.916	-0.233	-0.150
-140.472	-200.000	0.004	0.138
-139.458	194.279	0.138	-0.205
-138.443	-103.652	0.335	0.077
-137.429	800.000	-0.028	0.119
-136.414	-115.736	0.127	0.023
-135.399	-200.000	-0.003	0.161
-134.385	276.947	-0.172	-0.299
-133.370	254.203	0.149	-0.250
-132.356	45.187	0.128	0.116
-131.341	232.153	-0.250	-0.402
-130.326	0.460	0.149	0.104
-129.312	-200.000	-0.008	-0.118
-128.297	-96.723	-0.325	-0.084
-127.283	221.990	-0.189	-0.298
-126.268	36.683	0.213	0.184
-125.253	800.000	0.075	-0.204
-124.239	-132.667	0.177	-0.022
-123.224	70.760	-0.090	0.091
-122.210	105.840	0.344	0.398
-121.195	476.987	-0.008	-0.019
-120.180	-19.326	0.180	0.109
-119.166	800.000	0.081	0.294
-118.151	474.074	0.098	0.217
-117.137	154.937	0.062	0.083
-116.122	-87.299	-0.307	0.091
-115.107	-72.992	0.338	0.122
-114.093	-130.281	0.308	0.041
-113.078	351.274	0.049	0.094
-112.064	-200.000	0.063	0.283
-111.049	-200.000	-0.014	-0.296
-110.034	-135.164	-0.214	0.025
-109.020	-52.993	-0.212	-0.095
-108.005	-200.000	0.010	-0.184
-106.991	800.000	0.044	0.125
-105.976	-59.509	0.120	0.050
-104.962	800.000	0.056	0.233
-103.947	800.000	0.130	0.375
-102.932	697.643	-0.078	0.201
-101.918	-139.705	-0.055	0.006
-100.903	-12.687	-0.094	-0.060
-99.889	-19.039	0.172	0.105
-98.874	-12.603	0.283	-0.181
-97.859	25.398	0.099	0.080
-96.845	-28.972	-0.177	0.099
-95.830	-200.000	-0.003	-0.121
-94.816	-65.430	-0.153	-0.060
-93.801	190.118	0.097	0.143
-92.786	-143.250	-0.095	-0.009
-91.772	-200.000	0.032	-0.367
-90.757	-190.460	0.280	0.003
-89.743	800.000	-0.081	-0.337
-88.728	-130.719	0.282	-0.037
-87.713	-84.652	0.075	-0.023
-86.699	183.691	-0.055	-0.079
-85.684	402.213	0.188	-0.388
-84.670	109.633	-0.241	-0.283
-83.655	-200.000	0.004	0.197
-82.640	28.362	-0.021	0.017
-81.626	-54.078	0.059	0.026
-80.611	-197.928	0.125	-0.001
-79.597	-200.000	0.018	0.409
-78.582	-125.398	-0.119	-0.018
-77.567	389.545	0.041	-0.083
-76.553	800.000	-0.072	0.297
-75.538	-89.706	-0.066	-0.019
-74.524	-64.129	-0.101	0.040
-73.509	-77.103	0.058	-0.020
-72.494	-121.743	0.222	-0.036
-71.480	605.112	0.030	-0.073
-70.465	-107.679	-0.166	0.035
-69.451	-5.834	0.132	0.089
-68.436	45.105	0.146	-0.132
-67.422	-200.000	0.009	0.135
-66.407	-85.786	0.297	0.090
-65.392	-94.061	0.073	0.020
-64.378	40.333	0.213	0.187
-63.363	26.875	-0.137	0.112
-62.349	687.433	-0.101	0.258
-61.334	81.270	-0.820	-0.866
-60.319	-40.808	0.717	0.363
-59.305	800.000	-0.271	-1.133
-58.290	230.141	0.690	1.102
-57.276	-200.000	0.312	1.479
-56.261	-200.000	113.683	643.452
-55.246	476.459	1501.874	3317.342
-54.232	147.987	2674.013	3524.279
-53.217	96.821	2282.439	2555.755
-52.203	36.209	1897.026	1633.243
-51.188	30.444	1689.868	1411.187
-50.173	28.054	1648.488	1358.836
-49.159	49.465	1702.014	1564.992
-48.144	48.406	1717.127	1570.844
-47.130	30.172	1675.757	1397.131
-46.115	27.519	1661.275	1365.154
-45.100	27.219	1656.920	1359.277
-44.086	27.241	1654.122	1357.092
-43.071	27.220	1651.405	1354.651
-42.057	27.222	1649.248	1352.844
-41.042	27.270	1647.119	1351.403
-40.027	27.303	1645.213	1350.026
-39.013	27.242	1643.571	1348.174
-37.998	27.223	1641.839	1346.556
-36.984	27.287	1640.843	1346.160
-35.969	27.370	1639.335	1345.489
-34.954	27.410	1637.179	1343.958
-33.940	27.354	1635.950	1342.485
-32.925	27.392	1633.851	1340.985
-31.911	27.303	1632.291	1338.994
-30.896	27.331	1630.513	1337.692
-29.881	27.362	1628.492	1336.208
-28.867	27.454	1626.510	1335.205
-27.852	27.314	1625.622	1333.395
-26.838	27.334	1624.083	1332.227
-25.823	27.318	1623.159	1331.298
-24.809	27.431	1621.901	1331.039
-23.794	27.382	1620.042	1329.107
-22.779	27.500	1618.470	1328.622
-21.765	27.329	1617.270	1326.338
-20.750	27.296	1615.654	1324.722
-19.736	27.474	1614.055	1324.648
-18.721	27.390	1613.117	1323.220
-17.706	27.349	1611.254	1321.339
-16.692	27.455	1609.832	1320.889
-15.677	27.468	1608.509	1319.848
-14.663	27.481	1607.287	1318.885
-13.648	27.387	1605.810	1316.943
-12.633	27.416	1604.629	1316.133
-11.619	27.489	1602.504	1314.865
-10.604	27.384	1601.425	1313.169
-9.590	27.396	1600.050	1312.075
-8.575	27.391	1598.980	1311.108
-7.560	27.452	1597.421	1310.214
-6.546	27.444	1596.368	1309.243
-5.531	27.390	1595.746	1308.294
-4.517	27.392	1594.402	1307.158
-3.502	27.381	1593.223	1306.054
-2.487	27.463	1591.179	1304.917
-1.473	27.125	1579.687	1293.036
-0.458	24.466	1561.122	1259.063
0.556	19.395	1562.645	1230.415
1.571	17.343	1586.675	1234.351
2.586	17.088	1599.406	1242.276
3.600	16.353	1549.164	1197.932
4.615	13.592	1450.703	1103.335
5.629	10.572	1395.618	1041.976
6.644	10.119	1388.337	1033.555
7.659	10.010	1387.799	1032.366
8.673	9.939	1386.523	1030.875
9.688	9.942	1384.197	1029.071
10.702	9.858	1381.392	1026.361
11.717	11.381	1383.019	1037.165
12.731	14.660	1388.812	1062.320
13.746	17.196	1392.544	1081.239
14.761	17.436	1392.248	1082.440
15.775	16.478	1389.819	1074.374
16.790	15.483	1386.861	1065.679
17.804	14.721	1384.597	1059.010
18.819	14.219	1382.996	1054.515
19.834	13.861	1382.101	1051.469
20.848	13.648	1380.639	1048.919
21.863	13.496	1378.922	1046.558
22.877	13.370	1378.004	1044.974
23.892	13.314	1377.218	1043.934
24.907	13.240	1376.293	1042.673
25.921	13.265	1375.323	1042.005
26.936	13.404	1374.401	1042.087
27.950	13.403	1373.269	1041.133
28.965	13.420	1372.261	1040.385
29.980	13.440	1371.198	1039.612
30.994	13.484	1370.351	1039.150
32.009	13.585	1368.789	1038.509
33.023	13.623	1367.211	1037.457
34.038	13.518	1366.208	1035.950
35.053	13.473	1364.861	1034.551
36.067	13.487	1363.488	1033.505
37.082	13.396	1362.983	1032.469
38.096	13.477	1361.709	1031.917
39.111	13.564	1360.836	1031.701
40.126	13.442	1359.813	1030.075
41.140	13.302	1358.909	1028.434
42.155	13.236	1358.874	1027.906
43.169	13.166	1358.913	1027.404
44.184	13.190	1358.163	1026.899
45.199	13.099	1358.314	1026.358
46.213	13.268	1357.504	1026.702
47.228	13.343	1356.659	1026.438
48.242	13.429	1354.940	1025.578
49.257	13.323	1353.786	1023.959
50.271	13.381	1351.960	1022.843
51.286	13.413	1351.004	1022.226
52.301	13.284	1349.841	1020.465
53.315	13.258	1348.793	1019.417
54.330	13.285	1347.625	1018.613
55.344	13.245	1346.509	1017.431
56.359	13.274	1345.428	1016.707
57.374	13.244	1344.285	1015.570
58.388	13.084	1343.964	1014.251
59.403	13.213	1342.750	1014.036
60.417	13.172	1342.501	1013.506
61.432	13.094	1341.515	1012.197
62.447	13.087	1340.459	1011.265
63.461	13.008	1339.579	1010.033
64.476	13.031	1337.904	1008.815
65.490	13.051	1337.295	1008.392
66.505	13.134	1335.606	1007.533
67.520	13.107	1334.637	1006.553
68.534	13.144	1333.046	1005.485
69.549	13.136	1332.260	1004.756
70.563	13.099	1331.694	1004.018
71.578	13.032	1330.745	1002.808
72.593	13.148	1329.272	1002.311
73.607	13.002	1328.808	1000.987
74.622	13.084	1327.832	1000.656
75.636	13.116	1327.073	1000.192
76.651	13.141	1326.240	999.625
77.666	13.103	1325.983	999.113
78.680	13.048	1325.703	998.482
79.695	13.066	1324.871	997.877
80.709	13.094	1323.914	997.239
81.724	13.198	1323.403	997.393
82.739	13.295	1322.042	996.861
83.753	13.326	1321.651	996.665
84.768	13.304	1320.694	995.724
85.782	13.419	1319.121	995.142
86.797	13.334	1317.840	993.577
87.812	13.374	1316.184	992.479
88.826	13.317	1315.615	991.622
89.841	13.343	1314.354	990.738
90.855	13.479	1313.345	990.703
91.870	13.398	1312.313	989.355
92.884	13.466	1311.531	989.085
93.899	13.433	1311.164	988.520
94.914	13.475	1310.194	987.952
95.928	13.576	1309.146	987.676
96.943	13.484	1308.384	986.468
97.957	13.434	1307.467	985.391
98.972	13.385	1306.507	984.290
99.987	13.415	1305.359	983.516
101.001	13.428	1304.053	982.524
102.016	13.404	1303.273	981.706
103.030	13.411	1302.437	981.030
104.045	13.283	1301.968	979.829
105.060	13.434	1299.848	979.044
106.074	13.291	1298.920	977.414
107.089	13.270	1297.781	976.344
108.103	13.201	1296.257	974.703
109.118	13.259	1294.832	973.888
110.133	13.192	1293.482	972.394
111.147	13.289	1291.916	971.697
112.162	13.301	1290.641	970.723
113.176	13.407	1289.239	970.205
114.191	13.304	1288.699	969.107
115.206	13.349	1287.542	968.417
116.220	13.219	1286.604	966.863
117.235	13.309	1284.871	966.004
118.249	13.315	1284.627	965.768
119.264	13.256	1283.382	964.405
120.279	13.247	1282.261	963.425
121.293	13.225	1281.335	962.515
122.308	13.191	1279.701	961.007
123.322	13.227	1279.006	960.607
124.337	13.094	1278.367	959.268
125.352	13.187	1276.857	958.590
126.366	13.182	1275.853	957.726
127.381	13.114	1274.753	956.419
128.395	13.171	1273.492	955.721
129.410	13.156	1273.072	955.231
130.424	13.165	1272.118	954.483
131.439	13.241	1270.546	953.658
132.454	13.292	1269.724	953.254
133.468	13.343	1268.752	952.728
134.483	13.243	1268.928	952.203
135.497	13.335	1267.161	951.319
136.512	13.369	1265.855	950.451
137.527	13.297	1264.373	948.842
138.541	13.303	1263.361	948.032
139.556	13.314	1261.874	946.895
140.570	13.393	1260.766	946.431
141.585	13.468	1259.455	945.795
142.600	13.460	1258.493	944.940
143.614	13.516	1257.861	944.703
144.629	13.484	1256.902	943.717
145.643	13.555	1255.256	942.800
146.658	13.527	1253.894	941.535
147.673	13.391	1252.576	939.688
148.687	13.373	1251.799	938.923
149.702	13.373	1250.364	937.764
150.716	13.307	1248.976	936.266
151.731	13.363	1248.075	935.825
152.746	13.371	1246.541	934.636
153.760	13.475	1244.926	933.932
154.775	13.576	1243.900	933.644
155.789	13.519	1243.259	932.759
156.804	13.598	1242.162	932.302
157.819	13.591	1241.128	931.406
158.833	13.628	1240.334	930.933
159.848	13.685	1239.282	930.382
160.862	13.698	1238.448	929.745
161.877	13.554	1237.417	928.081
162.892	13.433	1236.015	926.271
163.906	13.529	1234.811	925.821
164.921	13.571	1234.111	925.450
165.935	13.559	1233.579	924.905
166.950	13.630	1232.698	924.558
167.964	13.570	1232.011	923.627
168.979	13.536	1231.594	923.044
169.994	13.553	1230.524	922.253
171.008	13.636	1229.774	922.072
172.023	13.632	1228.953	921.349
173.037	13.805	1228.377	921.797
174.052	13.744	1227.215	920.506
175.067	13.605	1225.965	918.715
176.081	13.676	1225.114	918.393
177.096	13.660	1223.957	917.353
178.110	13.719	1222.502	916.508
179.125	13.632	1222.132	915.667
180.140	13.734	1220.881	915.217
181.154	13.674	1219.685	913.908
182.169	13.797	1218.368	913.517
183.183	13.777	1217.641	912.777
184.198	13.829	1216.208	911.911
185.213	13.877	1214.871	911.092
186.227	13.827	1213.776	909.916
187.242	13.951	1213.121	910.024
188.256	13.953	1212.116	909.199
189.271	13.929	1211.170	908.278
190.286	13.723	1210.147	906.304
191.300	13.744	1208.983	905.471
192.315	13.695	1208.674	904.891
193.329	13.688	1207.627	903.988
194.344	13.735	1207.038	903.721
195.359	13.882	1206.109	903.748
196.373	13.843	1206.014	903.385
197.388	13.927	1206.135	903.853
198.402	14.009	1205.199	903.514
199.417	14.054	1204.473	903.135
200.432	14.079	1203.932	902.786
201.446	14.108	1202.716	901.951
202.461	14.160	1202.158	901.737
203.475	14.231	1201.161	901.293
204.490	14.094	1199.940	899.554
205.504	14.125	1198.528	898.585
206.519	14.045	1197.647	897.410
207.534	14.109	1196.370	896.720
208.548	14.121	1194.950	895.640
209.563	14.064	1194.553	894.960
210.577	14.135	1193.547	894.505
211.592	14.154	1192.748	893.930
212.607	14.214	1191.927	893.562
213.621	14.237	1190.895	892.831
214.636	14.243	1189.969	892.087
215.650	14.311	1189.087	891.716
216.665	14.267	1188.294	890.805
217.680	14.173	1187.884	889.916
218.694	14.291	1186.475	889.409
219.709	14.410	1185.757	889.431
220.723	14.387	1184.822	888.528
221.738	14.401	1184.129	888.004
222.753	14.315	1184.015	887.384
223.767	14.316	1183.221	886.710
224.782	14.412	1182.487	886.596
225.796	14.487	1181.624	886.271
226.811	14.493	1180.903	885.679
227.826	14.419	1180.358	884.802
228.840	14.404	1179.459	883.971
229.855	14.395	1178.651	883.237
230.869	14.437	1177.653	882.636
231.884	14.454	1177.031	882.181
232.899	14.338	1176.287	880.929
233.913	14.354	1175.536	880.377
234.928	14.319	1175.376	879.993
235.942	14.324	1174.079	878.967
236.957	14.298	1173.411	878.255
237.972	14.409	1172.808	878.308
238.986	14.383	1172.190	877.632
240.001	14.471	1171.180	877.261
241.015	14.484	1170.777	876.952
242.030	14.468	1169.599	875.909
243.045	14.509	1168.855	875.488
244.059	14.565	1167.787	874.902
245.074	14.505	1167.381	874.210
246.088	14.643	1166.355	874.083
247.103	14.516	1165.783	872.916
248.117	14.605	1165.034	872.742
249.132	14.581	1164.666	872.261
250.147	14.774	1163.735	872.496
251.161	14.867	1162.960	872.323
252.176	14.909	1162.267	871.944
253.190	14.980	1161.839	871.916
254.205	14.981	1161.084	871.280
255.220	15.070	1160.370	871.131
256.234	15.024	1159.328	870.031
257.249	15.023	1158.880	869.612
258.263	15.067	1158.166	869.229
259.278	14.961	1157.774	868.307
260.293	14.971	1157.665	868.203
261.307	15.087	1156.648	867.960
262.322	15.085	1155.762	867.211
263.336	15.151	1155.033	866.926
264.351	15.203	1154.183	866.482
265.366	15.109	1153.987	865.771
266.380	15.090	1153.550	865.270
267.395	15.075	1152.306	864.182
268.409	15.259	1150.903	864.003
269.424	15.116	1151.010	863.271
270.439	15.167	1150.199	862.849
271.453	15.159	1149.312	862.062
272.468	15.063	1148.762	861.081
273.482	15.125	1147.697	860.528
274.497	15.188	1147.400	860.551
275.512	15.093	1147.035	859.712
276.526	15.149	1145.839	859.028
277.541	15.180	1144.947	858.443
278.555	15.193	1144.435	858.050
279.570	15.268	1143.505	857.660
280.585	15.363	1142.516	857.328
281.599	15.347	1141.777	856.616
282.614	15.357	1140.536	855.661
283.628	15.246	1139.893	854.537
284.643	15.201	1139.397	853.857
285.657	15.444	1137.893	853.893
286.672	15.285	1137.333	852.588
287.687	15.203	1136.464	851.446
288.701	15.345	1135.268	851.196
289.716	15.421	1134.586	850.991
290.730	15.394	1134.025	850.360
291.745	15.328	1133.482	849.541
292.760	15.429	1132.714	849.403
293.774	15.441	1132.443	849.185
294.789	15.557	1131.684	849.127
295.803	15.486	1130.946	848.138
296.818	15.402	1130.159	847.051
297.833	15.498	1129.632	847.067
298.847	15.548	1128.809	846.623
299.862	15.408	1128.041	845.268
300.876	15.588	1127.345	845.580
301.891	15.571	1126.757	844.979
302.906	15.600	1125.713	844.265
303.920	15.627	1125.159	843.910
304.935	15.637	1124.919	843.709
305.949	15.800	1123.668	843.513
306.964	15.704	1123.218	842.616
307.979	15.707	1122.525	842.038
308.993	15.652	1121.834	841.171
310.008	15.794	1121.115	841.265
311.022	15.807	1120.364	840.694
312.037	15.923	1119.253	840.363
313.052	15.751	1118.588	838.935
314.066	15.651	1117.228	837.342
315.081	15.618	1116.790	836.774
316.095	15.534	1116.228	835.860
317.110	15.746	1115.106	835.999
318.125	15.775	1114.173	835.371
319.139	15.605	1113.990	834.313
320.154	15.551	1113.272	833.434
321.168	15.694	1112.821	833.736
322.183	15.742	1112.109	833.364
323.197	15.659	1111.523	832.441
324.212	15.676	1111.002	832.061
325.227	15.735	1110.267	831.726
326.241	15.872	1109.263	831.579
327.256	15.743	1108.725	830.463
328.270	15.873	1107.507	830.119
329.285	15.822	1106.401	828.967
330.300	15.827	1105.780	828.452
331.314	15.720	1105.070	827.319
332.329	15.948	1103.864	827.467
333.343	15.872	1102.882	826.284
334.358	15.986	1102.242	826.291
335.373	15.953	1101.562	825.545
336.387	15.942	1100.901	824.923
337.402	15.943	1099.554	823.845
338.416	16.004	1099.281	823.866
339.431	15.998	1098.861	823.447
340.446	16.006	1098.275	822.975
341.460	16.159	1097.491	823.063
342.475	16.148	1096.506	822.200
343.489	16.234	1095.564	821.837
344.504	16.221	1094.613	820.987
345.519	16.239	1093.752	820.355
346.533	16.321	1093.411	820.425
347.548	16.397	1092.340	819.921
348.562	16.408	1091.547	819.305
349.577	16.381	1090.463	818.287
350.592	16.248	1089.686	816.987
351.606	16.157	1089.483	816.327
352.621	16.108	1088.867	815.552
353.635	16.115	1088.070	814.919
354.650	16.215	1087.292	814.746
355.665	16.330	1086.622	814.727
356.679	16.159	1086.197	813.512
357.694	16.226	1085.689	813.382
358.708	16.374	1084.511	813.140
359.723	16.285	1084.141	812.363
360.738	16.286	1083.437	811.766
361.752	16.333	1082.952	811.560
362.767	16.376	1082.474	811.336
363.781	16.460	1081.716	811.100
364.796	16.404	1081.594	810.666
365.810	16.490	1080.637	810.291
366.825	16.514	1080.147	809.964
367.840	16.562	1079.583	809.699
368.854	16.716	1079.065	809.978
369.869	16.630	1078.212	808.854
370.883	16.639	1077.250	808.103
371.898	16.562	1076.581	807.164
372.913	16.600	1075.842	806.718
373.927	16.713	1075.563	806.978
374.942	16.676	1074.961	806.280
375.956	16.715	1073.971	805.651
376.971	16.732	1073.721	805.472
377.986	16.736	1073.393	805.174
379.000	16.759	1072.705	804.694
380.015	16.797	1072.098	804.348
381.029	16.832	1071.164	803.743
382.044	16.787	1070.966	803.308
383.059	16.936	1070.063	803.268
384.073	16.823	1069.298	802.085
385.088	16.905	1067.877	801.336
386.102	16.939	1066.969	800.745
387.117	16.784	1066.413	799.527
388.132	16.870	1065.579	799.238
389.146	16.775	1064.746	798.091
390.161	16.661	1064.323	797.169
391.175	16.810	1063.172	796.934
392.190	16.826	1062.421	796.379
393.205	16.953	1062.123	796.680
394.219	16.982	1060.951	795.865
395.234	16.839	1060.453	794.754
396.248	16.925	1059.203	794.150
397.263	16.929	1057.866	793.095
398.278	16.970	1057.583	793.004
399.292	16.865	1056.965	791.981
400.307	16.789	1056.558	791.248
401.321	16.863	1055.738	790.911
402.336	16.939	1054.788	790.486
403.350	16.913	1054.274	789.909
404.365	16.762	1053.654	788.672
405.380	17.051	1052.281	788.914
406.394	17.023	1051.845	788.388
407.409	17.008	1051.436	787.943
408.423	17.051	1050.808	787.604
409.438	17.288	1049.690	787.793
410.453	17.088	1049.490	786.647
411.467	17.234	1048.549	786.549
412.482	17.221	1047.976	785.986
413.496	17.262	1047.201	785.527
414.511	17.234	1046.895	785.098
415.526	17.399	1046.410	785.427
416.540	17.339	1045.882	784.683
417.555	17.317	1045.238	784.029
418.569	17.490	1044.302	784.054
419.584	17.337	1044.151	783.168
420.599	17.380	1043.856	783.074
421.613	104.896	1325.576	1476.540
422.628	96.365	1366.569	1476.634
