DTS Sentinel unit serial number:	SN413079Multiplexer serial number:	ORYXHardware model number:	OX4-SRSoftware version number:	ORYX F/W v4.00 Oryx Data Collector v3.7.2.0data status	okinstallation	princeton_trtdifferential loss correction	single-endedforward channel	channel 2reverse channel	N/Adate	2019/09/13time	16:19:35forward acquisition time	60.00reverse acquisition time	0.00gamma	496.2192k internal	0.2314k external	0.2314temperature offset calibration	1.0214default loss term (dB/km)	0.3790temperature slope calibration	1.0000multiplexer offset coefficient	1.0000multiplexer slope coefficient	1.0000fibre end	0.00T internal ref (°C)	34.94T ext. ref 1 (°C)	4.87T ext. ref 2 (°C)	31.32length (m)	temperature (°C)	Stokes	anti-Stokes-747.200	-101.046	-0.186	-0.046
-746.185	-200.000	0.019	0.470
-745.171	-200.000	0.039	0.201
-744.156	800.000	-0.020	0.058
-743.142	102.448	0.142	0.168
-742.127	372.539	-0.062	0.127
-741.112	-6.329	-0.316	-0.218
-740.098	164.016	-0.245	0.349
-739.083	-34.648	0.233	0.129
-738.069	28.806	0.072	-0.062
-737.054	-60.838	-0.271	-0.116
-736.039	-110.421	-0.357	-0.075
-735.025	14.219	0.060	0.047
-734.010	31.572	0.025	0.021
-732.996	-200.000	0.013	0.436
-731.981	527.241	0.062	0.149
-730.966	91.105	-0.083	-0.094
-729.952	213.142	0.140	-0.224
-728.937	-46.659	-0.261	0.130
-727.923	-200.000	-0.049	-0.319
-726.908	-117.283	-0.305	-0.056
-725.894	-11.476	-0.148	0.098
-724.879	89.629	0.237	-0.268
-723.864	42.413	0.203	-0.187
-722.850	-101.176	-0.317	0.079
-721.835	-200.000	0.025	-0.260
-720.821	-28.446	-0.133	-0.078
-719.806	108.384	-0.213	-0.257
-718.791	-19.169	-0.164	-0.103
-717.777	103.719	-0.093	0.111
-716.762	161.929	-0.184	-0.261
-715.748	-19.926	0.231	-0.144
-714.733	-200.000	-0.019	-0.380
-713.718	-130.875	-0.248	-0.034
-712.704	-11.075	-0.468	-0.313
-711.689	-114.970	0.122	-0.023
-710.675	-88.003	-0.242	-0.074
-709.660	-106.357	0.237	-0.054
-708.645	-136.641	-0.120	-0.014
-707.631	-159.851	0.103	0.006
-706.616	-26.589	0.231	-0.137
-705.602	-112.818	0.235	-0.047
-704.587	-61.105	0.109	0.046
-703.572	-10.636	0.233	0.156
-702.558	257.124	0.265	-0.461
-701.543	400.165	-0.224	-0.475
-700.529	-200.000	0.049	-0.321
-699.514	-61.309	-0.053	0.022
-698.499	38.942	0.177	-0.160
-697.485	129.895	0.098	-0.127
-696.470	197.636	0.006	-0.009
-695.456	-154.010	-0.141	0.010
-694.441	144.533	0.085	-0.115
-693.426	-200.000	0.089	-0.544
-692.412	-200.000	0.030	-0.143
-691.397	58.335	-0.194	0.193
-690.383	-121.207	-0.030	-0.005
-689.368	-51.923	0.345	-0.162
-688.354	407.186	-0.119	0.254
-687.339	23.926	0.129	0.108
-686.324	528.406	0.129	-0.308
-685.310	57.528	0.161	-0.159
-684.295	800.000	-0.187	0.582
-683.281	379.872	-0.150	0.312
-682.266	188.023	-0.148	-0.223
-681.251	50.215	-0.097	0.092
-680.237	-102.271	0.151	-0.037
-679.222	336.683	-0.117	-0.230
-678.208	420.428	-0.093	0.201
-677.193	-81.412	0.184	-0.061
-676.178	800.000	-0.010	-0.033
-675.164	-30.485	0.117	-0.067
-674.149	-99.445	-0.309	-0.079
-673.135	3.430	0.183	0.135
-672.120	-105.625	0.211	-0.048
-671.105	-82.199	-0.113	0.037
-670.091	-120.615	-0.354	-0.061
-669.076	-200.000	-0.028	-0.182
-668.062	569.423	-0.146	0.360
-667.047	800.000	-0.047	-0.175
-666.032	-20.736	0.148	-0.092
-665.018	166.368	-0.120	0.172
-664.003	248.280	0.097	-0.166
-662.989	-162.756	0.401	0.020
-661.974	-21.613	-0.173	-0.106
-660.959	-111.781	0.116	-0.024
-659.945	46.602	0.307	-0.288
-658.930	-200.000	-0.028	0.128
-657.916	800.000	-0.043	0.154
-656.901	800.000	0.005	0.020
-655.886	-200.000	0.027	0.121
-654.872	-69.529	0.382	-0.148
-653.857	102.950	-0.165	0.195
-652.843	-200.000	0.012	-0.382
-651.828	-13.910	-0.153	0.100
-650.814	489.979	-0.050	0.116
-649.799	601.408	-0.046	-0.115
-648.784	800.000	-0.016	0.057
-647.770	777.397	-0.132	0.363
-646.755	16.246	0.236	0.188
-645.741	65.624	0.178	0.182
-644.726	267.212	0.084	-0.148
-643.711	-200.000	-0.043	-0.217
-642.697	-123.646	0.165	0.026
-641.682	-134.738	-0.260	0.032
-640.668	-200.000	-0.017	0.165
-639.653	371.732	-0.138	0.282
-638.638	194.404	0.086	-0.131
-637.624	800.000	0.096	-0.296
-636.609	167.229	0.102	-0.146
-635.595	585.809	0.111	-0.275
-634.580	-5.553	0.113	0.078
-633.565	144.985	0.224	-0.302
-632.551	-9.134	-0.243	-0.164
-631.536	-95.753	0.131	-0.035
-630.522	8.903	0.108	-0.082
-629.507	-88.059	-0.299	0.090
-628.492	74.448	-0.454	-0.482
-627.478	-200.000	0.037	-0.174
-626.463	192.834	-0.220	0.335
-625.449	354.887	0.092	-0.185
-624.434	-160.419	0.050	-0.003
-623.419	3.026	0.229	0.168
-622.405	-40.752	-0.189	-0.099
-621.390	-50.904	-0.168	0.079
-620.376	452.824	-0.061	0.135
-619.361	-89.327	0.052	-0.016
-618.346	192.666	-0.123	-0.187
-617.332	-88.629	-0.308	0.092
-616.317	-200.000	0.018	0.192
-615.303	90.119	-0.095	-0.107
-614.288	58.656	0.185	-0.183
-613.273	254.657	0.092	0.158
-612.259	359.655	0.099	0.199
-611.244	-85.866	-0.253	-0.079
-610.230	629.001	0.083	-0.212
-609.215	17.137	-0.301	0.241
-608.201	176.080	0.231	0.338
-607.186	-200.000	0.003	0.152
-606.171	-200.000	0.043	0.236
-605.157	5.285	0.097	-0.072
-604.142	-108.302	0.192	-0.042
-603.128	-200.000	0.029	0.149
-602.113	228.081	0.079	-0.129
-601.098	800.000	0.025	0.089
-600.084	196.800	-0.151	-0.232
-599.069	615.495	0.199	-0.502
-598.055	130.920	-0.095	0.123
-597.040	-124.471	-0.433	0.068
-596.025	-85.183	0.172	-0.054
-595.011	42.900	-0.089	0.081
-593.996	205.854	0.090	0.140
-592.982	307.617	-0.231	0.433
-591.967	-194.786	0.195	-0.002
-590.952	-126.901	0.069	-0.010
-589.938	-107.332	0.071	-0.016
-588.923	-200.000	-0.097	0.538
-587.909	40.385	0.057	-0.052
-586.894	52.525	0.033	-0.032
-585.879	-109.932	0.217	0.046
-584.865	-66.830	-0.257	-0.102
-583.850	-152.384	-0.016	0.001
-582.836	-200.000	0.009	-0.330
-581.821	252.447	0.218	-0.374
-580.806	-114.667	0.217	0.042
-579.792	-146.028	0.506	0.045
-578.777	-200.000	-0.000	0.140
-577.763	43.049	0.113	-0.104
-576.748	238.825	-0.025	-0.043
-575.733	-33.119	0.200	0.112
-574.719	-61.006	-0.123	0.052
-573.704	212.334	-0.134	-0.213
-572.690	-200.000	0.053	0.243
-571.675	-101.709	-0.264	-0.064
-570.661	48.060	-0.143	0.134
-569.646	-62.226	-0.269	0.113
-568.631	-200.000	-0.012	-0.479
-567.617	35.409	-0.059	0.052
-566.602	82.395	-0.158	0.172
-565.588	296.109	-0.154	0.284
-564.573	-78.752	-0.135	-0.046
-563.558	-200.000	-0.045	-0.203
-562.544	699.644	0.113	-0.300
-561.529	-200.000	-0.028	-0.234
-560.515	49.729	-0.079	-0.075
-559.500	-98.600	-0.277	0.071
-558.485	800.000	0.044	0.178
-557.471	181.637	0.084	-0.124
-556.456	-130.308	-0.357	0.049
-555.442	478.671	0.066	0.150
-554.427	-51.999	0.093	0.044
-553.412	-200.000	0.002	0.145
-552.398	14.636	0.102	0.080
-551.383	-200.000	-0.002	-0.335
-550.369	-101.985	0.190	0.046
-549.354	-21.462	0.089	-0.055
-548.339	-67.467	0.505	0.199
-547.325	-200.000	0.053	0.314
-546.310	-52.059	-0.075	-0.035
-545.296	200.660	0.045	0.069
-544.281	-200.000	0.014	-0.136
-543.266	-138.356	-0.333	0.037
-542.252	-91.363	-0.066	-0.019
-541.237	363.664	-0.196	0.396
-540.223	18.933	-0.257	-0.207
-539.208	-106.730	0.014	0.003
-538.193	215.780	0.130	-0.207
-537.179	-200.000	-0.310	0.000
-536.164	-12.067	0.109	-0.072
-535.150	800.000	0.023	-0.088
-534.135	99.755	-0.208	-0.242
-533.121	86.560	0.167	0.185
-532.106	-75.751	0.263	0.094
-531.091	736.525	-0.025	-0.068
-530.077	283.714	0.062	-0.112
-529.062	-200.000	-0.013	-0.081
-528.048	-200.000	0.014	-0.075
-527.033	800.000	-0.084	0.300
-526.018	800.000	-0.083	0.263
-525.004	800.000	-0.050	0.154
-523.989	4.867	0.360	0.266
-522.975	-0.212	-0.166	0.119
-521.960	68.985	0.256	0.265
-520.945	-42.809	0.285	0.146
-519.931	-133.760	-0.017	-0.002
-518.916	204.465	-0.198	0.308
-517.902	-23.439	-0.441	0.266
-516.887	152.599	0.195	0.267
-515.872	-51.599	-0.046	-0.022
-514.858	256.556	0.136	-0.235
-513.843	-103.709	-0.287	0.067
-512.829	184.290	0.149	-0.222
-511.814	800.000	-0.036	0.139
-510.799	187.137	-0.082	0.122
-509.785	291.875	0.069	-0.127
-508.770	416.755	0.078	0.167
-507.756	-38.033	-0.045	0.024
-506.741	-200.000	-0.027	-0.172
-505.726	-200.000	-0.031	-0.310
-504.712	800.000	0.025	-0.089
-503.697	-170.363	-0.350	-0.012
-502.683	-198.077	-0.292	0.002
-501.668	-200.000	0.189	-0.001
-500.653	-6.221	-0.338	-0.232
-499.639	-155.615	-0.099	-0.006
-498.624	-200.000	-0.006	0.156
-497.610	-200.000	-0.013	0.115
-496.595	-200.000	0.001	-0.071
-495.581	261.055	-0.141	-0.244
-494.566	-200.000	-0.030	-0.362
-493.551	800.000	-0.088	-0.346
-492.537	-62.681	0.174	-0.072
-491.522	-45.669	-0.014	0.007
-490.508	103.264	-0.202	-0.238
-489.493	-32.143	0.092	-0.051
-488.478	11.548	-0.232	0.178
-487.464	-200.000	0.042	-0.250
-486.449	-200.000	-0.053	0.237
-485.435	15.433	0.040	0.032
-484.420	-85.236	-0.070	0.022
-483.405	612.362	0.098	0.247
-482.391	800.000	0.063	0.231
-481.376	-191.873	0.047	-0.000
-480.362	-82.252	-0.044	0.014
-479.347	-85.190	0.365	0.114
-478.332	47.795	0.160	0.150
-477.318	212.964	-0.146	0.231
-476.303	13.469	0.181	0.141
-475.289	59.913	-0.183	-0.182
-474.274	53.773	-0.177	-0.170
-473.259	-9.507	0.312	-0.209
-472.245	3.300	-0.139	0.101
-471.230	169.647	0.166	0.238
-470.216	94.394	0.240	0.274
-469.201	256.024	0.064	0.111
-468.186	-118.378	-0.183	0.033
-467.172	143.657	-0.122	0.162
-466.157	-77.127	0.369	0.129
-465.143	172.952	-0.201	-0.291
-464.128	800.000	-0.066	-0.220
-463.113	46.346	-0.180	0.168
-462.099	-16.574	0.439	-0.279
-461.084	-200.000	-0.042	-0.198
-460.070	-175.261	0.200	-0.006
-459.055	-200.000	0.003	0.516
-458.040	-200.000	0.013	0.072
-457.026	155.095	-0.067	-0.092
-456.011	-28.055	-0.339	0.196
-454.997	395.297	-0.041	0.085
-453.982	-14.746	-0.127	0.082
-452.968	87.728	0.263	-0.292
-451.953	100.865	-0.172	0.200
-450.938	173.127	-0.040	0.057
-449.924	-200.000	-0.030	-0.151
-448.909	-7.263	0.077	0.052
-447.895	800.000	-0.033	-0.097
-446.880	-128.343	0.211	-0.030
-445.865	-91.802	0.134	0.038
-444.851	72.139	0.043	-0.045
-443.836	61.548	0.173	-0.172
-442.822	402.772	-0.129	-0.272
-441.807	394.878	-0.044	-0.092
-440.792	-185.728	-0.413	0.006
-439.778	227.050	-0.129	0.210
-438.763	-200.000	0.027	-0.222
-437.749	213.205	0.112	0.177
-436.734	-119.502	0.352	0.061
-435.719	31.545	-0.151	-0.130
-434.705	-119.766	0.200	-0.035
-433.690	57.924	-0.186	-0.182
-432.676	71.095	-0.041	0.042
-431.661	108.306	0.185	0.221
-430.646	-200.000	-0.005	0.445
-429.632	55.416	-0.171	-0.166
-428.617	-62.128	-0.211	0.088
-427.603	124.075	-0.331	-0.416
-426.588	-113.525	0.227	-0.044
-425.573	-200.000	0.047	0.216
-424.559	-200.000	0.008	0.214
-423.544	640.903	-0.040	0.102
-422.530	-15.519	0.210	-0.134
-421.515	146.268	-0.073	0.098
-420.500	126.113	-0.230	0.291
-419.486	-41.316	-0.219	-0.113
-418.471	-145.770	-0.073	0.007
-417.457	149.404	0.110	0.149
-416.442	-126.683	-0.353	-0.052
-415.428	-200.000	0.014	0.189
-414.413	-200.000	-0.038	0.178
-413.398	750.799	-0.038	-0.103
-412.384	800.000	-0.061	0.181
-411.369	98.754	-0.086	0.099
-410.355	-6.261	-0.072	0.049
-409.340	-129.062	0.220	0.031
-408.325	-90.046	-0.143	0.042
-407.311	164.833	0.100	-0.141
-406.296	428.568	0.035	0.075
-405.282	800.000	0.126	0.359
-404.267	-179.459	0.256	0.006
-403.252	-159.837	-0.071	-0.004
-402.238	800.000	0.153	-0.426
-401.223	14.284	-0.139	0.108
-400.209	-72.769	0.040	0.015
-399.194	800.000	-0.111	0.390
-398.179	361.869	0.094	0.189
-397.165	800.000	-0.029	0.114
-396.150	-200.000	0.054	0.389
-395.136	-83.162	0.127	0.041
-394.121	460.489	-0.225	-0.500
-393.106	-94.434	-0.294	-0.080
-392.092	800.000	-0.046	0.185
-391.077	-95.982	0.146	0.039
-390.063	-28.452	0.084	-0.048
-389.048	800.000	0.033	0.111
-388.033	-200.000	0.102	0.478
-387.019	-108.056	0.071	-0.015
-386.004	-160.677	-0.170	-0.009
-384.990	-38.601	0.245	-0.129
-383.975	-200.000	-0.018	-0.180
-382.960	19.309	0.121	0.097
-381.946	57.583	0.067	-0.065
-380.931	-138.976	-0.396	0.043
-379.917	324.200	-0.108	0.207
-378.902	-71.381	0.316	0.118
-377.888	-160.407	-0.031	-0.002
-376.873	-42.244	-0.080	0.041
-375.858	85.055	0.163	-0.179
-374.844	3.253	0.251	-0.183
-373.829	416.045	-0.084	-0.179
-372.815	261.598	0.202	-0.350
-371.800	-3.036	-0.102	-0.071
-370.785	360.574	-0.083	-0.166
-369.771	44.091	-0.183	-0.167
-368.756	-157.198	0.360	-0.022
-367.742	-23.942	-0.100	-0.060
-366.727	-110.368	0.227	0.047
-365.712	-82.556	0.228	-0.074
-364.698	649.902	-0.061	0.156
-363.683	363.625	0.136	-0.273
-362.669	-200.000	-0.033	-0.148
-361.654	-124.498	0.120	-0.019
-360.639	60.023	0.105	0.104
-359.625	138.621	0.013	-0.017
-358.610	800.000	0.049	-0.199
-357.596	-48.307	-0.309	-0.149
-356.581	-154.327	0.349	-0.023
-355.566	-72.304	0.243	-0.090
-354.552	-86.418	0.287	-0.088
-353.537	86.387	-0.095	-0.105
-352.523	111.754	-0.039	-0.047
-351.508	-92.009	0.046	0.013
-350.493	-162.698	-0.378	0.018
-349.479	-15.218	0.166	-0.106
-348.464	-92.824	-0.219	0.061
-347.450	-58.483	-0.052	0.023
-346.435	123.316	-0.161	-0.202
-345.420	-109.575	-0.287	-0.060
-344.406	-112.617	-0.227	-0.045
-343.391	-200.000	0.003	-0.196
-342.377	-200.000	0.022	-0.291
-341.362	37.355	-0.201	0.178
-340.348	-157.184	-0.344	0.021
-339.333	36.613	-0.145	-0.128
-338.318	-27.474	-0.301	-0.175
-337.304	-79.584	-0.335	0.113
-336.289	245.996	0.138	-0.232
-335.275	-38.430	-0.121	0.064
-334.260	101.826	-0.245	0.285
-333.245	8.289	0.029	-0.022
-332.231	-4.058	-0.082	-0.057
-331.216	231.891	-0.108	0.177
-330.202	41.533	0.128	0.115
-329.187	-155.823	0.145	-0.009
-328.172	-22.662	-0.132	0.080
-327.158	480.823	-0.069	-0.156
-326.143	502.649	0.095	-0.220
-325.129	-24.531	0.332	-0.197
-324.114	32.764	0.157	-0.135
-323.099	-71.021	0.102	-0.038
-322.085	800.000	-0.054	0.233
-321.070	-116.101	0.082	-0.015
-320.056	644.636	-0.185	0.470
-319.041	108.226	0.202	-0.240
-318.026	-177.547	0.191	-0.005
-317.012	-200.000	0.025	0.340
-315.997	126.516	-0.136	-0.172
-314.983	-182.522	-0.113	0.002
-313.968	-200.000	0.004	-0.165
-312.953	527.736	-0.080	-0.188
-311.939	-6.092	0.332	-0.226
-310.924	-87.034	0.252	-0.076
-309.910	272.566	0.149	-0.263
-308.895	123.620	0.161	-0.201
-307.880	-114.989	-0.298	-0.056
-306.866	203.480	0.102	-0.158
-305.851	472.575	0.154	-0.346
-304.837	-200.000	-0.024	-0.130
-303.822	501.947	-0.098	-0.227
-302.807	10.023	-0.117	-0.089
-301.793	-118.276	-0.143	0.025
-300.778	-114.165	-0.207	-0.040
-299.764	-52.894	-0.546	0.251
-298.749	-82.604	-0.287	0.093
-297.735	32.753	-0.122	0.105
-296.720	150.921	0.204	0.276
-295.705	534.635	0.110	-0.260
-294.691	293.023	-0.298	-0.541
-293.676	-200.000	0.037	0.413
-292.662	612.363	-0.172	0.429
-291.647	5.269	-0.234	0.172
-290.632	84.414	0.223	0.243
-289.618	326.390	0.115	-0.219
-288.603	-17.836	-0.080	-0.050
-287.589	121.689	0.215	-0.267
-286.574	77.626	0.075	0.079
-285.559	800.000	-0.049	-0.145
-284.545	-51.792	0.180	-0.084
-283.530	0.967	-0.115	-0.082
-282.516	555.205	0.153	0.365
-281.501	-77.463	-0.118	-0.041
-280.486	-40.039	0.246	0.128
-279.472	407.782	-0.089	0.187
-278.457	-200.000	-0.040	0.233
-277.443	-177.531	-0.431	0.010
-276.428	-88.267	-0.156	-0.047
-275.413	42.603	0.099	-0.090
-274.399	-112.906	-0.185	0.036
-273.384	399.610	0.019	-0.041
-272.370	-63.663	-0.104	0.042
-271.355	194.631	-0.037	-0.056
-270.340	800.000	0.055	-0.194
-269.326	-164.077	-0.104	-0.005
-268.311	-200.000	-0.010	0.256
-267.297	-101.975	0.137	0.033
-266.282	64.368	0.169	-0.170
-265.267	800.000	0.064	-0.186
-264.253	-160.169	0.338	-0.018
-263.238	-200.000	0.024	0.199
-262.224	-41.331	0.422	-0.216
-261.209	5.488	0.171	-0.126
-260.195	-138.440	-0.234	0.026
-259.180	-99.050	0.183	-0.046
-258.165	-156.732	-0.480	0.029
-257.151	122.149	0.102	-0.127
-256.136	-68.371	0.207	-0.080
-255.122	-93.390	-0.139	-0.038
-254.107	-200.000	0.017	0.258
-253.092	800.000	-0.125	0.397
-252.078	-200.000	0.024	0.144
-251.063	-100.810	0.359	-0.088
-250.049	66.438	-0.062	0.063
-249.034	369.775	-0.215	0.433
-248.019	-149.491	0.229	0.018
-247.005	-121.468	0.203	0.034
-245.990	633.812	-0.068	-0.170
-244.976	308.852	0.075	-0.140
-243.961	-200.000	0.018	0.195
-242.946	-200.000	-0.029	-0.219
-241.932	-132.234	0.159	-0.020
-240.917	30.861	0.090	-0.076
-239.903	-86.159	-0.234	0.072
-238.888	-29.978	0.230	0.130
-237.873	89.128	-0.053	0.059
-236.859	-3.465	-0.264	0.182
-235.844	800.000	-0.099	-0.311
-234.830	15.795	0.048	0.038
-233.815	-10.893	-0.117	0.077
-232.800	-200.000	-0.058	0.458
-231.786	133.713	-0.018	0.023
-230.771	-123.944	0.202	-0.032
-229.757	800.000	-0.100	0.363
-228.742	439.043	0.082	-0.178
-227.727	800.000	-0.026	0.098
-226.713	-162.557	0.116	-0.006
-225.698	48.148	0.135	-0.125
-224.684	63.663	0.262	0.261
-223.669	800.000	0.055	0.187
-222.655	-44.812	0.087	-0.043
-221.640	-118.432	-0.350	0.062
-220.625	11.075	-0.053	-0.040
-219.611	500.385	0.034	0.078
-218.596	66.025	-0.124	-0.125
-217.582	-31.641	0.102	0.057
-216.567	-181.202	-0.085	-0.002
-215.552	105.184	-0.118	-0.138
-214.538	-200.000	0.077	-0.410
-213.523	-167.217	0.107	-0.004
-212.509	-200.000	-0.014	-0.098
-211.494	151.048	0.082	0.111
-210.479	58.141	-0.094	0.092
-209.465	-51.141	0.213	0.099
-208.450	-172.460	0.112	0.004
-207.436	24.689	-0.204	-0.167
-206.421	710.564	-0.054	-0.141
-205.406	10.198	-0.167	-0.126
-204.392	-157.737	-0.136	-0.008
-203.377	-32.508	-0.446	-0.247
-202.363	-162.294	-0.262	-0.013
-201.348	-122.298	0.438	-0.071
-200.333	-80.094	0.165	-0.055
-199.319	-22.081	-0.283	0.170
-198.304	800.000	-0.136	0.376
-197.290	13.568	0.135	-0.104
-196.275	62.472	0.232	-0.230
-195.260	-200.000	0.038	-0.190
-194.246	-124.938	0.090	-0.014
-193.231	-52.272	0.210	0.096
-192.217	80.693	-0.075	-0.081
-191.202	-79.830	0.372	0.124
-190.187	-31.056	0.167	-0.093
-189.173	-200.000	-0.038	-0.241
-188.158	157.843	0.159	-0.218
-187.144	800.000	0.120	-0.357
-186.129	-105.508	0.109	-0.025
-185.114	-38.075	-0.186	0.098
-184.100	-75.097	-0.279	-0.099
-183.085	800.000	0.103	-0.314
-182.071	-119.257	0.192	0.033
-181.056	-150.528	-0.183	0.014
-180.042	131.260	-0.085	0.109
-179.027	-94.352	0.267	-0.072
-178.012	-105.531	-0.291	-0.065
-176.998	184.658	-0.031	0.045
-175.983	-103.226	0.114	0.027
-174.969	-82.083	0.365	0.118
-173.954	-114.053	-0.150	-0.029
-172.939	-121.920	0.275	-0.045
-171.925	-67.830	-0.020	0.008
-170.910	-71.035	0.144	0.054
-169.896	165.334	0.128	0.179
-168.881	-138.286	0.162	-0.018
-167.866	183.574	-0.193	-0.283
-166.852	-147.023	-0.135	-0.011
-165.837	13.811	-0.200	0.154
-164.823	-2.651	0.185	-0.128
-163.808	-79.218	0.089	0.030
-162.793	-122.852	0.263	0.042
-161.779	-13.383	-0.043	-0.028
-160.764	-102.984	0.115	-0.027
-159.750	800.000	0.044	0.150
-158.735	90.113	-0.184	-0.204
-157.720	-78.865	-0.139	-0.047
-156.706	482.335	0.164	0.368
-155.691	182.711	0.104	0.152
-154.677	-125.758	0.177	0.027
-153.662	-62.661	0.298	-0.123
-152.647	91.149	-0.015	0.017
-151.633	46.410	0.194	0.178
-150.618	30.256	-0.228	-0.193
-149.604	-88.423	0.290	-0.086
-148.589	604.929	-0.080	-0.196
-147.574	-21.667	0.176	-0.106
-146.560	-200.000	0.019	-0.123
-145.545	-125.248	0.182	-0.028
-144.531	594.537	-0.205	0.503
-143.516	-25.059	0.593	0.348
-142.502	57.340	-0.184	-0.178
-141.487	9.522	0.301	0.225
-140.472	-16.228	0.232	-0.146
-139.458	-154.298	-0.439	0.029
-138.443	202.525	-0.140	-0.214
-137.429	166.827	-0.032	0.045
-136.414	-20.831	-0.230	-0.140
-135.399	-155.095	0.230	0.015
-134.385	3.156	-0.283	-0.204
-133.370	197.163	0.201	0.303
-132.356	-103.255	0.351	0.082
-131.341	-200.000	0.025	0.197
-130.326	-70.142	0.220	-0.083
-129.312	-103.767	-0.257	0.060
-128.297	-43.573	0.042	-0.021
-127.283	-200.000	-0.006	0.347
-126.268	-200.000	-0.057	0.288
-125.253	-76.343	-0.167	-0.058
-124.239	146.163	0.100	0.133
-123.224	-91.099	0.144	-0.041
-122.210	-149.890	-0.190	-0.015
-121.195	-172.744	-0.260	-0.008
-120.180	-36.216	-0.355	0.190
-119.166	-107.162	-0.255	0.056
-118.151	-65.348	0.200	0.079
-117.137	800.000	0.071	0.212
-116.122	-110.999	0.420	0.085
-115.107	-133.152	-0.150	0.019
-114.093	-200.000	-0.050	-0.315
-113.078	59.402	-0.272	-0.265
-112.064	254.586	0.069	0.118
-111.049	-49.182	-0.276	0.131
-110.034	58.757	-0.139	0.135
-109.020	154.582	0.117	-0.159
-108.005	435.940	-0.072	-0.156
-106.991	-163.105	0.160	-0.008
-105.976	103.193	-0.126	-0.147
-104.962	-24.427	0.266	0.157
-103.947	-200.000	-0.070	-0.315
-102.932	209.526	-0.089	0.138
-101.918	311.440	0.094	0.175
-100.903	-200.000	0.009	-0.195
-99.889	195.442	0.085	-0.128
-98.874	5.790	-0.020	0.015
-97.859	28.457	0.131	0.109
-96.845	266.927	0.029	-0.050
-95.830	32.311	0.344	-0.293
-94.816	800.000	-0.070	-0.243
-93.801	147.870	-0.341	-0.454
-92.786	186.153	0.100	-0.147
-91.772	-94.996	0.267	0.071
-90.757	-200.000	0.012	-0.081
-89.743	161.392	0.281	0.389
-88.728	92.372	-0.082	-0.092
-87.713	-200.000	0.083	-0.406
-86.699	-200.000	0.037	-0.445
-85.684	-70.127	0.269	-0.101
-84.670	-58.602	0.073	0.031
-83.655	638.448	-0.069	-0.173
-82.640	-51.342	0.191	-0.088
-81.626	-60.540	0.142	-0.060
-80.611	800.000	-0.163	0.505
-79.597	542.474	0.130	0.305
-78.582	-200.000	0.044	0.196
-77.567	-120.947	0.346	0.058
-76.553	1.945	0.426	0.303
-75.538	139.761	0.139	0.180
-74.524	-50.324	-0.317	-0.148
-73.509	61.702	0.278	0.273
-72.494	251.399	-0.211	0.354
-71.480	-74.848	0.154	0.054
-70.465	29.127	-0.049	-0.041
-69.451	100.644	0.138	-0.158
-68.436	68.417	-0.182	0.184
-67.422	59.772	-0.043	-0.042
-66.407	211.225	0.081	-0.125
-65.392	800.000	0.055	-0.233
-64.378	-200.000	-0.075	0.361
-63.363	99.806	0.055	-0.063
-62.349	800.000	-0.055	0.230
-61.334	84.960	-0.761	-0.824
-60.319	24.059	0.369	0.301
-59.305	-200.000	-0.126	-0.852
-58.290	334.727	0.479	0.916
-57.276	800.000	0.437	1.473
-56.261	-200.000	95.122	564.629
-55.246	650.038	1379.305	3484.230
-54.232	187.851	2603.199	3836.192
-53.217	117.806	2309.702	2806.583
-52.203	44.810	1922.932	1745.905
-51.188	38.292	1709.019	1501.758
-50.173	35.405	1663.677	1440.229
-49.159	52.084	1712.275	1609.665
-48.144	55.793	1729.874	1654.364
-47.130	37.957	1686.077	1478.825
-46.115	34.945	1670.969	1442.842
-45.100	34.796	1666.111	1437.468
-44.086	34.812	1663.549	1435.322
-43.071	34.728	1661.396	1432.779
-42.057	34.772	1658.607	1430.642
-41.042	34.781	1656.498	1428.838
-40.027	34.809	1654.277	1427.075
-39.013	34.746	1652.533	1425.041
-37.998	34.773	1650.769	1423.667
-36.984	34.771	1649.803	1422.764
-35.969	34.907	1648.363	1422.472
-34.954	35.024	1646.389	1421.588
-33.940	34.953	1644.105	1419.028
-32.925	34.958	1642.740	1417.831
-31.911	34.941	1641.362	1416.460
-30.896	34.952	1639.535	1414.910
-29.881	34.864	1638.286	1413.125
-28.867	34.953	1635.665	1411.463
-27.852	34.942	1634.836	1410.609
-26.838	34.954	1633.080	1409.129
-25.823	34.909	1631.608	1407.475
-24.809	34.919	1630.560	1406.588
-23.794	34.992	1628.529	1405.316
-22.779	34.962	1627.679	1404.307
-21.765	34.979	1625.755	1402.711
-20.750	34.930	1624.176	1400.934
-19.736	35.086	1622.267	1400.375
-18.721	35.093	1620.981	1399.262
-17.706	34.938	1619.569	1396.853
-16.692	34.935	1617.692	1395.159
-15.677	34.884	1616.366	1393.588
-14.663	34.938	1615.018	1392.761
-13.648	35.006	1613.482	1391.881
-12.633	34.937	1612.541	1390.510
-11.619	35.084	1610.286	1389.579
-10.604	34.991	1608.723	1387.495
-9.590	34.975	1608.049	1386.745
-8.575	35.017	1606.397	1385.573
-7.560	34.913	1605.392	1383.893
-6.546	34.945	1604.165	1383.012
-5.531	34.948	1602.972	1381.951
-4.517	34.911	1602.173	1380.943
-3.502	35.005	1600.717	1380.312
-2.487	34.972	1599.422	1378.901
-1.473	34.983	1588.315	1369.347
-0.458	32.246	1569.224	1333.455
0.556	30.764	1568.291	1296.345
1.571	27.640	1591.476	1293.278
2.586	26.377	1604.463	1294.673
3.600	23.086	1550.138	1227.920
4.615	14.280	1439.271	1082.969
5.629	6.392	1373.529	984.274
6.644	4.784	1365.018	968.093
7.659	4.761	1363.793	966.996
8.673	4.929	1362.563	967.082
9.688	4.997	1360.693	966.093
10.702	5.021	1358.278	964.438
11.717	8.596	1365.136	991.412
12.731	17.061	1380.731	1055.506
13.746	22.359	1389.152	1094.901
14.761	22.588	1388.397	1095.635
15.775	21.836	1386.077	1089.038
16.790	20.770	1383.045	1079.952
17.804	19.973	1381.043	1073.350
18.819	19.671	1379.681	1070.331
19.834	19.443	1378.970	1068.272
20.848	19.291	1377.705	1066.255
21.863	19.057	1376.790	1064.010
22.877	18.994	1375.110	1062.227
23.892	18.815	1374.660	1060.678
24.907	18.922	1373.408	1060.280
25.921	18.889	1372.535	1059.307
26.936	18.944	1371.869	1059.040
27.950	18.997	1370.863	1058.496
28.965	19.136	1369.645	1058.317
29.980	19.212	1368.680	1057.940
30.994	19.255	1367.477	1057.183
32.009	19.308	1366.718	1056.830
33.023	19.364	1365.336	1056.007
34.038	19.213	1364.057	1054.004
35.053	19.215	1362.363	1052.612
36.067	19.110	1361.779	1051.425
37.082	19.023	1360.973	1050.179
38.096	19.113	1359.744	1049.686
39.111	19.242	1358.693	1049.571
40.126	19.073	1358.154	1048.028
41.140	18.802	1357.245	1045.588
42.155	18.633	1356.358	1043.784
43.169	18.659	1356.462	1043.928
44.184	18.668	1356.120	1043.627
45.199	18.753	1355.105	1043.270
46.213	18.787	1355.264	1043.510
47.228	19.031	1354.447	1044.270
48.242	19.163	1353.197	1044.013
49.257	19.023	1351.803	1041.999
50.271	19.031	1350.015	1040.578
51.286	19.008	1348.934	1039.508
52.301	18.934	1347.977	1038.234
53.315	18.959	1346.155	1036.887
54.330	18.828	1345.401	1035.428
55.344	18.753	1344.072	1033.861
56.359	18.741	1343.406	1033.187
57.374	18.852	1342.371	1032.964
58.388	18.729	1341.213	1031.246
59.403	18.555	1341.200	1030.101
60.417	18.581	1340.368	1029.524
61.432	18.554	1339.258	1028.418
62.447	18.616	1337.890	1027.649
63.461	18.482	1337.171	1026.204
64.476	18.450	1336.151	1025.140
65.490	18.429	1334.729	1023.830
66.505	18.486	1333.345	1023.019
67.520	18.526	1331.597	1021.828
68.534	18.523	1331.101	1021.336
69.549	18.567	1329.744	1020.466
70.563	18.438	1329.014	1019.047
71.578	18.366	1327.627	1017.466
72.593	18.220	1327.039	1016.060
73.607	18.303	1326.135	1015.768
74.622	18.391	1325.445	1015.675
75.636	18.326	1324.927	1014.803
76.651	18.474	1324.066	1014.927
77.666	18.360	1323.725	1013.901
78.680	18.502	1323.000	1014.096
79.695	18.451	1322.437	1013.278
80.709	18.607	1321.913	1013.704
81.724	18.776	1321.164	1014.038
82.739	18.839	1320.515	1013.824
83.753	18.950	1319.896	1013.915
84.768	19.067	1318.592	1013.510
85.782	19.201	1317.670	1013.500
86.797	19.148	1317.191	1012.730
87.812	19.067	1315.395	1010.783
88.826	19.008	1314.202	1009.434
89.841	19.144	1312.961	1009.185
90.855	19.149	1312.076	1008.447
91.870	19.107	1311.804	1007.900
92.884	19.201	1310.655	1007.478
93.899	19.427	1309.484	1007.814
94.914	19.224	1309.370	1006.447
95.928	19.224	1308.580	1005.756
96.943	19.184	1307.586	1004.665
97.957	19.138	1306.185	1003.235
98.972	19.242	1305.066	1002.893
99.987	19.045	1304.695	1001.370
101.001	19.114	1303.626	1000.865
102.016	19.150	1302.424	1000.059
103.030	19.146	1301.929	999.568
104.045	19.100	1300.985	998.486
105.060	19.033	1299.355	996.758
106.074	18.802	1297.578	993.973
107.089	18.599	1296.206	991.658
108.103	18.477	1295.028	989.970
109.118	18.549	1293.871	989.412
110.133	18.555	1292.369	988.208
111.147	18.557	1291.230	987.260
112.162	18.604	1289.878	986.413
113.176	18.699	1288.697	985.966
114.191	18.807	1287.902	985.893
115.206	18.723	1287.286	984.852
116.220	18.697	1285.486	983.239
117.235	18.639	1284.525	982.082
118.249	18.763	1283.257	981.737
119.264	18.581	1282.403	979.958
120.279	18.485	1281.827	978.882
121.293	18.437	1280.717	977.671
122.308	18.441	1279.109	976.382
123.322	18.356	1278.332	975.219
124.337	18.321	1276.948	973.876
125.352	18.256	1276.310	972.936
126.366	18.285	1275.154	972.130
127.381	18.480	1273.824	972.141
128.395	18.424	1272.916	971.043
129.410	18.408	1272.299	970.393
130.424	18.582	1271.211	970.464
131.439	18.574	1270.486	969.778
132.454	18.754	1268.979	969.562
133.468	18.712	1268.612	968.954
134.483	18.726	1267.791	968.322
135.497	18.729	1266.917	967.584
136.512	18.876	1265.679	967.383
137.527	18.762	1264.449	965.715
138.541	18.811	1262.922	964.742
139.556	18.889	1261.686	964.146
140.570	19.050	1260.710	964.215
141.585	18.989	1260.243	963.434
142.600	19.049	1258.655	962.470
143.614	19.206	1258.068	962.814
144.629	19.262	1256.861	962.120
145.643	19.115	1255.873	960.458
146.658	19.073	1254.610	959.172
147.673	18.920	1252.810	956.860
148.687	18.835	1251.595	955.375
149.702	18.683	1250.358	953.499
150.716	18.662	1249.393	952.561
151.731	18.782	1247.533	951.725
152.746	18.666	1246.842	950.474
153.760	18.828	1245.623	950.358
154.775	18.944	1244.354	949.942
155.789	18.906	1243.765	949.202
156.804	18.915	1243.113	948.668
157.819	19.056	1241.614	948.216
158.833	19.088	1241.312	948.080
159.848	19.191	1240.284	947.778
160.862	19.164	1239.242	946.751
161.877	18.871	1237.810	943.962
162.892	18.667	1236.822	942.006
163.906	18.731	1235.848	941.534
164.921	18.808	1234.694	940.992
165.935	18.869	1234.070	940.767
166.950	18.932	1233.354	940.481
167.964	18.966	1232.822	940.179
168.979	18.939	1231.912	939.252
169.994	18.935	1231.178	938.587
171.008	18.949	1230.455	938.034
172.023	19.135	1229.647	938.347
173.037	19.243	1229.051	938.399
174.052	19.056	1228.463	936.846
175.067	18.900	1227.106	934.879
176.081	18.812	1225.714	933.262
177.096	18.832	1225.122	932.834
178.110	18.873	1224.161	932.242
179.125	19.017	1222.466	931.651
180.140	19.051	1221.131	930.732
181.154	19.171	1219.986	930.428
182.169	19.111	1219.682	929.788
183.183	19.214	1218.266	929.184
184.198	19.215	1217.442	928.480
185.213	19.295	1216.225	927.897
186.227	19.243	1215.390	926.899
187.242	19.240	1214.478	926.105
188.256	19.489	1212.928	926.176
189.271	19.515	1212.385	925.822
190.286	19.306	1210.676	923.314
191.300	18.896	1210.269	920.728
192.315	18.660	1208.993	918.413
193.329	18.823	1208.593	918.900
194.344	18.871	1208.373	918.904
195.359	18.998	1207.795	919.062
196.373	19.131	1207.299	919.317
197.388	19.282	1207.194	919.961
198.402	19.354	1206.932	920.061
199.417	19.516	1205.976	920.119
200.432	19.652	1205.338	920.274
201.446	19.770	1204.765	920.380
202.461	19.763	1204.007	919.684
203.475	19.660	1203.516	918.680
204.490	19.552	1201.417	916.421
205.504	19.440	1200.066	914.717
206.519	19.338	1198.808	913.140
207.534	19.227	1198.182	911.996
208.548	19.327	1196.690	911.306
209.563	19.350	1195.953	910.784
210.577	19.432	1195.149	910.525
211.592	19.587	1194.381	910.676
212.607	19.723	1193.380	910.550
213.621	19.665	1192.680	909.629
214.636	19.600	1191.793	908.533
215.650	19.512	1190.642	907.110
216.665	19.599	1190.252	907.191
217.680	19.756	1189.504	907.365
218.694	19.821	1188.765	907.059
219.709	19.805	1187.471	905.912
220.723	19.850	1186.792	905.547
221.738	19.740	1186.255	904.481
222.753	19.703	1185.518	903.647
223.767	19.825	1184.762	903.625
224.782	19.899	1184.298	903.580
225.796	19.867	1184.236	903.284
226.811	20.005	1182.694	902.751
227.826	19.814	1182.036	901.173
228.840	19.740	1181.024	899.935
229.855	19.774	1180.397	899.556
230.869	19.746	1179.422	898.585
231.884	19.674	1178.626	897.525
232.899	19.476	1177.844	895.823
233.913	19.568	1177.203	895.734
234.928	19.545	1175.953	894.587
235.942	19.509	1175.197	893.745
236.957	19.543	1174.601	893.385
237.972	19.528	1174.388	893.071
238.986	19.494	1173.299	891.988
240.001	19.551	1172.414	891.530
241.015	19.552	1171.766	890.963
242.030	19.643	1171.099	890.843
243.045	19.793	1170.149	890.815
244.059	19.662	1169.661	889.692
245.074	19.816	1168.628	889.620
246.088	19.988	1167.861	889.840
247.103	20.005	1167.489	889.565
248.117	20.165	1166.941	889.889
249.132	20.141	1166.366	889.249
250.147	20.399	1165.844	890.096
251.161	20.424	1164.916	889.436
252.176	20.499	1164.459	889.391
253.190	20.568	1164.150	889.431
254.205	20.767	1163.130	889.588
255.220	20.762	1162.692	889.152
256.234	20.604	1162.159	887.858
257.249	20.597	1161.103	886.937
258.263	20.607	1160.590	886.520
259.278	20.718	1159.839	886.433
260.293	20.674	1159.369	885.767
261.307	20.696	1158.783	885.354
262.322	20.733	1158.468	885.226
263.336	20.688	1157.725	884.348
264.351	20.705	1157.081	883.865
265.366	20.777	1156.523	883.725
266.380	20.808	1155.859	883.297
267.395	20.699	1155.036	882.038
268.409	20.695	1153.408	880.696
269.424	20.576	1153.279	879.921
270.439	20.647	1152.905	879.916
271.453	20.487	1151.741	878.142
272.468	20.419	1150.738	876.955
273.482	20.349	1150.216	876.128
274.497	20.458	1149.585	876.118
275.512	20.408	1149.111	875.427
276.526	20.531	1148.083	875.187
277.541	20.531	1147.182	874.423
278.555	20.587	1147.032	874.509
279.570	20.731	1146.209	874.528
280.585	20.712	1145.658	873.935
281.599	20.936	1144.292	873.943
282.614	20.735	1143.000	871.869
283.628	20.674	1141.885	870.639
284.643	20.548	1141.413	869.570
285.657	20.624	1140.801	869.406
286.672	20.553	1139.645	868.091
287.687	20.638	1138.869	867.848
288.701	20.691	1137.574	867.052
289.716	20.629	1137.682	866.745
290.730	20.743	1136.491	866.331
291.745	20.797	1135.897	866.072
292.760	20.754	1135.511	865.487
293.774	20.914	1134.994	865.807
294.789	20.934	1134.487	865.446
295.803	20.885	1133.622	864.464
296.818	20.727	1132.612	862.837
297.833	20.728	1131.851	862.187
298.847	20.728	1130.854	861.349
299.862	20.722	1130.327	860.842
300.876	20.847	1129.592	860.822
301.891	20.864	1129.517	860.776
302.906	20.955	1128.694	860.518
303.920	21.050	1128.129	860.482
304.935	21.158	1127.636	860.563
305.949	21.257	1127.166	860.615
306.964	21.219	1126.403	859.769
307.979	21.184	1125.582	858.896
308.993	21.216	1124.545	858.184
310.008	21.182	1123.901	857.450
311.022	21.220	1122.827	856.740
312.037	21.299	1122.124	856.517
313.052	21.032	1121.366	854.555
314.066	20.899	1120.258	852.983
315.081	20.805	1119.314	851.728
316.095	20.662	1118.944	850.675
317.110	20.818	1117.903	850.566
318.125	20.943	1116.697	850.185
319.139	20.963	1116.157	849.794
320.154	20.823	1115.830	848.790
321.168	20.830	1115.293	848.339
322.183	20.948	1114.264	848.057
323.197	20.938	1113.967	847.707
324.212	20.987	1113.421	847.455
325.227	20.887	1113.013	846.585
326.241	21.104	1111.996	846.789
327.256	20.989	1110.962	845.369
328.270	20.895	1110.643	844.595
329.285	20.921	1109.470	843.752
330.300	21.025	1108.504	843.446
331.314	20.933	1107.646	842.277
332.329	21.024	1106.479	841.754
333.343	20.983	1106.011	841.123
334.358	21.260	1105.043	841.647
335.373	21.375	1104.423	841.657
336.387	21.268	1103.791	840.586
337.402	21.331	1102.878	840.120
338.416	21.329	1102.698	839.898
339.431	21.321	1102.210	839.411
340.446	21.504	1101.354	839.564
341.460	21.592	1100.598	839.338
342.475	21.672	1099.806	839.042
343.489	21.675	1099.561	838.795
344.504	21.772	1098.082	838.054
345.519	21.847	1097.428	837.843
346.533	21.759	1096.901	836.946
347.548	21.837	1095.991	836.546
348.562	21.818	1095.233	835.805
349.577	21.546	1094.571	833.928
350.592	21.460	1093.347	832.512
351.606	21.445	1092.070	831.396
352.621	21.346	1091.516	830.430
353.635	21.236	1091.288	829.662
354.650	21.294	1090.472	829.241
355.665	21.476	1089.546	829.331
356.679	21.476	1089.177	828.973
357.694	21.497	1088.456	828.452
358.708	21.561	1087.984	828.321
359.723	21.767	1087.256	828.668
360.738	21.666	1086.945	827.880
361.752	21.651	1086.570	827.450
362.767	21.663	1085.720	826.786
363.781	21.668	1085.101	826.268
364.796	21.733	1084.707	826.198
365.810	21.819	1084.877	826.659
366.825	22.026	1083.826	826.761
367.840	22.118	1083.168	826.619
368.854	22.225	1082.762	826.741
369.869	22.183	1081.828	825.756
370.883	22.076	1080.555	824.208
371.898	21.959	1080.305	823.395
372.913	21.843	1079.819	822.410
373.927	22.070	1079.206	822.933
374.942	22.174	1078.597	822.885
375.956	22.077	1078.021	821.920
376.971	22.063	1077.473	821.359
377.986	22.116	1076.810	821.032
379.000	22.177	1076.470	820.983
380.015	22.356	1075.728	821.179
381.029	22.295	1075.180	820.404
382.044	22.240	1074.710	819.717
383.059	22.260	1074.006	819.201
384.073	22.129	1073.644	818.244
385.088	22.264	1072.138	817.649
386.102	22.308	1071.321	817.160
387.117	22.214	1069.795	815.488
388.132	22.042	1069.152	814.126
389.146	21.907	1068.209	812.713
390.161	22.016	1067.563	812.652
391.175	22.074	1066.657	812.158
392.190	22.147	1066.077	811.985
393.205	22.319	1065.634	812.368
394.219	22.319	1065.060	811.861
395.234	22.193	1063.546	810.051
396.248	22.225	1062.820	809.575
397.263	21.977	1061.963	807.713
398.278	21.991	1061.157	807.088
399.292	21.891	1060.748	806.249
400.307	21.721	1059.924	804.769
401.321	22.016	1058.833	805.223
402.336	21.892	1058.713	804.493
403.350	21.894	1057.703	803.664
404.365	21.866	1057.367	803.207
405.380	22.049	1056.351	803.204
406.394	22.102	1055.498	802.723
407.409	22.268	1055.032	803.059
408.423	22.331	1054.551	802.906
409.438	22.406	1053.777	802.591
410.453	22.574	1053.132	802.794
411.467	22.650	1052.477	802.567
412.482	22.607	1051.779	801.769
413.496	22.556	1051.348	801.139
414.511	22.798	1050.801	801.751
415.526	22.905	1050.496	801.934
416.540	22.983	1049.946	801.793
417.555	22.734	1049.473	800.234
418.569	22.831	1048.586	799.927
419.584	22.687	1048.450	799.099
420.599	22.590	1047.816	798.103
421.613	154.431	1399.745	1788.440
422.628	141.630	1451.019	1788.567
