DTS Sentinel unit serial number:	SN413079Multiplexer serial number:	ORYXHardware model number:	OX4-SRSoftware version number:	ORYX F/W v4.00 Oryx Data Collector v3.7.2.0data status	okinstallation	princeton_trtdifferential loss correction	single-endedforward channel	channel 2reverse channel	N/Adate	2019/09/14time	18:51:35forward acquisition time	60.00reverse acquisition time	0.00gamma	496.2192k internal	0.2320k external	0.2320temperature offset calibration	1.0100default loss term (dB/km)	0.3790temperature slope calibration	1.0000multiplexer offset coefficient	1.0000multiplexer slope coefficient	1.0000fibre end	0.00T internal ref (°C)	35.94T ext. ref 1 (°C)	4.90T ext. ref 2 (°C)	29.67length (m)	temperature (°C)	Stokes	anti-Stokes-747.200	133.888	0.176	-0.230
-746.185	-200.000	0.002	-0.069
-745.171	-200.000	-0.001	-0.028
-744.156	206.600	-0.206	0.325
-743.142	-48.616	0.292	-0.142
-742.127	610.486	0.034	-0.087
-741.112	-59.540	-0.424	0.184
-740.098	-200.000	0.009	0.105
-739.083	179.355	0.066	-0.098
-738.069	-200.000	0.014	0.156
-737.054	-26.149	-0.188	0.112
-736.039	733.389	0.099	-0.267
-735.025	25.450	-0.031	0.026
-734.010	84.963	-0.347	-0.384
-732.996	126.893	-0.189	-0.242
-731.981	42.564	-0.302	-0.278
-730.966	-109.727	-0.312	0.066
-729.952	800.000	0.076	-0.280
-728.937	-6.131	-0.301	0.207
-727.923	307.336	0.137	-0.258
-726.908	-105.391	-0.399	-0.092
-725.894	-90.820	-0.157	-0.046
-724.879	154.932	0.194	-0.270
-723.864	-200.000	0.012	-0.193
-722.850	-200.000	0.015	-0.083
-721.835	50.934	-0.205	0.196
-720.821	800.000	-0.100	-0.436
-719.806	-45.604	-0.130	0.065
-718.791	800.000	0.078	0.217
-717.777	-13.091	-0.068	0.045
-716.762	-23.226	-0.137	-0.083
-715.748	313.386	-0.143	-0.271
-714.733	-146.876	-0.422	0.037
-713.718	292.027	-0.173	0.318
-712.704	296.901	-0.203	-0.376
-711.689	-119.025	-0.131	0.023
-710.675	190.030	0.167	0.253
-709.660	-200.000	0.011	-0.081
-708.645	-66.898	0.129	-0.051
-707.631	800.000	-0.052	-0.177
-706.616	-200.000	-0.010	0.112
-705.602	381.914	-0.036	-0.074
-704.587	119.666	-0.302	0.378
-703.572	-200.000	-0.045	-0.281
-702.558	-55.783	0.260	0.117
-701.543	45.627	-0.135	-0.126
-700.529	-173.989	0.084	-0.002
-699.514	77.381	0.096	-0.103
-698.499	-72.998	-0.158	0.058
-697.485	-120.314	-0.351	0.060
-696.470	-104.633	0.161	0.037
-695.456	-40.499	-0.024	-0.012
-694.441	-106.110	0.063	-0.014
-693.426	-200.000	-0.009	-0.093
-692.412	800.000	-0.094	0.325
-691.397	28.665	-0.234	-0.200
-690.383	-168.952	-0.326	0.012
-689.368	-26.076	-0.249	0.148
-688.354	-5.691	-0.194	-0.134
-687.339	800.000	-0.070	0.244
-686.324	-80.594	-0.188	-0.063
-685.310	101.119	-0.062	0.073
-684.295	-147.409	-0.097	-0.008
-683.281	-46.565	-0.084	0.041
-682.266	-79.420	-0.044	-0.015
-681.251	800.000	0.070	-0.201
-680.237	-197.633	-0.163	-0.001
-679.222	42.042	-0.210	0.192
-678.208	708.877	-0.091	0.242
-677.193	-111.784	-0.182	-0.037
-676.178	-5.698	0.059	0.041
-675.164	-99.768	-0.102	-0.026
-674.149	-200.000	0.034	-0.204
-673.135	-74.729	0.080	0.029
-672.120	69.760	-0.221	0.230
-671.105	139.503	-0.108	0.144
-670.091	-161.667	0.308	0.016
-669.076	261.755	-0.091	0.159
-668.062	-200.000	-0.034	-0.285
-667.047	83.634	0.071	0.078
-666.032	800.000	0.070	0.223
-665.018	-39.957	-0.114	0.060
-664.003	-116.342	-0.149	0.028
-662.989	61.640	-0.254	-0.255
-661.974	-79.247	-0.283	-0.097
-660.959	71.223	-0.204	-0.214
-659.945	-89.129	0.305	-0.091
-658.930	-200.000	-0.009	-0.469
-657.916	-0.071	0.166	-0.119
-656.901	93.271	0.260	0.297
-655.886	705.014	-0.122	0.323
-654.872	9.062	0.155	-0.118
-653.857	464.288	0.131	-0.294
-652.843	-11.874	-0.058	0.038
-651.828	0.070	0.322	0.231
-650.814	112.843	0.267	-0.326
-649.799	598.136	0.111	-0.277
-648.784	-144.748	0.184	0.017
-647.770	-29.031	0.032	-0.019
-646.755	22.508	-0.170	0.140
-645.741	-159.072	0.305	0.017
-644.726	232.509	0.273	-0.452
-643.711	800.000	0.009	-0.035
-642.697	-200.000	-0.087	0.399
-641.682	-200.000	-0.040	-0.189
-640.668	433.723	-0.082	-0.180
-639.653	-49.991	0.205	-0.098
-638.638	430.267	-0.119	0.259
-637.624	-200.000	-0.035	-0.192
-636.609	800.000	-0.047	0.147
-635.595	-200.000	0.012	0.186
-634.580	-200.000	-0.043	0.240
-633.565	-25.202	0.143	0.085
-632.551	-102.586	-0.320	-0.077
-631.536	72.483	-0.161	0.168
-630.522	-200.000	-0.010	-0.108
-629.507	-200.000	0.034	-0.281
-628.492	-89.753	-0.387	-0.114
-627.478	246.842	-0.048	0.081
-626.463	-200.000	-0.004	-0.099
-625.449	-200.000	0.020	-0.294
-624.434	-55.559	-0.206	-0.093
-623.419	800.000	-0.022	0.078
-622.405	107.701	0.112	-0.134
-621.390	71.992	-0.080	-0.084
-620.376	-17.442	0.292	0.185
-619.361	800.000	0.048	0.147
-618.346	306.587	-0.075	0.141
-617.332	-200.000	-0.005	0.122
-616.317	-200.000	-0.050	-0.296
-615.303	-32.572	-0.239	0.134
-614.288	8.167	0.238	0.180
-613.273	800.000	0.115	-0.353
-612.259	37.514	0.139	0.124
-611.244	176.074	-0.151	-0.221
-610.230	-200.000	-0.009	-0.069
-609.215	-135.080	0.039	-0.005
-608.201	800.000	0.058	-0.193
-607.186	90.330	0.067	-0.075
-606.171	303.776	-0.054	-0.100
-605.157	-200.000	0.008	0.198
-604.142	-11.995	0.151	0.099
-603.128	-159.208	0.503	-0.028
-602.113	-60.837	-0.109	0.046
-601.098	-2.280	0.196	0.138
-600.084	3.890	0.187	0.137
-599.069	78.119	-0.161	0.172
-598.055	18.269	-0.072	-0.058
-597.040	158.853	-0.091	0.127
-596.025	800.000	0.035	0.124
-595.011	341.418	0.143	0.281
-593.996	28.250	-0.085	-0.072
-592.982	-32.453	-0.119	0.067
-591.967	800.000	0.060	0.167
-590.952	-200.000	-0.000	-0.180
-589.938	-200.000	-0.042	-0.221
-588.923	-200.000	0.007	-0.355
-587.909	58.516	-0.136	-0.134
-586.894	800.000	-0.146	-0.569
-585.879	-86.260	-0.195	0.060
-584.865	-156.616	-0.208	0.013
-583.850	35.664	-0.120	-0.106
-582.836	-200.000	0.063	0.297
-581.821	-102.430	0.280	-0.067
-580.806	800.000	0.020	-0.090
-579.792	-97.204	-0.155	0.041
-578.777	-200.000	0.008	0.371
-577.763	307.200	0.051	0.095
-576.748	-38.013	0.201	-0.107
-575.733	-2.359	-0.202	-0.143
-574.719	800.000	0.066	0.261
-573.704	2.785	-0.152	-0.111
-572.690	466.112	-0.161	0.363
-571.675	577.998	0.083	-0.205
-570.661	265.042	0.120	-0.210
-569.646	496.959	-0.047	0.109
-568.631	-151.173	-0.096	-0.007
-567.617	21.602	-0.106	0.087
-566.602	-71.898	-0.166	0.062
-565.588	213.110	0.137	-0.217
-564.573	-200.000	-0.023	-0.307
-563.558	656.146	-0.173	-0.446
-562.544	65.455	-0.041	-0.041
-561.529	800.000	0.075	0.232
-560.515	50.118	-0.044	-0.042
-559.500	-26.311	0.097	-0.057
-558.485	211.582	-0.130	-0.205
-557.471	-200.000	0.046	-0.233
-556.456	-200.000	-0.027	-0.250
-555.442	140.586	0.121	-0.160
-554.427	-46.221	-0.094	-0.046
-553.412	158.166	-0.081	0.113
-552.398	-200.000	0.040	0.196
-551.383	494.509	0.074	-0.171
-550.369	-200.000	0.005	-0.142
-549.354	52.922	0.271	-0.260
-548.339	-107.731	-0.198	0.043
-547.325	800.000	-0.094	-0.293
-546.310	88.880	-0.200	-0.224
-545.296	-64.214	0.266	-0.109
-544.281	412.653	-0.071	-0.151
-543.266	800.000	0.040	0.157
-542.252	-85.809	-0.205	-0.064
-541.237	2.842	0.062	-0.045
-540.223	210.820	0.067	0.106
-539.208	-56.026	0.109	0.049
-538.193	-43.026	-0.178	0.090
-537.179	-188.159	-0.268	-0.003
-536.164	-124.021	-0.197	-0.031
-535.150	693.653	-0.117	-0.307
-534.135	182.795	-0.158	-0.233
-533.121	511.872	-0.026	0.060
-532.106	145.061	-0.030	0.041
-531.091	46.299	0.108	-0.100
-530.077	158.694	0.173	0.241
-529.062	393.404	-0.049	0.102
-528.048	-138.605	0.456	0.050
-527.033	-200.000	-0.048	0.219
-526.018	-200.000	-0.012	-0.096
-525.004	-56.966	0.286	-0.127
-523.989	800.000	-0.023	-0.077
-522.975	-200.000	0.126	-0.000
-521.960	-200.000	-0.011	0.119
-520.945	-32.573	0.198	-0.111
-519.931	65.708	0.164	-0.167
-518.916	165.148	0.058	0.082
-517.902	620.963	0.067	0.170
-516.887	117.254	-0.030	-0.037
-515.872	-28.506	0.159	-0.092
-514.858	-200.000	0.035	-0.196
-513.843	800.000	0.084	0.232
-512.829	48.481	-0.062	0.059
-511.814	-200.000	-0.002	-0.164
-510.799	-39.689	-0.215	0.113
-509.785	311.571	-0.172	-0.323
-508.770	197.959	0.043	-0.066
-507.756	-113.783	0.203	0.040
-506.741	121.648	-0.153	0.191
-505.726	-47.465	0.063	-0.031
-504.712	33.988	-0.094	0.082
-503.697	99.957	0.147	0.171
-502.683	-18.280	0.141	-0.089
-501.668	-38.769	0.398	-0.210
-500.653	800.000	-0.052	-0.172
-499.639	244.568	-0.087	0.146
-498.624	-129.528	-0.272	-0.038
-497.610	-63.622	0.295	0.121
-496.595	-10.727	-0.270	0.179
-495.581	85.756	-0.245	0.269
-494.566	-200.000	0.037	-0.223
-493.551	93.747	0.223	0.253
-492.537	-86.648	0.133	0.041
-491.522	254.066	0.066	0.114
-490.508	-200.000	0.040	0.230
-489.493	589.338	0.130	-0.320
-488.478	-25.858	-0.215	-0.127
-487.464	-200.000	-0.000	0.207
-486.449	-200.000	0.013	0.205
-485.435	-151.754	0.107	0.008
-484.420	800.000	-0.118	0.430
-483.405	21.506	-0.196	0.160
-482.391	164.328	0.114	-0.161
-481.376	800.000	-0.063	0.269
-480.362	-200.000	-0.047	0.258
-479.347	-119.449	-0.170	-0.029
-478.332	-33.352	-0.290	0.161
-477.318	-112.847	-0.159	0.032
-476.303	-23.426	-0.193	0.116
-475.289	269.453	0.070	-0.123
-474.274	-200.000	0.065	0.372
-473.259	-50.873	0.055	-0.026
-472.245	-200.000	0.079	0.456
-471.230	-43.392	0.105	-0.053
-470.216	-124.221	0.232	0.036
-469.201	114.665	0.162	-0.197
-468.186	9.174	-0.122	0.092
-467.172	380.688	-0.071	-0.146
-466.157	-152.748	0.283	0.020
-465.143	-1.798	-0.277	0.195
-464.128	-106.767	-0.192	0.043
-463.113	239.157	-0.138	-0.230
-462.099	-182.662	-0.267	0.005
-461.084	-34.661	-0.080	0.044
-460.070	21.180	-0.061	-0.050
-459.055	800.000	0.062	0.210
-458.040	-130.627	0.207	-0.028
-457.026	-35.103	0.321	-0.175
-456.011	12.066	-0.177	0.136
-454.997	-87.609	-0.370	-0.112
-453.982	-117.850	0.139	0.025
-452.968	-19.525	-0.133	-0.082
-451.953	-90.757	-0.055	-0.016
-450.938	165.550	0.017	-0.024
-449.924	800.000	0.074	0.208
-448.909	-99.503	-0.153	-0.038
-447.895	-200.000	-0.045	0.206
-446.880	-116.537	-0.129	0.024
-445.865	331.590	0.088	0.170
-444.851	-36.154	0.230	0.124
-443.836	800.000	0.033	0.113
-442.822	-118.347	0.267	-0.047
-441.807	-200.000	-0.009	0.131
-440.792	287.647	0.034	0.061
-439.778	220.128	-0.049	-0.078
-438.763	-200.000	-0.044	-0.308
-437.749	3.794	-0.457	0.333
-436.734	321.456	0.147	0.280
-435.719	-180.208	0.295	0.006
-434.705	-125.424	-0.086	0.013
-433.690	-90.533	-0.016	0.005
-432.676	800.000	0.144	0.417
-431.661	764.664	-0.092	-0.251
-430.646	335.881	0.158	-0.307
-429.632	40.079	-0.160	-0.144
-428.617	-200.000	-0.025	-0.220
-427.603	-112.261	-0.055	0.011
-426.588	-76.403	-0.146	-0.051
-425.573	-200.000	-0.015	-0.317
-424.559	-30.506	0.132	0.075
-423.544	341.414	0.009	0.017
-422.530	800.000	-0.038	-0.168
-421.515	-200.000	-0.018	-0.127
-420.500	-18.505	-0.188	-0.117
-419.486	787.342	-0.021	0.056
-418.471	-200.000	-0.012	-0.126
-417.457	-57.637	0.415	0.181
-416.442	-59.209	-0.129	-0.056
-415.428	107.195	-0.181	-0.215
-414.413	258.632	-0.113	0.194
-413.398	-67.524	-0.170	-0.067
-412.384	-200.000	0.054	-0.472
-411.369	73.443	0.142	-0.148
-410.355	-44.737	-0.265	-0.132
-409.340	-138.863	-0.301	-0.033
-408.325	-31.393	-0.269	-0.151
-407.311	4.614	-0.122	-0.090
-406.296	255.452	0.209	0.358
-405.282	129.380	0.215	0.274
-404.267	-200.000	0.023	-0.201
-403.252	-42.439	0.108	-0.055
-402.238	-157.277	0.407	-0.025
-401.223	-145.347	0.178	-0.016
-400.209	172.407	0.219	0.314
-399.194	800.000	-0.036	0.111
-398.179	-200.000	-0.006	0.133
-397.165	-89.692	-0.115	-0.034
-396.150	178.296	-0.074	-0.107
-395.136	-200.000	-0.054	0.445
-394.121	-78.165	0.179	0.061
-393.106	69.007	0.160	-0.164
-392.092	-53.295	-0.104	0.048
-391.077	-13.282	0.109	-0.070
-390.063	19.039	0.139	0.112
-389.048	3.953	0.031	0.023
-388.033	-177.679	-0.173	0.004
-387.019	-200.000	0.076	-0.486
-386.004	-23.558	0.308	0.184
-384.990	179.880	0.308	0.450
-383.975	8.316	-0.211	0.158
-382.960	800.000	0.079	-0.249
-381.946	42.049	-0.097	0.088
-380.931	-145.506	0.201	-0.018
-379.917	20.879	-0.085	-0.068
-378.902	164.134	-0.295	-0.414
-377.888	-200.000	0.029	-0.160
-376.873	800.000	0.082	0.235
-375.858	558.754	-0.123	0.297
-374.844	68.715	-0.114	-0.116
-373.829	-200.000	-0.048	0.317
-372.815	800.000	-0.019	0.052
-371.800	-163.631	-0.220	-0.010
-370.785	3.274	-0.157	0.114
-369.771	-70.940	0.413	0.155
-368.756	57.645	-0.062	0.060
-367.742	78.193	-0.121	0.129
-366.727	-32.068	-0.174	-0.097
-365.712	-114.366	-0.229	-0.044
-364.698	-23.381	0.237	-0.142
-363.683	31.250	-0.291	0.249
-362.669	397.612	0.032	0.067
-361.654	-200.000	0.062	-0.566
-360.639	163.434	0.227	0.317
-359.625	-64.051	0.259	-0.105
-358.610	-200.000	0.008	0.219
-357.596	0.473	0.205	0.146
-356.581	63.395	0.174	-0.174
-355.566	800.000	0.086	-0.275
-354.552	260.655	-0.125	0.216
-353.537	-83.459	0.293	-0.094
-352.523	-200.000	0.009	0.100
-351.508	-200.000	0.034	-0.278
-350.493	470.244	-0.078	-0.175
-349.479	57.045	-0.174	0.168
-348.464	133.661	0.077	0.099
-347.450	-81.028	-0.198	0.065
-346.435	14.298	-0.282	0.219
-345.420	-200.000	0.069	-0.654
-344.406	440.919	-0.073	-0.158
-343.391	-200.000	0.031	0.282
-342.377	-39.260	-0.169	-0.088
-341.362	-192.464	-0.204	-0.002
-340.348	-1.535	-0.078	-0.055
-339.333	29.082	-0.257	0.217
-338.318	58.652	-0.036	-0.035
-337.304	-73.466	0.270	-0.098
-336.289	-52.080	0.020	-0.009
-335.275	800.000	-0.121	0.377
-334.260	112.935	0.107	-0.129
-333.245	25.331	-0.234	-0.193
-332.231	-23.023	-0.147	0.088
-331.216	-200.000	-0.021	-0.156
-330.202	-71.182	0.181	0.067
-329.187	-47.457	0.023	-0.011
-328.172	-200.000	0.002	-0.121
-327.158	154.065	-0.086	0.117
-326.143	-200.000	-0.012	0.134
-325.129	-66.619	-0.194	0.077
-324.114	31.299	0.076	-0.065
-323.099	800.000	-0.083	-0.228
-322.085	118.820	-0.150	-0.184
-321.070	443.896	-0.093	-0.203
-320.056	-168.409	-0.100	0.004
-319.041	-200.000	-0.067	0.345
-318.026	-120.400	-0.140	-0.024
-317.012	37.245	-0.253	0.223
-315.997	90.975	-0.133	-0.149
-314.983	-17.841	0.092	0.057
-313.968	-69.007	0.117	-0.045
-312.953	-46.510	0.250	-0.122
-311.939	22.223	0.254	0.207
-310.924	263.709	0.043	-0.075
-309.910	221.687	-0.044	0.070
-308.895	344.445	-0.170	0.331
-307.880	46.069	0.040	-0.036
-306.866	-147.928	-0.287	0.024
-305.851	21.525	-0.117	0.094
-304.837	-200.000	0.002	0.293
-303.822	184.143	0.129	-0.190
-302.807	-200.000	0.006	-0.068
-301.793	-200.000	-0.006	-0.263
-300.778	88.306	0.106	-0.117
-299.764	103.182	0.092	-0.108
-298.749	-11.352	0.254	-0.166
-297.735	800.000	-0.051	0.148
-296.720	-56.638	0.063	0.028
-295.705	422.381	-0.080	0.170
-294.691	-200.000	-0.001	-0.011
-293.676	-2.651	0.128	-0.089
-292.662	-64.400	-0.278	0.112
-291.647	-8.417	-0.278	-0.186
-290.632	-48.983	-0.137	-0.065
-289.618	167.523	-0.073	-0.102
-288.603	-200.000	-0.023	-0.143
-287.589	-43.401	0.193	0.097
-286.574	-200.000	0.044	0.242
-285.559	-60.153	-0.290	-0.123
-284.545	-98.698	-0.253	0.064
-283.530	-22.426	0.126	-0.076
-282.516	10.965	0.065	-0.049
-281.501	83.027	-0.209	0.226
-280.486	-200.000	0.092	0.420
-279.472	365.302	0.153	0.305
-278.457	-76.534	0.186	0.065
-277.443	80.674	0.118	-0.126
-276.428	-61.890	0.200	0.083
-275.413	800.000	0.063	-0.207
-274.399	211.890	-0.042	0.066
-273.384	800.000	0.024	0.077
-272.370	-200.000	-0.032	0.290
-271.355	151.136	-0.206	-0.279
-270.340	-99.074	0.337	0.085
-269.326	-37.398	0.295	0.156
-268.311	800.000	-0.035	0.132
-267.297	-3.997	0.294	-0.202
-266.282	-200.000	-0.025	0.125
-265.267	800.000	-0.068	0.246
-264.253	71.347	-0.069	0.071
-263.238	-136.222	-0.108	-0.012
-262.224	167.892	0.100	0.141
-261.209	25.267	0.198	0.163
-260.195	-82.221	-0.190	0.062
-259.180	212.171	0.084	-0.131
-258.165	-105.351	0.207	-0.047
-257.151	12.979	0.212	-0.163
-256.136	104.093	0.187	-0.218
-255.122	-200.000	-0.047	0.237
-254.107	596.575	-0.092	0.226
-253.092	10.117	-0.116	0.088
-252.078	800.000	-0.053	0.154
-251.063	506.956	-0.110	0.254
-250.049	10.369	-0.173	0.130
-249.034	90.622	-0.042	-0.047
-248.019	-9.057	0.098	0.065
-247.005	237.711	0.038	0.062
-245.990	-118.656	-0.194	0.034
-244.976	-200.000	0.014	-0.059
-243.961	800.000	0.032	0.116
-242.946	349.739	-0.088	0.172
-241.932	-200.000	-0.033	-0.181
-240.917	-101.144	0.150	-0.037
-239.903	105.404	-0.099	-0.116
-238.888	-72.489	0.121	0.044
-237.873	-197.264	0.421	-0.003
-236.859	87.079	-0.159	-0.174
-235.844	-200.000	0.001	-0.015
-234.830	38.026	0.092	-0.081
-233.815	39.627	0.104	-0.092
-232.800	-200.000	0.005	0.030
-231.786	-114.170	0.339	0.065
-230.771	73.084	-0.184	-0.190
-229.757	-89.895	0.173	-0.050
-228.742	612.496	-0.116	-0.287
-227.727	-89.627	-0.079	0.023
-226.713	347.838	0.085	0.165
-225.698	107.636	0.090	0.106
-224.684	208.735	0.108	0.168
-223.669	153.773	-0.209	-0.284
-222.655	-57.815	-0.015	-0.006
-221.640	270.431	-0.137	0.238
-220.625	-95.849	-0.201	0.053
-219.611	-200.000	-0.037	0.265
-218.596	85.487	-0.143	0.156
-217.582	96.730	0.219	0.248
-216.567	-200.000	-0.026	0.301
-215.552	-200.000	-0.072	-0.339
-214.538	-145.530	-0.210	0.019
-213.523	-180.028	-0.192	0.004
-212.509	16.234	-0.117	0.091
-211.494	-200.000	0.012	0.277
-210.479	610.280	-0.048	0.118
-209.465	96.443	0.251	-0.284
-208.450	103.136	0.197	-0.228
-207.436	184.610	-0.107	0.157
-206.421	641.542	-0.153	-0.385
-205.406	211.251	0.131	-0.204
-204.392	53.946	0.037	-0.036
-203.377	-101.131	-0.203	0.049
-202.363	-200.000	-0.014	-0.101
-201.348	-200.000	-0.001	0.111
-200.333	-3.754	-0.171	0.118
-199.319	23.671	-0.080	0.065
-198.304	-143.303	0.255	-0.024
-197.290	-200.000	0.033	-0.402
-196.275	100.273	0.142	0.164
-195.260	-200.000	-0.001	-0.074
-194.246	800.000	0.086	-0.332
-193.231	322.062	0.105	0.197
-192.217	-61.762	0.245	0.101
-191.202	800.000	-0.091	0.300
-190.187	499.754	0.084	0.192
-189.173	-80.818	0.176	-0.058
-188.158	213.262	-0.065	-0.102
-187.144	-9.004	0.090	0.060
-186.129	469.951	0.076	0.170
-185.114	401.747	-0.037	0.077
-184.100	-61.732	0.281	0.117
-183.085	424.491	0.056	-0.119
-182.071	138.624	-0.145	0.188
-181.056	131.686	-0.264	0.336
-180.042	-138.400	0.110	-0.012
-179.027	-43.892	0.215	-0.107
-178.012	-101.042	0.157	-0.038
-176.998	-200.000	-0.038	-0.199
-175.983	-92.096	0.059	0.016
-174.969	-37.285	0.015	0.008
-173.954	-90.492	0.511	-0.146
-172.939	188.247	0.167	-0.246
-171.925	-62.873	0.224	-0.092
-170.910	376.937	-0.140	0.283
-169.896	-57.507	0.346	0.150
-168.881	-123.363	-0.140	-0.022
-167.866	-156.349	-0.211	-0.013
-166.852	-200.000	0.039	0.184
-165.837	-72.592	-0.293	0.107
-164.823	636.237	0.109	-0.273
-163.808	-200.000	0.010	-0.083
-162.793	-80.188	-0.270	-0.089
-161.779	64.150	-0.318	-0.316
-160.764	-62.212	0.123	-0.051
-159.750	-59.820	-0.231	-0.098
-158.735	72.578	-0.185	-0.190
-157.720	800.000	0.028	-0.098
-156.706	35.464	-0.229	-0.198
-155.691	107.003	-0.040	0.047
-154.677	800.000	0.114	-0.323
-153.662	-14.696	0.183	0.116
-152.647	-200.000	-0.095	-0.421
-151.633	240.397	0.187	-0.309
-150.618	800.000	-0.066	-0.212
-149.604	405.517	-0.077	0.161
-148.589	155.838	-0.098	0.134
-147.574	28.871	-0.155	0.129
-146.560	-200.000	0.001	0.059
-145.545	-200.000	0.015	-0.086
-144.531	-38.000	0.190	-0.100
-143.516	-80.324	0.152	0.050
-142.502	-200.000	-0.054	-0.239
-141.487	-200.000	0.033	0.184
-140.472	-38.481	-0.216	0.113
-139.458	-79.057	0.109	0.037
-138.443	394.979	-0.103	-0.213
-137.429	-33.009	0.153	-0.084
-136.414	-200.000	-0.061	-0.285
-135.399	-159.319	-0.236	-0.013
-134.385	45.840	0.166	0.152
-133.370	-1.911	-0.304	-0.211
-132.356	248.470	-0.088	-0.148
-131.341	57.154	0.117	-0.113
-130.326	-115.635	0.347	0.064
-129.312	8.968	-0.135	-0.100
-128.297	-16.469	-0.197	0.124
-127.283	135.145	0.131	0.168
-126.268	-17.141	0.410	-0.255
-125.253	97.404	0.113	0.128
-124.239	800.000	0.042	0.123
-123.224	185.300	-0.119	0.175
-122.210	310.565	0.101	-0.187
-121.195	531.591	-0.012	-0.027
-120.180	232.776	0.151	-0.244
-119.166	41.817	-0.145	0.129
-118.151	-200.000	0.004	0.212
-117.137	-144.741	-0.400	0.036
-116.122	-90.383	0.430	0.123
-115.107	-80.604	0.060	0.020
-114.093	175.703	-0.055	0.078
-113.078	-33.699	-0.180	0.098
-112.064	541.603	-0.115	0.270
-111.049	406.156	-0.099	0.206
-110.034	800.000	0.093	0.264
-109.020	476.804	0.141	-0.315
-108.005	-23.882	0.147	0.087
-106.991	573.649	0.167	0.401
-105.976	-44.784	0.046	-0.023
-104.962	11.515	-0.115	-0.087
-103.947	-113.648	-0.177	0.034
-102.932	-29.260	-0.142	0.080
-101.918	-122.589	-0.446	-0.071
-100.903	-68.263	0.130	0.050
-99.889	-25.225	-0.083	0.049
-98.874	128.851	0.065	-0.082
-97.859	342.414	-0.124	-0.239
-96.845	28.306	-0.127	0.106
-95.830	-122.272	-0.700	0.113
-94.816	141.793	0.206	0.269
-93.801	670.911	0.074	-0.189
-92.786	-200.000	0.013	0.229
-91.772	4.288	-0.216	0.156
-90.757	800.000	0.076	0.234
-89.743	160.119	0.144	-0.197
-88.728	30.241	-0.262	0.220
-87.713	-82.594	0.175	0.056
-86.699	202.708	-0.103	0.157
-85.684	-27.616	-0.106	-0.061
-84.670	53.332	0.106	0.100
-83.655	118.430	-0.301	0.366
-82.640	15.725	0.080	-0.062
-81.626	685.144	0.037	-0.096
-80.611	-28.531	-0.108	-0.061
-79.597	-108.872	0.335	0.071
-78.582	309.852	0.178	0.329
-77.567	800.000	-0.016	-0.053
-76.553	-42.655	-0.306	-0.154
-75.538	263.331	0.114	0.195
-74.524	-45.753	-0.265	0.129
-73.509	383.399	0.113	-0.230
-72.494	552.197	0.117	-0.278
-71.480	-200.000	0.011	0.366
-70.465	-200.000	-0.009	-0.267
-69.451	-18.866	0.150	-0.092
-68.436	138.315	-0.080	-0.103
-67.422	52.537	0.217	0.204
-66.407	125.413	0.162	-0.201
-65.392	-200.000	0.017	-0.479
-64.378	-48.953	0.107	0.050
-63.363	-198.232	-0.073	-0.000
-62.349	800.000	-0.045	-0.136
-61.334	142.816	-0.639	-0.836
-60.319	42.419	0.342	0.306
-59.305	800.000	-0.183	-0.789
-58.290	200.695	0.492	0.744
-57.276	800.000	0.462	1.437
-56.261	-200.000	94.486	566.467
-55.246	657.261	1376.206	3482.064
-54.232	191.012	2590.971	3836.480
-53.217	120.007	2297.718	2804.782
-52.203	45.963	1915.165	1744.235
-51.188	39.398	1703.676	1501.705
-50.173	36.384	1659.202	1440.012
-49.159	53.725	1706.650	1612.606
-48.144	57.323	1724.693	1656.751
-47.130	39.054	1680.690	1478.615
-46.115	36.121	1665.701	1443.449
-45.100	35.861	1661.193	1437.546
-44.086	35.722	1658.737	1434.323
-43.071	35.802	1655.825	1432.349
-42.057	35.770	1653.980	1430.459
-41.042	35.723	1652.217	1428.522
-40.027	35.812	1649.426	1426.715
-39.013	35.796	1648.021	1425.327
-37.998	35.742	1646.307	1423.388
-36.984	35.830	1644.831	1422.703
-35.969	35.911	1643.846	1422.393
-34.954	35.903	1641.992	1420.673
-33.940	35.899	1640.112	1418.962
-32.925	35.925	1638.715	1417.888
-31.911	35.986	1636.436	1416.312
-30.896	35.950	1635.065	1414.801
-29.881	35.899	1632.956	1412.545
-28.867	35.995	1631.431	1411.874
-27.852	35.894	1630.595	1410.352
-26.838	35.970	1628.686	1409.203
-25.823	35.956	1627.626	1408.125
-24.809	36.029	1626.060	1407.250
-23.794	35.999	1624.763	1405.852
-22.779	36.029	1622.951	1404.452
-21.765	35.995	1621.244	1402.666
-20.750	35.989	1619.405	1400.977
-19.736	36.000	1618.637	1400.341
-18.721	36.002	1616.637	1398.570
-17.706	35.965	1615.302	1397.088
-16.692	35.933	1613.805	1395.505
-15.677	35.906	1612.669	1394.270
-14.663	36.024	1610.732	1393.397
-13.648	35.958	1609.727	1391.996
-12.633	35.922	1608.490	1390.609
-11.619	35.966	1606.326	1388.999
-10.604	36.023	1604.628	1387.891
-9.590	35.962	1603.555	1386.464
-8.575	36.017	1601.967	1385.432
-7.560	35.876	1601.543	1384.000
-6.546	35.994	1599.905	1383.378
-5.531	35.874	1599.162	1381.815
-4.517	35.965	1597.667	1381.120
-3.502	35.978	1596.693	1380.321
-2.487	35.979	1595.090	1378.888
-1.473	35.709	1583.209	1366.640
-0.458	32.449	1563.084	1326.287
0.556	28.867	1561.780	1288.927
1.571	26.031	1585.288	1287.993
2.586	25.376	1598.326	1293.752
3.600	22.249	1545.157	1228.793
4.615	13.477	1434.724	1083.698
5.629	6.190	1369.035	988.334
6.644	5.022	1361.165	975.265
7.659	4.894	1359.417	973.128
8.673	4.743	1358.646	971.544
9.688	4.931	1356.719	971.250
10.702	4.847	1353.869	968.606
11.717	7.964	1360.094	992.420
12.731	15.928	1374.337	1052.694
13.746	20.687	1381.206	1087.681
14.761	20.197	1379.283	1083.012
15.775	19.107	1376.476	1073.918
16.790	18.032	1373.730	1064.983
17.804	17.236	1371.275	1058.034
18.819	16.836	1370.082	1054.529
19.834	16.662	1368.948	1052.478
20.848	16.332	1367.968	1049.586
21.863	16.057	1366.677	1046.793
22.877	15.922	1365.653	1045.079
23.892	15.842	1364.857	1043.880
24.907	15.991	1363.833	1043.927
25.921	15.995	1362.734	1043.016
26.936	16.030	1361.564	1042.247
27.950	15.968	1360.830	1041.213
28.965	16.059	1360.205	1041.199
29.980	16.127	1359.305	1040.839
30.994	16.332	1357.443	1040.587
32.009	16.359	1356.540	1039.970
33.023	16.256	1355.270	1038.268
34.038	16.138	1354.425	1036.807
35.053	16.137	1353.038	1035.647
36.067	16.154	1351.423	1034.424
37.082	16.121	1351.057	1033.849
38.096	16.148	1349.853	1033.001
39.111	16.203	1348.899	1032.515
40.126	16.224	1347.844	1031.742
41.140	15.960	1347.371	1029.679
42.155	15.811	1346.790	1028.231
43.169	15.787	1346.608	1027.855
44.184	15.862	1346.430	1028.085
45.199	15.737	1346.204	1027.060
46.213	15.945	1345.542	1027.731
47.228	15.944	1344.879	1027.132
48.242	16.088	1343.313	1026.718
49.257	16.152	1341.470	1025.612
50.271	16.051	1340.845	1024.426
51.286	16.068	1339.196	1023.179
52.301	16.048	1337.961	1022.025
53.315	16.004	1336.745	1020.739
54.330	15.886	1335.660	1019.107
55.344	15.916	1334.669	1018.440
56.359	16.084	1332.924	1018.034
57.374	15.870	1332.340	1016.203
58.388	15.812	1331.645	1015.239
59.403	15.851	1331.384	1015.183
60.417	15.778	1331.166	1014.486
61.432	15.753	1330.173	1013.488
62.447	15.754	1328.963	1012.484
63.461	15.602	1328.270	1010.950
64.476	15.613	1326.993	1009.959
65.490	15.771	1325.653	1009.793
66.505	15.737	1324.259	1008.440
67.520	15.698	1322.799	1007.005
68.534	15.740	1321.979	1006.543
69.549	15.838	1320.836	1006.168
70.563	15.663	1320.019	1004.411
71.578	15.687	1318.362	1003.209
72.593	15.584	1317.659	1001.968
73.607	15.533	1317.316	1001.315
74.622	15.607	1316.161	1000.792
75.636	15.643	1315.329	1000.282
76.651	15.625	1315.244	1000.022
77.666	15.622	1314.590	999.419
78.680	15.610	1313.911	998.743
79.695	15.632	1313.572	998.526
80.709	15.763	1312.608	998.483
81.724	15.844	1311.800	998.262
82.739	15.893	1311.013	997.863
83.753	15.983	1310.373	997.821
84.768	16.040	1309.462	997.377
85.782	16.143	1308.190	996.930
86.797	16.148	1307.189	996.107
87.812	16.087	1305.708	994.530
88.826	16.076	1304.784	993.673
89.841	16.180	1303.136	992.945
90.855	16.028	1302.746	991.663
91.870	16.151	1301.676	991.484
92.884	16.135	1300.877	990.698
93.899	16.296	1299.879	990.792
94.914	16.222	1299.263	989.799
95.928	16.221	1298.436	989.076
96.943	16.144	1297.906	988.135
97.957	16.141	1296.577	987.017
98.972	16.143	1295.461	986.096
99.987	16.151	1294.066	984.994
101.001	16.177	1293.679	984.762
102.016	16.065	1292.893	983.419
103.030	16.128	1291.683	982.780
104.045	16.155	1290.865	982.230
105.060	16.036	1289.820	980.655
106.074	15.938	1288.548	979.030
107.089	15.867	1286.626	977.073
108.103	15.795	1285.251	975.524
109.118	15.764	1284.161	974.434
110.133	15.794	1282.876	973.545
111.147	15.699	1281.584	971.931
112.162	15.883	1280.540	972.112
113.176	15.968	1279.287	971.564
114.191	15.962	1278.344	970.730
115.206	15.931	1277.029	969.469
116.220	15.952	1275.790	968.559
117.235	15.981	1274.888	967.954
118.249	15.785	1274.126	966.166
119.264	15.843	1272.969	965.537
120.279	15.765	1272.305	964.499
121.293	15.727	1271.223	963.377
122.308	15.784	1269.709	962.469
123.322	15.684	1268.690	961.042
124.337	15.634	1267.824	960.017
125.352	15.687	1266.502	959.232
126.366	15.812	1265.665	959.225
127.381	15.753	1264.616	958.008
128.395	15.709	1263.332	956.702
129.410	15.819	1262.637	956.718
130.424	15.861	1261.818	956.250
131.439	15.803	1261.195	955.367
132.454	15.884	1259.971	954.810
133.468	15.948	1259.139	954.459
134.483	15.873	1258.607	953.547
135.497	15.909	1257.925	953.149
136.512	15.939	1256.213	951.936
137.527	15.923	1255.346	951.108
138.541	15.929	1253.858	949.926
139.556	15.967	1252.299	948.878
140.570	16.106	1251.354	948.862
141.585	16.188	1250.270	948.412
142.600	16.191	1249.159	947.505
143.614	16.243	1248.568	947.262
144.629	16.217	1247.518	946.241
145.643	16.312	1246.064	945.582
146.658	16.114	1245.180	943.724
147.673	16.040	1243.361	941.845
148.687	16.021	1242.006	940.630
149.702	16.006	1241.251	939.892
150.716	15.889	1239.673	937.961
151.731	15.995	1238.522	937.599
152.746	15.925	1237.373	936.253
153.760	16.039	1236.037	935.797
154.775	16.037	1235.389	935.209
155.789	16.105	1234.174	934.584
156.804	16.091	1233.100	933.611
157.819	16.302	1231.631	933.582
158.833	16.269	1231.182	932.978
159.848	16.285	1230.660	932.589
160.862	16.289	1229.073	931.325
161.877	16.180	1227.849	929.716
162.892	16.069	1226.712	928.161
163.906	16.025	1225.911	927.230
164.921	15.971	1225.343	926.421
165.935	16.084	1224.348	926.210
166.950	16.182	1223.120	925.736
167.964	16.092	1222.782	924.906
168.979	16.099	1222.071	924.322
169.994	16.106	1221.580	923.908
171.008	16.175	1220.716	923.551
172.023	16.199	1219.814	922.917
173.037	16.319	1219.225	923.045
174.052	16.288	1218.470	922.225
175.067	16.110	1217.175	920.188
176.081	16.107	1216.110	919.289
177.096	16.059	1215.586	918.549
178.110	16.134	1213.905	917.603
179.125	16.029	1213.306	916.502
180.140	16.239	1211.728	916.367
181.154	16.309	1210.575	915.794
182.169	16.163	1209.814	914.349
183.183	16.248	1208.786	913.949
184.198	16.327	1207.474	913.301
185.213	16.345	1206.303	912.432
186.227	16.464	1205.142	912.115
187.242	16.557	1204.044	911.709
188.256	16.494	1203.156	910.614
189.271	16.553	1202.290	910.196
190.286	16.561	1201.093	909.250
191.300	16.104	1200.512	906.276
192.315	16.058	1199.619	905.274
193.329	16.042	1199.076	904.699
194.344	16.292	1197.947	905.108
195.359	16.293	1197.961	905.043
196.373	16.366	1196.986	904.620
197.388	16.515	1196.989	905.337
198.402	16.574	1196.755	905.394
199.417	16.655	1196.230	905.351
200.432	16.758	1195.163	905.013
201.446	16.728	1194.620	904.366
202.461	16.774	1193.544	903.717
203.475	16.752	1192.654	902.842
204.490	16.723	1191.259	901.552
205.504	16.637	1190.160	900.185
206.519	16.607	1188.589	898.756
207.534	16.614	1187.634	897.992
208.548	16.619	1186.626	897.179
209.563	16.509	1186.394	896.337
210.577	16.608	1185.125	895.823
211.592	16.732	1184.178	895.686
212.607	16.824	1183.241	895.383
213.621	16.791	1182.421	894.508
214.636	16.905	1181.452	894.298
215.650	16.763	1180.757	892.948
216.665	16.727	1179.980	892.091
217.680	16.914	1178.986	892.243
218.694	16.935	1178.084	891.592
219.709	16.995	1177.118	891.097
220.723	16.904	1176.617	890.160
221.738	16.941	1175.886	889.722
222.753	16.896	1175.129	888.839
223.767	16.874	1174.442	888.124
224.782	17.027	1173.997	888.509
225.796	17.039	1173.598	888.191
226.811	16.941	1172.999	887.145
227.826	16.950	1172.129	886.457
228.840	16.985	1170.920	885.647
229.855	17.088	1170.026	885.429
230.869	16.995	1169.446	884.427
231.884	16.911	1168.468	883.171
232.899	16.846	1167.825	882.270
233.913	16.917	1166.847	881.824
234.928	16.822	1166.254	880.802
235.942	16.880	1165.627	880.551
236.957	16.922	1164.562	879.889
237.972	16.941	1163.771	879.308
238.986	16.844	1163.438	878.479
240.001	16.877	1162.708	878.022
241.015	16.943	1161.740	877.553
242.030	16.975	1160.861	876.980
243.045	16.962	1160.386	876.476
244.059	17.002	1159.551	875.972
245.074	17.055	1158.764	875.574
246.088	17.119	1157.850	875.137
247.103	17.104	1156.944	874.293
248.117	17.193	1156.815	874.577
249.132	17.346	1156.170	874.802
250.147	17.436	1155.511	874.689
251.161	17.460	1154.766	874.169
252.176	17.446	1153.912	873.372
253.190	17.543	1153.218	873.270
254.205	17.598	1152.793	873.153
255.220	17.539	1152.217	872.335
256.234	17.567	1151.408	871.788
257.249	17.669	1150.819	871.788
258.263	17.678	1149.913	871.072
259.278	17.550	1149.655	870.144
260.293	17.678	1149.351	870.492
261.307	17.686	1148.595	869.881
262.322	17.674	1148.077	869.351
263.336	17.662	1147.269	868.600
264.351	17.732	1146.590	868.369
265.366	17.768	1145.794	867.871
266.380	17.783	1145.486	867.635
267.395	17.816	1144.041	866.634
268.409	17.639	1143.763	865.444
269.424	17.702	1142.979	865.096
270.439	17.665	1142.420	864.409
271.453	17.703	1141.571	863.882
272.468	17.643	1140.821	862.934
273.482	17.699	1139.682	862.282
274.497	17.661	1139.282	861.712
275.512	17.712	1138.934	861.626
276.526	17.673	1138.119	860.736
277.541	17.659	1137.376	860.029
278.555	17.694	1136.417	859.405
279.570	17.806	1135.922	859.518
280.585	17.814	1135.330	859.036
281.599	17.920	1134.289	858.707
282.614	17.823	1133.157	857.286
283.628	17.839	1131.657	856.156
284.643	17.934	1130.899	855.981
285.657	17.837	1130.361	855.012
286.672	17.724	1129.575	853.778
287.687	17.841	1128.513	853.483
288.701	17.818	1128.244	853.086
289.716	17.955	1127.344	853.015
290.730	17.897	1126.148	851.746
291.745	17.952	1125.405	851.382
292.760	17.916	1125.243	851.004
293.774	17.945	1124.629	850.610
294.789	18.086	1124.052	850.800
295.803	18.122	1123.143	850.219
296.818	18.102	1122.468	849.530
297.833	17.827	1122.034	847.761
298.847	18.046	1121.205	848.148
299.862	17.923	1120.237	846.733
300.876	18.089	1119.571	846.974
301.891	18.318	1118.814	847.460
302.906	18.118	1118.188	845.922
303.920	18.237	1117.685	846.054
304.935	18.305	1116.961	845.767
305.949	18.324	1116.535	845.468
306.964	18.393	1115.746	845.135
307.979	18.305	1114.863	843.957
308.993	18.187	1114.375	842.929
310.008	18.236	1113.755	842.629
311.022	18.371	1112.617	842.356
312.037	18.442	1112.022	842.179
313.052	18.273	1110.745	840.310
314.066	18.282	1109.837	839.594
315.081	18.221	1108.675	838.339
316.095	18.199	1108.144	837.758
317.110	18.208	1107.179	836.998
318.125	18.113	1106.568	835.996
319.139	18.177	1105.684	835.568
320.154	18.244	1105.097	835.378
321.168	18.158	1104.890	834.726
322.183	18.212	1104.115	834.330
323.197	18.246	1103.550	833.994
324.212	18.346	1102.734	833.790
325.227	18.372	1102.338	833.546
326.241	18.334	1101.861	832.928
327.256	18.299	1101.073	832.088
328.270	18.339	1100.087	831.462
329.285	18.204	1099.126	830.007
330.300	18.386	1098.122	830.058
331.314	18.201	1097.398	828.539
332.329	18.246	1096.498	828.005
333.343	18.383	1095.331	827.712
334.358	18.415	1094.588	827.231
335.373	18.382	1094.266	826.760
336.387	18.499	1093.331	826.541
337.402	18.486	1092.470	825.755
338.416	18.483	1092.131	825.409
339.431	18.492	1091.535	824.932
340.446	18.659	1090.789	825.097
341.460	18.718	1089.824	824.577
342.475	18.718	1089.667	824.386
343.489	18.885	1088.696	824.382
344.504	18.862	1087.453	823.255
345.519	19.028	1086.203	823.032
346.533	18.911	1085.935	822.195
347.548	18.930	1085.183	821.643
348.562	18.802	1084.569	820.494
349.577	18.877	1083.795	820.196
350.592	18.839	1082.443	818.916
351.606	18.626	1082.116	817.584
352.621	18.615	1081.418	816.931
353.635	18.626	1080.645	816.328
354.650	18.684	1079.772	815.870
355.665	18.648	1079.728	815.593
356.679	18.815	1078.708	815.547
357.694	18.804	1078.376	815.168
358.708	18.755	1077.665	814.326
359.723	18.737	1077.279	813.880
360.738	18.882	1076.050	813.565
361.752	18.841	1075.781	813.097
362.767	19.012	1074.906	813.168
363.781	18.896	1074.656	812.362
364.796	18.859	1074.227	811.791
365.810	19.108	1073.472	812.322
366.825	19.128	1072.774	811.818
367.840	19.290	1072.458	812.269
368.854	19.253	1071.959	811.645
369.869	19.229	1070.968	810.712
370.883	19.134	1070.017	809.470
371.898	19.191	1069.212	809.061
372.913	19.233	1068.474	808.627
373.927	19.219	1068.321	808.372
374.942	19.268	1067.856	808.181
375.956	19.148	1067.544	807.308
376.971	19.250	1066.769	807.132
377.986	19.349	1065.934	806.891
379.000	19.355	1065.250	806.331
380.015	19.415	1065.071	806.400
381.029	19.508	1064.467	806.310
382.044	19.514	1063.324	805.399
383.059	19.486	1062.908	804.881
384.073	19.420	1062.145	803.927
385.088	19.403	1061.166	803.034
386.102	19.522	1060.233	802.811
387.117	19.285	1059.321	800.946
388.132	19.309	1058.212	800.149
389.146	19.340	1057.611	799.770
390.161	19.279	1056.715	798.739
391.175	19.278	1056.467	798.475
392.190	19.336	1055.463	797.916
393.205	19.580	1054.494	798.241
394.219	19.608	1053.952	797.887
395.234	19.484	1052.989	796.518
396.248	19.369	1051.997	795.163
397.263	19.282	1051.191	794.082
398.278	19.430	1050.311	794.031
399.292	19.410	1049.398	793.179
400.307	19.347	1049.103	792.596
401.321	19.369	1048.382	792.082
402.336	19.209	1048.093	791.060
403.350	19.455	1046.830	791.162
404.365	19.468	1046.350	790.791
405.380	19.384	1045.943	790.028
406.394	19.448	1045.161	789.661
407.409	19.545	1044.302	789.384
408.423	19.695	1043.485	789.383
409.438	19.685	1042.915	788.834
410.453	19.648	1042.439	788.235
411.467	19.707	1041.928	788.047
412.482	19.789	1041.173	787.784
413.496	19.850	1040.312	787.339
414.511	19.836	1039.924	786.912
415.526	19.868	1039.524	786.686
416.540	19.939	1039.068	786.593
417.555	20.028	1038.324	786.366
418.569	19.955	1037.431	785.287
419.584	19.876	1037.226	784.704
420.599	19.865	1036.814	784.271
421.613	151.391	1399.454	1788.723
422.628	138.398	1452.287	1788.842
