DTS Sentinel unit serial number:	SN413079Multiplexer serial number:	ORYXHardware model number:	OX4-SRSoftware version number:	ORYX F/W v4.00 Oryx Data Collector v3.7.2.0data status	okinstallation	princeton_trtdifferential loss correction	single-endedforward channel	channel 2reverse channel	N/Adate	2019/09/14time	00:59:35forward acquisition time	60.00reverse acquisition time	0.00gamma	496.2192k internal	0.2338k external	0.2338temperature offset calibration	1.0129default loss term (dB/km)	0.3790temperature slope calibration	1.0000multiplexer offset coefficient	1.0000multiplexer slope coefficient	1.0000fibre end	0.00T internal ref (°C)	26.37T ext. ref 1 (°C)	3.18T ext. ref 2 (°C)	21.31length (m)	temperature (°C)	Stokes	anti-Stokes-747.200	-200.000	-0.033	0.291
-746.185	800.000	0.197	0.611
-745.171	290.675	-0.127	0.232
-744.156	71.859	-0.050	0.053
-743.142	8.287	0.282	0.213
-742.127	-200.000	0.023	0.447
-741.112	-200.000	-0.013	0.260
-740.098	800.000	-0.030	0.125
-739.083	-55.748	-0.088	-0.040
-738.069	800.000	0.136	0.453
-737.054	800.000	0.035	0.126
-736.039	540.975	-0.057	-0.137
-735.025	-200.000	0.006	0.244
-734.010	-200.000	-0.021	0.235
-732.996	58.972	0.130	-0.128
-731.981	6.798	0.273	-0.204
-730.966	753.955	0.080	0.217
-729.952	-134.115	-0.422	0.052
-728.937	800.000	-0.046	0.166
-727.923	86.871	-0.354	-0.392
-726.908	-100.270	-0.054	-0.013
-725.894	-109.112	-0.071	-0.015
-724.879	-80.993	-0.126	0.042
-723.864	119.817	0.095	0.118
-722.850	800.000	0.118	-0.404
-721.835	-200.000	0.055	-0.313
-720.821	36.785	-0.244	-0.216
-719.806	175.705	-0.148	0.216
-718.791	38.757	0.017	-0.015
-717.777	27.719	0.233	-0.197
-716.762	800.000	-0.022	0.079
-715.748	401.927	0.079	-0.167
-714.733	-56.189	-0.080	0.036
-713.718	188.972	0.089	-0.134
-712.704	284.719	-0.069	-0.125
-711.689	322.718	0.141	0.269
-710.675	-131.800	-0.171	0.022
-709.660	-90.443	0.241	-0.070
-708.645	-47.118	-0.068	-0.033
-707.631	-200.000	-0.018	-0.177
-706.616	-200.000	0.015	-0.086
-705.602	50.808	0.205	0.194
-704.587	-32.131	0.507	0.284
-703.572	48.059	0.088	0.082
-702.558	-166.252	-0.045	-0.002
-701.543	-119.267	-0.421	-0.074
-700.529	-200.000	-0.006	-0.185
-699.514	-140.005	-0.087	0.009
-698.499	-142.943	-0.096	0.009
-697.485	800.000	-0.051	0.151
-696.470	753.828	-0.161	0.436
-695.456	-7.915	-0.134	-0.091
-694.441	-33.404	-0.180	-0.100
-693.426	-35.448	-0.403	-0.219
-692.412	-60.984	0.435	-0.184
-691.397	672.898	0.170	-0.442
-690.383	120.281	-0.036	0.045
-689.368	800.000	-0.123	0.384
-688.354	-13.453	-0.167	0.109
-687.339	88.439	-0.013	-0.014
-686.324	800.000	0.090	0.378
-685.310	168.215	0.032	0.046
-684.295	-23.967	0.065	-0.039
-683.281	-200.000	-0.045	-0.421
-682.266	15.759	-0.140	0.110
-681.251	360.876	0.157	-0.315
-680.237	70.903	0.287	0.298
-679.222	-93.607	-0.318	0.088
-678.208	-63.362	0.159	0.065
-677.193	-200.000	-0.019	-0.189
-676.178	-200.000	-0.045	0.260
-675.164	-200.000	-0.020	-0.099
-674.149	-144.145	-0.323	-0.030
-673.135	62.249	0.192	-0.192
-672.120	-51.581	-0.230	-0.107
-671.105	69.869	-0.109	-0.113
-670.091	3.316	0.350	-0.255
-669.076	282.060	0.133	0.238
-668.062	156.290	0.093	0.129
-667.047	-11.564	-0.248	0.163
-666.032	101.354	-0.042	-0.049
-665.018	800.000	-0.053	0.172
-664.003	800.000	-0.076	0.219
-662.989	-200.000	0.001	0.166
-661.974	125.541	0.140	0.177
-660.959	-176.001	-0.273	-0.007
-659.945	46.524	0.125	-0.116
-658.930	-149.242	0.159	-0.013
-657.916	287.394	-0.110	-0.199
-656.901	88.147	0.187	-0.207
-655.886	282.762	-0.031	0.055
-654.872	268.914	0.119	0.209
-653.857	337.395	-0.064	-0.125
-652.843	83.378	0.142	-0.154
-651.828	-129.848	0.224	0.031
-650.814	7.811	-0.071	-0.053
-649.799	39.011	-0.117	-0.105
-648.784	-200.000	-0.049	0.312
-647.770	-55.973	0.164	0.073
-646.755	800.000	-0.050	-0.181
-645.741	556.879	-0.008	-0.020
-644.726	-102.737	-0.181	0.043
-643.711	205.760	0.136	0.211
-642.697	-200.000	0.004	-0.128
-641.682	403.592	-0.081	-0.170
-640.668	-200.000	-0.036	0.188
-639.653	297.374	0.042	-0.077
-638.638	200.911	0.053	-0.082
-637.624	-200.000	0.004	0.073
-636.609	525.426	0.119	-0.280
-635.595	800.000	0.072	0.208
-634.580	-83.736	-0.149	-0.048
-633.565	90.036	-0.245	0.274
-632.551	-200.000	0.025	0.275
-631.536	-23.403	0.272	-0.163
-630.522	-152.833	-0.191	0.014
-629.507	25.055	-0.105	0.087
-628.492	-163.735	-0.236	-0.011
-627.478	160.720	0.041	0.057
-626.463	20.360	-0.292	-0.236
-625.449	50.699	0.275	-0.260
-624.434	-6.940	-0.311	-0.211
-623.419	-71.547	-0.388	0.145
-622.405	-200.000	0.010	-0.098
-621.390	545.093	0.136	-0.325
-620.376	12.793	0.082	-0.063
-619.361	677.275	-0.019	-0.050
-618.346	-24.319	0.031	-0.019
-617.332	800.000	0.023	-0.098
-616.317	-200.000	-0.031	-0.194
-615.303	-114.648	-0.155	-0.030
-614.288	-200.000	-0.004	-0.082
-613.273	-82.146	0.125	0.041
-612.259	-128.207	-0.023	0.003
-611.244	-200.000	0.000	0.120
-610.230	258.849	-0.017	-0.029
-609.215	173.746	-0.184	-0.265
-608.201	-46.895	0.233	-0.114
-607.186	-166.239	-0.373	-0.016
-606.171	-137.351	0.274	0.031
-605.157	-200.000	-0.044	0.234
-604.142	-71.755	0.134	0.050
-603.128	43.780	0.055	-0.050
-602.113	-78.697	-0.333	-0.114
-601.098	-122.895	-0.140	0.023
-600.084	281.769	0.105	0.188
-599.069	-67.118	0.224	-0.088
-598.055	150.969	-0.168	-0.228
-597.040	800.000	0.038	-0.124
-596.025	293.731	0.112	-0.204
-595.011	800.000	-0.086	0.251
-593.996	290.681	-0.079	0.143
-592.982	-172.750	-0.318	-0.010
-591.967	99.002	-0.133	-0.153
-590.952	-200.000	0.020	-0.164
-589.938	-49.991	-0.209	0.099
-588.923	-174.800	-0.311	-0.009
-587.909	-200.000	-0.065	-0.320
-586.894	549.008	-0.122	0.291
-585.879	177.740	0.135	-0.196
-584.865	-200.000	-0.003	-0.112
-583.850	-183.278	-0.126	-0.002
-582.836	-44.459	-0.091	-0.045
-581.821	40.702	-0.112	0.101
-580.806	-110.815	0.177	-0.036
-579.792	-200.000	-0.022	-0.294
-578.777	800.000	0.116	0.350
-577.763	-61.690	0.203	-0.085
-576.748	491.118	-0.114	0.260
-575.733	-200.000	0.040	0.255
-574.719	-38.509	-0.225	0.118
-573.704	241.182	0.250	0.416
-572.690	-200.000	-0.055	0.296
-571.675	-66.501	-0.190	-0.075
-570.661	-200.000	-0.003	0.064
-569.646	-87.877	-0.299	-0.090
-568.631	-39.372	0.020	0.011
-567.617	37.738	0.151	-0.133
-566.602	390.169	-0.166	-0.344
-565.588	23.500	0.446	-0.365
-564.573	-200.000	-0.011	0.118
-563.558	800.000	0.056	-0.188
-562.544	3.091	-0.050	-0.036
-561.529	800.000	0.070	0.243
-560.515	243.880	0.218	0.365
-559.500	-86.935	0.532	-0.162
-558.485	-200.000	-0.020	-0.367
-557.471	-136.473	0.242	-0.028
-556.456	-103.445	0.331	0.078
-555.442	-73.126	0.273	-0.100
-554.427	48.081	0.084	-0.078
-553.412	-128.395	-0.266	-0.038
-552.398	158.838	-0.033	0.045
-551.383	-76.070	0.114	0.040
-550.369	800.000	-0.063	-0.252
-549.354	800.000	-0.098	-0.290
-548.339	-172.089	0.530	-0.017
-547.325	-72.361	-0.244	0.090
-546.310	26.181	0.108	-0.090
-545.296	-43.433	-0.529	0.266
-544.281	58.782	-0.104	0.102
-543.266	-200.000	0.022	-0.276
-542.252	37.048	-0.140	-0.123
-541.237	260.466	-0.008	0.013
-540.223	4.987	-0.139	0.102
-539.208	800.000	0.045	-0.151
-538.193	-113.105	-0.233	-0.046
-537.179	155.123	0.116	-0.159
-536.164	-105.047	0.191	-0.043
-535.150	-22.074	0.212	0.128
-534.135	800.000	-0.049	0.175
-533.121	-96.432	-0.086	0.023
-532.106	67.117	0.198	-0.200
-531.091	170.784	-0.037	0.053
-530.077	-169.463	-0.558	0.020
-529.062	800.000	0.100	-0.322
-528.048	150.201	-0.045	0.061
-527.033	-90.064	0.272	0.079
-526.018	800.000	0.072	-0.268
-525.004	435.443	-0.018	-0.039
-523.989	-99.159	0.202	-0.051
-522.975	800.000	-0.054	-0.209
-521.960	64.247	-0.077	-0.077
-520.945	-149.073	-0.033	-0.003
-519.931	-200.000	-0.005	0.049
-518.916	634.341	-0.067	0.169
-517.902	-97.449	0.197	-0.051
-516.887	-3.195	0.256	0.177
-515.872	117.403	0.141	-0.172
-514.858	-104.004	0.184	-0.043
-513.843	182.312	0.062	-0.091
-512.829	16.655	0.018	-0.014
-511.814	-64.019	-0.127	-0.051
-510.799	-200.000	-0.031	0.302
-509.785	-200.000	-0.007	-0.046
-508.770	189.797	-0.095	0.142
-507.756	406.090	0.079	-0.166
-506.741	46.282	-0.017	0.016
-505.726	-200.000	0.011	-0.102
-504.712	-200.000	0.020	0.473
-503.697	263.740	-0.021	0.036
-502.683	54.839	-0.228	-0.219
-501.668	-147.884	0.038	0.003
-500.653	-200.000	0.003	0.043
-499.639	-17.653	-0.364	-0.227
-498.624	231.998	-0.095	-0.155
-497.610	-100.964	0.086	-0.021
-496.595	-200.000	0.011	-0.064
-495.581	-200.000	0.037	-0.265
-494.566	-68.092	-0.307	-0.119
-493.551	10.739	0.108	0.082
-492.537	534.314	0.046	-0.109
-491.522	-108.470	0.078	0.017
-490.508	509.442	-0.119	-0.275
-489.493	717.044	-0.116	-0.306
-488.478	288.202	-0.069	0.124
-487.464	125.761	0.237	0.297
-486.449	-48.200	0.236	0.113
-485.435	-95.865	-0.359	-0.095
-484.420	-39.082	-0.064	-0.033
-483.405	19.777	0.101	-0.081
-482.391	-57.438	0.117	-0.051
-481.376	-200.000	0.001	-0.014
-480.362	-57.762	0.200	-0.087
-479.347	153.670	-0.033	-0.045
-478.332	-7.108	-0.066	0.045
-477.318	3.774	-0.099	-0.072
-476.303	-200.000	-0.001	-0.014
-475.289	2.567	0.271	0.195
-474.274	13.949	0.229	-0.177
-473.259	800.000	0.055	0.155
-472.245	-18.717	-0.176	-0.109
-471.230	369.763	0.147	0.296
-470.216	-200.000	0.014	-0.234
-469.201	-200.000	-0.005	-0.230
-468.186	-200.000	-0.003	-0.083
-467.172	800.000	-0.073	0.220
-466.157	-56.440	-0.155	-0.068
-465.143	-39.338	0.339	0.177
-464.128	14.007	0.124	-0.096
-463.113	126.486	0.249	-0.313
-462.099	-21.558	-0.327	0.198
-461.084	-200.000	-0.015	0.503
-460.070	12.922	0.219	-0.168
-459.055	-79.754	0.078	0.026
-458.040	-71.101	0.633	-0.236
-457.026	244.448	0.019	0.032
-456.011	275.527	0.057	0.101
-454.997	11.068	0.042	0.032
-453.982	800.000	0.022	-0.066
-452.968	83.073	-0.110	-0.118
-451.953	-62.291	0.209	-0.086
-450.938	4.407	-0.282	-0.205
-449.924	183.904	-0.039	0.057
-448.909	800.000	0.034	0.117
-447.895	-155.971	-0.290	0.018
-446.880	-35.648	-0.019	-0.010
-445.865	115.567	0.051	-0.062
-444.851	175.752	0.087	-0.125
-443.836	699.400	0.119	0.311
-442.822	-63.216	-0.314	0.128
-441.807	-59.486	-0.196	0.084
-440.792	40.969	0.253	-0.227
-439.778	800.000	-0.073	-0.273
-438.763	800.000	-0.077	0.231
-437.749	800.000	0.013	-0.036
-436.734	-95.705	-0.051	0.014
-435.719	-200.000	0.014	-0.138
-434.705	610.654	-0.123	-0.305
-433.690	-200.000	-0.029	0.174
-432.676	800.000	-0.099	-0.313
-431.661	162.960	0.106	-0.148
-430.646	-200.000	0.000	0.047
-429.632	204.390	-0.139	0.213
-428.617	-30.207	0.168	-0.094
-427.603	-200.000	-0.002	-0.185
-426.588	72.543	-0.330	-0.341
-425.573	-66.647	-0.168	0.066
-424.559	111.810	-0.117	0.140
-423.544	-128.199	-0.251	0.035
-422.530	13.044	0.213	-0.163
-421.515	-108.667	0.206	0.044
-420.500	-80.532	0.270	-0.089
-419.486	254.025	0.019	-0.032
-418.471	174.482	0.082	0.117
-417.457	434.769	0.074	0.160
-416.442	-200.000	-0.006	-0.052
-415.428	-57.888	-0.309	-0.134
-414.413	105.504	0.171	-0.200
-413.398	-200.000	-0.081	0.000
-412.384	145.380	0.202	-0.268
-411.369	-200.000	0.022	0.259
-410.355	32.068	-0.097	0.082
-409.340	-20.730	-0.235	-0.143
-408.325	-161.175	0.201	0.010
-407.311	-200.000	-0.011	0.188
-406.296	-150.664	-0.240	-0.018
-405.282	800.000	-0.090	0.266
-404.267	800.000	0.077	-0.210
-403.252	-37.021	0.104	0.055
-402.238	59.339	-0.056	-0.054
-401.223	517.684	-0.146	0.339
-400.209	-200.000	-0.020	0.402
-399.194	105.001	0.140	-0.163
-398.179	-142.602	0.035	-0.003
-397.165	26.650	-0.037	0.031
-396.150	-114.818	0.258	-0.049
-395.136	4.046	0.191	-0.138
-394.121	800.000	-0.014	-0.039
-393.106	12.306	-0.120	-0.091
-392.092	-92.658	-0.214	-0.059
-391.077	-83.560	-0.291	0.092
-390.063	5.148	-0.182	-0.133
-389.048	-46.870	0.105	-0.051
-388.033	57.674	0.022	0.021
-387.019	-92.563	0.073	-0.020
-386.004	30.811	-0.327	0.277
-384.990	11.257	0.200	0.152
-383.975	539.872	0.109	0.257
-382.960	85.702	-0.052	0.057
-381.946	-200.000	0.042	-0.225
-380.931	-76.920	-0.251	0.087
-379.917	728.614	-0.102	0.270
-378.902	-200.000	-0.006	0.223
-377.888	-5.643	-0.347	-0.235
-376.873	-33.587	0.512	0.280
-375.858	522.658	-0.084	0.195
-374.844	-200.000	-0.001	0.195
-373.829	-96.825	0.042	-0.011
-372.815	441.369	0.089	0.192
-371.800	288.621	0.094	0.168
-370.785	665.229	-0.050	-0.127
-369.771	-200.000	-0.003	0.128
-368.756	-200.000	0.011	-0.048
-367.742	-180.663	0.285	-0.006
-366.727	-49.978	0.168	0.079
-365.712	-103.175	-0.275	0.064
-364.698	330.048	0.064	0.122
-363.683	95.709	0.058	-0.065
-362.669	119.277	0.113	-0.138
-361.654	-98.766	-0.155	0.039
-360.639	322.734	-0.101	0.191
-359.625	-200.000	0.007	-0.091
-358.610	-81.289	0.138	0.045
-357.596	-129.553	-0.143	-0.020
-356.581	67.240	-0.163	0.165
-355.566	-68.911	0.279	-0.106
-354.552	-61.112	-0.111	-0.046
-353.537	800.000	-0.071	0.223
-352.523	-27.154	-0.307	-0.177
-351.508	-45.236	-0.099	-0.049
-350.493	-200.000	-0.005	0.124
-349.479	-200.000	-0.017	0.090
-348.464	-11.268	-0.041	-0.027
-347.450	106.100	-0.041	-0.048
-346.435	-145.477	-0.173	-0.015
-345.420	-33.452	0.312	-0.170
-344.406	-200.000	0.024	-0.201
-343.391	-74.212	0.080	-0.029
-342.377	-4.500	-0.155	-0.106
-341.362	-33.061	0.109	0.060
-340.348	-13.229	0.094	0.060
-339.333	117.430	0.094	-0.114
-338.318	800.000	0.077	-0.324
-337.304	-26.971	-0.149	-0.086
-336.289	9.532	0.169	-0.126
-335.275	91.679	0.139	0.154
-334.260	-200.000	0.017	0.210
-333.245	97.060	-0.071	-0.081
-332.231	158.023	0.061	0.084
-331.216	-35.767	-0.151	0.081
-330.202	-200.000	0.033	0.281
-329.187	-187.127	0.297	0.004
-328.172	-119.631	0.014	0.002
-327.158	-20.106	-0.323	0.196
-326.143	-93.068	0.133	-0.037
-325.129	636.524	0.119	-0.297
-324.114	226.623	0.021	0.034
-323.099	44.893	-0.220	-0.199
-322.085	-200.000	0.020	0.242
-321.070	152.447	0.154	0.208
-320.056	800.000	0.005	0.019
-319.041	379.232	0.094	-0.190
-318.026	300.097	0.150	0.274
-317.012	800.000	-0.101	-0.389
-315.997	17.677	0.227	0.178
-314.983	132.962	0.142	0.181
-313.968	-200.000	0.299	0.001
-312.953	-1.294	0.503	-0.350
-311.939	111.998	-0.302	-0.360
-310.924	800.000	-0.011	0.038
-309.910	-19.679	-0.245	-0.149
-308.895	140.373	0.090	-0.118
-307.880	-200.000	-0.002	0.170
-306.866	-196.576	-0.200	-0.001
-305.851	800.000	-0.062	-0.261
-304.837	679.965	-0.048	0.124
-303.822	-138.246	-0.249	0.027
-302.807	-124.102	0.107	0.017
-301.793	-200.000	0.030	-0.131
-300.778	284.442	0.172	0.305
-299.764	800.000	0.042	0.171
-298.749	-200.000	0.020	0.128
-297.735	330.175	-0.153	-0.290
-296.720	-7.964	0.149	-0.099
-295.705	-9.283	-0.122	-0.080
-294.691	43.617	0.339	-0.305
-293.676	800.000	-0.020	-0.063
-292.662	-200.000	-0.011	-0.180
-291.647	81.802	-0.074	0.079
-290.632	60.252	-0.114	0.111
-289.618	-65.379	0.196	0.078
-288.603	231.970	0.066	-0.107
-287.589	74.017	-0.159	0.165
-286.574	307.572	-0.081	0.148
-285.559	52.072	0.275	-0.258
-284.545	723.685	0.148	-0.389
-283.530	-134.697	-0.069	0.008
-282.516	-200.000	-0.027	0.213
-281.501	150.564	0.158	-0.212
-280.486	6.859	-0.094	-0.069
-279.472	138.911	-0.171	0.222
-278.457	-23.565	-0.205	0.121
-277.443	-89.584	0.223	0.065
-276.428	-12.030	-0.218	0.140
-275.413	104.002	0.260	-0.301
-274.399	127.449	-0.082	-0.103
-273.384	-200.000	-0.064	0.468
-272.370	-200.000	0.017	0.135
-271.355	128.220	0.177	0.222
-270.340	800.000	0.040	-0.144
-269.326	-200.000	0.064	-0.385
-268.311	29.545	-0.235	-0.197
-267.297	694.820	0.083	-0.214
-266.282	-200.000	0.042	0.336
-265.267	-121.818	-0.385	-0.063
-264.253	-200.000	0.046	0.327
-263.238	-35.570	-0.202	0.108
-262.224	412.081	0.211	0.442
-261.209	220.062	0.073	0.115
-260.195	-200.000	0.015	-0.107
-259.180	800.000	-0.004	0.013
-258.165	40.703	0.027	0.024
-257.151	-23.931	0.023	-0.014
-256.136	-58.452	-0.075	0.032
-255.122	-127.963	-0.154	-0.022
-254.107	146.763	-0.077	-0.102
-253.092	-110.211	0.200	0.041
-252.078	56.680	0.176	0.169
-251.063	800.000	-0.085	0.246
-250.049	595.259	-0.095	0.232
-249.034	-68.822	-0.098	-0.037
-248.019	68.405	-0.064	-0.065
-247.005	-101.871	-0.125	0.030
-245.990	101.868	-0.226	-0.259
-244.976	-42.029	-0.085	-0.043
-243.961	-22.769	0.116	-0.069
-242.946	-94.597	-0.300	0.080
-241.932	-38.527	0.145	0.075
-240.917	-132.206	0.111	-0.014
-239.903	-111.245	-0.326	-0.066
-238.888	-200.000	-0.012	0.066
-237.873	392.644	0.118	0.241
-236.859	800.000	0.160	-0.440
-235.844	305.133	-0.144	-0.263
-234.830	-101.440	-0.363	-0.087
-233.815	-63.323	0.330	-0.134
-232.800	3.889	-0.149	0.107
-231.786	-113.813	-0.579	0.111
-230.771	-55.632	0.355	-0.156
-229.757	294.862	0.211	0.379
-228.742	-79.229	-0.028	0.009
-227.727	-37.957	0.245	0.128
-226.713	-104.274	-0.219	-0.050
-225.698	-200.000	0.007	0.326
-224.684	-81.853	0.018	0.006
-223.669	47.233	-0.037	0.034
-222.655	-142.622	-0.140	0.014
-221.640	170.620	-0.131	0.185
-220.625	-68.952	-0.170	-0.065
-219.611	-35.030	0.114	0.061
-218.596	-129.871	0.087	0.012
-217.582	-200.000	0.021	-0.137
-216.567	800.000	-0.057	0.185
-215.552	-30.168	-0.213	-0.119
-214.538	122.171	0.141	0.172
-213.523	-155.942	0.171	0.011
-212.509	-93.895	0.250	-0.067
-211.494	20.559	0.192	-0.152
-210.479	-98.550	-0.174	-0.044
-209.465	-45.986	-0.313	0.152
-208.450	800.000	0.066	0.207
-207.436	35.507	-0.210	0.181
-206.421	-200.000	0.017	0.308
-205.406	116.442	0.201	-0.242
-204.392	250.814	0.116	-0.194
-203.377	125.420	0.162	0.201
-202.363	800.000	0.054	0.214
-201.348	-200.000	-0.001	0.101
-200.333	157.363	-0.129	-0.176
-199.319	58.680	-0.287	0.277
-198.304	158.607	-0.138	0.188
-197.290	238.397	0.063	0.103
-196.275	17.741	0.165	-0.129
-195.260	272.894	-0.217	-0.377
-194.246	-200.000	-0.012	0.098
-193.231	25.684	0.153	-0.125
-192.217	-43.088	0.310	0.155
-191.202	-40.091	-0.365	0.187
-190.187	-165.653	-0.398	0.017
-189.173	-200.000	-0.041	0.186
-188.158	103.486	-0.139	0.160
-187.144	128.115	0.167	0.208
-186.129	-42.653	0.075	0.037
-185.114	-90.795	-0.315	-0.089
-184.100	-200.000	-0.066	-0.312
-183.085	-101.984	0.160	0.038
-182.071	53.308	-0.141	0.132
-181.056	-61.262	0.384	-0.159
-180.042	-58.464	-0.095	0.040
-179.027	81.524	-0.159	-0.168
-178.012	-46.314	0.110	-0.053
-176.998	-134.928	-0.201	-0.024
-175.983	-141.207	-0.029	-0.003
-174.969	61.166	0.151	0.147
-173.954	104.511	0.030	-0.034
-172.939	638.876	-0.143	0.358
-171.925	92.571	0.173	0.191
-170.910	-61.563	0.363	0.149
-169.896	-200.000	-0.041	0.183
-168.881	-200.000	0.052	-0.269
-167.866	414.837	0.193	0.403
-166.852	125.293	-0.034	0.042
-165.837	-200.000	0.028	-0.192
-164.823	-91.527	-0.160	0.045
-163.808	-119.443	0.200	-0.034
-162.793	36.559	0.144	-0.124
-161.779	-37.754	-0.147	0.077
-160.764	-37.609	0.245	-0.128
-159.750	-138.499	0.161	-0.017
-158.735	211.413	-0.086	-0.133
-157.720	-98.178	0.121	-0.031
-156.706	98.502	-0.089	-0.101
-155.691	121.049	0.230	0.281
-154.677	-200.000	0.026	0.232
-153.662	637.728	0.125	0.312
-152.647	-96.400	0.153	0.040
-151.633	-89.029	0.175	-0.051
-150.618	-63.945	0.388	0.155
-149.604	-111.653	-0.150	0.030
-148.589	55.191	0.082	-0.078
-147.574	-5.312	-0.055	0.037
-146.560	-54.762	-0.388	-0.172
-145.545	-96.169	-0.266	-0.069
-144.531	-200.000	-0.373	0.001
-143.516	271.155	-0.081	0.141
-142.502	320.908	0.105	0.196
-141.487	69.431	-0.225	-0.227
-140.472	-200.000	0.360	0.002
-139.458	211.984	0.092	0.142
-138.443	9.520	0.031	-0.023
-137.429	-68.103	0.166	-0.063
-136.414	-43.690	0.120	-0.059
-135.399	-195.935	-0.488	-0.003
-134.385	76.164	0.125	0.129
-133.370	509.988	0.120	0.273
-132.356	-112.427	-0.039	-0.008
-131.341	83.504	-0.301	0.322
-130.326	-111.740	-0.186	0.037
-129.312	610.704	-0.174	0.427
-128.297	-148.058	-0.111	0.009
-127.283	-178.033	0.300	0.007
-126.268	-42.750	-0.280	-0.139
-125.253	304.891	-0.226	-0.411
-124.239	182.966	0.071	-0.102
-123.224	436.339	-0.063	0.135
-122.210	-101.995	0.188	0.044
-121.195	23.541	0.056	-0.045
-120.180	83.891	-0.206	-0.220
-119.166	-49.809	0.149	-0.069
-118.151	800.000	-0.065	-0.262
-117.137	-48.805	0.283	0.133
-116.122	-83.178	-0.107	0.034
-115.107	433.833	0.037	0.080
-114.093	800.000	-0.068	-0.223
-113.078	25.694	0.211	0.172
-112.064	66.337	0.236	0.235
-111.049	-200.000	0.002	0.475
-110.034	-21.301	-0.041	-0.024
-109.020	-117.557	-0.147	-0.026
-108.005	-200.000	0.019	0.276
-106.991	-92.166	0.169	-0.047
-105.976	800.000	-0.041	0.163
-104.962	-200.000	0.021	-0.153
-103.947	800.000	0.064	0.214
-102.932	-200.000	-0.011	0.226
-101.918	-157.253	-0.170	0.010
-100.903	-111.059	0.434	0.087
-99.889	-127.993	-0.234	-0.033
-98.874	800.000	-0.039	-0.122
-97.859	55.730	0.148	0.140
-96.845	-200.000	0.002	0.060
-95.830	185.526	-0.096	0.139
-94.816	-94.712	0.224	0.060
-93.801	133.650	0.134	-0.170
-92.786	550.823	-0.147	-0.345
-91.772	447.774	-0.123	0.266
-90.757	-200.000	-0.001	-0.237
-89.743	800.000	-0.087	0.296
-88.728	-79.092	-0.181	0.060
-87.713	800.000	0.042	-0.133
-86.699	-138.263	0.081	0.009
-85.684	-112.871	-0.314	-0.061
-84.670	-200.000	0.027	-0.149
-83.655	-200.000	0.028	0.213
-82.640	-62.368	0.346	0.141
-81.626	557.668	-0.038	-0.089
-80.611	102.485	0.200	0.229
-79.597	451.332	0.100	0.215
-78.582	-36.989	0.213	0.111
-77.567	-120.838	0.165	0.027
-76.553	79.677	-0.130	-0.137
-75.538	-78.019	0.172	-0.058
-74.524	-200.000	0.063	0.352
-73.509	-200.000	0.033	0.255
-72.494	110.713	-0.173	-0.203
-71.480	24.676	0.487	0.394
-70.465	752.619	-0.036	0.096
-69.451	-77.027	0.404	0.138
-68.436	-99.923	0.221	0.054
-67.422	-10.943	0.175	-0.113
-66.407	-0.594	-0.185	-0.128
-65.392	23.714	0.078	-0.063
-64.378	-26.470	-0.233	0.134
-63.363	9.696	-0.295	-0.218
-62.349	267.972	-0.038	-0.066
-61.334	47.223	-1.300	-1.183
-60.319	69.825	0.535	0.539
-59.305	-200.000	-0.215	-1.404
-58.290	536.921	0.588	1.365
-57.276	393.598	0.683	1.389
-56.261	-200.000	116.273	640.869
-55.246	495.960	1540.886	3459.425
-54.232	174.520	2719.432	3841.515
-53.217	97.898	2292.885	2576.204
-52.203	35.346	1901.256	1628.756
-51.188	29.468	1695.572	1407.815
-50.173	27.109	1654.290	1355.903
-49.159	46.779	1711.855	1553.083
-48.144	45.463	1725.753	1555.632
-47.130	28.889	1683.155	1392.901
-46.115	26.412	1668.352	1361.966
-45.100	26.262	1663.952	1357.187
-44.086	26.263	1661.077	1354.798
-43.071	26.306	1657.973	1352.540
-42.057	26.243	1655.588	1350.066
-41.042	26.220	1653.869	1348.436
-40.027	26.225	1652.434	1347.253
-39.013	26.240	1649.758	1345.132
-37.998	26.128	1648.487	1343.204
-36.984	26.295	1647.078	1343.243
-35.969	26.327	1646.040	1342.583
-34.954	26.364	1643.844	1341.013
-33.940	26.381	1642.282	1339.815
-32.925	26.332	1640.562	1337.993
-31.911	26.424	1638.588	1337.008
-30.896	26.336	1637.502	1335.419
-29.881	26.356	1635.617	1333.982
-28.867	26.418	1634.162	1333.193
-27.852	26.400	1633.023	1332.080
-26.838	26.388	1631.019	1330.307
-25.823	26.432	1629.512	1329.351
-24.809	26.454	1628.246	1328.422
-23.794	26.357	1627.655	1327.178
-22.779	26.386	1625.923	1325.922
-21.765	26.410	1623.436	1324.020
-20.750	26.292	1622.451	1322.302
-19.736	26.386	1620.985	1321.737
-18.721	26.476	1619.719	1321.309
-17.706	26.402	1618.218	1319.496
-16.692	26.455	1616.429	1318.370
-15.677	26.430	1614.748	1316.768
-14.663	26.471	1613.423	1315.931
-13.648	26.411	1612.778	1314.914
-12.633	26.432	1610.879	1313.466
-11.619	26.393	1609.447	1311.967
-10.604	26.404	1607.628	1310.513
-9.590	26.437	1606.273	1309.595
-8.575	26.447	1605.027	1308.597
-7.560	26.404	1604.023	1307.416
-6.546	26.413	1602.878	1306.494
-5.531	26.316	1602.163	1305.157
-4.517	26.374	1600.805	1304.424
-3.502	26.386	1599.801	1303.635
-2.487	26.466	1597.789	1302.525
-1.473	26.099	1585.679	1289.976
-0.458	23.392	1566.437	1255.130
0.556	20.849	1568.519	1224.840
1.571	18.632	1592.601	1227.690
2.586	18.217	1604.901	1234.067
3.600	16.065	1549.674	1176.494
4.615	9.374	1442.844	1051.682
5.629	4.090	1383.559	975.180
6.644	3.181	1376.988	964.763
7.659	3.194	1375.419	963.661
8.673	3.220	1374.233	962.910
9.688	3.145	1372.942	961.454
10.702	3.060	1370.030	958.798
11.717	5.778	1373.787	978.320
12.731	12.983	1387.221	1033.053
13.746	18.897	1398.052	1078.238
14.761	20.424	1398.606	1088.144
15.775	19.695	1396.952	1082.194
16.790	18.649	1394.341	1073.540
17.804	17.973	1392.248	1067.607
18.819	17.614	1390.901	1064.235
19.834	17.488	1389.876	1062.570
20.848	17.345	1388.255	1060.350
21.863	17.157	1386.789	1057.965
22.877	16.933	1386.189	1056.018
23.892	16.869	1385.586	1055.068
24.907	16.992	1384.237	1054.710
25.921	17.025	1383.265	1054.081
26.936	17.047	1382.543	1053.572
27.950	17.058	1381.423	1052.698
28.965	17.070	1380.614	1052.058
29.980	17.181	1379.294	1051.650
30.994	17.278	1378.382	1051.458
32.009	17.229	1377.153	1050.125
33.023	17.235	1376.218	1049.360
34.038	17.134	1375.339	1047.975
35.053	17.121	1373.910	1046.711
36.067	17.123	1372.585	1045.618
37.082	17.125	1372.098	1045.171
38.096	17.182	1371.162	1044.716
39.111	17.271	1369.651	1044.018
40.126	17.118	1368.445	1042.069
41.140	16.907	1367.666	1040.089
42.155	16.720	1367.087	1038.411
43.169	16.766	1367.017	1038.543
44.184	16.803	1366.220	1038.078
45.199	16.699	1366.302	1037.405
46.213	16.925	1365.594	1038.164
47.228	17.007	1364.931	1038.068
48.242	17.121	1363.509	1037.594
49.257	17.006	1362.588	1036.096
50.271	17.003	1360.785	1034.616
51.286	17.069	1359.364	1033.845
52.301	17.022	1358.118	1032.522
53.315	16.950	1357.222	1031.311
54.330	16.804	1356.356	1029.675
55.344	16.837	1354.495	1028.367
56.359	16.825	1353.783	1027.667
57.374	16.884	1352.893	1027.259
58.388	16.631	1352.531	1025.358
59.403	16.696	1351.736	1025.057
60.417	16.739	1350.984	1024.657
61.432	16.566	1349.872	1022.679
62.447	16.597	1348.946	1022.075
63.461	16.551	1347.725	1020.780
64.476	16.505	1346.733	1019.660
65.490	16.549	1345.372	1018.804
66.505	16.606	1343.480	1017.626
67.520	16.651	1342.390	1016.981
68.534	16.629	1341.652	1016.199
69.549	16.663	1340.499	1015.442
70.563	16.632	1339.152	1014.145
71.578	16.466	1338.481	1012.550
72.593	16.463	1337.260	1011.519
73.607	16.385	1336.659	1010.507
74.622	16.399	1335.941	1009.960
75.636	16.534	1334.762	1009.784
76.651	16.499	1334.335	1009.163
77.666	16.494	1333.945	1008.751
78.680	16.521	1333.638	1008.591
79.695	16.660	1332.737	1008.646
80.709	16.648	1332.243	1008.116
81.724	16.808	1331.337	1008.290
82.739	16.870	1330.385	1007.850
83.753	16.970	1329.859	1007.955
84.768	17.082	1328.535	1007.529
85.782	17.104	1328.074	1007.218
86.797	17.192	1326.242	1006.264
87.812	17.147	1324.571	1004.640
88.826	16.970	1324.115	1003.157
89.841	17.067	1323.284	1003.011
90.855	17.110	1322.058	1002.250
91.870	17.217	1321.008	1001.993
92.884	17.157	1320.443	1001.127
93.899	17.266	1319.771	1001.170
94.914	17.249	1318.680	1000.149
95.928	17.319	1317.855	999.850
96.943	17.161	1316.856	998.077
97.957	17.186	1316.007	997.490
98.972	17.196	1314.806	996.551
99.987	17.108	1314.057	995.380
101.001	17.206	1312.788	994.905
102.016	17.117	1312.138	993.799
103.030	17.124	1311.027	992.913
104.045	17.218	1309.731	992.391
105.060	17.044	1308.815	990.593
106.074	16.878	1307.509	988.548
107.089	16.656	1305.898	985.954
108.103	16.618	1304.315	984.446
109.118	16.676	1302.947	983.667
110.133	16.664	1301.804	982.647
111.147	16.735	1300.178	981.746
112.162	16.758	1299.152	981.015
113.176	16.787	1298.367	980.507
114.191	16.864	1297.231	980.002
115.206	16.840	1295.989	978.842
116.220	16.705	1294.959	977.199
117.235	16.805	1294.463	977.315
118.249	16.863	1292.451	976.042
119.264	16.693	1291.600	974.332
120.279	16.691	1290.247	973.218
121.293	16.677	1289.452	972.452
122.308	16.463	1288.602	970.494
123.322	16.529	1287.141	969.688
124.337	16.552	1286.347	969.136
125.352	16.480	1285.096	967.693
126.366	16.528	1283.613	966.765
127.381	16.533	1282.944	966.207
128.395	16.509	1282.113	965.355
129.410	16.584	1281.117	964.949
130.424	16.635	1280.139	964.421
131.439	16.687	1279.553	964.186
132.454	16.678	1278.767	963.459
133.468	16.762	1277.816	963.138
134.483	16.737	1277.423	962.610
135.497	16.734	1276.215	961.599
136.512	16.778	1275.140	960.951
137.527	16.806	1273.247	959.603
138.541	16.857	1272.117	958.955
139.556	17.014	1270.606	958.614
140.570	16.935	1270.122	957.722
141.585	17.067	1268.933	957.486
142.600	17.129	1267.783	956.878
143.614	17.193	1266.875	956.469
144.629	17.269	1265.671	955.906
145.643	17.196	1264.605	954.607
146.658	17.063	1263.709	953.097
147.673	17.020	1261.644	951.213
148.687	16.895	1260.874	949.848
149.702	16.936	1258.942	948.537
150.716	16.894	1257.924	947.453
151.731	16.815	1257.183	946.373
152.746	16.908	1256.113	946.001
153.760	16.984	1254.640	945.228
154.775	17.061	1254.055	945.138
155.789	17.035	1253.166	944.234
156.804	17.022	1252.226	943.374
157.819	17.173	1250.541	942.857
158.833	17.188	1250.639	942.934
159.848	17.392	1249.068	942.796
160.862	17.366	1248.083	941.821
161.877	17.058	1246.850	939.105
162.892	16.904	1246.009	937.536
163.906	17.004	1244.734	937.049
164.921	16.960	1243.971	936.146
165.935	17.095	1242.750	935.892
166.950	17.059	1242.817	935.661
167.964	17.019	1242.182	934.879
168.979	16.975	1241.096	933.734
169.994	16.959	1240.441	933.075
171.008	16.995	1239.608	932.562
172.023	17.096	1238.424	932.143
173.037	17.239	1238.279	932.738
174.052	17.175	1236.817	931.201
175.067	17.190	1235.549	930.249
176.081	16.923	1235.094	928.358
177.096	17.027	1233.843	927.907
178.110	17.097	1232.638	927.302
179.125	17.037	1231.543	926.069
180.140	17.060	1230.461	925.299
181.154	17.188	1229.568	925.239
182.169	17.201	1228.545	924.461
183.183	17.309	1227.407	924.108
184.198	17.343	1225.863	923.046
185.213	17.363	1224.706	922.205
186.227	17.501	1223.638	922.064
187.242	17.459	1222.804	921.126
188.256	17.502	1221.838	920.553
189.271	17.538	1221.075	920.090
190.286	17.289	1220.138	917.958
191.300	17.015	1219.081	915.604
192.315	16.949	1218.258	914.552
193.329	16.916	1217.808	913.952
194.344	17.031	1217.308	914.114
195.359	17.156	1216.761	914.297
196.373	17.271	1215.980	914.247
197.388	17.355	1216.071	914.685
198.402	17.551	1215.379	915.140
199.417	17.504	1214.809	914.376
200.432	17.689	1213.685	914.442
201.446	17.735	1212.884	914.002
202.461	17.854	1211.826	913.762
203.475	17.698	1211.212	912.385
204.490	17.691	1209.541	911.008
205.504	17.509	1208.760	909.366
206.519	17.549	1207.075	908.233
207.534	17.405	1206.280	906.784
208.548	17.550	1205.483	906.879
209.563	17.572	1204.314	906.038
210.577	17.487	1203.255	904.710
211.592	17.535	1202.608	904.396
212.607	17.781	1201.777	904.997
213.621	17.714	1200.678	903.735
214.636	17.762	1199.757	903.213
215.650	17.673	1199.165	902.219
216.665	17.702	1198.668	901.918
217.680	17.797	1197.668	901.588
218.694	17.983	1196.520	901.627
219.709	17.893	1196.141	900.783
220.723	17.916	1195.081	900.030
221.738	17.831	1194.769	899.269
222.753	17.848	1193.569	898.373
223.767	17.879	1192.643	897.761
224.782	17.938	1192.407	897.813
225.796	18.007	1191.968	897.764
226.811	17.918	1191.190	896.631
227.826	18.040	1189.898	896.220
228.840	17.850	1189.485	894.834
229.855	17.838	1188.805	894.182
230.869	17.826	1187.916	893.368
231.884	17.798	1187.117	892.542
232.899	17.762	1186.097	891.511
233.913	17.630	1185.386	890.204
234.928	17.711	1184.681	890.022
235.942	17.563	1183.814	888.517
236.957	17.626	1183.284	888.372
237.972	17.667	1182.556	887.961
238.986	17.648	1182.278	887.573
240.001	17.694	1181.192	886.921
241.015	17.803	1180.127	886.607
242.030	17.766	1179.478	885.846
243.045	17.834	1178.767	885.590
244.059	17.754	1178.258	884.715
245.074	18.017	1176.955	885.020
246.088	17.964	1176.678	884.457
247.103	18.062	1175.808	884.235
248.117	18.231	1174.980	884.407
249.132	18.307	1174.360	884.255
250.147	18.399	1173.911	884.312
251.161	18.608	1172.717	884.412
252.176	18.447	1172.641	883.447
253.190	18.522	1172.291	883.492
254.205	18.638	1171.797	883.637
255.220	18.501	1170.837	882.130
256.234	18.608	1169.875	881.881
257.249	18.709	1169.188	881.803
258.263	18.691	1168.868	881.391
259.278	18.649	1167.979	880.426
260.293	18.743	1167.336	880.347
261.307	18.791	1166.829	880.130
262.322	18.695	1166.765	879.511
263.336	18.681	1165.751	878.600
264.351	18.894	1164.880	878.956
265.366	18.847	1164.448	878.312
266.380	18.686	1163.569	876.747
267.395	18.649	1162.909	875.983
268.409	18.598	1161.813	874.823
269.424	18.747	1161.125	874.985
270.439	18.590	1160.999	874.011
271.453	18.589	1160.072	873.230
272.468	18.531	1158.935	872.005
273.482	18.589	1158.155	871.636
274.497	18.518	1157.668	870.832
275.512	18.665	1156.942	870.950
276.526	18.662	1155.724	869.944
277.541	18.608	1155.250	869.237
278.555	18.688	1155.032	869.400
279.570	18.790	1153.935	869.014
280.585	18.859	1153.446	868.918
281.599	19.009	1152.102	868.588
282.614	18.814	1151.138	866.799
283.628	18.773	1149.885	865.573
284.643	18.638	1149.729	864.696
285.657	18.813	1148.715	864.741
286.672	18.721	1147.142	863.018
287.687	18.818	1146.570	862.998
288.701	18.758	1146.083	862.254
289.716	18.827	1145.052	861.749
290.730	18.748	1144.790	861.077
291.745	18.809	1143.765	860.534
292.760	18.885	1143.103	860.343
293.774	18.884	1142.759	860.000
294.789	18.991	1141.998	859.888
295.803	19.123	1141.454	860.062
296.818	18.828	1141.057	858.214
297.833	18.879	1140.201	857.748
298.847	18.831	1139.325	856.773
299.862	18.920	1138.254	856.333
300.876	18.927	1137.812	855.961
301.891	19.113	1136.811	856.058
302.906	19.088	1136.362	855.519
303.920	19.203	1135.658	855.484
304.935	19.366	1134.803	855.574
305.949	19.292	1134.457	854.869
306.964	19.315	1134.006	854.572
307.979	19.192	1133.266	853.325
308.993	19.181	1132.249	852.431
310.008	19.254	1131.677	852.289
311.022	19.300	1130.856	851.819
312.037	19.308	1129.922	851.082
313.052	19.209	1128.606	849.525
314.066	19.159	1127.554	848.414
315.081	18.929	1127.049	846.824
316.095	18.917	1126.541	846.311
317.110	18.927	1125.871	845.780
318.125	19.024	1124.519	845.167
319.139	19.086	1123.763	844.826
320.154	18.943	1123.434	843.802
321.168	18.977	1122.568	843.244
322.183	19.110	1122.134	843.496
323.197	19.082	1121.411	842.741
324.212	19.075	1121.004	842.327
325.227	19.141	1120.248	842.009
326.241	19.163	1119.660	841.598
327.256	19.159	1118.962	840.981
328.270	19.003	1117.715	839.206
329.285	19.029	1117.004	838.727
330.300	19.031	1116.030	837.930
331.314	19.208	1114.801	837.792
332.329	19.114	1114.197	836.807
333.343	19.180	1113.313	836.391
334.358	19.328	1112.629	836.520
335.373	19.272	1112.216	835.866
336.387	19.461	1111.020	835.809
337.402	19.406	1110.236	834.877
338.416	19.399	1109.862	834.488
339.431	19.321	1109.319	833.629
340.446	19.589	1108.835	834.489
341.460	19.704	1107.972	834.320
342.475	19.674	1107.050	833.405
343.489	19.758	1106.408	833.252
344.504	19.793	1105.161	832.408
345.519	19.831	1104.293	831.865
346.533	19.854	1103.928	831.625
347.548	19.825	1103.197	830.863
348.562	19.823	1102.476	830.240
349.577	19.716	1101.650	829.027
350.592	19.648	1100.353	827.653
351.606	19.634	1099.191	826.638
352.621	19.513	1098.889	825.761
353.635	19.371	1098.844	824.974
354.650	19.513	1097.343	824.453
355.665	19.523	1096.904	824.096
356.679	19.632	1096.571	824.296
357.694	19.621	1095.983	823.729
358.708	19.759	1095.157	823.693
359.723	19.837	1094.485	823.483
360.738	19.781	1093.839	822.661
361.752	19.777	1093.189	822.079
362.767	19.733	1093.027	821.673
363.781	19.706	1092.702	821.227
364.796	19.795	1092.047	821.086
365.810	20.026	1091.098	821.398
366.825	19.972	1090.944	820.951
367.840	20.221	1090.236	821.524
368.854	20.253	1089.579	821.111
369.869	20.226	1089.004	820.478
370.883	20.158	1087.882	819.236
371.898	20.034	1087.235	818.091
372.913	19.981	1086.345	817.100
373.927	20.098	1085.884	817.232
374.942	20.175	1085.667	817.360
375.956	20.109	1085.280	816.682
376.971	20.079	1084.574	815.939
377.986	20.172	1084.127	815.969
379.000	20.380	1083.202	816.178
380.015	20.365	1082.695	815.651
381.029	20.423	1081.845	815.213
382.044	20.338	1081.525	814.501
383.059	20.394	1080.518	813.933
384.073	20.438	1079.527	813.319
385.088	20.466	1078.892	812.900
386.102	20.440	1077.926	811.980
387.117	20.242	1076.613	809.993
388.132	20.144	1075.755	808.821
389.146	20.206	1075.014	808.481
390.161	20.172	1074.701	808.014
391.175	20.180	1073.808	807.310
392.190	20.277	1073.354	807.347
393.205	20.400	1072.140	806.934
394.219	20.364	1071.462	806.186
395.234	20.315	1070.428	805.111
396.248	20.194	1069.386	803.696
397.263	20.192	1069.011	803.334
398.278	20.102	1068.166	802.208
399.292	20.116	1067.420	801.642
400.307	20.082	1066.598	800.795
401.321	20.068	1065.791	800.056
402.336	20.065	1065.011	799.384
403.350	20.038	1064.326	798.677
404.365	20.172	1064.063	799.026
405.380	20.286	1063.179	798.815
406.394	20.342	1062.481	798.479
407.409	20.441	1061.724	798.295
408.423	20.512	1061.332	798.257
409.438	20.560	1060.578	797.836
410.453	20.725	1059.594	797.783
411.467	20.684	1058.880	796.986
412.482	20.737	1058.499	796.874
413.496	20.743	1057.860	796.347
414.511	20.783	1057.440	796.143
415.526	20.860	1057.093	796.164
416.540	20.865	1056.834	795.922
417.555	20.911	1055.619	795.149
418.569	20.956	1054.894	794.737
419.584	20.917	1054.541	794.222
420.599	20.769	1054.741	793.628
421.613	155.071	1406.270	1796.625
422.628	142.306	1457.446	1796.714
