DTS Sentinel unit serial number:	SN413079Multiplexer serial number:	ORYXHardware model number:	OX4-SRSoftware version number:	ORYX F/W v4.00 Oryx Data Collector v3.7.2.0data status	okinstallation	princeton_trtdifferential loss correction	single-endedforward channel	channel 2reverse channel	N/Adate	2019/09/18time	22:11:35forward acquisition time	60.00reverse acquisition time	0.00gamma	496.2192k internal	0.2348k external	0.2348temperature offset calibration	1.0018default loss term (dB/km)	0.3790temperature slope calibration	1.0000multiplexer offset coefficient	1.0000multiplexer slope coefficient	1.0000fibre end	0.00T internal ref (°C)	24.44T ext. ref 1 (°C)	0.80T ext. ref 2 (°C)	18.16length (m)	temperature (°C)	Stokes	anti-Stokes-747.200	-200.000	-0.023	0.136
-746.185	-74.614	-0.230	-0.083
-745.171	-200.000	-0.022	0.115
-744.156	-87.348	0.178	0.054
-743.142	-200.000	0.016	0.211
-742.127	14.168	-0.270	0.210
-741.112	-200.000	-0.022	-0.142
-740.098	149.910	0.111	0.150
-739.083	138.159	0.174	0.228
-738.069	800.000	0.052	0.202
-737.054	613.759	0.031	-0.078
-736.039	-200.000	0.005	-0.065
-735.025	-156.436	0.033	0.002
-734.010	77.344	-0.296	-0.314
-732.996	35.614	-0.173	0.152
-731.981	-200.000	-0.050	0.238
-730.966	269.512	-0.095	-0.166
-729.952	-200.000	0.034	0.280
-728.937	800.000	-0.091	-0.304
-727.923	-76.564	0.066	-0.023
-726.908	267.276	-0.052	0.090
-725.894	-200.000	-0.071	-0.525
-724.879	-200.000	-0.016	-0.103
-723.864	-200.000	-0.029	-0.164
-722.850	800.000	-0.049	-0.202
-721.835	-117.469	-0.254	0.046
-720.821	334.636	0.118	-0.229
-719.806	15.207	0.221	0.173
-718.791	-179.721	-0.076	-0.002
-717.777	-187.283	0.466	-0.006
-716.762	-200.000	0.050	0.260
-715.748	-200.000	-0.000	0.151
-714.733	40.011	-0.177	-0.158
-713.718	-31.546	-0.122	0.068
-712.704	-200.000	0.005	-0.056
-711.689	-36.933	0.137	-0.073
-710.675	-200.000	-0.002	-0.125
-709.660	223.370	0.290	-0.467
-708.645	800.000	-0.061	0.213
-707.631	-29.727	0.314	0.178
-706.616	189.744	0.022	-0.033
-705.602	-20.185	-0.234	0.144
-704.587	-98.776	0.181	0.046
-703.572	800.000	0.060	-0.177
-702.558	365.802	-0.169	-0.340
-701.543	266.133	-0.087	-0.151
-700.529	-200.000	0.034	0.434
-699.514	-74.335	0.216	0.078
-698.499	-200.000	0.006	0.054
-697.485	-98.232	0.277	-0.071
-696.470	4.109	-0.318	-0.232
-695.456	14.845	-0.171	-0.133
-694.441	625.612	-0.037	0.093
-693.426	26.190	0.401	0.334
-692.412	800.000	0.056	-0.197
-691.397	113.840	0.120	-0.146
-690.383	-110.678	-0.356	-0.073
-689.368	567.089	-0.087	0.211
-688.354	-200.000	-0.016	0.217
-687.339	-9.738	0.133	-0.088
-686.324	-154.640	-0.094	0.006
-685.310	-200.000	-0.013	0.280
-684.295	180.619	-0.140	-0.205
-683.281	57.307	0.098	-0.095
-682.266	-200.000	-0.062	-0.330
-681.251	352.702	0.088	0.174
-680.237	52.577	0.177	-0.169
-679.222	-86.969	0.087	0.026
-678.208	-200.000	-0.087	-0.431
-677.193	-56.156	0.207	-0.092
-676.178	-81.237	0.119	-0.039
-675.164	141.684	0.228	0.301
-674.149	566.854	0.037	-0.089
-673.135	-67.612	-0.262	-0.102
-672.120	-87.639	0.571	-0.172
-671.105	317.874	0.095	0.178
-670.091	800.000	-0.191	-0.711
-669.076	13.103	-0.231	0.178
-668.062	-39.110	-0.237	-0.124
-667.047	-16.608	-0.147	-0.093
-666.032	8.165	0.276	-0.207
-665.018	584.857	0.049	-0.121
-664.003	319.213	0.071	-0.134
-662.989	-91.813	-0.203	0.057
-661.974	-200.000	-0.014	-0.132
-660.959	253.670	-0.098	-0.167
-659.945	800.000	-0.013	0.039
-658.930	-50.452	0.329	0.155
-657.916	163.494	0.153	-0.214
-656.901	-67.860	0.236	-0.092
-655.886	-17.103	-0.156	0.098
-654.872	92.650	-0.074	0.084
-653.857	-59.014	-0.199	-0.085
-652.843	-30.474	0.095	-0.054
-651.828	22.665	-0.174	0.142
-650.814	-75.899	0.285	-0.100
-649.799	-200.000	-0.200	-0.000
-648.784	581.527	-0.088	-0.216
-647.770	215.411	0.167	-0.264
-646.755	99.003	0.064	0.073
-645.741	-161.592	-0.404	0.021
-644.726	-186.784	-0.260	-0.004
-643.711	-200.000	0.030	0.156
-642.697	-59.540	0.182	-0.078
-641.682	-184.067	0.099	-0.002
-640.668	-94.531	-0.106	-0.029
-639.653	123.923	0.177	0.222
-638.638	-200.000	0.032	0.439
-637.624	-37.001	-0.139	-0.074
-636.609	120.073	0.149	-0.184
-635.595	5.010	-0.084	-0.062
-634.580	-200.000	0.025	0.129
-633.565	-99.008	0.150	0.038
-632.551	-200.000	-0.003	-0.024
-631.536	252.879	-0.080	-0.136
-630.522	-200.000	-0.039	-0.201
-629.507	100.644	0.131	-0.151
-628.492	309.582	-0.139	-0.259
-627.478	800.000	0.043	0.137
-626.463	800.000	0.111	0.356
-625.449	-36.652	-0.343	-0.184
-624.434	800.000	-0.044	0.150
-623.419	122.201	-0.181	-0.225
-622.405	-200.000	-0.028	-0.360
-621.390	145.197	-0.082	-0.109
-620.376	14.063	-0.120	-0.093
-619.361	800.000	-0.001	-0.003
-618.346	-39.615	0.173	-0.090
-617.332	-48.761	0.453	-0.216
-616.317	800.000	0.006	-0.022
-615.303	389.422	-0.143	0.295
-614.288	-94.447	0.210	-0.057
-613.273	31.734	-0.143	-0.122
-612.259	-51.605	-0.373	-0.173
-611.244	-18.872	-0.127	0.079
-610.230	-96.976	0.286	-0.075
-609.215	343.312	0.124	-0.241
-608.201	-96.871	0.166	-0.043
-607.186	-10.008	0.094	0.062
-606.171	61.483	0.125	-0.124
-605.157	-36.164	-0.277	-0.148
-604.142	-87.614	-0.091	-0.027
-603.128	756.046	-0.105	-0.282
-602.113	449.793	-0.150	0.328
-601.098	800.000	0.078	-0.240
-600.084	11.658	0.194	0.148
-599.069	523.799	0.130	-0.303
-598.055	500.989	0.127	0.290
-597.040	-200.000	-0.003	-0.206
-596.025	-150.116	-0.211	0.016
-595.011	420.649	-0.082	0.176
-593.996	579.164	-0.078	0.188
-592.982	-200.000	-0.345	0.000
-591.967	-2.728	-0.135	-0.094
-590.952	-80.802	-0.283	0.093
-589.938	31.932	-0.150	0.128
-588.923	-175.357	-0.038	-0.001
-587.909	-64.436	0.543	0.219
-586.894	247.094	0.197	-0.330
-585.879	273.726	0.137	-0.241
-584.865	-60.847	0.078	-0.033
-583.850	-37.584	-0.156	0.083
-582.836	-44.008	0.236	-0.118
-581.821	21.299	0.093	0.075
-580.806	11.360	-0.056	-0.042
-579.792	-10.958	0.092	0.061
-578.777	441.441	-0.170	0.370
-577.763	-200.000	0.042	0.227
-576.748	209.216	0.062	0.097
-575.733	-40.590	0.227	-0.117
-574.719	-7.847	0.217	0.146
-573.704	80.773	0.180	-0.193
-572.690	59.102	0.225	-0.220
-571.675	-110.666	-0.237	-0.049
-570.661	95.774	0.368	-0.417
-569.646	-174.189	-0.269	-0.008
-568.631	6.847	-0.138	-0.102
-567.617	-58.330	-0.053	-0.023
-566.602	50.761	-0.231	0.217
-565.588	-71.247	-0.224	0.083
-564.573	-25.527	-0.357	0.209
-563.558	-50.480	0.268	-0.126
-562.544	363.283	-0.073	-0.146
-561.529	675.997	0.093	0.240
-560.515	-6.343	-0.097	-0.066
-559.500	21.304	-0.139	-0.112
-558.485	-200.000	0.014	-0.307
-557.471	-24.894	0.174	-0.103
-556.456	44.014	-0.092	-0.083
-555.442	-92.958	0.152	-0.042
-554.427	-112.421	-0.110	0.022
-553.412	-3.362	-0.048	-0.033
-552.398	121.996	-0.125	-0.155
-551.383	104.431	0.082	-0.095
-550.369	19.280	-0.082	-0.065
-549.354	800.000	0.091	0.327
-548.339	-200.000	0.030	0.144
-547.325	153.605	-0.078	-0.106
-546.310	159.172	0.145	-0.200
-545.296	-46.679	-0.244	0.119
-544.281	133.694	-0.019	0.024
-543.266	-200.000	-0.034	0.216
-542.252	-100.527	0.027	-0.007
-541.237	-88.124	-0.350	0.104
-540.223	99.988	-0.144	0.166
-539.208	738.524	-0.059	0.158
-538.193	-66.963	-0.154	-0.060
-537.179	-81.601	0.265	0.086
-536.164	88.721	0.050	-0.055
-535.150	800.000	0.088	-0.267
-534.135	800.000	-0.081	-0.223
-533.121	574.540	-0.147	0.355
-532.106	-39.625	0.081	0.042
-531.091	234.321	-0.041	0.068
-530.077	-5.727	-0.080	-0.055
-529.062	-4.341	0.220	0.151
-528.048	-200.000	-0.012	0.134
-527.033	163.937	0.152	-0.212
-526.018	-56.153	-0.322	-0.142
-525.004	800.000	-0.056	-0.170
-523.989	-32.790	-0.154	-0.085
-522.975	126.368	-0.196	0.245
-521.960	27.542	-0.093	0.077
-520.945	-200.000	0.003	-0.243
-519.931	-71.001	0.339	0.126
-518.916	-200.000	-0.006	0.030
-517.902	-15.432	0.281	-0.178
-516.887	-127.177	-0.390	0.056
-515.872	-53.539	-0.364	0.165
-514.858	10.522	0.048	-0.036
-513.843	800.000	0.064	0.215
-512.829	-18.228	-0.105	-0.065
-511.814	800.000	-0.031	-0.127
-510.799	27.479	0.187	-0.155
-509.785	-200.000	-0.006	0.173
-508.770	3.550	-0.230	0.166
-507.756	525.401	0.056	-0.132
-506.741	-177.280	0.323	-0.008
-505.726	-120.350	-0.109	0.018
-504.712	-12.315	0.134	-0.087
-503.697	123.236	0.134	0.166
-502.683	800.000	-0.083	-0.348
-501.668	-37.140	-0.275	-0.146
-500.653	-200.000	-0.027	0.211
-499.639	221.781	0.124	0.197
-498.624	346.835	-0.064	0.124
-497.610	-98.938	0.126	0.032
-496.595	444.136	0.187	-0.405
-495.581	-200.000	0.026	0.214
-494.566	-137.393	0.030	-0.003
-493.551	25.302	0.105	0.086
-492.537	60.433	0.092	0.090
-491.522	9.512	0.247	0.185
-490.508	-153.701	0.077	0.005
-489.493	-116.455	0.132	0.024
-488.478	-200.000	-0.044	0.305
-487.464	-137.434	-0.086	-0.010
-486.449	427.972	0.069	-0.147
-485.435	141.440	-0.234	0.306
-484.420	-46.743	-0.302	-0.146
-483.405	-165.673	0.014	-0.001
-482.391	-124.337	0.304	0.047
-481.376	-100.007	0.154	0.038
-480.362	-200.000	0.056	0.338
-479.347	6.188	0.074	0.054
-478.332	75.246	-0.219	0.228
-477.318	-114.807	0.296	0.056
-476.303	-2.214	-0.170	0.118
-475.289	59.447	-0.088	-0.085
-474.274	-5.481	0.079	0.054
-473.259	58.277	0.095	0.092
-472.245	-84.850	-0.275	0.085
-471.230	-2.573	0.088	0.061
-470.216	-200.000	0.005	-0.035
-469.201	84.005	0.264	0.285
-468.186	288.193	-0.114	-0.203
-467.172	-200.000	-0.045	-0.199
-466.157	-17.336	-0.229	-0.142
-465.143	48.623	-0.178	0.164
-464.128	435.500	0.052	-0.112
-463.113	103.547	-0.237	0.275
-462.099	-24.139	0.478	0.282
-461.084	-200.000	0.087	0.464
-460.070	679.714	0.025	-0.064
-459.055	-73.183	-0.140	-0.051
-458.040	87.624	-0.113	-0.124
-457.026	24.362	0.139	-0.113
-456.011	-200.000	0.038	0.171
-454.997	-59.281	-0.307	0.130
-453.982	387.841	0.082	0.168
-452.968	231.426	0.100	0.161
-451.953	-200.000	-0.020	0.139
-450.938	-200.000	0.001	0.011
-449.924	-154.997	-0.193	0.013
-448.909	800.000	0.034	0.121
-447.895	800.000	0.026	0.092
-446.880	432.985	0.083	0.177
-445.865	800.000	0.094	0.350
-444.851	-200.000	0.001	-0.081
-443.836	-194.749	-0.279	0.002
-442.822	149.626	0.124	0.166
-441.807	195.405	-0.041	-0.061
-440.792	-106.591	-0.260	0.057
-439.778	800.000	-0.088	0.295
-438.763	474.045	0.106	-0.236
-437.749	-1.947	0.223	-0.155
-436.734	102.810	0.115	-0.133
-435.719	-78.614	0.245	0.083
-434.705	-18.601	0.078	-0.048
-433.690	-79.254	-0.271	-0.091
-432.676	-155.471	0.258	0.016
-431.661	208.621	-0.146	0.226
-430.646	-104.104	0.302	0.069
-429.632	-200.000	-0.016	-0.143
-428.617	731.834	-0.062	-0.163
-427.603	22.912	-0.182	-0.147
-426.588	-200.000	0.024	0.301
-425.573	603.184	-0.164	0.403
-424.559	800.000	-0.097	0.323
-423.544	-200.000	0.009	-0.210
-422.530	-84.471	-0.242	0.075
-421.515	-69.650	0.044	-0.017
-420.500	-41.926	0.046	-0.023
-419.486	77.339	-0.362	-0.380
-418.471	800.000	0.004	-0.016
-417.457	800.000	-0.063	-0.189
-416.442	-51.343	-0.220	0.101
-415.428	-200.000	-0.018	0.191
-414.413	151.591	-0.221	-0.296
-413.398	23.512	0.180	0.146
-412.384	-46.350	-0.237	0.115
-411.369	800.000	-0.066	-0.185
-410.355	55.202	0.221	-0.211
-409.340	28.030	0.256	0.213
-408.325	-200.000	-0.354	-0.000
-407.311	-96.400	0.455	0.119
-406.296	-200.000	-0.055	0.299
-405.282	800.000	0.098	-0.380
-404.267	202.862	-0.191	-0.291
-403.252	-200.000	-0.009	-0.053
-402.238	53.348	-0.218	-0.206
-401.223	93.155	-0.144	-0.160
-400.209	-114.211	-0.119	-0.023
-399.194	-39.735	0.153	-0.079
-398.179	-200.000	0.038	0.337
-397.165	-200.000	-0.037	-0.357
-396.150	225.023	0.027	-0.042
-395.136	-142.368	0.323	0.031
-394.121	25.830	-0.134	0.110
-393.106	70.993	0.156	-0.159
-392.092	425.596	0.070	-0.148
-391.077	-200.000	0.020	-0.178
-390.063	-200.000	0.001	0.368
-389.048	-37.084	-0.224	-0.118
-388.033	318.463	-0.153	0.286
-387.019	-77.442	0.206	-0.071
-386.004	-22.762	-0.020	-0.012
-384.990	80.548	0.182	0.193
-383.975	215.473	0.145	-0.227
-382.960	613.591	0.033	-0.081
-381.946	-151.417	0.269	-0.020
-380.931	-200.000	0.005	-0.304
-379.917	-48.897	0.268	0.126
-378.902	206.984	-0.108	0.166
-377.888	43.657	-0.119	-0.107
-376.873	162.929	-0.356	0.492
-375.858	800.000	0.024	-0.085
-374.844	-200.000	0.008	-0.179
-373.829	13.266	-0.185	-0.141
-372.815	44.300	-0.216	-0.195
-371.800	7.658	-0.121	-0.089
-370.785	-59.574	0.071	0.030
-369.771	-122.784	-0.290	-0.046
-368.756	22.817	-0.307	-0.248
-367.742	-200.000	0.016	-0.198
-366.727	59.646	0.128	-0.124
-365.712	-200.000	-0.005	-0.120
-364.698	68.210	-0.055	0.055
-363.683	-187.428	0.192	-0.003
-362.669	26.715	0.159	0.131
-361.654	-42.922	-0.029	-0.015
-360.639	-200.000	0.010	-0.387
-359.625	-75.194	-0.176	-0.062
-358.610	-49.953	0.186	-0.087
-357.596	-109.300	0.227	0.047
-356.581	222.563	0.101	-0.160
-355.566	-134.833	-0.142	-0.017
-354.552	17.696	0.250	-0.196
-353.537	46.816	0.039	0.036
-352.523	33.261	-0.121	-0.103
-351.508	253.087	-0.083	0.140
-350.493	162.828	0.096	-0.133
-349.479	-200.000	0.030	0.338
-348.464	168.877	-0.084	0.117
-347.450	101.994	-0.222	0.255
-346.435	399.733	-0.032	0.066
-345.420	-60.070	0.219	0.092
-344.406	15.082	-0.341	-0.263
-343.391	800.000	0.038	0.130
-342.377	367.168	0.153	0.304
-341.362	166.974	0.342	0.477
-340.348	253.242	-0.172	0.289
-339.333	-200.000	0.024	0.202
-338.318	127.069	0.037	-0.046
-337.304	761.754	0.083	0.220
-336.289	322.206	-0.188	0.353
-335.275	716.488	-0.029	-0.076
-334.260	-27.043	-0.241	0.138
-333.245	800.000	-0.030	0.109
-332.231	-50.299	0.350	-0.162
-331.216	278.517	0.028	0.050
-330.202	-20.617	0.179	-0.108
-329.187	-134.165	-0.038	0.005
-328.172	-20.891	0.249	0.150
-327.158	-68.974	0.089	-0.034
-326.143	-41.300	0.235	0.119
-325.129	120.815	-0.164	-0.201
-324.114	53.020	-0.197	0.185
-323.099	-200.000	-0.047	0.223
-322.085	439.550	0.133	-0.285
-321.070	800.000	-0.016	0.063
-320.056	800.000	0.078	0.221
-319.041	800.000	0.037	-0.136
-318.026	-200.000	0.026	-0.156
-317.012	-200.000	-0.027	-0.164
-315.997	-22.433	0.277	0.165
-314.983	204.460	-0.240	-0.365
-313.968	219.634	0.189	-0.297
-312.953	237.066	-0.024	-0.039
-311.939	-200.000	-0.012	-0.222
-310.924	47.635	-0.240	-0.219
-309.910	-117.057	-0.047	0.008
-308.895	721.193	0.103	0.270
-307.880	-49.631	-0.185	0.087
-306.866	-134.787	-0.082	0.010
-305.851	-200.000	0.042	0.294
-304.837	357.731	0.119	-0.233
-303.822	-200.000	0.020	0.215
-302.807	-200.000	-0.015	0.182
-301.793	474.181	-0.033	-0.074
-300.778	692.079	0.035	0.090
-299.764	-59.476	-0.052	-0.022
-298.749	800.000	0.036	0.103
-297.735	-63.543	0.118	-0.047
-296.720	-95.539	-0.300	0.079
-295.705	136.814	-0.031	-0.040
-294.691	-200.000	0.013	0.126
-293.676	-200.000	-0.027	0.235
-292.662	-200.000	0.028	0.238
-291.647	106.007	-0.163	0.189
-290.632	-93.394	0.167	-0.046
-289.618	62.257	0.258	0.253
-288.603	-22.356	0.254	-0.151
-287.589	-200.000	0.027	-0.317
-286.574	399.919	0.124	-0.254
-285.559	-129.126	-0.190	-0.026
-284.545	800.000	0.107	-0.337
-283.530	317.409	0.139	-0.258
-282.516	94.593	-0.154	-0.172
-281.501	-40.822	0.186	0.094
-280.486	-137.516	-0.234	-0.026
-279.472	455.532	0.210	0.457
-278.457	800.000	0.107	-0.381
-277.443	120.222	-0.239	0.291
-276.428	-200.000	-0.017	0.086
-275.413	89.245	-0.196	0.215
-274.399	4.057	-0.115	0.083
-273.384	-200.000	0.020	0.262
-272.370	800.000	-0.084	-0.339
-271.355	-82.124	-0.152	-0.049
-270.340	-200.000	0.024	0.197
-269.326	-94.454	0.114	-0.030
-268.311	-53.162	-0.249	-0.112
-267.297	-200.000	0.064	-0.381
-266.282	-200.000	0.011	0.094
-265.267	112.032	-0.116	0.137
-264.253	730.235	0.140	-0.367
-263.238	-46.423	0.249	-0.120
-262.224	-110.672	-0.137	-0.028
-261.209	800.000	-0.126	-0.533
-260.195	-200.000	0.040	-0.304
-259.180	44.648	0.192	-0.173
-258.165	-200.000	0.023	0.180
-257.151	74.316	-0.214	0.221
-256.136	43.656	0.224	-0.201
-255.122	576.959	-0.057	0.136
-254.107	-180.709	0.614	0.012
-253.092	800.000	-0.059	0.248
-252.078	-192.775	0.283	-0.003
-251.063	179.938	-0.152	-0.218
-250.049	-135.534	0.116	0.013
-249.034	-105.020	0.251	0.056
-248.019	-200.000	-0.135	0.000
-247.005	110.832	0.149	0.176
-245.990	46.131	0.052	-0.047
-244.976	800.000	-0.080	-0.243
-243.961	99.309	0.176	-0.199
-242.946	235.960	0.154	-0.249
-241.932	-200.000	-0.050	-0.312
-240.917	-200.000	0.028	0.345
-239.903	-57.713	0.099	0.042
-238.888	-138.406	0.122	-0.013
-237.873	-104.163	-0.057	0.013
-236.859	-47.962	0.060	0.029
-235.844	-80.738	0.357	-0.116
-234.830	434.228	-0.079	-0.169
-233.815	59.055	-0.163	-0.157
-232.800	-200.000	-0.047	0.245
-231.786	-187.747	-0.116	-0.001
-230.771	12.293	-0.328	0.248
-229.757	-80.947	-0.193	0.063
-228.742	-200.000	-0.005	0.068
-227.727	-109.795	0.217	-0.045
-226.713	79.267	-0.180	-0.189
-225.698	6.153	-0.188	0.137
-224.684	-5.801	-0.190	-0.128
-223.669	800.000	0.094	0.349
-222.655	-200.000	-0.006	0.071
-221.640	262.195	-0.066	-0.112
-220.625	0.192	0.041	0.028
-219.611	-117.483	-0.251	0.044
-218.596	-21.343	0.131	0.078
-217.582	541.680	0.064	0.148
-216.567	710.194	0.015	-0.039
-215.552	800.000	-0.094	-0.273
-214.538	-139.138	0.114	0.012
-213.523	-100.703	0.174	0.042
-212.509	-76.189	-0.204	-0.070
-211.494	-90.775	-0.428	0.121
-210.479	800.000	-0.070	-0.247
-209.465	17.452	0.193	-0.150
-208.450	796.846	-0.125	-0.336
-207.436	133.137	-0.171	0.217
-206.421	-70.266	0.276	-0.103
-205.406	379.344	0.063	0.127
-204.392	27.959	0.266	-0.219
-203.377	792.763	0.049	0.133
-202.363	52.357	-0.218	-0.203
-201.348	-200.000	0.020	0.168
-200.333	599.462	-0.168	0.407
-199.319	-200.000	-0.023	-0.137
-198.304	-83.928	-0.158	0.049
-197.290	-104.489	0.138	-0.031
-196.275	800.000	0.029	-0.087
-195.260	-20.399	0.108	0.065
-194.246	163.677	-0.107	-0.148
-193.231	-200.000	-0.017	0.190
-192.217	131.379	0.035	-0.044
-191.202	764.178	0.140	0.371
-190.187	-200.000	-0.010	-0.182
-189.173	-200.000	-0.022	-0.422
-188.158	91.066	0.029	-0.032
-187.144	-68.910	0.329	-0.124
-186.129	4.314	-0.035	-0.025
-185.114	800.000	-0.017	-0.048
-184.100	-125.998	-0.192	0.028
-183.085	-5.124	0.167	0.112
-182.071	152.119	0.073	-0.097
-181.056	800.000	0.006	0.020
-180.042	800.000	-0.059	0.182
-179.027	112.200	0.134	0.159
-178.012	-200.000	-0.040	-0.238
-176.998	-6.381	0.119	0.079
-175.983	-23.859	0.331	-0.194
-174.969	-30.029	0.059	-0.033
-173.954	86.002	-0.134	-0.144
-172.939	-200.000	-0.006	0.185
-171.925	42.088	-0.209	-0.185
-170.910	-64.053	0.161	-0.064
-169.896	105.815	-0.053	0.062
-168.881	-200.000	-0.031	-0.200
-167.866	800.000	0.058	0.242
-166.852	4.593	0.126	-0.090
-165.837	213.122	-0.086	0.133
-164.823	-29.593	-0.123	0.068
-163.808	-91.955	-0.229	0.063
-162.793	-71.212	0.311	0.114
-161.779	-134.111	0.122	0.015
-160.764	-68.081	-0.270	-0.103
-159.750	-200.000	0.009	0.106
-158.735	-169.230	0.136	-0.005
-157.720	193.730	0.011	-0.016
-156.706	252.348	0.152	-0.253
-155.691	-132.883	0.309	0.038
-154.677	-200.000	0.002	0.275
-153.662	180.115	-0.108	0.154
-152.647	-141.954	0.201	0.020
-151.633	-98.320	-0.266	-0.067
-150.618	-200.000	-0.046	0.203
-149.604	800.000	-0.044	-0.170
-148.589	-200.000	0.056	0.294
-147.574	152.084	-0.123	-0.164
-146.560	518.543	-0.082	-0.187
-145.545	95.263	0.147	-0.164
-144.531	-107.803	0.220	0.047
-143.516	-116.310	0.369	-0.067
-142.502	-185.638	-0.323	-0.005
-141.487	12.382	0.242	0.182
-140.472	-110.312	-0.419	0.085
-139.458	-200.000	-0.020	0.295
-138.443	-200.000	-0.048	-0.454
-137.429	-76.063	0.410	0.141
-136.414	-94.142	0.317	0.085
-135.399	-200.000	-0.016	0.356
-134.385	-200.000	0.019	0.130
-133.370	800.000	0.055	-0.190
-132.356	-35.285	0.312	0.166
-131.341	146.997	0.096	0.126
-130.326	-92.786	0.221	0.060
-129.312	-54.495	0.326	0.144
-128.297	-22.884	0.200	0.118
-127.283	800.000	-0.100	-0.290
-126.268	44.263	-0.326	-0.292
-125.253	195.657	0.102	0.151
-124.239	78.811	-0.044	-0.046
-123.224	-90.613	0.044	0.012
-122.210	16.376	0.196	-0.151
-121.195	101.154	0.173	-0.196
-120.180	208.931	0.074	-0.112
-119.166	735.527	0.079	-0.206
-118.151	-200.000	0.037	0.231
-117.137	35.827	0.326	0.279
-116.122	800.000	0.014	0.051
-115.107	214.281	0.173	-0.268
-114.093	130.332	-0.086	0.107
-113.078	800.000	-0.063	-0.212
-112.064	-144.193	0.438	-0.040
-111.049	800.000	-0.077	0.242
-110.034	-15.879	0.126	-0.078
-109.020	-200.000	-0.026	0.121
-108.005	63.817	-0.137	0.134
-106.991	100.833	0.277	0.314
-105.976	22.875	-0.282	-0.225
-104.962	-200.000	-0.018	-0.249
-103.947	-167.304	-0.091	-0.004
-102.932	800.000	0.176	0.513
-101.918	-28.912	0.015	0.008
-100.903	82.740	0.281	-0.298
-99.889	-59.897	-0.213	-0.089
-98.874	-200.000	-0.006	-0.207
-97.859	545.350	-0.102	-0.238
-96.845	-200.000	0.037	-0.311
-95.830	-25.861	-0.434	-0.249
-94.816	800.000	0.048	0.170
-93.801	143.093	0.111	0.144
-92.786	800.000	0.182	-0.543
-91.772	-34.816	0.309	-0.164
-90.757	190.541	-0.117	-0.171
-89.743	360.309	-0.083	-0.162
-88.728	75.805	0.244	-0.251
-87.713	56.559	-0.217	0.206
-86.699	129.092	0.087	0.108
-85.684	30.998	0.234	-0.195
-84.670	259.139	0.041	-0.069
-83.655	-24.085	-0.166	0.096
-82.640	-200.000	-0.003	0.223
-81.626	-49.012	-0.095	0.044
-80.611	-2.776	0.266	-0.181
-79.597	-10.598	-0.178	-0.114
-78.582	212.312	0.124	-0.190
-77.567	47.790	0.115	-0.104
-76.553	-200.000	-0.038	0.253
-75.538	800.000	-0.050	-0.139
-74.524	255.787	-0.078	-0.131
-73.509	-200.000	-0.036	-0.207
-72.494	-200.000	0.013	-0.250
-71.480	77.407	-0.214	0.221
-70.465	205.890	0.134	-0.202
-69.451	-105.008	0.229	-0.051
-68.436	-109.876	0.304	-0.062
-67.422	-70.746	0.109	0.040
-66.407	-200.000	-0.026	0.129
-65.392	800.000	-0.108	-0.290
-64.378	-200.000	-0.000	0.021
-63.363	-3.940	0.158	-0.106
-62.349	308.776	0.181	0.330
-61.334	125.918	-0.906	-1.113
-60.319	96.314	0.591	0.657
-59.305	670.008	-0.491	-1.236
-58.290	741.273	0.553	1.445
-57.276	800.000	0.415	1.340
-56.261	-200.000	121.078	641.618
-55.246	436.513	1533.258	3246.674
-54.232	148.762	2690.199	3535.746
-53.217	93.039	2272.515	2497.244
-52.203	33.365	1890.148	1595.359
-51.188	27.597	1687.412	1380.641
-50.173	25.355	1648.633	1332.252
-49.159	45.670	1715.078	1540.742
-48.144	43.926	1727.756	1538.842
-47.130	26.994	1679.685	1369.552
-46.115	24.567	1664.573	1339.014
-45.100	24.433	1659.482	1333.859
-44.086	24.305	1657.733	1331.451
-43.071	24.375	1654.469	1329.291
-42.057	24.317	1652.247	1327.029
-41.042	24.363	1650.394	1325.825
-40.027	24.455	1648.760	1325.142
-39.013	24.285	1646.938	1322.363
-37.998	24.315	1645.456	1321.344
-36.984	24.387	1643.962	1320.629
-35.969	24.412	1642.488	1319.577
-34.954	24.439	1641.407	1318.852
-33.940	24.389	1639.559	1316.949
-32.925	24.435	1637.823	1315.840
-31.911	24.413	1636.387	1314.471
-30.896	24.383	1634.501	1312.686
-29.881	24.404	1633.271	1311.802
-28.867	24.393	1631.352	1310.121
-27.852	24.437	1629.280	1308.733
-26.838	24.420	1628.170	1307.660
-25.823	24.447	1627.192	1307.020
-24.809	24.501	1625.991	1306.403
-23.794	24.536	1624.303	1305.253
-22.779	24.504	1623.366	1304.214
-21.765	24.451	1621.463	1302.241
-20.750	24.368	1620.143	1300.526
-19.736	24.527	1618.560	1300.366
-18.721	24.426	1617.293	1298.561
-17.706	24.398	1615.967	1297.241
-16.692	24.400	1614.394	1295.941
-15.677	24.484	1612.572	1295.038
-14.663	24.591	1611.321	1294.753
-13.648	24.469	1610.669	1293.298
-12.633	24.487	1608.647	1291.753
-11.619	24.491	1607.344	1290.679
-10.604	24.476	1605.535	1289.071
-9.590	24.495	1604.328	1288.190
-8.575	24.538	1603.069	1287.436
-7.560	24.412	1602.237	1285.809
-6.546	24.472	1600.806	1285.036
-5.531	24.515	1599.824	1284.508
-4.517	24.481	1598.477	1283.134
-3.502	24.399	1597.823	1281.971
-2.487	24.581	1595.517	1281.374
-1.473	24.180	1583.462	1268.782
-0.458	20.918	1564.489	1230.540
0.556	16.350	1565.774	1198.886
1.571	13.935	1588.863	1199.045
2.586	13.713	1601.199	1206.634
3.600	12.938	1548.126	1161.075
4.615	7.528	1442.409	1046.130
5.629	1.885	1383.066	967.273
6.644	0.927	1375.161	955.610
7.659	0.751	1374.832	954.192
8.673	0.732	1373.568	953.107
9.688	0.780	1371.138	951.641
10.702	0.627	1368.288	948.618
11.717	3.337	1371.709	967.949
12.731	10.274	1382.288	1019.127
13.746	15.863	1390.332	1060.263
14.761	17.313	1392.102	1070.654
15.775	16.809	1389.205	1065.164
16.790	15.726	1386.909	1056.511
17.804	14.949	1385.096	1050.156
18.819	14.575	1383.856	1046.777
19.834	14.296	1382.273	1043.742
20.848	14.180	1380.852	1041.849
21.863	13.813	1379.739	1038.622
22.877	13.698	1378.575	1036.931
23.892	13.625	1377.771	1035.783
24.907	13.608	1376.859	1034.899
25.921	13.518	1376.360	1033.867
26.936	13.753	1374.560	1033.891
27.950	13.838	1373.583	1033.593
28.965	13.765	1373.105	1032.687
29.980	13.788	1371.807	1031.761
30.994	13.818	1371.204	1031.408
32.009	13.895	1370.367	1031.162
33.023	13.806	1369.177	1029.622
34.038	13.957	1367.814	1029.446
35.053	13.793	1366.547	1027.385
36.067	13.824	1365.251	1026.510
37.082	13.795	1364.766	1025.874
38.096	13.873	1363.932	1025.641
39.111	13.830	1362.594	1024.279
40.126	13.737	1362.192	1023.310
41.140	13.797	1360.787	1022.537
42.155	13.702	1360.916	1021.957
43.169	13.739	1360.093	1021.471
44.184	13.675	1360.072	1020.975
45.199	13.602	1359.668	1020.132
46.213	13.682	1359.091	1020.103
47.228	13.721	1358.425	1019.748
48.242	13.815	1356.759	1018.985
49.257	13.703	1355.262	1017.083
50.271	13.817	1353.902	1016.675
51.286	13.831	1353.062	1016.035
52.301	13.740	1351.796	1014.443
53.315	13.768	1350.331	1013.419
54.330	13.761	1349.415	1012.601
55.344	13.678	1348.470	1011.300
56.359	13.645	1347.285	1010.119
57.374	13.747	1346.036	1009.717
58.388	13.646	1345.731	1008.780
59.403	13.696	1345.262	1008.646
60.417	13.591	1344.118	1007.059
61.432	13.666	1343.178	1006.720
62.447	13.550	1342.586	1005.485
63.461	13.701	1341.131	1005.221
64.476	13.600	1340.472	1004.027
65.490	13.671	1338.877	1003.175
66.505	13.648	1337.361	1001.809
67.520	13.547	1336.387	1000.380
68.534	13.698	1334.948	1000.124
69.549	13.678	1334.193	999.350
70.563	13.633	1332.985	998.086
71.578	13.572	1331.863	996.789
72.593	13.600	1330.893	996.145
73.607	13.526	1330.408	995.250
74.622	13.514	1329.360	994.303
75.636	13.453	1328.859	993.478
76.651	13.480	1327.899	992.833
77.666	13.490	1327.419	992.448
78.680	13.581	1326.784	992.428
79.695	13.570	1326.038	991.719
80.709	13.692	1324.750	991.395
81.724	13.632	1324.133	990.488
82.739	13.599	1323.396	989.654
83.753	13.670	1322.364	989.218
84.768	13.711	1321.334	988.605
85.782	13.786	1319.848	987.848
86.797	13.747	1318.345	986.404
87.812	13.744	1317.514	985.681
88.826	13.694	1316.775	984.742
89.841	13.802	1314.977	983.950
90.855	13.818	1313.930	983.173
91.870	13.890	1312.856	982.711
92.884	13.845	1312.510	982.096
93.899	13.793	1311.536	980.974
94.914	13.949	1310.022	980.678
95.928	13.905	1309.831	980.184
96.943	13.799	1309.380	979.138
97.957	13.798	1308.230	978.186
98.972	13.889	1306.643	977.450
99.987	13.901	1305.996	976.945
101.001	13.760	1305.154	975.401
102.016	13.771	1304.156	974.633
103.030	13.812	1303.333	974.174
104.045	13.863	1302.305	973.617
105.060	13.758	1301.265	972.138
106.074	13.822	1299.555	971.148
107.089	13.738	1298.210	969.571
108.103	13.772	1297.316	969.014
109.118	13.691	1295.863	967.369
110.133	13.699	1294.418	966.250
111.147	13.705	1293.046	965.176
112.162	13.680	1292.040	964.197
113.176	13.753	1290.640	963.490
114.191	13.767	1289.954	962.976
115.206	13.803	1288.462	961.982
116.220	13.757	1287.092	960.611
117.235	13.796	1286.186	960.074
118.249	13.745	1285.363	959.080
119.264	13.696	1283.996	957.691
120.279	13.696	1283.028	956.886
121.293	13.694	1282.138	956.123
122.308	13.661	1281.063	955.050
123.322	13.762	1280.145	954.859
124.337	13.777	1278.770	953.841
125.352	13.810	1277.965	953.342
126.366	13.726	1277.037	952.082
127.381	13.689	1275.925	950.959
128.395	13.732	1274.363	949.957
129.410	13.777	1273.616	949.574
130.424	13.603	1273.328	948.277
131.439	13.698	1272.347	948.009
132.454	13.773	1270.910	947.280
133.468	13.753	1270.244	946.586
134.483	13.703	1269.541	945.693
135.497	13.740	1268.487	945.033
136.512	13.755	1266.900	943.858
137.527	13.610	1266.054	942.316
138.541	13.782	1264.087	941.745
139.556	13.721	1263.174	940.638
140.570	13.717	1262.539	940.059
141.585	13.806	1260.920	939.275
142.600	13.956	1259.480	938.963
143.614	13.880	1258.724	937.892
144.629	14.013	1257.381	937.557
145.643	13.965	1256.523	936.563
146.658	13.855	1255.686	935.235
147.673	13.853	1253.653	933.629
148.687	13.949	1252.692	933.370
149.702	13.959	1251.165	932.205
150.716	13.826	1250.153	930.623
151.731	13.832	1249.049	929.754
152.746	13.875	1247.615	928.843
153.760	13.941	1246.554	928.343
154.775	13.975	1245.460	927.631
155.789	14.063	1244.510	927.333
156.804	13.986	1243.253	925.887
157.819	13.938	1242.596	925.049
158.833	13.993	1241.371	924.358
159.848	14.122	1240.828	924.592
160.862	14.095	1239.598	923.441
161.877	13.971	1238.579	921.916
162.892	13.918	1237.640	920.842
163.906	13.981	1236.641	920.365
164.921	14.010	1235.398	919.516
165.935	14.052	1234.643	919.108
166.950	14.091	1233.886	918.680
167.964	14.042	1233.515	918.050
168.979	14.063	1232.375	917.235
169.994	14.173	1231.337	916.990
171.008	14.087	1230.645	915.919
172.023	14.176	1229.871	915.749
173.037	14.238	1228.984	915.353
174.052	14.178	1228.379	914.490
175.067	14.187	1227.136	913.532
176.081	14.118	1226.236	912.405
177.096	14.096	1225.487	911.647
178.110	14.157	1224.169	910.917
179.125	14.116	1223.105	909.822
180.140	14.115	1222.071	908.964
181.154	14.115	1220.768	907.917
182.169	14.196	1219.389	907.250
183.183	14.202	1218.273	906.373
184.198	14.248	1216.895	905.518
185.213	14.292	1215.764	904.835
186.227	14.270	1215.008	904.073
187.242	14.277	1214.073	903.339
188.256	14.382	1212.950	902.988
189.271	14.340	1211.587	901.666
190.286	14.313	1210.624	900.724
191.300	14.294	1210.249	900.266
192.315	14.147	1209.904	899.135
193.329	14.211	1208.890	898.643
194.344	14.217	1208.336	898.184
195.359	14.293	1207.917	898.203
196.373	14.361	1206.950	897.776
197.388	14.319	1206.363	897.033
198.402	14.427	1206.337	897.512
199.417	14.548	1205.386	897.381
200.432	14.572	1204.636	896.871
201.446	14.522	1203.329	895.549
202.461	14.686	1202.385	895.647
203.475	14.612	1201.812	894.746
204.490	14.587	1200.527	893.574
205.504	14.476	1199.175	891.898
206.519	14.497	1198.021	891.070
207.534	14.564	1197.111	890.673
208.548	14.517	1195.860	889.413
209.563	14.532	1195.486	889.135
210.577	14.575	1194.209	888.334
211.592	14.645	1193.573	888.157
212.607	14.705	1192.343	887.480
213.621	14.709	1192.031	887.194
214.636	14.677	1190.665	885.930
215.650	14.797	1189.608	885.696
216.665	14.738	1188.802	884.708
217.680	14.737	1188.414	884.336
218.694	14.763	1187.399	883.639
219.709	14.881	1186.098	883.218
220.723	14.895	1185.650	882.880
221.738	14.862	1184.751	881.957
222.753	14.876	1184.269	881.595
223.767	14.809	1183.837	880.841
224.782	14.910	1182.790	880.513
225.796	14.911	1182.579	880.286
226.811	14.855	1181.701	879.260
227.826	14.863	1181.345	878.957
228.840	14.987	1180.051	878.570
229.855	14.838	1179.323	877.166
230.869	14.849	1178.752	876.721
231.884	14.854	1178.091	876.181
232.899	14.991	1176.839	875.890
233.913	14.945	1176.326	875.191
234.928	14.873	1175.643	874.229
235.942	14.898	1174.949	873.766
236.957	14.942	1173.977	873.194
237.972	14.851	1173.465	872.262
238.986	14.904	1172.790	871.957
240.001	14.920	1172.134	871.475
241.015	14.976	1170.842	870.732
242.030	14.976	1170.173	870.158
243.045	15.131	1169.157	870.131
244.059	15.088	1168.720	869.505
245.074	15.072	1168.017	868.819
246.088	15.076	1167.183	868.145
247.103	15.076	1166.343	867.440
248.117	15.169	1165.497	867.218
249.132	15.127	1165.320	866.794
250.147	15.304	1164.266	866.845
251.161	15.239	1163.159	865.612
252.176	15.298	1162.959	865.690
253.190	15.384	1161.950	865.303
254.205	15.369	1161.783	865.025
255.220	15.314	1161.003	864.084
256.234	15.397	1160.155	863.806
257.249	15.377	1159.304	862.992
258.263	15.372	1159.013	862.674
259.278	15.385	1158.524	862.303
260.293	15.344	1158.155	861.739
261.307	15.512	1157.124	861.756
262.322	15.530	1156.627	861.402
263.336	15.496	1155.650	860.426
264.351	15.557	1154.973	860.159
265.366	15.631	1154.351	859.998
266.380	15.563	1153.973	859.290
267.395	15.648	1152.761	858.749
268.409	15.635	1152.069	858.087
269.424	15.527	1151.460	857.009
270.439	15.633	1150.712	856.916
271.453	15.598	1150.470	856.483
272.468	15.628	1149.517	855.849
273.482	15.620	1148.504	854.980
274.497	15.490	1148.367	854.142
275.512	15.676	1147.220	854.154
276.526	15.549	1146.634	853.002
277.541	15.610	1146.289	852.977
278.555	15.728	1145.440	852.870
279.570	15.614	1144.633	851.617
280.585	15.712	1143.795	851.414
281.599	15.679	1143.053	850.616
282.614	15.767	1141.821	850.071
283.628	15.767	1140.389	848.929
284.643	15.809	1139.734	848.576
285.657	15.728	1139.320	847.788
286.672	15.822	1137.970	847.179
287.687	15.873	1136.965	846.614
288.701	15.778	1136.616	845.800
289.716	15.808	1136.150	845.528
290.730	15.813	1135.082	844.683
291.745	15.900	1134.318	844.478
292.760	15.925	1133.548	843.958
293.774	15.871	1133.232	843.377
294.789	15.908	1132.683	843.078
295.803	15.867	1132.229	842.461
296.818	16.074	1130.778	842.342
297.833	16.018	1130.228	841.574
298.847	16.066	1129.607	841.281
299.862	16.023	1128.829	840.410
300.876	16.089	1128.612	840.501
301.891	16.114	1127.343	839.607
302.906	16.085	1126.848	839.020
303.920	16.152	1126.147	838.759
304.935	16.175	1125.664	838.438
305.949	16.181	1124.806	837.756
306.964	16.220	1124.186	837.411
307.979	16.151	1123.538	836.516
308.993	16.194	1122.535	835.905
310.008	16.281	1121.820	835.730
311.022	16.338	1120.787	835.171
312.037	16.235	1120.010	834.006
313.052	16.123	1119.506	833.004
314.066	16.318	1118.013	832.784
315.081	16.243	1117.601	832.030
316.095	16.140	1116.820	830.870
317.110	16.241	1115.945	830.642
318.125	16.342	1115.260	830.555
319.139	16.264	1114.748	829.719
320.154	16.212	1113.857	828.727
321.168	16.241	1113.555	828.568
322.183	16.318	1112.941	828.415
323.197	16.298	1112.306	827.772
324.212	16.351	1111.402	827.284
325.227	16.347	1111.062	826.940
326.241	16.435	1110.259	826.700
327.256	16.332	1109.436	825.510
328.270	16.440	1108.190	825.037
329.285	16.370	1107.767	824.307
330.300	16.332	1107.055	823.519
331.314	16.419	1106.025	823.107
332.329	16.380	1105.030	822.103
333.343	16.447	1104.481	821.945
334.358	16.448	1103.156	820.891
335.373	16.438	1102.898	820.580
336.387	16.537	1101.800	820.171
337.402	16.530	1100.944	819.425
338.416	16.533	1100.590	819.106
339.431	16.633	1099.778	818.910
340.446	16.592	1099.317	818.297
341.460	16.667	1098.567	818.028
342.475	16.747	1097.165	817.299
343.489	16.766	1096.277	816.656
344.504	16.771	1095.908	816.336
345.519	16.823	1094.576	815.520
346.533	16.740	1094.322	814.860
347.548	16.741	1093.664	814.301
348.562	16.746	1092.823	813.628
349.577	16.744	1091.766	812.761
350.592	16.826	1090.967	812.484
351.606	16.771	1090.559	811.845
352.621	16.734	1089.868	811.086
353.635	16.697	1089.306	810.417
354.650	16.813	1088.292	810.147
355.665	16.755	1087.667	809.333
356.679	16.805	1087.229	809.173
357.694	16.865	1086.720	809.006
358.708	16.927	1085.851	808.585
359.723	16.873	1085.428	807.941
360.738	16.993	1084.632	807.849
361.752	16.982	1084.024	807.271
362.767	16.919	1083.589	806.576
363.781	17.007	1082.735	806.289
364.796	16.976	1082.250	805.708
365.810	17.139	1081.479	805.839
366.825	17.061	1081.069	805.089
367.840	17.004	1080.796	804.544
368.854	17.098	1079.901	804.252
369.869	17.203	1079.417	804.319
370.883	17.053	1078.654	802.971
371.898	17.139	1077.382	802.358
372.913	17.148	1076.760	801.866
373.927	17.159	1076.301	801.505
374.942	17.315	1075.725	801.741
375.956	17.124	1075.644	800.709
376.971	17.235	1074.960	800.651
377.986	17.210	1074.243	799.927
379.000	17.307	1074.017	800.145
380.015	17.391	1072.854	799.603
381.029	17.347	1072.231	798.863
382.044	17.343	1071.824	798.472
383.059	17.403	1071.015	798.079
384.073	17.295	1070.505	797.122
385.088	17.372	1069.298	796.510
386.102	17.443	1068.294	796.027
387.117	17.297	1067.761	794.875
388.132	17.365	1066.507	794.187
389.146	17.312	1065.753	793.310
390.161	17.517	1065.009	793.641
391.175	17.335	1064.627	792.442
392.190	17.343	1063.792	791.785
393.205	17.455	1063.152	791.759
394.219	17.447	1062.569	791.220
395.234	17.385	1061.222	789.857
396.248	17.538	1060.222	789.752
397.263	17.471	1059.372	788.739
398.278	17.389	1058.755	787.829
399.292	17.538	1057.879	787.798
400.307	17.215	1057.983	786.309
401.321	17.431	1056.949	786.470
402.336	17.479	1056.072	785.971
403.350	17.359	1055.521	784.937
404.365	17.542	1054.866	785.225
405.380	17.547	1053.546	784.198
406.394	17.681	1052.936	784.289
407.409	17.726	1052.422	784.043
408.423	17.651	1051.323	782.810
409.438	17.764	1050.752	782.838
410.453	17.642	1050.608	782.100
411.467	17.630	1049.503	781.153
412.482	17.720	1048.684	780.887
413.496	17.813	1048.115	780.818
414.511	17.828	1047.535	780.386
415.526	17.917	1046.904	780.256
416.540	17.932	1046.672	780.082
417.555	17.836	1046.260	779.266
418.569	18.016	1045.441	779.409
419.584	18.056	1045.309	779.422
420.599	17.943	1044.554	778.279
421.613	109.430	1328.969	1488.387
422.628	100.628	1370.389	1488.478
