DTS Sentinel unit serial number:	SN413079Multiplexer serial number:	ORYXHardware model number:	OX4-SRSoftware version number:	ORYX F/W v4.00 Oryx Data Collector v3.7.2.0data status	okinstallation	princeton_trtdifferential loss correction	single-endedforward channel	channel 2reverse channel	N/Adate	2019/09/17time	14:15:35forward acquisition time	60.00reverse acquisition time	0.00gamma	496.2192k internal	0.2314k external	0.2314temperature offset calibration	0.9986default loss term (dB/km)	0.3790temperature slope calibration	1.0000multiplexer offset coefficient	1.0000multiplexer slope coefficient	1.0000fibre end	0.00T internal ref (°C)	36.02T ext. ref 1 (°C)	0.41T ext. ref 2 (°C)	32.99length (m)	temperature (°C)	Stokes	anti-Stokes-747.200	-81.078	-0.253	0.085
-746.185	282.335	-0.193	0.350
-745.171	-200.000	0.002	0.085
-744.156	-59.303	-0.086	-0.037
-743.142	-66.742	0.154	0.062
-742.127	800.000	-0.102	0.350
-741.112	-26.779	0.280	0.166
-740.098	-61.306	0.362	0.155
-739.083	81.351	-0.225	-0.246
-738.069	277.840	0.089	0.160
-737.054	10.064	0.263	-0.203
-736.039	-200.000	0.046	-0.304
-735.025	197.342	-0.096	-0.148
-734.010	800.000	-0.051	0.193
-732.996	-136.844	-0.094	-0.011
-731.981	164.223	-0.085	0.121
-730.966	438.279	-0.027	-0.059
-729.952	-200.000	-0.005	-0.100
-728.937	-200.000	-0.037	-0.265
-727.923	-200.000	0.014	0.076
-726.908	56.588	-0.108	0.106
-725.894	71.728	-0.298	-0.314
-724.879	-83.274	-0.195	-0.063
-723.864	-200.000	-0.016	-0.094
-722.850	498.972	0.126	-0.293
-721.835	-91.643	-0.107	0.031
-720.821	-29.676	-0.102	-0.059
-719.806	800.000	-0.055	-0.214
-718.791	534.574	-0.023	-0.054
-717.777	19.228	0.116	-0.095
-716.762	-92.387	-0.203	-0.058
-715.748	71.559	-0.072	-0.075
-714.733	82.058	0.088	-0.096
-713.718	-106.737	-0.179	-0.040
-712.704	-200.000	-0.016	-0.337
-711.689	-194.918	-0.202	-0.002
-710.675	-145.876	0.307	-0.028
-709.660	28.028	0.357	-0.305
-708.645	-200.000	0.018	-0.388
-707.631	-200.000	-0.003	-0.156
-706.616	-103.359	0.225	0.054
-705.602	46.815	0.159	-0.149
-704.587	-200.000	0.023	-0.209
-703.572	-200.000	0.018	-0.199
-702.558	-200.000	0.006	-0.083
-701.543	160.251	-0.112	-0.158
-700.529	-66.745	-0.123	-0.049
-699.514	-169.630	0.233	-0.009
-698.499	-200.000	0.011	-0.189
-697.485	-114.833	0.165	-0.032
-696.470	144.942	0.131	0.177
-695.456	52.033	0.027	-0.026
-694.441	44.926	0.133	-0.124
-693.426	-114.605	-0.267	-0.052
-692.412	-200.000	-0.022	-0.100
-691.397	-114.220	-0.092	-0.018
-690.383	-138.037	0.178	0.020
-689.368	800.000	0.014	0.050
-688.354	-200.000	0.042	-0.276
-687.339	-155.073	-0.503	-0.033
-686.324	-120.736	0.107	0.018
-685.310	-145.310	-0.480	0.044
-684.295	47.049	0.161	0.152
-683.281	-0.518	-0.208	0.149
-682.266	182.388	-0.053	0.080
-681.251	800.000	-0.047	-0.148
-680.237	139.913	-0.087	0.116
-679.222	103.936	0.044	-0.052
-678.208	203.545	0.139	-0.218
-677.193	-131.181	-0.342	0.046
-676.178	800.000	-0.139	0.447
-675.164	379.435	-0.147	0.304
-674.149	733.698	-0.028	-0.075
-673.135	85.443	-0.114	0.127
-672.120	56.501	0.214	-0.210
-671.105	-12.803	-0.346	0.228
-670.091	81.482	0.065	-0.071
-669.076	-35.388	-0.171	-0.094
-668.062	750.140	-0.154	-0.421
-667.047	322.782	-0.106	-0.204
-666.032	-200.000	-0.032	0.206
-665.018	129.244	0.161	-0.208
-664.003	-107.815	0.088	0.019
-662.989	256.128	0.116	-0.202
-661.974	89.592	-0.245	-0.277
-660.959	-200.000	-0.003	0.070
-659.945	21.882	-0.107	-0.088
-658.930	-200.000	0.024	0.127
-657.916	-200.000	0.025	0.158
-656.901	-91.951	-0.126	0.036
-655.886	81.673	-0.101	0.111
-654.872	-2.378	-0.280	0.198
-653.857	-114.116	0.404	-0.079
-652.843	-104.016	-0.352	0.083
-651.828	-200.000	-0.013	-0.170
-650.814	10.311	-0.048	0.037
-649.799	-82.195	0.390	0.128
-648.784	-70.655	0.169	-0.064
-647.770	-123.807	-0.247	-0.039
-646.755	-90.286	-0.365	0.107
-645.741	126.805	-0.041	0.052
-644.726	43.555	-0.103	0.096
-643.711	-63.885	-0.362	0.150
-642.697	-106.560	-0.293	-0.066
-641.682	59.597	0.085	-0.085
-640.668	800.000	0.050	0.205
-639.653	37.875	-0.134	0.120
-638.638	148.509	0.268	-0.365
-637.624	180.914	0.166	-0.246
-636.609	59.696	0.142	0.141
-635.595	23.092	-0.196	-0.162
-634.580	93.722	-0.328	0.375
-633.565	479.755	0.137	-0.313
-632.551	385.787	-0.092	-0.192
-631.536	-71.118	0.089	0.034
-630.522	-18.815	-0.033	0.021
-629.507	-21.693	-0.066	0.041
-628.492	81.326	0.225	0.246
-627.478	-200.000	-0.036	-0.405
-626.463	46.603	0.147	-0.137
-625.449	39.877	0.310	-0.281
-624.434	-20.776	0.046	0.028
-623.419	232.510	0.120	0.198
-622.405	45.930	0.249	-0.232
-621.390	-114.405	0.314	0.061
-620.376	282.559	0.140	-0.254
-619.361	-200.000	0.010	-0.307
-618.346	-5.909	-0.087	0.060
-617.332	-179.754	-0.164	0.004
-616.317	-200.000	0.043	0.270
-615.303	800.000	-0.087	-0.246
-614.288	-200.000	-0.031	-0.254
-613.273	800.000	-0.023	-0.078
-612.259	-44.855	-0.096	-0.049
-611.244	-196.690	0.378	0.003
-610.230	-200.000	-0.029	0.295
-609.215	800.000	0.029	-0.095
-608.201	122.165	0.229	0.289
-607.186	800.000	-0.019	0.066
-606.171	-51.147	-0.241	0.114
-605.157	35.576	0.181	-0.160
-604.142	370.955	0.231	-0.473
-603.128	-59.220	0.373	-0.162
-602.113	368.850	0.133	0.270
-601.098	-136.999	-0.268	-0.031
-600.084	-200.000	0.013	-0.085
-599.069	670.042	-0.027	-0.070
-598.055	19.225	0.115	0.093
-597.040	-147.241	-0.218	0.019
-596.025	-99.594	-0.069	-0.017
-595.011	9.579	-0.300	0.229
-593.996	165.249	-0.095	0.135
-592.982	-200.000	0.008	0.185
-591.967	-45.816	0.275	0.137
-590.952	800.000	-0.023	-0.084
-589.938	-96.368	-0.359	0.096
-588.923	146.479	-0.046	-0.062
-587.909	173.214	0.054	-0.078
-586.894	114.166	-0.044	-0.053
-585.879	331.430	-0.125	0.242
-584.865	16.312	-0.117	0.093
-583.850	364.411	-0.122	0.246
-582.836	800.000	0.040	-0.155
-581.821	-63.470	0.150	-0.062
-580.806	-138.430	0.167	0.019
-579.792	358.022	0.116	-0.233
-578.777	17.260	-0.074	0.059
-577.763	-187.062	-0.307	-0.004
-576.748	-200.000	0.008	0.041
-575.733	-27.208	0.231	-0.136
-574.719	-136.978	-0.198	0.023
-573.704	-200.000	0.040	-0.445
-572.690	800.000	-0.073	0.209
-571.675	390.826	-0.023	0.048
-570.661	-140.065	-0.069	-0.007
-569.646	279.264	-0.069	0.125
-568.631	96.865	-0.153	-0.176
-567.617	596.601	-0.033	0.083
-566.602	-9.383	0.031	0.021
-565.588	-121.150	0.352	-0.059
-564.573	86.774	-0.240	0.267
-563.558	119.004	-0.293	-0.365
-562.544	-119.784	0.262	-0.045
-561.529	800.000	0.036	0.120
-560.515	-200.000	0.005	-0.109
-559.500	-97.522	-0.331	-0.087
-558.485	478.553	0.050	0.115
-557.471	-108.709	0.199	-0.043
-556.456	105.200	0.077	-0.092
-555.442	-130.815	-0.181	-0.024
-554.427	800.000	-0.081	0.247
-553.412	-200.000	0.005	-0.349
-552.398	67.076	-0.103	0.105
-551.383	284.817	-0.188	0.340
-550.369	-67.018	0.354	-0.141
-549.354	800.000	-0.028	-0.090
-548.339	800.000	-0.075	0.216
-547.325	-10.258	0.151	-0.101
-546.310	244.758	0.128	-0.216
-545.296	132.215	-0.082	-0.106
-544.281	-200.000	-0.045	0.224
-543.266	-200.000	0.003	-0.111
-542.252	-98.681	0.217	-0.056
-541.237	150.380	0.209	0.285
-540.223	-200.000	0.006	0.302
-539.208	369.537	0.096	-0.196
-538.193	62.060	0.202	-0.203
-537.179	529.907	0.093	-0.221
-536.164	22.323	0.316	-0.259
-535.150	62.427	0.195	-0.196
-534.135	107.068	0.356	-0.425
-533.121	-31.957	-0.203	0.114
-532.106	-75.786	0.122	0.043
-531.091	-75.478	-0.219	0.078
-530.077	800.000	-0.130	-0.375
-529.062	228.672	0.163	-0.268
-528.048	-91.033	0.215	-0.062
-527.033	9.503	-0.031	-0.024
-526.018	-116.878	-0.284	0.052
-525.004	5.345	-0.110	0.081
-523.989	113.950	0.180	0.220
-522.975	800.000	-0.055	-0.179
-521.960	-90.276	0.492	-0.144
-520.945	-73.834	0.255	0.093
-519.931	46.037	-0.137	0.128
-518.916	158.721	0.082	0.115
-517.902	-25.180	0.167	-0.100
-516.887	639.687	-0.144	0.368
-515.872	-24.179	-0.336	0.201
-514.858	184.674	0.074	0.111
-513.843	29.124	-0.312	-0.266
-512.829	291.783	0.125	-0.228
-511.814	-101.289	-0.312	-0.077
-510.799	-200.000	-0.059	0.289
-509.785	471.980	-0.071	-0.160
-508.770	-145.947	-0.371	0.033
-507.756	-200.000	-0.033	-0.238
-506.741	-59.271	-0.084	-0.036
-505.726	-131.893	-0.162	-0.021
-504.712	-140.735	-0.075	0.008
-503.697	-59.148	0.240	0.104
-502.683	554.767	-0.059	-0.142
-501.668	-106.422	0.078	0.018
-500.653	-152.798	0.137	-0.010
-499.639	-200.000	0.020	-0.352
-498.624	-46.059	-0.190	-0.094
-497.610	-200.000	-0.006	0.149
-496.595	-153.059	0.116	0.008
-495.581	-51.206	-0.341	-0.160
-494.566	97.746	0.149	0.171
-493.551	-136.119	-0.111	0.013
-492.537	-98.769	0.130	-0.033
-491.522	-49.671	0.175	0.084
-490.508	380.978	-0.060	0.123
-489.493	800.000	-0.097	0.301
-488.478	-190.530	-0.379	-0.004
-487.464	-110.376	-0.149	-0.031
-486.449	-200.000	0.049	-0.272
-485.435	620.896	-0.062	0.157
-484.420	-175.282	-0.190	0.005
-483.405	-157.774	-0.159	-0.009
-482.391	800.000	0.030	-0.112
-481.376	-50.698	-0.281	0.133
-480.362	21.122	-0.224	0.182
-479.347	16.494	0.083	-0.065
-478.332	20.487	-0.174	-0.141
-477.318	11.581	0.016	-0.013
-476.303	-114.585	0.270	0.052
-475.289	63.244	0.126	-0.127
-474.274	-200.000	0.007	0.148
-473.259	529.733	-0.094	0.222
-472.245	800.000	-0.121	-0.343
-471.230	-90.507	-0.120	-0.035
-470.216	800.000	0.049	0.201
-469.201	286.092	-0.094	-0.169
-468.186	800.000	0.023	-0.087
-467.172	15.578	0.226	-0.178
-466.157	113.667	0.047	-0.058
-465.143	-71.627	-0.082	-0.031
-464.128	218.599	-0.182	-0.292
-463.113	800.000	0.054	-0.209
-462.099	-166.785	-0.041	0.002
-461.084	744.009	-0.120	-0.323
-460.070	416.423	0.079	-0.170
-459.055	800.000	-0.040	0.159
-458.040	800.000	0.081	-0.315
-457.026	648.442	-0.059	0.151
-456.011	-54.822	-0.293	-0.132
-454.997	-49.401	-0.056	0.027
-453.982	-72.595	-0.381	0.141
-452.968	-200.000	-0.048	-0.280
-451.953	-200.000	-0.011	0.112
-450.938	2.823	-0.167	0.121
-449.924	-89.695	0.182	0.054
-448.909	-200.000	-0.003	-0.075
-447.895	584.519	0.118	-0.290
-446.880	48.108	-0.072	-0.068
-445.865	84.312	-0.129	0.141
-444.851	-81.441	-0.403	0.133
-443.836	345.157	0.090	-0.177
-442.822	-200.000	0.006	0.223
-441.807	321.976	0.186	0.355
-440.792	254.257	-0.127	0.218
-439.778	800.000	-0.074	0.260
-438.763	-154.612	0.403	-0.027
-437.749	-170.802	0.275	-0.009
-436.734	753.953	0.138	-0.375
-435.719	800.000	-0.077	-0.295
-434.705	123.449	-0.266	-0.334
-433.690	-195.038	0.207	-0.002
-432.676	-200.000	0.010	0.150
-431.661	21.775	0.139	-0.113
-430.646	260.755	0.152	0.263
-429.632	-200.000	-0.009	0.131
-428.617	-158.450	0.266	-0.015
-427.603	611.741	-0.086	-0.216
-426.588	-18.745	-0.116	-0.072
-425.573	-146.428	0.193	-0.017
-424.559	29.726	0.043	0.036
-423.544	-47.351	-0.101	-0.049
-422.530	800.000	-0.039	-0.137
-421.515	800.000	-0.058	0.197
-420.500	436.047	0.083	0.180
-419.486	-105.126	0.232	-0.053
-418.471	-44.808	-0.208	0.104
-417.457	-163.427	0.260	0.012
-416.442	66.581	-0.028	-0.028
-415.428	800.000	0.027	0.076
-414.413	467.605	-0.061	0.138
-413.398	-91.551	0.089	-0.025
-412.384	502.551	0.154	-0.355
-411.369	551.480	-0.101	-0.242
-410.355	-28.250	-0.248	0.143
-409.340	-105.264	0.241	-0.055
-408.325	-111.157	0.148	-0.030
-407.311	800.000	-0.011	0.035
-406.296	-200.000	0.048	-0.358
-405.282	-81.326	-0.523	-0.173
-404.267	-28.096	0.224	0.130
-403.252	17.132	0.361	-0.286
-402.238	-130.612	-0.191	0.026
-401.223	-139.878	-0.490	0.052
-400.209	376.231	-0.101	0.207
-399.194	-200.000	0.007	0.073
-398.179	-162.676	-0.203	0.010
-397.165	800.000	-0.053	-0.216
-396.150	800.000	0.016	-0.044
-395.136	-128.938	-0.028	-0.004
-394.121	-72.513	-0.166	-0.061
-393.106	-68.804	-0.164	-0.063
-392.092	82.881	0.090	0.098
-391.077	-111.956	-0.134	-0.027
-390.063	137.779	0.170	0.223
-389.048	800.000	0.068	-0.284
-388.033	-76.022	-0.339	-0.120
-387.019	-111.072	0.098	0.020
-386.004	64.279	0.175	-0.176
-384.990	24.660	-0.179	-0.148
-383.975	537.328	-0.129	-0.307
-382.960	800.000	0.045	0.134
-381.946	-200.000	0.038	0.221
-380.931	12.920	0.029	-0.023
-379.917	-28.519	-0.113	-0.065
-378.902	445.982	-0.072	0.158
-377.888	318.954	0.070	-0.132
-376.873	-43.454	0.189	-0.095
-375.858	-122.747	0.263	0.042
-374.844	-17.503	-0.120	-0.075
-373.829	384.307	-0.074	0.152
-372.815	7.611	0.214	-0.160
-371.800	-200.000	-0.021	-0.284
-370.785	-66.670	0.146	0.058
-369.771	-200.000	0.004	0.143
-368.756	800.000	0.072	0.206
-367.742	-152.980	-0.124	-0.009
-366.727	-154.718	-0.482	0.032
-365.712	800.000	-0.046	0.137
-364.698	-200.000	-0.012	0.138
-363.683	-200.000	0.010	0.246
-362.669	-88.794	-0.435	0.129
-361.654	-92.155	0.205	-0.058
-360.639	20.605	0.104	0.084
-359.625	-9.060	-0.338	0.226
-358.610	800.000	0.097	-0.292
-357.596	25.693	0.251	-0.208
-356.581	214.553	0.040	0.063
-355.566	45.685	0.060	-0.056
-354.552	-25.599	-0.170	-0.100
-353.537	-86.924	0.082	-0.025
-352.523	53.703	-0.037	0.036
-351.508	67.828	-0.046	-0.047
-350.493	68.522	-0.149	0.153
-349.479	36.333	0.275	0.242
-348.464	-58.206	-0.381	-0.166
-347.450	-36.559	-0.371	0.199
-346.435	-97.399	0.180	0.047
-345.420	-107.361	0.140	-0.031
-344.406	16.362	0.094	0.074
-343.391	13.825	-0.206	0.160
-342.377	-200.000	0.017	-0.149
-341.362	357.023	-0.087	-0.174
-340.348	-200.000	-0.001	-0.232
-339.333	-200.000	0.011	0.112
-338.318	-172.590	-0.012	-0.000
-337.304	-200.000	-0.030	-0.178
-336.289	-99.682	-0.143	0.036
-335.275	360.378	0.088	0.176
-334.260	-121.487	-0.016	0.003
-333.245	621.454	-0.091	0.229
-332.231	433.285	-0.116	0.251
-331.216	199.395	0.149	-0.229
-330.202	23.772	-0.109	0.090
-329.187	-200.000	0.039	-0.170
-328.172	-144.930	-0.133	0.012
-327.158	800.000	0.119	-0.435
-326.143	554.832	-0.101	0.242
-325.129	-129.311	-0.447	-0.062
-324.114	161.427	-0.127	0.177
-323.099	-146.050	-0.216	-0.019
-322.085	260.233	0.151	0.260
-321.070	-200.000	0.057	0.402
-320.056	-58.560	0.244	0.105
-319.041	48.550	0.006	-0.005
-318.026	-95.375	0.089	0.024
-317.012	-121.802	0.128	-0.021
-315.997	-200.000	0.003	0.187
-314.983	-133.195	-0.110	0.014
-313.968	-200.000	0.347	-0.001
-312.953	83.902	-0.178	0.194
-311.939	-200.000	0.002	-0.112
-310.924	205.320	0.128	-0.198
-309.910	800.000	-0.045	0.181
-308.895	-51.737	0.229	0.106
-307.880	-200.000	-0.031	0.247
-306.866	-200.000	-0.051	0.240
-305.851	800.000	0.166	0.464
-304.837	-103.336	0.163	0.038
-303.822	235.505	0.069	0.113
-302.807	-200.000	0.001	-0.086
-301.793	315.610	-0.108	0.204
-300.778	754.279	-0.044	0.118
-299.764	48.735	-0.096	0.089
-298.749	-24.104	0.120	-0.071
-297.735	-85.724	0.223	0.069
-296.720	353.424	-0.072	0.141
-295.705	122.139	-0.126	0.157
-294.691	207.543	-0.055	0.086
-293.676	119.592	-0.019	0.023
-292.662	-99.611	0.239	-0.060
-291.647	132.745	-0.151	0.195
-290.632	367.724	0.055	0.110
-289.618	-162.860	-0.140	-0.007
-288.603	-200.000	0.013	-0.249
-287.589	182.611	-0.214	0.315
-286.574	-10.960	0.327	0.215
-285.559	-74.090	-0.114	-0.041
-284.545	-30.057	-0.150	0.085
-283.530	-11.737	-0.350	0.229
-282.516	-200.000	-0.024	0.158
-281.501	601.284	0.062	0.152
-280.486	18.343	-0.141	0.112
-279.472	-39.211	-0.201	0.105
-278.457	-47.992	0.197	-0.095
-277.443	352.186	-0.133	-0.263
-276.428	-113.227	-0.419	-0.082
-275.413	85.508	-0.250	0.273
-274.399	346.253	0.124	0.242
-273.384	-139.512	-0.100	0.011
-272.370	151.165	0.015	-0.020
-271.355	800.000	-0.044	-0.157
-270.340	-100.226	-0.315	-0.078
-269.326	-65.638	0.266	-0.106
-268.311	-176.277	-0.245	-0.006
-267.297	-200.000	0.004	-0.063
-266.282	102.733	0.128	-0.149
-265.267	-71.430	0.164	0.061
-264.253	-85.711	0.280	0.087
-263.238	683.950	0.064	0.167
-262.224	-103.457	-0.270	-0.063
-261.209	-134.790	-0.224	0.027
-260.195	43.730	0.216	-0.197
-259.180	758.743	0.077	-0.208
-258.165	688.663	0.072	0.187
-257.151	-129.118	0.037	0.005
-256.136	-42.380	0.157	0.080
-255.122	464.962	0.177	-0.395
-254.107	-16.550	-0.287	-0.181
-253.092	-200.000	0.391	0.002
-252.078	-200.000	0.042	-0.185
-251.063	787.680	-0.090	-0.245
-250.049	-200.000	-0.002	-0.205
-249.034	800.000	-0.067	-0.262
-248.019	800.000	0.050	0.154
-247.005	-163.518	0.493	0.023
-245.990	800.000	-0.039	0.141
-244.976	674.237	-0.071	-0.184
-243.961	-122.229	-0.238	0.039
-242.946	-11.677	-0.116	0.076
-241.932	68.936	0.196	0.200
-240.917	-52.333	-0.212	-0.098
-239.903	-172.089	0.388	-0.012
-238.888	109.720	-0.079	0.094
-237.873	-52.680	-0.357	-0.163
-236.859	457.726	0.088	0.194
-235.844	-60.663	-0.107	0.045
-234.830	128.667	0.217	-0.275
-233.815	194.513	-0.180	0.271
-232.800	-59.292	-0.114	0.049
-231.786	157.010	0.107	0.147
-230.771	103.372	-0.083	-0.096
-229.757	-19.145	-0.121	0.075
-228.742	800.000	0.080	0.242
-227.727	282.453	0.111	0.199
-226.713	-200.000	0.037	-0.251
-225.698	12.586	-0.253	0.194
-224.684	-0.940	0.215	-0.151
-223.669	-59.027	-0.074	0.032
-222.655	-91.568	0.181	0.051
-221.640	521.187	-0.160	0.372
-220.625	-82.294	0.201	0.065
-219.611	757.106	0.007	0.019
-218.596	800.000	-0.094	0.332
-217.582	119.255	0.102	-0.126
-216.567	197.403	0.148	0.224
-215.552	82.740	-0.206	0.222
-214.538	-164.231	0.210	-0.010
-213.523	800.000	0.070	0.197
-212.509	590.291	-0.028	-0.069
-211.494	48.994	-0.106	0.099
-210.479	-173.301	0.254	-0.008
-209.465	-200.000	-0.009	-0.057
-208.450	-77.143	0.165	0.057
-207.436	158.323	0.123	0.170
-206.421	-200.000	0.041	0.229
-205.406	-79.070	-0.108	0.037
-204.392	-13.009	0.208	-0.134
-203.377	-40.655	-0.185	-0.095
-202.363	57.031	0.103	-0.100
-201.348	19.407	0.079	-0.063
-200.333	-147.874	0.224	-0.019
-199.319	-140.080	0.289	-0.030
-198.304	-39.319	0.073	0.038
-197.290	-33.926	-0.201	-0.110
-196.275	-200.000	0.013	0.141
-195.260	404.122	0.200	0.418
-194.246	584.936	-0.105	-0.256
-193.231	-80.786	0.119	0.039
-192.217	-66.983	-0.231	-0.091
-191.202	-11.977	0.253	0.164
-190.187	39.974	-0.160	0.142
-189.173	-200.000	-0.050	-0.406
-188.158	133.255	-0.104	-0.133
-187.144	-200.000	-0.021	-0.137
-186.129	85.772	0.334	-0.364
-185.114	-139.687	0.176	0.019
-184.100	800.000	0.091	0.325
-183.085	-72.119	0.215	0.079
-182.071	128.048	0.120	-0.151
-181.056	-180.777	0.185	0.004
-180.042	-200.000	-0.025	0.270
-179.027	-137.881	0.521	-0.058
-178.012	800.000	-0.079	-0.259
-176.998	7.183	0.181	-0.134
-175.983	-96.844	-0.312	-0.081
-174.969	-21.300	-0.339	0.206
-173.954	-191.327	0.480	-0.005
-172.939	800.000	0.086	-0.283
-171.925	-79.614	-0.236	-0.079
-170.910	315.739	0.104	0.194
-169.896	30.925	-0.173	-0.147
-168.881	-70.807	0.413	0.154
-167.866	-23.964	0.184	0.109
-166.852	-200.000	0.014	0.121
-165.837	41.069	0.273	-0.244
-164.823	-31.696	0.136	-0.075
-163.808	29.259	-0.135	0.114
-162.793	-200.000	-0.018	-0.191
-161.779	570.776	-0.046	0.111
-160.764	-134.394	-0.296	-0.036
-159.750	-153.806	0.115	-0.008
-158.735	-32.308	-0.196	-0.109
-157.720	149.871	0.097	0.130
-156.706	319.971	0.161	0.302
-155.691	-66.338	-0.359	0.142
-154.677	287.502	0.093	-0.167
-153.662	-28.051	0.401	-0.230
-152.647	325.435	-0.077	0.147
-151.633	120.970	-0.098	0.121
-150.618	-80.260	-0.154	0.051
-149.604	138.447	0.078	-0.101
-148.589	130.319	-0.187	-0.237
-147.574	195.503	0.134	0.201
-146.560	-158.754	-0.139	-0.008
-145.545	-200.000	0.256	0.000
-144.531	-136.616	0.135	-0.015
-143.516	-80.841	-0.175	0.058
-142.502	-200.000	0.049	0.237
-141.487	-32.194	-0.291	-0.161
-140.472	-121.079	0.257	-0.043
-139.458	-200.000	-0.005	-0.070
-138.443	473.752	-0.114	0.254
-137.429	-127.839	-0.188	0.027
-136.414	263.626	0.118	-0.203
-135.399	-200.000	-0.013	0.119
-134.385	109.174	0.158	0.187
-133.370	-43.876	0.436	-0.217
-132.356	-200.000	-0.119	-0.695
-131.341	-39.164	0.242	0.126
-130.326	-82.067	0.119	-0.038
-129.312	-81.785	-0.070	-0.023
-128.297	26.367	-0.105	0.087
-127.283	-200.000	0.043	0.239
-126.268	-87.320	0.219	-0.066
-125.253	800.000	-0.086	-0.245
-124.239	800.000	0.074	-0.314
-123.224	-142.820	-0.286	0.028
-122.210	-169.501	-0.370	-0.013
-121.195	-163.380	0.030	-0.001
-120.180	-68.226	0.154	0.059
-119.166	-63.017	-0.102	-0.042
-118.151	-154.021	0.300	-0.020
-117.137	630.073	-0.036	0.089
-116.122	-117.748	0.330	-0.059
-115.107	101.305	0.115	-0.132
-114.093	-89.072	0.081	-0.024
-113.078	38.981	0.293	-0.259
-112.064	-200.000	0.011	-0.246
-111.049	412.742	0.075	-0.157
-110.034	68.359	0.199	0.201
-109.020	-200.000	-0.026	-0.142
-108.005	-109.172	-0.196	0.041
-106.991	-112.948	-0.129	0.025
-105.976	285.689	0.174	0.310
-104.962	389.977	0.216	-0.443
-103.947	-200.000	-0.014	-0.098
-102.932	591.935	-0.094	0.229
-101.918	393.028	0.143	0.294
-100.903	-80.004	-0.210	0.070
-99.889	-200.000	-0.005	-0.050
-98.874	-50.991	0.174	0.081
-97.859	-127.375	-0.212	-0.031
-96.845	-93.112	-0.100	0.028
-95.830	-68.716	0.068	0.026
-94.816	84.413	0.059	0.064
-93.801	152.738	0.336	0.454
-92.786	-6.899	0.273	0.183
-91.772	338.046	0.076	-0.147
-90.757	800.000	0.047	0.152
-89.743	-175.398	0.406	-0.011
-88.728	92.569	-0.221	0.246
-87.713	22.101	-0.043	0.034
-86.699	-42.675	0.222	-0.111
-85.684	160.856	0.167	-0.230
-84.670	-44.292	-0.256	0.127
-83.655	12.130	-0.064	0.049
-82.640	696.770	-0.105	-0.273
-81.626	-200.000	0.020	-0.247
-80.611	-109.318	-0.249	-0.052
-79.597	-200.000	0.008	0.089
-78.582	27.431	-0.186	0.154
-77.567	353.637	-0.099	-0.194
-76.553	590.082	0.128	0.311
-75.538	64.713	0.132	-0.132
-74.524	41.424	-0.303	-0.270
-73.509	-154.461	-0.231	0.015
-72.494	42.548	0.266	0.239
-71.480	465.041	0.156	0.345
-70.465	165.929	0.115	0.160
-69.451	172.886	0.075	-0.107
-68.436	800.000	0.068	0.252
-67.422	-15.795	0.208	-0.131
-66.407	-135.018	0.017	0.002
-65.392	369.303	0.113	0.226
-64.378	-43.780	0.151	-0.075
-63.363	-53.241	0.377	-0.171
-62.349	-18.759	0.151	-0.093
-61.334	77.341	-0.832	-0.874
-60.319	45.485	0.444	0.405
-59.305	780.614	-0.256	-0.692
-58.290	800.000	0.261	1.108
-57.276	800.000	0.401	1.720
-56.261	-200.000	90.480	515.990
-55.246	454.132	1421.856	3107.076
-54.232	144.900	2636.685	3478.179
-53.217	104.726	2358.619	2742.391
-52.203	45.087	1962.745	1784.187
-51.188	39.107	1747.248	1541.504
-50.173	36.536	1701.544	1481.444
-49.159	51.954	1746.299	1640.389
-48.144	55.033	1765.171	1681.961
-47.130	39.108	1723.308	1520.150
-46.115	36.161	1708.482	1484.367
-45.100	35.958	1703.173	1478.132
-44.086	35.923	1701.098	1476.007
-43.071	35.976	1698.093	1473.749
-42.057	35.757	1696.846	1470.928
-41.042	36.004	1693.812	1470.127
-40.027	35.920	1692.335	1468.149
-39.013	35.895	1690.228	1466.071
-37.998	35.849	1688.748	1464.378
-36.984	35.964	1687.116	1463.779
-35.969	35.936	1686.047	1462.583
-34.954	36.122	1683.602	1461.814
-33.940	36.091	1682.185	1460.291
-32.925	36.041	1680.379	1458.283
-31.911	36.076	1679.079	1457.368
-30.896	36.051	1676.530	1454.907
-29.881	36.064	1674.511	1453.194
-28.867	35.973	1673.327	1451.420
-27.852	36.015	1672.330	1450.815
-26.838	35.999	1670.498	1449.046
-25.823	36.099	1669.142	1448.571
-24.809	36.002	1668.302	1447.054
-23.794	36.075	1666.349	1445.851
-22.779	36.023	1664.664	1443.940
-21.765	36.052	1663.002	1442.655
-20.750	36.030	1661.243	1440.913
-19.736	36.036	1660.093	1439.899
-18.721	36.085	1658.345	1438.695
-17.706	35.984	1657.518	1437.161
-16.692	36.011	1655.590	1435.637
-15.677	36.007	1654.160	1434.312
-14.663	36.028	1652.158	1432.677
-13.648	36.052	1651.166	1431.939
-12.633	36.050	1649.772	1430.652
-11.619	36.003	1648.151	1428.840
-10.604	36.014	1646.718	1427.627
-9.590	36.068	1645.240	1426.691
-8.575	36.098	1643.664	1425.485
-7.560	36.039	1642.736	1424.190
-6.546	36.029	1641.198	1422.723
-5.531	35.923	1640.602	1421.367
-4.517	36.025	1638.722	1420.435
-3.502	36.030	1638.172	1419.943
-2.487	36.075	1636.564	1418.823
-1.473	36.100	1625.180	1409.077
-0.458	33.771	1605.505	1375.121
0.556	28.379	1605.319	1339.655
1.571	25.354	1628.916	1336.749
2.586	24.226	1641.903	1338.823
3.600	21.561	1588.337	1275.631
4.615	12.119	1471.443	1117.596
5.629	2.678	1399.554	1001.465
6.644	0.599	1389.611	980.770
7.659	0.337	1388.462	978.173
8.673	0.290	1388.068	977.501
9.688	0.404	1385.440	976.306
10.702	0.259	1382.610	973.288
11.717	4.186	1389.709	1003.663
12.731	13.439	1404.878	1074.862
13.746	18.134	1410.698	1109.763
14.761	17.481	1407.934	1103.255
15.775	16.557	1405.081	1094.945
16.790	15.512	1402.544	1086.118
17.804	14.691	1400.196	1078.901
18.819	14.260	1399.094	1075.174
19.834	13.937	1397.295	1071.613
20.848	13.659	1396.166	1068.860
21.863	13.424	1395.016	1066.368
22.877	13.273	1394.065	1064.575
23.892	13.288	1392.673	1063.512
24.907	13.278	1391.932	1062.787
25.921	13.176	1391.132	1061.429
26.936	13.276	1390.163	1061.237
27.950	13.403	1389.004	1061.073
28.965	13.489	1388.212	1060.929
29.980	13.490	1387.101	1059.990
30.994	13.493	1386.313	1059.312
32.009	13.599	1385.231	1059.067
33.023	13.583	1384.116	1058.024
34.038	13.566	1382.375	1056.488
35.053	13.511	1381.268	1055.196
36.067	13.427	1380.852	1054.253
37.082	13.419	1379.768	1053.282
38.096	13.520	1378.722	1053.034
39.111	13.468	1378.144	1052.164
40.126	13.407	1377.143	1050.923
41.140	13.322	1376.757	1049.995
42.155	13.329	1375.564	1049.033
43.169	13.270	1376.166	1049.025
44.184	13.410	1375.256	1049.127
45.199	13.330	1374.797	1048.181
46.213	13.379	1374.289	1048.008
47.228	13.443	1373.520	1047.733
48.242	13.409	1372.565	1046.698
49.257	13.490	1370.658	1045.661
50.271	13.376	1369.049	1043.623
51.286	13.441	1367.667	1042.892
52.301	13.464	1366.469	1042.026
53.315	13.404	1365.433	1040.765
54.330	13.341	1364.668	1039.699
55.344	13.292	1363.625	1038.500
56.359	13.381	1362.416	1038.051
57.374	13.264	1361.730	1036.697
58.388	13.258	1360.757	1035.827
59.403	13.273	1360.618	1035.728
60.417	13.283	1359.402	1034.771
61.432	13.215	1358.888	1033.860
62.447	13.212	1357.643	1032.808
63.461	13.110	1356.249	1031.016
64.476	13.258	1354.673	1030.652
65.490	13.208	1353.905	1029.663
66.505	13.275	1351.939	1028.495
67.520	13.171	1351.516	1027.438
68.534	13.252	1349.556	1026.354
69.549	13.224	1348.874	1025.571
70.563	13.257	1348.103	1025.098
71.578	13.245	1346.798	1023.946
72.593	13.271	1345.327	1022.894
73.607	13.112	1345.616	1022.038
74.622	13.175	1343.949	1021.074
75.636	13.227	1343.387	1020.878
76.651	13.170	1342.700	1019.916
77.666	13.172	1341.976	1019.286
78.680	13.206	1341.592	1019.111
79.695	13.110	1340.695	1017.749
80.709	13.283	1339.503	1017.822
81.724	13.203	1339.072	1016.909
82.739	13.238	1338.508	1016.606
83.753	13.265	1337.100	1015.615
84.768	13.408	1335.810	1015.421
85.782	13.468	1334.646	1014.813
86.797	13.387	1333.437	1013.309
87.812	13.389	1332.101	1012.217
88.826	13.299	1330.878	1010.650
89.841	13.444	1329.858	1010.668
90.855	13.475	1328.654	1009.854
91.870	13.422	1328.111	1009.030
92.884	13.409	1327.383	1008.306
93.899	13.459	1326.730	1008.024
94.914	13.465	1325.925	1007.359
95.928	13.585	1324.856	1007.190
96.943	13.505	1323.581	1005.644
97.957	13.485	1323.294	1005.221
98.972	13.546	1321.559	1004.181
99.987	13.437	1321.121	1003.097
101.001	13.498	1319.616	1002.237
102.016	13.467	1319.146	1001.601
103.030	13.464	1318.100	1000.703
104.045	13.491	1316.931	999.890
105.060	13.429	1315.932	998.668
106.074	13.381	1314.493	997.200
107.089	13.322	1313.340	995.878
108.103	13.298	1312.205	994.786
109.118	13.364	1310.640	993.909
110.133	13.288	1309.588	992.569
111.147	13.322	1308.084	991.545
112.162	13.362	1307.016	990.884
113.176	13.460	1305.683	990.374
114.191	13.457	1304.661	989.494
115.206	13.501	1303.394	988.705
116.220	13.241	1303.007	986.776
117.235	13.391	1301.433	986.388
118.249	13.404	1300.428	985.617
119.264	13.416	1299.212	984.681
120.279	13.394	1297.760	983.363
121.293	13.331	1297.168	982.450
122.308	13.312	1296.274	981.574
123.322	13.328	1294.892	980.539
124.337	13.385	1293.759	979.929
125.352	13.309	1292.712	978.601
126.366	13.292	1291.724	977.668
127.381	13.261	1290.909	976.782
128.395	13.292	1289.766	976.009
129.410	13.283	1288.338	974.791
130.424	13.409	1287.327	974.684
131.439	13.515	1286.603	974.669
132.454	13.451	1285.579	973.435
133.468	13.427	1284.942	972.722
134.483	13.425	1284.148	972.027
135.497	13.381	1283.104	970.893
136.512	13.373	1281.742	969.729
137.527	13.387	1280.116	968.494
138.541	13.482	1278.537	967.771
139.556	13.411	1277.657	966.599
140.570	13.487	1276.330	965.958
141.585	13.457	1275.361	964.960
142.600	13.541	1274.264	964.536
143.614	13.581	1272.926	963.669
144.629	13.473	1272.459	962.605
145.643	13.549	1270.871	961.759
146.658	13.412	1270.122	960.313
147.673	13.365	1268.724	958.898
148.687	13.403	1267.135	957.833
149.702	13.516	1265.491	957.154
150.716	13.468	1264.456	956.012
151.731	13.436	1263.540	955.050
152.746	13.474	1262.254	954.215
153.760	13.476	1260.857	953.082
154.775	13.519	1259.732	952.399
155.789	13.513	1258.796	951.573
156.804	13.624	1257.509	951.153
157.819	13.533	1256.701	949.935
158.833	13.546	1255.687	949.156
159.848	13.609	1255.072	948.967
160.862	13.694	1253.456	948.148
161.877	13.533	1252.272	946.249
162.892	13.462	1251.149	944.912
163.906	13.540	1250.175	944.540
164.921	13.547	1249.320	943.849
165.935	13.591	1248.603	943.473
166.950	13.702	1247.715	943.352
167.964	13.719	1247.081	942.884
168.979	13.711	1246.162	942.061
169.994	13.631	1245.379	940.929
171.008	13.675	1244.655	940.549
172.023	13.840	1243.687	940.674
173.037	13.803	1243.256	940.052
174.052	13.739	1241.940	938.610
175.067	13.684	1240.903	937.434
176.081	13.642	1239.572	936.110
177.096	13.707	1238.934	935.910
178.110	13.749	1237.510	934.991
179.125	13.780	1236.379	934.227
180.140	13.771	1235.301	933.280
181.154	13.778	1234.473	932.613
182.169	13.803	1232.707	931.332
183.183	13.846	1231.828	930.828
184.198	13.928	1230.714	930.364
185.213	13.845	1229.756	929.093
186.227	13.923	1228.564	928.546
187.242	13.951	1227.533	927.842
188.256	13.859	1226.660	926.587
189.271	13.902	1225.656	925.987
190.286	13.874	1224.762	925.069
191.300	13.783	1223.755	923.721
192.315	13.831	1222.798	923.186
193.329	13.574	1222.787	921.667
194.344	13.733	1221.973	921.857
195.359	13.809	1221.052	921.501
196.373	13.967	1220.527	921.899
197.388	14.069	1219.663	921.734
198.402	14.058	1219.635	921.570
199.417	14.083	1218.704	920.920
200.432	14.170	1217.530	920.436
201.446	14.115	1216.780	919.481
202.461	14.240	1215.854	919.392
203.475	14.158	1215.179	918.347
204.490	14.134	1213.620	916.954
205.504	14.054	1212.722	915.752
206.519	14.187	1211.182	915.240
207.534	14.232	1209.775	914.347
208.548	14.113	1208.937	912.975
209.563	14.176	1208.698	913.062
210.577	14.171	1207.560	912.095
211.592	14.223	1206.793	911.717
212.607	14.287	1206.016	911.399
213.621	14.266	1205.158	910.557
214.636	14.226	1204.179	909.516
215.650	14.313	1202.931	908.969
216.665	14.320	1202.431	908.548
217.680	14.375	1201.014	907.697
218.694	14.334	1200.726	907.177
219.709	14.351	1199.832	906.513
220.723	14.430	1198.914	906.168
221.738	14.360	1198.145	905.130
222.753	14.353	1197.487	904.513
223.767	14.459	1196.522	904.282
224.782	14.412	1196.458	903.895
225.796	14.484	1195.465	903.458
226.811	14.526	1194.662	902.998
227.826	14.426	1193.862	901.770
228.840	14.460	1193.154	901.338
229.855	14.437	1192.481	900.626
230.869	14.407	1191.665	899.769
231.884	14.460	1190.742	899.281
232.899	14.420	1190.311	898.657
233.913	14.417	1189.502	897.954
234.928	14.398	1188.539	897.045
235.942	14.340	1187.896	896.167
236.957	14.531	1186.685	896.197
237.972	14.474	1185.998	895.296
238.986	14.442	1185.757	894.862
240.001	14.520	1185.024	894.648
241.015	14.535	1183.892	893.795
242.030	14.585	1183.184	893.450
243.045	14.592	1182.107	892.596
244.059	14.595	1181.775	892.281
245.074	14.692	1180.600	891.833
246.088	14.621	1180.040	890.951
247.103	14.614	1179.349	890.313
248.117	14.665	1178.468	889.845
249.132	14.666	1177.651	889.150
250.147	14.847	1176.738	889.346
251.161	14.897	1175.930	888.925
252.176	14.980	1175.078	888.642
253.190	14.887	1174.830	887.880
254.205	14.861	1174.645	887.527
255.220	14.933	1173.834	887.218
256.234	14.967	1173.141	886.793
257.249	14.930	1172.280	885.871
258.263	15.013	1171.358	885.531
259.278	14.900	1171.664	885.089
260.293	15.072	1170.738	885.218
261.307	14.993	1169.929	884.113
262.322	15.076	1168.800	883.616
263.336	15.068	1168.719	883.437
264.351	15.169	1168.062	883.394
265.366	15.111	1167.485	882.577
266.380	15.093	1166.880	881.945
267.395	15.106	1165.763	881.093
268.409	15.113	1165.043	880.504
269.424	15.126	1164.144	879.819
270.439	15.161	1164.174	879.947
271.453	15.195	1163.265	879.356
272.468	15.190	1162.072	878.351
273.482	15.258	1161.143	877.929
274.497	15.223	1161.165	877.685
275.512	15.198	1159.927	876.542
276.526	15.208	1159.280	876.024
277.541	15.266	1158.538	875.691
278.555	15.163	1157.946	874.630
279.570	15.264	1157.296	874.586
280.585	15.246	1156.721	873.982
281.599	15.246	1155.851	873.244
282.614	15.302	1154.074	872.115
283.628	15.389	1152.824	871.546
284.643	15.341	1152.053	870.637
285.657	15.362	1151.600	870.331
286.672	15.387	1150.232	869.345
287.687	15.402	1149.356	868.686
288.701	15.457	1148.768	868.448
289.716	15.387	1148.162	867.551
290.730	15.401	1147.448	867.009
291.745	15.479	1146.586	866.683
292.760	15.417	1146.306	866.073
293.774	15.511	1145.644	865.982
294.789	15.545	1144.856	865.484
295.803	15.607	1144.261	865.280
296.818	15.576	1143.542	864.497
297.833	15.490	1142.678	863.328
298.847	15.532	1141.895	862.872
299.862	15.586	1140.796	862.246
300.876	15.539	1140.380	861.613
301.891	15.542	1139.999	861.266
302.906	15.559	1139.312	860.757
303.920	15.674	1138.231	860.454
304.935	15.734	1137.266	859.955
305.949	15.707	1137.229	859.709
306.964	15.783	1136.719	859.640
307.979	15.768	1135.688	858.707
308.993	15.801	1134.852	858.168
310.008	15.817	1134.017	857.540
311.022	15.839	1133.314	857.046
312.037	15.837	1132.143	856.071
313.052	15.759	1131.602	855.191
314.066	15.768	1130.708	854.484
315.081	15.718	1129.658	853.364
316.095	15.659	1129.192	852.638
317.110	15.761	1128.348	852.441
318.125	15.839	1127.278	851.952
319.139	15.781	1126.558	851.040
320.154	15.764	1126.300	850.683
321.168	15.783	1125.469	850.077
322.183	15.733	1125.127	849.489
323.197	15.770	1124.460	849.099
324.212	15.877	1123.771	849.040
325.227	15.794	1123.172	848.098
326.241	15.858	1122.324	847.705
327.256	15.846	1121.571	846.999
328.270	15.860	1120.273	846.012
329.285	15.845	1119.464	845.255
330.300	15.844	1118.627	844.540
331.314	15.822	1117.768	843.705
332.329	15.803	1117.202	843.112
333.343	15.968	1116.118	843.044
334.358	16.047	1115.248	842.705
335.373	15.909	1114.841	841.635
336.387	16.069	1113.599	841.422
337.402	16.068	1112.978	840.873
338.416	16.075	1112.323	840.341
339.431	16.056	1111.571	839.602
340.446	16.139	1111.131	839.607
341.460	16.201	1109.817	838.851
342.475	16.294	1109.291	838.837
343.489	16.150	1108.599	837.527
344.504	16.307	1107.438	837.353
345.519	16.337	1106.954	837.064
346.533	16.361	1105.863	836.281
347.548	16.227	1105.717	835.437
348.562	16.337	1104.561	835.033
349.577	16.352	1103.699	834.380
350.592	16.231	1103.406	833.486
351.606	16.246	1102.276	832.633
352.621	16.254	1101.254	831.825
353.635	16.374	1100.524	831.794
354.650	16.236	1100.276	830.853
355.665	16.259	1099.433	830.258
356.679	16.240	1098.921	829.703
357.694	16.360	1098.212	829.683
358.708	16.389	1097.422	829.157
359.723	16.295	1097.179	828.436
360.738	16.305	1096.377	827.809
361.752	16.306	1095.932	827.403
362.767	16.418	1095.080	827.236
363.781	16.453	1094.425	826.838
364.796	16.303	1094.537	826.115
365.810	16.503	1093.186	826.002
366.825	16.601	1092.466	825.861
367.840	16.688	1091.692	825.628
368.854	16.766	1091.444	825.747
369.869	16.705	1090.795	824.886
370.883	16.724	1089.528	823.949
371.898	16.589	1088.990	822.812
372.913	16.621	1088.492	822.519
373.927	16.687	1088.159	822.512
374.942	16.688	1087.514	821.957
375.956	16.782	1087.069	822.007
376.971	16.717	1086.073	820.865
377.986	16.650	1085.457	820.003
379.000	16.797	1085.339	820.552
380.015	16.830	1084.539	820.033
381.029	16.779	1084.204	819.463
382.044	16.866	1082.986	818.890
383.059	16.836	1082.342	818.183
384.073	16.825	1081.215	817.209
385.088	16.933	1080.315	816.975
386.102	16.898	1079.671	816.249
387.117	16.915	1078.722	815.538
388.132	16.808	1078.163	814.531
389.146	16.842	1077.071	813.798
390.161	16.891	1076.038	813.178
391.175	17.020	1075.409	813.251
392.190	16.977	1075.235	812.840
393.205	16.921	1074.585	812.010
394.219	17.010	1073.640	811.650
395.234	16.860	1072.856	810.268
396.248	16.982	1071.552	809.791
397.263	17.049	1070.185	809.007
398.278	16.896	1069.832	807.940
399.292	16.868	1069.347	807.368
400.307	16.966	1068.508	807.132
401.321	17.037	1067.492	806.630
402.336	16.900	1067.353	805.804
403.350	17.049	1066.282	805.628
404.365	17.123	1065.651	805.431
405.380	17.036	1065.109	804.538
406.394	16.986	1064.031	803.417
407.409	17.146	1063.445	803.661
408.423	17.192	1062.826	803.339
409.438	17.185	1062.089	802.676
410.453	17.227	1061.395	802.282
411.467	17.343	1060.719	802.247
412.482	17.295	1059.870	801.309
413.496	17.316	1059.576	801.112
414.511	17.384	1058.782	800.761
415.526	17.357	1058.543	800.381
416.540	17.413	1057.936	800.118
417.555	17.543	1057.218	800.114
418.569	17.363	1056.738	798.832
419.584	17.365	1056.241	798.395
420.599	17.551	1055.689	798.784
421.613	96.425	1313.145	1430.141
422.628	88.875	1350.655	1430.252
