DTS Sentinel unit serial number:	SN413079Multiplexer serial number:	ORYXHardware model number:	OX4-SRSoftware version number:	ORYX F/W v4.00 Oryx Data Collector v3.7.2.0data status	okinstallation	princeton_trtdifferential loss correction	single-endedforward channel	channel 2reverse channel	N/Adate	2019/09/12time	20:04:49forward acquisition time	15.00reverse acquisition time	0.00gamma	496.2192k internal	0.2327k external	0.2327temperature offset calibration	1.0154default loss term (dB/km)	0.3790temperature slope calibration	1.0000multiplexer offset coefficient	1.0000multiplexer slope coefficient	1.0000fibre end	0.00T internal ref (°C)	31.69T ext. ref 1 (°C)	3.48T ext. ref 2 (°C)	26.23length (m)	temperature (°C)	Stokes	anti-Stokes-747.200	109.507	-0.037	-0.044
-746.185	-73.810	0.122	0.045
-745.171	196.440	-0.046	-0.071
-744.156	-200.000	-0.002	-0.239
-743.142	110.632	0.167	0.203
-742.127	-71.203	0.841	-0.318
-741.112	-89.283	0.219	-0.065
-740.098	35.975	0.507	-0.450
-739.083	27.252	-0.560	-0.474
-738.069	-143.206	0.228	-0.022
-737.054	8.458	0.420	0.319
-736.039	-26.189	-0.663	-0.393
-735.025	-100.178	0.583	-0.146
-734.010	-157.132	-0.341	0.021
-732.996	31.170	0.085	-0.073
-731.981	-200.000	0.073	0.557
-730.966	-28.556	0.514	-0.299
-729.952	-41.759	-0.935	-0.483
-728.937	-200.000	0.106	-0.539
-727.923	36.447	0.111	0.099
-726.908	115.228	0.337	-0.415
-725.894	-35.063	-0.230	0.127
-724.879	-200.000	0.024	0.604
-723.864	-154.223	1.062	-0.072
-722.850	80.891	0.154	0.167
-721.835	194.129	-0.272	0.415
-720.821	-200.000	0.028	0.204
-719.806	141.122	-0.231	-0.308
-718.791	34.388	0.553	-0.486
-717.777	68.623	0.494	0.510
-716.762	45.485	-0.521	0.485
-715.748	800.000	-0.100	-0.312
-714.733	-124.258	0.475	-0.075
-713.718	-200.000	-0.112	-0.511
-712.704	-200.000	0.029	-0.444
-711.689	16.928	0.108	0.086
-710.675	-128.654	-0.480	-0.068
-709.660	29.089	-0.352	0.301
-708.645	-66.869	0.945	0.376
-707.631	-95.868	0.422	-0.113
-706.616	-112.481	0.304	0.061
-705.602	800.000	0.131	0.502
-704.587	800.000	0.111	0.374
-703.572	298.788	0.780	1.445
-702.558	7.238	0.581	-0.436
-701.543	426.465	-0.154	-0.333
-700.529	357.985	-0.088	-0.177
-699.514	-12.248	-0.091	0.060
-698.499	-200.000	-0.045	-0.449
-697.485	800.000	0.149	-0.612
-696.470	-6.337	0.563	0.386
-695.456	-200.000	-0.040	0.256
-694.441	14.595	-0.568	-0.447
-693.426	151.477	-0.196	-0.269
-692.412	791.304	0.185	-0.512
-691.397	48.461	0.871	0.820
-690.383	-158.763	-0.823	0.047
-689.368	-200.000	0.026	-0.159
-688.354	736.839	0.021	0.057
-687.339	-200.000	-0.005	-0.332
-686.324	-135.623	-0.761	0.091
-685.310	-86.781	0.363	0.112
-684.295	481.127	-0.232	-0.529
-683.281	84.619	0.512	-0.564
-682.266	-30.344	0.969	0.553
-681.251	-200.000	-0.005	1.712
-680.237	206.677	0.436	0.684
-679.222	800.000	0.253	0.711
-678.208	178.713	0.227	-0.334
-677.193	71.709	0.338	-0.353
-676.178	-200.000	-0.021	-0.422
-675.164	114.497	0.582	0.713
-674.149	800.000	-0.148	0.567
-673.135	-83.727	0.144	0.046
-672.120	-117.597	-1.022	0.185
-671.105	-74.862	0.293	-0.106
-670.091	561.708	-0.211	0.513
-669.076	-33.274	0.325	-0.181
-668.062	57.240	-0.489	0.480
-667.047	-200.000	0.125	0.633
-666.032	800.000	-0.191	0.557
-665.018	413.135	-0.235	0.502
-664.003	235.448	0.338	-0.561
-662.989	575.822	0.303	0.744
-661.974	800.000	-0.164	0.710
-660.959	-142.750	-0.995	-0.097
-659.945	106.439	0.438	-0.522
-658.930	-200.000	0.008	-0.418
-657.916	-112.008	-0.510	-0.103
-656.901	-3.972	-0.647	0.451
-655.886	-151.207	-0.096	-0.007
-654.872	800.000	0.114	-0.438
-653.857	207.304	0.289	-0.453
-652.843	-200.000	-0.056	-0.875
-651.828	-152.524	-0.150	0.011
-650.814	-110.445	-0.361	0.075
-649.799	785.094	0.238	0.656
-648.784	800.000	0.150	0.423
-647.770	-200.000	-0.039	-0.690
-646.755	-145.405	0.021	-0.002
-645.741	6.623	-0.699	0.522
-644.726	-200.000	-0.150	-0.695
-643.711	-66.715	-0.280	0.111
-642.697	-85.290	0.406	0.127
-641.682	-57.000	-0.788	0.349
-640.668	-200.000	-0.079	0.466
-639.653	-200.000	0.065	0.419
-638.638	584.178	-0.092	0.226
-637.624	35.199	-0.614	0.541
-636.609	141.327	0.330	0.439
-635.595	-24.189	0.395	0.237
-634.580	-30.139	0.433	-0.247
-633.565	-50.435	-0.238	-0.113
-632.551	800.000	0.189	-0.629
-631.536	-124.100	0.694	-0.109
-630.522	-87.714	-0.597	0.181
-629.507	-85.079	0.510	-0.160
-628.492	-118.627	-0.304	-0.054
-627.478	-200.000	0.009	1.287
-626.463	-115.058	-0.791	-0.151
-625.449	-130.296	0.447	-0.061
-624.434	166.245	0.255	-0.363
-623.419	373.807	-0.377	-0.770
-622.405	-59.626	-0.359	-0.154
-621.390	490.393	0.281	-0.646
-620.376	226.217	0.163	-0.265
-619.361	7.027	0.162	0.121
-618.346	-187.776	-0.528	-0.007
-617.332	297.484	0.307	-0.566
-616.317	-200.000	0.033	0.240
-615.303	-140.137	-0.914	-0.096
-614.288	158.664	-0.204	-0.284
-613.273	4.896	-0.412	-0.304
-612.259	800.000	-0.178	0.504
-611.244	344.520	0.278	0.547
-610.230	-152.928	-0.861	-0.061
-609.215	-2.857	-0.208	0.146
-608.201	-200.000	0.122	-0.592
-607.186	181.457	-0.384	0.567
-606.171	210.778	0.132	0.207
-605.157	57.021	0.284	0.277
-604.142	-63.641	-0.360	0.148
-603.128	62.765	0.654	-0.656
-602.113	70.885	0.356	0.370
-601.098	-52.250	-1.003	-0.466
-600.084	-102.329	0.454	-0.109
-599.069	560.038	0.322	0.779
-598.055	156.092	0.592	-0.818
-597.040	-45.551	0.694	-0.345
-596.025	-102.081	0.112	-0.027
-595.011	-97.007	0.539	0.141
-593.996	725.364	-0.134	-0.358
-592.982	-163.383	0.078	0.004
-591.967	-94.454	-0.218	0.060
-590.952	-200.000	-0.420	-0.001
-589.938	-176.631	0.677	0.017
-588.923	-122.937	-0.310	-0.050
-587.909	-163.296	0.245	-0.012
-586.894	-105.997	0.849	0.191
-585.879	-75.386	-0.331	-0.118
-584.865	492.776	0.128	-0.293
-583.850	-200.000	0.092	-0.538
-582.836	-200.000	0.003	-0.362
-581.821	183.902	-0.254	-0.377
-580.806	-148.696	0.249	-0.020
-579.792	56.737	-0.065	0.063
-578.777	-150.816	0.513	0.039
-577.763	39.016	-0.177	-0.159
-576.748	133.098	-0.284	-0.367
-575.733	-200.000	-0.020	-0.309
-574.719	167.670	0.142	0.203
-573.704	-54.974	-1.174	0.530
-572.690	22.664	-0.094	0.077
-571.675	76.469	0.342	0.363
-570.661	639.064	-0.214	-0.546
-569.646	79.872	0.198	0.213
-568.631	444.111	-0.347	0.763
-567.617	-200.000	-0.007	0.565
-566.602	444.748	0.295	-0.648
-565.588	-88.704	-0.432	-0.128
-564.573	-200.000	-0.006	-0.537
-563.558	12.797	0.099	0.077
-562.544	119.753	-0.048	-0.059
-561.529	800.000	-0.249	-0.730
-560.515	21.437	-0.613	0.499
-559.500	-200.000	0.011	0.555
-558.485	-52.451	0.483	-0.224
-557.471	-94.244	-1.349	-0.369
-556.456	29.721	-0.199	0.170
-555.442	-62.021	0.101	0.042
-554.427	-161.706	-0.484	0.025
-553.412	-200.000	-0.127	-0.615
-552.398	-28.043	-0.841	-0.487
-551.383	-148.496	-0.170	0.014
-550.369	403.254	0.100	0.210
-549.354	-30.235	-0.338	0.192
-548.339	-200.000	-0.073	-0.377
-547.325	23.578	-0.492	0.405
-546.310	279.470	0.397	0.708
-545.296	-93.507	0.358	-0.099
-544.281	-107.093	-0.550	0.121
-543.266	365.396	0.470	-0.947
-542.252	-73.850	-0.694	-0.252
-541.237	-200.000	-0.006	0.867
-540.223	-200.000	0.022	-0.314
-539.208	-37.235	-0.125	-0.067
-538.193	356.446	0.243	0.485
-537.179	-104.799	0.530	0.122
-536.164	-200.000	0.028	-0.477
-535.150	148.780	-0.168	0.227
-534.135	379.781	-0.156	-0.320
-533.121	36.265	-0.287	-0.253
-532.106	-136.459	-0.687	0.080
-531.091	10.909	0.428	0.327
-530.077	134.592	-0.608	0.789
-529.062	-200.000	0.072	-0.598
-528.048	30.551	0.679	0.581
-527.033	-107.100	-0.597	0.132
-526.018	-60.606	-0.626	0.266
-525.004	29.923	0.405	-0.345
-523.989	116.208	-0.167	0.205
-522.975	225.823	0.110	-0.177
-521.960	3.610	0.462	0.337
-520.945	100.114	0.711	0.824
-519.931	163.824	0.395	0.556
-518.916	308.870	-0.230	0.429
-517.902	-106.357	-0.482	-0.108
-516.887	-63.166	0.633	0.261
-515.872	183.367	0.405	-0.598
-514.858	203.693	-0.239	-0.370
-513.843	-35.416	-0.606	0.329
-512.829	-69.179	-0.429	-0.165
-511.814	17.051	-0.174	0.138
-510.799	-121.845	0.930	0.153
-509.785	-200.000	-0.029	-0.785
-508.770	-200.000	0.079	1.218
-507.756	416.249	0.247	0.525
-506.741	-33.021	-0.599	0.332
-505.726	246.765	-0.141	0.237
-504.712	-3.221	0.767	0.534
-503.697	171.812	0.127	0.182
-502.683	279.096	0.234	0.416
-501.668	-200.000	0.136	0.725
-500.653	179.130	-0.222	0.324
-499.639	73.062	0.572	-0.597
-498.624	-80.837	0.793	-0.263
-497.610	55.338	0.450	-0.434
-496.595	121.837	-0.519	0.647
-495.581	239.678	0.340	0.566
-494.566	-112.905	0.777	-0.154
-493.551	-12.689	0.370	-0.241
-492.537	-173.759	0.838	-0.025
-491.522	800.000	0.016	0.062
-490.508	-102.234	-0.312	-0.075
-489.493	-200.000	0.005	0.035
-488.478	-27.039	-0.246	-0.143
-487.464	42.298	-0.166	0.151
-486.449	-200.000	-0.012	0.976
-485.435	-200.000	-0.118	0.663
-484.420	24.689	0.291	0.240
-483.405	-123.339	-0.950	0.151
-482.391	-200.000	0.093	0.486
-481.376	39.723	0.965	-0.863
-480.362	-200.000	-0.061	-0.304
-479.347	-200.000	-0.002	0.089
-478.332	-35.854	-0.767	0.414
-477.318	-200.000	0.132	0.810
-476.303	-200.000	-0.146	0.691
-475.289	800.000	0.157	-0.521
-474.274	254.983	0.300	-0.513
-473.259	44.697	0.503	-0.462
-472.245	205.682	-0.075	-0.116
-471.230	35.137	0.598	0.522
-470.216	651.093	-0.230	-0.588
-469.201	62.525	-0.311	0.310
-468.186	52.634	0.345	0.328
-467.172	166.515	-0.241	0.341
-466.157	-200.000	-0.032	-0.313
-465.143	-56.126	-0.740	0.328
-464.128	27.149	-0.135	0.113
-463.113	-200.000	0.018	0.105
-462.099	647.797	-0.260	0.663
-461.084	46.519	0.642	0.594
-460.070	-84.500	0.877	0.276
-459.055	-200.000	-0.087	-0.479
-458.040	49.385	-0.136	0.127
-457.026	-16.362	0.412	0.260
-456.011	-200.000	-0.030	0.865
-454.997	-95.037	-0.445	0.120
-453.982	-166.993	0.283	-0.012
-452.968	432.772	-0.158	0.342
-451.953	-200.000	-0.093	0.521
-450.938	20.789	-0.663	0.535
-449.924	-200.000	0.017	-0.342
-448.909	-32.301	-0.660	0.367
-447.895	504.096	0.443	-1.022
-446.880	746.825	0.056	0.150
-445.865	543.198	0.191	-0.453
-444.851	146.868	0.052	0.070
-443.836	440.080	-0.229	0.498
-442.822	764.284	-0.295	0.798
-441.807	-94.921	-0.643	-0.173
-440.792	-103.132	-0.876	0.207
-439.778	-103.952	0.549	0.128
-438.763	-19.878	-0.699	0.430
-437.749	176.196	-0.177	-0.256
-436.734	-200.000	0.087	-0.927
-435.719	337.765	0.415	-0.804
-434.705	-24.899	0.900	0.532
-433.690	15.592	-0.437	-0.342
-432.676	-136.038	-0.274	-0.032
-431.661	0.462	0.560	-0.398
-430.646	-140.289	1.027	-0.107
-429.632	-198.207	0.466	0.003
-428.617	75.765	0.468	0.492
-427.603	41.508	0.606	0.546
-426.588	0.273	0.300	0.213
-425.573	-166.639	1.101	-0.046
-424.559	-176.318	0.461	-0.012
-423.544	465.709	0.369	0.823
-422.530	-200.000	-0.016	-0.528
-421.515	237.311	-0.062	0.102
-420.500	-189.866	0.771	0.009
-419.486	656.828	0.060	0.152
-418.471	800.000	0.113	-0.335
-417.457	237.340	-0.178	-0.294
-416.442	34.085	0.263	-0.228
-415.428	-200.000	0.037	0.441
-414.413	-140.196	-0.881	0.092
-413.398	-156.892	0.336	-0.021
-412.384	-12.832	0.529	-0.343
-411.369	-200.000	-0.143	0.001
-410.355	12.268	-0.183	-0.140
-409.340	-200.000	-0.050	-0.698
-408.325	-38.429	-0.680	-0.358
-407.311	156.152	-0.317	0.435
-406.296	-152.051	-0.822	0.060
-405.282	303.926	0.255	-0.471
-404.267	6.654	0.305	0.226
-403.252	-122.475	0.744	-0.120
-402.238	128.234	-0.345	0.437
-401.223	-200.000	-0.042	0.232
-400.209	-89.866	0.338	-0.098
-399.194	-200.000	0.017	-0.469
-398.179	-42.962	-0.403	-0.204
-397.165	18.313	0.273	0.217
-396.150	-200.000	0.038	0.462
-395.136	429.869	-0.271	-0.583
-394.121	-39.269	-0.403	0.210
-393.106	800.000	-0.257	-0.709
-392.092	800.000	-0.112	-0.407
-391.077	-121.232	0.315	-0.052
-390.063	-72.238	-1.028	0.379
-389.048	11.995	-0.542	0.414
-388.033	-200.000	0.065	-0.501
-387.019	-49.979	0.728	-0.343
-386.004	315.154	-0.228	-0.427
-384.990	-94.338	0.561	-0.152
-383.975	-136.142	0.038	0.004
-382.960	-54.785	-0.463	-0.208
-381.946	800.000	-0.286	1.040
-380.931	67.872	0.238	0.242
-379.917	299.987	0.248	0.455
-378.902	217.665	-0.279	-0.442
-377.888	51.468	0.865	-0.817
-376.873	-132.116	-0.731	0.094
-375.858	45.294	0.558	0.511
-374.844	-106.202	-0.368	0.082
-373.829	-40.846	-0.709	-0.365
-372.815	-66.147	0.201	0.080
-371.800	40.139	0.519	-0.463
-370.785	-144.286	-0.600	-0.056
-369.771	-2.282	0.105	0.073
-368.756	-158.941	0.773	-0.044
-367.742	-117.711	0.495	-0.089
-366.727	122.131	0.540	-0.670
-365.712	-21.437	-0.408	-0.247
-364.698	51.344	-0.533	-0.503
-363.683	672.979	-0.122	0.314
-362.669	353.339	0.289	0.569
-361.654	-200.000	0.012	-0.568
-360.639	-2.412	0.192	-0.133
-359.625	479.898	0.148	-0.333
-358.610	800.000	-0.117	-0.332
-357.596	736.613	0.202	-0.537
-356.581	-102.589	-0.817	0.194
-355.566	71.943	0.221	0.228
-354.552	-200.000	-0.027	-0.860
-353.537	-69.175	0.758	-0.290
-352.523	-157.697	0.447	-0.026
-351.508	43.593	0.368	-0.334
-350.493	-200.000	0.095	0.661
-349.479	50.043	-0.276	0.259
-348.464	800.000	0.031	0.089
-347.450	-200.000	0.038	-0.703
-346.435	800.000	-0.098	0.276
-345.420	84.223	0.144	0.156
-344.406	-126.262	0.157	-0.023
-343.391	800.000	-0.101	-0.336
-342.377	-132.700	-0.204	0.026
-341.362	-200.000	0.010	0.229
-340.348	-200.000	0.193	-1.371
-339.333	800.000	0.276	-1.107
-338.318	43.463	-0.149	-0.135
-337.304	-92.870	0.674	0.187
-336.289	-8.662	-0.542	0.361
-335.275	-93.090	0.521	0.144
-334.260	800.000	0.310	0.865
-333.245	800.000	0.065	0.237
-332.231	-32.638	0.515	0.285
-331.216	-200.000	0.082	-0.573
-330.202	122.749	0.128	0.159
-329.187	800.000	-0.098	0.383
-328.172	-54.600	-0.725	0.325
-327.158	-182.701	-0.507	0.009
-326.143	-120.288	0.757	-0.128
-325.129	-200.000	0.004	0.129
-324.114	755.368	0.288	-0.773
-323.099	355.899	-0.248	-0.489
-322.085	-21.806	0.379	0.229
-321.070	608.607	0.143	-0.353
-320.056	-67.167	0.889	-0.347
-319.041	-21.563	-0.372	-0.225
-318.026	-51.769	0.337	-0.156
-317.012	-38.886	-0.150	-0.078
-315.997	716.196	0.117	0.307
-314.983	105.613	0.475	-0.556
-313.968	671.607	-0.125	-0.322
-312.953	-128.241	-0.828	-0.117
-311.939	800.000	0.116	0.419
-310.924	-133.175	1.190	0.149
-309.910	-129.279	0.281	-0.039
-308.895	-26.248	-0.554	-0.322
-307.880	-128.919	0.341	-0.047
-306.866	800.000	0.054	-0.161
-305.851	-200.000	-0.103	-0.478
-304.837	-84.364	-0.452	-0.142
-303.822	-6.014	-0.123	-0.084
-302.807	-200.000	-0.078	0.815
-301.793	-200.000	-0.000	-0.420
-300.778	40.964	0.282	-0.252
-299.764	-18.760	-0.475	-0.293
-298.749	-154.178	0.428	-0.029
-297.735	-9.706	-0.576	0.380
-296.720	41.947	-0.376	-0.338
-295.705	247.141	0.050	0.084
-294.691	800.000	0.124	0.444
-293.676	-68.524	-0.223	0.086
-292.662	-2.752	-0.549	-0.380
-291.647	-39.840	0.239	0.124
-290.632	-55.702	-0.444	-0.196
-289.618	120.693	-0.200	-0.247
-288.603	-47.135	0.255	-0.123
-287.589	-12.323	-0.152	0.098
-286.574	-61.124	-0.834	0.348
-285.559	-44.250	0.248	-0.123
-284.545	-200.000	-0.110	-0.857
-283.530	144.828	0.199	-0.264
-282.516	14.814	0.206	0.160
-281.501	-38.017	0.182	-0.095
-280.486	-200.000	-0.101	0.446
-279.472	-93.188	0.247	-0.068
-278.457	27.776	-0.189	0.158
-277.443	378.774	-0.169	-0.342
-276.428	-153.123	0.563	0.039
-275.413	-125.398	0.909	-0.137
-274.399	423.435	0.100	-0.213
-273.384	3.699	0.935	0.675
-272.370	-133.547	0.758	0.094
-271.355	-112.196	0.204	0.041
-270.340	800.000	-0.172	0.543
-269.326	210.385	-0.080	0.125
-268.311	-2.271	0.189	0.131
-267.297	-200.000	-0.030	0.313
-266.282	262.965	0.155	-0.266
-265.267	429.258	-0.106	0.227
-264.253	11.482	-0.482	-0.365
-263.238	-200.000	0.006	-0.146
-262.224	-200.000	0.017	0.151
-261.209	311.325	-0.568	-1.053
-260.195	226.956	0.277	0.445
-259.180	27.342	-0.451	0.375
-258.165	-200.000	0.068	0.378
-257.151	19.742	-0.809	0.644
-256.136	-189.254	-0.610	-0.007
-255.122	-158.314	-0.970	-0.056
-254.107	281.453	-0.260	-0.461
-253.092	-126.524	-0.879	-0.129
-252.078	114.873	0.299	-0.361
-251.063	147.612	-0.495	-0.659
-250.049	8.429	-0.393	-0.293
-249.034	-167.719	-0.605	0.024
-248.019	-115.132	-0.623	0.117
-247.005	-200.000	-0.018	0.281
-245.990	-106.608	-0.744	-0.164
-244.976	-48.345	-0.973	-0.464
-243.961	-200.000	0.100	-0.662
-242.946	-200.000	-0.114	-0.752
-241.932	2.239	0.212	-0.151
-240.917	-200.000	-0.014	1.034
-239.903	-50.007	-0.181	-0.085
-238.888	-50.598	-0.975	-0.454
-237.873	-110.243	-0.296	0.061
-236.859	-96.493	0.961	0.251
-235.844	673.384	-0.322	0.824
-234.830	238.859	0.119	-0.196
-233.815	-171.038	0.446	-0.015
-232.800	-54.925	0.322	-0.144
-231.786	-73.017	-0.196	-0.071
-230.771	-15.914	0.075	-0.047
-229.757	-75.654	-0.464	0.163
-228.742	-40.839	-0.192	0.098
-227.727	365.812	0.223	0.445
-226.713	7.500	-0.183	-0.135
-225.698	-99.167	-0.280	0.070
-224.684	158.379	0.449	0.616
-223.669	-169.406	0.302	0.011
-222.655	-200.000	0.157	0.682
-221.640	75.110	0.268	-0.279
-220.625	112.534	0.328	-0.392
-219.611	-48.304	0.295	-0.141
-218.596	-148.986	-0.421	0.033
-217.582	-200.000	-0.205	-1.294
-216.567	27.832	-0.452	-0.376
-215.552	103.979	-0.217	0.252
-214.538	288.694	0.281	0.503
-213.523	245.589	0.462	0.768
-212.509	-62.605	-1.002	0.410
-211.494	63.907	-0.680	0.675
-210.479	92.026	-0.455	-0.506
-209.465	-157.821	0.553	-0.032
-208.450	-5.898	0.078	-0.053
-207.436	-112.328	0.345	0.068
-206.421	-200.000	0.040	0.643
-205.406	-200.000	0.162	-0.788
-204.392	-47.084	-0.465	-0.224
-203.377	-63.283	-0.752	-0.306
-202.363	-200.000	0.014	-0.096
-201.348	64.437	0.618	0.614
-200.333	-45.779	0.497	-0.242
-199.319	800.000	-0.233	-0.870
-198.304	-22.620	-0.689	0.411
-197.290	-200.000	-0.239	1.053
-196.275	-110.828	-0.602	-0.122
-195.260	56.410	0.330	-0.316
-194.246	706.750	0.073	0.191
-193.231	8.313	0.578	-0.429
-192.217	-43.647	-0.649	-0.323
-191.202	748.173	0.093	0.247
-190.187	-37.478	0.365	0.192
-189.173	191.746	-0.096	0.142
-188.158	150.177	0.345	0.461
-187.144	-59.149	0.811	-0.345
-186.129	173.585	-0.312	-0.444
-185.114	181.981	-0.607	0.882
-184.100	-108.651	-0.870	0.184
-183.085	37.103	0.252	0.220
-182.071	113.247	-0.346	0.414
-181.056	-44.060	-0.410	0.203
-180.042	-64.737	-0.718	0.287
-179.027	-23.738	-0.271	0.160
-178.012	123.546	0.413	-0.511
-176.998	-170.015	0.618	-0.022
-175.983	-200.000	-0.019	0.089
-174.969	-200.000	0.028	-0.150
-173.954	-109.001	-0.666	-0.140
-172.939	-105.299	0.758	-0.170
-171.925	-200.000	0.009	-0.472
-170.910	-113.530	0.565	0.109
-169.896	800.000	0.260	0.813
-168.881	800.000	-0.193	-0.643
-167.866	51.073	0.107	0.100
-166.852	547.218	-0.037	0.088
-165.837	84.591	0.150	-0.162
-164.823	324.443	0.340	0.640
-163.808	-67.294	0.227	0.088
-162.793	-119.778	0.128	0.022
-161.779	75.892	0.489	-0.509
-160.764	800.000	0.365	-1.080
-159.750	15.693	0.625	0.484
-158.735	-36.484	-0.563	-0.298
-157.720	-144.474	0.801	-0.073
-156.706	419.101	0.266	-0.560
-155.691	-119.684	0.014	-0.002
-154.677	74.408	-0.061	-0.063
-153.662	-74.830	0.274	0.097
-152.647	800.000	0.109	-0.423
-151.633	800.000	0.086	-0.259
-150.618	800.000	0.234	0.946
-149.604	222.205	0.250	0.397
-148.589	-200.000	-0.064	-0.697
-147.574	800.000	-0.208	-0.688
-146.560	222.322	0.311	-0.493
-145.545	138.447	0.356	0.461
-144.531	-200.000	-0.047	0.398
-143.516	-200.000	-0.003	-0.499
-142.502	155.292	-0.601	-0.814
-141.487	-90.536	-0.287	-0.082
-140.472	-17.037	-0.537	-0.334
-139.458	29.112	-0.509	-0.425
-138.443	-200.000	-0.099	0.495
-137.429	157.976	-0.259	0.354
-136.414	800.000	0.191	0.657
-135.399	-42.410	0.799	-0.401
-134.385	-200.000	0.014	-0.104
-133.370	-200.000	0.018	-0.391
-132.356	162.379	-0.145	-0.200
-131.341	101.294	-0.346	0.397
-130.326	-200.000	0.214	-1.516
-129.312	-200.000	0.007	0.528
-128.297	29.568	-0.646	-0.540
-127.283	62.978	0.525	0.517
-126.268	-101.425	-0.369	0.089
-125.253	396.252	-0.386	-0.793
-124.239	475.479	0.202	0.448
-123.224	-144.877	0.673	0.061
-122.210	800.000	-0.198	0.561
-121.195	128.257	0.164	0.205
-120.180	800.000	-0.182	-0.549
-119.166	-53.863	-0.109	-0.049
-118.151	-200.000	0.021	-0.304
-117.137	119.082	-0.493	-0.600
-116.122	-8.621	-0.257	0.170
-115.107	140.272	-0.304	0.395
-114.093	56.702	0.529	-0.507
-113.078	184.609	-0.330	0.481
-112.064	-122.186	0.632	0.102
-111.049	333.694	0.163	-0.310
-110.034	-1.189	0.117	-0.081
-109.020	-200.000	0.142	1.509
-108.005	-200.000	0.075	0.324
-106.991	113.682	0.298	0.356
-105.976	-74.587	0.462	0.163
-104.962	49.050	0.307	0.283
-103.947	441.461	0.174	0.374
-102.932	-200.000	-0.001	0.273
-101.918	-9.336	-0.663	-0.436
-100.903	299.604	0.405	0.733
-99.889	-26.848	-0.381	-0.219
-98.874	176.307	-0.331	-0.472
-97.859	305.573	-0.564	-1.030
-96.845	202.596	0.123	0.187
-95.830	-28.536	0.754	-0.427
-94.816	-12.862	-0.150	-0.096
-93.801	51.228	0.420	0.392
-92.786	-19.794	0.460	0.279
-91.772	-114.253	-0.280	0.053
-90.757	214.408	0.394	0.613
-89.743	-145.829	0.114	-0.010
-88.728	112.478	0.424	0.504
-87.713	-200.000	-0.163	1.005
-86.699	547.732	0.225	-0.528
-85.684	368.524	0.189	-0.375
-84.670	114.614	-0.096	-0.115
-83.655	-109.061	0.693	-0.145
-82.640	39.552	0.288	0.253
-81.626	-99.939	-0.566	-0.139
-80.611	-200.000	0.070	0.573
-79.597	622.697	-0.112	-0.278
-78.582	-33.230	-0.414	0.225
-77.567	793.548	-0.025	-0.068
-76.553	800.000	0.165	-0.517
-75.538	-162.327	-0.412	-0.020
-74.524	-96.104	0.464	0.121
-73.509	99.179	-0.677	-0.768
-72.494	590.436	-0.518	1.255
-71.480	-48.961	-0.286	-0.135
-70.465	-200.000	0.063	0.290
-69.451	-138.380	0.021	0.002
-68.436	-36.983	-0.524	-0.276
-67.422	87.237	-0.537	0.583
-66.407	800.000	0.259	-0.741
-65.392	-50.123	0.371	-0.172
-64.378	50.168	-0.162	0.150
-63.363	9.245	0.508	0.377
-62.349	-200.000	0.077	0.682
-61.334	-33.991	-0.916	-0.495
-60.319	-58.422	0.577	0.246
-59.305	202.341	-0.598	-0.905
-58.290	800.000	0.340	1.435
-57.276	658.935	0.438	1.107
-56.261	-200.000	99.131	608.018
-55.246	618.928	1376.639	3393.592
-54.232	199.469	2552.850	3840.996
-53.217	110.980	2248.183	2655.776
-52.203	41.144	1879.845	1666.505
-51.188	34.937	1672.488	1436.203
-50.173	32.514	1629.041	1381.094
-49.159	50.985	1679.939	1562.222
-48.144	51.316	1696.527	1580.057
-47.130	34.533	1656.067	1418.870
-46.115	31.874	1641.497	1386.701
-45.100	31.831	1635.771	1381.490
-44.086	31.649	1634.331	1378.875
-43.071	31.598	1631.911	1376.411
-42.057	31.593	1629.627	1374.391
-41.042	31.808	1626.055	1372.899
-40.027	31.447	1626.657	1370.707
-39.013	31.573	1623.657	1369.047
-37.998	31.685	1620.981	1367.550
-36.984	31.605	1620.888	1366.834
-35.969	31.782	1619.068	1366.537
-34.954	31.506	1617.209	1362.903
-33.940	31.714	1614.714	1362.259
-32.925	31.947	1613.441	1362.823
-31.911	31.481	1613.310	1359.276
-30.896	31.524	1610.831	1357.445
-29.881	31.762	1608.559	1357.198
-28.867	31.770	1608.259	1356.951
-27.852	31.609	1606.354	1354.123
-26.838	31.834	1604.692	1354.297
-25.823	31.605	1603.489	1351.574
-24.809	31.691	1601.389	1350.372
-23.794	31.342	1601.454	1347.857
-22.779	31.506	1599.705	1347.513
-21.765	31.725	1597.274	1346.983
-20.750	31.775	1596.728	1346.827
-19.736	31.681	1594.909	1344.565
-18.721	31.799	1592.307	1343.165
-17.706	31.843	1590.788	1342.145
-16.692	31.763	1590.103	1340.939
-15.677	31.879	1588.477	1340.347
-14.663	31.884	1587.853	1339.802
-13.648	31.746	1586.978	1338.025
-12.633	31.798	1584.257	1336.049
-11.619	31.574	1583.102	1333.430
-10.604	31.621	1582.219	1332.962
-9.590	31.500	1580.830	1330.882
-8.575	31.927	1578.109	1331.573
-7.560	31.757	1577.570	1329.851
-6.546	31.687	1576.791	1328.647
-5.531	31.716	1575.567	1327.771
-4.517	31.685	1574.493	1326.594
-3.502	31.578	1575.207	1326.380
-2.487	31.728	1572.556	1325.161
-1.473	31.405	1559.246	1311.626
-0.458	28.544	1541.521	1276.783
0.556	26.334	1542.959	1245.245
1.571	23.849	1565.627	1246.030
2.586	23.513	1577.544	1253.028
3.600	20.770	1525.219	1192.602
4.615	12.417	1416.201	1053.906
5.629	4.901	1352.986	960.577
6.644	3.543	1345.221	946.654
7.659	3.415	1344.460	945.249
8.673	3.476	1344.199	945.354
9.688	3.486	1341.009	943.088
10.702	3.199	1338.952	939.809
11.717	6.643	1345.221	965.221
12.731	15.787	1361.828	1033.459
13.746	22.960	1372.897	1086.022
14.761	24.681	1374.488	1097.764
15.775	24.362	1374.208	1095.480
16.790	23.920	1371.706	1090.684
17.804	23.755	1371.531	1089.437
18.819	23.575	1371.144	1087.930
19.834	23.693	1369.520	1087.265
20.848	23.717	1369.000	1086.903
21.863	23.557	1368.499	1085.433
22.877	23.661	1366.710	1084.549
23.892	23.667	1366.492	1084.317
24.907	23.440	1365.399	1081.968
25.921	23.815	1363.515	1082.667
26.936	23.633	1363.361	1081.339
27.950	23.758	1362.077	1080.988
28.965	23.545	1361.910	1079.464
29.980	23.795	1359.578	1079.039
30.994	23.766	1359.142	1078.419
32.009	23.978	1358.378	1079.002
33.023	23.824	1357.692	1077.427
34.038	23.609	1357.312	1075.731
35.053	23.539	1356.039	1074.202
36.067	23.533	1354.175	1072.593
37.082	23.706	1352.812	1072.464
38.096	23.574	1352.664	1071.452
39.111	23.760	1351.806	1071.802
40.126	23.507	1350.133	1068.855
41.140	23.420	1349.718	1067.906
42.155	23.298	1349.249	1066.711
43.169	23.029	1350.297	1065.823
44.184	23.319	1348.129	1065.762
45.199	23.275	1348.551	1065.735
46.213	23.504	1347.926	1066.524
47.228	23.639	1347.301	1066.744
48.242	23.655	1346.466	1066.088
49.257	23.585	1345.791	1065.036
50.271	23.616	1343.555	1063.362
51.286	23.674	1342.323	1062.640
52.301	23.816	1341.145	1062.462
53.315	23.362	1340.952	1059.499
54.330	23.597	1339.496	1059.660
55.344	23.363	1338.451	1057.342
56.359	23.456	1336.166	1055.994
57.374	23.274	1336.607	1055.170
58.388	23.202	1335.288	1053.607
59.403	23.181	1334.694	1052.917
60.417	23.161	1333.842	1052.031
61.432	22.881	1334.085	1050.470
62.447	23.018	1333.064	1050.387
63.461	22.937	1332.264	1049.178
64.476	23.124	1330.595	1048.880
65.490	22.860	1329.514	1046.375
66.505	23.241	1325.917	1045.703
67.520	22.910	1326.761	1044.318
68.534	23.330	1324.350	1044.804
69.549	22.568	1325.783	1041.340
70.563	22.956	1323.527	1041.767
71.578	23.018	1322.553	1041.275
72.593	22.802	1321.931	1039.420
73.607	22.923	1320.542	1038.947
74.622	22.532	1321.782	1037.526
75.636	22.616	1320.001	1036.535
76.651	22.801	1319.874	1037.431
77.666	22.919	1318.750	1037.145
78.680	22.950	1318.032	1036.672
79.695	22.952	1317.838	1036.435
80.709	23.313	1316.223	1037.193
81.724	23.299	1316.187	1036.990
82.739	23.399	1315.107	1036.630
83.753	23.441	1314.977	1036.681
84.768	23.781	1314.526	1038.222
85.782	24.152	1313.375	1039.384
86.797	23.969	1312.038	1037.170
87.812	23.692	1311.107	1034.725
88.826	23.620	1309.532	1032.973
89.841	23.861	1308.818	1033.722
90.855	23.893	1308.169	1033.305
91.870	23.647	1307.593	1031.328
92.884	24.025	1306.783	1032.789
93.899	23.941	1304.918	1030.742
94.914	24.028	1305.136	1031.327
95.928	24.054	1304.386	1030.793
96.943	24.060	1303.824	1030.294
97.957	24.049	1302.677	1029.227
98.972	23.820	1302.652	1027.796
99.987	23.649	1301.517	1025.819
101.001	23.727	1300.198	1025.138
102.016	23.686	1299.459	1024.231
103.030	23.523	1298.964	1022.809
104.045	23.675	1296.904	1021.973
105.060	23.753	1295.593	1021.300
106.074	23.304	1295.375	1018.456
107.089	23.242	1292.898	1016.059
108.103	23.121	1292.086	1014.641
109.118	23.035	1290.565	1012.860
110.133	22.850	1290.130	1011.371
111.147	22.988	1288.628	1010.894
112.162	23.198	1287.423	1011.059
113.176	23.159	1286.367	1009.919
114.191	23.256	1285.145	1009.421
115.206	23.261	1285.392	1009.557
116.220	23.105	1283.773	1007.308
117.235	23.222	1281.826	1006.355
118.249	23.135	1280.890	1005.037
119.264	22.756	1280.181	1002.241
120.279	22.620	1280.122	1001.331
121.293	22.862	1278.181	1001.097
122.308	22.762	1277.250	999.713
123.322	22.772	1275.862	998.594
124.337	22.662	1276.105	998.073
125.352	22.753	1274.597	997.317
126.366	22.811	1273.154	996.428
127.381	22.671	1271.551	994.299
128.395	22.771	1270.867	994.239
129.410	22.432	1269.901	991.486
130.424	22.697	1269.080	992.248
131.439	22.586	1269.536	991.893
132.454	22.771	1268.673	992.170
133.468	23.079	1267.463	992.865
134.483	23.362	1265.741	993.016
135.497	23.210	1266.698	992.827
136.512	23.039	1265.030	990.472
137.527	22.997	1264.109	989.431
138.541	22.927	1263.324	988.338
139.556	23.057	1261.480	987.532
140.570	23.260	1261.037	988.232
141.585	23.600	1260.507	989.626
142.600	23.677	1259.385	989.086
143.614	23.907	1258.931	989.919
144.629	23.913	1258.456	989.496
145.643	23.761	1257.798	988.045
146.658	23.630	1256.438	986.162
147.673	23.374	1254.202	982.899
148.687	23.222	1253.114	981.118
149.702	23.396	1251.220	980.507
150.716	22.986	1250.156	977.319
151.731	23.019	1248.729	976.301
152.746	22.852	1248.477	975.096
153.760	23.185	1247.426	976.024
154.775	23.564	1245.987	976.901
155.789	23.633	1246.059	977.251
156.804	23.385	1244.497	974.577
157.819	23.373	1244.594	974.500
158.833	23.616	1243.629	974.990
159.848	23.867	1242.798	975.634
160.862	23.670	1241.449	973.406
161.877	23.336	1240.195	970.506
162.892	23.139	1239.081	968.473
163.906	22.901	1238.292	966.466
164.921	22.946	1237.630	966.109
165.935	23.036	1237.473	966.396
166.950	23.333	1235.896	966.700
167.964	23.196	1235.704	965.717
168.979	23.200	1234.577	964.770
169.994	23.185	1233.390	963.675
171.008	22.919	1233.871	962.519
172.023	23.264	1232.175	962.988
173.037	23.671	1231.887	964.888
174.052	23.383	1231.006	962.548
175.067	23.168	1230.657	961.025
176.081	22.878	1229.289	958.297
177.096	22.946	1227.746	957.377
178.110	22.970	1227.262	957.045
179.125	23.081	1225.969	956.553
180.140	23.250	1224.961	956.597
181.154	23.359	1225.249	957.325
182.169	23.297	1224.125	956.027
183.183	23.573	1222.394	956.077
184.198	23.627	1221.575	955.645
185.213	23.689	1220.026	954.682
186.227	23.337	1219.697	952.449
187.242	23.584	1218.935	953.094
188.256	23.836	1217.433	953.187
189.271	23.838	1216.680	952.522
190.286	23.703	1216.156	951.308
191.300	23.156	1215.682	947.924
192.315	23.113	1214.621	946.781
193.329	23.128	1214.472	946.659
194.344	22.983	1213.968	945.410
195.359	23.011	1212.232	944.123
196.373	22.920	1211.457	942.948
197.388	22.989	1211.231	943.059
198.402	23.438	1211.593	945.653
199.417	23.794	1210.523	946.631
200.432	23.856	1210.883	947.159
201.446	23.574	1211.279	945.883
202.461	23.803	1209.312	945.481
203.475	23.801	1208.752	944.949
204.490	23.389	1207.872	941.985
205.504	23.345	1205.679	939.963
206.519	23.431	1203.960	938.994
207.534	22.946	1203.763	936.185
208.548	23.137	1202.384	936.041
209.563	23.086	1200.855	934.502
210.577	23.214	1201.119	935.301
211.592	23.229	1200.063	934.471
212.607	23.488	1200.808	936.338
213.621	23.816	1198.562	936.235
214.636	23.448	1197.745	933.576
215.650	23.570	1197.463	933.913
216.665	23.752	1196.172	933.779
217.680	23.718	1196.956	934.133
218.694	23.956	1195.414	934.094
219.709	23.754	1194.483	932.227
220.723	23.586	1193.617	930.586
221.738	24.036	1192.208	931.761
222.753	23.535	1191.843	928.770
223.767	23.419	1191.053	927.467
224.782	23.594	1191.191	928.408
225.796	24.084	1191.005	930.741
226.811	23.711	1190.272	928.138
227.826	23.621	1189.929	927.320
228.840	23.474	1188.731	925.537
229.855	23.454	1187.370	924.289
230.869	23.583	1186.608	924.287
231.884	23.139	1186.314	921.664
232.899	23.255	1184.566	920.826
233.913	22.988	1184.065	918.969
234.928	23.379	1182.875	919.995
235.942	22.993	1182.635	917.721
236.957	23.195	1181.907	918.124
237.972	22.791	1181.350	915.515
238.986	22.939	1180.207	915.317
240.001	23.031	1179.754	915.360
241.015	23.325	1178.977	916.194
242.030	23.253	1177.640	914.703
243.045	23.528	1177.697	916.090
244.059	23.542	1177.218	915.705
245.074	23.555	1176.499	915.133
246.088	23.611	1176.195	915.105
247.103	23.513	1176.381	914.661
248.117	23.964	1174.007	915.058
249.132	23.980	1174.214	915.218
250.147	24.380	1174.029	917.048
251.161	24.580	1173.689	917.730
252.176	24.637	1172.393	916.930
253.190	24.538	1172.007	916.039
254.205	24.640	1171.537	916.110
255.220	24.710	1170.702	915.738
256.234	24.709	1171.928	916.612
257.249	24.447	1170.748	914.264
258.263	24.661	1168.664	913.651
259.278	24.606	1168.932	913.497
260.293	24.663	1168.474	913.348
261.307	24.710	1167.540	912.780
262.322	24.801	1166.277	912.177
263.336	24.724	1166.131	911.590
264.351	24.633	1165.813	910.792
265.366	24.623	1164.848	909.909
266.380	24.704	1164.612	910.058
267.395	24.542	1163.557	908.327
268.409	24.415	1162.698	906.931
269.424	24.456	1162.037	906.544
270.439	24.374	1161.925	905.957
271.453	24.234	1160.293	903.897
272.468	24.156	1159.750	902.997
273.482	24.149	1158.147	901.634
274.497	24.106	1158.724	901.788
275.512	24.056	1158.145	901.004
276.526	23.955	1156.217	898.913
277.541	24.080	1156.528	899.707
278.555	24.333	1156.166	900.621
279.570	24.557	1154.842	900.644
280.585	24.857	1153.876	901.318
281.599	24.724	1153.097	899.961
282.614	24.361	1152.610	897.675
283.628	24.341	1151.459	896.601
284.643	23.680	1151.272	893.054
285.657	24.104	1149.749	893.919
286.672	24.337	1148.589	894.110
287.687	24.376	1148.164	893.896
288.701	24.265	1147.587	892.812
289.716	24.194	1146.383	891.437
290.730	23.961	1147.015	890.684
291.745	24.272	1145.329	890.849
292.760	24.414	1144.707	890.996
293.774	24.482	1144.279	890.922
294.789	24.664	1143.489	891.137
295.803	24.913	1141.164	890.487
296.818	24.388	1141.949	888.405
297.833	24.292	1141.179	887.249
298.847	24.123	1140.835	886.063
299.862	24.211	1139.176	885.134
300.876	24.439	1138.795	885.891
301.891	24.493	1138.562	885.898
302.906	24.557	1139.204	886.640
303.920	24.684	1138.083	886.319
304.935	24.974	1137.765	887.427
305.949	24.991	1136.575	886.508
306.964	24.889	1136.804	886.100
307.979	24.805	1134.545	883.848
308.993	24.818	1134.319	883.655
310.008	24.719	1133.522	882.470
311.022	24.789	1132.668	882.072
312.037	24.750	1132.443	881.627
313.052	24.525	1130.953	879.279
314.066	24.282	1130.090	877.339
315.081	24.382	1128.827	876.769
316.095	24.183	1126.910	874.227
317.110	23.793	1128.069	873.135
318.125	23.915	1127.510	873.221
319.139	23.973	1126.469	872.621
320.154	24.142	1124.832	872.105
321.168	24.296	1124.178	872.273
322.183	23.926	1125.122	871.115
323.197	24.093	1124.487	871.367
324.212	24.274	1123.369	871.306
325.227	24.539	1122.443	871.806
326.241	24.376	1122.040	870.619
327.256	24.315	1120.579	869.111
328.270	24.064	1119.881	867.270
329.285	24.147	1119.412	867.234
330.300	24.105	1119.649	867.138
331.314	24.292	1117.997	866.691
332.329	24.276	1116.364	865.272
333.343	24.338	1115.804	865.060
334.358	24.475	1114.882	864.935
335.373	24.605	1115.622	866.060
336.387	24.579	1115.132	865.476
337.402	24.647	1113.792	864.690
338.416	24.897	1113.597	865.670
339.431	24.962	1112.611	865.143
340.446	25.235	1111.731	865.699
341.460	25.204	1111.753	865.489
342.475	25.396	1110.961	865.722
343.489	25.165	1111.194	864.716
344.504	25.282	1110.501	864.664
345.519	25.361	1108.830	863.665
346.533	25.270	1108.701	863.052
347.548	25.303	1107.627	862.294
348.562	25.357	1106.715	861.769
349.577	25.373	1104.944	860.390
350.592	24.953	1103.297	857.022
351.606	24.437	1103.842	854.900
352.621	24.425	1102.725	853.903
353.635	24.343	1102.152	852.991
354.650	24.510	1100.205	852.205
355.665	24.486	1100.818	852.491
356.679	24.802	1100.422	853.613
357.694	24.921	1099.354	853.278
358.708	24.922	1098.880	852.838
359.723	24.716	1098.734	851.670
360.738	25.115	1097.928	852.868
361.752	24.944	1098.410	852.353
362.767	24.974	1096.776	851.154
363.781	24.879	1096.132	850.123
364.796	25.134	1096.296	851.389
365.810	25.451	1095.233	851.992
366.825	25.324	1095.077	851.191
367.840	25.688	1094.525	852.410
368.854	25.667	1093.956	851.797
369.869	25.383	1093.951	850.373
370.883	25.504	1091.951	849.313
371.898	25.347	1091.129	847.858
372.913	25.344	1091.189	847.813
373.927	25.340	1089.916	846.732
374.942	25.202	1090.620	846.553
375.956	25.574	1090.237	847.934
376.971	25.489	1088.965	846.471
377.986	25.466	1088.494	845.921
379.000	25.516	1088.493	846.078
380.015	25.559	1087.823	845.687
381.029	25.819	1087.502	846.585
382.044	25.793	1086.587	845.674
383.059	25.640	1085.825	844.290
384.073	25.228	1085.453	841.990
385.088	25.725	1083.465	842.703
386.102	25.799	1082.613	842.310
387.117	25.319	1082.159	839.638
388.132	25.128	1080.148	837.115
389.146	25.169	1079.426	836.673
390.161	25.003	1080.163	836.392
391.175	25.160	1077.953	835.339
392.190	25.134	1077.892	835.096
393.205	25.632	1077.865	837.320
394.219	25.461	1077.460	836.138
395.234	25.307	1075.991	834.208
396.248	24.929	1075.460	831.964
397.263	25.223	1073.124	831.447
398.278	24.894	1073.709	830.301
399.292	24.984	1073.059	830.143
400.307	25.147	1071.490	829.612
401.321	24.950	1071.867	828.917
402.336	24.513	1070.332	825.637
403.350	24.758	1069.432	826.002
404.365	24.935	1069.167	826.539
405.380	25.122	1069.324	827.453
406.394	24.970	1067.999	825.652
407.409	25.214	1067.553	826.360
408.423	25.540	1066.499	826.969
409.438	25.778	1065.869	827.501
410.453	25.797	1066.234	827.799
411.467	25.965	1064.331	827.017
412.482	25.718	1064.741	826.132
413.496	25.762	1064.440	826.025
414.511	25.980	1063.534	826.247
415.526	25.842	1063.369	825.416
416.540	26.017	1062.946	825.815
417.555	26.193	1061.961	825.782
418.569	25.523	1061.806	822.526
419.584	25.752	1061.366	823.156
420.599	25.909	1060.528	823.151
421.613	154.520	1403.799	1794.445
422.628	142.025	1453.856	1794.497
