DTS Sentinel unit serial number:	SN413079Multiplexer serial number:	ORYXHardware model number:	OX4-SRSoftware version number:	ORYX F/W v4.00 Oryx Data Collector v3.7.2.0data status	okinstallation	princeton_trtdifferential loss correction	single-endedforward channel	channel 2reverse channel	N/Adate	2019/09/18time	18:35:35forward acquisition time	60.00reverse acquisition time	0.00gamma	496.2192k internal	0.2310k external	0.2310temperature offset calibration	1.0025default loss term (dB/km)	0.3790temperature slope calibration	1.0000multiplexer offset coefficient	1.0000multiplexer slope coefficient	1.0000fibre end	0.00T internal ref (°C)	38.09T ext. ref 1 (°C)	0.94T ext. ref 2 (°C)	30.15length (m)	temperature (°C)	Stokes	anti-Stokes-747.200	-52.918	0.760	0.355
-746.185	-186.040	0.294	-0.004
-745.171	152.921	-0.119	0.166
-744.156	116.495	0.229	0.286
-743.142	-162.608	0.202	0.010
-742.127	-87.351	-0.126	-0.039
-741.112	800.000	-0.043	0.162
-740.098	514.313	0.079	0.187
-739.083	242.199	0.195	-0.332
-738.069	-200.000	-0.064	-0.585
-737.054	89.124	-0.097	0.109
-736.039	-200.000	-0.000	-0.085
-735.025	-78.393	0.343	-0.119
-734.010	-2.543	-0.134	-0.095
-732.996	10.844	-0.261	-0.202
-731.981	-161.925	0.285	-0.015
-730.966	-80.203	-0.095	0.032
-729.952	27.334	-0.022	-0.019
-728.937	57.807	0.202	-0.201
-727.923	-200.000	0.011	-0.250
-726.908	-71.103	-0.204	0.078
-725.894	-200.000	-0.016	-0.078
-724.879	38.826	0.287	0.260
-723.864	-83.147	0.170	0.055
-722.850	129.758	-0.088	0.114
-721.835	-200.000	0.015	0.256
-720.821	-26.754	-0.143	0.085
-719.806	339.055	-0.076	-0.151
-718.791	225.646	-0.171	-0.282
-717.777	-43.074	-0.199	0.102
-716.762	-87.534	0.185	0.057
-715.748	800.000	-0.094	0.300
-714.733	800.000	0.061	-0.222
-713.718	-184.230	0.030	0.001
-712.704	-114.016	-0.280	-0.055
-711.689	255.530	-0.154	0.269
-710.675	19.962	-0.123	-0.100
-709.660	213.011	-0.233	-0.373
-708.645	-97.708	0.283	0.074
-707.631	-72.896	-0.362	0.135
-706.616	-200.000	-0.172	-0.000
-705.602	249.235	0.139	-0.238
-704.587	433.119	-0.075	0.165
-703.572	800.000	-0.036	-0.133
-702.558	7.747	0.272	0.206
-701.543	-200.000	-0.008	-0.266
-700.529	101.119	-0.092	-0.108
-699.514	-200.000	0.007	-0.074
-698.499	800.000	-0.089	-0.278
-697.485	-41.028	0.073	-0.038
-696.470	-200.000	-0.071	0.354
-695.456	-40.076	-0.136	-0.072
-694.441	85.383	-0.045	0.050
-693.426	-40.751	0.166	0.087
-692.412	-13.038	-0.186	0.123
-691.397	-97.251	-0.045	0.012
-690.383	454.683	-0.133	0.298
-689.368	57.004	0.054	0.053
-688.354	436.532	-0.095	0.210
-687.339	-123.204	0.288	0.047
-686.324	-167.767	0.141	0.006
-685.310	-58.660	-0.146	-0.064
-684.295	-200.000	0.364	0.001
-683.281	590.848	-0.043	-0.107
-682.266	800.000	-0.055	0.196
-681.251	800.000	-0.108	-0.395
-680.237	-132.230	0.113	0.015
-679.222	21.486	-0.010	0.008
-678.208	-200.000	0.021	0.143
-677.193	-131.154	0.093	-0.013
-676.178	64.759	-0.009	-0.009
-675.164	-101.373	0.260	0.064
-674.149	769.387	0.101	0.278
-673.135	-200.000	-0.003	0.240
-672.120	254.801	-0.076	0.132
-671.105	-200.000	-0.168	-0.001
-670.091	-127.588	-0.128	0.019
-669.076	-151.822	-0.253	-0.019
-668.062	11.295	-0.254	0.197
-667.047	-0.864	-0.100	0.071
-666.032	-140.824	-0.232	-0.024
-665.018	-76.581	0.227	0.081
-664.003	-200.000	0.029	-0.147
-662.989	347.020	0.149	-0.297
-661.974	453.329	-0.116	0.261
-660.959	-200.000	-0.018	-0.113
-659.945	5.245	0.176	0.131
-658.930	72.435	0.128	-0.136
-657.916	-106.834	-0.206	0.046
-656.901	800.000	-0.042	-0.140
-655.886	-152.709	0.309	-0.022
-654.872	800.000	-0.054	-0.212
-653.857	-70.404	-0.413	-0.158
-652.843	173.151	-0.149	0.218
-651.828	43.000	0.164	0.152
-650.814	-178.438	-0.464	-0.011
-649.799	800.000	-0.036	0.124
-648.784	-95.187	-0.191	-0.052
-647.770	-130.896	0.241	0.033
-646.755	800.000	-0.096	-0.371
-645.741	-64.773	0.303	0.124
-644.726	143.893	0.141	0.190
-643.711	410.915	-0.091	-0.195
-642.697	683.968	-0.089	-0.236
-641.682	601.367	-0.234	-0.588
-640.668	401.415	-0.107	-0.226
-639.653	-86.731	-0.180	-0.056
-638.638	391.191	0.041	0.087
-637.624	-200.000	0.019	-0.087
-636.609	52.726	0.205	-0.198
-635.595	45.713	0.187	-0.175
-634.580	277.699	0.027	-0.048
-633.565	577.609	-0.050	-0.124
-632.551	-200.000	0.035	0.364
-631.536	31.691	0.285	-0.248
-630.522	49.521	0.053	-0.050
-629.507	-169.225	-0.416	-0.016
-628.492	476.188	-0.150	-0.342
-627.478	15.252	0.206	-0.163
-626.463	-79.771	0.322	-0.110
-625.449	154.892	-0.165	0.229
-624.434	-200.000	-0.039	0.180
-623.419	42.038	-0.154	0.141
-622.405	8.856	0.247	0.189
-621.390	-87.740	-0.240	-0.073
-620.376	-91.262	0.108	-0.031
-619.361	-200.000	-0.037	0.207
-618.346	-200.000	0.005	-0.048
-617.332	0.237	0.240	0.173
-616.317	142.323	0.112	0.151
-615.303	-124.036	0.148	-0.023
-614.288	111.847	-0.099	0.121
-613.273	800.000	-0.077	0.249
-612.259	800.000	-0.028	-0.094
-611.244	244.716	0.168	0.285
-610.230	-200.000	0.049	-0.235
-609.215	619.299	-0.137	-0.348
-608.201	115.574	-0.124	-0.153
-607.186	415.637	-0.059	-0.126
-606.171	78.991	-0.226	0.244
-605.157	-43.779	0.269	0.137
-604.142	-29.840	0.148	0.085
-603.128	-78.410	0.409	0.142
-602.113	117.756	-0.306	0.381
-601.098	-68.659	-0.424	-0.166
-600.084	-128.975	-0.053	-0.008
-599.069	-1.219	-0.045	-0.032
-598.055	-15.258	0.160	-0.103
-597.040	17.782	-0.137	0.110
-596.025	33.103	-0.196	-0.172
-595.011	800.000	0.132	0.373
-593.996	-200.000	0.033	0.254
-592.982	13.191	0.202	0.158
-591.967	22.641	-0.299	-0.247
-590.952	-200.000	0.004	-0.241
-589.938	-76.685	-0.136	-0.048
-588.923	800.000	0.064	0.251
-587.909	-4.496	0.239	-0.167
-586.894	-200.000	-0.036	-0.175
-585.879	-113.029	-0.227	-0.045
-584.865	-200.000	0.015	0.222
-583.850	234.660	0.131	0.218
-582.836	-63.122	-0.296	-0.123
-581.821	88.537	-0.226	-0.254
-580.806	800.000	-0.016	-0.053
-579.792	-29.412	-0.142	0.082
-578.777	140.617	0.116	0.154
-577.763	9.970	-0.072	-0.055
-576.748	-69.276	0.103	0.040
-575.733	800.000	0.077	-0.333
-574.719	800.000	0.053	-0.206
-573.704	63.224	-0.257	-0.259
-572.690	-200.000	-0.006	-0.107
-571.675	200.551	0.192	-0.297
-570.661	562.796	-0.081	0.198
-569.646	-155.930	0.527	-0.034
-568.631	-66.450	0.213	-0.085
-567.617	-122.978	0.154	-0.025
-566.602	40.558	-0.168	0.153
-565.588	-12.255	-0.158	0.104
-564.573	-53.711	-0.257	0.118
-563.558	-110.200	0.249	-0.052
-562.544	-13.501	-0.259	-0.170
-561.529	-200.000	0.035	-0.410
-560.515	16.996	-0.212	0.169
-559.500	-200.000	0.016	-0.151
-558.485	-140.413	0.270	0.028
-557.471	128.963	0.183	0.236
-556.456	128.749	0.030	-0.039
-555.442	-66.445	-0.029	0.012
-554.427	4.392	-0.121	0.090
-553.412	-59.858	0.224	-0.097
-552.398	127.159	0.039	-0.049
-551.383	9.818	-0.183	0.140
-550.369	-200.000	0.053	-0.329
-549.354	128.914	-0.054	0.069
-548.339	120.826	0.026	0.033
-547.325	-126.324	0.154	0.023
-546.310	379.099	-0.095	0.196
-545.296	800.000	-0.054	-0.210
-544.281	-200.000	0.034	0.188
-543.266	-199.105	0.208	-0.001
-542.252	412.170	-0.162	0.348
-541.237	-69.633	0.190	-0.073
-540.223	-105.020	-0.317	0.073
-539.208	6.209	0.506	-0.378
-538.193	800.000	-0.046	-0.177
-537.179	-53.240	0.292	-0.135
-536.164	-38.733	0.203	-0.108
-535.150	-127.852	-0.308	0.045
-534.135	800.000	0.068	-0.275
-533.121	-59.357	0.368	0.160
-532.106	-79.158	0.164	-0.056
-531.091	112.761	0.131	-0.160
-530.077	-200.000	0.005	-0.212
-529.062	247.511	0.088	-0.150
-528.048	-200.000	-0.039	-0.313
-527.033	-132.348	-0.207	-0.027
-526.018	-200.000	0.029	0.223
-525.004	-37.434	-0.319	0.172
-523.989	637.379	0.125	0.319
-522.975	264.774	-0.168	0.294
-521.960	328.075	-0.038	-0.074
-520.945	-57.196	0.192	0.085
-519.931	461.471	0.049	-0.110
-518.916	19.699	0.037	0.030
-517.902	-104.907	0.198	-0.046
-516.887	39.333	0.124	0.112
-515.872	-146.722	-0.230	-0.020
-514.858	95.230	-0.263	-0.302
-513.843	-127.993	0.327	-0.047
-512.829	-53.770	0.123	-0.057
-511.814	-34.372	0.218	-0.120
-510.799	-131.634	0.151	0.020
-509.785	-27.634	0.135	-0.079
-508.770	-200.000	-0.045	0.315
-507.756	800.000	-0.077	0.231
-506.741	-200.000	0.002	0.072
-505.726	-61.196	-0.118	-0.050
-504.712	-37.456	0.091	-0.049
-503.697	-200.000	0.041	-0.304
-502.683	468.068	0.020	0.044
-501.668	14.335	0.142	-0.112
-500.653	55.679	-0.209	-0.204
-499.639	-122.406	-0.264	0.043
-498.624	-36.805	-0.339	-0.183
-497.610	80.499	0.177	-0.192
-496.595	42.044	0.130	0.119
-495.581	86.936	0.010	-0.011
-494.566	111.170	-0.183	-0.222
-493.551	800.000	0.080	0.318
-492.537	800.000	0.045	0.127
-491.522	-200.000	-0.018	0.108
-490.508	-8.362	-0.151	0.102
-489.493	-112.214	-0.252	0.051
-488.478	-200.000	-0.222	-0.000
-487.464	-69.423	-0.456	0.176
-486.449	536.113	-0.086	0.206
-485.435	-103.144	-0.349	-0.083
-484.420	311.305	-0.067	-0.126
-483.405	-200.000	-0.008	0.082
-482.391	243.292	0.090	-0.152
-481.376	-31.249	-0.169	-0.096
-480.362	-74.849	0.177	-0.064
-479.347	-200.000	0.015	-0.192
-478.332	60.339	0.060	-0.060
-477.318	-200.000	-0.006	-0.152
-476.303	87.484	0.087	0.096
-475.289	133.649	0.028	0.036
-474.274	-98.010	-0.103	-0.027
-473.259	800.000	0.042	-0.134
-472.245	-200.000	-0.025	0.160
-471.230	800.000	0.141	0.434
-470.216	35.956	0.140	-0.124
-469.201	-200.000	-0.015	0.301
-468.186	-54.551	-0.231	0.105
-467.172	-107.299	0.340	-0.075
-466.157	216.418	0.052	-0.082
-465.143	-55.767	-0.193	-0.087
-464.128	106.881	0.081	-0.096
-463.113	-200.000	0.063	0.360
-462.099	-4.779	-0.145	0.101
-461.084	-200.000	0.013	0.067
-460.070	180.511	0.125	0.184
-459.055	-200.000	0.011	0.191
-458.040	-200.000	0.031	0.429
-457.026	784.356	-0.134	0.368
-456.011	-200.000	-0.003	0.041
-454.997	800.000	-0.035	0.125
-453.982	-127.088	-0.126	-0.018
-452.968	800.000	0.046	-0.181
-451.953	800.000	0.040	-0.164
-450.938	33.384	0.413	-0.360
-449.924	-29.687	-0.142	-0.081
-448.909	517.891	-0.057	-0.133
-447.895	-57.727	0.079	-0.035
-446.880	550.217	-0.146	-0.351
-445.865	-173.666	0.117	-0.004
-444.851	-56.443	-0.168	0.075
-443.836	800.000	0.043	-0.184
-442.822	646.350	0.140	0.358
-441.807	-159.314	0.226	-0.013
-440.792	-154.398	0.271	0.018
-439.778	-34.224	0.471	-0.259
-438.763	-200.000	-0.007	0.203
-437.749	-60.975	-0.520	0.220
-436.734	-60.770	-0.014	-0.006
-435.719	-200.000	0.046	0.272
-434.705	-124.587	-0.159	-0.025
-433.690	800.000	-0.045	-0.167
-432.676	56.694	-0.043	-0.042
-431.661	262.252	0.206	0.358
-430.646	40.194	-0.092	-0.083
-429.632	-200.000	-0.034	-0.264
-428.617	-200.000	-0.008	-0.074
-427.603	-184.984	0.259	-0.004
-426.588	53.203	0.172	-0.165
-425.573	-146.858	-0.111	0.010
-424.559	583.718	0.100	0.246
-423.544	-55.832	0.306	-0.137
-422.530	-142.812	-0.106	-0.010
-421.515	-79.842	-0.245	0.083
-420.500	234.811	-0.089	0.147
-419.486	-140.803	-0.021	0.002
-418.471	662.883	-0.090	-0.234
-417.457	-15.679	0.254	0.162
-416.442	-200.000	-0.010	-0.405
-415.428	-106.933	-0.316	0.070
-414.413	-42.312	-0.090	0.046
-413.398	-122.192	0.082	0.013
-412.384	-128.406	-0.255	-0.036
-411.369	800.000	0.070	-0.219
-410.355	-200.000	-0.019	-0.101
-409.340	-30.203	-0.102	0.058
-408.325	6.021	-0.316	-0.234
-407.311	-200.000	-0.003	0.245
-406.296	-200.000	-0.036	-0.249
-405.282	189.647	-0.204	-0.306
-404.267	800.000	-0.050	0.154
-403.252	-171.980	0.143	0.005
-402.238	-87.820	-0.256	-0.077
-401.223	-200.000	0.239	0.000
-400.209	-67.736	0.090	-0.035
-399.194	-200.000	0.027	0.174
-398.179	4.524	0.298	0.219
-397.165	-166.958	-0.310	-0.013
-396.150	-155.090	0.334	-0.022
-395.136	-200.000	0.022	-0.114
-394.121	653.349	0.077	-0.198
-393.106	37.528	0.074	-0.065
-392.092	-83.596	-0.105	-0.034
-391.077	-53.015	-0.142	0.066
-390.063	440.716	-0.043	-0.095
-389.048	-200.000	0.010	0.258
-388.033	-49.169	0.244	-0.117
-387.019	221.308	0.071	-0.114
-386.004	-200.000	-0.008	0.181
-384.990	5.505	-0.134	0.099
-383.975	-200.000	-0.024	-0.173
-382.960	26.867	-0.226	0.190
-381.946	800.000	-0.040	0.155
-380.931	291.852	0.045	-0.082
-379.917	800.000	-0.068	0.239
-378.902	215.769	-0.149	0.237
-377.888	103.462	-0.201	0.236
-376.873	-49.419	0.370	-0.177
-375.858	-200.000	-0.002	-0.321
-374.844	-40.007	0.215	0.112
-373.829	800.000	0.082	0.269
-372.815	800.000	0.014	0.060
-371.800	-200.000	-0.007	-0.275
-370.785	-200.000	-0.062	-0.285
-369.771	-200.000	0.010	0.103
-368.756	127.580	0.207	0.263
-367.742	78.169	-0.112	0.120
-366.727	359.257	0.151	0.301
-365.712	605.835	0.112	-0.279
-364.698	-200.000	0.023	-0.337
-363.683	14.953	0.128	0.100
-362.669	165.765	0.101	0.142
-361.654	-72.029	0.221	-0.082
-360.639	-200.000	-0.046	0.430
-359.625	134.850	0.112	-0.146
-358.610	216.120	0.042	0.066
-357.596	-53.294	-0.042	0.019
-356.581	-62.673	0.180	0.075
-355.566	800.000	-0.078	0.318
-354.552	-200.000	-0.007	-0.338
-353.537	419.178	-0.086	0.185
-352.523	-200.000	0.093	0.000
-351.508	231.324	0.043	-0.070
-350.493	-72.710	-0.262	0.097
-349.479	-200.000	-0.047	-0.387
-348.464	-200.000	0.004	-0.300
-347.450	711.742	0.056	0.149
-346.435	225.827	-0.175	0.284
-345.420	800.000	-0.038	0.126
-344.406	800.000	0.037	0.111
-343.391	-200.000	-0.000	0.220
-342.377	-156.894	0.052	0.003
-341.362	-200.000	-0.061	-0.368
-340.348	-114.040	-0.354	-0.068
-339.333	-200.000	0.021	-0.203
-338.318	54.847	0.078	0.075
-337.304	83.280	-0.059	-0.064
-336.289	99.182	0.077	-0.089
-335.275	-200.000	0.015	0.149
-334.260	65.885	0.173	0.175
-333.245	-60.321	0.199	-0.085
-332.231	446.486	-0.092	0.203
-331.216	-128.554	0.100	0.014
-330.202	-108.389	-0.097	0.021
-329.187	35.145	-0.201	0.176
-328.172	60.948	-0.151	-0.150
-327.158	266.591	0.109	-0.189
-326.143	-79.869	0.150	-0.051
-325.129	-97.285	-0.350	0.091
-324.114	691.853	0.043	0.114
-323.099	130.732	-0.082	-0.106
-322.085	800.000	-0.014	-0.061
-321.070	152.521	0.177	-0.242
-320.056	257.862	0.127	-0.218
-319.041	274.763	0.114	-0.203
-318.026	585.299	-0.067	-0.163
-317.012	222.188	-0.190	0.305
-315.997	-19.354	-0.261	-0.162
-314.983	-37.919	0.370	0.196
-313.968	-21.577	-0.190	-0.116
-312.953	-200.000	-0.054	0.304
-311.939	33.639	-0.092	-0.080
-310.924	39.880	0.177	-0.159
-309.910	-200.000	-0.019	0.262
-308.895	-126.858	-0.082	0.012
-307.880	-189.105	0.045	-0.001
-306.866	-153.696	-0.179	-0.012
-305.851	91.586	-0.081	0.091
-304.837	-200.000	-0.050	0.464
-303.822	40.947	-0.150	0.135
-302.807	-200.000	0.019	0.101
-301.793	-153.430	0.162	-0.011
-300.778	-99.421	0.064	-0.016
-299.764	-47.495	-0.110	-0.053
-298.749	-82.359	0.091	0.030
-297.735	-72.145	0.025	0.009
-296.720	183.599	-0.082	-0.121
-295.705	213.933	-0.203	0.321
-294.691	98.941	0.199	0.230
-293.676	-200.000	-0.040	-0.252
-292.662	-95.341	0.197	-0.053
-291.647	708.161	-0.033	0.087
-290.632	-130.383	0.186	-0.025
-289.618	-106.261	0.462	0.103
-288.603	4.716	-0.444	0.325
-287.589	-104.469	-0.150	-0.035
-286.574	-5.447	0.227	0.155
-285.559	-200.000	-0.002	-0.064
-284.545	-36.673	0.137	0.073
-283.530	184.602	0.117	-0.173
-282.516	-10.568	-0.327	0.216
-281.501	800.000	-0.056	0.170
-280.486	79.483	0.073	0.079
-279.472	-15.359	-0.152	0.097
-278.457	-4.522	0.198	0.136
-277.443	-40.483	-0.079	-0.041
-276.428	-125.077	0.192	0.029
-275.413	-90.088	0.164	0.048
-274.399	-51.071	0.243	-0.113
-273.384	-200.000	-0.015	0.116
-272.370	55.063	0.176	-0.169
-271.355	-200.000	0.006	0.224
-270.340	721.646	0.164	0.435
-269.326	-200.000	0.007	0.212
-268.311	-146.517	0.065	0.006
-267.297	800.000	-0.084	-0.317
-266.282	-17.146	0.152	-0.096
-265.267	-29.143	-0.125	0.071
-264.253	49.514	-0.064	-0.060
-263.238	-125.769	-0.217	-0.033
-262.224	800.000	0.021	0.074
-261.209	-147.301	-0.220	-0.019
-260.195	345.927	-0.030	-0.059
-259.180	-200.000	0.036	-0.226
-258.165	-83.743	0.076	-0.024
-257.151	800.000	-0.042	-0.130
-256.136	-113.063	0.244	-0.048
-255.122	-1.803	-0.039	-0.027
-254.107	242.526	0.135	0.226
-253.092	0.926	-0.113	-0.081
-252.078	708.735	0.120	-0.316
-251.063	-200.000	0.032	-0.266
-250.049	518.645	-0.100	-0.234
-249.034	-97.390	-0.164	0.043
-248.019	-31.690	0.097	-0.054
-247.005	711.786	0.039	-0.103
-245.990	314.557	0.002	-0.004
-244.976	-37.919	-0.138	0.073
-243.961	-172.879	-0.187	0.006
-242.946	157.390	-0.080	-0.110
-241.932	-181.953	-0.298	0.006
-240.917	-68.707	0.361	-0.139
-239.903	-200.000	0.033	-0.182
-238.888	169.941	-0.094	-0.134
-237.873	800.000	-0.059	-0.247
-236.859	666.525	-0.074	0.190
-235.844	17.180	0.103	-0.082
-234.830	-147.303	-0.390	0.033
-233.815	800.000	0.010	-0.030
-232.800	343.247	0.039	0.076
-231.786	12.569	0.115	0.088
-230.771	-200.000	0.006	-0.203
-229.757	-121.429	-0.272	-0.045
-228.742	-54.800	0.170	0.076
-227.727	115.783	-0.049	-0.059
-226.713	86.036	-0.171	-0.188
-225.698	-40.924	0.108	-0.056
-224.684	-133.587	-0.265	0.033
-223.669	-23.697	-0.165	-0.098
-222.655	-111.116	0.077	-0.016
-221.640	-40.402	-0.244	-0.126
-220.625	367.093	0.190	-0.382
-219.611	-54.513	0.080	-0.036
-218.596	78.309	0.063	0.067
-217.582	-176.167	-0.199	0.005
-216.567	86.861	-0.100	-0.110
-215.552	106.099	0.059	-0.069
-214.538	77.566	0.175	0.185
-213.523	180.821	-0.083	0.122
-212.509	369.399	0.217	0.436
-211.494	-200.000	0.040	-0.175
-210.479	-47.790	-0.289	-0.139
-209.465	-68.198	0.164	0.064
-208.450	-37.802	0.062	-0.033
-207.436	8.494	0.269	0.201
-206.421	550.230	-0.100	-0.239
-205.406	624.032	0.048	-0.119
-204.392	-152.060	-0.356	0.026
-203.377	44.058	-0.206	-0.188
-202.363	-83.366	-0.108	-0.034
-201.348	252.827	-0.073	-0.124
-200.333	-200.000	-0.008	-0.101
-199.319	-200.000	-0.005	-0.085
-198.304	-200.000	0.015	-0.113
-197.290	800.000	0.046	-0.201
-196.275	197.962	-0.054	0.082
-195.260	99.591	0.087	-0.100
-194.246	424.953	-0.016	-0.034
-193.231	500.135	0.065	0.149
-192.217	800.000	0.111	0.342
-191.202	800.000	0.049	-0.154
-190.187	-200.000	0.029	-0.157
-189.173	-60.338	0.127	-0.054
-188.158	-200.000	-0.010	0.213
-187.144	115.710	-0.132	-0.161
-186.129	-159.501	0.334	0.018
-185.114	-200.000	-0.063	0.489
-184.100	-23.887	-0.280	-0.166
-183.085	145.620	0.132	-0.175
-182.071	-200.000	0.058	0.276
-181.056	-93.143	-0.125	-0.035
-180.042	-133.355	0.285	0.036
-179.027	-161.261	-0.264	-0.014
-178.012	194.631	0.296	0.446
-176.998	97.390	-0.192	0.219
-175.983	106.630	-0.058	0.069
-174.969	-54.738	-0.444	0.199
-173.954	-200.000	0.052	0.332
-172.939	228.125	0.132	-0.214
-171.925	800.000	-0.042	0.125
-170.910	65.579	0.123	0.124
-169.896	730.002	0.057	-0.152
-168.881	-29.804	0.178	0.101
-167.866	349.321	0.034	0.067
-166.852	800.000	0.054	-0.223
-165.837	-83.241	0.172	-0.055
-164.823	-75.049	-0.258	-0.092
-163.808	-200.000	0.099	0.476
-162.793	-200.000	0.014	0.317
-161.779	245.193	0.092	0.153
-160.764	-15.965	0.164	-0.104
-159.750	-115.751	-0.247	0.046
-158.735	-108.790	-0.309	0.066
-157.720	-200.000	0.007	-0.064
-156.706	-183.309	0.017	-0.000
-155.691	30.389	-0.187	-0.159
-154.677	63.310	-0.261	0.260
-153.662	-24.288	-0.206	0.122
-152.647	-17.873	0.137	0.085
-151.633	-113.411	0.214	0.042
-150.618	800.000	0.037	-0.117
-149.604	-29.232	0.317	-0.180
-148.589	216.356	0.120	-0.189
-147.574	-75.084	-0.225	-0.080
-146.560	-109.670	0.134	-0.028
-145.545	283.628	0.014	0.025
-144.531	164.317	-0.303	-0.423
-143.516	24.332	-0.113	-0.093
-142.502	-67.660	0.249	-0.097
-141.487	432.509	-0.137	-0.295
-140.472	-130.242	0.237	-0.032
-139.458	-58.876	0.152	0.065
-138.443	-177.328	0.261	0.006
-137.429	55.239	0.114	0.109
-136.414	401.446	-0.255	0.530
-135.399	374.863	0.028	0.056
-134.385	156.323	0.210	0.288
-133.370	-137.273	0.284	-0.032
-132.356	-146.813	-0.234	0.020
-131.341	175.122	0.069	0.099
-130.326	800.000	-0.022	0.090
-129.312	120.947	-0.142	0.176
-128.297	136.936	0.164	-0.212
-127.283	246.956	-0.082	0.138
-126.268	265.242	0.175	0.303
-125.253	-200.000	-0.036	-0.273
-124.239	544.477	-0.132	-0.313
-123.224	-200.000	0.025	0.253
-122.210	-132.894	-0.247	-0.031
-121.195	-123.842	0.224	0.035
-120.180	-200.000	-0.003	0.162
-119.166	-200.000	0.010	-0.098
-118.151	800.000	0.073	-0.207
-117.137	-167.480	0.275	0.011
-116.122	800.000	0.146	0.457
-115.107	-200.000	0.031	-0.185
-114.093	119.348	-0.116	0.143
-113.078	-92.399	0.212	-0.059
-112.064	-69.459	-0.253	-0.096
-111.049	-9.779	0.088	0.058
-110.034	64.045	0.148	-0.148
-109.020	-20.684	0.418	-0.254
-108.005	-134.118	-0.112	-0.014
-106.991	-153.363	0.262	-0.018
-105.976	-115.669	0.016	-0.003
-104.962	-134.506	-0.157	0.019
-103.947	800.000	-0.162	0.450
-102.932	499.060	-0.129	0.295
-101.918	-200.000	-0.024	0.404
-100.903	-12.225	0.155	-0.101
-99.889	53.402	0.031	-0.029
-98.874	-33.771	-0.163	-0.089
-97.859	-143.075	0.251	0.024
-96.845	-122.057	0.128	-0.021
-95.830	54.975	0.127	0.121
-94.816	-97.439	0.132	0.034
-93.801	800.000	-0.144	-0.420
-92.786	110.696	0.140	0.166
-91.772	-62.279	0.338	0.139
-90.757	-111.681	-0.070	0.014
-89.743	-77.260	0.113	-0.039
-88.728	-61.109	0.220	-0.092
-87.713	-200.000	0.011	-0.103
-86.699	128.132	-0.150	0.190
-85.684	-115.570	0.325	-0.060
-84.670	-200.000	-0.005	-0.089
-83.655	257.133	-0.089	0.151
-82.640	577.129	-0.087	-0.212
-81.626	-200.000	0.049	-0.238
-80.611	-200.000	-0.015	0.111
-79.597	-200.000	-0.329	0.001
-78.582	-200.000	0.029	-0.241
-77.567	-130.697	0.117	-0.016
-76.553	22.858	-0.200	-0.162
-75.538	36.956	0.107	-0.094
-74.524	56.652	-0.043	0.042
-73.509	-159.815	-0.486	0.026
-72.494	-200.000	-0.006	-0.082
-71.480	114.274	-0.143	0.172
-70.465	69.805	-0.157	0.161
-69.451	437.728	-0.101	0.218
-68.436	421.973	-0.097	0.205
-67.422	235.815	0.154	-0.252
-66.407	28.372	0.313	0.262
-65.392	-200.000	0.042	0.271
-64.378	115.045	-0.372	0.449
-63.363	460.687	-0.125	-0.276
-62.349	-78.916	0.117	-0.039
-61.334	-1.556	-0.769	-0.536
-60.319	800.000	0.159	0.542
-59.305	-200.000	-0.159	-0.778
-58.290	173.053	0.500	0.712
-57.276	633.212	0.585	1.466
-56.261	-200.000	87.176	504.002
-55.246	479.805	1381.315	3095.798
-54.232	147.142	2605.246	3465.557
-53.217	106.806	2346.720	2753.811
-52.203	47.186	1958.623	1802.369
-51.188	41.265	1747.720	1561.995
-50.173	38.478	1703.562	1501.130
-49.159	53.008	1746.857	1652.370
-48.144	56.962	1764.765	1699.941
-47.130	41.208	1723.749	1539.885
-46.115	38.164	1709.290	1503.523
-45.100	38.061	1704.381	1498.351
-44.086	37.955	1701.757	1495.171
-43.071	37.964	1699.097	1492.843
-42.057	37.951	1696.894	1490.753
-41.042	37.905	1695.408	1489.036
-40.027	37.956	1693.096	1487.337
-39.013	38.006	1690.664	1485.519
-37.998	37.962	1688.936	1483.609
-36.984	37.975	1687.807	1482.653
-35.969	38.129	1685.963	1482.144
-34.954	38.086	1684.526	1480.501
-33.940	38.235	1682.094	1479.428
-32.925	38.164	1680.392	1477.337
-31.911	38.149	1678.879	1475.836
-30.896	38.119	1677.172	1474.049
-29.881	38.114	1675.675	1472.637
-28.867	38.052	1673.794	1470.458
-27.852	37.981	1672.874	1469.057
-26.838	38.104	1670.721	1468.032
-25.823	37.962	1670.284	1466.522
-24.809	38.111	1668.477	1465.996
-23.794	38.133	1666.833	1464.660
-22.779	38.139	1665.355	1463.351
-21.765	38.082	1663.671	1461.387
-20.750	38.050	1662.020	1459.638
-19.736	38.126	1660.885	1459.151
-18.721	38.104	1659.296	1457.529
-17.706	38.102	1657.464	1455.854
-16.692	38.118	1656.603	1455.157
-15.677	38.078	1655.164	1453.536
-14.663	38.127	1653.681	1452.542
-13.648	38.129	1652.365	1451.338
-12.633	38.175	1650.423	1449.917
-11.619	38.133	1648.932	1448.238
-10.604	38.145	1647.517	1447.031
-9.590	38.234	1645.970	1446.273
-8.575	38.192	1644.927	1444.987
-7.560	38.127	1644.092	1443.718
-6.546	38.062	1643.041	1442.259
-5.531	38.036	1641.668	1440.800
-4.517	38.042	1640.347	1439.630
-3.502	38.062	1639.591	1439.054
-2.487	38.137	1637.259	1437.504
-1.473	37.689	1625.243	1423.620
-0.458	33.958	1602.384	1376.582
0.556	27.515	1597.127	1324.096
1.571	23.062	1617.862	1308.302
2.586	21.423	1629.630	1305.474
3.600	18.784	1576.771	1243.930
4.615	10.731	1464.487	1100.868
5.629	2.836	1395.622	997.844
6.644	1.116	1386.365	980.025
7.659	0.939	1385.424	978.128
8.673	0.818	1384.471	976.587
9.688	0.867	1382.491	975.423
10.702	0.690	1379.436	972.038
11.717	3.832	1384.828	996.018
12.731	11.526	1396.749	1054.337
13.746	16.981	1404.131	1095.124
14.761	17.643	1403.155	1098.537
15.775	16.934	1401.241	1092.378
16.790	15.893	1398.580	1083.510
17.804	15.066	1396.132	1076.202
18.819	14.720	1394.782	1072.843
19.834	14.394	1393.677	1069.807
20.848	14.114	1392.644	1067.125
21.863	13.927	1391.371	1064.857
22.877	13.745	1389.971	1062.524
23.892	13.619	1388.702	1060.652
24.907	13.622	1388.285	1060.260
25.921	13.592	1387.574	1059.430
26.936	13.767	1386.206	1059.411
27.950	13.816	1385.126	1058.804
28.965	13.769	1384.422	1057.874
29.980	13.798	1383.556	1057.301
30.994	13.924	1382.478	1057.189
32.009	13.861	1381.370	1055.846
33.023	13.819	1380.600	1054.898
34.038	13.907	1378.523	1053.771
35.053	13.793	1378.254	1052.749
36.067	13.772	1376.846	1051.447
37.082	13.888	1375.782	1051.277
38.096	13.837	1375.678	1050.782
39.111	13.907	1374.100	1049.928
40.126	13.791	1373.230	1048.437
41.140	13.643	1373.108	1047.318
42.155	13.679	1372.130	1046.705
43.169	13.581	1372.279	1046.104
44.184	13.655	1371.671	1046.017
45.199	13.719	1371.361	1046.095
46.213	13.704	1370.532	1045.275
47.228	13.758	1369.923	1045.058
48.242	13.759	1368.586	1043.952
49.257	13.753	1367.675	1043.122
50.271	13.708	1365.572	1041.145
51.286	13.882	1363.727	1040.737
52.301	13.765	1362.932	1039.310
53.315	13.782	1361.635	1038.330
54.330	13.720	1360.730	1037.163
55.344	13.647	1359.740	1035.857
56.359	13.784	1358.563	1035.728
57.374	13.660	1357.855	1034.321
58.388	13.678	1357.353	1033.958
59.403	13.524	1356.885	1032.555
60.417	13.613	1355.954	1032.309
61.432	13.567	1355.235	1031.384
62.447	13.599	1354.171	1030.678
63.461	13.553	1352.915	1029.345
64.476	13.598	1351.397	1028.377
65.490	13.567	1350.542	1027.443
66.505	13.573	1348.819	1026.081
67.520	13.680	1347.665	1025.774
68.534	13.679	1346.368	1024.690
69.549	13.673	1345.325	1023.771
70.563	13.584	1344.090	1022.191
71.578	13.541	1343.248	1021.192
72.593	13.544	1342.507	1020.558
73.607	13.462	1341.786	1019.413
74.622	13.505	1340.590	1018.683
75.636	13.530	1339.896	1018.220
76.651	13.518	1339.513	1017.763
77.666	13.572	1338.294	1017.080
78.680	13.434	1338.381	1016.208
79.695	13.637	1337.215	1016.475
80.709	13.658	1336.473	1015.952
81.724	13.673	1335.733	1015.391
82.739	13.691	1334.553	1014.512
83.753	13.685	1334.079	1014.029
84.768	13.680	1332.440	1012.663
85.782	13.714	1331.879	1012.350
86.797	13.776	1330.312	1011.448
87.812	13.759	1329.015	1010.273
88.826	13.684	1328.025	1008.971
89.841	13.691	1326.810	1008.001
90.855	13.780	1325.556	1007.500
91.870	13.775	1324.853	1006.846
92.884	13.739	1324.291	1006.112
93.899	13.818	1323.088	1005.589
94.914	13.746	1322.578	1004.675
95.928	13.810	1321.455	1004.122
96.943	13.917	1320.479	1003.940
97.957	13.877	1319.783	1003.076
98.972	13.807	1319.040	1001.999
99.987	13.732	1318.339	1000.930
101.001	13.778	1317.158	1000.217
102.016	13.777	1315.403	998.794
103.030	13.800	1314.616	998.248
104.045	13.844	1313.456	997.541
105.060	13.719	1312.639	996.083
106.074	13.711	1311.124	994.796
107.089	13.776	1309.519	993.881
108.103	13.687	1308.500	992.486
109.118	13.726	1306.997	991.490
110.133	13.648	1305.949	990.141
111.147	13.693	1304.508	989.228
112.162	13.726	1302.849	988.080
113.176	13.774	1301.720	987.422
114.191	13.628	1301.177	986.056
115.206	13.740	1299.677	985.495
116.220	13.797	1298.466	984.829
117.235	13.712	1297.559	983.551
118.249	13.809	1296.270	983.063
119.264	13.749	1295.409	981.964
120.279	13.693	1294.413	980.796
121.293	13.760	1293.038	980.059
122.308	13.621	1292.349	978.630
123.322	13.667	1291.139	977.902
124.337	13.639	1290.347	977.050
125.352	13.848	1288.739	976.975
126.366	13.738	1287.808	975.536
127.381	13.750	1287.224	975.080
128.395	13.735	1285.693	973.742
129.410	13.740	1284.756	972.975
130.424	13.736	1284.146	972.405
131.439	13.764	1283.077	971.676
132.454	13.791	1282.109	971.012
133.468	13.860	1281.105	970.569
134.483	13.803	1280.203	969.465
135.497	13.793	1279.312	968.649
136.512	13.869	1278.038	968.044
137.527	13.792	1276.594	966.414
138.541	13.841	1274.911	965.337
139.556	13.930	1273.787	964.919
140.570	13.932	1272.679	964.008
141.585	13.931	1271.747	963.210
142.600	13.800	1270.660	961.543
143.614	13.873	1269.729	961.176
144.629	13.936	1268.577	960.583
145.643	13.945	1267.293	959.580
146.658	13.949	1266.144	958.642
147.673	13.864	1264.729	956.999
148.687	13.819	1263.886	956.017
149.702	13.925	1262.319	955.359
150.716	13.893	1260.620	953.805
151.731	13.855	1259.573	952.709
152.746	13.817	1258.533	951.620
153.760	13.873	1257.104	950.775
154.775	13.974	1256.118	950.527
155.789	13.849	1255.611	949.342
156.804	13.966	1253.910	948.638
157.819	13.968	1252.727	947.671
158.833	14.084	1251.903	947.627
159.848	14.060	1250.718	946.506
160.862	14.093	1249.564	945.736
161.877	14.032	1248.737	944.683
162.892	13.907	1247.940	943.288
163.906	13.971	1247.265	943.054
164.921	13.949	1246.341	942.146
165.935	14.108	1245.043	941.986
166.950	14.079	1244.141	941.056
167.964	14.088	1243.603	940.617
168.979	14.006	1243.143	939.719
169.994	13.976	1242.257	938.796
171.008	14.067	1241.530	938.677
172.023	14.058	1240.536	937.793
173.037	14.069	1240.070	937.419
174.052	14.032	1238.727	936.117
175.067	14.149	1237.321	935.629
176.081	14.150	1236.536	934.955
177.096	14.073	1235.991	934.028
178.110	14.056	1234.970	933.080
179.125	14.090	1233.227	931.873
180.140	14.168	1232.064	931.345
181.154	14.194	1231.197	930.756
182.169	14.248	1229.423	929.634
183.183	14.199	1228.556	928.623
184.198	14.190	1227.556	927.735
185.213	14.214	1226.500	926.987
186.227	14.344	1224.784	926.328
187.242	14.264	1224.061	925.260
188.256	14.430	1222.845	925.176
189.271	14.329	1222.189	924.040
190.286	14.233	1220.976	922.508
191.300	14.283	1220.153	922.080
192.315	14.196	1219.602	921.102
193.329	14.335	1218.383	920.866
194.344	14.161	1218.511	919.919
195.359	14.291	1217.308	919.648
196.373	14.342	1216.916	919.554
197.388	14.370	1216.681	919.448
198.402	14.429	1216.198	919.332
199.417	14.471	1215.390	918.868
200.432	14.589	1214.290	918.605
201.446	14.474	1213.494	917.289
202.461	14.552	1212.896	917.183
203.475	14.556	1211.186	915.831
204.490	14.617	1210.147	915.300
205.504	14.490	1209.127	913.749
206.519	14.516	1208.024	912.981
207.534	14.530	1206.677	911.958
208.548	14.448	1206.216	911.080
209.563	14.502	1205.069	910.430
210.577	14.485	1205.010	910.211
211.592	14.645	1203.263	909.680
212.607	14.597	1202.510	908.771
213.621	14.635	1201.556	908.175
214.636	14.661	1200.791	907.657
215.650	14.805	1199.381	907.294
216.665	14.628	1198.872	905.867
217.680	14.764	1197.856	905.757
218.694	14.729	1197.047	904.879
219.709	14.729	1196.404	904.311
220.723	14.728	1195.332	903.416
221.738	14.816	1194.664	903.304
222.753	14.731	1194.147	902.375
223.767	14.799	1193.402	902.102
224.782	14.821	1192.886	901.748
225.796	14.970	1192.015	901.816
226.811	14.926	1191.033	900.755
227.826	14.860	1190.788	900.134
228.840	14.826	1189.984	899.263
229.855	14.866	1189.080	898.715
230.869	14.898	1188.130	898.092
231.884	14.888	1187.110	897.187
232.899	14.915	1186.308	896.648
233.913	14.816	1186.192	895.947
234.928	14.850	1185.657	895.645
235.942	14.758	1184.639	894.306
236.957	14.786	1183.655	893.632
237.972	14.801	1183.035	893.166
238.986	14.870	1182.324	892.919
240.001	15.021	1181.484	893.012
241.015	14.822	1181.171	891.636
242.030	14.927	1179.773	891.058
243.045	14.920	1179.288	890.575
244.059	15.040	1178.333	890.417
245.074	15.053	1177.348	889.663
246.088	15.010	1176.393	888.633
247.103	15.126	1175.544	888.529
248.117	15.103	1175.258	888.114
249.132	15.190	1173.906	887.472
250.147	15.254	1173.387	887.341
251.161	15.221	1172.690	886.559
252.176	15.170	1171.918	885.627
253.190	15.240	1171.742	885.789
254.205	15.298	1170.909	885.384
255.220	15.380	1170.272	885.257
256.234	15.241	1169.622	883.953
257.249	15.297	1169.131	883.803
258.263	15.430	1168.143	883.676
259.278	15.410	1167.537	883.036
260.293	15.353	1167.224	882.422
261.307	15.477	1165.899	881.992
262.322	15.449	1165.350	881.350
263.336	15.429	1165.107	880.986
264.351	15.468	1164.087	880.341
265.366	15.479	1163.688	880.016
266.380	15.490	1163.484	879.845
267.395	15.452	1162.237	878.624
268.409	15.440	1161.664	878.050
269.424	15.548	1161.162	878.156
270.439	15.540	1160.356	877.430
271.453	15.603	1159.203	876.805
272.468	15.565	1158.360	875.894
273.482	15.508	1157.985	875.237
274.497	15.421	1157.599	874.413
275.512	15.588	1156.479	874.357
276.526	15.571	1155.529	873.477
277.541	15.560	1154.990	872.931
278.555	15.540	1154.513	872.393
279.570	15.650	1153.492	872.113
280.585	15.689	1152.754	871.678
281.599	15.725	1151.949	871.182
282.614	15.798	1150.355	870.277
283.628	15.809	1149.464	869.583
284.643	15.710	1148.733	868.442
285.657	15.814	1147.941	868.300
286.672	15.726	1147.176	867.192
287.687	15.693	1146.515	866.449
288.701	15.671	1145.778	865.700
289.716	15.691	1144.984	865.127
290.730	15.796	1144.081	864.909
291.745	15.818	1143.194	864.272
292.760	15.807	1142.417	863.552
293.774	15.857	1141.721	863.206
294.789	15.874	1141.345	862.932
295.803	16.075	1140.266	863.068
296.818	15.869	1139.959	861.706
297.833	15.956	1138.871	861.251
298.847	15.947	1138.127	860.569
299.862	15.820	1137.645	859.477
300.876	16.048	1136.731	859.875
301.891	16.080	1135.839	859.287
302.906	16.034	1135.463	858.694
303.920	16.032	1134.823	858.124
304.935	16.060	1134.337	857.823
305.949	16.101	1133.310	857.178
306.964	16.172	1132.460	856.819
307.979	16.252	1131.890	856.719
308.993	16.149	1131.174	855.581
310.008	16.153	1130.234	854.811
311.022	16.161	1129.401	854.147
312.037	16.185	1128.567	853.564
313.052	16.275	1127.405	853.060
314.066	16.156	1126.776	851.909
315.081	16.182	1125.699	851.151
316.095	16.124	1125.011	850.266
317.110	16.034	1124.702	849.501
318.125	16.091	1124.177	849.318
319.139	16.182	1123.250	849.000
320.154	16.175	1122.177	848.077
321.168	16.152	1121.732	847.554
322.183	16.265	1121.127	847.588
323.197	16.298	1120.640	847.306
324.212	16.177	1120.437	846.473
325.227	16.243	1119.334	845.898
326.241	16.245	1118.700	845.353
327.256	16.285	1117.868	844.851
328.270	16.264	1117.250	844.202
329.285	16.235	1116.187	843.181
330.300	16.253	1115.453	842.638
331.314	16.334	1114.175	842.005
332.329	16.157	1113.355	840.429
333.343	16.458	1112.173	840.959
334.358	16.332	1111.787	839.968
335.373	16.333	1110.995	839.296
336.387	16.458	1109.966	839.064
337.402	16.395	1109.818	838.568
338.416	16.391	1108.882	837.768
339.431	16.486	1108.450	837.836
340.446	16.616	1107.148	837.421
341.460	16.524	1106.494	836.397
342.475	16.562	1105.698	835.910
343.489	16.550	1104.936	835.204
344.504	16.584	1103.929	834.534
345.519	16.619	1103.066	833.979
346.533	16.639	1102.367	833.476
347.548	16.774	1101.559	833.456
348.562	16.705	1101.130	832.718
349.577	16.642	1100.089	831.550
350.592	16.710	1098.949	830.946
351.606	16.545	1098.584	829.790
352.621	16.699	1097.980	830.012
353.635	16.620	1097.516	829.200
354.650	16.702	1096.600	828.837
355.665	16.774	1095.630	828.382
356.679	16.694	1095.103	827.523
357.694	16.785	1094.570	827.489
358.708	16.836	1093.668	826.981
359.723	16.764	1093.278	826.265
360.738	16.713	1092.639	825.461
361.752	16.813	1092.241	825.574
362.767	16.874	1091.716	825.398
363.781	16.873	1091.014	824.790
364.796	16.883	1090.153	824.115
365.810	16.862	1089.439	823.403
366.825	17.068	1088.536	823.647
367.840	17.111	1088.389	823.668
368.854	17.091	1087.754	823.017
369.869	17.040	1087.048	822.167
370.883	17.000	1086.393	821.406
371.898	17.061	1085.562	820.995
372.913	17.057	1084.882	820.390
373.927	17.069	1084.481	820.073
374.942	17.007	1083.894	819.257
375.956	17.094	1083.147	819.041
376.971	17.127	1082.696	818.784
377.986	17.203	1082.007	818.559
379.000	17.172	1081.553	817.993
380.015	17.283	1080.828	817.906
381.029	17.293	1080.175	817.387
382.044	17.261	1079.469	816.626
383.059	17.263	1078.720	815.998
384.073	17.306	1078.127	815.686
385.088	17.304	1077.219	814.916
386.102	17.307	1075.976	813.919
387.117	17.306	1075.426	813.424
388.132	17.274	1074.469	812.479
389.146	17.288	1073.735	811.917
390.161	17.317	1073.167	811.555
391.175	17.324	1072.160	810.755
392.190	17.368	1071.712	810.554
393.205	17.365	1070.802	809.779
394.219	17.311	1070.071	808.898
395.234	17.362	1069.140	808.366
396.248	17.374	1067.672	807.239
397.263	17.371	1066.759	806.463
398.278	17.380	1066.513	806.249
399.292	17.493	1065.566	805.994
400.307	17.322	1065.181	804.825
401.321	17.445	1064.405	804.749
402.336	17.309	1064.033	803.754
403.350	17.379	1063.122	803.327
404.365	17.384	1062.503	802.807
405.380	17.328	1062.053	802.136
406.394	17.449	1060.956	801.807
407.409	17.533	1060.211	801.567
408.423	17.623	1059.074	801.058
409.438	17.596	1058.544	800.461
410.453	17.637	1058.001	800.174
411.467	17.632	1057.129	799.416
412.482	17.710	1056.793	799.459
413.496	17.713	1056.212	798.962
414.511	17.695	1055.362	798.164
415.526	17.702	1055.070	797.907
416.540	17.780	1054.667	797.897
417.555	17.800	1053.818	797.276
418.569	17.713	1053.548	796.594
419.584	17.751	1052.950	796.249
420.599	17.894	1052.395	796.425
421.613	95.333	1309.133	1417.503
422.628	87.832	1346.521	1417.626
