DTS Sentinel unit serial number:	SN413079Multiplexer serial number:	ORYXHardware model number:	OX4-SRSoftware version number:	ORYX F/W v4.00 Oryx Data Collector v3.7.2.0data status	okinstallation	princeton_trtdifferential loss correction	single-endedforward channel	channel 2reverse channel	N/Adate	2019/09/15time	23:11:35forward acquisition time	60.00reverse acquisition time	0.00gamma	496.2192k internal	0.2335k external	0.2335temperature offset calibration	0.9952default loss term (dB/km)	0.3790temperature slope calibration	1.0000multiplexer offset coefficient	1.0000multiplexer slope coefficient	1.0000fibre end	0.00T internal ref (°C)	28.41T ext. ref 1 (°C)	9.05T ext. ref 2 (°C)	22.19length (m)	temperature (°C)	Stokes	anti-Stokes-747.200	729.679	0.084	0.224
-746.185	-200.000	0.010	0.051
-745.171	-113.868	-0.164	-0.032
-744.156	220.582	-0.176	0.284
-743.142	-200.000	0.015	-0.149
-742.127	-200.000	-0.027	0.249
-741.112	800.000	-0.068	0.269
-740.098	-79.395	-0.158	-0.054
-739.083	-200.000	0.088	0.422
-738.069	-5.077	0.181	0.125
-737.054	-200.000	-0.018	0.127
-736.039	800.000	-0.047	-0.191
-735.025	33.195	0.252	0.219
-734.010	-200.000	-0.009	0.151
-732.996	-69.708	0.221	0.085
-731.981	92.442	-0.048	-0.054
-730.966	-125.768	-0.145	0.022
-729.952	147.092	-0.217	-0.293
-728.937	-200.000	0.004	-0.308
-727.923	-133.132	-0.193	-0.024
-726.908	145.318	-0.120	-0.161
-725.894	285.912	-0.108	-0.195
-724.879	268.891	0.066	-0.116
-723.864	-104.616	-0.201	0.047
-722.850	-116.565	0.189	0.035
-721.835	75.454	0.183	0.193
-720.821	-88.827	-0.201	-0.060
-719.806	-200.000	-0.024	0.147
-718.791	65.376	-0.271	-0.275
-717.777	-53.454	-0.117	0.054
-716.762	-22.683	-0.158	-0.096
-715.748	-200.000	0.016	-0.256
-714.733	104.694	0.126	0.149
-713.718	502.464	0.283	0.656
-712.704	-15.565	-0.310	0.198
-711.689	52.008	0.026	0.025
-710.675	57.392	0.132	-0.129
-709.660	-32.490	0.054	-0.030
-708.645	-64.112	-0.144	-0.059
-707.631	-141.113	0.292	0.030
-706.616	-200.000	0.025	0.328
-705.602	-200.000	0.088	0.449
-704.587	-37.172	-0.179	0.096
-703.572	-126.451	0.229	0.034
-702.558	-200.000	-0.016	0.129
-701.543	200.498	-0.053	0.081
-700.529	37.498	-0.444	-0.395
-699.514	487.935	0.018	0.041
-698.499	527.639	-0.060	0.143
-697.485	-200.000	0.061	0.492
-696.470	77.008	-0.039	-0.041
-695.456	145.681	-0.041	-0.055
-694.441	83.744	0.199	0.218
-693.426	118.715	-0.193	0.239
-692.412	-31.701	0.203	0.114
-691.397	-200.000	-0.049	0.339
-690.383	231.393	-0.062	-0.102
-689.368	216.404	-0.076	0.121
-688.354	157.914	-0.063	0.087
-687.339	74.198	-0.299	-0.315
-686.324	-108.289	0.022	0.005
-685.310	483.059	-0.137	0.313
-684.295	-82.670	0.320	0.104
-683.281	184.300	0.035	-0.052
-682.266	800.000	-0.044	0.128
-681.251	87.531	0.106	-0.118
-680.237	102.170	-0.147	-0.172
-679.222	319.610	0.095	-0.181
-678.208	800.000	-0.027	0.104
-677.193	-200.000	0.005	0.163
-676.178	251.037	-0.062	0.105
-675.164	-21.829	0.204	0.124
-674.149	-50.631	0.076	0.036
-673.135	-200.000	-0.020	0.291
-672.120	-200.000	-0.008	0.044
-671.105	-200.000	0.006	0.253
-670.091	778.915	-0.106	0.289
-669.076	-164.945	0.232	0.010
-668.062	-200.000	0.037	0.212
-667.047	-167.275	-0.301	-0.012
-666.032	24.116	-0.214	0.177
-665.018	515.931	0.068	0.160
-664.003	-58.267	-0.301	0.131
-662.989	800.000	0.060	-0.186
-661.974	85.687	-0.183	0.201
-660.959	28.882	0.430	0.365
-659.945	65.163	-0.049	0.050
-658.930	-100.082	-0.271	-0.067
-657.916	-200.000	0.002	0.316
-656.901	449.023	0.163	-0.360
-655.886	126.605	0.122	-0.154
-654.872	-152.988	-0.193	0.014
-653.857	800.000	-0.070	-0.251
-652.843	800.000	0.054	0.176
-651.828	-66.175	-0.200	-0.080
-650.814	800.000	0.101	-0.351
-649.799	-200.000	0.056	0.449
-648.784	800.000	-0.057	-0.203
-647.770	76.507	0.022	-0.023
-646.755	327.357	0.168	-0.323
-645.741	384.350	-0.069	0.142
-644.726	-66.099	-0.107	-0.043
-643.711	200.796	0.073	-0.113
-642.697	3.670	-0.195	0.143
-641.682	296.364	-0.085	-0.157
-640.668	-84.458	0.094	0.030
-639.653	253.654	-0.116	0.199
-638.638	55.833	0.182	0.177
-637.624	-112.699	0.500	0.099
-636.609	-89.209	0.032	-0.009
-635.595	-11.383	0.208	0.137
-634.580	800.000	0.068	-0.244
-633.565	45.318	-0.130	0.120
-632.551	800.000	0.057	-0.182
-631.536	25.144	-0.318	0.264
-630.522	218.308	-0.161	0.257
-629.507	-200.000	-0.001	-0.294
-628.492	-7.286	0.407	-0.276
-627.478	-200.000	0.044	-0.198
-626.463	-200.000	0.066	-0.326
-625.449	142.595	-0.062	-0.082
-624.434	674.140	0.058	0.152
-623.419	69.969	0.056	0.058
-622.405	9.485	0.113	0.086
-621.390	-109.425	-0.263	-0.056
-620.376	-200.000	0.074	-0.342
-619.361	20.700	-0.253	0.205
-618.346	32.930	-0.423	0.367
-617.332	0.435	-0.243	0.174
-616.317	23.987	-0.220	-0.181
-615.303	800.000	0.053	-0.211
-614.288	23.722	0.200	-0.165
-613.273	-67.252	-0.189	-0.074
-612.259	800.000	-0.135	-0.514
-611.244	-200.000	-0.030	-0.294
-610.230	-51.657	0.113	-0.053
-609.215	34.514	0.112	-0.098
-608.201	204.145	0.119	-0.185
-607.186	187.185	0.195	0.290
-606.171	208.441	-0.176	0.276
-605.157	-58.677	-0.140	0.061
-604.142	-62.829	0.246	0.102
-603.128	49.340	-0.325	-0.305
-602.113	-9.293	-0.274	-0.183
-601.098	5.705	-0.063	0.046
-600.084	-0.084	0.256	0.182
-599.069	117.583	0.153	-0.188
-598.055	724.213	-0.163	-0.435
-597.040	-200.000	-0.065	-0.417
-596.025	-90.877	0.241	-0.069
-595.011	-78.221	0.165	-0.057
-593.996	317.435	-0.035	-0.066
-592.982	800.000	-0.023	-0.088
-591.967	-163.826	-0.273	-0.013
-590.952	141.444	-0.176	0.233
-589.938	-5.600	-0.295	-0.202
-588.923	373.550	-0.112	-0.227
-587.909	584.545	0.073	-0.179
-586.894	520.025	-0.144	-0.336
-585.879	-200.000	0.023	0.172
-584.865	-98.080	0.299	0.077
-583.850	-200.000	-0.017	-0.200
-582.836	49.787	-0.231	0.217
-581.821	-200.000	-0.005	0.057
-580.806	800.000	-0.038	-0.166
-579.792	-76.031	-0.342	0.121
-578.777	262.907	-0.097	0.168
-577.763	-86.394	0.091	-0.028
-576.748	800.000	-0.089	-0.282
-575.733	-39.397	-0.300	0.157
-574.719	-200.000	0.024	-0.145
-573.704	118.623	-0.409	0.504
-572.690	-200.000	0.031	-0.189
-571.675	30.576	0.011	-0.009
-570.661	-93.034	0.363	-0.101
-569.646	497.308	-0.177	0.407
-568.631	216.497	0.107	0.170
-567.617	-169.701	0.452	0.016
-566.602	-200.000	-0.012	0.233
-565.588	-138.792	-0.170	-0.019
-564.573	32.340	0.053	0.046
-563.558	-172.930	-0.130	-0.004
-562.544	154.690	0.091	-0.125
-561.529	-200.000	0.029	0.210
-560.515	-126.378	0.164	0.024
-559.500	-76.951	0.152	-0.053
-558.485	70.428	0.110	0.114
-557.471	-136.468	0.411	-0.048
-556.456	-53.029	-0.171	0.078
-555.442	-128.633	0.156	-0.022
-554.427	32.668	0.066	0.057
-553.412	-200.000	0.031	-0.297
-552.398	800.000	0.064	-0.239
-551.383	157.821	0.144	0.198
-550.369	800.000	0.051	-0.176
-549.354	-119.452	-0.123	0.021
-548.339	-100.021	-0.310	-0.077
-547.325	-1.316	0.350	0.246
-546.310	-101.297	-0.271	0.066
-545.296	9.094	-0.164	-0.124
-544.281	-54.857	0.165	-0.074
-543.266	-23.787	0.434	-0.259
-542.252	297.121	0.279	-0.511
-541.237	-127.496	0.138	-0.020
-540.223	800.000	0.053	-0.177
-539.208	-131.938	-0.271	0.035
-538.193	25.109	0.166	0.138
-537.179	19.663	0.053	0.043
-536.164	-65.399	-0.337	-0.135
-535.150	224.747	-0.163	0.263
-534.135	289.741	-0.148	0.267
-533.121	82.836	-0.143	-0.154
-532.106	281.349	-0.042	0.075
-531.091	-10.801	0.210	-0.138
-530.077	-90.916	-0.163	0.047
-529.062	291.060	-0.204	0.369
-528.048	39.187	-0.117	-0.104
-527.033	6.421	-0.038	0.028
-526.018	274.103	0.108	-0.190
-525.004	-73.067	-0.154	-0.056
-523.989	249.316	-0.042	0.070
-522.975	507.655	-0.165	0.381
-521.960	-132.985	-0.219	0.028
-520.945	-113.090	-0.174	0.034
-519.931	18.043	0.259	-0.206
-518.916	193.446	0.180	-0.270
-517.902	210.275	0.259	0.405
-516.887	-175.550	-0.099	-0.003
-515.872	-200.000	-0.062	-0.278
-514.858	103.496	0.240	-0.280
-513.843	-14.205	0.143	-0.092
-512.829	800.000	-0.113	0.358
-511.814	-171.622	-0.219	-0.007
-510.799	-58.520	0.193	0.083
-509.785	202.702	0.059	0.090
-508.770	18.756	-0.079	-0.063
-507.756	112.739	0.116	-0.140
-506.741	-200.000	-0.064	0.342
-505.726	-80.802	0.141	-0.046
-504.712	800.000	0.058	-0.210
-503.697	-75.248	-0.169	0.060
-502.683	-185.034	-0.123	0.002
-501.668	800.000	-0.101	0.302
-500.653	101.946	0.097	-0.112
-499.639	756.893	0.073	-0.198
-498.624	-118.521	-0.164	0.029
-497.610	-200.000	-0.022	0.181
-496.595	367.373	-0.160	0.321
-495.581	-39.778	0.184	-0.096
-494.566	96.002	-0.049	0.055
-493.551	226.859	0.182	0.293
-492.537	51.317	-0.206	0.195
-491.522	800.000	0.063	0.206
-490.508	-200.000	-0.032	0.337
-489.493	338.957	-0.020	-0.039
-488.478	-8.801	-0.134	0.089
-487.464	-161.106	-0.264	0.014
-486.449	179.368	-0.184	0.268
-485.435	-134.346	0.270	-0.033
-484.420	108.837	-0.127	-0.151
-483.405	-44.413	0.151	0.075
-482.391	-132.112	0.179	-0.023
-481.376	415.735	0.099	-0.211
-480.362	187.901	-0.076	-0.113
-479.347	-200.000	-0.045	0.225
-478.332	58.155	-0.081	0.079
-477.318	135.042	0.149	-0.192
-476.303	-167.003	-0.336	-0.014
-475.289	-62.358	-0.215	0.089
-474.274	-130.191	0.403	0.055
-473.259	67.213	-0.098	-0.100
-472.245	86.986	0.080	0.088
-471.230	111.159	-0.209	0.250
-470.216	-200.000	0.009	0.342
-469.201	213.582	-0.054	-0.084
-468.186	761.426	0.059	-0.158
-467.172	-86.632	0.315	0.096
-466.157	39.757	0.176	-0.157
-465.143	510.612	-0.068	-0.158
-464.128	102.060	-0.156	0.181
-463.113	-163.230	0.515	0.025
-462.099	-137.651	0.206	-0.023
-461.084	-200.000	-0.098	0.529
-460.070	-15.957	0.152	0.096
-459.055	34.384	0.185	0.161
-458.040	-200.000	-0.014	0.308
-457.026	72.877	0.158	0.164
-456.011	-3.596	0.186	-0.129
-454.997	-200.000	-0.067	-0.499
-453.982	-89.798	-0.201	0.058
-452.968	542.283	-0.030	0.071
-451.953	-200.000	-0.044	0.277
-450.938	9.796	0.038	-0.029
-449.924	800.000	0.085	-0.369
-448.909	-101.625	0.136	-0.033
-447.895	-200.000	0.059	-0.419
-446.880	36.938	0.060	-0.052
-445.865	-109.029	-0.058	0.012
-444.851	-61.988	0.204	0.084
-443.836	-118.190	-0.076	0.013
-442.822	-69.613	-0.287	0.109
-441.807	10.922	-0.247	-0.188
-440.792	-70.164	0.188	-0.071
-439.778	67.525	-0.195	-0.197
-438.763	-55.086	-0.249	0.111
-437.749	20.788	-0.187	0.150
-436.734	65.688	0.080	-0.080
-435.719	-54.604	-0.236	0.106
-434.705	-13.240	0.164	0.106
-433.690	-200.000	-0.016	0.240
-432.676	-55.947	0.190	0.084
-431.661	254.167	0.163	0.277
-430.646	170.981	-0.044	0.062
-429.632	-200.000	0.016	0.315
-428.617	-113.360	-0.228	0.044
-427.603	-200.000	0.005	0.032
-426.588	211.467	0.225	-0.351
-425.573	473.215	-0.046	-0.102
-424.559	-200.000	-0.023	-0.171
-423.544	-108.295	-0.019	-0.004
-422.530	-147.341	0.152	-0.013
-421.515	30.340	-0.067	0.057
-420.500	-73.928	0.146	0.053
-419.486	-200.000	-0.039	0.181
-418.471	-200.000	0.053	0.278
-417.457	27.228	-0.180	-0.150
-416.442	-122.158	0.104	-0.017
-415.428	18.122	0.133	-0.105
-414.413	-200.000	0.082	0.387
-413.398	-177.364	-0.115	0.003
-412.384	-68.529	0.066	-0.025
-411.369	-170.897	-0.288	0.010
-410.355	-200.000	0.046	0.311
-409.340	210.215	0.145	0.226
-408.325	49.834	0.036	-0.034
-407.311	356.125	0.056	0.112
-406.296	290.667	-0.166	0.300
-405.282	-111.630	0.105	-0.021
-404.267	33.309	0.151	0.130
-403.252	-200.000	-0.009	-0.136
-402.238	489.959	-0.068	0.153
-401.223	24.696	-0.119	0.097
-400.209	195.260	0.244	-0.367
-399.194	-137.195	0.189	-0.021
-398.179	-200.000	-0.051	0.239
-397.165	187.724	-0.071	0.105
-396.150	-200.000	-0.037	-0.454
-395.136	-101.879	0.178	0.043
-394.121	80.344	-0.216	-0.230
-393.106	231.905	-0.182	-0.296
-392.092	66.748	0.124	-0.125
-391.077	28.353	-0.158	0.132
-390.063	-72.050	0.158	-0.058
-389.048	-118.838	0.134	0.023
-388.033	-200.000	0.011	0.283
-387.019	800.000	0.037	-0.128
-386.004	-166.033	0.525	-0.022
-384.990	-63.834	-0.292	-0.118
-383.975	35.037	0.085	-0.074
-382.960	475.839	0.129	-0.290
-381.946	-200.000	0.038	0.370
-380.931	105.539	-0.116	-0.136
-379.917	-28.785	0.109	-0.062
-378.902	-200.000	0.046	-0.482
-377.888	-38.385	-0.342	-0.180
-376.873	-59.225	0.104	0.044
-375.858	-106.738	0.187	-0.041
-374.844	147.361	0.080	-0.107
-373.829	-200.000	0.003	0.278
-372.815	179.119	-0.175	0.254
-371.800	207.128	-0.055	0.085
-370.785	75.468	-0.131	-0.137
-369.771	-120.664	0.463	-0.077
-368.756	-84.550	-0.163	0.051
-367.742	280.004	-0.093	-0.164
-366.727	385.763	-0.016	0.033
-365.712	-83.301	-0.336	0.107
-364.698	-26.948	-0.281	0.163
-363.683	-70.038	0.328	0.124
-362.669	800.000	0.045	-0.160
-361.654	-0.293	-0.180	0.127
-360.639	772.420	-0.051	-0.137
-359.625	-113.295	0.352	0.068
-358.610	-30.129	0.344	-0.194
-357.596	-200.000	-0.010	-0.149
-356.581	277.929	-0.078	-0.137
-355.566	534.654	-0.126	-0.294
-354.552	-200.000	0.013	-0.098
-353.537	-44.591	0.180	-0.089
-352.523	362.239	-0.023	-0.045
-351.508	-106.915	-0.154	-0.034
-350.493	-155.528	-0.246	-0.016
-349.479	-200.000	0.001	-0.046
-348.464	-123.313	-0.393	-0.062
-347.450	131.904	0.092	0.118
-346.435	-133.928	0.319	0.039
-345.420	142.442	0.016	-0.021
-344.406	483.693	-0.101	-0.228
-343.391	125.118	-0.080	0.100
-342.377	800.000	-0.051	0.219
-341.362	-200.000	0.005	-0.116
-340.348	19.728	-0.034	-0.027
-339.333	-44.569	0.433	0.214
-338.318	172.451	0.165	0.234
-337.304	79.867	-0.155	0.164
-336.289	-42.006	0.264	-0.133
-335.275	342.680	0.104	-0.202
-334.260	-111.703	-0.240	-0.048
-333.245	800.000	0.060	0.178
-332.231	-16.867	0.100	-0.062
-331.216	800.000	0.061	0.230
-330.202	22.728	-0.039	-0.032
-329.187	-200.000	-0.009	0.093
-328.172	114.967	0.069	0.083
-327.158	-152.790	-0.128	0.009
-326.143	-200.000	0.061	-0.332
-325.129	-135.461	0.315	0.037
-324.114	522.163	0.170	0.394
-323.099	-200.000	0.037	-0.312
-322.085	655.998	0.112	-0.285
-321.070	-45.003	-0.114	0.056
-320.056	-87.114	0.184	-0.055
-319.041	-68.940	0.158	0.060
-318.026	-200.000	0.035	0.270
-317.012	-200.000	-0.023	-0.211
-315.997	-200.000	-0.011	-0.299
-314.983	800.000	0.164	0.541
-313.968	-99.564	0.182	-0.045
-312.953	-200.000	0.004	0.184
-311.939	249.094	0.107	-0.178
-310.924	311.024	-0.110	0.203
-309.910	256.909	0.220	-0.373
-308.895	526.601	-0.129	-0.300
-307.880	42.961	0.079	-0.071
-306.866	-200.000	0.026	-0.457
-305.851	15.246	0.047	-0.036
-304.837	105.091	-0.179	-0.208
-303.822	-79.144	-0.208	-0.070
-302.807	-200.000	0.003	0.018
-301.793	405.730	0.051	0.105
-300.778	-181.234	0.057	0.001
-299.764	-200.000	-0.025	0.122
-298.749	-83.620	-0.374	-0.118
-297.735	800.000	0.063	-0.174
-296.720	-121.195	0.264	0.044
-295.705	348.642	-0.065	-0.127
-294.691	800.000	-0.161	-0.460
-293.676	-100.443	0.052	-0.013
-292.662	-47.723	-0.268	-0.128
-291.647	-200.000	0.028	-0.396
-290.632	8.124	0.421	-0.312
-289.618	-90.379	-0.291	-0.083
-288.603	-200.000	0.002	-0.116
-287.589	26.149	-0.070	0.058
-286.574	-200.000	-0.020	-0.256
-285.559	-57.860	0.066	-0.028
-284.545	-87.854	0.108	-0.032
-283.530	-53.730	-0.153	-0.069
-282.516	-142.130	-0.140	0.014
-281.501	316.140	-0.082	-0.153
-280.486	129.163	-0.410	0.517
-279.472	22.370	-0.048	0.039
-278.457	-200.000	0.031	0.238
-277.443	15.067	0.079	-0.061
-276.428	23.496	0.168	-0.137
-275.413	-200.000	-0.011	0.184
-274.399	-115.108	-0.331	-0.062
-273.384	-122.218	0.301	-0.049
-272.370	12.730	-0.281	0.214
-271.355	-200.000	0.007	0.101
-270.340	-20.473	-0.090	0.054
-269.326	-200.000	-0.004	-0.082
-268.311	-200.000	-0.008	-0.115
-267.297	148.020	-0.170	-0.226
-266.282	125.104	-0.038	0.047
-265.267	67.424	-0.044	-0.045
-264.253	-108.397	-0.178	0.038
-263.238	-121.637	0.104	0.017
-262.224	800.000	-0.050	0.154
-261.209	122.360	0.207	0.255
-260.195	238.789	-0.081	0.132
-259.180	-138.414	0.176	-0.019
-258.165	-200.000	-0.010	0.142
-257.151	-70.449	0.102	0.038
-256.136	800.000	0.044	-0.153
-255.122	800.000	-0.088	0.285
-254.107	-20.228	0.130	0.079
-253.092	-200.000	0.029	-0.214
-252.078	-200.000	-0.011	0.105
-251.063	-82.194	-0.293	0.094
-250.049	-200.000	0.002	-0.151
-249.034	63.327	0.158	-0.156
-248.019	-143.352	-0.450	-0.042
-247.005	-127.768	0.177	-0.025
-245.990	-200.000	0.002	-0.224
-244.976	-138.853	0.140	-0.015
-243.961	-85.483	-0.188	0.058
-242.946	-200.000	-0.024	0.308
-241.932	50.442	-0.117	0.109
-240.917	142.462	0.218	-0.285
-239.903	792.388	-0.015	0.040
-238.888	-35.730	0.060	-0.032
-237.873	402.297	-0.158	-0.327
-236.859	-200.000	-0.036	-0.210
-235.844	172.549	-0.182	0.257
-234.830	-200.000	0.022	0.314
-233.815	-57.146	-0.464	0.201
-232.800	157.035	0.091	0.124
-231.786	-43.236	-0.304	0.151
-230.771	-50.833	0.178	-0.082
-229.757	259.131	0.228	-0.387
-228.742	-111.282	-0.026	-0.005
-227.727	-200.000	0.030	0.386
-226.713	82.540	-0.161	0.172
-225.698	800.000	-0.128	-0.426
-224.684	-200.000	0.055	0.242
-223.669	-200.000	0.055	-0.337
-222.655	-165.313	-0.295	0.013
-221.640	800.000	0.045	0.136
-220.625	433.087	-0.121	0.258
-219.611	-169.190	0.226	0.008
-218.596	-32.750	-0.203	-0.111
-217.582	150.968	-0.075	-0.100
-216.567	-200.000	0.007	-0.151
-215.552	13.210	-0.287	0.219
-214.538	-62.615	-0.162	0.066
-213.523	16.259	-0.250	0.194
-212.509	-137.801	0.136	0.015
-211.494	294.136	0.187	-0.337
-210.479	-61.435	-0.436	-0.180
-209.465	104.370	0.110	0.127
-208.450	159.202	0.279	0.382
-207.436	-110.462	0.173	0.035
-206.421	-144.019	0.369	-0.034
-205.406	-200.000	0.012	0.059
-204.392	57.795	0.168	-0.162
-203.377	800.000	-0.048	-0.172
-202.363	-200.000	0.054	-0.420
-201.348	-29.400	0.101	-0.057
-200.333	61.924	0.452	0.443
-199.319	614.551	-0.036	0.088
-198.304	507.548	0.204	0.466
-197.290	-200.000	0.009	-0.344
-196.275	-200.000	-0.028	-0.140
-195.260	-131.812	0.289	0.037
-194.246	486.555	0.036	0.080
-193.231	248.981	0.165	-0.274
-192.217	-123.839	-0.262	0.041
-191.202	69.976	0.145	0.147
-190.187	-86.011	0.281	-0.085
-189.173	-200.000	-0.010	0.048
-188.158	116.028	-0.111	0.133
-187.144	105.743	0.223	0.259
-186.129	-33.203	0.415	-0.226
-185.114	146.581	0.185	0.244
-184.100	483.914	-0.112	0.250
-183.085	102.331	-0.062	0.071
-182.071	800.000	-0.055	-0.152
-181.056	800.000	0.083	-0.282
-180.042	-14.978	-0.146	0.092
-179.027	800.000	0.108	0.298
-178.012	151.897	0.199	0.267
-176.998	-125.590	-0.240	-0.036
-175.983	-30.219	-0.360	0.201
-174.969	-169.890	-0.532	0.019
-173.954	76.145	0.268	0.279
-172.939	-82.561	-0.281	0.089
-171.925	-200.000	-0.032	-0.145
-170.910	-200.000	0.023	0.201
-169.896	-22.253	-0.176	-0.105
-168.881	5.113	0.236	0.171
-167.866	-34.957	0.122	0.065
-166.852	103.259	-0.150	-0.172
-165.837	-80.900	0.232	-0.076
-164.823	-200.000	0.033	0.314
-163.808	-46.116	-0.096	0.047
-162.793	-167.622	-0.306	-0.012
-161.779	-200.000	-0.024	-0.226
-160.764	-71.337	0.081	-0.030
-159.750	800.000	-0.041	0.160
-158.735	-57.638	-0.228	-0.098
-157.720	-20.674	-0.115	0.069
-156.706	-156.641	-0.260	0.016
-155.691	60.244	-0.149	0.145
-154.677	74.954	0.170	-0.176
-153.662	47.275	0.233	0.213
-152.647	316.592	-0.064	-0.118
-151.633	-89.157	0.108	-0.031
-150.618	-122.521	-0.095	-0.015
-149.604	96.390	0.157	-0.176
-148.589	-115.302	0.098	-0.018
-147.574	316.143	0.160	-0.296
-146.560	43.662	0.141	0.127
-145.545	-35.279	0.278	0.148
-144.531	800.000	0.088	0.364
-143.516	-200.000	-0.049	0.218
-142.502	-200.000	0.032	0.154
-141.487	33.870	-0.231	0.197
-140.472	526.964	-0.133	-0.308
-139.458	13.422	0.147	0.112
-138.443	-5.479	0.167	-0.112
-137.429	-109.219	0.165	-0.034
-136.414	-196.887	-0.312	-0.002
-135.399	-191.795	0.384	0.004
-134.385	74.112	-0.195	0.201
-133.370	-200.000	0.017	0.166
-132.356	2.763	-0.281	-0.200
-131.341	23.542	0.144	-0.116
-130.326	71.049	0.072	-0.073
-129.312	-135.592	0.281	0.033
-128.297	-91.957	0.045	-0.012
-127.283	87.585	-0.219	-0.238
-126.268	-79.911	0.065	-0.022
-125.253	269.966	-0.125	-0.216
-124.239	5.866	0.186	0.135
-123.224	71.714	0.196	-0.200
-122.210	271.016	-0.028	-0.049
-121.195	-59.456	0.408	-0.172
-120.180	-100.631	-0.374	0.091
-119.166	-200.000	0.015	0.120
-118.151	-117.424	-0.097	0.017
-117.137	734.116	0.005	0.012
-116.122	423.150	-0.096	-0.202
-115.107	-34.543	-0.452	0.242
-114.093	-48.508	0.307	0.145
-113.078	318.872	-0.139	-0.257
-112.064	341.568	0.106	0.204
-111.049	-200.000	-0.000	0.068
-110.034	421.090	-0.083	0.174
-109.020	-140.555	0.303	0.031
-108.005	-35.375	0.149	0.079
-106.991	-200.000	0.351	0.000
-105.976	-200.000	0.066	0.338
-104.962	-35.032	0.039	-0.021
-103.947	-10.766	-0.276	0.179
-102.932	-119.752	-0.064	-0.011
-101.918	-200.000	0.035	0.360
-100.903	221.188	0.120	0.189
-99.889	-10.590	-0.265	0.172
-98.874	59.737	-0.219	-0.211
-97.859	-109.897	0.236	-0.049
-96.845	-122.608	-0.414	0.066
-95.830	-200.000	-0.046	0.275
-94.816	-192.642	-0.098	0.001
-93.801	-180.612	-0.041	0.001
-92.786	-104.370	-0.176	0.040
-91.772	-173.811	0.222	0.006
-90.757	-51.459	0.290	0.133
-89.743	120.485	0.239	-0.291
-88.728	611.339	0.099	-0.242
-87.713	11.446	0.173	0.130
-86.699	800.000	0.073	0.282
-85.684	-148.524	0.136	0.011
-84.670	119.882	0.088	0.107
-83.655	-200.000	-0.021	0.104
-82.640	-177.074	0.091	0.002
-81.626	-200.000	-0.002	-0.032
-80.611	68.922	-0.024	-0.024
-79.597	176.762	0.177	-0.252
-78.582	-32.291	0.163	0.089
-77.567	164.616	-0.145	0.201
-76.553	247.134	-0.202	0.334
-75.538	111.811	0.223	0.263
-74.524	-150.383	-0.140	-0.011
-73.509	13.116	0.193	-0.146
-72.494	-200.000	-0.004	-0.104
-71.480	131.278	-0.019	0.024
-70.465	419.252	0.110	-0.229
-69.451	-200.000	0.013	0.386
-68.436	-42.853	-0.204	0.102
-67.422	283.151	0.169	0.297
-66.407	-146.000	0.223	0.019
-65.392	-79.306	0.179	0.059
-64.378	-77.423	-0.100	0.034
-63.363	305.642	-0.104	0.189
-62.349	-200.000	-0.036	-0.156
-61.334	45.697	-1.050	-0.949
-60.319	43.660	0.660	0.591
-59.305	597.926	-0.284	-0.688
-58.290	329.886	0.584	1.099
-57.276	307.177	0.820	1.494
-56.261	-200.000	110.676	643.769
-55.246	493.381	1483.432	3326.966
-54.232	150.672	2652.331	3524.146
-53.217	100.402	2268.816	2575.024
-52.203	37.572	1886.056	1636.306
-51.188	31.620	1678.630	1411.573
-50.173	29.180	1636.004	1357.715
-49.159	50.441	1690.393	1562.527
-48.144	50.462	1705.328	1576.428
-47.130	31.257	1664.732	1396.949
-46.115	28.486	1650.110	1364.041
-45.100	28.362	1645.037	1358.873
-44.086	28.287	1642.743	1356.371
-43.071	28.287	1639.712	1353.811
-42.057	28.265	1637.552	1351.811
-41.042	28.253	1635.639	1350.095
-40.027	28.321	1633.240	1348.557
-39.013	28.287	1631.632	1346.924
-37.998	28.185	1630.343	1345.063
-36.984	28.247	1629.254	1344.561
-35.969	28.290	1627.757	1343.591
-34.954	28.397	1625.839	1342.735
-33.940	28.356	1624.358	1341.161
-32.925	28.463	1621.938	1339.894
-31.911	28.407	1620.393	1338.152
-30.896	28.371	1619.248	1336.894
-29.881	28.366	1617.425	1335.299
-28.867	28.394	1615.759	1334.076
-27.852	28.401	1614.339	1332.897
-26.838	28.386	1612.954	1331.593
-25.823	28.421	1611.524	1330.614
-24.809	28.438	1610.017	1329.439
-23.794	28.471	1609.071	1328.847
-22.779	28.515	1607.633	1327.923
-21.765	28.422	1605.952	1325.809
-20.750	28.439	1603.578	1323.917
-19.736	28.497	1602.901	1323.731
-18.721	28.450	1602.044	1322.626
-17.706	28.507	1600.091	1321.375
-16.692	28.398	1598.869	1319.525
-15.677	28.470	1597.613	1318.956
-14.663	28.460	1596.046	1317.537
-13.648	28.465	1594.696	1316.408
-12.633	28.430	1593.388	1315.023
-11.619	28.370	1591.820	1313.245
-10.604	28.433	1590.857	1312.851
-9.590	28.487	1588.801	1311.490
-8.575	28.440	1587.908	1310.366
-7.560	28.472	1586.379	1309.278
-6.546	28.426	1585.653	1308.301
-5.531	28.497	1584.530	1307.826
-4.517	28.441	1583.697	1306.693
-3.502	28.507	1582.316	1305.972
-2.487	28.511	1580.439	1304.393
-1.473	28.148	1568.715	1292.107
-0.458	25.136	1549.470	1255.156
0.556	19.465	1550.005	1223.390
1.571	17.005	1573.348	1223.982
2.586	16.627	1585.207	1230.350
3.600	15.907	1534.573	1185.873
4.615	12.783	1437.321	1089.986
5.629	9.689	1382.282	1028.444
6.644	9.088	1375.018	1019.136
7.659	9.091	1373.777	1018.143
8.673	8.991	1373.337	1017.091
9.688	9.011	1370.530	1015.051
10.702	8.941	1367.240	1012.087
11.717	10.319	1369.848	1022.631
12.731	13.904	1376.246	1050.027
13.746	16.823	1380.429	1071.608
14.761	17.160	1379.779	1073.140
15.775	16.366	1376.977	1065.856
16.790	15.207	1374.982	1056.915
17.804	14.402	1372.062	1049.504
18.819	13.978	1370.856	1045.820
19.834	13.765	1369.232	1043.150
20.848	13.469	1368.628	1040.740
21.863	13.251	1367.162	1038.165
22.877	13.014	1365.953	1035.663
23.892	13.058	1364.379	1034.658
24.907	12.934	1364.248	1033.691
25.921	13.077	1363.544	1033.961
26.936	13.237	1361.985	1033.685
27.950	13.133	1361.811	1032.813
28.965	13.248	1359.917	1032.002
29.980	13.274	1359.062	1031.424
30.994	13.395	1357.651	1031.015
32.009	13.344	1356.598	1029.808
33.023	13.454	1355.331	1029.440
34.038	13.320	1353.803	1027.356
35.053	13.236	1352.956	1026.102
36.067	13.340	1351.507	1025.557
37.082	13.172	1350.760	1023.854
38.096	13.210	1350.319	1023.665
39.111	13.338	1348.797	1023.217
40.126	13.253	1347.994	1021.991
41.140	13.118	1347.189	1020.453
42.155	13.042	1346.936	1019.703
43.169	12.945	1346.781	1018.894
44.184	13.022	1346.211	1018.850
45.199	12.982	1345.975	1018.335
46.213	12.963	1345.749	1017.956
47.228	13.144	1344.311	1017.896
48.242	13.038	1343.097	1016.230
49.257	13.126	1341.444	1015.434
50.271	13.217	1339.974	1014.786
51.286	13.186	1338.487	1013.383
52.301	13.087	1337.790	1012.157
53.315	13.209	1336.443	1011.800
54.330	13.073	1335.514	1010.172
55.344	13.029	1334.532	1009.072
56.359	13.013	1333.103	1007.803
57.374	12.999	1332.660	1007.293
58.388	13.003	1331.460	1006.320
59.403	12.865	1331.670	1005.549
60.417	13.035	1330.196	1005.383
61.432	13.042	1329.170	1004.561
62.447	12.848	1328.626	1002.879
63.461	12.917	1327.280	1002.195
64.476	13.003	1326.151	1001.775
65.490	12.976	1325.068	1000.710
66.505	12.887	1323.621	998.986
67.520	12.959	1322.428	998.436
68.534	12.921	1321.603	997.491
69.549	12.997	1320.340	996.912
70.563	12.934	1319.357	995.699
71.578	12.850	1318.571	994.514
72.593	12.837	1317.794	993.758
73.607	12.809	1316.892	992.819
74.622	12.719	1316.546	991.931
75.636	12.894	1315.380	992.020
76.651	12.827	1315.022	991.259
77.666	12.798	1314.512	990.613
78.680	12.817	1313.758	990.068
79.695	12.937	1313.019	990.145
80.709	13.049	1312.069	990.014
81.724	13.050	1311.621	989.591
82.739	12.974	1310.409	988.137
83.753	13.174	1309.386	988.471
84.768	13.157	1308.301	987.466
85.782	13.196	1307.198	986.781
86.797	13.268	1306.246	986.405
87.812	13.150	1304.897	984.595
88.826	13.091	1303.598	983.176
89.841	13.053	1302.564	982.084
90.855	13.193	1302.102	982.480
91.870	13.231	1300.890	981.702
92.884	13.269	1299.780	981.006
93.899	13.312	1299.223	980.752
94.914	13.263	1298.660	979.951
95.928	13.342	1297.649	979.566
96.943	13.210	1297.030	978.230
97.957	13.254	1295.850	977.515
98.972	13.201	1294.567	976.152
99.987	13.142	1293.683	975.047
101.001	13.203	1293.049	974.843
102.016	13.243	1291.643	973.935
103.030	13.231	1290.607	972.993
104.045	13.189	1290.143	972.315
105.060	13.125	1288.992	970.982
106.074	13.038	1287.434	969.215
107.089	12.970	1286.075	967.703
108.103	12.949	1284.368	966.210
109.118	12.988	1283.253	965.513
110.133	12.963	1282.123	964.435
111.147	12.990	1280.694	963.431
112.162	12.981	1279.867	962.669
113.176	13.174	1278.294	962.528
114.191	13.121	1277.360	961.430
115.206	13.059	1276.330	960.212
116.220	13.080	1275.152	959.362
117.235	13.025	1273.915	958.028
118.249	13.132	1272.438	957.449
119.264	13.090	1271.690	956.559
120.279	12.934	1271.204	955.207
121.293	12.978	1269.878	954.381
122.308	13.007	1268.691	953.573
123.322	12.979	1267.957	952.774
124.337	12.996	1266.651	951.805
125.352	12.958	1265.529	950.662
126.366	12.900	1264.868	949.744
127.381	12.944	1263.363	948.781
128.395	12.948	1261.945	947.660
129.410	12.921	1261.652	947.200
130.424	13.002	1260.779	946.923
131.439	13.067	1259.850	946.513
132.454	13.041	1258.939	945.601
133.468	13.140	1257.857	945.269
134.483	13.020	1257.484	944.220
135.497	13.090	1255.889	943.336
136.512	13.061	1255.093	942.489
137.527	13.085	1253.334	941.221
138.541	13.120	1251.816	940.201
139.556	13.065	1250.820	939.057
140.570	13.181	1249.879	938.926
141.585	13.234	1248.694	938.251
142.600	13.186	1247.432	936.948
143.614	13.279	1246.479	936.678
144.629	13.319	1245.848	936.343
145.643	13.371	1244.306	935.400
146.658	13.344	1243.211	934.342
147.673	13.275	1241.781	932.794
148.687	13.185	1241.003	931.620
149.702	13.069	1239.669	929.882
150.716	13.126	1238.131	928.964
151.731	13.191	1236.758	928.217
152.746	13.177	1235.845	927.375
153.760	13.232	1234.619	926.681
154.775	13.310	1233.725	926.365
155.789	13.313	1232.692	925.523
156.804	13.374	1231.552	924.926
157.819	13.315	1230.420	923.665
158.833	13.550	1229.047	923.862
159.848	13.430	1228.734	922.878
160.862	13.494	1227.338	922.102
161.877	13.456	1226.299	921.032
162.892	13.229	1225.563	919.134
163.906	13.369	1224.127	918.750
164.921	13.288	1223.250	917.561
165.935	13.297	1222.352	916.859
166.950	13.359	1222.116	916.941
167.964	13.272	1221.308	915.772
168.979	13.408	1220.391	915.759
169.994	13.456	1219.578	915.336
171.008	13.351	1219.049	914.277
172.023	13.485	1217.763	913.967
173.037	13.509	1217.157	913.568
174.052	13.515	1216.028	912.672
175.067	13.377	1215.498	911.429
176.081	13.424	1213.629	910.207
177.096	13.370	1213.695	909.883
178.110	13.417	1212.462	909.134
179.125	13.515	1210.849	908.381
180.140	13.397	1210.081	907.079
181.154	13.586	1208.650	906.961
182.169	13.396	1208.027	905.370
183.183	13.593	1206.534	905.251
184.198	13.667	1205.069	904.472
185.213	13.586	1204.287	903.364
186.227	13.656	1203.384	902.988
187.242	13.668	1202.143	902.044
188.256	13.749	1200.976	901.530
189.271	13.712	1200.154	900.631
190.286	13.559	1199.421	899.170
191.300	13.474	1198.278	897.777
192.315	13.362	1197.500	896.502
193.329	13.359	1197.364	896.309
194.344	13.579	1196.160	896.516
195.359	13.549	1195.802	896.005
196.373	13.564	1195.533	895.804
197.388	13.634	1194.911	895.642
198.402	13.641	1194.541	895.321
199.417	13.906	1193.807	896.122
200.432	13.860	1192.915	895.124
201.446	13.874	1192.496	894.807
202.461	13.974	1191.294	894.367
203.475	13.978	1190.251	893.526
204.490	13.895	1188.893	891.979
205.504	13.740	1188.400	890.701
206.519	13.889	1186.823	890.238
207.534	13.885	1185.300	888.994
208.548	13.872	1184.679	888.382
209.563	13.751	1184.413	887.455
210.577	13.910	1182.753	886.982
211.592	13.853	1182.247	886.218
212.607	13.975	1181.646	886.341
213.621	13.922	1180.699	885.271
214.636	13.927	1179.460	884.289
215.650	13.967	1178.826	883.947
216.665	14.007	1177.832	883.340
217.680	13.962	1177.164	882.518
218.694	14.190	1176.006	882.786
219.709	14.149	1175.181	881.868
220.723	14.053	1174.507	880.778
221.738	14.119	1174.110	880.748
222.753	14.077	1173.477	879.978
223.767	14.175	1172.523	879.698
224.782	14.152	1171.658	878.849
225.796	14.228	1171.089	878.750
226.811	14.223	1170.315	878.064
227.826	14.177	1169.620	877.222
228.840	14.189	1168.723	876.537
229.855	14.210	1167.821	875.889
230.869	14.275	1167.170	875.669
231.884	14.204	1166.484	874.701
232.899	14.047	1166.289	873.651
233.913	14.148	1165.274	873.344
234.928	14.014	1164.243	871.793
235.942	14.182	1163.655	872.156
236.957	14.180	1162.623	871.295
237.972	14.156	1162.053	870.663
238.986	14.097	1161.655	869.979
240.001	14.113	1161.255	869.690
241.015	14.139	1159.822	868.677
242.030	14.257	1159.006	868.599
243.045	14.320	1158.199	868.248
244.059	14.223	1157.748	867.326
245.074	14.397	1156.539	867.250
246.088	14.329	1155.729	866.212
247.103	14.344	1155.616	866.131
248.117	14.469	1154.226	865.661
249.132	14.503	1154.092	865.658
250.147	14.609	1152.696	865.088
251.161	14.627	1152.426	864.900
252.176	14.590	1152.046	864.344
253.190	14.731	1150.954	864.180
254.205	14.698	1150.901	863.893
255.220	14.737	1149.983	863.329
256.234	14.751	1149.261	862.786
257.249	14.690	1148.619	861.913
258.263	14.801	1147.972	861.920
259.278	14.824	1147.318	861.473
260.293	14.816	1146.766	860.938
261.307	14.800	1146.552	860.621
262.322	14.812	1145.630	859.915
263.336	14.951	1144.684	859.843
264.351	14.928	1144.287	859.353
265.366	14.935	1143.841	858.974
266.380	14.859	1143.156	857.997
267.395	14.892	1141.957	857.190
268.409	14.971	1140.890	856.715
269.424	14.857	1140.831	856.015
270.439	14.921	1140.264	855.838
271.453	14.882	1139.244	854.799
272.468	14.878	1138.523	854.159
273.482	14.832	1137.952	853.420
274.497	14.883	1137.287	853.107
275.512	14.857	1136.767	852.511
276.526	14.936	1135.487	851.876
277.541	15.043	1134.626	851.699
278.555	14.888	1134.183	850.502
279.570	14.950	1133.476	850.214
280.585	15.032	1132.758	850.019
281.599	15.050	1131.813	849.324
282.614	14.995	1130.675	848.118
283.628	15.138	1129.705	848.036
284.643	15.030	1128.871	846.790
285.657	15.120	1128.248	846.701
286.672	15.100	1127.224	845.758
287.687	15.157	1126.167	845.179
288.701	15.096	1125.587	844.361
289.716	15.059	1124.776	843.490
290.730	15.101	1123.931	842.996
291.745	15.085	1123.296	842.364
292.760	15.195	1122.851	842.505
293.774	15.224	1122.360	842.209
294.789	15.246	1121.590	841.666
295.803	15.408	1120.379	841.496
296.818	15.267	1120.080	840.493
297.833	15.265	1119.504	839.974
298.847	15.175	1118.996	839.068
299.862	15.294	1117.830	838.714
300.876	15.263	1116.923	837.805
301.891	15.318	1116.910	837.994
302.906	15.331	1116.094	837.374
303.920	15.308	1115.603	836.816
304.935	15.483	1114.665	836.910
305.949	15.477	1114.205	836.461
306.964	15.514	1113.538	836.071
307.979	15.436	1112.781	835.044
308.993	15.482	1111.725	834.407
310.008	15.510	1110.878	833.833
311.022	15.608	1110.035	833.615
312.037	15.579	1109.411	832.927
313.052	15.513	1108.496	831.839
314.066	15.463	1107.438	830.724
315.081	15.419	1106.517	829.745
316.095	15.389	1106.031	829.157
317.110	15.466	1105.070	828.742
318.125	15.457	1104.384	828.110
319.139	15.457	1103.899	827.675
320.154	15.410	1103.097	826.770
321.168	15.593	1102.309	827.006
322.183	15.518	1102.111	826.417
323.197	15.471	1101.172	825.404
324.212	15.487	1100.785	825.122
325.227	15.492	1100.515	824.869
326.241	15.563	1099.590	824.454
327.256	15.541	1098.864	823.729
328.270	15.465	1098.079	822.693
329.285	15.591	1096.904	822.357
330.300	15.450	1096.220	821.082
331.314	15.576	1094.685	820.477
332.329	15.583	1094.502	820.302
333.343	15.616	1093.181	819.400
334.358	15.638	1092.196	818.693
335.373	15.696	1091.988	818.747
336.387	15.707	1091.155	818.104
337.402	15.679	1090.641	817.512
338.416	15.939	1089.275	817.679
339.431	15.819	1088.971	816.793
340.446	15.928	1088.494	816.892
341.460	15.921	1087.652	816.156
342.475	15.945	1086.948	815.671
343.489	15.948	1086.015	814.915
344.504	16.122	1085.136	815.020
345.519	16.170	1084.075	814.385
346.533	16.118	1083.304	813.481
347.548	16.127	1082.682	812.989
348.562	16.062	1081.917	812.030
349.577	16.060	1081.020	811.273
350.592	15.930	1080.752	810.376
351.606	15.917	1079.497	809.300
352.621	15.945	1079.247	809.173
353.635	16.022	1077.965	808.512
354.650	15.985	1077.858	808.182
355.665	16.081	1076.894	807.847
356.679	16.106	1076.615	807.689
357.694	16.092	1075.849	806.973
358.708	16.072	1075.268	806.371
359.723	16.021	1074.817	805.718
360.738	16.057	1074.165	805.329
361.752	16.074	1073.750	805.029
362.767	16.099	1073.008	804.521
363.781	16.072	1072.364	803.838
364.796	16.248	1071.609	804.041
365.810	16.091	1071.249	802.951
366.825	16.240	1070.496	803.022
367.840	16.314	1070.113	803.016
368.854	16.400	1069.863	803.167
369.869	16.394	1068.739	802.224
370.883	16.293	1067.956	801.088
371.898	16.369	1067.337	800.910
372.913	16.451	1066.572	800.656
373.927	16.342	1066.173	799.770
374.942	16.414	1065.574	799.587
375.956	16.493	1065.117	799.548
376.971	16.415	1064.709	798.805
377.986	16.450	1063.971	798.343
379.000	16.552	1063.385	798.315
380.015	16.698	1062.847	798.528
381.029	16.597	1062.272	797.552
382.044	16.602	1061.248	796.735
383.059	16.679	1060.682	796.600
384.073	16.550	1059.895	795.331
385.088	16.594	1059.263	794.995
386.102	16.600	1058.284	794.220
387.117	16.624	1056.893	793.217
388.132	16.534	1056.207	792.211
389.146	16.531	1055.376	791.503
390.161	16.603	1054.660	791.233
391.175	16.642	1053.739	790.655
392.190	16.689	1053.369	790.526
393.205	16.738	1052.633	790.134
394.219	16.756	1051.923	789.614
395.234	16.685	1051.087	788.584
396.248	16.683	1049.733	787.489
397.263	16.684	1048.699	786.650
398.278	16.645	1048.462	786.222
399.292	16.601	1047.460	785.196
400.307	16.579	1046.913	784.613
401.321	16.570	1046.666	784.319
402.336	16.626	1045.643	783.743
403.350	16.606	1045.265	783.297
404.365	16.655	1044.519	782.897
405.380	16.663	1043.768	782.301
406.394	16.781	1042.825	782.070
407.409	16.848	1041.904	781.615
408.423	16.940	1041.306	781.522
409.438	16.951	1040.797	781.122
410.453	17.061	1039.923	780.904
411.467	17.052	1039.202	780.252
412.482	17.045	1038.734	779.799
413.496	17.081	1038.021	779.362
414.511	17.096	1037.766	779.167
415.526	17.202	1037.277	779.219
416.540	17.192	1036.655	778.636
417.555	17.160	1036.062	777.975
418.569	17.086	1035.702	777.298
419.584	17.081	1035.242	776.860
420.599	17.188	1034.833	776.973
421.613	104.448	1324.759	1476.269
422.628	95.688	1366.969	1476.366
