DTS Sentinel unit serial number:	SN413079Multiplexer serial number:	ORYXHardware model number:	OX4-SRSoftware version number:	ORYX F/W v4.00 Oryx Data Collector v3.7.2.0data status	okinstallation	princeton_trtdifferential loss correction	single-endedforward channel	channel 2reverse channel	N/Adate	2019/09/12time	23:55:35forward acquisition time	60.00reverse acquisition time	0.00gamma	496.2192k internal	0.2332k external	0.2332temperature offset calibration	1.0180default loss term (dB/km)	0.3790temperature slope calibration	1.0000multiplexer offset coefficient	1.0000multiplexer slope coefficient	1.0000fibre end	0.00T internal ref (°C)	28.69T ext. ref 1 (°C)	3.80T ext. ref 2 (°C)	23.43length (m)	temperature (°C)	Stokes	anti-Stokes-747.200	800.000	0.048	-0.150
-746.185	-30.971	-0.329	-0.187
-745.171	-63.321	-0.251	0.104
-744.156	183.308	0.232	0.345
-743.142	800.000	0.038	0.129
-742.127	-200.000	-0.010	0.066
-741.112	-200.000	0.001	0.111
-740.098	413.038	0.178	0.380
-739.083	-17.782	0.341	0.215
-738.069	800.000	-0.122	0.482
-737.054	439.786	0.163	-0.358
-736.039	185.824	-0.087	0.130
-735.025	800.000	-0.017	-0.066
-734.010	-200.000	0.034	-0.189
-732.996	-102.292	-0.188	0.045
-731.981	109.589	-0.042	0.050
-730.966	-144.013	0.232	-0.022
-729.952	800.000	-0.095	0.279
-728.937	-136.659	-0.113	0.013
-727.923	144.591	-0.286	-0.384
-726.908	108.045	-0.078	0.093
-725.894	-82.336	-0.180	-0.059
-724.879	800.000	-0.055	-0.192
-723.864	-1.022	0.243	-0.173
-722.850	-90.287	-0.358	-0.105
-721.835	-63.394	-0.189	0.078
-720.821	-200.000	-0.043	-0.262
-719.806	214.017	-0.169	0.269
-718.791	62.495	-0.239	0.240
-717.777	-100.550	-0.211	0.052
-716.762	-19.002	-0.173	-0.108
-715.748	-24.396	-0.257	-0.154
-714.733	-123.852	-0.172	-0.027
-713.718	45.492	-0.059	-0.055
-712.704	-130.919	-0.218	0.029
-711.689	77.103	0.214	0.229
-710.675	-131.737	-0.077	0.010
-709.660	229.350	-0.218	-0.358
-708.645	800.000	-0.037	-0.127
-707.631	-200.000	0.000	-0.102
-706.616	97.446	0.090	0.104
-705.602	800.000	0.011	-0.042
-704.587	-46.964	0.290	-0.142
-703.572	-62.482	0.371	-0.155
-702.558	172.600	0.066	-0.096
-701.543	-44.660	0.219	0.110
-700.529	-27.461	-0.351	-0.205
-699.514	13.768	-0.154	-0.120
-698.499	144.625	0.131	-0.175
-697.485	800.000	-0.110	-0.419
-696.470	800.000	0.098	0.322
-695.456	-200.000	-0.061	-0.312
-694.441	264.996	0.045	0.078
-693.426	-63.109	-0.290	-0.120
-692.412	-63.780	-0.168	-0.069
-691.397	-141.006	-0.303	-0.031
-690.383	-75.399	-0.069	0.025
-689.368	800.000	-0.061	0.203
-688.354	-181.174	0.399	0.008
-687.339	-200.000	0.007	0.093
-686.324	242.495	0.080	0.135
-685.310	-200.000	-0.012	-0.110
-684.295	525.461	-0.111	-0.262
-683.281	-200.000	-0.047	-0.352
-682.266	88.717	0.153	0.171
-681.251	-78.783	-0.264	0.090
-680.237	365.508	0.057	-0.115
-679.222	-127.255	-0.264	-0.039
-678.208	-79.562	-0.180	0.061
-677.193	272.525	-0.160	-0.283
-676.178	-173.222	-0.404	-0.012
-675.164	146.510	0.108	0.146
-674.149	800.000	0.051	0.148
-673.135	-6.841	-0.079	-0.054
-672.120	800.000	-0.087	-0.376
-671.105	-28.328	0.266	-0.154
-670.091	53.782	0.103	0.099
-669.076	184.023	-0.073	0.108
-668.062	63.953	-0.162	-0.163
-667.047	-200.000	0.014	-0.161
-666.032	800.000	-0.027	-0.092
-665.018	800.000	0.060	-0.234
-664.003	323.182	-0.029	0.056
-662.989	-187.458	0.455	0.006
-661.974	-181.392	0.141	0.003
-660.959	800.000	0.022	-0.080
-659.945	329.594	-0.053	0.102
-658.930	800.000	-0.017	0.068
-657.916	31.489	0.117	-0.101
-656.901	114.666	-0.195	0.238
-655.886	800.000	0.017	-0.071
-654.872	-160.224	-0.238	-0.013
-653.857	-66.236	-0.126	-0.050
-652.843	36.692	-0.094	-0.083
-651.828	-200.000	0.004	-0.341
-650.814	-13.528	-0.293	0.191
-649.799	103.271	0.168	0.198
-648.784	2.313	0.301	0.218
-647.770	104.516	-0.087	-0.102
-646.755	-31.271	-0.403	0.227
-645.741	83.495	-0.353	0.386
-644.726	-99.588	0.090	0.023
-643.711	299.450	0.231	-0.426
-642.697	370.978	0.069	0.141
-641.682	2.565	0.195	-0.142
-640.668	-200.000	0.020	0.171
-639.653	-182.665	0.133	-0.002
-638.638	-200.000	0.032	0.385
-637.624	11.246	-0.233	0.178
-636.609	153.865	0.026	-0.036
-635.595	143.750	0.085	0.113
-634.580	48.050	-0.061	0.058
-633.565	800.000	-0.111	-0.377
-632.551	-200.000	-0.003	0.019
-631.536	-113.049	-0.203	0.040
-630.522	800.000	-0.094	0.285
-629.507	-69.986	-0.284	-0.108
-628.492	-40.046	0.081	-0.042
-627.478	79.086	-0.032	0.034
-626.463	311.407	0.121	0.228
-625.449	-200.000	0.008	0.040
-624.434	90.510	-0.350	-0.392
-623.419	-200.000	-0.017	-0.141
-622.405	114.002	-0.151	-0.184
-621.390	-16.875	-0.568	0.359
-620.376	-200.000	-0.014	-0.133
-619.361	384.501	0.101	0.208
-618.346	-36.185	-0.268	0.145
-617.332	-200.000	0.005	-0.083
-616.317	238.083	-0.230	-0.382
-615.303	125.341	0.092	-0.117
-614.288	71.989	-0.228	0.237
-613.273	607.246	-0.035	0.086
-612.259	-87.220	0.271	0.082
-611.244	621.628	-0.118	-0.297
-610.230	-200.000	-0.032	-0.244
-609.215	-197.193	0.148	-0.001
-608.201	122.858	0.104	0.131
-607.186	520.493	0.053	0.124
-606.171	126.880	-0.035	-0.044
-605.157	-200.000	0.005	-0.072
-604.142	800.000	0.016	-0.062
-603.128	36.818	-0.073	-0.064
-602.113	800.000	0.071	0.224
-601.098	-50.185	0.601	0.285
-600.084	790.755	-0.072	-0.198
-599.069	358.920	0.062	0.123
-598.055	800.000	0.068	0.212
-597.040	722.235	0.057	0.153
-596.025	-148.803	0.187	-0.015
-595.011	141.066	0.117	0.154
-593.996	-119.638	0.108	-0.019
-592.982	-9.770	-0.233	0.155
-591.967	637.561	0.118	0.300
-590.952	-200.000	0.002	-0.115
-589.938	-0.121	-0.144	0.103
-588.923	800.000	-0.024	0.096
-587.909	-200.000	-0.018	-0.127
-586.894	99.694	0.191	0.221
-585.879	-36.105	-0.024	-0.013
-584.865	-168.851	0.386	0.015
-583.850	-17.210	0.055	0.035
-582.836	800.000	-0.107	-0.328
-581.821	-123.437	-0.152	-0.024
-580.806	194.350	0.061	-0.093
-579.792	116.349	-0.114	-0.139
-578.777	-1.201	-0.127	-0.090
-577.763	71.566	-0.151	0.156
-576.748	-79.116	0.040	0.014
-575.733	-48.742	-0.354	0.170
-574.719	-48.317	-0.117	0.057
-573.704	32.918	-0.285	0.247
-572.690	-95.423	0.390	0.105
-571.675	35.714	0.177	-0.155
-570.661	297.045	-0.082	-0.150
-569.646	-63.929	0.384	0.157
-568.631	-52.988	-0.298	0.137
-567.617	-200.000	-0.052	-0.450
-566.602	76.927	0.167	-0.177
-565.588	-25.659	-0.244	-0.144
-564.573	450.876	-0.044	-0.096
-563.558	-23.207	0.089	-0.053
-562.544	-84.285	-0.154	-0.049
-561.529	-200.000	0.015	0.102
-560.515	416.452	-0.044	0.093
-559.500	800.000	-0.140	0.401
-558.485	-200.000	0.000	-0.110
-557.471	-72.742	-0.305	0.112
-556.456	-62.899	-0.164	-0.068
-555.442	-43.554	-0.059	-0.030
-554.427	-57.152	0.181	0.080
-553.412	-200.000	-0.067	0.452
-552.398	800.000	0.065	-0.229
-551.383	-66.138	-0.217	0.086
-550.369	72.846	0.173	0.180
-549.354	-200.000	-0.031	-0.250
-548.339	-157.036	0.206	-0.013
-547.325	100.185	-0.185	0.214
-546.310	800.000	0.065	-0.242
-545.296	800.000	0.054	-0.196
-544.281	-60.744	-0.062	0.026
-543.266	54.955	-0.262	-0.253
-542.252	261.718	-0.141	0.244
-541.237	118.791	0.127	0.157
-540.223	-32.956	0.295	-0.163
-539.208	800.000	-0.103	0.318
-538.193	28.053	0.115	-0.097
-537.179	240.945	0.195	-0.325
-536.164	-91.993	-0.254	0.072
-535.150	83.526	-0.070	-0.076
-534.135	70.137	0.130	-0.133
-533.121	35.122	0.339	0.297
-532.106	-54.720	0.295	-0.133
-531.091	-200.000	-0.015	0.276
-530.077	58.807	0.142	-0.139
-529.062	-113.694	0.218	0.042
-528.048	-200.000	-0.003	0.142
-527.033	-200.000	-0.038	-0.274
-526.018	-77.782	-0.026	0.009
-525.004	113.881	-0.191	-0.232
-523.989	277.342	0.057	-0.101
-522.975	-72.984	-0.250	-0.092
-521.960	-53.476	0.198	0.090
-520.945	31.143	-0.137	-0.118
-519.931	409.561	0.128	0.270
-518.916	-113.748	0.311	0.060
-517.902	-200.000	-0.029	0.198
-516.887	134.115	-0.075	0.096
-515.872	74.960	-0.102	0.107
-514.858	-15.191	-0.102	-0.065
-513.843	227.730	0.113	-0.184
-512.829	553.114	-0.137	-0.329
-511.814	800.000	-0.025	0.098
-510.799	2.967	-0.081	-0.058
-509.785	-63.290	-0.082	0.034
-508.770	-116.362	0.088	-0.016
-507.756	104.390	-0.118	-0.138
-506.741	-68.499	0.210	0.081
-505.726	-200.000	-0.080	0.394
-504.712	800.000	-0.041	0.120
-503.697	-200.000	-0.002	-0.062
-502.683	-47.720	-0.516	0.249
-501.668	-151.614	-0.548	0.040
-500.653	275.770	0.182	-0.322
-499.639	2.388	-0.176	-0.127
-498.624	230.258	0.224	-0.366
-497.610	-200.000	0.060	-0.311
-496.595	-200.000	0.042	-0.200
-495.581	26.688	0.161	-0.134
-494.566	-47.413	0.308	-0.149
-493.551	86.888	-0.124	-0.136
-492.537	30.371	-0.139	0.118
-491.522	-129.817	0.259	0.035
-490.508	-28.003	0.172	0.099
-489.493	-200.000	-0.032	0.000
-488.478	343.694	0.088	-0.172
-487.464	-200.000	-0.021	0.284
-486.449	-83.826	0.283	-0.090
-485.435	-99.272	0.138	-0.035
-484.420	-200.000	-0.060	0.301
-483.405	-146.755	-0.175	0.015
-482.391	-23.013	-0.420	0.252
-481.376	800.000	0.047	-0.178
-480.362	-27.429	-0.112	0.065
-479.347	204.457	-0.024	0.037
-478.332	-200.000	0.033	-0.164
-477.318	-200.000	0.027	0.317
-476.303	-162.580	-0.164	0.008
-475.289	800.000	0.060	-0.255
-474.274	148.250	-0.075	-0.101
-473.259	96.402	-0.196	-0.223
-472.245	261.979	0.116	0.200
-471.230	25.858	-0.089	0.074
-470.216	-200.000	-0.014	-0.387
-469.201	-113.900	0.198	-0.038
-468.186	29.917	-0.151	0.128
-467.172	-28.309	-0.175	0.101
-466.157	-200.000	-0.091	-0.463
-465.143	-105.583	-0.366	-0.082
-464.128	800.000	-0.060	-0.220
-463.113	-200.000	-0.023	0.209
-462.099	-200.000	0.008	0.088
-461.084	-9.184	0.299	-0.199
-460.070	-200.000	0.021	-0.179
-459.055	-77.405	-0.268	0.092
-458.040	377.073	0.111	0.225
-457.026	571.460	0.107	-0.260
-456.011	15.444	0.142	-0.111
-454.997	-17.686	-0.160	-0.100
-453.982	800.000	0.059	0.162
-452.968	-74.316	-0.087	0.031
-451.953	299.495	-0.137	-0.252
-450.938	-22.456	-0.102	0.061
-449.924	-200.000	-0.024	0.118
-448.909	-127.313	-0.120	0.017
-447.895	-102.320	-0.430	0.103
-446.880	-99.302	-0.286	-0.072
-445.865	-200.000	-0.022	0.411
-444.851	-146.106	0.297	-0.026
-443.836	-200.000	0.025	-0.261
-442.822	346.901	0.046	0.090
-441.807	184.403	-0.057	0.085
-440.792	312.990	-0.114	0.214
-439.778	800.000	0.041	-0.160
-438.763	792.778	0.117	0.320
-437.749	-200.000	0.044	0.223
-436.734	-69.498	-0.247	-0.094
-435.719	50.418	-0.448	-0.421
-434.705	214.842	0.136	-0.214
-433.690	-37.216	-0.246	0.131
-432.676	-200.000	0.040	-0.212
-431.661	-20.394	-0.228	-0.139
-430.646	-22.230	0.208	-0.125
-429.632	-79.074	0.226	-0.076
-428.617	-126.861	0.149	-0.022
-427.603	-69.053	-0.119	-0.046
-426.588	167.819	-0.095	0.135
-425.573	-168.630	0.300	0.011
-424.559	163.568	0.150	-0.209
-423.544	77.502	0.253	0.267
-422.530	96.278	0.184	-0.209
-421.515	800.000	0.043	-0.132
-420.500	800.000	0.086	-0.293
-419.486	230.414	-0.145	0.236
-418.471	-53.048	0.376	-0.172
-417.457	204.949	0.158	0.244
-416.442	800.000	-0.114	0.408
-415.428	-18.274	-0.123	0.077
-414.413	-37.769	-0.371	-0.196
-413.398	102.469	0.095	0.110
-412.384	-200.000	-0.012	-0.146
-411.369	143.943	-0.115	0.152
-410.355	310.383	-0.047	-0.088
-409.340	553.146	-0.052	0.125
-408.325	-113.087	-0.194	-0.038
-407.311	182.672	0.107	-0.157
-406.296	364.829	0.069	-0.138
-405.282	-135.486	-0.155	-0.018
-404.267	-118.511	0.291	0.051
-403.252	-57.338	0.471	-0.205
-402.238	253.067	-0.085	0.143
-401.223	-67.311	-0.191	-0.075
-400.209	800.000	-0.086	0.287
-399.194	49.589	0.267	0.250
-398.179	769.100	-0.117	0.317
-397.165	-200.000	-0.040	-0.375
-396.150	-200.000	-0.063	0.297
-395.136	375.809	0.166	0.336
-394.121	-200.000	-0.014	0.068
-393.106	-200.000	0.023	-0.310
-392.092	150.507	-0.045	-0.060
-391.077	-122.729	0.091	0.015
-390.063	800.000	0.031	-0.121
-389.048	-36.832	0.372	0.198
-388.033	75.469	0.306	-0.320
-387.019	0.672	0.279	-0.198
-386.004	-43.010	-0.189	0.095
-384.990	96.586	-0.019	0.022
-383.975	-28.458	-0.322	0.184
-382.960	-88.239	0.319	-0.095
-381.946	170.541	0.094	-0.134
-380.931	159.949	0.208	-0.287
-379.917	-77.817	0.165	0.057
-378.902	-93.776	0.126	0.034
-377.888	-171.155	-0.440	-0.015
-376.873	-42.518	0.273	0.138
-375.858	-43.923	0.135	-0.067
-374.844	484.131	-0.076	-0.171
-373.829	-200.000	-0.003	-0.043
-372.815	-120.434	-0.122	-0.021
-371.800	-132.728	-0.284	0.036
-370.785	-200.000	0.076	-0.363
-369.771	409.913	-0.096	-0.202
-368.756	-65.058	0.153	-0.061
-367.742	37.437	-0.316	0.278
-366.727	109.795	0.136	-0.161
-365.712	-61.127	-0.198	-0.083
-364.698	466.122	-0.052	0.116
-363.683	441.715	0.045	0.098
-362.669	-33.336	0.169	-0.092
-361.654	103.477	0.167	-0.194
-360.639	20.918	0.220	-0.176
-359.625	-14.049	-0.160	0.102
-358.610	-19.663	-0.173	-0.106
-357.596	108.225	-0.100	-0.118
-356.581	144.158	-0.099	0.130
-355.566	6.797	0.257	0.190
-354.552	-113.707	-0.248	0.048
-353.537	-174.601	0.414	0.012
-352.523	-101.550	0.099	-0.024
-351.508	133.759	-0.091	-0.117
-350.493	-44.649	-0.069	-0.034
-349.479	336.085	-0.063	-0.120
-348.464	-71.324	-0.375	0.139
-347.450	-138.364	-0.139	0.015
-346.435	-200.000	0.029	0.274
-345.420	-200.000	0.006	-0.247
-344.406	-37.583	-0.132	0.070
-343.391	800.000	-0.097	-0.338
-342.377	42.233	0.341	0.307
-341.362	148.573	-0.174	-0.232
-340.348	-31.823	-0.192	0.107
-339.333	17.200	0.369	0.290
-338.318	-200.000	-0.037	0.251
-337.304	-106.776	0.115	-0.025
-336.289	-64.411	0.123	-0.050
-335.275	72.259	0.084	0.086
-334.260	230.016	-0.088	-0.142
-333.245	800.000	-0.016	0.058
-332.231	-1.697	0.108	0.075
-331.216	-96.536	0.085	0.022
-330.202	-200.000	-0.025	-0.231
-329.187	800.000	0.150	-0.425
-328.172	152.508	-0.334	-0.451
-327.158	-156.235	0.442	-0.028
-326.143	414.054	0.064	0.135
-325.129	29.476	0.240	0.202
-324.114	47.391	0.209	0.193
-323.099	-23.428	-0.195	-0.116
-322.085	-162.467	-0.103	-0.005
-321.070	-70.212	0.327	0.123
-320.056	-17.108	-0.207	0.129
-319.041	342.839	-0.094	-0.182
-318.026	160.926	-0.177	-0.245
-317.012	80.289	0.054	0.058
-315.997	496.442	0.045	-0.103
-314.983	-23.760	0.156	-0.092
-313.968	706.122	0.062	-0.162
-312.953	-134.283	0.258	0.031
-311.939	-200.000	-0.012	-0.145
-310.924	52.254	-0.185	-0.175
-309.910	-149.899	0.142	-0.011
-308.895	140.706	-0.150	0.197
-307.880	-26.697	0.239	-0.138
-306.866	596.008	0.104	-0.255
-305.851	442.555	0.144	-0.313
-304.837	-46.499	0.168	-0.081
-303.822	-143.201	-0.136	-0.013
-302.807	38.920	-0.013	0.012
-301.793	719.290	-0.076	-0.199
-300.778	204.796	-0.153	0.235
-299.764	-162.893	-0.078	0.004
-298.749	-67.231	-0.289	-0.112
-297.735	-44.666	0.121	0.060
-296.720	-200.000	0.012	-0.071
-295.705	800.000	-0.036	-0.105
-294.691	-72.978	-0.101	0.037
-293.676	12.692	0.062	0.047
-292.662	-76.762	-0.282	0.098
-291.647	152.485	-0.077	-0.104
-290.632	-133.200	-0.253	0.032
-289.618	165.702	0.039	-0.054
-288.603	-200.000	0.013	0.284
-287.589	349.476	-0.099	-0.192
-286.574	800.000	0.068	0.249
-285.559	800.000	0.081	0.244
-284.545	34.239	0.274	0.236
-283.530	-200.000	-0.001	-0.245
-282.516	-88.088	-0.531	-0.157
-281.501	78.435	0.186	0.197
-280.486	774.912	-0.020	-0.054
-279.472	315.904	0.109	0.204
-278.457	229.381	0.124	0.199
-277.443	-104.229	0.218	0.050
-276.428	648.163	0.076	0.191
-275.413	-119.719	-0.377	-0.064
-274.399	20.034	-0.217	0.173
-273.384	-200.000	0.079	0.427
-272.370	800.000	-0.055	-0.198
-271.355	-200.000	0.063	0.340
-270.340	132.871	0.201	0.257
-269.326	91.641	0.263	0.292
-268.311	-57.875	-0.203	-0.088
-267.297	-45.722	0.201	-0.098
-266.282	-61.768	-0.280	-0.116
-265.267	16.256	-0.219	-0.171
-264.253	435.068	-0.073	0.158
-263.238	-23.388	-0.139	0.083
-262.224	-142.873	-0.362	0.035
-261.209	10.224	0.280	-0.210
-260.195	115.057	-0.032	0.038
-259.180	800.000	-0.035	-0.118
-258.165	27.779	0.056	0.046
-257.151	114.113	0.219	-0.263
-256.136	234.266	-0.173	-0.281
-255.122	800.000	0.096	-0.346
-254.107	142.502	0.026	0.034
-253.092	-95.990	0.111	0.029
-252.078	-57.559	0.277	0.120
-251.063	-131.356	0.115	0.015
-250.049	-38.557	-0.060	0.031
-249.034	3.300	-0.052	0.038
-248.019	122.216	-0.274	0.338
-247.005	371.607	0.159	-0.318
-245.990	179.876	-0.141	0.204
-244.976	11.037	-0.186	-0.140
-243.961	-170.756	-0.168	-0.006
-242.946	-108.768	-0.239	0.051
-241.932	-105.485	-0.228	0.051
-240.917	800.000	-0.078	-0.258
-239.903	410.703	-0.103	0.215
-238.888	-72.128	0.555	0.203
-237.873	118.365	0.113	0.138
-236.859	291.247	0.035	0.062
-235.844	-137.461	0.086	-0.010
-234.830	-11.927	0.169	0.109
-233.815	-85.230	0.311	0.096
-232.800	103.037	-0.104	-0.120
-231.786	-14.120	-0.176	0.112
-230.771	-200.000	0.002	-0.080
-229.757	-200.000	-0.002	-0.124
-228.742	66.628	-0.138	0.139
-227.727	-76.269	-0.035	-0.012
-226.713	800.000	-0.161	0.517
-225.698	776.521	-0.099	0.267
-224.684	-200.000	0.006	0.105
-223.669	-127.928	-0.386	-0.055
-222.655	253.861	-0.039	-0.066
-221.640	-12.466	0.294	0.189
-220.625	800.000	-0.040	-0.140
-219.611	185.057	-0.152	-0.223
-218.596	-90.455	0.152	0.044
-217.582	-124.511	0.490	0.075
-216.567	-88.293	-0.203	-0.060
-215.552	-171.768	0.263	-0.009
-214.538	159.967	0.292	0.400
-213.523	-19.675	-0.308	-0.188
-212.509	62.041	0.167	-0.164
-211.494	-62.279	0.381	-0.156
-210.479	-75.817	0.218	-0.076
-209.465	-200.000	0.017	-0.173
-208.450	-42.775	-0.274	-0.137
-207.436	41.650	-0.107	-0.096
-206.421	800.000	-0.063	0.258
-205.406	51.610	-0.228	0.214
-204.392	302.109	0.192	-0.349
-203.377	40.458	0.220	-0.195
-202.363	-103.003	-0.273	0.064
-201.348	800.000	-0.042	0.128
-200.333	452.242	0.089	-0.195
-199.319	176.096	0.120	0.172
-198.304	117.723	0.267	0.323
-197.290	800.000	-0.105	-0.300
-196.275	-119.185	0.423	-0.073
-195.260	-200.000	-0.022	-0.102
-194.246	-158.029	-0.152	0.009
-193.231	-200.000	0.045	0.326
-192.217	-167.187	-0.479	-0.019
-191.202	40.863	0.359	-0.319
-190.187	-44.869	0.239	-0.117
-189.173	6.266	0.141	-0.103
-188.158	-14.046	0.255	0.162
-187.144	477.644	0.020	0.045
-186.129	571.160	0.068	-0.163
-185.114	-54.635	-0.303	0.135
-184.100	18.717	-0.330	0.260
-183.085	-200.000	-0.038	0.408
-182.071	-83.020	0.156	0.049
-181.056	-148.331	0.423	-0.034
-180.042	-98.886	-0.179	0.045
-179.027	800.000	0.062	-0.171
-178.012	285.603	-0.158	0.281
-176.998	-200.000	-0.009	0.172
-175.983	54.366	0.135	-0.128
-174.969	325.600	-0.135	-0.253
-173.954	195.553	0.050	-0.074
-172.939	416.063	0.139	-0.293
-171.925	-64.985	0.315	-0.125
-170.910	182.147	-0.035	0.051
-169.896	509.983	-0.070	-0.159
-168.881	-200.000	0.048	-0.231
-167.866	-200.000	0.043	-0.272
-166.852	-131.102	0.212	-0.028
-165.837	23.273	-0.167	0.135
-164.823	-170.720	0.305	0.010
-163.808	-200.000	-0.002	0.027
-162.793	800.000	0.035	0.144
-161.779	78.644	-0.158	0.166
-160.764	-109.000	0.195	0.041
-159.750	-3.194	0.119	-0.082
-158.735	-120.114	-0.193	0.032
-157.720	474.340	-0.114	0.253
-156.706	74.579	-0.151	0.156
-155.691	383.887	-0.044	0.090
-154.677	37.239	0.216	-0.188
-153.662	-113.864	-0.309	0.059
-152.647	-80.349	0.092	0.030
-151.633	156.628	-0.179	0.243
-150.618	800.000	0.072	-0.274
-149.604	-111.909	0.088	0.018
-148.589	-200.000	0.057	0.325
-147.574	-190.852	-0.246	0.003
-146.560	-64.598	-0.158	-0.063
-145.545	-172.957	-0.136	-0.004
-144.531	205.993	0.149	0.227
-143.516	164.972	0.138	-0.191
-142.502	-151.012	0.269	-0.020
-141.487	-200.000	0.014	-0.072
-140.472	214.084	-0.055	-0.085
-139.458	-15.307	0.288	-0.181
-138.443	154.385	0.158	-0.213
-137.429	60.629	-0.311	-0.303
-136.414	209.173	0.043	0.066
-135.399	357.308	0.080	0.157
-134.385	-36.369	0.234	-0.124
-133.370	37.484	0.243	-0.212
-132.356	800.000	-0.010	-0.041
-131.341	44.807	-0.030	0.027
-130.326	-81.607	0.260	0.084
-129.312	-200.000	-0.008	0.272
-128.297	-200.000	-0.057	0.343
-127.283	800.000	-0.102	0.350
-126.268	468.492	-0.061	0.134
-125.253	-38.271	0.343	0.179
-124.239	-126.396	0.255	0.037
-123.224	-51.005	-0.326	-0.150
-122.210	-200.000	-0.015	0.086
-121.195	-119.097	0.144	-0.025
-120.180	-200.000	0.002	0.163
-119.166	-200.000	0.001	0.115
-118.151	67.428	0.248	-0.249
-117.137	800.000	0.216	-0.611
-116.122	-62.814	0.095	-0.039
-115.107	-200.000	-0.012	0.068
-114.093	-106.132	-0.323	0.071
-113.078	-200.000	-0.051	-0.430
-112.064	-200.000	-0.003	0.364
-111.049	-82.253	0.087	-0.028
-110.034	16.304	-0.287	0.222
-109.020	-14.417	0.129	-0.081
-108.005	191.071	0.091	0.134
-106.991	259.661	-0.033	-0.055
-105.976	-83.132	-0.197	0.062
-104.962	-200.000	0.035	-0.286
-103.947	-17.158	-0.135	0.083
-102.932	100.460	0.127	-0.145
-101.918	-200.000	0.013	-0.261
-100.903	509.977	-0.117	0.268
-99.889	-28.510	-0.145	-0.082
-98.874	800.000	0.086	0.299
-97.859	800.000	0.054	-0.158
-96.845	27.289	-0.148	-0.122
-95.830	800.000	0.080	-0.336
-94.816	33.576	-0.163	0.139
-93.801	220.669	-0.115	-0.181
-92.786	-147.819	0.196	0.016
-91.772	112.099	0.203	-0.241
-90.757	800.000	0.072	0.223
-89.743	-50.266	-0.154	-0.071
-88.728	-40.546	-0.135	-0.069
-87.713	-42.356	0.214	0.107
-86.699	15.625	-0.374	0.288
-85.684	-17.466	0.280	0.173
-84.670	-86.430	0.164	-0.049
-83.655	-23.292	-0.162	0.095
-82.640	-53.313	-0.269	-0.121
-81.626	55.306	0.193	0.183
-80.611	320.976	0.112	0.208
-79.597	-15.626	-0.279	-0.175
-78.582	-51.819	-0.156	-0.071
-77.567	7.387	0.081	-0.060
-76.553	35.225	-0.171	0.147
-75.538	800.000	-0.053	0.151
-74.524	-68.958	0.352	-0.133
-73.509	153.305	0.161	0.216
-72.494	-200.000	-0.014	-0.134
-71.480	-11.668	0.155	0.100
-70.465	-4.195	-0.257	-0.174
-69.451	-181.383	0.406	0.008
-68.436	4.445	0.149	-0.107
-67.422	-49.645	-0.121	-0.057
-66.407	-200.000	-0.026	-0.123
-65.392	-167.239	0.192	-0.008
-64.378	180.476	-0.101	-0.145
-63.363	-14.635	0.170	0.107
-62.349	-200.000	0.013	0.219
-61.334	42.922	-1.174	-1.048
-60.319	544.850	0.269	0.629
-59.305	800.000	-0.166	-0.483
-58.290	463.466	0.448	0.980
-57.276	165.596	0.835	1.157
-56.261	-200.000	111.798	627.052
-55.246	516.481	1520.861	3481.282
-54.232	175.936	2703.959	3843.054
-53.217	104.903	2283.698	2637.142
-52.203	38.144	1889.513	1646.560
-51.188	32.095	1677.748	1416.510
-50.173	29.385	1635.672	1360.964
-49.159	48.977	1692.015	1555.475
-48.144	49.004	1705.997	1568.467
-47.130	31.438	1663.274	1399.146
-46.115	28.798	1648.064	1366.691
-45.100	28.560	1643.531	1361.117
-44.086	28.497	1641.363	1358.798
-43.071	28.481	1638.521	1356.269
-42.057	28.434	1636.351	1354.075
-41.042	28.549	1633.970	1352.903
-40.027	28.631	1631.985	1351.809
-39.013	28.556	1630.194	1349.714
-37.998	28.528	1628.850	1348.345
-36.984	28.609	1627.099	1347.436
-35.969	28.610	1626.163	1346.612
-34.954	28.730	1624.069	1345.711
-33.940	28.675	1622.436	1343.898
-32.925	28.689	1620.915	1342.689
-31.911	28.643	1619.144	1340.828
-30.896	28.661	1617.902	1339.881
-29.881	28.606	1616.021	1337.866
-28.867	28.611	1614.377	1336.490
-27.852	28.621	1613.216	1335.550
-26.838	28.697	1611.311	1334.472
-25.823	28.817	1610.065	1334.258
-24.809	28.742	1608.902	1332.701
-23.794	28.675	1607.261	1330.798
-22.779	28.693	1606.181	1329.981
-21.765	28.707	1604.575	1328.704
-20.750	28.687	1602.923	1327.137
-19.736	28.722	1601.960	1326.543
-18.721	28.743	1600.095	1325.096
-17.706	28.762	1598.825	1324.130
-16.692	28.635	1597.543	1322.101
-15.677	28.754	1595.810	1321.468
-14.663	28.725	1594.434	1320.070
-13.648	28.735	1592.930	1318.840
-12.633	28.649	1591.532	1317.018
-11.619	28.783	1589.403	1316.163
-10.604	28.696	1588.551	1314.781
-9.590	28.754	1587.219	1314.041
-8.575	28.753	1585.970	1312.949
-7.560	28.779	1584.903	1312.196
-6.546	28.757	1583.848	1311.118
-5.531	28.805	1582.013	1309.885
-4.517	28.714	1581.664	1308.894
-3.502	28.694	1580.443	1307.689
-2.487	28.737	1578.778	1306.571
-1.473	28.351	1567.152	1294.171
-0.458	25.427	1547.490	1257.452
0.556	23.654	1548.213	1225.369
1.571	21.300	1571.828	1227.431
2.586	20.714	1584.966	1233.428
3.600	18.731	1531.321	1177.989
4.615	11.563	1425.441	1050.499
5.629	5.022	1364.448	965.091
6.644	3.715	1357.201	951.831
7.659	3.839	1355.536	951.342
8.673	3.787	1355.348	950.803
9.688	3.859	1353.156	949.623
10.702	3.706	1350.080	946.447
11.717	6.805	1355.495	969.197
12.731	14.897	1370.205	1029.641
13.746	21.679	1382.234	1080.574
14.761	23.599	1383.338	1093.179
15.775	23.137	1381.689	1088.939
16.790	22.267	1379.407	1081.692
17.804	21.618	1377.734	1076.298
18.819	21.439	1377.042	1074.560
19.834	21.416	1376.034	1073.540
20.848	21.383	1375.235	1072.619
21.863	21.483	1373.403	1071.706
22.877	21.246	1373.162	1069.974
23.892	21.209	1372.088	1068.814
24.907	21.063	1371.361	1067.264
25.921	21.153	1370.236	1066.843
26.936	21.094	1368.903	1065.350
27.950	21.182	1368.527	1065.500
28.965	21.151	1367.881	1064.710
29.980	21.397	1366.904	1065.357
30.994	21.586	1365.717	1065.487
32.009	21.595	1364.913	1064.823
33.023	21.508	1363.723	1063.269
34.038	21.452	1362.012	1061.502
35.053	21.310	1360.646	1059.485
36.067	21.271	1359.994	1058.644
37.082	21.338	1359.202	1058.338
38.096	21.296	1358.609	1057.530
39.111	21.373	1357.790	1057.264
40.126	21.200	1357.033	1055.536
41.140	21.017	1355.153	1052.878
42.155	20.698	1354.904	1050.663
43.169	20.599	1354.845	1049.925
44.184	20.719	1354.439	1050.246
45.199	20.782	1354.400	1050.500
46.213	21.045	1354.160	1051.808
47.228	21.188	1353.263	1051.878
48.242	21.276	1352.069	1051.387
49.257	21.287	1350.650	1050.256
50.271	21.044	1349.509	1047.817
51.286	21.211	1348.121	1047.649
52.301	21.101	1346.593	1045.712
53.315	20.938	1345.555	1043.835
54.330	20.865	1344.167	1042.228
55.344	20.777	1343.515	1041.104
56.359	20.817	1342.225	1040.252
57.374	20.765	1341.136	1039.010
58.388	20.734	1340.244	1038.041
59.403	20.655	1339.877	1037.195
60.417	20.520	1339.212	1035.781
61.432	20.394	1338.331	1034.257
62.447	20.437	1337.133	1033.499
63.461	20.307	1336.139	1031.861
64.476	20.297	1334.872	1030.737
65.490	20.384	1333.731	1030.280
66.505	20.407	1332.258	1029.189
67.520	20.363	1331.475	1028.229
68.534	20.361	1330.122	1027.079
69.549	20.415	1329.131	1026.544
70.563	20.197	1328.135	1024.399
71.578	20.120	1327.388	1023.276
72.593	19.989	1326.337	1021.600
73.607	20.057	1325.479	1021.252
74.622	20.069	1324.976	1020.847
75.636	20.120	1324.455	1020.655
76.651	20.116	1323.664	1019.929
77.666	20.321	1322.785	1020.370
78.680	20.235	1322.860	1019.831
79.695	20.402	1321.740	1019.859
80.709	20.500	1321.563	1020.204
81.724	20.715	1320.989	1020.933
82.739	20.948	1319.633	1021.161
83.753	20.981	1319.371	1021.061
84.768	21.178	1318.837	1021.711
85.782	21.402	1318.117	1022.372
86.797	21.440	1316.601	1021.325
87.812	21.300	1315.422	1019.505
88.826	21.319	1313.904	1018.351
89.841	21.242	1313.373	1017.401
90.855	21.391	1312.767	1017.707
91.870	21.376	1312.371	1017.224
92.884	21.583	1311.051	1017.312
93.899	21.553	1310.221	1016.406
94.914	21.597	1309.738	1016.193
95.928	21.552	1308.894	1015.188
96.943	21.468	1307.969	1013.895
97.957	21.448	1306.488	1012.543
98.972	21.443	1305.969	1012.022
99.987	21.466	1304.838	1011.185
101.001	21.442	1303.995	1010.307
102.016	21.468	1303.021	1009.613
103.030	21.338	1302.447	1008.330
104.045	21.438	1301.257	1007.891
105.060	21.201	1299.751	1005.276
106.074	20.890	1298.099	1002.121
107.089	20.512	1296.562	998.673
108.103	20.456	1295.173	997.193
109.118	20.467	1293.996	996.260
110.133	20.339	1292.884	994.585
111.147	20.453	1291.846	994.348
112.162	20.473	1290.904	993.653
113.176	20.550	1289.825	993.174
114.191	20.592	1288.564	992.356
115.206	20.637	1287.609	991.789
116.220	20.544	1287.141	990.808
117.235	20.543	1285.599	989.525
118.249	20.382	1284.671	987.812
119.264	20.371	1283.414	986.695
120.279	20.336	1281.910	985.253
121.293	20.290	1281.414	984.522
122.308	20.119	1280.114	982.468
123.322	20.027	1278.862	980.897
124.337	20.000	1277.996	979.995
125.352	19.972	1276.793	978.829
126.366	19.911	1275.668	977.535
127.381	19.997	1274.697	977.190
128.395	19.813	1274.022	975.545
129.410	19.951	1272.822	975.321
130.424	20.115	1272.528	975.929
131.439	20.399	1271.442	976.610
132.454	20.395	1271.090	976.232
133.468	20.268	1270.956	975.327
134.483	20.436	1269.756	975.265
135.497	20.623	1268.398	975.183
136.512	20.518	1267.885	974.114
137.527	20.501	1266.615	972.953
138.541	20.748	1264.748	972.815
139.556	20.710	1263.893	971.858
140.570	20.840	1263.139	971.921
141.585	20.931	1262.298	971.696
142.600	21.241	1261.079	972.395
143.614	21.367	1260.569	972.620
144.629	21.335	1259.970	971.893
145.643	21.308	1258.313	970.378
146.658	21.100	1256.946	968.084
147.673	20.930	1255.786	966.161
148.687	20.710	1255.194	964.401
149.702	20.720	1253.160	962.813
150.716	20.580	1251.307	960.526
151.731	20.546	1250.443	959.591
152.746	20.598	1249.670	959.201
153.760	20.772	1248.120	958.883
154.775	20.816	1247.400	958.487
155.789	20.946	1246.515	958.439
156.804	20.995	1245.516	957.858
157.819	21.066	1244.494	957.377
158.833	21.083	1244.409	957.320
159.848	21.270	1243.727	957.736
160.862	21.172	1242.586	956.236
161.877	20.854	1240.556	952.847
162.892	20.469	1239.403	949.775
163.906	20.494	1238.477	949.115
164.921	20.531	1237.476	948.465
165.935	20.582	1237.156	948.417
166.950	20.745	1236.429	948.665
167.964	20.830	1235.743	948.516
168.979	20.657	1234.822	946.786
169.994	20.562	1233.871	945.455
171.008	20.669	1232.979	945.269
172.023	20.829	1232.770	945.892
173.037	21.056	1232.578	946.895
174.052	21.079	1231.301	945.953
175.067	20.721	1230.093	943.003
176.081	20.466	1228.900	940.624
177.096	20.464	1227.520	939.475
178.110	20.513	1226.964	939.231
179.125	20.563	1225.842	938.559
180.140	20.776	1225.082	939.041
181.154	21.006	1224.174	939.501
182.169	21.027	1223.354	938.901
183.183	21.078	1222.130	938.158
184.198	21.239	1221.054	938.114
185.213	21.247	1219.947	937.221
186.227	21.291	1219.185	936.787
187.242	21.350	1218.451	936.459
188.256	21.480	1217.434	936.289
189.271	21.525	1216.782	935.945
190.286	21.271	1215.412	933.450
191.300	20.772	1214.197	929.772
192.315	20.606	1213.161	928.010
193.329	20.684	1212.645	927.952
194.344	20.604	1212.727	927.504
195.359	20.680	1211.959	927.241
196.373	20.670	1211.278	926.585
197.388	20.847	1210.732	927.023
198.402	21.199	1211.175	929.155
199.417	21.418	1210.997	930.103
200.432	21.625	1210.149	930.468
201.446	21.687	1209.534	930.241
202.461	21.746	1208.762	929.879
203.475	21.708	1207.820	928.870
204.490	21.381	1206.131	925.759
205.504	21.193	1204.528	923.455
206.519	21.052	1203.444	921.793
207.534	20.886	1202.401	920.036
208.548	20.996	1201.493	919.842
209.563	21.095	1201.302	920.135
210.577	20.952	1199.975	918.288
211.592	21.083	1199.316	918.392
212.607	21.468	1198.911	920.023
213.621	21.443	1198.096	919.187
214.636	21.291	1197.133	917.569
215.650	21.333	1196.332	917.094
216.665	21.527	1195.687	917.532
217.680	21.785	1194.801	918.122
218.694	21.806	1193.993	917.530
219.709	21.623	1193.315	915.975
220.723	21.569	1192.408	914.914
221.738	21.568	1191.322	913.994
222.753	21.480	1190.371	912.725
223.767	21.547	1189.853	912.597
224.782	21.724	1189.697	913.320
225.796	21.828	1189.435	913.580
226.811	21.728	1188.503	912.259
227.826	21.505	1187.916	910.569
228.840	21.514	1186.803	909.682
229.855	21.228	1186.159	907.622
230.869	21.437	1185.111	907.825
231.884	21.187	1184.061	905.641
232.899	21.056	1183.270	904.278
233.913	20.934	1182.598	903.052
234.928	20.893	1181.691	902.071
235.942	20.828	1180.789	900.964
236.957	20.958	1179.913	900.886
237.972	20.876	1179.326	899.938
238.986	20.941	1178.571	899.615
240.001	20.964	1177.857	899.111
241.015	20.991	1177.293	898.737
242.030	21.097	1176.697	898.752
243.045	21.204	1176.294	898.911
244.059	21.317	1175.286	898.645
245.074	21.346	1174.630	898.215
246.088	21.501	1173.988	898.440
247.103	21.693	1173.258	898.786
248.117	21.837	1172.553	898.907
249.132	22.023	1172.057	899.397
250.147	22.331	1171.792	900.690
251.161	22.395	1171.924	901.040
252.176	22.472	1171.119	900.738
253.190	22.601	1170.655	900.958
254.205	22.623	1170.313	900.727
255.220	22.694	1169.824	900.634
256.234	22.676	1168.929	899.777
257.249	22.636	1167.932	898.724
258.263	22.541	1167.384	897.737
259.278	22.529	1166.588	896.986
260.293	22.499	1166.279	896.514
261.307	22.761	1165.160	896.908
262.322	22.746	1164.711	896.408
263.336	22.629	1164.337	895.445
264.351	22.695	1163.988	895.431
265.366	22.747	1163.078	894.916
266.380	22.784	1162.352	894.466
267.395	22.647	1161.411	892.970
268.409	22.385	1160.981	891.234
269.424	22.298	1160.319	890.204
270.439	22.478	1158.990	890.017
271.453	22.142	1158.633	887.966
272.468	22.123	1157.373	886.829
273.482	21.979	1156.858	885.630
274.497	21.992	1156.194	885.104
275.512	21.977	1155.327	884.288
276.526	22.020	1154.708	883.955
277.541	22.077	1154.281	883.838
278.555	22.274	1153.734	884.331
279.570	22.502	1152.910	884.765
280.585	22.815	1152.446	885.899
281.599	22.716	1151.390	884.516
282.614	22.390	1150.258	881.935
283.628	22.296	1148.700	880.192
284.643	22.261	1148.124	879.498
285.657	22.206	1147.292	878.508
286.672	22.169	1147.038	878.048
287.687	22.350	1145.452	877.663
288.701	22.290	1144.802	876.784
289.716	22.376	1143.660	876.261
290.730	22.363	1143.184	875.755
291.745	22.335	1142.775	875.227
292.760	22.348	1142.197	874.768
293.774	22.403	1142.256	875.009
294.789	22.649	1141.642	875.684
295.803	22.638	1140.884	874.969
296.818	22.456	1139.529	872.953
297.833	22.364	1138.772	871.837
298.847	22.354	1137.922	871.062
299.862	22.252	1137.328	870.026
300.876	22.349	1136.857	870.067
301.891	22.369	1136.246	869.620
302.906	22.695	1135.849	870.852
303.920	22.777	1135.185	870.670
304.935	23.069	1134.592	871.575
305.949	23.025	1134.526	871.234
306.964	23.080	1133.685	870.782
307.979	22.878	1132.726	868.975
308.993	22.799	1131.975	867.932
310.008	22.724	1131.550	867.160
311.022	22.889	1130.840	867.351
312.037	22.904	1129.400	866.240
313.052	22.737	1128.304	864.505
314.066	22.434	1127.012	861.959
315.081	22.251	1125.984	860.199
316.095	22.120	1125.020	858.749
317.110	22.210	1124.356	858.605
318.125	22.084	1123.844	857.524
319.139	22.127	1123.325	857.259
320.154	22.226	1122.898	857.340
321.168	22.173	1122.083	856.386
322.183	22.321	1121.260	856.400
323.197	22.280	1120.662	855.669
324.212	22.335	1120.257	855.551
325.227	22.445	1120.197	855.964
326.241	22.531	1119.215	855.556
327.256	22.301	1118.671	853.947
328.270	22.273	1117.373	852.747
329.285	22.346	1116.295	852.202
330.300	22.234	1115.700	851.132
331.314	22.372	1114.480	850.791
332.329	22.328	1113.877	850.045
333.343	22.345	1113.358	849.655
334.358	22.562	1112.663	850.097
335.373	22.655	1112.113	850.048
336.387	22.747	1111.404	849.873
337.402	22.948	1110.458	850.040
338.416	22.906	1110.205	849.572
339.431	22.876	1109.816	849.052
340.446	23.028	1109.576	849.524
341.460	23.344	1108.559	850.191
342.475	23.447	1108.087	850.248
343.489	23.407	1107.472	849.507
344.504	23.465	1106.734	849.144
345.519	23.514	1105.677	848.491
346.533	23.665	1104.859	848.509
347.548	23.735	1104.249	848.300
348.562	23.404	1103.575	846.128
349.577	23.115	1102.235	843.649
350.592	22.926	1100.608	841.429
351.606	22.852	1099.843	840.418
352.621	22.771	1099.136	839.415
353.635	22.668	1098.750	838.557
354.650	22.651	1098.177	837.966
355.665	22.726	1097.093	837.423
356.679	22.888	1096.865	837.942
357.694	22.897	1096.572	837.685
358.708	23.100	1095.766	837.957
359.723	23.024	1095.333	837.191
360.738	23.122	1094.656	837.064
361.752	23.007	1094.227	836.119
362.767	23.035	1093.555	835.663
363.781	23.039	1093.197	835.333
364.796	23.358	1092.768	836.440
365.810	23.487	1092.414	836.701
366.825	23.663	1092.066	837.195
367.840	23.801	1091.795	837.561
368.854	23.863	1091.287	837.391
369.869	23.898	1090.038	836.521
370.883	23.646	1089.144	834.577
371.898	23.467	1088.476	833.153
372.913	23.438	1087.809	832.429
373.927	23.586	1087.529	832.835
374.942	23.791	1087.130	833.417
375.956	23.699	1086.360	832.321
376.971	23.539	1085.509	830.851
377.986	23.671	1085.237	831.183
379.000	23.881	1084.921	831.852
380.015	23.907	1084.486	831.566
381.029	24.036	1083.987	831.714
382.044	24.020	1083.166	830.933
383.059	23.857	1082.384	829.501
384.073	23.878	1081.333	828.721
385.088	24.028	1080.030	828.346
386.102	23.795	1079.839	827.041
387.117	23.694	1078.076	825.147
388.132	23.251	1077.346	822.458
389.146	23.306	1076.919	822.315
390.161	23.379	1075.642	821.607
391.175	23.273	1075.085	820.617
392.190	23.559	1074.447	821.381
393.205	23.833	1074.223	822.406
394.219	23.880	1073.080	821.678
395.234	23.520	1072.268	819.320
396.248	23.357	1071.259	817.722
397.263	23.394	1070.176	816.993
398.278	23.323	1069.009	815.706
399.292	23.248	1068.646	815.010
400.307	23.169	1067.680	813.839
401.321	22.991	1067.351	812.698
402.336	23.150	1066.198	812.476
403.350	23.087	1065.708	811.744
404.365	23.300	1065.054	812.148
405.380	23.388	1064.796	812.287
406.394	23.566	1063.842	812.301
407.409	23.709	1063.231	812.416
408.423	23.859	1063.113	812.938
409.438	23.947	1062.492	812.795
410.453	24.078	1061.665	812.688
411.467	24.053	1061.102	812.072
412.482	24.134	1060.580	811.971
413.496	24.187	1060.466	812.051
414.511	24.280	1059.921	811.985
415.526	24.396	1059.380	812.029
416.540	24.459	1059.084	812.015
417.555	24.367	1058.590	811.146
418.569	24.357	1057.451	810.157
419.584	24.265	1057.009	809.331
420.599	24.242	1056.494	808.758
421.613	156.595	1403.783	1796.353
422.628	143.859	1454.367	1796.436
