DTS Sentinel unit serial number:	SN413079Multiplexer serial number:	ORYXHardware model number:	OX4-SRSoftware version number:	ORYX F/W v4.00 Oryx Data Collector v3.7.2.0data status	okinstallation	princeton_trtdifferential loss correction	single-endedforward channel	channel 2reverse channel	N/Adate	2019/09/15time	21:47:34forward acquisition time	60.00reverse acquisition time	0.00gamma	496.2192k internal	0.2334k external	0.2334temperature offset calibration	0.9943default loss term (dB/km)	0.3790temperature slope calibration	1.0000multiplexer offset coefficient	1.0000multiplexer slope coefficient	1.0000fibre end	0.00T internal ref (°C)	30.20T ext. ref 1 (°C)	8.44T ext. ref 2 (°C)	23.42length (m)	temperature (°C)	Stokes	anti-Stokes-747.200	89.381	-0.133	0.149
-746.185	800.000	-0.101	0.292
-745.171	66.500	-0.211	0.215
-744.156	-74.217	-0.204	0.074
-743.142	800.000	-0.033	0.096
-742.127	-59.350	-0.116	0.050
-741.112	-142.441	0.191	0.019
-740.098	-54.271	-0.344	-0.157
-739.083	-200.000	0.005	-0.156
-738.069	-75.595	-0.315	-0.112
-737.054	-101.816	0.187	0.045
-736.039	-63.338	-0.490	0.203
-735.025	-200.000	-0.003	-0.058
-734.010	755.618	0.136	-0.370
-732.996	106.109	-0.217	0.259
-731.981	-138.679	0.128	-0.014
-730.966	450.314	0.054	0.120
-729.952	220.982	-0.087	0.140
-728.937	-89.891	0.052	-0.015
-727.923	168.754	0.152	-0.218
-726.908	-27.366	-0.440	-0.257
-725.894	-200.000	0.012	0.082
-724.879	274.478	0.092	0.163
-723.864	-72.020	-0.295	-0.110
-722.850	247.672	-0.150	-0.255
-721.835	-115.043	0.202	0.039
-720.821	711.942	0.038	0.100
-719.806	-57.322	0.187	-0.082
-718.791	800.000	0.067	0.272
-717.777	800.000	-0.016	-0.065
-716.762	64.131	-0.114	-0.115
-715.748	386.688	0.077	-0.159
-714.733	-17.710	-0.097	0.061
-713.718	-91.220	0.212	-0.061
-712.704	293.197	0.128	0.234
-711.689	-200.000	-0.002	0.023
-710.675	-100.599	-0.180	0.045
-709.660	-200.000	-0.015	0.146
-708.645	164.837	0.116	0.164
-707.631	108.634	-0.290	0.348
-706.616	-4.328	-0.205	0.142
-705.602	435.419	0.023	0.051
-704.587	-98.349	0.157	0.040
-703.572	-134.021	-0.049	0.006
-702.558	437.415	0.049	-0.107
-701.543	-14.995	-0.186	-0.120
-700.529	-0.757	0.317	-0.225
-699.514	28.794	-0.380	-0.323
-698.499	109.299	-0.107	-0.128
-697.485	-200.000	0.010	0.180
-696.470	-16.808	-0.249	0.158
-695.456	47.155	-0.059	0.055
-694.441	-91.101	0.181	0.052
-693.426	-171.168	0.240	-0.008
-692.412	-8.858	-0.131	0.088
-691.397	-59.238	-0.108	-0.047
-690.383	-128.999	0.171	-0.024
-689.368	472.770	-0.111	-0.250
-688.354	-200.000	0.010	0.047
-687.339	26.783	-0.315	-0.265
-686.324	-38.874	-0.318	-0.168
-685.310	-133.779	0.265	-0.033
-684.295	-70.291	0.088	0.033
-683.281	800.000	-0.045	-0.152
-682.266	55.619	-0.140	-0.136
-681.251	-93.469	-0.217	-0.060
-680.237	-79.881	-0.518	-0.175
-679.222	800.000	0.093	0.384
-678.208	14.709	0.189	-0.148
-677.193	76.351	-0.066	0.071
-676.178	-121.064	0.083	0.014
-675.164	-200.000	0.010	0.072
-674.149	-57.613	-0.395	-0.174
-673.135	98.921	0.159	-0.184
-672.120	105.276	0.066	-0.078
-671.105	119.409	-0.082	-0.101
-670.091	-144.668	0.060	-0.006
-669.076	-172.463	0.069	-0.002
-668.062	800.000	-0.095	-0.283
-667.047	-65.483	-0.313	-0.126
-666.032	-147.035	0.229	0.020
-665.018	-200.000	-0.043	0.239
-664.003	-181.162	-0.087	0.002
-662.989	-71.892	0.071	-0.026
-661.974	82.071	0.277	0.301
-660.959	4.657	-0.111	-0.082
-659.945	-44.500	-0.122	0.061
-658.930	3.455	0.074	-0.054
-657.916	-200.000	-0.013	0.133
-656.901	-200.000	-0.010	-0.047
-655.886	22.848	0.252	-0.207
-654.872	-55.177	-0.136	-0.061
-653.857	-26.957	0.176	0.103
-652.843	-116.522	0.151	0.028
-651.828	-200.000	-0.015	-0.091
-650.814	-22.468	-0.233	-0.141
-649.799	-30.972	-0.295	-0.167
-648.784	399.008	-0.171	-0.358
-647.770	-89.022	0.180	0.053
-646.755	-154.374	0.368	-0.025
-645.741	-200.000	0.046	-0.267
-644.726	-184.957	0.311	0.005
-643.711	-142.395	0.252	-0.025
-642.697	-18.105	0.096	-0.060
-641.682	-116.635	-0.092	0.017
-640.668	82.326	-0.304	0.330
-639.653	-155.718	-0.279	0.018
-638.638	-117.801	0.464	0.083
-637.624	73.012	-0.184	0.193
-636.609	-17.467	-0.241	-0.152
-635.595	166.234	0.064	0.091
-634.580	-200.000	-0.013	0.057
-633.565	162.414	-0.087	0.122
-632.551	176.831	-0.311	-0.453
-631.536	71.918	-0.030	0.031
-630.522	-200.000	-0.027	-0.262
-629.507	-200.000	0.097	-0.573
-628.492	-200.000	0.006	-0.216
-627.478	-118.662	0.316	0.056
-626.463	-200.000	0.290	-0.001
-625.449	-160.279	-0.317	-0.017
-624.434	-13.109	0.088	-0.057
-623.419	60.774	-0.272	0.270
-622.405	-200.000	-0.013	-0.307
-621.390	800.000	0.084	0.273
-620.376	121.545	-0.109	-0.136
-619.361	-78.598	0.227	0.078
-618.346	-200.000	0.014	0.161
-617.332	-70.619	-0.133	-0.050
-616.317	657.239	-0.040	-0.102
-615.303	-141.973	0.176	-0.018
-614.288	46.303	0.294	0.273
-613.273	-200.000	0.025	0.143
-612.259	411.792	0.113	0.239
-611.244	-65.236	0.263	-0.106
-610.230	-68.968	0.072	0.028
-609.215	-58.165	-0.244	-0.106
-608.201	-80.409	-0.120	0.040
-607.186	59.370	-0.120	-0.118
-606.171	-200.000	0.004	0.228
-605.157	142.892	0.177	0.235
-604.142	319.794	0.199	0.378
-603.128	-98.940	-0.246	0.062
-602.113	163.283	-0.200	-0.282
-601.098	800.000	0.048	0.174
-600.084	800.000	-0.040	-0.168
-599.069	-39.371	-0.249	0.131
-598.055	304.317	-0.094	-0.174
-597.040	-104.890	-0.210	0.048
-596.025	127.566	-0.099	-0.125
-595.011	-200.000	0.028	-0.278
-593.996	154.078	0.105	-0.144
-592.982	800.000	0.023	0.078
-591.967	-200.000	-0.022	-0.154
-590.952	208.935	0.101	0.157
-589.938	-102.435	-0.210	0.050
-588.923	-200.000	-0.023	0.264
-587.909	-140.049	-0.159	0.017
-586.894	16.457	-0.189	-0.149
-585.879	42.846	0.139	-0.126
-584.865	-25.839	0.333	0.196
-583.850	-200.000	0.022	-0.118
-582.836	195.767	-0.129	0.195
-581.821	800.000	-0.060	-0.175
-580.806	152.220	-0.201	-0.273
-579.792	-80.904	-0.352	0.117
-578.777	-99.973	-0.411	-0.103
-577.763	38.387	-0.236	0.210
-576.748	415.029	0.080	-0.170
-575.733	22.938	0.109	-0.089
-574.719	800.000	-0.020	0.084
-573.704	-45.660	0.260	-0.128
-572.690	147.038	0.067	-0.090
-571.675	-200.000	-0.256	-0.001
-570.661	3.983	-0.243	-0.177
-569.646	-169.259	-0.125	0.005
-568.631	-200.000	-0.026	0.340
-567.617	-73.483	-0.120	-0.044
-566.602	-192.303	0.210	-0.002
-565.588	71.177	0.031	0.033
-564.573	-51.907	-0.016	-0.007
-563.558	-43.381	0.171	0.086
-562.544	800.000	-0.127	0.419
-561.529	87.566	0.081	0.090
-560.515	375.035	0.135	-0.275
-559.500	222.999	-0.096	-0.155
-558.485	-59.560	-0.365	0.157
-557.471	-46.121	-0.096	0.047
-556.456	394.618	-0.117	0.243
-555.442	587.345	0.080	0.197
-554.427	-125.659	-0.051	-0.008
-553.412	147.330	-0.071	-0.095
-552.398	800.000	0.177	0.492
-551.383	5.869	-0.269	0.199
-550.369	649.765	-0.054	0.137
-549.354	77.538	0.212	0.225
-548.339	308.294	-0.081	-0.151
-547.325	324.374	-0.066	0.126
-546.310	71.103	-0.071	0.073
-545.296	-200.000	0.004	-0.189
-544.281	800.000	0.120	-0.352
-543.266	-73.898	0.298	-0.108
-542.252	-200.000	0.001	-0.077
-541.237	-131.750	0.171	-0.022
-540.223	178.628	0.171	-0.249
-539.208	36.262	-0.147	0.129
-538.193	-200.000	0.020	0.276
-537.179	-169.702	0.145	0.005
-536.164	-175.031	-0.099	0.003
-535.150	211.719	0.169	0.266
-534.135	-111.697	-0.209	0.042
-533.121	19.733	0.552	0.443
-532.106	154.415	-0.249	-0.340
-531.091	47.180	0.172	0.160
-530.077	120.877	0.204	-0.253
-529.062	105.715	-0.087	0.102
-528.048	-113.609	-0.035	0.007
-527.033	-200.000	0.035	-0.185
-526.018	135.860	-0.186	0.242
-525.004	-48.012	-0.150	-0.072
-523.989	147.121	0.196	-0.263
-522.975	800.000	0.048	-0.184
-521.960	800.000	-0.066	0.197
-520.945	318.586	-0.158	0.298
-519.931	-200.000	-0.013	-0.111
-518.916	-115.828	-0.304	-0.057
-517.902	51.441	-0.027	0.025
-516.887	-200.000	-0.002	0.024
-515.872	53.984	0.173	-0.166
-514.858	-200.000	-0.047	0.216
-513.843	-200.000	-0.010	0.095
-512.829	12.140	-0.035	0.027
-511.814	23.752	-0.106	-0.087
-510.799	466.638	0.059	0.131
-509.785	-77.732	-0.097	-0.033
-508.770	266.279	0.136	0.236
-507.756	-134.116	0.164	-0.020
-506.741	800.000	0.074	-0.215
-505.726	-121.793	0.212	0.035
-504.712	-78.493	-0.259	0.088
-503.697	800.000	-0.040	0.169
-502.683	-79.126	0.121	0.041
-501.668	563.760	-0.069	-0.166
-500.653	-137.488	-0.165	0.019
-499.639	-200.000	0.008	0.079
-498.624	-183.389	-0.118	-0.002
-497.610	-71.635	-0.041	-0.015
-496.595	17.381	-0.133	-0.105
-495.581	269.025	-0.066	-0.115
-494.566	-1.867	0.207	0.145
-493.551	251.359	-0.122	-0.207
-492.537	-200.000	-0.003	-0.204
-491.522	570.366	0.112	-0.271
-490.508	-134.868	-0.088	0.011
-489.493	-200.000	0.044	-0.263
-488.478	714.421	-0.040	-0.106
-487.464	92.321	0.146	-0.163
-486.449	-48.468	0.202	-0.097
-485.435	66.792	0.045	0.046
-484.420	319.729	-0.100	0.189
-483.405	194.589	-0.126	-0.190
-482.391	-162.775	0.054	-0.003
-481.376	114.680	0.055	-0.066
-480.362	-200.000	0.011	0.160
-479.347	-200.000	-0.011	-0.275
-478.332	168.258	-0.163	-0.230
-477.318	-116.528	0.300	0.055
-476.303	114.149	0.054	-0.065
-475.289	-19.889	-0.015	0.009
-474.274	-67.983	-0.096	-0.037
-473.259	198.016	-0.176	0.267
-472.245	-135.626	0.223	-0.026
-471.230	-54.338	0.198	-0.089
-470.216	141.120	-0.101	0.133
-469.201	-30.765	-0.178	-0.100
-468.186	-60.791	-0.211	-0.089
-467.172	325.279	-0.078	0.149
-466.157	-27.627	0.225	0.130
-465.143	60.141	0.229	0.225
-464.128	-41.617	-0.178	-0.091
-463.113	-53.262	-0.088	0.040
-462.099	-29.953	0.119	-0.067
-461.084	-65.500	-0.274	0.109
-460.070	63.954	-0.170	-0.170
-459.055	123.178	0.130	0.162
-458.040	192.704	0.180	0.270
-457.026	-148.760	0.078	0.006
-456.011	-82.755	-0.287	0.092
-454.997	-111.676	-0.351	-0.071
-453.982	150.850	-0.122	-0.165
-452.968	509.572	-0.056	0.130
-451.953	-149.806	-0.152	-0.012
-450.938	139.046	0.157	0.205
-449.924	114.017	0.176	0.213
-448.909	-9.641	-0.169	0.112
-447.895	19.662	-0.092	-0.074
-446.880	575.575	0.150	-0.364
-445.865	-74.652	-0.179	0.064
-444.851	72.121	0.055	-0.057
-443.836	800.000	0.036	-0.098
-442.822	-19.211	-0.210	0.130
-441.807	-52.371	0.291	0.134
-440.792	-200.000	0.044	0.216
-439.778	-34.288	-0.358	0.195
-438.763	356.876	0.028	0.055
-437.749	-200.000	-0.054	-0.282
-436.734	204.658	-0.134	0.206
-435.719	268.986	-0.126	0.220
-434.705	665.419	0.094	0.240
-433.690	-200.000	0.003	-0.266
-432.676	421.695	0.091	-0.194
-431.661	800.000	-0.010	-0.028
-430.646	-103.130	-0.227	0.053
-429.632	46.773	-0.198	-0.183
-428.617	-200.000	0.036	-0.422
-427.603	800.000	-0.053	-0.218
-426.588	206.092	0.149	0.231
-425.573	-86.376	-0.095	0.029
-424.559	-200.000	0.051	0.418
-423.544	66.066	0.130	0.131
-422.530	-44.903	0.033	0.017
-421.515	-38.827	-0.169	0.088
-420.500	550.115	-0.135	0.321
-419.486	-177.367	-0.205	-0.005
-418.471	-90.899	0.295	0.084
-417.457	-200.000	-0.014	-0.297
-416.442	-89.997	-0.165	-0.048
-415.428	585.523	-0.150	0.365
-414.413	-77.313	0.271	0.093
-413.398	593.414	0.093	0.227
-412.384	800.000	-0.023	0.083
-411.369	800.000	-0.053	-0.206
-410.355	-59.866	-0.204	0.087
-409.340	-10.535	0.181	0.119
-408.325	-121.614	0.280	0.046
-407.311	521.376	0.216	-0.503
-406.296	-140.104	-0.148	-0.015
-405.282	7.137	-0.118	-0.088
-404.267	-47.286	-0.301	-0.145
-403.252	62.450	0.030	-0.030
-402.238	241.495	-0.140	0.232
-401.223	-75.066	-0.083	0.029
-400.209	37.778	0.062	0.055
-399.194	-132.020	-0.206	0.027
-398.179	-200.000	0.022	-0.155
-397.165	800.000	-0.108	0.302
-396.150	-16.561	0.271	0.170
-395.136	-121.412	0.170	0.028
-394.121	53.655	0.056	0.053
-393.106	-129.829	0.208	-0.028
-392.092	-97.574	0.231	-0.059
-391.077	118.283	-0.033	-0.040
-390.063	-33.155	-0.267	-0.147
-389.048	800.000	-0.083	0.295
-388.033	-200.000	-0.053	-0.458
-387.019	800.000	-0.046	0.173
-386.004	131.215	-0.151	-0.193
-384.990	-169.382	-0.469	0.017
-383.975	761.448	-0.107	-0.289
-382.960	170.159	0.263	-0.372
-381.946	-90.311	0.353	0.102
-380.931	23.582	0.189	0.155
-379.917	-89.478	0.203	-0.059
-378.902	497.626	0.116	-0.264
-377.888	757.537	-0.041	-0.110
-376.873	-109.768	-0.084	0.018
-375.858	-51.746	-0.270	-0.125
-374.844	-200.000	0.007	-0.067
-373.829	-200.000	0.020	-0.172
-372.815	148.250	0.059	-0.078
-371.800	192.299	-0.076	-0.113
-370.785	51.260	0.161	-0.152
-369.771	730.619	0.129	-0.342
-368.756	-24.900	0.235	0.138
-367.742	-105.947	-0.235	-0.052
-366.727	800.000	0.070	-0.229
-365.712	271.801	0.030	0.053
-364.698	-71.349	-0.085	0.032
-363.683	333.462	0.061	-0.117
-362.669	-74.475	-0.284	0.101
-361.654	-0.857	-0.323	-0.227
-360.639	-153.163	-0.120	0.008
-359.625	4.197	0.187	0.135
-358.610	-28.817	-0.115	-0.065
-357.596	-35.466	-0.087	-0.047
-356.581	-124.188	0.194	-0.030
-355.566	32.178	0.103	0.088
-354.552	627.477	-0.119	0.297
-353.537	-158.504	0.133	-0.008
-352.523	-50.778	-0.049	-0.023
-351.508	800.000	-0.128	0.399
-350.493	-200.000	0.017	0.279
-349.479	-200.000	-0.042	-0.198
-348.464	263.274	-0.067	-0.115
-347.450	-8.703	0.163	-0.108
-346.435	-30.521	-0.064	-0.036
-345.420	-121.747	0.224	0.037
-344.406	351.816	0.094	0.185
-343.391	5.945	0.124	-0.091
-342.377	243.764	0.118	0.196
-341.362	-1.774	0.239	-0.167
-340.348	98.522	0.150	-0.171
-339.333	-1.383	0.049	0.034
-338.318	80.602	-0.176	-0.188
-337.304	137.381	-0.077	0.099
-336.289	800.000	-0.091	-0.316
-335.275	51.734	0.048	0.045
-334.260	-32.495	0.099	-0.055
-333.245	736.242	-0.034	0.091
-332.231	52.694	0.205	0.194
-331.216	800.000	0.027	0.080
-330.202	78.721	0.191	0.202
-329.187	-159.644	0.302	-0.017
-328.172	29.234	-0.158	0.133
-327.158	-112.649	0.423	-0.083
-326.143	800.000	-0.057	0.248
-325.129	-200.000	-0.010	-0.210
-324.114	503.254	-0.066	0.152
-323.099	-200.000	-0.057	-0.305
-322.085	75.990	-0.103	0.108
-321.070	146.836	0.032	-0.043
-320.056	-81.491	0.038	-0.012
-319.041	800.000	0.051	0.204
-318.026	-74.251	0.078	-0.028
-317.012	37.987	0.145	-0.128
-315.997	-30.544	-0.021	-0.012
-314.983	49.896	0.196	-0.182
-313.968	20.145	0.287	0.229
-312.953	140.160	0.250	0.326
-311.939	-200.000	0.020	0.091
-310.924	-101.496	0.282	0.068
-309.910	-19.820	-0.146	0.089
-308.895	-200.000	-0.048	0.000
-307.880	-153.794	0.479	-0.032
-306.866	800.000	0.008	-0.031
-305.851	65.475	0.109	-0.109
-304.837	-139.999	0.055	0.006
-303.822	281.347	-0.053	0.094
-302.807	599.342	-0.105	-0.258
-301.793	-200.000	-0.025	0.157
-300.778	8.012	0.305	-0.226
-299.764	506.247	0.152	-0.348
-298.749	-71.968	-0.198	-0.073
-297.735	-169.122	-0.327	-0.012
-296.720	-32.227	0.370	0.204
-295.705	229.260	0.183	0.295
-294.691	-154.218	-0.356	-0.024
-293.676	800.000	0.057	0.196
-292.662	-107.933	-0.100	-0.021
-291.647	-49.936	-0.142	0.066
-290.632	64.521	0.010	-0.010
-289.618	33.765	-0.058	0.050
-288.603	86.230	0.271	-0.295
-287.589	-200.000	-0.040	0.380
-286.574	-22.687	0.186	0.111
-285.559	-120.970	-0.221	-0.037
-284.545	-200.000	-0.030	-0.242
-283.530	-200.000	0.015	-0.225
-282.516	-47.001	-0.264	-0.127
-281.501	-200.000	-0.112	-0.520
-280.486	86.612	0.102	0.111
-279.472	-85.389	-0.073	-0.023
-278.457	272.172	0.052	-0.090
-277.443	40.893	0.250	-0.222
-276.428	465.544	0.023	-0.052
-275.413	102.676	0.225	-0.260
-274.399	800.000	0.102	0.293
-273.384	435.411	0.071	-0.153
-272.370	91.761	-0.173	-0.192
-271.355	-200.000	0.021	-0.159
-270.340	137.752	0.149	0.192
-269.326	53.929	-0.073	-0.069
-268.311	-200.000	0.008	-0.200
-267.297	-82.580	0.383	0.123
-266.282	461.609	0.083	-0.182
-265.267	-200.000	0.011	0.146
-264.253	-200.000	0.069	-0.436
-263.238	800.000	0.023	-0.075
-262.224	114.162	0.215	0.258
-261.209	-35.362	-0.069	0.037
-260.195	-200.000	-0.005	-0.048
-259.180	12.065	0.184	0.140
-258.165	-97.155	-0.413	0.106
-257.151	-129.051	-0.246	-0.034
-256.136	-155.806	-0.050	-0.003
-255.122	361.087	0.076	0.151
-254.107	33.684	-0.190	-0.163
-253.092	455.480	0.077	0.168
-252.078	115.007	-0.080	-0.097
-251.063	-200.000	-0.089	-0.487
-250.049	11.318	-0.085	-0.064
-249.034	242.100	-0.218	-0.359
-248.019	-1.379	-0.234	0.163
-247.005	-81.851	-0.248	-0.080
-245.990	305.674	0.185	0.340
-244.976	154.562	0.110	0.148
-243.961	-112.219	0.204	-0.040
-242.946	103.857	-0.150	0.174
-241.932	58.379	-0.237	-0.229
-240.917	-39.729	0.249	0.128
-239.903	-14.605	0.266	0.168
-238.888	-16.303	-0.277	-0.173
-237.873	101.219	0.100	0.114
-236.859	138.859	0.199	0.257
-235.844	175.677	-0.086	0.123
-234.830	800.000	-0.034	0.111
-233.815	82.735	0.199	0.213
-232.800	-105.071	-0.254	-0.057
-231.786	800.000	-0.097	0.415
-230.771	-5.765	0.169	0.114
-229.757	800.000	0.129	-0.370
-228.742	-110.078	0.252	0.052
-227.727	800.000	0.073	0.292
-226.713	-71.105	0.202	-0.075
-225.698	116.684	-0.239	-0.289
-224.684	800.000	-0.145	-0.488
-223.669	56.043	-0.063	0.060
-222.655	190.344	-0.059	-0.087
-221.640	-200.000	-0.025	0.231
-220.625	2.526	0.312	-0.223
-219.611	-110.102	-0.194	-0.040
-218.596	705.845	0.154	-0.402
-217.582	-28.970	0.186	0.105
-216.567	21.708	-0.305	-0.245
-215.552	-97.043	0.324	0.083
-214.538	-140.013	-0.137	0.014
-213.523	800.000	0.078	-0.227
-212.509	117.978	-0.271	0.328
-211.494	460.315	0.045	0.098
-210.479	120.498	0.195	0.238
-209.465	-200.000	0.033	0.153
-208.450	-35.850	0.356	-0.189
-207.436	-200.000	0.092	0.000
-206.421	-200.000	0.045	0.256
-205.406	-38.025	0.044	0.023
-204.392	-33.671	-0.214	-0.116
-203.377	80.291	0.264	-0.280
-202.363	2.253	0.029	-0.020
-201.348	403.549	-0.031	0.065
-200.333	42.993	0.387	0.347
-199.319	-88.030	-0.377	0.111
-198.304	58.037	-0.223	-0.215
-197.290	518.252	0.095	0.219
-196.275	3.988	-0.150	0.108
-195.260	343.172	0.167	-0.322
-194.246	-24.621	0.243	0.142
-193.231	74.804	0.154	0.159
-192.217	-33.922	-0.401	0.217
-191.202	-130.661	-0.297	0.039
-190.187	-26.487	0.067	0.039
-189.173	-20.537	0.179	0.108
-188.158	37.623	0.244	0.213
-187.144	-163.700	-0.014	-0.001
-186.129	-51.439	0.019	0.009
-185.114	-158.359	-0.388	-0.022
-184.100	-21.319	-0.264	-0.159
-183.085	83.385	0.334	0.358
-182.071	60.385	0.253	0.246
-181.056	-167.440	-0.442	-0.017
-180.042	-109.899	-0.148	-0.031
-179.027	428.988	-0.124	-0.264
-178.012	63.146	0.338	-0.333
-176.998	29.433	-0.322	-0.269
-175.983	11.023	0.212	0.159
-174.969	-11.609	0.157	0.102
-173.954	-44.392	-0.101	-0.050
-172.939	-99.348	-0.245	-0.061
-171.925	107.803	-0.305	-0.357
-170.910	-33.325	0.252	0.137
-169.896	-64.530	0.277	0.111
-168.881	597.472	-0.092	-0.224
-167.866	57.716	0.095	-0.091
-166.852	27.456	-0.147	0.121
-165.837	-19.047	0.090	-0.055
-164.823	159.383	-0.042	0.057
-163.808	-108.298	-0.215	0.046
-162.793	395.894	0.103	0.211
-161.779	108.816	-0.092	0.108
-160.764	213.165	-0.070	-0.108
-159.750	-112.486	-0.206	0.040
-158.735	-200.000	-0.061	0.357
-157.720	800.000	-0.046	-0.137
-156.706	-89.774	0.298	0.086
-155.691	17.322	0.304	0.237
-154.677	-173.438	-0.267	-0.008
-153.662	391.003	-0.054	-0.110
-152.647	-61.314	-0.156	0.065
-151.633	718.765	-0.036	0.095
-150.618	101.649	-0.130	-0.149
-149.604	-200.000	-0.021	0.163
-148.589	176.965	0.177	-0.253
-147.574	-145.040	0.194	0.017
-146.560	-39.827	0.154	-0.079
-145.545	-8.074	-0.505	-0.335
-144.531	317.675	0.090	-0.167
-143.516	-120.630	-0.254	-0.042
-142.502	11.867	-0.055	-0.041
-141.487	-200.000	0.058	-0.342
-140.472	10.673	0.367	-0.275
-139.458	39.064	-0.217	0.191
-138.443	189.591	-0.155	-0.228
-137.429	800.000	0.052	-0.201
-136.414	43.225	-0.161	0.144
-135.399	-200.000	0.051	-0.390
-134.385	181.924	-0.177	-0.256
-133.370	-70.361	0.321	-0.120
-132.356	-106.999	0.135	0.029
-131.341	-200.000	0.027	-0.150
-130.326	257.889	-0.073	0.123
-129.312	342.454	0.035	-0.067
-128.297	-11.471	0.240	0.155
-127.283	46.536	0.086	0.078
-126.268	140.507	-0.113	0.146
-125.253	-71.930	-0.210	-0.077
-124.239	-35.024	0.408	-0.218
-123.224	136.762	-0.022	0.028
-122.210	96.531	-0.008	0.009
-121.195	735.947	0.064	-0.169
-120.180	-200.000	-0.038	-0.538
-119.166	-32.577	0.070	-0.038
-118.151	-114.367	0.180	-0.034
-117.137	27.741	-0.187	-0.155
-116.122	-173.152	0.171	0.005
-115.107	-200.000	0.042	-0.236
-114.093	-200.000	-0.015	0.065
-113.078	228.170	0.097	-0.156
-112.064	98.501	0.101	-0.114
-111.049	800.000	0.066	-0.239
-110.034	-2.402	-0.106	0.073
-109.020	159.320	0.183	-0.250
-108.005	800.000	0.026	-0.102
-106.991	-107.835	-0.146	-0.031
-105.976	72.455	-0.114	-0.116
-104.962	-57.437	0.284	-0.122
-103.947	19.499	-0.094	0.074
-102.932	-200.000	0.061	0.433
-101.918	33.815	0.117	0.100
-100.903	14.016	-0.184	0.140
-99.889	800.000	0.066	0.258
-98.874	185.873	-0.017	0.024
-97.859	-200.000	-0.030	0.246
-96.845	-145.306	-0.155	-0.014
-95.830	172.648	0.121	0.170
-94.816	-19.759	-0.297	-0.180
-93.801	-181.131	0.445	0.009
-92.786	429.078	0.039	-0.083
-91.772	124.542	-0.127	-0.156
-90.757	-200.000	0.000	0.076
-89.743	-89.767	0.151	0.043
-88.728	52.134	-0.232	-0.217
-87.713	245.134	0.001	-0.001
-86.699	43.153	0.058	0.052
-85.684	181.188	0.114	-0.165
-84.670	20.936	-0.128	-0.102
-83.655	-200.000	0.008	-0.154
-82.640	800.000	-0.063	-0.249
-81.626	464.536	-0.064	-0.141
-80.611	-77.285	0.300	-0.102
-79.597	-172.387	0.482	-0.015
-78.582	-46.851	-0.009	-0.004
-77.567	-200.000	-0.002	0.144
-76.553	-18.547	-0.144	-0.088
-75.538	35.193	-0.080	0.069
-74.524	800.000	0.116	0.422
-73.509	-84.685	-0.373	0.115
-72.494	-200.000	0.024	-0.126
-71.480	-173.255	-0.250	-0.007
-70.465	800.000	-0.054	0.170
-69.451	-58.767	0.273	-0.116
-68.436	346.690	0.054	-0.103
-67.422	11.306	0.055	-0.041
-66.407	-34.469	-0.185	0.099
-65.392	-56.313	0.345	-0.150
-64.378	467.654	0.066	-0.144
-63.363	570.506	0.164	0.391
-62.349	-153.875	-0.280	0.019
-61.334	18.870	-1.209	-0.948
-60.319	-55.915	0.585	0.255
-59.305	104.070	-0.864	-0.995
-58.290	344.173	0.722	1.387
-57.276	467.135	0.777	1.704
-56.261	-200.000	106.393	592.140
-55.246	461.128	1465.323	3196.463
-54.232	150.053	2650.145	3517.681
-53.217	101.233	2270.038	2585.830
-52.203	39.177	1888.449	1653.043
-51.188	33.453	1680.614	1428.063
-50.173	30.825	1637.616	1372.137
-49.159	49.539	1691.263	1557.740
-48.144	50.168	1707.037	1576.915
-47.130	33.015	1664.532	1410.899
-46.115	30.376	1649.652	1378.668
-45.100	30.121	1646.094	1373.749
-44.086	30.059	1643.376	1370.973
-43.071	30.007	1640.726	1368.321
-42.057	30.002	1637.958	1365.918
-41.042	30.062	1636.221	1364.863
-40.027	30.077	1634.273	1363.292
-39.013	30.078	1632.241	1361.549
-37.998	30.010	1631.008	1359.969
-36.984	30.131	1629.626	1359.649
-35.969	30.170	1628.007	1358.527
-34.954	30.253	1626.561	1357.874
-33.940	30.095	1624.953	1355.324
-32.925	30.209	1623.141	1354.592
-31.911	30.231	1620.939	1352.864
-30.896	30.230	1619.335	1351.464
-29.881	30.153	1617.968	1349.705
-28.867	30.081	1616.779	1348.142
-27.852	30.203	1614.604	1347.160
-26.838	30.223	1613.138	1346.026
-25.823	30.336	1611.424	1345.361
-24.809	30.262	1610.892	1344.327
-23.794	30.190	1608.951	1342.130
-22.779	30.193	1607.434	1340.840
-21.765	30.268	1605.929	1340.069
-20.750	30.172	1604.828	1338.405
-19.736	30.290	1602.849	1337.553
-18.721	30.354	1601.368	1336.726
-17.706	30.238	1600.181	1334.844
-16.692	30.285	1598.779	1333.963
-15.677	30.230	1597.333	1332.303
-14.663	30.227	1596.317	1331.385
-13.648	30.175	1595.082	1329.929
-12.633	30.196	1593.275	1328.519
-11.619	30.252	1591.925	1327.740
-10.604	30.285	1590.513	1326.750
-9.590	30.275	1589.131	1325.468
-8.575	30.214	1588.430	1324.398
-7.560	30.256	1587.068	1323.506
-6.546	30.239	1586.009	1322.452
-5.531	30.142	1584.811	1320.712
-4.517	30.215	1583.219	1319.854
-3.502	30.149	1582.396	1318.643
-2.487	30.264	1580.229	1317.601
-1.473	29.776	1568.298	1304.162
-0.458	26.669	1548.506	1265.974
0.556	20.249	1549.213	1230.399
1.571	17.718	1572.175	1230.291
2.586	17.236	1584.101	1236.007
3.600	16.165	1534.253	1189.454
4.615	12.615	1435.430	1089.286
5.629	9.182	1378.736	1024.313
6.644	8.510	1371.100	1014.291
7.659	8.470	1369.882	1013.044
8.673	8.418	1368.973	1011.950
9.688	8.342	1366.898	1009.848
10.702	8.241	1363.633	1006.707
11.717	9.934	1365.943	1019.019
12.731	13.882	1373.103	1049.262
13.746	16.746	1377.806	1070.900
14.761	17.036	1376.767	1071.831
15.775	16.106	1374.074	1063.773
16.790	15.001	1371.755	1054.918
17.804	14.225	1369.135	1047.925
18.819	13.738	1367.720	1043.691
19.834	13.581	1366.359	1041.569
20.848	13.269	1365.134	1038.582
21.863	12.989	1364.317	1036.113
22.877	12.860	1363.063	1034.263
23.892	12.885	1361.808	1033.372
24.907	12.860	1361.132	1032.611
25.921	12.894	1360.420	1032.190
26.936	12.893	1359.502	1031.399
27.950	12.955	1358.298	1030.781
28.965	13.055	1357.375	1030.614
29.980	13.065	1356.206	1029.700
30.994	13.186	1354.791	1029.288
32.009	13.146	1353.727	1028.139
33.023	13.079	1353.011	1027.084
34.038	13.076	1351.639	1025.938
35.053	12.931	1350.507	1024.088
36.067	12.971	1349.225	1023.274
37.082	12.924	1348.522	1022.357
38.096	13.113	1347.055	1022.324
39.111	13.153	1345.910	1021.613
40.126	12.914	1345.682	1019.870
41.140	12.951	1344.547	1019.146
42.155	12.801	1344.289	1017.938
43.169	12.815	1344.161	1017.833
44.184	12.808	1343.599	1017.277
45.199	12.756	1343.549	1016.825
46.213	12.893	1342.543	1016.819
47.228	12.862	1341.958	1016.097
48.242	13.009	1340.166	1015.553
49.257	12.955	1338.867	1014.147
50.271	12.840	1338.141	1012.802
51.286	12.970	1336.373	1012.172
52.301	12.896	1335.574	1011.022
53.315	12.870	1334.114	1009.672
54.330	12.856	1332.821	1008.518
55.344	12.821	1331.621	1007.303
56.359	12.835	1330.782	1006.665
57.374	12.918	1329.770	1006.320
58.388	12.841	1328.926	1005.120
59.403	12.683	1328.940	1004.081
60.417	12.736	1328.130	1003.699
61.432	12.610	1327.578	1002.431
62.447	12.759	1325.764	1001.874
63.461	12.715	1324.668	1000.695
64.476	12.642	1323.703	999.431
65.490	12.678	1322.894	998.950
66.505	12.655	1320.985	997.279
67.520	12.638	1320.146	996.455
68.534	12.747	1319.026	996.185
69.549	12.761	1317.712	995.187
70.563	12.725	1316.434	993.917
71.578	12.665	1315.835	993.013
72.593	12.620	1314.787	991.862
73.607	12.569	1314.520	991.269
74.622	12.549	1313.440	990.242
75.636	12.524	1312.818	989.536
76.651	12.655	1311.659	989.363
77.666	12.767	1311.580	989.893
78.680	12.673	1311.329	989.051
79.695	12.693	1310.477	988.439
80.709	12.724	1309.847	988.061
81.724	12.802	1308.701	987.575
82.739	12.889	1307.577	987.164
83.753	12.827	1307.024	986.288
84.768	13.021	1305.984	986.574
85.782	13.081	1304.915	986.037
86.797	12.992	1303.443	984.309
87.812	12.943	1301.881	982.749
88.826	12.895	1301.466	982.066
89.841	12.881	1300.223	980.953
90.855	12.877	1299.401	980.224
91.870	12.950	1298.727	980.064
92.884	12.943	1297.356	978.902
93.899	13.023	1296.963	978.992
94.914	13.128	1295.813	978.660
95.928	13.084	1294.942	977.653
96.943	13.007	1294.194	976.549
97.957	13.017	1293.402	975.922
98.972	13.063	1292.095	975.121
99.987	13.142	1290.673	974.429
101.001	13.014	1289.771	972.905
102.016	13.022	1289.468	972.636
103.030	13.058	1288.217	971.822
104.045	12.980	1286.963	970.332
105.060	13.034	1286.100	969.910
106.074	12.852	1284.804	967.777
107.089	12.812	1283.062	966.149
108.103	12.857	1282.125	965.617
109.118	12.617	1281.013	963.291
110.133	12.698	1280.006	962.922
111.147	12.702	1278.317	961.591
112.162	12.741	1277.347	961.001
113.176	12.766	1276.348	960.311
114.191	12.826	1275.327	959.809
115.206	12.863	1274.075	958.998
116.220	12.944	1272.372	958.101
117.235	12.855	1271.647	956.953
118.249	12.845	1270.643	956.057
119.264	12.796	1269.340	954.706
120.279	12.807	1268.423	953.994
121.293	12.771	1266.966	952.606
122.308	12.773	1266.504	952.187
123.322	12.734	1265.288	950.962
124.337	12.689	1264.307	949.884
125.352	12.735	1263.254	949.274
126.366	12.776	1261.505	948.113
127.381	12.743	1260.937	947.411
128.395	12.769	1259.846	946.655
129.410	12.820	1259.019	946.245
130.424	12.780	1258.145	945.272
131.439	12.783	1257.298	944.570
132.454	12.872	1256.295	944.241
133.468	12.882	1255.579	943.678
134.483	12.870	1254.693	942.859
135.497	12.852	1253.850	942.040
136.512	12.840	1252.274	940.706
137.527	12.892	1251.189	940.104
138.541	12.821	1249.710	938.506
139.556	12.946	1248.449	938.188
140.570	12.975	1247.282	937.392
141.585	13.037	1245.993	936.689
142.600	13.095	1244.808	936.045
143.614	13.114	1244.188	935.603
144.629	13.085	1242.989	934.458
145.643	13.099	1241.714	933.493
146.658	12.982	1240.913	932.151
147.673	12.973	1239.235	930.754
148.687	12.954	1238.208	929.794
149.702	13.020	1236.667	928.924
150.716	12.945	1235.231	927.346
151.731	13.103	1233.546	926.883
152.746	12.946	1233.152	925.623
153.760	13.016	1231.895	924.993
154.775	13.059	1230.783	924.314
155.789	13.098	1229.669	923.615
156.804	13.083	1229.098	923.020
157.819	13.171	1227.906	922.537
158.833	13.183	1227.312	922.072
159.848	13.134	1226.474	921.089
160.862	13.159	1225.269	920.243
161.877	13.115	1224.314	919.202
162.892	13.060	1222.756	917.641
163.906	13.122	1221.961	917.311
164.921	13.047	1221.494	916.463
165.935	13.134	1220.183	915.878
166.950	13.137	1219.758	915.495
167.964	13.082	1219.163	914.666
168.979	13.069	1218.570	914.066
169.994	13.246	1217.450	914.124
171.008	13.189	1216.916	913.329
172.023	13.254	1215.974	912.895
173.037	13.242	1215.382	912.309
174.052	13.230	1214.337	911.376
175.067	13.255	1212.548	910.092
176.081	13.232	1212.130	909.566
177.096	13.091	1211.584	908.304
178.110	13.198	1210.208	907.778
179.125	13.181	1209.215	906.859
180.140	13.276	1207.936	906.344
181.154	13.214	1206.797	905.066
182.169	13.342	1205.457	904.685
183.183	13.378	1204.487	904.070
184.198	13.327	1203.384	902.884
185.213	13.431	1202.059	902.380
186.227	13.472	1201.307	901.958
187.242	13.512	1199.780	900.950
188.256	13.489	1199.024	900.175
189.271	13.499	1198.003	899.385
190.286	13.364	1197.668	898.320
191.300	13.176	1196.160	896.091
192.315	13.258	1195.445	895.918
193.329	13.160	1194.943	894.935
194.344	13.349	1194.114	895.254
195.359	13.295	1193.839	894.677
196.373	13.343	1193.324	894.474
197.388	13.492	1193.115	895.044
198.402	13.557	1192.400	894.776
199.417	13.514	1191.581	893.850
200.432	13.733	1190.062	893.816
201.446	13.693	1189.943	893.432
202.461	13.786	1189.220	893.307
203.475	13.655	1188.129	891.705
204.490	13.735	1186.483	890.820
205.504	13.608	1185.256	889.140
206.519	13.607	1184.494	888.482
207.534	13.569	1183.523	887.476
208.548	13.587	1182.687	886.863
209.563	13.556	1181.978	886.088
210.577	13.502	1181.153	885.103
211.592	13.624	1180.013	884.821
212.607	13.783	1178.680	884.590
213.621	13.801	1177.877	884.006
214.636	13.762	1176.878	882.969
215.650	13.796	1176.093	882.484
216.665	13.845	1175.253	882.035
217.680	13.833	1174.614	881.417
218.694	13.904	1173.902	881.179
219.709	13.924	1172.465	880.129
220.723	14.001	1171.947	880.071
221.738	13.958	1171.275	879.261
222.753	13.909	1170.586	878.407
223.767	13.942	1169.715	877.851
224.782	13.990	1169.264	877.684
225.796	14.046	1168.921	877.645
226.811	13.955	1168.209	876.555
227.826	14.034	1167.385	876.277
228.840	13.942	1166.957	875.392
229.855	13.957	1166.047	874.712
230.869	13.938	1165.011	873.757
231.884	13.951	1164.146	873.099
232.899	13.909	1163.281	872.153
233.913	13.853	1162.569	871.249
234.928	13.968	1161.745	871.154
235.942	13.800	1161.337	869.892
236.957	13.948	1160.686	870.103
237.972	13.918	1159.561	869.026
238.986	13.862	1159.021	868.249
240.001	13.995	1158.459	868.449
241.015	13.936	1157.865	867.616
242.030	13.982	1156.832	867.007
243.045	14.088	1155.675	866.616
244.059	14.142	1154.940	866.269
245.074	14.071	1154.140	865.221
246.088	14.123	1153.593	865.006
247.103	14.196	1152.629	864.586
248.117	14.184	1152.413	864.288
249.132	14.310	1151.614	864.263
250.147	14.275	1151.062	863.590
251.161	14.530	1149.945	863.998
252.176	14.443	1149.533	863.161
253.190	14.587	1148.545	863.089
254.205	14.567	1147.957	862.469
255.220	14.602	1147.657	862.348
256.234	14.569	1147.283	861.819
257.249	14.630	1146.392	861.385
258.263	14.568	1145.731	860.492
259.278	14.551	1145.110	859.865
260.293	14.545	1144.735	859.477
261.307	14.632	1144.009	859.303
262.322	14.688	1143.233	858.934
263.336	14.695	1142.305	858.196
264.351	14.661	1142.206	857.871
265.366	14.602	1141.508	856.967
266.380	14.656	1140.798	856.635
267.395	14.701	1139.351	855.705
268.409	14.695	1139.064	855.382
269.424	14.595	1138.805	854.600
270.439	14.685	1137.984	854.367
271.453	14.619	1137.046	853.252
272.468	14.643	1136.209	852.669
273.482	14.605	1135.332	851.741
274.497	14.616	1135.110	851.554
275.512	14.686	1133.894	850.924
276.526	14.643	1133.806	850.563
277.541	14.679	1132.790	849.911
278.555	14.711	1131.802	849.256
279.570	14.823	1131.370	849.425
280.585	14.930	1130.351	849.131
281.599	14.835	1129.980	848.292
282.614	14.790	1128.818	847.119
283.628	14.760	1127.764	846.102
284.643	14.850	1126.540	845.564
285.657	14.913	1125.578	845.084
286.672	14.873	1124.781	844.209
287.687	14.992	1123.664	843.896
288.701	14.854	1123.601	843.077
289.716	14.861	1122.761	842.408
290.730	14.909	1121.608	841.713
291.745	15.036	1121.038	841.848
292.760	14.991	1120.575	841.197
293.774	14.964	1120.395	840.853
294.789	15.139	1119.306	840.841
295.803	15.045	1118.934	840.014
296.818	15.060	1118.251	839.502
297.833	14.983	1117.498	838.478
298.847	15.136	1116.308	838.278
299.862	15.011	1115.858	837.236
300.876	15.024	1115.365	836.858
301.891	15.172	1114.350	836.765
302.906	15.227	1113.360	836.223
303.920	15.141	1113.142	835.553
304.935	15.086	1112.211	834.506
305.949	15.318	1111.569	835.106
306.964	15.339	1110.866	834.610
307.979	15.238	1110.376	833.666
308.993	15.169	1109.811	832.824
310.008	15.280	1108.777	832.524
311.022	15.252	1108.123	831.822
312.037	15.375	1107.033	831.541
313.052	15.330	1106.519	830.857
314.066	15.222	1105.510	829.493
315.081	15.086	1104.775	828.197
316.095	15.172	1103.799	827.813
317.110	15.216	1103.002	827.361
318.125	15.250	1102.446	827.037
319.139	15.190	1101.669	826.087
320.154	15.317	1100.941	826.094
321.168	15.238	1100.138	825.029
322.183	15.267	1099.806	824.850
323.197	15.216	1099.266	824.119
324.212	15.325	1098.483	823.996
325.227	15.307	1098.139	823.575
326.241	15.387	1097.418	823.356
327.256	15.367	1096.554	822.536
328.270	15.331	1095.512	821.504
329.285	15.252	1094.932	820.612
330.300	15.350	1093.434	819.895
331.314	15.380	1092.668	819.393
332.329	15.398	1091.937	818.861
333.343	15.401	1091.098	818.176
334.358	15.430	1090.227	817.591
335.373	15.455	1089.557	817.139
336.387	15.524	1088.985	816.974
337.402	15.535	1088.327	816.460
338.416	15.483	1087.816	815.754
339.431	15.616	1086.845	815.595
340.446	15.643	1086.704	815.548
341.460	15.638	1085.799	814.773
342.475	15.658	1085.384	814.488
343.489	15.859	1083.580	814.033
344.504	15.753	1082.841	812.893
345.519	15.895	1081.789	812.718
346.533	15.872	1081.203	812.093
347.548	15.783	1080.649	811.176
348.562	15.802	1080.039	810.741
349.577	15.847	1079.064	810.150
350.592	15.732	1078.683	809.242
351.606	15.744	1077.455	808.307
352.621	15.689	1076.995	807.626
353.635	15.688	1076.412	807.114
354.650	15.695	1075.562	806.437
355.665	15.799	1074.720	806.231
356.679	15.951	1074.505	806.729
357.694	15.889	1073.568	805.655
358.708	15.891	1072.919	805.107
359.723	15.895	1072.542	804.773
360.738	15.917	1072.090	804.469
361.752	15.840	1071.572	803.639
362.767	15.973	1070.884	803.686
363.781	15.953	1070.295	803.077
364.796	16.050	1069.607	802.952
365.810	16.052	1069.197	802.585
366.825	16.135	1068.994	802.756
367.840	16.238	1068.064	802.477
368.854	16.245	1067.442	801.971
369.869	16.170	1066.666	800.960
370.883	16.129	1065.715	799.982
371.898	16.035	1064.863	798.827
372.913	16.189	1064.294	799.057
373.927	16.142	1063.844	798.427
374.942	16.224	1063.410	798.420
375.956	16.260	1062.876	798.120
376.971	16.300	1062.380	797.863
377.986	16.202	1062.046	797.081
379.000	16.358	1061.374	797.238
380.015	16.419	1060.528	796.824
381.029	16.308	1060.313	796.068
382.044	16.382	1058.919	795.300
383.059	16.434	1058.372	795.063
384.073	16.356	1058.052	794.382
385.088	16.416	1056.893	793.727
386.102	16.561	1055.915	793.602
387.117	16.474	1054.898	792.357
388.132	16.327	1054.163	791.048
389.146	16.409	1053.557	790.906
390.161	16.436	1052.617	790.260
391.175	16.363	1052.310	789.615
392.190	16.392	1051.455	789.041
393.205	16.479	1050.494	788.657
394.219	16.509	1049.970	788.333
395.234	16.377	1049.395	787.214
396.248	16.426	1048.083	786.389
397.263	16.430	1047.312	785.761
398.278	16.458	1046.533	785.235
399.292	16.430	1045.441	784.215
400.307	16.382	1045.007	783.599
401.321	16.354	1044.266	782.847
402.336	16.404	1044.134	782.908
403.350	16.339	1043.352	781.954
404.365	16.400	1042.494	781.519
405.380	16.486	1041.353	780.995
406.394	16.471	1040.717	780.380
407.409	16.575	1039.883	780.162
408.423	16.728	1039.225	780.307
409.438	16.729	1038.756	779.889
410.453	16.678	1038.046	779.053
411.467	16.728	1037.384	778.717
412.482	16.853	1036.842	778.814
413.496	16.816	1036.117	778.034
414.511	16.751	1035.445	777.163
415.526	16.908	1035.056	777.522
416.540	16.961	1034.764	777.475
417.555	17.013	1034.022	777.089
418.569	16.884	1033.856	776.302
419.584	16.924	1033.096	775.845
420.599	16.912	1032.697	775.423
421.613	103.112	1322.879	1469.799
422.628	94.395	1365.107	1469.879
