DTS Sentinel unit serial number:	SN413079Multiplexer serial number:	ORYXHardware model number:	OX4-SRSoftware version number:	ORYX F/W v4.00 Oryx Data Collector v3.7.2.0data status	okinstallation	princeton_trtdifferential loss correction	single-endedforward channel	channel 2reverse channel	N/Adate	2019/09/13time	13:19:34forward acquisition time	60.00reverse acquisition time	0.00gamma	496.2192k internal	0.2315k external	0.2315temperature offset calibration	1.0208default loss term (dB/km)	0.3790temperature slope calibration	1.0000multiplexer offset coefficient	1.0000multiplexer slope coefficient	1.0000fibre end	0.00T internal ref (°C)	34.94T ext. ref 1 (°C)	4.57T ext. ref 2 (°C)	31.69length (m)	temperature (°C)	Stokes	anti-Stokes-747.200	218.841	0.103	-0.167
-746.185	-200.000	-0.092	0.503
-745.171	800.000	-0.018	-0.078
-744.156	-200.000	0.065	0.325
-743.142	-200.000	-0.017	0.078
-742.127	16.842	0.174	0.140
-741.112	697.164	-0.088	0.235
-740.098	462.084	0.186	0.420
-739.083	-31.841	-0.142	0.081
-738.069	-200.000	-0.006	0.139
-737.054	-200.000	0.041	0.295
-736.039	203.336	-0.030	0.047
-735.025	159.266	-0.157	0.221
-734.010	800.000	0.104	-0.358
-732.996	-116.826	-0.311	-0.058
-731.981	301.991	-0.240	-0.450
-730.966	22.566	0.183	-0.152
-729.952	37.903	-0.074	0.067
-728.937	198.992	0.121	0.188
-727.923	82.027	0.162	-0.178
-726.908	-51.767	-0.235	0.111
-725.894	-85.542	-0.089	0.028
-724.879	596.525	-0.025	-0.064
-723.864	800.000	-0.056	0.238
-722.850	60.486	0.038	-0.038
-721.835	-69.673	-0.360	0.139
-720.821	404.748	0.099	0.210
-719.806	-125.801	-0.136	-0.021
-718.791	-146.108	-0.219	-0.020
-717.777	-41.992	0.222	0.115
-716.762	-128.359	-0.235	0.034
-715.748	328.475	-0.115	-0.225
-714.733	-200.000	0.020	-0.099
-713.718	-200.000	0.037	-0.243
-712.704	-142.772	0.091	-0.009
-711.689	-200.000	0.089	-0.443
-710.675	-43.124	-0.221	-0.114
-709.660	-200.000	-0.063	-0.389
-708.645	-200.000	0.030	0.206
-707.631	-200.000	0.012	0.139
-706.616	-102.192	-0.291	-0.071
-705.602	256.308	0.181	-0.315
-704.587	112.084	-0.108	0.132
-703.572	-199.689	0.372	0.002
-702.558	-47.694	-0.077	0.038
-701.543	-125.600	0.157	0.024
-700.529	340.022	0.155	-0.305
-699.514	5.592	-0.114	-0.085
-698.499	204.035	-0.097	0.152
-697.485	141.146	-0.216	0.289
-696.470	-69.619	-0.438	-0.169
-695.456	45.430	-0.180	-0.168
-694.441	800.000	0.049	-0.157
-693.426	341.710	0.038	-0.075
-692.412	800.000	-0.059	-0.209
-691.397	800.000	0.076	-0.248
-690.383	124.122	0.031	0.040
-689.368	-129.635	-0.189	0.026
-688.354	0.256	-0.213	0.154
-687.339	-39.416	-0.138	-0.073
-686.324	-200.000	-0.162	0.000
-685.310	-117.763	0.230	-0.042
-684.295	-79.237	-0.331	0.113
-683.281	218.783	0.168	-0.271
-682.266	-41.074	-0.399	0.208
-681.251	276.138	-0.106	-0.190
-680.237	-99.202	-0.161	-0.041
-679.222	-63.828	-0.262	0.109
-678.208	-200.000	0.057	-0.357
-677.193	800.000	0.019	-0.072
-676.178	-200.000	-0.087	0.000
-675.164	243.826	-0.239	0.406
-674.149	452.622	-0.098	-0.219
-673.135	92.073	-0.081	-0.092
-672.120	11.473	0.186	0.144
-671.105	-72.553	0.275	-0.103
-670.091	-200.000	0.028	-0.123
-669.076	-160.454	0.339	0.018
-668.062	-200.000	0.027	0.237
-667.047	-83.475	0.214	-0.069
-666.032	800.000	0.032	-0.115
-665.018	712.735	0.051	-0.137
-664.003	79.798	-0.101	-0.109
-662.989	57.500	-0.156	-0.154
-661.974	307.071	-0.104	0.196
-660.959	-35.110	-0.256	-0.141
-659.945	-143.157	-0.085	-0.008
-658.930	-200.000	-0.020	-0.194
-657.916	-30.149	0.206	0.118
-656.901	800.000	-0.043	-0.165
-655.886	800.000	-0.103	-0.427
-654.872	36.218	-0.233	-0.207
-653.857	119.260	-0.169	0.211
-652.843	5.799	-0.039	0.029
-651.828	-156.866	-0.296	-0.018
-650.814	109.496	-0.135	-0.163
-649.799	-112.917	-0.086	-0.017
-648.784	-53.061	0.156	-0.072
-647.770	-200.000	-0.030	0.305
-646.755	-139.144	-0.219	-0.024
-645.741	36.042	-0.244	-0.217
-644.726	-36.392	0.105	0.057
-643.711	-200.000	-0.011	-0.049
-642.697	28.838	0.018	0.015
-641.682	-200.000	-0.029	-0.218
-640.668	-200.000	-0.032	0.382
-639.653	-33.198	-0.167	0.093
-638.638	18.871	-0.231	-0.186
-637.624	-42.665	0.181	0.093
-636.609	248.029	-0.125	-0.213
-635.595	800.000	0.107	0.367
-634.580	5.222	-0.070	-0.052
-633.565	256.434	-0.199	-0.344
-632.551	156.921	-0.200	-0.279
-631.536	-200.000	0.047	-0.290
-630.522	-200.000	-0.017	-0.085
-629.507	147.535	0.113	-0.154
-628.492	40.107	0.064	-0.058
-627.478	-61.016	-0.207	0.088
-626.463	800.000	0.067	-0.211
-625.449	-75.158	-0.333	0.120
-624.434	189.203	0.177	-0.267
-623.419	-61.317	-0.183	0.078
-622.405	-200.000	0.018	0.193
-621.390	-96.453	-0.361	-0.096
-620.376	-146.837	-0.310	-0.027
-619.361	300.443	0.046	-0.086
-618.346	-101.694	0.193	-0.047
-617.332	-157.788	0.264	-0.016
-616.317	-40.622	0.063	0.033
-615.303	279.681	0.078	-0.141
-614.288	19.490	-0.103	0.084
-613.273	-12.942	-0.363	-0.238
-612.259	-151.323	-0.288	-0.022
-611.244	140.427	0.143	-0.191
-610.230	422.017	0.253	-0.547
-609.215	-110.429	0.219	-0.046
-608.201	89.712	0.281	-0.316
-607.186	-200.000	-0.038	-0.391
-606.171	-200.000	0.040	0.269
-605.157	-114.239	-0.364	-0.071
-604.142	-108.707	-0.098	0.021
-603.128	-88.765	-0.166	-0.050
-602.113	-200.000	-0.015	-0.170
-601.098	-35.083	-0.145	-0.080
-600.084	-22.039	0.254	0.155
-599.069	23.920	0.155	-0.129
-598.055	34.488	0.206	-0.181
-597.040	-200.000	-0.006	-0.223
-596.025	-113.948	-0.193	0.038
-595.011	177.331	0.040	0.059
-593.996	232.194	-0.036	0.059
-592.982	505.023	-0.096	0.224
-591.967	-178.462	-0.083	-0.002
-590.952	800.000	-0.034	0.111
-589.938	-84.513	-0.206	0.065
-588.923	-200.000	-0.025	0.113
-587.909	65.106	-0.111	-0.113
-586.894	161.693	0.022	-0.031
-585.879	158.579	0.213	-0.298
-584.865	800.000	0.056	0.217
-583.850	56.411	-0.197	0.193
-582.836	95.638	0.088	0.101
-581.821	-200.000	-0.049	0.262
-580.806	360.520	-0.168	-0.339
-579.792	21.944	0.023	-0.019
-578.777	-132.470	0.421	0.055
-577.763	151.856	0.087	0.119
-576.748	41.043	0.139	0.126
-575.733	-79.084	0.382	-0.131
-574.719	325.035	0.122	0.234
-573.704	-200.000	0.025	-0.182
-572.690	-93.469	0.281	0.078
-571.675	-200.000	-0.018	0.110
-570.661	800.000	-0.044	0.137
-569.646	-110.167	0.369	-0.078
-568.631	-76.776	-0.292	0.103
-567.617	-23.392	0.164	0.099
-566.602	-173.375	-0.288	0.009
-565.588	55.729	-0.070	0.069
-564.573	93.316	0.210	-0.240
-563.558	-104.311	-0.139	-0.032
-562.544	-99.653	0.443	-0.112
-561.529	-53.849	-0.182	0.083
-560.515	254.037	0.060	0.104
-559.500	-47.981	0.282	0.137
-558.485	-200.000	-0.063	0.326
-557.471	30.010	0.055	-0.047
-556.456	-12.869	0.036	0.024
-555.442	239.351	0.100	0.167
-554.427	-179.591	0.073	-0.002
-553.412	-78.375	-0.162	0.056
-552.398	800.000	0.103	0.324
-551.383	-64.719	-0.217	-0.089
-550.369	165.083	-0.281	-0.399
-549.354	127.228	-0.137	-0.175
-548.339	800.000	-0.062	-0.261
-547.325	81.320	0.291	0.316
-546.310	-200.000	-0.082	0.401
-545.296	-138.824	0.181	0.020
-544.281	51.356	-0.109	-0.104
-543.266	-87.205	-0.193	-0.059
-542.252	-122.349	0.345	-0.057
-541.237	-59.606	-0.094	-0.040
-540.223	-81.242	-0.186	0.062
-539.208	-200.000	0.014	-0.283
-538.193	475.788	0.109	0.249
-537.179	87.733	-0.165	-0.183
-536.164	-30.075	-0.216	-0.123
-535.150	-200.000	0.002	-0.124
-534.135	188.110	-0.162	-0.243
-533.121	-200.000	-0.003	0.042
-532.106	-105.410	-0.127	0.029
-531.091	163.282	0.179	0.253
-530.077	-95.894	-0.227	-0.061
-529.062	45.218	-0.228	-0.211
-528.048	136.276	0.060	0.078
-527.033	-120.426	-0.065	0.011
-526.018	98.890	-0.104	0.121
-525.004	-107.387	0.129	-0.028
-523.989	-29.198	0.227	-0.131
-522.975	31.827	-0.145	0.125
-521.960	-115.274	0.452	0.086
-520.945	471.154	0.100	-0.227
-519.931	224.469	-0.186	-0.302
-518.916	7.720	0.109	0.082
-517.902	395.224	0.210	-0.440
-516.887	-151.219	-0.298	-0.022
-515.872	81.281	0.069	-0.075
-514.858	-200.000	0.028	-0.273
-513.843	-200.000	0.076	0.416
-512.829	-2.943	0.211	-0.148
-511.814	40.130	0.081	0.073
-510.799	-136.857	-0.254	-0.029
-509.785	-187.276	0.210	0.003
-508.770	-200.000	0.062	-0.323
-507.756	-131.717	0.085	0.011
-506.741	68.795	-0.160	-0.165
-505.726	-91.389	0.286	0.082
-504.712	525.326	0.055	-0.131
-503.697	47.842	0.093	-0.088
-502.683	800.000	-0.058	-0.225
-501.668	-95.717	-0.101	0.027
-500.653	-200.000	-0.013	0.177
-499.639	78.317	0.128	0.137
-498.624	71.136	-0.143	0.149
-497.610	-117.651	0.213	-0.039
-496.595	-60.209	-0.309	0.132
-495.581	82.538	0.228	0.248
-494.566	157.394	-0.215	0.299
-493.551	283.471	0.183	-0.329
-492.537	-72.230	-0.193	-0.072
-491.522	125.655	-0.120	0.151
-490.508	287.653	0.074	-0.135
-489.493	-110.117	-0.035	0.007
-488.478	-57.895	0.280	0.123
-487.464	-200.000	0.002	-0.149
-486.449	69.027	-0.121	-0.125
-485.435	29.859	0.116	0.099
-484.420	-37.814	0.126	0.067
-483.405	157.066	0.186	0.258
-482.391	-142.657	-0.210	-0.021
-481.376	-168.376	0.174	0.007
-480.362	36.930	-0.351	0.311
-479.347	-35.556	-0.149	0.081
-478.332	-28.590	-0.243	0.141
-477.318	800.000	-0.040	0.165
-476.303	12.641	-0.219	-0.170
-475.289	-90.509	-0.189	0.055
-474.274	800.000	0.104	0.302
-473.259	-61.786	0.069	-0.029
-472.245	-200.000	-0.066	-0.357
-471.230	112.917	-0.147	-0.178
-470.216	-200.000	-0.082	0.420
-469.201	-147.169	-0.345	0.030
-468.186	800.000	0.142	0.404
-467.172	-11.117	0.104	0.069
-466.157	-74.259	0.259	-0.094
-465.143	-69.622	-0.319	-0.122
-464.128	-129.948	0.041	0.006
-463.113	-84.443	-0.039	0.012
-462.099	210.492	0.205	0.323
-461.084	-62.321	0.280	0.117
-460.070	202.010	-0.099	-0.153
-459.055	-17.939	-0.046	-0.029
-458.040	-41.473	0.182	-0.094
-457.026	79.314	-0.144	0.155
-456.011	-70.427	0.200	0.076
-454.997	-95.300	-0.192	-0.052
-453.982	-200.000	-0.018	0.377
-452.968	42.489	-0.219	0.200
-451.953	-117.619	-0.306	-0.055
-450.938	-200.000	-0.004	-0.109
-449.924	34.450	-0.007	-0.006
-448.909	-200.000	-0.018	0.128
-447.895	497.270	-0.070	0.161
-446.880	-200.000	0.011	0.086
-445.865	101.487	-0.186	-0.217
-444.851	196.806	-0.002	-0.003
-443.836	800.000	-0.094	-0.408
-442.822	118.679	-0.153	0.190
-441.807	22.242	0.109	0.089
-440.792	-200.000	-0.002	0.221
-439.778	800.000	0.017	0.068
-438.763	-108.329	0.299	0.065
-437.749	-52.831	-0.188	-0.087
-436.734	800.000	0.023	-0.079
-435.719	45.505	0.075	-0.070
-434.705	-138.194	-0.179	-0.020
-433.690	121.950	-0.277	-0.346
-432.676	620.674	0.159	0.401
-431.661	-72.654	0.086	-0.032
-430.646	-24.270	-0.258	0.154
-429.632	421.765	0.044	-0.095
-428.617	456.353	0.092	0.204
-427.603	413.486	-0.055	0.116
-426.588	76.758	-0.176	-0.187
-425.573	-200.000	0.016	0.205
-424.559	86.273	0.123	0.136
-423.544	-113.010	-0.313	0.062
-422.530	-200.000	0.006	-0.094
-421.515	-67.582	-0.287	-0.113
-420.500	120.397	-0.044	-0.055
-419.486	89.479	0.136	0.152
-418.471	-113.837	-0.060	0.012
-417.457	31.396	0.111	-0.096
-416.442	-200.000	-0.048	0.373
-415.428	63.257	0.079	0.079
-414.413	800.000	0.089	0.265
-413.398	-3.599	0.207	0.144
-412.384	88.093	0.064	-0.071
-411.369	-200.000	0.053	-0.337
-410.355	-200.000	-0.027	0.268
-409.340	-13.320	0.067	-0.043
-408.325	213.020	-0.061	0.097
-407.311	129.382	-0.035	-0.045
-406.296	-96.709	-0.272	-0.072
-405.282	-200.000	0.024	0.298
-404.267	800.000	0.046	-0.157
-403.252	-22.435	0.261	0.158
-402.238	-200.000	-0.021	0.169
-401.223	-127.157	0.233	-0.034
-400.209	-121.925	-0.450	0.074
-399.194	-117.294	0.230	0.042
-398.179	22.156	-0.179	-0.146
-397.165	153.322	0.187	-0.256
-396.150	-200.000	0.020	0.226
-395.136	-133.585	-0.127	0.016
-394.121	-198.968	0.170	0.001
-393.106	13.955	0.289	-0.225
-392.092	-138.067	-0.190	0.021
-391.077	83.257	0.107	-0.116
-390.063	480.805	-0.085	0.194
-389.048	800.000	0.074	0.259
-388.033	140.457	-0.284	-0.374
-387.019	112.330	0.066	0.079
-386.004	165.649	0.107	-0.151
-384.990	-85.712	-0.213	0.066
-383.975	-161.191	0.117	0.006
-382.960	126.955	0.126	-0.160
-381.946	-13.646	-0.141	0.091
-380.931	121.767	0.210	0.262
-379.917	800.000	-0.055	0.169
-378.902	-200.000	0.012	0.323
-377.888	26.553	-0.164	0.137
-376.873	-175.756	0.116	-0.003
-375.858	128.702	0.164	0.209
-374.844	-200.000	0.002	-0.419
-373.829	-156.572	-0.063	0.004
-372.815	-200.000	-0.028	0.267
-371.800	-28.836	0.304	-0.175
-370.785	800.000	-0.067	0.246
-369.771	304.179	-0.129	-0.239
-368.756	-50.734	0.135	0.063
-367.742	188.704	0.264	0.394
-366.727	77.937	0.294	0.313
-365.712	-200.000	0.013	-0.085
-364.698	99.380	-0.202	-0.234
-363.683	-200.000	0.019	0.093
-362.669	8.904	-0.022	0.017
-361.654	-23.748	0.172	0.103
-360.639	-200.000	-0.012	0.693
-359.625	-57.196	-0.328	-0.144
-358.610	-50.333	-0.225	0.106
-357.596	372.104	-0.132	0.267
-356.581	-26.836	-0.147	0.086
-355.566	-17.309	0.061	0.038
-354.552	571.467	-0.072	0.175
-353.537	800.000	0.040	-0.114
-352.523	-200.000	-0.012	-0.053
-351.508	-127.029	0.147	0.022
-350.493	-90.272	-0.175	0.051
-349.479	-199.447	-0.206	0.001
-348.464	-113.101	0.347	-0.068
-347.450	-200.000	0.023	0.211
-346.435	270.809	-0.047	-0.082
-345.420	306.078	-0.097	0.179
-344.406	297.634	-0.039	-0.072
-343.391	357.987	-0.083	0.166
-342.377	402.504	-0.076	0.159
-341.362	-89.236	-0.229	-0.067
-340.348	34.338	0.236	-0.206
-339.333	-200.000	0.006	0.370
-338.318	256.288	0.128	0.219
-337.304	800.000	0.109	-0.458
-336.289	78.026	-0.219	0.233
-335.275	800.000	0.149	-0.500
-334.260	288.131	0.014	0.024
-333.245	2.690	-0.204	-0.148
-332.231	21.200	-0.160	-0.130
-331.216	74.784	-0.156	0.164
-330.202	-103.859	-0.192	0.045
-329.187	-82.963	-0.150	-0.048
-328.172	-66.547	-0.188	0.074
-327.158	80.809	0.183	0.197
-326.143	128.313	0.151	0.192
-325.129	-200.000	0.020	0.173
-324.114	-2.259	0.328	-0.230
-323.099	696.370	0.015	-0.038
-322.085	-106.411	0.323	-0.072
-321.070	127.460	-0.095	-0.120
-320.056	-100.410	0.267	0.066
-319.041	383.619	-0.060	-0.123
-318.026	491.835	-0.090	-0.205
-317.012	-200.000	0.031	0.000
-315.997	800.000	0.041	-0.170
-314.983	-200.000	0.044	-0.242
-313.968	-78.719	-0.209	0.071
-312.953	-4.891	-0.323	-0.222
-311.939	-135.911	0.107	0.013
-310.924	-200.000	0.006	0.123
-309.910	-105.534	-0.218	-0.049
-308.895	627.935	-0.034	-0.084
-307.880	40.178	-0.106	0.095
-306.866	33.352	0.220	0.191
-305.851	-66.950	-0.191	-0.075
-304.837	113.944	-0.144	0.174
-303.822	71.547	0.302	0.312
-302.807	-81.901	0.177	0.058
-301.793	-153.626	-0.218	0.015
-300.778	38.788	0.246	0.219
-299.764	-69.558	0.159	-0.061
-298.749	-39.296	0.206	0.108
-297.735	-8.856	-0.141	0.094
-296.720	361.020	-0.038	-0.075
-295.705	-112.986	0.044	0.009
-294.691	217.925	-0.114	-0.180
-293.676	-100.041	-0.225	-0.056
-292.662	146.543	0.098	0.131
-291.647	441.555	-0.018	-0.039
-290.632	53.856	0.199	-0.191
-289.618	85.119	-0.010	-0.011
-288.603	-133.295	0.269	-0.034
-287.589	-159.049	-0.200	0.011
-286.574	31.582	-0.268	-0.230
-285.559	195.962	0.202	-0.307
-284.545	-200.000	-0.006	-0.208
-283.530	800.000	-0.075	-0.308
-282.516	156.057	0.050	-0.069
-281.501	-1.479	-0.326	0.229
-280.486	-168.751	-0.032	0.001
-279.472	-200.000	-0.013	-0.194
-278.457	-93.597	-0.022	0.006
-277.443	-134.496	-0.185	0.023
-276.428	56.786	0.179	-0.173
-275.413	-20.310	0.393	-0.241
-274.399	800.000	-0.059	-0.193
-273.384	213.260	0.131	-0.206
-272.370	249.736	-0.065	0.110
-271.355	104.173	0.377	0.442
-270.340	-114.023	0.189	0.037
-269.326	-101.404	0.101	0.024
-268.311	360.335	-0.144	-0.288
-267.297	-63.813	0.171	0.070
-266.282	68.312	-0.277	-0.282
-265.267	-38.331	0.406	0.214
-264.253	43.584	0.231	-0.210
-263.238	95.917	-0.278	0.316
-262.224	-200.000	0.030	0.346
-261.209	-12.931	-0.161	-0.104
-260.195	76.941	-0.114	0.121
-259.180	-154.759	-0.223	-0.015
-258.165	-130.501	0.139	0.019
-257.151	211.148	0.153	-0.239
-256.136	-200.000	0.017	0.126
-255.122	53.199	0.488	0.464
-254.107	800.000	0.020	0.084
-253.092	-119.069	0.240	-0.042
-252.078	102.167	0.100	-0.116
-251.063	-139.929	0.373	0.039
-250.049	24.553	-0.204	0.168
-249.034	57.667	-0.204	0.199
-248.019	-11.117	0.149	0.098
-247.005	324.233	0.056	-0.107
-245.990	-72.168	-0.217	0.080
-244.976	-200.000	0.035	0.163
-243.961	474.597	-0.039	0.087
-242.946	257.875	0.098	-0.168
-241.932	-200.000	0.055	-0.289
-240.917	-63.875	-0.094	-0.038
-239.903	437.912	0.167	-0.361
-238.888	-200.000	0.050	-0.231
-237.873	-200.000	-0.009	0.312
-236.859	-95.017	-0.030	0.008
-235.844	-200.000	0.030	-0.160
-234.830	4.774	0.249	0.182
-233.815	-200.000	-0.078	-0.393
-232.800	-188.351	0.402	0.005
-231.786	-103.329	0.177	-0.041
-230.771	800.000	0.130	-0.485
-229.757	158.712	0.063	-0.087
-228.742	37.096	0.117	-0.103
-227.727	-69.988	0.348	-0.132
-226.713	417.452	0.069	-0.146
-225.698	13.706	-0.206	-0.159
-224.684	24.904	-0.092	-0.076
-223.669	178.529	-0.069	-0.101
-222.655	-200.000	0.039	0.338
-221.640	-200.000	-0.006	-0.033
-220.625	-57.344	-0.231	-0.101
-219.611	-200.000	-0.009	-0.255
-218.596	171.685	-0.117	0.167
-217.582	79.873	0.250	-0.267
-216.567	-73.660	-0.266	0.096
-215.552	-17.910	0.049	0.030
-214.538	800.000	-0.057	-0.164
-213.523	410.834	0.056	-0.117
-212.509	19.942	-0.052	0.042
-211.494	94.133	0.113	0.127
-210.479	-200.000	0.072	-0.339
-209.465	-58.588	0.164	-0.071
-208.450	211.000	-0.005	-0.008
-207.436	309.455	-0.091	-0.170
-206.421	18.403	-0.387	-0.307
-205.406	25.511	-0.304	-0.251
-204.392	-116.799	-0.400	-0.073
-203.377	-200.000	0.036	0.176
-202.363	-32.874	-0.057	-0.031
-201.348	-104.573	0.290	-0.066
-200.333	-200.000	0.013	0.187
-199.319	169.921	-0.146	-0.207
-198.304	-21.136	-0.125	0.076
-197.290	19.627	-0.261	0.208
-196.275	800.000	0.057	-0.170
-195.260	-110.946	0.133	-0.027
-194.246	171.683	-0.079	-0.113
-193.231	800.000	-0.040	-0.121
-192.217	-41.516	0.215	0.110
-191.202	-200.000	0.025	0.120
-190.187	-29.622	-0.052	-0.029
-189.173	-17.281	0.266	0.166
-188.158	5.531	0.205	0.150
-187.144	323.017	0.237	-0.448
-186.129	-35.700	-0.100	-0.054
-185.114	14.907	0.316	0.245
-184.100	-132.029	0.115	0.015
-183.085	800.000	0.061	0.190
-182.071	-44.842	-0.075	0.037
-181.056	80.595	0.145	-0.155
-180.042	-131.348	0.178	0.023
-179.027	-8.913	-0.093	-0.062
-178.012	80.755	0.243	-0.259
-176.998	218.258	0.050	-0.079
-175.983	-148.730	-0.153	0.012
-174.969	-37.535	-0.281	0.148
-173.954	34.700	0.070	-0.061
-172.939	214.422	-0.089	0.140
-171.925	62.182	-0.260	0.257
-170.910	49.972	0.094	-0.088
-169.896	196.797	0.082	0.124
-168.881	58.350	0.097	-0.094
-167.866	96.546	-0.200	-0.227
-166.852	768.762	0.087	-0.234
-165.837	-114.500	-0.020	-0.004
-164.823	-58.394	-0.189	0.081
-163.808	-27.366	-0.341	0.197
-162.793	185.768	0.096	0.141
-161.779	-81.823	-0.132	-0.043
-160.764	601.715	0.062	0.152
-159.750	800.000	0.057	0.161
-158.735	-200.000	-0.027	0.313
-157.720	-124.493	0.118	-0.018
-156.706	-45.890	0.157	-0.077
-155.691	626.347	-0.089	0.222
-154.677	-200.000	0.023	0.210
-153.662	174.875	-0.118	0.170
-152.647	103.556	-0.122	-0.142
-151.633	-200.000	0.030	-0.211
-150.618	-200.000	0.013	-0.263
-149.604	372.415	-0.085	0.171
-148.589	26.820	-0.077	-0.064
-147.574	221.570	0.094	-0.150
-146.560	157.749	0.126	-0.172
-145.545	269.787	-0.075	0.131
-144.531	637.859	-0.082	-0.205
-143.516	-178.814	0.185	-0.004
-142.502	303.468	-0.251	-0.461
-141.487	-15.841	-0.085	0.054
-140.472	161.234	0.299	0.414
-139.458	-95.039	0.073	0.020
-138.443	-200.000	0.007	0.098
-137.429	197.015	0.094	-0.142
-136.414	800.000	0.027	0.111
-135.399	-37.873	0.090	-0.047
-134.385	-47.855	-0.134	0.064
-133.370	-22.057	0.158	-0.095
-132.356	78.610	-0.066	-0.070
-131.341	17.260	-0.053	-0.042
-130.326	481.070	0.172	0.387
-129.312	3.803	0.274	0.198
-128.297	-4.153	-0.081	-0.055
-127.283	-103.887	0.320	-0.074
-126.268	-125.876	-0.256	-0.038
-125.253	800.000	0.040	-0.127
-124.239	-200.000	-0.057	-0.325
-123.224	-42.292	0.311	-0.157
-122.210	-23.642	0.131	0.078
-121.195	-200.000	0.036	-0.247
-120.180	-114.297	-0.355	0.068
-119.166	309.085	-0.128	0.237
-118.151	-106.074	-0.157	-0.035
-117.137	84.905	-0.236	0.256
-116.122	24.514	0.322	0.263
-115.107	-32.718	0.058	0.032
-114.093	253.108	0.116	-0.195
-113.078	-200.000	-0.057	0.298
-112.064	-32.464	-0.322	0.177
-111.049	-4.697	0.049	-0.033
-110.034	77.792	0.217	0.228
-109.020	128.356	-0.113	0.142
-108.005	160.669	0.081	-0.112
-106.991	133.488	-0.138	0.176
-105.976	800.000	-0.069	0.209
-104.962	800.000	-0.047	0.195
-103.947	5.237	0.335	-0.244
-102.932	5.587	0.021	0.015
-101.918	-106.519	0.232	-0.051
-100.903	800.000	0.087	0.371
-99.889	112.886	-0.082	-0.099
-98.874	-5.374	0.157	-0.106
-97.859	-50.982	0.040	-0.019
-96.845	54.069	-0.076	-0.073
-95.830	-200.000	0.061	0.400
-94.816	-151.262	0.148	0.011
-93.801	63.217	-0.155	-0.154
-92.786	-189.485	0.078	-0.001
-91.772	-200.000	-0.012	-0.076
-90.757	119.715	0.122	-0.149
-89.743	37.550	0.291	-0.255
-88.728	125.732	0.109	0.136
-87.713	-127.985	0.216	0.031
-86.699	-72.429	0.306	-0.112
-85.684	5.120	-0.095	-0.069
-84.670	-99.381	0.475	0.118
-83.655	571.885	0.058	-0.140
-82.640	-3.247	0.171	0.118
-81.626	188.447	-0.149	-0.220
-80.611	85.467	-0.041	-0.044
-79.597	-96.760	0.455	0.118
-78.582	-200.000	0.003	-0.248
-77.567	-59.440	-0.173	0.073
-76.553	-82.596	-0.289	0.093
-75.538	-200.000	-0.001	-0.116
-74.524	-200.000	-0.003	0.188
-73.509	-135.040	-0.420	-0.050
-72.494	-181.700	0.109	0.002
-71.480	-171.168	0.188	0.006
-70.465	-97.265	0.483	-0.124
-69.451	79.316	0.260	0.275
-68.436	-12.545	-0.149	0.096
-67.422	-83.873	-0.355	0.112
-66.407	-30.697	0.139	0.077
-65.392	-179.862	0.412	-0.009
-64.378	69.795	-0.122	-0.124
-63.363	-200.000	0.024	-0.434
-62.349	-200.000	-0.022	0.350
-61.334	109.751	-0.590	-0.698
-60.319	187.129	0.389	0.572
-59.305	800.000	-0.294	-0.976
-58.290	146.437	0.884	1.171
-57.276	800.000	0.512	1.398
-56.261	-200.000	94.731	559.378
-55.246	640.919	1382.167	3471.992
-54.232	186.135	2614.783	3836.914
-53.217	116.696	2323.164	2812.109
-52.203	44.912	1933.847	1756.290
-51.188	38.326	1719.085	1510.526
-50.173	35.390	1673.719	1448.475
-49.159	51.599	1722.297	1615.034
-48.144	54.998	1739.632	1657.252
-47.130	37.888	1695.785	1486.477
-46.115	35.027	1680.311	1451.200
-45.100	34.890	1675.628	1446.060
-44.086	34.801	1673.303	1443.327
-43.071	34.794	1670.668	1440.940
-42.057	34.746	1668.198	1438.393
-41.042	34.889	1666.235	1437.722
-40.027	34.814	1664.182	1435.331
-39.013	34.785	1662.261	1433.395
-37.998	34.711	1660.828	1431.549
-36.984	34.852	1659.206	1431.152
-35.969	34.936	1657.664	1430.394
-34.954	34.895	1656.558	1429.076
-33.940	35.005	1654.096	1427.716
-32.925	34.941	1652.650	1425.929
-31.911	34.938	1650.788	1424.246
-30.896	34.847	1649.203	1422.143
-29.881	34.886	1647.381	1420.811
-28.867	34.879	1645.823	1419.356
-27.852	34.902	1643.971	1417.869
-26.838	34.923	1642.716	1416.889
-25.823	34.968	1641.175	1415.838
-24.809	34.944	1640.138	1414.708
-23.794	35.014	1638.337	1413.613
-22.779	34.991	1636.991	1412.229
-21.765	34.939	1635.322	1410.352
-20.750	34.935	1633.514	1408.704
-19.736	35.060	1632.276	1408.502
-18.721	35.026	1630.862	1406.976
-17.706	34.944	1629.205	1404.888
-16.692	34.983	1627.425	1403.585
-15.677	35.041	1625.806	1402.556
-14.663	34.927	1625.158	1401.104
-13.648	35.050	1623.212	1400.277
-12.633	35.005	1621.450	1398.366
-11.619	34.977	1620.087	1396.933
-10.604	35.007	1618.506	1395.731
-9.590	34.992	1617.377	1394.598
-8.575	35.027	1616.089	1393.684
-7.560	34.912	1615.204	1392.026
-6.546	34.963	1613.790	1391.124
-5.531	34.914	1612.742	1389.813
-4.517	34.966	1611.633	1389.180
-3.502	34.939	1610.839	1388.241
-2.487	35.044	1608.627	1387.040
-1.473	34.917	1597.715	1376.666
-0.458	32.254	1577.274	1340.041
0.556	30.494	1577.408	1302.468
1.571	27.643	1600.883	1301.425
2.586	26.253	1613.086	1301.225
3.600	22.807	1558.994	1233.444
4.615	13.850	1447.801	1086.976
5.629	5.990	1380.890	987.391
6.644	4.577	1372.212	972.265
7.659	4.553	1370.997	971.169
8.673	4.563	1370.101	970.509
9.688	4.576	1368.303	969.232
10.702	4.653	1366.061	968.033
11.717	8.343	1372.867	995.816
12.731	17.088	1389.356	1062.662
13.746	22.660	1397.328	1103.641
14.761	22.752	1396.297	1103.302
15.775	21.917	1394.527	1096.588
16.790	21.021	1391.526	1088.543
17.804	20.077	1389.219	1080.754
18.819	19.803	1388.224	1078.181
19.834	19.633	1386.929	1076.022
20.848	19.559	1385.774	1074.564
21.863	19.320	1384.548	1072.038
22.877	19.165	1383.692	1070.313
23.892	19.116	1382.821	1069.244
24.907	19.127	1381.982	1068.566
25.921	19.129	1380.735	1067.520
26.936	19.153	1379.915	1066.941
27.950	19.143	1379.472	1066.439
28.965	19.269	1378.270	1066.198
29.980	19.405	1376.957	1065.929
30.994	19.478	1376.206	1065.702
32.009	19.611	1374.757	1065.305
33.023	19.525	1373.653	1063.825
34.038	19.539	1371.987	1062.531
35.053	19.373	1370.775	1060.477
36.067	19.344	1370.040	1059.637
37.082	19.289	1369.215	1058.563
38.096	19.322	1368.438	1058.071
39.111	19.446	1367.240	1057.815
40.126	19.368	1366.336	1056.541
41.140	18.970	1365.364	1053.263
42.155	18.914	1364.710	1052.323
43.169	18.883	1364.654	1051.994
44.184	18.899	1364.500	1051.883
45.199	18.902	1364.367	1051.706
46.213	18.994	1363.522	1051.523
47.228	19.237	1363.111	1052.593
48.242	19.333	1361.723	1052.020
49.257	19.185	1360.356	1049.968
50.271	19.276	1358.489	1048.983
51.286	19.239	1357.682	1048.046
52.301	19.217	1356.201	1046.676
53.315	19.180	1355.074	1045.488
54.330	19.009	1353.842	1043.409
55.344	18.985	1352.337	1042.013
56.359	18.948	1351.919	1041.375
57.374	18.918	1350.565	1040.057
58.388	18.765	1349.756	1038.418
59.403	18.773	1349.435	1038.126
60.417	18.837	1348.285	1037.535
61.432	18.808	1347.406	1036.593
62.447	18.677	1346.513	1035.021
63.461	18.607	1345.378	1033.638
64.476	18.573	1344.242	1032.467
65.490	18.691	1342.932	1032.080
66.505	18.619	1341.618	1030.544
67.520	18.655	1340.675	1029.946
68.534	18.664	1339.030	1028.648
69.549	18.590	1338.595	1027.776
70.563	18.571	1337.170	1026.478
71.578	18.553	1335.546	1025.032
72.593	18.521	1334.897	1024.255
73.607	18.424	1334.326	1023.143
74.622	18.506	1333.594	1022.983
75.636	18.521	1333.637	1023.017
76.651	18.751	1331.846	1022.919
77.666	18.565	1331.932	1021.790
78.680	18.597	1331.682	1021.697
79.695	18.703	1331.066	1021.765
80.709	18.825	1330.048	1021.617
81.724	18.876	1329.579	1021.471
82.739	19.115	1328.353	1021.860
83.753	19.167	1327.833	1021.677
84.768	19.229	1327.261	1021.515
85.782	19.462	1326.308	1022.069
86.797	19.394	1325.067	1020.617
87.812	19.258	1323.967	1018.880
88.826	19.282	1322.746	1017.992
89.841	19.204	1321.774	1016.695
90.855	19.406	1320.895	1017.121
91.870	19.447	1319.854	1016.465
92.884	19.499	1318.776	1015.851
93.899	19.459	1318.905	1015.625
94.914	19.469	1317.917	1014.833
95.928	19.419	1317.214	1013.910
96.943	19.398	1316.176	1012.897
97.957	19.414	1315.074	1012.055
98.972	19.300	1314.105	1010.552
99.987	19.358	1313.068	1010.002
101.001	19.488	1311.728	1009.643
102.016	19.293	1311.393	1008.158
103.030	19.417	1310.303	1007.954
104.045	19.442	1309.208	1007.166
105.060	19.192	1307.862	1004.585
106.074	19.081	1306.235	1002.601
107.089	18.776	1304.466	999.383
108.103	18.681	1303.543	998.034
109.118	18.767	1302.053	997.301
110.133	18.681	1301.102	995.986
111.147	18.780	1299.512	995.254
112.162	18.756	1298.656	994.372
113.176	18.833	1297.740	994.027
114.191	18.887	1296.666	993.432
115.206	19.027	1295.323	993.121
116.220	18.874	1293.935	991.086
117.235	18.855	1293.350	990.441
118.249	18.747	1292.410	989.014
119.264	18.742	1291.001	987.817
120.279	18.685	1289.531	986.278
121.293	18.669	1288.390	985.227
122.308	18.561	1287.276	983.670
123.322	18.601	1286.553	983.260
124.337	18.505	1285.710	981.975
125.352	18.525	1284.557	981.123
126.366	18.371	1283.868	979.632
127.381	18.569	1282.005	979.253
128.395	18.574	1281.484	978.799
129.410	18.494	1280.976	977.866
130.424	18.589	1279.880	977.483
131.439	18.719	1278.550	977.120
132.454	18.853	1278.026	977.396
133.468	18.817	1277.451	976.668
134.483	18.790	1277.172	976.214
135.497	18.938	1275.304	975.540
136.512	18.981	1273.909	974.629
137.527	18.964	1272.921	973.692
138.541	18.873	1272.017	972.400
139.556	19.000	1270.510	971.877
140.570	19.042	1270.055	971.679
141.585	19.050	1268.893	970.749
142.600	19.237	1267.453	970.618
143.614	19.408	1266.670	970.891
144.629	19.386	1265.591	969.855
145.643	19.310	1264.645	968.620
146.658	19.233	1262.830	966.712
147.673	19.122	1261.588	965.055
148.687	18.934	1260.430	963.030
149.702	18.900	1258.786	961.496
150.716	18.834	1257.570	960.115
151.731	18.875	1256.375	959.344
152.746	18.949	1255.428	958.949
153.760	19.017	1254.287	958.375
154.775	19.023	1253.383	957.633
155.789	19.021	1252.625	956.956
156.804	19.114	1251.605	956.611
157.819	19.212	1250.233	956.023
158.833	19.224	1249.959	955.793
159.848	19.370	1248.970	955.761
160.862	19.394	1247.880	954.975
161.877	19.088	1246.368	952.043
162.892	18.967	1245.176	950.376
163.906	18.894	1244.027	949.013
164.921	18.992	1242.882	948.599
165.935	19.095	1242.142	948.517
166.950	19.015	1242.420	948.203
167.964	19.094	1241.439	947.804
168.979	19.037	1240.886	946.985
169.994	19.007	1239.856	945.953
171.008	19.044	1238.708	945.195
172.023	19.233	1238.434	945.940
173.037	19.224	1237.905	945.402
174.052	19.198	1237.250	944.675
175.067	19.119	1235.661	942.946
176.081	18.914	1234.432	940.806
177.096	19.001	1233.333	940.358
178.110	19.012	1232.060	939.365
179.125	19.059	1231.155	938.850
180.140	19.101	1229.904	938.038
181.154	19.201	1229.183	937.950
182.169	19.304	1227.918	937.465
183.183	19.395	1227.173	937.304
184.198	19.380	1225.973	936.227
185.213	19.420	1225.005	935.620
186.227	19.409	1223.894	934.631
187.242	19.530	1222.791	934.358
188.256	19.622	1222.038	934.201
189.271	19.640	1221.056	933.461
190.286	19.402	1219.782	931.123
191.300	19.033	1218.424	928.014
192.315	18.848	1218.084	926.676
193.329	18.823	1217.674	926.147
194.344	19.010	1216.712	926.337
195.359	19.060	1216.690	926.511
196.373	19.258	1216.079	927.028
197.388	19.355	1215.690	927.168
198.402	19.613	1215.161	928.073
199.417	19.681	1214.793	928.075
200.432	19.826	1214.102	928.243
201.446	19.871	1213.412	927.872
202.461	19.868	1212.677	927.211
203.475	19.882	1211.603	926.385
204.490	19.726	1210.254	924.439
205.504	19.515	1208.633	921.991
206.519	19.552	1207.520	921.255
207.534	19.455	1206.337	919.754
208.548	19.483	1205.665	919.312
209.563	19.461	1204.732	918.400
210.577	19.543	1203.457	917.784
211.592	19.585	1203.239	917.760
212.607	19.840	1202.186	918.229
213.621	19.745	1201.565	917.170
214.636	19.753	1200.275	916.145
215.650	19.676	1199.698	915.219
216.665	19.798	1199.130	915.347
217.680	19.993	1198.181	915.575
218.694	19.966	1197.376	914.734
219.709	19.891	1196.648	913.700
220.723	19.865	1195.700	912.761
221.738	19.842	1195.207	912.184
222.753	19.827	1194.237	911.281
223.767	19.938	1193.434	911.172
224.782	20.146	1192.652	911.588
225.796	20.169	1192.587	911.579
226.811	20.034	1191.566	910.008
227.826	19.953	1190.738	908.869
228.840	19.807	1190.289	907.684
229.855	19.874	1189.393	907.272
230.869	19.824	1188.735	906.426
231.884	19.812	1187.365	905.241
232.899	19.726	1186.758	904.247
233.913	19.645	1186.054	903.207
234.928	19.514	1185.560	902.063
235.942	19.659	1184.184	901.696
236.957	19.596	1183.541	900.797
237.972	19.622	1183.034	900.466
238.986	19.597	1181.955	899.435
240.001	19.622	1181.808	899.373
241.015	19.594	1181.019	898.548
242.030	19.756	1179.896	898.456
243.045	19.860	1179.556	898.657
244.059	19.878	1178.690	898.014
245.074	19.912	1177.513	897.213
246.088	20.052	1176.953	897.433
247.103	20.107	1176.306	897.146
248.117	20.236	1176.018	897.511
249.132	20.277	1175.587	897.317
250.147	20.507	1174.950	897.938
251.161	20.653	1174.169	898.017
252.176	20.617	1173.865	897.518
253.190	20.750	1172.691	897.229
254.205	20.926	1171.935	897.478
255.220	20.735	1171.987	896.450
256.234	20.795	1170.850	895.813
257.249	20.839	1170.327	895.558
258.263	20.737	1169.525	894.343
259.278	20.698	1169.010	893.671
260.293	20.715	1168.303	893.137
261.307	20.926	1167.945	893.868
262.322	20.886	1167.568	893.296
263.336	20.910	1166.685	892.662
264.351	20.796	1166.362	891.752
265.366	20.869	1165.300	891.237
266.380	20.969	1164.518	891.071
267.395	20.836	1163.831	889.783
268.409	20.701	1162.891	888.297
269.424	20.713	1161.835	887.472
270.439	20.769	1161.606	887.505
271.453	20.708	1160.691	886.420
272.468	20.476	1159.888	884.545
273.482	20.612	1158.681	884.240
274.497	20.645	1158.263	884.009
275.512	20.588	1157.742	883.244
276.526	20.631	1156.959	882.787
277.541	20.591	1156.328	882.024
278.555	20.561	1155.884	881.454
279.570	20.765	1155.269	881.942
280.585	20.970	1154.357	882.202
281.599	20.949	1153.258	881.182
282.614	20.823	1152.334	879.760
283.628	20.670	1150.950	877.855
284.643	20.745	1150.149	877.545
285.657	20.794	1149.430	877.166
286.672	20.724	1148.355	875.914
287.687	20.784	1147.370	875.387
288.701	20.757	1146.760	874.708
289.716	20.748	1146.230	874.179
290.730	20.824	1145.361	873.822
291.745	20.941	1144.495	873.673
292.760	20.908	1143.832	872.924
293.774	20.907	1143.687	872.731
294.789	21.112	1143.144	873.265
295.803	21.096	1142.344	872.494
296.818	20.938	1141.606	871.065
297.833	20.843	1140.540	869.700
298.847	20.973	1139.637	869.583
299.862	20.927	1138.707	868.567
300.876	20.860	1138.340	867.876
301.891	20.975	1137.875	868.016
302.906	21.227	1137.065	868.576
303.920	21.289	1136.683	868.517
304.935	21.397	1136.084	868.519
305.949	21.426	1135.718	868.307
306.964	21.342	1135.039	867.295
307.979	21.280	1133.754	865.929
308.993	21.314	1132.951	865.407
310.008	21.304	1132.498	864.934
311.022	21.319	1131.863	864.444
312.037	21.367	1130.922	863.890
313.052	21.380	1129.483	862.774
314.066	21.074	1128.714	860.605
315.081	21.059	1127.600	859.606
316.095	20.962	1127.017	858.604
317.110	20.857	1126.378	857.524
318.125	20.954	1125.602	857.338
319.139	20.901	1124.828	856.411
320.154	20.843	1124.250	855.608
321.168	20.986	1123.727	855.837
322.183	21.055	1122.727	855.340
323.197	21.097	1122.388	855.210
324.212	21.063	1121.682	854.432
325.227	20.984	1121.590	853.897
326.241	21.148	1120.322	853.662
327.256	20.988	1119.821	852.422
328.270	21.102	1118.723	852.064
329.285	21.098	1117.767	851.245
330.300	21.148	1116.731	850.621
331.314	21.138	1115.745	849.749
332.329	21.104	1115.163	849.064
333.343	21.066	1114.370	848.198
334.358	21.320	1113.205	848.473
335.373	21.353	1112.920	848.338
336.387	21.379	1112.145	847.797
337.402	21.249	1111.988	846.976
338.416	21.377	1111.039	846.796
339.431	21.505	1110.339	846.808
340.446	21.704	1109.527	847.077
341.460	21.703	1108.726	846.387
342.475	21.816	1108.348	846.568
343.489	21.816	1107.411	845.776
344.504	21.981	1106.201	845.571
345.519	21.779	1105.828	844.241
346.533	21.968	1104.855	844.333
347.548	22.115	1104.191	844.456
348.562	22.043	1103.294	843.347
349.577	21.642	1102.347	840.625
350.592	21.474	1101.917	839.416
351.606	21.441	1100.636	838.209
352.621	21.417	1099.845	837.419
353.635	21.385	1099.348	836.815
354.650	21.319	1098.816	836.017
355.665	21.476	1098.084	836.135
356.679	21.606	1097.463	836.213
357.694	21.633	1097.042	835.943
358.708	21.770	1096.518	836.124
359.723	21.716	1095.930	835.347
360.738	21.719	1095.083	834.642
361.752	21.687	1094.629	834.068
362.767	21.775	1093.730	833.727
363.781	21.813	1093.291	833.499
364.796	21.834	1092.792	833.147
365.810	22.078	1092.045	833.660
366.825	22.193	1091.846	833.980
367.840	22.300	1090.934	833.718
368.854	22.223	1090.843	833.210
369.869	22.208	1090.171	832.551
370.883	22.202	1089.065	831.603
371.898	22.016	1088.257	830.036
372.913	21.995	1087.444	829.244
373.927	22.095	1087.412	829.616
374.942	22.267	1086.546	829.695
375.956	22.153	1086.156	828.786
376.971	22.170	1085.611	828.377
377.986	22.185	1085.125	828.001
379.000	22.302	1084.614	828.091
380.015	22.384	1084.055	827.976
381.029	22.476	1083.604	827.992
382.044	22.420	1082.963	827.166
383.059	22.445	1081.868	826.371
384.073	22.320	1081.327	825.302
385.088	22.600	1080.076	825.583
386.102	22.445	1079.302	824.192
387.117	22.360	1077.784	822.563
388.132	22.121	1077.074	820.832
389.146	22.066	1076.319	819.928
390.161	22.108	1075.720	819.597
391.175	22.133	1074.855	818.981
392.190	22.367	1074.337	819.601
393.205	22.421	1073.828	819.392
394.219	22.368	1073.392	818.740
395.234	22.278	1071.899	817.111
396.248	21.984	1071.229	815.166
397.263	22.136	1069.889	814.777
398.278	22.049	1069.411	813.937
399.292	22.201	1068.325	813.743
400.307	22.072	1067.575	812.502
401.321	21.882	1066.932	811.066
402.336	21.994	1066.442	811.136
403.350	21.961	1065.890	810.493
404.365	22.012	1065.260	810.178
405.380	22.235	1064.119	810.266
406.394	22.303	1063.349	809.921
407.409	22.484	1063.113	810.502
408.423	22.460	1062.844	810.114
409.438	22.656	1061.757	810.116
410.453	22.590	1061.289	809.385
411.467	22.785	1060.248	809.412
412.482	22.727	1059.840	808.766
413.496	22.795	1059.185	808.502
414.511	22.718	1058.865	807.836
415.526	22.907	1058.209	808.126
416.540	23.075	1058.260	808.864
417.555	22.886	1057.485	807.338
418.569	22.843	1056.906	806.627
419.584	22.840	1056.253	806.044
420.599	22.845	1055.639	805.526
421.613	154.109	1401.019	1789.163
422.628	141.558	1451.362	1789.282
