DTS Sentinel unit serial number:	SN413079Multiplexer serial number:	ORYXHardware model number:	OX4-SRSoftware version number:	ORYX F/W v4.00 Oryx Data Collector v3.7.2.0data status	okinstallation	princeton_trtdifferential loss correction	single-endedforward channel	channel 2reverse channel	N/Adate	2019/09/12time	19:17:49forward acquisition time	15.00reverse acquisition time	0.00gamma	496.2192k internal	0.2326k external	0.2326temperature offset calibration	1.0148default loss term (dB/km)	0.3790temperature slope calibration	1.0000multiplexer offset coefficient	1.0000multiplexer slope coefficient	1.0000fibre end	0.00T internal ref (°C)	32.50T ext. ref 1 (°C)	3.20T ext. ref 2 (°C)	27.02length (m)	temperature (°C)	Stokes	anti-Stokes-747.200	-86.263	-0.089	0.028
-746.185	-200.000	0.092	-0.911
-745.171	-55.570	-0.587	0.265
-744.156	399.548	0.454	0.961
-743.142	800.000	-0.031	0.092
-742.127	-106.565	0.315	0.071
-741.112	433.117	0.275	-0.603
-740.098	21.409	-0.699	0.573
-739.083	403.948	-0.301	0.640
-738.069	-115.331	-0.220	-0.042
-737.054	-91.540	-0.802	0.231
-736.039	-161.233	-0.734	0.038
-735.025	17.057	-0.623	0.498
-734.010	13.082	-0.557	-0.435
-732.996	-127.789	-0.420	-0.061
-731.981	-82.465	-0.288	0.094
-730.966	-111.386	-0.485	0.100
-729.952	-90.851	0.343	-0.100
-728.937	-200.000	-0.040	1.089
-727.923	776.687	-0.175	-0.483
-726.908	368.987	-0.227	0.463
-725.894	-117.152	0.327	-0.060
-724.879	-143.474	0.517	-0.050
-723.864	-39.364	-1.191	-0.630
-722.850	154.562	-0.448	-0.620
-721.835	-200.000	0.025	-0.628
-720.821	-200.000	0.043	-0.331
-719.806	-1.692	-0.218	-0.155
-718.791	383.012	0.207	-0.429
-717.777	236.399	0.347	-0.579
-716.762	166.885	-0.515	-0.736
-715.748	16.435	0.584	0.465
-714.733	-150.298	0.229	-0.018
-713.718	-3.523	0.228	0.160
-712.704	625.911	0.041	0.103
-711.689	-35.262	0.446	-0.245
-710.675	34.343	0.464	0.408
-709.660	102.556	0.069	-0.081
-708.645	-44.530	-0.353	-0.178
-707.631	374.977	-0.042	0.086
-706.616	254.974	0.073	-0.126
-705.602	-200.000	0.034	-0.180
-704.587	-200.000	-0.141	1.068
-703.572	-200.000	-0.031	0.357
-702.558	64.891	0.659	0.670
-701.543	-106.085	0.466	-0.106
-700.529	-85.966	0.921	0.287
-699.514	198.282	-0.682	1.050
-698.499	800.000	0.236	0.850
-697.485	-200.000	0.041	-1.254
-696.470	86.565	-0.179	-0.199
-695.456	800.000	0.267	0.763
-694.441	167.334	0.470	0.672
-693.426	-63.726	-0.320	-0.132
-692.412	800.000	-0.206	-0.822
-691.397	-159.139	-0.314	-0.018
-690.383	-171.496	0.864	-0.029
-689.368	-146.540	-0.764	-0.067
-688.354	779.093	-0.291	-0.801
-687.339	83.844	0.644	-0.707
-686.324	-54.509	-0.644	0.294
-685.310	-20.628	0.577	-0.357
-684.295	180.977	0.602	-0.890
-683.281	-145.232	-0.306	0.028
-682.266	-85.400	-0.315	-0.099
-681.251	267.896	0.177	-0.312
-680.237	-22.740	0.134	0.082
-679.222	778.789	-0.302	0.831
-678.208	-200.000	-0.017	-0.346
-677.193	-28.369	0.101	-0.059
-676.178	205.688	0.067	-0.105
-675.164	263.772	0.299	0.523
-674.149	-172.340	-0.237	0.008
-673.135	-18.977	0.540	0.338
-672.120	52.560	-0.453	-0.435
-671.105	633.707	0.161	-0.411
-670.091	-76.068	-0.495	-0.176
-669.076	-73.499	-1.041	-0.382
-668.062	-81.062	0.589	-0.196
-667.047	-85.053	0.129	0.040
-666.032	-200.000	-0.015	-0.885
-665.018	71.161	-0.300	0.313
-664.003	-105.330	-0.735	0.168
-662.989	24.266	-0.177	0.147
-661.974	-50.870	0.550	0.260
-660.959	-50.177	-0.402	0.191
-659.945	-109.644	0.539	-0.114
-658.930	-200.000	-0.033	-0.498
-657.916	-109.592	0.948	-0.201
-656.901	-200.000	-0.096	0.624
-655.886	-123.686	-0.441	0.070
-654.872	-53.541	0.310	-0.143
-653.857	196.325	-0.158	-0.242
-652.843	112.930	-0.277	-0.337
-651.828	800.000	0.068	0.203
-650.814	-200.000	0.163	0.896
-649.799	24.903	-0.147	0.123
-648.784	243.257	-0.488	-0.821
-647.770	4.927	-0.456	-0.337
-646.755	-200.000	-0.054	-1.139
-645.741	-125.346	-0.479	-0.073
-644.726	-200.000	0.030	-0.160
-643.711	-58.252	0.321	0.140
-642.697	41.265	0.379	0.344
-641.682	-100.749	-0.454	-0.112
-640.668	286.454	0.236	0.427
-639.653	114.251	-0.530	-0.648
-638.638	800.000	-0.205	0.829
-637.624	-0.100	0.550	0.394
-636.609	105.678	0.326	0.387
-635.595	-172.007	0.626	0.020
-634.580	176.729	-0.297	-0.433
-633.565	-200.000	-0.028	0.777
-632.551	16.223	-0.593	-0.470
-631.536	85.080	-0.788	0.868
-630.522	-169.373	0.846	-0.031
-629.507	-200.000	0.051	-0.716
-628.492	-69.906	-0.434	0.166
-627.478	336.874	-0.223	-0.435
-626.463	15.308	0.677	0.533
-625.449	800.000	-0.067	-0.281
-624.434	-107.303	-0.225	0.050
-623.419	19.536	0.410	-0.331
-622.405	9.600	0.736	0.559
-621.390	137.988	-0.134	0.176
-620.376	-200.000	0.094	-0.937
-619.361	161.116	0.145	-0.204
-618.346	-58.712	0.716	0.312
-617.332	5.101	0.582	0.430
-616.317	-200.000	0.005	1.162
-615.303	800.000	-0.118	-0.353
-614.288	-102.673	0.903	0.216
-613.273	-93.359	-0.479	-0.133
-612.259	-200.000	-0.106	0.998
-611.244	-177.968	1.045	-0.025
-610.230	-124.251	0.517	0.081
-609.215	-11.237	0.657	-0.435
-608.201	-106.352	0.441	-0.099
-607.186	-200.000	0.025	-0.606
-606.171	-132.629	-0.768	-0.099
-605.157	55.366	0.212	0.206
-604.142	782.350	0.113	0.311
-603.128	39.606	0.543	0.489
-602.113	-133.481	0.484	0.061
-601.098	-200.000	-0.091	-0.495
-600.084	643.109	0.051	-0.131
-599.069	-188.816	0.261	-0.003
-598.055	-85.675	-0.418	0.130
-597.040	-124.287	-0.454	0.071
-596.025	85.378	-0.265	-0.292
-595.011	294.960	-0.448	-0.822
-593.996	-113.245	-0.409	-0.081
-592.982	-163.463	-0.203	-0.010
-591.967	365.902	-0.041	0.083
-590.952	-200.000	0.022	0.377
-589.938	697.203	0.150	0.396
-588.923	220.069	-0.263	0.423
-587.909	-183.804	0.267	0.005
-586.894	173.110	0.169	0.244
-585.879	-128.510	-0.155	-0.022
-584.865	318.376	-0.239	0.454
-583.850	800.000	0.072	0.244
-582.836	145.763	0.359	-0.482
-581.821	-70.635	-0.541	-0.205
-580.806	114.204	-0.128	0.157
-579.792	-132.579	-0.141	-0.018
-578.777	743.375	0.365	0.985
-577.763	-200.000	0.103	0.790
-576.748	35.228	-0.237	-0.209
-575.733	-184.133	-0.723	-0.012
-574.719	35.010	-0.290	-0.254
-573.704	74.102	0.730	-0.768
-572.690	193.041	-0.425	0.643
-571.675	14.083	0.162	0.127
-570.661	800.000	0.184	0.704
-569.646	-107.250	-0.180	-0.040
-568.631	178.336	-0.635	-0.929
-567.617	-200.000	0.042	-0.330
-566.602	510.237	-0.290	-0.675
-565.588	-99.014	0.373	-0.095
-564.573	-200.000	-0.109	-0.000
-563.558	202.032	-0.115	0.177
-562.544	210.411	0.107	-0.168
-561.529	800.000	0.229	-0.900
-560.515	57.507	0.491	0.481
-559.500	33.782	-0.249	0.217
-558.485	800.000	-0.192	-0.824
-557.471	-11.538	0.343	-0.226
-556.456	-200.000	0.245	-1.366
-555.442	64.532	0.373	0.376
-554.427	131.534	0.358	0.460
-553.412	294.667	0.092	0.168
-552.398	95.937	0.347	0.397
-551.383	679.332	-0.282	-0.735
-550.369	3.758	-0.992	-0.725
-549.354	610.723	0.159	-0.397
-548.339	536.466	0.188	-0.447
-547.325	-121.541	0.200	-0.033
-546.310	11.621	-0.318	0.244
-545.296	-8.203	-0.991	-0.668
-544.281	-56.882	0.194	0.086
-543.266	240.583	-0.413	0.689
-542.252	6.310	-0.401	0.298
-541.237	-15.136	0.608	0.390
-540.223	-52.152	-0.414	-0.192
-539.208	-200.000	-0.013	-0.172
-538.193	291.402	0.274	0.499
-537.179	800.000	-0.030	-0.107
-536.164	47.883	-0.384	0.359
-535.150	-117.238	-1.062	-0.193
-534.135	66.814	-0.614	-0.625
-533.121	-148.676	0.786	0.064
-532.106	-54.673	-0.871	0.394
-531.091	-107.406	0.813	0.179
-530.077	-88.478	-0.318	-0.095
-529.062	-200.000	0.116	0.865
-528.048	-200.000	0.075	-0.740
-527.033	119.481	0.412	0.510
-526.018	800.000	-0.255	-0.988
-525.004	-109.941	-0.350	0.073
-523.989	-200.000	0.068	0.741
-522.975	376.285	-0.297	-0.606
-521.960	-28.502	-0.314	0.181
-520.945	375.170	0.090	0.183
-519.931	50.213	-0.395	-0.373
-518.916	-82.927	-0.579	0.187
-517.902	495.008	-0.055	-0.126
-516.887	-88.799	0.275	-0.082
-515.872	52.449	0.308	-0.294
-514.858	136.604	-0.590	0.770
-513.843	-23.973	0.333	0.199
-512.829	128.704	0.106	0.136
-511.814	132.784	0.705	0.910
-510.799	45.624	-0.314	0.290
-509.785	-92.454	-0.406	0.114
-508.770	-162.074	0.429	0.022
-507.756	-74.488	-0.323	-0.116
-506.741	-200.000	-0.071	-0.375
-505.726	19.317	0.497	-0.399
-504.712	142.358	-0.147	-0.195
-503.697	-200.000	-0.040	0.359
-502.683	-200.000	0.108	0.645
-501.668	337.090	0.116	0.226
-500.653	-93.871	-0.532	0.146
-499.639	-200.000	0.065	0.513
-498.624	800.000	-0.196	0.583
-497.610	83.779	-0.469	0.511
-496.595	6.462	-0.115	-0.085
-495.581	311.681	-0.276	-0.517
-494.566	-71.416	0.386	0.144
-493.551	-137.078	-0.543	-0.062
-492.537	136.198	-0.478	0.623
-491.522	-148.845	0.841	0.068
-490.508	416.809	-0.456	-0.972
-489.493	277.459	-0.419	-0.745
-488.478	-45.141	0.271	-0.135
-487.464	313.962	0.251	-0.473
-486.449	-200.000	-0.127	1.028
-485.435	-92.359	0.857	-0.241
-484.420	44.152	-0.643	0.589
-483.405	-200.000	0.054	-0.375
-482.391	-9.159	-0.947	-0.633
-481.376	227.161	0.387	0.627
-480.362	-73.120	0.129	0.047
-479.347	263.342	0.739	-1.281
-478.332	-7.887	0.691	-0.466
-477.318	295.052	0.446	-0.814
-476.303	77.243	0.451	0.478
-475.289	-200.000	-0.072	-0.826
-474.274	-200.000	0.039	-0.676
-473.259	9.621	0.188	0.142
-472.245	-138.650	0.393	-0.043
-471.230	800.000	0.195	-0.633
-470.216	-200.000	-0.771	0.001
-469.201	15.120	0.370	-0.289
-468.186	-200.000	-0.171	-1.236
-467.172	34.200	0.936	-0.814
-466.157	-200.000	-0.109	-0.721
-465.143	-100.220	-0.210	-0.052
-464.128	-55.274	-1.026	-0.460
-463.113	-200.000	0.017	-0.289
-462.099	-195.547	0.499	0.004
-461.084	-121.085	-0.912	0.153
-460.070	425.666	0.307	0.660
-459.055	-200.000	-0.042	0.228
-458.040	147.078	0.494	-0.662
-457.026	-101.347	0.109	0.026
-456.011	-68.052	0.773	-0.300
-454.997	-72.803	0.018	0.007
-453.982	-16.126	-0.313	-0.198
-452.968	-176.455	-0.355	0.009
-451.953	-115.262	0.712	0.134
-450.938	-54.925	0.387	-0.174
-449.924	-90.327	-0.500	0.145
-448.909	736.326	0.016	0.043
-447.895	-200.000	-0.038	0.454
-446.880	188.460	0.414	0.618
-445.865	-64.094	0.432	-0.176
-444.851	-42.671	0.503	0.255
-443.836	-200.000	-0.041	-0.235
-442.822	-82.024	0.985	-0.321
-441.807	-174.702	-0.668	0.019
-440.792	307.246	0.524	0.973
-439.778	-24.034	-0.935	-0.557
-438.763	-200.000	-0.050	0.228
-437.749	-77.055	-0.515	0.179
-436.734	-11.366	0.324	-0.213
-435.719	104.878	-0.040	0.046
-434.705	-65.108	0.712	0.286
-433.690	26.243	0.635	-0.529
-432.676	-63.732	-0.254	0.104
-431.661	27.091	-0.191	0.160
-430.646	-200.000	-0.009	1.037
-429.632	333.214	0.339	-0.652
-428.617	-200.000	-0.095	0.798
-427.603	-200.000	0.035	0.481
-426.588	-200.000	-0.030	-0.167
-425.573	-82.969	0.806	0.259
-424.559	-30.634	0.430	-0.242
-423.544	-125.515	0.363	-0.055
-422.530	800.000	0.067	-0.255
-421.515	-111.836	0.668	0.134
-420.500	-200.000	0.053	-0.348
-419.486	-200.000	0.055	0.562
-418.471	450.678	0.272	-0.598
-417.457	-175.702	-0.217	-0.006
-416.442	-148.874	0.454	0.037
-415.428	-50.705	0.717	-0.336
-414.413	-200.000	-0.053	0.311
-413.398	-125.146	0.674	0.103
-412.384	4.527	-0.110	0.080
-411.369	352.238	-0.207	-0.408
-410.355	-50.785	-0.113	0.053
-409.340	75.710	-0.268	0.282
-408.325	583.650	0.143	-0.349
-407.311	-72.895	-0.388	-0.142
-406.296	225.604	0.125	-0.202
-405.282	800.000	0.171	0.676
-404.267	-178.711	0.375	-0.009
-403.252	-159.492	0.537	-0.030
-402.238	-123.706	-0.068	0.011
-401.223	-159.450	-0.841	-0.047
-400.209	-140.588	0.703	-0.073
-399.194	-164.471	0.844	0.038
-398.179	145.684	-0.576	0.769
-397.165	629.744	0.073	0.183
-396.150	-64.327	0.305	-0.124
-395.136	-86.602	-0.394	-0.120
-394.121	-75.484	-0.699	0.248
-393.106	46.229	0.661	0.610
-392.092	-59.464	-0.320	0.137
-391.077	123.240	-0.608	0.758
-390.063	46.912	-0.263	0.243
-389.048	800.000	-0.200	0.844
-388.033	-60.060	-0.302	-0.128
-387.019	-88.846	0.465	-0.137
-386.004	324.270	-0.231	-0.439
-384.990	-84.745	0.983	-0.308
-383.975	380.848	-0.187	0.382
-382.960	800.000	0.117	0.496
-381.946	117.350	0.711	0.870
-380.931	-200.000	-0.054	0.593
-379.917	-106.805	-0.552	0.122
-378.902	800.000	0.090	-0.279
-377.888	-200.000	-0.049	0.583
-376.873	-74.308	0.257	0.092
-375.858	-200.000	-0.103	-0.562
-374.844	-98.196	-0.779	-0.199
-373.829	-21.782	0.238	-0.144
-372.815	291.610	-0.389	-0.704
-371.800	800.000	-0.157	0.540
-370.785	105.541	0.252	-0.296
-369.771	-200.000	-0.046	0.267
-368.756	-200.000	0.091	0.469
-367.742	2.214	0.149	0.107
-366.727	800.000	0.126	-0.408
-365.712	-200.000	0.106	0.569
-364.698	482.993	-0.415	0.939
-363.683	-200.000	0.047	-0.441
-362.669	120.184	-0.178	-0.220
-361.654	-200.000	0.013	-0.209
-360.639	800.000	0.159	-0.622
-359.625	236.311	0.207	0.341
-358.610	34.804	0.271	0.236
-357.596	-155.696	0.575	0.037
-356.581	-82.506	0.823	-0.265
-355.566	-106.137	0.518	-0.116
-354.552	-165.711	0.671	0.029
-353.537	381.181	0.283	-0.577
-352.523	-56.601	-0.727	0.320
-351.508	-56.900	0.182	0.080
-350.493	800.000	0.197	0.622
-349.479	-69.973	0.325	-0.123
-348.464	-15.197	-0.827	-0.526
-347.450	-200.000	0.084	0.386
-346.435	-200.000	0.042	-0.320
-345.420	271.794	-0.371	-0.649
-344.406	-47.454	0.833	0.402
-343.391	401.713	-0.115	0.240
-342.377	-119.339	-0.343	-0.059
-341.362	-58.360	-0.315	0.136
-340.348	-14.485	0.662	0.423
-339.333	291.271	0.093	-0.167
-338.318	54.074	-0.512	0.489
-337.304	9.596	0.260	-0.196
-336.289	715.848	0.064	0.170
-335.275	241.226	-0.307	-0.509
-334.260	800.000	-0.144	-0.611
-333.245	-178.575	0.429	0.010
-332.231	-40.257	-0.792	0.409
-331.216	91.721	-0.536	-0.598
-330.202	-200.000	0.102	-0.765
-329.187	-62.353	0.216	0.089
-328.172	-88.127	0.539	-0.161
-327.158	79.931	0.365	0.389
-326.143	116.282	-0.287	-0.349
-325.129	143.076	-0.098	0.130
-324.114	15.670	-0.416	-0.325
-323.099	-200.000	-0.003	-0.070
-322.085	51.507	-0.308	-0.291
-321.070	-127.257	-0.427	0.062
-320.056	-118.636	0.446	0.078
-319.041	198.721	-0.545	-0.827
-318.026	754.687	0.364	0.977
-317.012	39.495	0.305	0.271
-315.997	98.211	0.490	-0.559
-314.983	340.678	-0.394	0.763
-313.968	73.399	-0.510	-0.529
-312.953	754.351	0.125	0.335
-311.939	-200.000	-0.005	-0.215
-310.924	-200.000	-0.119	0.647
-309.910	261.546	-0.562	0.965
-308.895	-53.324	0.201	0.091
-307.880	-30.641	-0.271	-0.152
-306.866	79.317	-0.084	-0.090
-305.851	465.427	-0.235	0.522
-304.837	-95.844	-0.673	-0.178
-303.822	800.000	-0.117	0.364
-302.807	217.230	-0.149	-0.236
-301.793	-22.069	-0.304	0.183
-300.778	-200.000	0.126	0.880
-299.764	-200.000	-0.014	0.240
-298.749	425.152	0.163	0.349
-297.735	-1.631	-0.430	-0.301
-296.720	-200.000	0.021	-0.314
-295.705	-32.728	0.437	0.241
-294.691	-119.786	0.458	-0.078
-293.676	238.008	-0.589	-0.968
-292.662	-196.306	-1.034	0.007
-291.647	-200.000	0.055	-0.956
-290.632	112.000	0.369	0.441
-289.618	-105.980	-0.188	0.042
-288.603	-200.000	-0.075	0.475
-287.589	149.305	0.403	0.541
-286.574	-29.896	0.338	0.191
-285.559	-126.075	-0.375	-0.056
-284.545	-41.917	0.701	0.356
-283.530	800.000	0.183	0.690
-282.516	-5.154	-0.618	-0.421
-281.501	-97.825	0.596	-0.153
-280.486	7.059	0.294	-0.217
-279.472	-54.080	0.622	-0.280
-278.457	800.000	0.281	0.791
-277.443	91.652	-0.307	0.342
-276.428	-11.126	-0.787	0.514
-275.413	-200.000	0.000	-0.204
-274.399	104.446	0.073	0.085
-273.384	27.887	-0.398	0.332
-272.370	-74.334	-0.185	-0.066
-271.355	800.000	-0.031	0.105
-270.340	160.057	0.228	0.314
-269.326	167.782	-0.519	-0.731
-268.311	165.281	-0.069	-0.096
-267.297	261.178	0.101	0.173
-266.282	-38.025	-0.307	-0.161
-265.267	-200.000	-0.112	1.014
-264.253	-124.434	0.700	0.108
-263.238	-200.000	-0.128	0.780
-262.224	-200.000	-0.463	-0.002
-261.209	800.000	-0.099	0.374
-260.195	40.869	0.228	-0.203
-259.180	42.339	-0.218	0.196
-258.165	59.477	-0.331	0.323
-257.151	241.237	0.554	0.915
-256.136	-76.645	0.030	-0.010
-255.122	63.027	-0.485	-0.480
-254.107	-200.000	0.012	0.089
-253.092	459.322	0.263	-0.580
-252.078	799.158	0.215	-0.586
-251.063	-17.963	-0.219	0.136
-250.049	-166.648	0.925	0.038
-249.034	-200.000	0.035	0.188
-248.019	115.231	0.095	-0.115
-247.005	11.098	-0.327	-0.247
-245.990	-23.106	0.438	-0.261
-244.976	-42.634	-0.530	0.267
-243.961	-98.378	-0.156	0.040
-242.946	-31.649	-0.449	-0.249
-241.932	4.995	0.389	0.283
-240.917	340.055	0.411	-0.794
-239.903	511.548	0.221	0.510
-238.888	800.000	-0.171	-0.597
-237.873	713.999	0.464	-1.217
-236.859	212.852	-0.338	-0.528
-235.844	456.348	0.328	0.720
-234.830	-200.000	-0.036	-0.240
-233.815	487.705	-0.276	-0.622
-232.800	619.378	0.037	0.092
-231.786	-10.940	-0.911	-0.595
-230.771	34.541	0.368	0.318
-229.757	586.330	-0.127	0.309
-228.742	256.805	0.499	0.847
-227.727	800.000	0.075	0.248
-226.713	350.688	-0.364	-0.712
-225.698	-27.972	-0.544	0.311
-224.684	-31.508	-0.540	-0.300
-223.669	-11.456	0.676	-0.440
-222.655	-109.080	-0.492	0.104
-221.640	-91.179	-0.323	0.091
-220.625	-27.226	-0.240	-0.138
-219.611	-184.922	-0.333	-0.005
-218.596	-72.206	0.475	-0.174
-217.582	155.319	0.061	-0.083
-216.567	800.000	-0.174	0.566
-215.552	177.730	-0.370	0.532
-214.538	-57.676	-0.791	0.342
-213.523	759.368	-0.186	0.498
-212.509	-124.798	0.154	0.023
-211.494	-119.230	0.846	0.146
-210.479	-161.207	0.885	0.045
-209.465	-99.355	-0.423	-0.105
-208.450	800.000	-0.077	0.319
-207.436	327.187	-0.145	-0.274
-206.421	233.859	0.216	-0.351
-205.406	-145.887	0.298	-0.026
-204.392	800.000	-0.091	-0.297
-203.377	399.770	-0.470	-0.974
-202.363	88.332	0.132	0.144
-201.348	106.930	0.435	-0.510
-200.333	-200.000	-0.030	-0.277
-199.319	-200.000	-0.014	0.850
-198.304	-104.682	0.892	-0.203
-197.290	-124.862	0.291	0.044
-196.275	32.637	-0.567	-0.484
-195.260	-160.086	-0.241	0.013
-194.246	18.823	0.870	-0.688
-193.231	-200.000	-0.037	-0.649
-192.217	69.297	-0.490	-0.497
-191.202	184.428	-0.660	0.965
-190.187	212.729	0.468	-0.729
-189.173	-85.866	0.596	-0.182
-188.158	-200.000	-0.118	-0.579
-187.144	-70.876	0.461	0.172
-186.129	-120.475	-0.809	-0.136
-185.114	-35.179	-0.499	0.268
-184.100	67.876	0.517	-0.522
-183.085	-49.725	-0.434	-0.204
-182.071	-156.916	-1.626	0.098
-181.056	-67.515	-0.709	-0.275
-180.042	-79.993	0.412	0.136
-179.027	-200.000	-0.138	-0.706
-178.012	-27.209	0.477	-0.274
-176.998	-81.097	-0.264	-0.086
-175.983	243.952	0.145	0.240
-174.969	-133.721	-1.247	0.154
-173.954	800.000	-0.131	-0.377
-172.939	-95.334	0.952	0.253
-171.925	699.257	-0.338	-0.876
-170.910	-200.000	-0.082	-0.449
-169.896	-39.478	-0.221	0.114
-168.881	127.433	-0.824	1.031
-167.866	389.902	-0.361	0.739
-166.852	800.000	0.186	0.551
-165.837	-49.229	0.346	-0.163
-164.823	800.000	-0.356	-1.011
-163.808	112.455	-0.498	-0.594
-162.793	83.815	-0.510	0.549
-161.779	27.423	0.338	0.280
-160.764	-156.206	0.393	0.024
-159.750	800.000	-0.160	0.515
-158.735	-200.000	0.134	0.814
-157.720	-78.638	-0.333	-0.112
-156.706	-113.253	0.667	-0.129
-155.691	120.950	-0.339	0.415
-154.677	-103.601	-0.586	-0.136
-153.662	-164.684	0.947	0.042
-152.647	-157.321	-1.257	0.075
-151.633	-53.207	0.782	-0.354
-150.618	-180.923	-0.295	-0.006
-149.604	86.045	0.315	0.342
-148.589	800.000	-0.121	0.462
-147.574	-18.790	-0.124	-0.076
-146.560	364.604	-0.026	-0.052
-145.545	41.545	0.329	-0.293
-144.531	-148.168	0.505	0.041
-143.516	60.705	-0.346	0.338
-142.502	738.089	0.255	-0.675
-141.487	-22.590	0.226	0.135
-140.472	800.000	-0.118	-0.325
-139.458	-104.239	0.416	0.095
-138.443	123.754	-0.482	0.596
-137.429	-101.086	-0.622	-0.150
-136.414	571.170	0.241	-0.579
-135.399	-55.613	-0.195	-0.086
-134.385	-82.399	0.405	0.130
-133.370	-7.464	-0.731	0.487
-132.356	365.233	0.099	-0.196
-131.341	-0.765	0.678	-0.473
-130.326	-68.961	0.764	-0.290
-129.312	-84.474	-0.564	0.175
-128.297	-112.508	-1.144	-0.225
-127.283	-122.091	-0.812	0.131
-126.268	300.293	0.094	-0.170
-125.253	-101.342	-0.044	0.011
-124.239	332.447	0.079	0.150
-123.224	-150.311	-1.009	-0.077
-122.210	-200.000	0.013	-0.167
-121.195	-134.160	0.946	0.115
-120.180	-19.911	-0.356	-0.216
-119.166	-131.926	0.218	0.028
-118.151	-175.636	-0.660	-0.018
-117.137	43.784	0.402	0.362
-116.122	209.571	-0.139	0.215
-115.107	800.000	0.177	0.589
-114.093	-57.886	0.290	0.125
-113.078	180.325	0.356	0.514
-112.064	-149.249	-0.488	0.038
-111.049	-68.411	-0.719	0.275
-110.034	233.780	-0.349	-0.566
-109.020	101.725	-0.235	-0.270
-108.005	49.807	0.717	0.665
-106.991	-200.000	0.156	0.682
-105.976	-28.594	0.211	-0.120
-104.962	-165.854	0.342	0.014
-103.947	136.592	-0.871	1.119
-102.932	-44.440	-0.167	-0.082
-101.918	800.000	0.221	0.657
-100.903	800.000	-0.144	-0.604
-99.889	45.705	-0.645	0.586
-98.874	-200.000	0.076	0.449
-97.859	-200.000	0.004	0.086
-96.845	227.593	0.269	-0.431
-95.830	-18.914	0.601	-0.368
-94.816	-65.591	0.259	0.102
-93.801	-23.939	-0.614	-0.361
-92.786	800.000	-0.108	0.347
-91.772	-130.783	-0.240	-0.032
-90.757	-200.000	0.060	0.387
-89.743	-138.918	-0.860	-0.092
-88.728	-55.486	0.502	0.221
-87.713	-200.000	0.100	0.608
-86.699	-114.327	0.734	0.139
-85.684	800.000	0.054	-0.193
-84.670	554.268	0.072	-0.171
-83.655	800.000	0.111	-0.447
-82.640	-6.416	-0.246	-0.165
-81.626	-72.618	-0.614	-0.223
-80.611	800.000	-0.239	0.850
-79.597	84.359	0.576	0.619
-78.582	117.795	-0.117	0.142
-77.567	65.891	-0.302	0.301
-76.553	800.000	0.307	-1.070
-75.538	-200.000	0.028	0.229
-74.524	23.073	0.455	-0.367
-73.509	486.485	0.030	0.067
-72.494	-168.026	0.945	0.036
-71.480	-72.995	0.820	0.296
-70.465	390.131	0.145	0.296
-69.451	-200.000	0.024	0.384
-68.436	800.000	-0.282	0.907
-67.422	495.972	0.127	-0.286
-66.407	-200.000	-0.012	0.234
-65.392	-200.000	-0.025	0.358
-64.378	800.000	-0.090	-0.316
-63.363	-14.141	0.525	0.332
-62.349	-138.392	-0.483	0.052
-61.334	-20.762	-1.479	-0.891
-60.319	-52.432	1.255	0.570
-59.305	-200.000	0.209	-1.586
-58.290	800.000	0.426	1.566
-57.276	445.572	0.673	1.452
-56.261	-200.000	95.229	594.905
-55.246	685.484	1351.312	3464.725
-54.232	204.236	2524.444	3840.950
-53.217	113.668	2246.290	2679.326
-52.203	41.916	1879.705	1674.002
-51.188	35.488	1673.982	1442.627
-50.173	33.189	1629.151	1387.095
-49.159	51.361	1678.740	1564.967
-48.144	51.948	1694.420	1583.888
-47.130	35.382	1655.076	1425.320
-46.115	32.740	1640.510	1393.229
-45.100	32.615	1636.109	1388.514
-44.086	32.600	1632.465	1385.254
-43.071	32.480	1630.932	1383.020
-42.057	32.579	1628.305	1381.461
-41.042	32.280	1627.018	1378.123
-40.027	32.487	1623.720	1376.794
-39.013	32.363	1621.639	1374.069
-37.998	32.463	1620.421	1373.707
-36.984	32.154	1620.040	1371.079
-35.969	32.581	1618.228	1372.599
-34.954	32.664	1617.128	1372.221
-33.940	32.419	1614.328	1368.003
-32.925	32.560	1612.742	1367.634
-31.911	32.544	1611.062	1366.036
-30.896	32.422	1608.942	1363.304
-29.881	32.691	1606.868	1363.434
-28.867	32.462	1605.452	1360.526
-27.852	32.545	1605.309	1360.947
-26.838	32.523	1602.265	1358.154
-25.823	32.247	1603.577	1357.223
-24.809	32.557	1600.884	1357.122
-23.794	32.623	1598.971	1355.924
-22.779	32.656	1596.846	1354.305
-21.765	32.339	1596.585	1351.749
-20.750	32.344	1593.974	1349.524
-19.736	32.388	1594.139	1349.923
-18.721	32.587	1592.456	1349.875
-17.706	32.684	1589.709	1348.186
-16.692	32.375	1589.486	1345.734
-15.677	32.734	1587.010	1346.145
-14.663	32.663	1586.310	1344.989
-13.648	32.408	1585.131	1342.117
-12.633	32.463	1583.184	1340.809
-11.619	32.493	1581.153	1339.252
-10.604	32.721	1579.028	1339.014
-9.590	32.522	1578.442	1337.057
-8.575	32.354	1578.136	1335.547
-7.560	32.559	1577.509	1336.422
-6.546	32.659	1575.001	1334.953
-5.531	32.487	1574.222	1333.019
-4.517	32.589	1572.779	1332.467
-3.502	32.560	1572.123	1331.649
-2.487	32.523	1570.515	1329.979
-1.473	31.953	1558.829	1316.028
-0.458	29.286	1539.315	1281.001
0.556	26.882	1539.515	1247.824
1.571	24.404	1561.688	1248.369
2.586	23.819	1575.470	1255.144
3.600	21.405	1520.909	1195.090
4.615	12.649	1413.628	1054.822
5.629	4.748	1348.947	957.994
6.644	3.230	1341.622	943.407
7.659	3.277	1339.975	942.453
8.673	3.108	1339.487	940.996
9.688	3.185	1337.225	939.793
10.702	3.132	1334.645	937.572
11.717	6.666	1341.863	964.187
12.731	16.393	1359.652	1036.845
13.746	23.903	1371.733	1092.281
14.761	25.107	1371.572	1099.449
15.775	25.140	1370.216	1098.468
16.790	24.596	1370.325	1095.124
17.804	24.635	1369.306	1094.451
18.819	24.705	1368.359	1094.022
19.834	24.583	1366.735	1091.885
20.848	24.495	1367.240	1091.650
21.863	24.748	1366.188	1092.262
22.877	24.673	1365.434	1091.102
23.892	24.549	1364.561	1089.552
24.907	24.722	1363.682	1089.811
25.921	24.672	1362.486	1088.452
26.936	24.871	1360.898	1088.300
27.950	24.905	1359.908	1087.619
28.965	24.870	1359.583	1087.046
29.980	24.715	1359.188	1085.697
30.994	24.874	1358.647	1086.131
32.009	24.982	1356.964	1085.342
33.023	24.578	1356.212	1082.198
34.038	24.824	1354.352	1082.108
35.053	24.849	1352.573	1080.743
36.067	24.630	1352.755	1079.469
37.082	24.601	1351.723	1078.373
38.096	24.631	1351.394	1078.200
39.111	24.646	1350.284	1077.304
40.126	24.851	1348.964	1077.389
41.140	24.396	1348.920	1074.524
42.155	24.664	1348.402	1075.629
43.169	24.552	1347.381	1074.044
44.184	24.404	1347.862	1073.446
45.199	24.390	1347.196	1072.732
46.213	24.525	1346.912	1073.225
47.228	24.718	1346.636	1074.068
48.242	24.593	1344.741	1071.709
49.257	24.971	1342.722	1072.271
50.271	24.792	1342.257	1070.734
51.286	24.533	1341.612	1068.573
52.301	24.570	1340.302	1067.660
53.315	24.703	1337.799	1066.361
54.330	24.665	1338.389	1066.512
55.344	24.610	1336.428	1064.525
56.359	24.651	1335.203	1063.700
57.374	24.491	1334.367	1061.993
58.388	24.479	1334.125	1061.633
59.403	24.489	1333.224	1060.881
60.417	24.337	1333.355	1059.990
61.432	24.435	1332.006	1059.403
62.447	24.211	1332.163	1058.103
63.461	24.506	1329.917	1057.974
64.476	24.596	1328.566	1057.338
65.490	24.267	1328.556	1055.291
66.505	24.362	1326.326	1053.989
67.520	24.502	1325.161	1053.793
68.534	24.530	1324.870	1053.633
69.549	24.333	1323.454	1051.252
70.563	24.364	1323.506	1051.387
71.578	23.888	1322.889	1047.995
72.593	24.303	1320.736	1048.642
73.607	24.382	1320.047	1048.467
74.622	24.321	1318.421	1046.722
75.636	24.307	1319.898	1047.722
76.651	24.199	1318.956	1046.248
77.666	24.112	1318.841	1045.548
78.680	24.364	1317.575	1045.931
79.695	24.362	1316.127	1044.679
80.709	24.399	1316.543	1045.134
81.724	24.669	1315.454	1045.758
82.739	24.463	1315.042	1044.134
83.753	24.851	1313.372	1044.979
84.768	24.960	1313.147	1045.347
85.782	24.684	1312.438	1043.078
86.797	24.989	1311.146	1043.736
87.812	24.856	1309.133	1041.265
88.826	24.764	1308.215	1039.913
89.841	25.033	1306.796	1040.251
90.855	25.089	1305.800	1039.695
91.870	24.956	1306.199	1039.147
92.884	25.041	1305.852	1039.272
93.899	24.984	1304.447	1037.733
94.914	25.068	1302.951	1036.933
95.928	24.969	1303.370	1036.603
96.943	25.046	1302.456	1036.229
97.957	24.895	1300.862	1034.000
98.972	25.061	1300.233	1034.362
99.987	24.879	1298.847	1032.120
101.001	24.844	1298.808	1031.797
102.016	24.925	1297.116	1030.831
103.030	24.900	1297.217	1030.675
104.045	24.810	1295.800	1028.937
105.060	24.684	1294.511	1027.102
106.074	24.603	1293.500	1025.744
107.089	24.405	1291.574	1022.988
108.103	24.158	1291.704	1021.583
109.118	24.179	1290.504	1020.666
110.133	24.107	1289.455	1019.332
111.147	24.214	1288.269	1018.917
112.162	24.688	1285.394	1019.256
113.176	24.609	1285.653	1018.923
114.191	24.492	1284.886	1017.557
115.206	24.588	1284.433	1017.656
116.220	24.502	1283.832	1016.599
117.235	24.190	1281.988	1013.275
118.249	24.151	1282.332	1013.238
119.264	24.257	1279.887	1011.814
120.279	24.296	1279.226	1011.424
121.293	24.493	1277.665	1011.217
122.308	24.260	1277.685	1009.823
123.322	24.065	1276.537	1007.722
124.337	23.999	1275.759	1006.647
125.352	24.172	1274.779	1006.764
126.366	24.392	1273.371	1006.805
127.381	24.365	1272.679	1006.012
128.395	23.951	1272.748	1003.643
129.410	24.222	1270.327	1003.170
130.424	24.110	1269.882	1002.099
131.439	24.206	1269.430	1002.196
132.454	24.246	1269.205	1002.157
133.468	24.525	1268.477	1003.061
134.483	24.363	1268.059	1001.730
135.497	24.475	1267.126	1001.533
136.512	24.433	1265.942	1000.274
137.527	24.395	1265.038	999.258
138.541	24.251	1264.496	997.935
139.556	24.551	1262.382	997.854
140.570	24.437	1262.471	997.199
141.585	24.748	1261.269	997.896
142.600	24.865	1260.295	997.692
143.614	24.881	1259.893	997.376
144.629	24.891	1259.310	996.879
145.643	25.054	1256.975	995.848
146.658	24.721	1255.789	992.974
147.673	24.688	1254.515	991.691
148.687	24.906	1253.779	992.235
149.702	24.537	1251.611	988.388
150.716	24.215	1251.558	986.476
151.731	24.223	1249.245	984.609
152.746	24.464	1248.301	985.108
153.760	24.462	1248.397	985.085
154.775	24.726	1247.530	985.770
155.789	24.622	1246.880	984.596
156.804	24.630	1245.225	983.244
157.819	24.520	1244.415	981.915
158.833	24.681	1243.708	982.154
159.848	24.778	1243.209	982.208
160.862	24.848	1241.777	981.372
161.877	24.798	1240.606	980.085
162.892	24.474	1240.576	978.200
163.906	23.903	1239.830	974.401
164.921	24.119	1239.052	974.883
165.935	24.489	1238.323	976.249
166.950	24.431	1237.926	975.528
167.964	24.528	1236.806	975.089
168.979	24.775	1236.037	975.749
169.994	24.378	1235.283	972.899
171.008	24.467	1233.418	971.827
172.023	24.725	1233.428	973.157
173.037	24.708	1232.672	972.380
174.052	25.055	1232.090	973.722
175.067	24.640	1230.688	970.276
176.081	24.304	1230.142	967.933
177.096	24.258	1229.669	967.225
178.110	24.375	1229.342	967.520
179.125	24.293	1226.482	964.739
180.140	24.502	1226.368	965.695
181.154	24.749	1225.334	966.129
182.169	24.483	1224.916	964.276
183.183	24.611	1223.775	963.987
184.198	24.760	1222.123	963.402
185.213	24.832	1222.003	963.610
186.227	24.838	1221.577	963.220
187.242	24.909	1219.437	961.830
188.256	24.928	1219.313	961.747
189.271	24.967	1217.360	960.332
190.286	24.593	1217.793	958.582
191.300	24.492	1216.655	957.061
192.315	24.507	1215.663	956.277
193.329	24.878	1214.953	957.618
194.344	24.425	1215.044	955.180
195.359	24.558	1214.045	955.023
196.373	24.040	1213.058	951.395
197.388	24.001	1213.956	951.807
198.402	24.267	1214.824	953.822
199.417	25.058	1212.279	955.963
200.432	24.897	1212.610	955.282
201.446	24.407	1212.340	952.369
202.461	25.094	1210.147	954.221
203.475	24.943	1209.199	952.582
204.490	24.643	1207.583	949.635
205.504	24.319	1207.061	947.419
206.519	24.422	1205.868	946.945
207.534	24.078	1205.191	944.503
208.548	24.342	1204.509	945.285
209.563	24.286	1202.751	943.525
210.577	24.301	1202.345	943.202
211.592	24.372	1202.006	943.227
212.607	24.818	1202.006	945.505
213.621	24.971	1201.159	945.564
214.636	24.788	1200.239	943.788
215.650	24.606	1199.442	942.120
216.665	24.642	1198.372	941.384
217.680	25.056	1196.296	941.847
218.694	25.058	1196.593	942.005
219.709	24.669	1195.578	939.082
220.723	24.648	1196.118	939.312
221.738	24.797	1194.061	938.398
222.753	24.683	1193.031	936.908
223.767	24.594	1191.975	935.527
224.782	24.703	1193.545	937.250
225.796	25.103	1192.427	938.382
226.811	25.080	1190.999	937.055
227.826	24.473	1191.501	934.189
228.840	24.692	1189.073	933.349
229.855	24.823	1188.625	933.599
230.869	24.630	1188.538	932.439
231.884	24.249	1188.168	930.077
232.899	24.497	1186.719	930.154
233.913	24.218	1185.735	927.850
234.928	24.091	1185.585	926.989
235.942	24.383	1184.201	927.342
236.957	24.113	1182.916	924.854
237.972	24.213	1183.213	925.522
238.986	24.370	1181.125	924.621
240.001	24.468	1181.247	925.144
241.015	24.482	1180.813	924.792
242.030	24.283	1179.828	922.908
243.045	24.666	1179.544	924.589
244.059	24.503	1179.022	923.254
245.074	24.525	1179.345	923.540
246.088	24.645	1177.905	922.946
247.103	24.836	1177.518	923.550
248.117	25.307	1175.708	924.474
249.132	24.916	1175.502	922.216
250.147	25.345	1175.362	924.236
251.161	25.500	1175.236	924.849
252.176	25.615	1173.777	924.212
253.190	25.662	1174.084	924.612
254.205	25.502	1173.878	923.547
255.220	25.597	1172.818	923.118
256.234	25.684	1173.055	923.672
257.249	25.616	1171.741	922.207
258.263	25.450	1171.176	920.829
259.278	25.190	1171.181	919.419
260.293	25.318	1170.354	919.345
261.307	25.620	1169.333	920.006
262.322	25.606	1168.409	919.127
263.336	25.456	1168.558	918.393
264.351	25.473	1167.725	917.747
265.366	25.538	1166.181	916.780
266.380	25.429	1166.124	916.102
267.395	25.640	1165.262	916.419
268.409	25.411	1165.037	914.991
269.424	25.467	1163.278	913.814
270.439	25.512	1162.622	913.448
271.453	25.563	1161.075	912.410
272.468	25.141	1160.717	909.906
273.482	25.072	1161.002	909.699
274.497	24.889	1160.274	908.119
275.512	25.432	1158.415	909.333
276.526	24.959	1159.082	907.382
277.541	25.089	1156.893	906.244
278.555	25.264	1156.953	907.096
279.570	25.421	1157.168	907.980
280.585	25.275	1157.258	907.231
281.599	25.407	1155.450	906.401
282.614	25.242	1153.868	904.247
283.628	25.215	1152.044	902.603
284.643	25.409	1151.203	902.840
285.657	25.228	1150.367	901.195
286.672	25.363	1150.369	901.791
287.687	25.376	1150.133	901.592
288.701	25.383	1148.962	900.631
289.716	25.279	1148.395	899.585
290.730	25.166	1147.740	898.429
291.745	24.965	1148.135	897.650
292.760	25.162	1146.488	897.267
293.774	25.535	1145.626	898.379
294.789	25.666	1145.381	898.759
295.803	25.682	1145.019	898.477
296.818	25.272	1144.186	895.701
297.833	25.146	1143.816	894.702
298.847	25.412	1143.177	895.448
299.862	25.512	1141.634	894.656
300.876	25.266	1141.360	893.140
301.891	25.414	1140.981	893.503
302.906	25.485	1140.130	893.106
303.920	25.659	1140.066	893.845
304.935	25.977	1138.859	894.395
305.949	26.042	1138.434	894.304
306.964	25.864	1137.427	892.554
307.979	25.259	1137.610	889.621
308.993	25.539	1135.451	889.239
310.008	25.553	1135.769	889.474
311.022	25.769	1135.246	890.058
312.037	25.667	1134.187	888.645
313.052	25.728	1132.646	887.656
314.066	25.636	1131.407	886.158
315.081	25.062	1131.282	883.153
316.095	25.285	1129.924	883.110
317.110	24.967	1130.080	881.588
318.125	25.295	1129.510	882.681
319.139	25.247	1127.814	881.039
320.154	25.323	1126.964	880.672
321.168	25.116	1127.363	879.892
322.183	25.254	1125.863	879.317
323.197	25.414	1126.315	880.378
324.212	25.399	1125.055	879.241
325.227	25.312	1124.737	878.489
326.241	25.173	1125.437	878.277
327.256	25.156	1123.455	876.569
328.270	25.157	1122.356	875.640
329.285	25.212	1121.505	875.165
330.300	25.235	1121.797	875.428
331.314	25.285	1120.793	874.811
332.329	25.031	1119.444	872.443
333.343	25.040	1118.595	871.751
334.358	25.329	1117.497	872.219
335.373	25.588	1117.297	873.247
336.387	25.633	1116.756	872.963
337.402	25.485	1116.605	872.050
338.416	25.770	1115.455	872.459
339.431	25.729	1115.320	872.075
340.446	25.821	1114.450	871.762
341.460	26.000	1114.103	872.280
342.475	26.071	1113.526	872.093
343.489	25.844	1112.934	870.458
344.504	26.114	1111.024	870.189
345.519	26.182	1110.735	870.215
346.533	26.166	1109.738	869.279
347.548	26.243	1109.949	869.738
348.562	25.918	1109.100	867.431
349.577	25.885	1107.021	865.570
350.592	26.007	1106.449	865.632
351.606	25.556	1106.031	863.062
352.621	25.640	1104.593	862.268
353.635	25.696	1104.375	862.290
354.650	25.358	1104.057	860.343
355.665	25.466	1103.389	860.265
356.679	25.752	1102.315	860.718
357.694	25.742	1103.153	861.252
358.708	25.843	1101.493	860.359
359.723	25.957	1100.750	860.246
360.738	25.687	1099.750	858.101
361.752	25.950	1099.579	859.145
362.767	25.829	1098.906	857.969
363.781	25.508	1099.635	856.934
364.796	25.951	1098.123	857.787
365.810	26.296	1098.301	859.492
366.825	26.345	1097.236	858.814
367.840	26.394	1097.050	858.825
368.854	26.586	1095.810	858.687
369.869	26.367	1095.299	857.175
370.883	26.227	1094.136	855.525
371.898	26.052	1093.470	854.102
372.913	25.819	1092.866	852.453
373.927	26.216	1092.650	854.086
374.942	26.624	1091.843	855.308
375.956	26.232	1091.994	853.498
376.971	26.138	1090.931	852.147
377.986	26.046	1091.106	851.773
379.000	26.430	1089.139	851.970
380.015	26.638	1088.823	852.629
381.029	26.569	1089.044	852.403
382.044	26.424	1088.606	851.302
383.059	26.368	1087.406	850.023
384.073	26.105	1086.954	848.361
385.088	26.132	1087.133	848.549
386.102	26.238	1085.681	847.837
387.117	25.772	1084.421	844.596
388.132	25.985	1083.281	844.630
389.146	26.017	1081.806	843.557
390.161	25.651	1081.639	841.637
391.175	25.916	1081.342	842.571
392.190	26.056	1080.217	842.273
393.205	26.122	1080.581	842.791
394.219	26.108	1079.234	841.603
395.234	26.298	1078.095	841.523
396.248	25.910	1077.076	838.851
397.263	26.127	1076.215	839.115
398.278	25.989	1076.052	838.269
399.292	26.092	1074.883	837.764
400.307	26.048	1074.134	836.903
401.321	26.099	1073.175	836.315
402.336	25.810	1072.290	834.212
403.350	25.578	1071.538	832.483
404.365	26.066	1071.578	834.698
405.380	26.264	1070.925	835.028
406.394	25.896	1070.273	832.746
407.409	26.073	1070.485	833.657
408.423	26.721	1069.316	835.661
409.438	26.305	1069.359	833.706
410.453	26.628	1068.276	834.274
411.467	26.373	1067.993	832.804
412.482	26.283	1066.234	830.945
413.496	26.612	1066.684	832.733
414.511	26.475	1065.913	831.432
415.526	26.573	1065.555	831.525
416.540	26.628	1064.801	831.116
417.555	26.672	1065.126	831.499
418.569	26.638	1063.766	830.210
419.584	26.381	1062.869	828.256
420.599	26.658	1062.676	829.301
421.613	153.922	1404.150	1794.269
422.628	141.555	1453.847	1794.344
