DTS Sentinel unit serial number:	SN413079Multiplexer serial number:	ORYXHardware model number:	OX4-SRSoftware version number:	ORYX F/W v4.00 Oryx Data Collector v3.7.2.0data status	okinstallation	princeton_trtdifferential loss correction	single-endedforward channel	channel 2reverse channel	N/Adate	2019/09/18time	21:47:35forward acquisition time	60.00reverse acquisition time	0.00gamma	496.2192k internal	0.2347k external	0.2347temperature offset calibration	1.0019default loss term (dB/km)	0.3790temperature slope calibration	1.0000multiplexer offset coefficient	1.0000multiplexer slope coefficient	1.0000fibre end	0.00T internal ref (°C)	24.81T ext. ref 1 (°C)	0.81T ext. ref 2 (°C)	18.29length (m)	temperature (°C)	Stokes	anti-Stokes-747.200	-93.118	-0.184	0.051
-746.185	8.787	0.114	0.086
-745.171	142.901	0.023	-0.031
-744.156	-59.665	-0.157	-0.067
-743.142	800.000	-0.015	0.046
-742.127	-200.000	-0.021	0.370
-741.112	-165.593	0.298	0.013
-740.098	-200.000	0.028	0.301
-739.083	169.717	-0.200	0.285
-738.069	-200.000	0.050	0.251
-737.054	-122.293	0.204	0.033
-736.039	800.000	-0.052	0.211
-735.025	-126.472	0.121	0.018
-734.010	800.000	-0.040	-0.138
-732.996	800.000	-0.113	0.427
-731.981	-154.310	-0.080	-0.005
-730.966	-200.000	-0.006	-0.200
-729.952	-111.146	-0.083	-0.017
-728.937	-200.000	0.014	0.069
-727.923	-200.000	-0.002	0.010
-726.908	-22.065	-0.180	-0.109
-725.894	728.344	0.081	-0.216
-724.879	-200.000	0.041	-0.464
-723.864	-200.000	0.004	-0.203
-722.850	-39.585	-0.054	-0.028
-721.835	-200.000	-0.033	-0.205
-720.821	-41.795	-0.222	0.114
-719.806	-200.000	0.025	0.133
-718.791	-125.861	0.218	0.033
-717.777	-78.804	-0.417	-0.142
-716.762	632.151	0.074	-0.187
-715.748	-21.900	-0.166	-0.101
-714.733	104.923	0.161	0.190
-713.718	29.140	-0.243	0.206
-712.704	157.245	-0.090	0.124
-711.689	676.824	-0.064	0.165
-710.675	271.110	-0.109	-0.191
-709.660	-79.703	0.285	-0.096
-708.645	-85.833	0.286	0.088
-707.631	-200.000	-0.057	-0.456
-706.616	-100.469	0.095	0.023
-705.602	-90.242	0.381	-0.110
-704.587	-46.293	-0.316	-0.155
-703.572	27.421	-0.098	-0.082
-702.558	93.973	0.249	-0.282
-701.543	-148.888	0.081	0.007
-700.529	358.915	0.184	-0.366
-699.514	-152.368	0.272	0.020
-698.499	199.716	0.103	-0.157
-697.485	463.170	0.088	-0.197
-696.470	-35.597	-0.355	0.192
-695.456	41.937	-0.381	0.345
-694.441	-200.000	-0.016	0.311
-693.426	800.000	-0.026	-0.082
-692.412	-200.000	-0.002	-0.348
-691.397	689.981	-0.073	-0.191
-690.383	-200.000	0.024	-0.313
-689.368	182.965	0.099	0.146
-688.354	142.901	0.096	-0.127
-687.339	781.810	-0.043	-0.117
-686.324	-57.138	0.221	0.097
-685.310	236.912	-0.111	0.183
-684.295	-49.337	0.389	0.185
-683.281	134.569	-0.175	0.226
-682.266	-200.000	0.002	-0.053
-681.251	-125.242	-0.412	-0.063
-680.237	-121.585	-0.173	-0.029
-679.222	-200.000	0.040	-0.182
-678.208	-67.746	-0.104	0.041
-677.193	-18.492	-0.137	-0.086
-676.178	-58.050	0.365	-0.159
-675.164	-121.144	-0.181	-0.030
-674.149	378.937	-0.087	0.177
-673.135	175.364	-0.018	0.027
-672.120	800.000	0.055	0.213
-671.105	-5.419	0.384	0.263
-670.091	800.000	-0.100	-0.278
-669.076	-144.754	-0.251	0.023
-668.062	-65.225	-0.274	0.110
-667.047	357.091	-0.165	0.327
-666.032	-129.771	0.225	-0.031
-665.018	27.243	-0.286	0.239
-664.003	-200.000	-0.031	0.347
-662.989	108.354	0.108	-0.128
-661.974	-146.876	0.159	-0.014
-660.959	501.543	-0.064	0.147
-659.945	94.921	-0.234	0.265
-658.930	-122.550	0.363	-0.059
-657.916	-117.396	0.092	-0.017
-656.901	76.739	0.110	0.117
-655.886	-49.266	-0.118	-0.056
-654.872	-154.893	-0.228	0.015
-653.857	40.818	0.140	0.126
-652.843	6.285	-0.127	-0.094
-651.828	-42.413	0.122	0.062
-650.814	-200.000	-0.003	0.085
-649.799	188.048	-0.100	0.148
-648.784	-108.368	-0.317	-0.068
-647.770	-102.464	-0.241	-0.058
-646.755	800.000	-0.044	0.167
-645.741	-176.756	0.023	-0.001
-644.726	290.715	-0.039	0.071
-643.711	-200.000	-0.021	-0.327
-642.697	-97.107	0.182	-0.047
-641.682	-200.000	-0.011	-0.298
-640.668	-108.613	-0.317	0.068
-639.653	32.200	0.110	0.095
-638.638	-79.408	0.097	-0.033
-637.624	-200.000	0.002	-0.331
-636.609	-111.443	-0.226	-0.046
-635.595	-200.000	-0.042	-0.246
-634.580	-115.279	-0.382	0.072
-633.565	-28.819	-0.271	-0.155
-632.551	360.798	-0.145	0.289
-631.536	-200.000	-0.001	-0.183
-630.522	-200.000	0.051	-0.350
-629.507	-34.538	0.318	-0.173
-628.492	-182.752	0.222	0.004
-627.478	232.948	-0.059	-0.096
-626.463	148.278	0.022	-0.029
-625.449	12.214	0.200	0.153
-624.434	240.923	0.046	0.077
-623.419	-55.371	-0.269	0.120
-622.405	-138.504	0.091	-0.010
-621.390	181.416	-0.058	-0.084
-620.376	-95.892	-0.080	-0.021
-619.361	611.895	0.078	0.193
-618.346	-200.000	0.022	0.203
-617.332	-107.369	0.215	0.047
-616.317	-122.038	0.308	-0.050
-615.303	-131.188	-0.185	-0.024
-614.288	-2.542	0.163	-0.114
-613.273	29.878	-0.058	-0.049
-612.259	800.000	-0.103	-0.393
-611.244	293.395	-0.051	0.093
-610.230	149.400	-0.186	0.251
-609.215	-29.645	0.073	-0.042
-608.201	-96.408	-0.278	0.073
-607.186	-28.773	0.233	0.133
-606.171	29.079	-0.063	-0.053
-605.157	-158.077	0.183	-0.011
-604.142	-106.580	-0.204	-0.045
-603.128	-200.000	0.032	0.276
-602.113	257.605	-0.057	0.097
-601.098	-200.000	0.029	-0.146
-600.084	-200.000	-0.045	-0.230
-599.069	-200.000	0.022	0.114
-598.055	-56.439	-0.170	0.075
-597.040	-200.000	0.023	-0.381
-596.025	-67.608	-0.055	-0.022
-595.011	52.164	0.231	0.218
-593.996	-200.000	-0.037	0.345
-592.982	-5.432	0.043	0.029
-591.967	82.403	-0.238	-0.256
-590.952	800.000	-0.011	0.039
-589.938	-200.000	0.011	-0.205
-588.923	65.599	-0.091	-0.091
-587.909	-200.000	-0.009	-0.084
-586.894	800.000	-0.114	-0.326
-585.879	-28.264	-0.102	-0.059
-584.865	228.581	0.063	0.101
-583.850	-160.955	0.224	0.012
-582.836	-31.319	0.210	-0.118
-581.821	-200.000	0.000	0.195
-580.806	800.000	0.087	-0.262
-579.792	-40.205	0.090	-0.046
-578.777	-200.000	0.013	-0.194
-577.763	-109.223	0.360	0.076
-576.748	190.687	-0.084	0.126
-575.733	121.537	-0.085	-0.106
-574.719	-82.334	-0.165	-0.053
-573.704	-200.000	0.005	0.082
-572.690	15.661	-0.108	-0.085
-571.675	-30.648	-0.135	0.076
-570.661	-21.720	-0.107	0.064
-569.646	-1.968	0.047	0.033
-568.631	607.110	0.105	0.260
-567.617	800.000	0.036	0.117
-566.602	-200.000	0.027	-0.310
-565.588	162.711	-0.137	-0.191
-564.573	229.722	-0.246	0.399
-563.558	392.043	-0.073	-0.151
-562.544	-25.214	-0.155	-0.091
-561.529	11.109	0.180	-0.137
-560.515	-200.000	0.035	0.172
-559.500	-200.000	-0.020	0.222
-558.485	475.174	0.204	-0.458
-557.471	28.817	0.091	-0.076
-556.456	-200.000	0.006	-0.179
-555.442	-105.636	-0.314	0.070
-554.427	-131.526	0.131	-0.017
-553.412	90.974	-0.039	0.043
-552.398	367.597	0.111	-0.223
-551.383	-115.791	-0.021	0.004
-550.369	373.404	0.127	0.256
-549.354	-153.793	-0.343	-0.023
-548.339	257.277	-0.015	0.026
-547.325	-153.585	0.323	0.022
-546.310	185.514	-0.158	0.233
-545.296	-24.609	0.244	0.144
-544.281	613.866	0.122	0.303
-543.266	358.842	-0.116	0.230
-542.252	-89.365	0.245	-0.072
-541.237	800.000	-0.020	0.062
-540.223	800.000	-0.122	0.381
-539.208	-61.487	-0.097	-0.040
-538.193	-145.027	0.228	-0.021
-537.179	-200.000	0.028	-0.141
-536.164	756.746	-0.035	-0.094
-535.150	-22.841	-0.224	-0.134
-534.135	800.000	0.088	-0.263
-533.121	581.754	-0.070	-0.169
-532.106	762.359	-0.046	0.123
-531.091	24.970	0.248	0.204
-530.077	-85.372	-0.286	0.088
-529.062	-77.565	0.228	0.079
-528.048	-96.617	0.391	0.102
-527.033	61.305	-0.173	-0.171
-526.018	84.097	-0.159	-0.172
-525.004	-200.000	0.002	-0.119
-523.989	-29.694	-0.149	0.084
-522.975	70.648	0.214	-0.219
-521.960	364.663	0.108	-0.215
-520.945	-200.000	0.025	0.191
-519.931	-192.366	-0.113	0.001
-518.916	-27.035	0.130	0.075
-517.902	800.000	-0.023	0.098
-516.887	-94.602	-0.224	0.060
-515.872	226.816	-0.048	-0.077
-514.858	175.050	0.138	0.199
-513.843	-119.298	0.176	0.030
-512.829	-40.099	0.212	0.109
-511.814	-93.404	-0.412	-0.113
-510.799	-22.562	0.279	0.167
-509.785	22.455	-0.220	0.178
-508.770	-164.723	-0.099	0.004
-507.756	-200.000	0.000	-0.060
-506.741	95.768	0.352	-0.398
-505.726	-181.158	-0.127	-0.003
-504.712	6.801	-0.219	-0.162
-503.697	-11.591	-0.106	0.069
-502.683	124.240	-0.173	-0.215
-501.668	452.664	0.131	-0.287
-500.653	63.357	-0.178	-0.177
-499.639	742.673	0.144	-0.382
-498.624	-84.373	-0.172	-0.054
-497.610	747.863	0.031	0.082
-496.595	53.565	-0.067	0.064
-495.581	-74.508	-0.060	-0.022
-494.566	-200.000	-0.151	0.000
-493.551	676.357	-0.055	-0.141
-492.537	169.058	-0.127	0.179
-491.522	-16.768	0.326	0.204
-490.508	41.741	0.017	0.015
-489.493	-10.810	0.176	0.115
-488.478	258.358	-0.316	0.539
-487.464	13.618	0.056	0.043
-486.449	-135.919	0.377	0.044
-485.435	-200.000	-0.005	-0.092
-484.420	-200.000	0.038	0.282
-483.405	78.416	0.094	0.100
-482.391	-49.669	-0.041	-0.019
-481.376	160.281	-0.096	-0.133
-480.362	800.000	0.019	-0.079
-479.347	-119.790	0.384	0.065
-478.332	-200.000	0.038	0.204
-477.318	-60.813	-0.068	0.029
-476.303	-155.626	0.227	-0.014
-475.289	-200.000	-0.055	-0.279
-474.274	82.742	-0.169	0.182
-473.259	800.000	-0.037	-0.130
-472.245	244.623	0.023	-0.039
-471.230	-47.237	0.222	-0.107
-470.216	14.132	0.261	0.201
-469.201	-200.000	-0.000	0.187
-468.186	-200.000	0.020	0.135
-467.172	-166.225	0.252	0.011
-466.157	119.620	-0.155	-0.190
-465.143	-82.677	0.373	0.119
-464.128	800.000	-0.037	0.135
-463.113	-200.000	-0.040	-0.218
-462.099	-200.000	0.043	-0.197
-461.084	-65.428	0.142	-0.056
-460.070	800.000	-0.093	-0.312
-459.055	-37.588	0.088	-0.046
-458.040	-134.811	-0.319	-0.038
-457.026	519.473	0.003	0.007
-456.011	58.941	-0.247	0.240
-454.997	-148.372	-0.465	0.038
-453.982	-61.188	0.145	-0.060
-452.968	-133.231	0.324	-0.041
-451.953	-103.044	-0.245	0.057
-450.938	-142.463	0.370	0.036
-449.924	62.106	-0.210	-0.207
-448.909	-64.186	-0.457	0.184
-447.895	28.259	0.180	-0.150
-446.880	-145.949	0.190	-0.017
-445.865	-62.105	0.188	-0.078
-444.851	342.288	0.175	-0.339
-443.836	44.905	-0.173	-0.157
-442.822	-200.000	-0.007	0.338
-441.807	14.259	0.072	-0.055
-440.792	-134.827	0.465	-0.056
-439.778	-136.996	-0.285	0.032
-438.763	-136.951	0.202	0.023
-437.749	-69.762	0.245	0.093
-436.734	-104.592	-0.446	-0.102
-435.719	-145.003	-0.170	0.015
-434.705	-167.145	-0.211	0.008
-433.690	118.397	-0.244	-0.298
-432.676	219.639	0.045	0.070
-431.661	-131.774	-0.251	-0.033
-430.646	-111.611	-0.258	-0.052
-429.632	75.107	-0.096	0.100
-428.617	-200.000	-0.044	-0.230
-427.603	800.000	0.023	-0.088
-426.588	37.560	-0.061	0.053
-425.573	104.052	0.287	0.334
-424.559	-165.021	0.429	0.019
-423.544	585.496	0.116	-0.282
-422.530	-200.000	0.000	0.057
-421.515	-111.205	-0.181	0.036
-420.500	50.905	-0.507	0.475
-419.486	583.833	-0.034	0.082
-418.471	58.541	0.396	-0.383
-417.457	800.000	-0.114	-0.417
-416.442	-111.991	-0.270	-0.054
-415.428	-200.000	0.060	-0.290
-414.413	-193.960	0.233	-0.002
-413.398	-168.536	-0.328	-0.012
-412.384	800.000	-0.124	0.488
-411.369	-200.000	0.057	0.298
-410.355	-61.256	-0.218	-0.091
-409.340	-123.771	0.105	0.016
-408.325	-200.000	-0.031	0.241
-407.311	-200.000	-0.030	0.182
-406.296	800.000	0.030	-0.100
-405.282	-9.933	0.154	-0.101
-404.267	106.589	-0.175	0.204
-403.252	126.799	-0.075	-0.094
-402.238	144.187	-0.066	0.087
-401.223	-133.206	-0.292	0.036
-400.209	217.357	-0.112	-0.175
-399.194	131.943	0.258	-0.328
-398.179	129.161	0.194	-0.244
-397.165	-82.721	-0.142	0.045
-396.150	-126.335	0.353	-0.052
-395.136	-200.000	0.036	0.197
-394.121	-200.000	0.006	-0.196
-393.106	-84.627	-0.208	0.065
-392.092	-76.476	0.137	-0.048
-391.077	-39.698	-0.183	-0.094
-390.063	-78.005	-0.342	0.116
-389.048	148.720	-0.306	-0.408
-388.033	635.582	0.149	-0.373
-387.019	-130.172	0.145	0.019
-386.004	504.285	0.047	-0.108
-384.990	319.434	0.132	0.247
-383.975	76.524	-0.181	-0.189
-382.960	233.682	-0.143	-0.233
-381.946	89.208	0.074	0.082
-380.931	176.650	-0.197	0.282
-379.917	800.000	-0.046	-0.147
-378.902	-62.051	0.194	-0.080
-377.888	-172.477	0.309	0.010
-376.873	176.372	0.105	0.150
-375.858	-200.000	0.022	0.205
-374.844	-2.656	0.381	0.263
-373.829	-155.577	-0.410	0.026
-372.815	-200.000	0.007	-0.058
-371.800	-137.848	0.170	0.019
-370.785	46.075	0.119	0.109
-369.771	-41.183	-0.194	-0.099
-368.756	133.191	-0.101	0.128
-367.742	-153.702	-0.256	-0.017
-366.727	-93.748	0.143	0.039
-365.712	131.704	0.122	-0.155
-364.698	-200.000	0.019	0.191
-363.683	-113.272	0.266	-0.051
-362.669	-200.000	-0.013	-0.222
-361.654	119.254	0.346	0.422
-360.639	-83.670	0.227	-0.071
-359.625	-19.208	0.077	-0.047
-358.610	-66.669	-0.454	-0.177
-357.596	-200.000	-0.055	0.240
-356.581	271.067	-0.117	-0.204
-355.566	34.758	-0.103	-0.088
-354.552	193.828	0.058	-0.086
-353.537	-200.000	-0.007	-0.070
-352.523	312.537	0.030	0.056
-351.508	56.656	0.098	0.094
-350.493	-42.746	-0.164	0.082
-349.479	164.383	0.078	0.109
-348.464	63.278	0.085	0.084
-347.450	-192.205	-0.144	0.001
-346.435	-46.612	-0.130	0.063
-345.420	-73.657	-0.233	0.083
-344.406	165.508	0.126	0.175
-343.391	447.147	0.054	0.117
-342.377	-14.880	-0.222	0.140
-341.362	576.192	0.063	-0.152
-340.348	-99.526	0.173	-0.043
-339.333	-200.000	0.001	0.264
-338.318	56.867	0.056	0.053
-337.304	-200.000	-0.064	0.317
-336.289	800.000	0.066	0.258
-335.275	396.712	0.116	-0.238
-334.260	192.755	0.287	0.427
-333.245	46.807	-0.197	0.180
-332.231	308.118	-0.033	-0.061
-331.216	-200.000	0.029	-0.142
-330.202	-154.211	0.288	0.019
-329.187	-184.653	-0.083	-0.001
-328.172	-71.710	0.187	0.069
-327.158	-79.070	-0.200	-0.067
-326.143	-130.440	-0.330	0.044
-325.129	-119.320	-0.190	0.033
-324.114	800.000	0.067	-0.283
-323.099	346.779	0.025	-0.049
-322.085	-4.877	0.071	0.048
-321.070	719.717	0.127	0.332
-320.056	-200.000	0.028	0.207
-319.041	39.669	-0.190	0.167
-318.026	-96.374	0.161	-0.042
-317.012	-55.537	0.207	-0.091
-315.997	123.770	-0.196	-0.242
-314.983	-102.426	-0.139	-0.033
-313.968	-9.172	0.291	-0.191
-312.953	800.000	0.142	0.573
-311.939	-26.352	0.283	0.163
-310.924	-84.576	-0.292	0.090
-309.910	9.963	0.059	0.044
-308.895	-200.000	-0.047	-0.210
-307.880	70.841	0.056	-0.057
-306.866	128.123	0.110	0.137
-305.851	-47.571	-0.249	-0.119
-304.837	19.529	-0.283	0.224
-303.822	800.000	0.074	0.297
-302.807	-52.231	0.154	-0.070
-301.793	800.000	-0.048	-0.182
-300.778	-54.671	-0.354	0.157
-299.764	98.602	0.338	-0.383
-298.749	-58.059	-0.169	-0.072
-297.735	-157.391	0.283	0.017
-296.720	-38.505	-0.242	0.126
-295.705	-40.422	0.327	-0.167
-294.691	392.183	0.086	-0.175
-293.676	-194.924	-0.218	-0.002
-292.662	225.054	-0.196	0.311
-291.647	34.733	0.300	0.258
-290.632	93.667	0.021	-0.023
-289.618	133.193	-0.279	0.354
-288.603	-200.000	-0.014	0.352
-287.589	-66.371	-0.169	0.066
-286.574	800.000	0.089	0.256
-285.559	-110.327	-0.252	-0.051
-284.545	-97.487	-0.088	0.023
-283.530	800.000	0.078	-0.221
-282.516	55.304	-0.168	0.159
-281.501	-48.034	0.066	0.031
-280.486	18.553	0.079	-0.062
-279.472	207.062	0.198	0.303
-278.457	402.890	-0.113	0.233
-277.443	-67.965	-0.337	0.129
-276.428	-142.767	-0.124	-0.012
-275.413	-200.000	0.043	0.192
-274.399	-78.931	0.291	-0.097
-273.384	-6.928	0.107	-0.071
-272.370	114.697	0.111	0.133
-271.355	-18.356	0.295	0.181
-270.340	223.420	0.121	0.192
-269.326	161.305	-0.058	-0.079
-268.311	-139.996	-0.499	-0.052
-267.297	-15.686	0.379	-0.237
-266.282	-200.000	-0.025	-0.176
-265.267	-133.982	-0.359	0.044
-264.253	383.970	-0.174	-0.352
-263.238	117.912	0.246	-0.297
-262.224	49.853	-0.228	-0.211
-261.209	-4.004	-0.124	0.084
-260.195	340.601	-0.088	-0.168
-259.180	-71.708	-0.098	-0.036
-258.165	-200.000	0.133	-0.001
-257.151	800.000	-0.035	0.106
-256.136	56.588	0.152	0.145
-255.122	-200.000	-0.028	-0.130
-254.107	-25.584	0.328	0.190
-253.092	336.588	0.070	-0.132
-252.078	691.091	-0.058	0.150
-251.063	319.374	0.143	-0.265
-250.049	-47.720	0.454	-0.216
-249.034	-200.000	-0.025	-0.295
-248.019	441.757	-0.135	-0.290
-247.005	53.791	-0.055	0.052
-245.990	800.000	-0.065	0.256
-244.976	-32.213	0.296	0.162
-243.961	-200.000	-0.048	-0.262
-242.946	-200.000	-0.020	-0.255
-241.932	135.193	-0.108	0.137
-240.917	-115.617	-0.283	0.052
-239.903	35.634	0.440	-0.379
-238.888	-200.000	-0.145	-0.653
-237.873	52.852	-0.078	0.073
-236.859	-48.992	0.189	-0.089
-235.844	538.029	-0.085	0.198
-234.830	12.993	0.235	0.178
-233.815	800.000	0.092	0.254
-232.800	-31.964	0.089	0.049
-231.786	160.801	-0.061	0.083
-230.771	185.307	-0.048	-0.070
-229.757	-200.000	-0.000	-0.168
-228.742	73.761	0.191	-0.196
-227.727	-148.162	-0.306	0.025
-226.713	-93.656	-0.140	0.038
-225.698	-145.532	0.118	-0.010
-224.684	35.238	0.204	0.176
-223.669	-9.769	0.228	-0.148
-222.655	100.180	-0.216	-0.245
-221.640	-109.545	-0.209	-0.043
-220.625	-69.819	-0.270	0.101
-219.611	-102.312	-0.009	0.002
-218.596	-200.000	0.004	-0.159
-217.582	-76.634	-0.167	0.057
-216.567	-31.154	-0.037	-0.020
-215.552	83.997	-0.096	-0.103
-214.538	-91.814	0.200	0.056
-213.523	-43.592	0.119	0.059
-212.509	800.000	0.076	-0.294
-211.494	-200.000	0.016	0.231
-210.479	-200.000	-0.011	-0.134
-209.465	-23.097	-0.071	0.042
-208.450	228.767	-0.131	0.209
-207.436	57.863	-0.183	0.176
-206.421	-115.431	0.500	0.092
-205.406	275.848	-0.129	-0.224
-204.392	-140.669	0.414	0.042
-203.377	-49.257	0.201	-0.094
-202.363	-6.741	-0.019	0.013
-201.348	-64.059	-0.336	-0.134
-200.333	46.289	0.058	0.053
-199.319	-104.073	0.091	-0.021
-198.304	140.528	0.088	-0.114
-197.290	195.398	-0.076	-0.113
-196.275	-103.692	0.418	0.096
-195.260	-17.153	-0.038	-0.024
-194.246	144.173	-0.099	-0.129
-193.231	-57.947	0.115	0.049
-192.217	-65.146	-0.268	0.106
-191.202	251.828	0.167	0.279
-190.187	-200.000	0.035	-0.224
-189.173	800.000	-0.112	0.306
-188.158	131.216	0.105	-0.132
-187.144	96.444	0.160	-0.180
-186.129	-54.187	-0.336	-0.149
-185.114	-200.000	-0.016	-0.185
-184.100	800.000	0.068	0.193
-183.085	236.534	0.061	-0.098
-182.071	-200.000	0.045	-0.197
-181.056	362.989	-0.113	-0.222
-180.042	-149.919	-0.017	0.001
-179.027	99.947	0.195	0.221
-178.012	246.426	-0.120	0.198
-176.998	-106.352	0.028	-0.006
-175.983	-154.883	-0.156	0.010
-174.969	-47.293	-0.127	0.060
-173.954	-115.279	-0.149	-0.027
-172.939	-200.000	0.039	0.283
-171.925	750.757	0.170	0.450
-170.910	-200.000	0.051	-0.226
-169.896	119.490	0.089	0.107
-168.881	46.022	-0.063	-0.057
-167.866	69.946	-0.078	0.079
-166.852	88.899	-0.200	0.218
-165.837	34.573	-0.053	-0.045
-164.823	18.549	0.140	0.110
-163.808	87.259	0.146	0.158
-162.793	602.668	-0.121	-0.294
-161.779	29.205	0.354	0.294
-160.764	258.021	-0.124	0.209
-159.750	-88.723	-0.212	0.062
-158.735	-200.000	-0.006	0.129
-157.720	800.000	0.075	0.225
-156.706	-141.669	0.027	-0.003
-155.691	-123.205	0.212	0.033
-154.677	-91.555	0.382	-0.106
-153.662	421.456	0.016	-0.033
-152.647	-200.000	0.026	-0.186
-151.633	-151.485	-0.172	-0.012
-150.618	128.163	0.114	-0.142
-149.604	38.518	0.157	0.137
-148.589	-200.000	0.005	0.223
-147.574	131.043	0.163	0.204
-146.560	800.000	0.016	0.045
-145.545	800.000	-0.086	-0.232
-144.531	-98.333	0.163	0.041
-143.516	113.685	0.137	0.163
-142.502	-200.000	-0.029	0.225
-141.487	800.000	-0.069	0.211
-140.472	30.861	0.097	-0.081
-139.458	-91.960	-0.127	0.035
-138.443	250.144	-0.083	-0.137
-137.429	800.000	-0.019	-0.067
-136.414	-148.221	0.127	-0.010
-135.399	-63.456	0.059	0.024
-134.385	-47.026	0.228	-0.109
-133.370	-65.170	0.253	-0.100
-132.356	-200.000	-0.018	0.286
-131.341	214.981	-0.184	-0.285
-130.326	155.175	-0.077	-0.103
-129.312	800.000	0.045	-0.144
-128.297	-101.773	0.153	0.036
-127.283	-72.648	0.300	0.108
-126.268	-66.775	0.177	-0.068
-125.253	800.000	-0.095	-0.369
-124.239	-34.092	-0.211	-0.113
-123.224	47.860	0.064	0.059
-122.210	-160.331	0.158	-0.008
-121.195	-200.000	0.007	0.090
-120.180	425.615	0.091	0.192
-119.166	-200.000	0.018	0.236
-118.151	-172.650	-0.227	-0.007
-117.137	459.162	-0.088	0.191
-116.122	800.000	-0.140	0.398
-115.107	140.308	-0.017	-0.022
-114.093	24.799	0.036	0.029
-113.078	-76.734	-0.221	0.076
-112.064	548.042	-0.105	-0.246
-111.049	7.392	0.315	0.230
-110.034	-87.853	-0.226	0.066
-109.020	800.000	0.068	-0.249
-108.005	68.536	0.112	-0.112
-106.991	16.515	0.212	0.163
-105.976	800.000	0.064	-0.195
-104.962	-200.000	-0.029	0.188
-103.947	800.000	-0.062	0.242
-102.932	-4.591	-0.201	0.136
-101.918	-49.934	-0.059	0.027
-100.903	800.000	0.019	0.059
-99.889	-200.000	0.033	-0.171
-98.874	17.547	0.096	0.074
-97.859	-111.122	-0.079	-0.016
-96.845	-184.540	-0.309	0.005
-95.830	-85.887	0.164	0.049
-94.816	-200.000	-0.055	0.244
-93.801	-17.988	0.135	0.082
-92.786	367.169	-0.028	0.055
-91.772	37.841	0.157	-0.136
-90.757	800.000	-0.034	-0.123
-89.743	-200.000	-0.021	0.346
-88.728	-53.287	0.217	-0.097
-87.713	213.605	0.199	-0.306
-86.699	-200.000	0.060	-0.323
-85.684	800.000	0.041	-0.146
-84.670	69.715	0.133	-0.133
-83.655	800.000	-0.040	0.119
-82.640	-22.894	0.197	-0.116
-81.626	-49.082	-0.596	-0.278
-80.611	-46.550	0.541	-0.258
-79.597	378.201	-0.063	-0.126
-78.582	-42.527	0.194	0.096
-77.567	88.413	-0.163	0.177
-76.553	738.892	0.128	0.336
-75.538	-196.000	-0.170	-0.001
-74.524	2.071	-0.117	-0.082
-73.509	-200.000	0.008	0.098
-72.494	-200.000	0.005	0.125
-71.480	47.391	-0.094	0.086
-70.465	800.000	-0.085	0.315
-69.451	-85.771	-0.373	0.113
-68.436	-88.340	0.135	-0.039
-67.422	-30.552	0.194	-0.107
-66.407	68.742	0.108	0.108
-65.392	-200.000	-0.001	0.221
-64.378	-83.773	0.207	0.064
-63.363	-112.573	-0.257	-0.050
-62.349	16.873	0.169	0.130
-61.334	31.304	-1.311	-1.096
-60.319	408.827	0.435	0.896
-59.305	513.715	-0.525	-1.191
-58.290	187.839	0.955	1.388
-57.276	686.636	0.587	1.493
-56.261	-200.000	119.915	627.903
-55.246	426.520	1530.506	3210.841
-54.232	148.784	2687.546	3534.894
-53.217	92.588	2268.059	2489.888
-52.203	33.612	1885.810	1594.863
-51.188	27.896	1682.732	1380.020
-50.173	25.618	1643.725	1331.136
-49.159	45.463	1710.151	1535.812
-48.144	43.626	1723.497	1533.825
-47.130	27.316	1675.716	1369.683
-46.115	24.956	1659.822	1339.016
-45.100	24.778	1654.968	1333.721
-44.086	24.706	1652.909	1331.467
-43.071	24.676	1650.275	1329.073
-42.057	24.615	1648.005	1326.739
-41.042	24.743	1646.245	1326.221
-40.027	24.588	1644.380	1323.515
-39.013	24.622	1642.304	1322.044
-37.998	24.626	1640.703	1320.729
-36.984	24.736	1639.094	1320.194
-35.969	24.698	1638.177	1319.125
-34.954	24.826	1635.968	1318.236
-33.940	24.792	1634.755	1316.955
-32.925	24.760	1633.306	1315.503
-31.911	24.782	1631.712	1314.324
-30.896	24.851	1629.602	1313.083
-29.881	24.816	1628.315	1311.737
-28.867	24.808	1626.237	1309.954
-27.852	24.817	1625.386	1309.282
-26.838	24.870	1623.526	1308.118
-25.823	24.936	1622.610	1307.807
-24.809	24.966	1620.778	1306.501
-23.794	24.771	1620.175	1304.538
-22.779	24.855	1618.408	1303.677
-21.765	24.786	1616.507	1301.588
-20.750	24.763	1615.204	1300.320
-19.736	24.759	1614.361	1299.563
-18.721	24.908	1612.457	1299.060
-17.706	24.804	1611.091	1297.152
-16.692	24.812	1609.361	1295.771
-15.677	24.875	1607.978	1295.063
-14.663	24.966	1606.711	1294.644
-13.648	24.888	1605.226	1292.833
-12.633	24.808	1603.932	1291.161
-11.619	24.738	1602.774	1289.675
-10.604	24.814	1600.627	1288.443
-9.590	24.899	1599.399	1288.012
-8.575	24.918	1598.178	1287.120
-7.560	24.880	1597.067	1285.901
-6.546	24.836	1596.048	1284.712
-5.531	24.867	1595.143	1284.156
-4.517	24.860	1594.116	1283.228
-3.502	24.780	1592.676	1281.444
-2.487	24.864	1590.984	1280.636
-1.473	24.336	1579.526	1267.606
-0.458	21.352	1559.171	1230.250
0.556	16.481	1561.549	1197.210
1.571	14.153	1584.366	1197.856
2.586	13.939	1596.894	1205.665
3.600	13.173	1543.921	1160.192
4.615	7.716	1438.124	1044.810
5.629	1.935	1379.474	965.588
6.644	0.941	1371.274	953.508
7.659	0.804	1370.637	952.116
8.673	0.788	1369.921	951.435
9.688	0.706	1367.704	949.297
10.702	0.569	1364.611	946.208
11.717	3.512	1368.061	966.981
12.731	10.426	1378.635	1017.925
13.746	15.941	1386.413	1058.323
14.761	17.322	1388.083	1068.185
15.775	16.772	1385.393	1062.573
16.790	15.697	1383.392	1054.208
17.804	15.007	1380.920	1047.910
18.819	14.605	1379.672	1044.354
19.834	14.448	1378.499	1042.395
20.848	14.190	1376.824	1039.425
21.863	13.858	1375.514	1036.268
22.877	13.759	1374.513	1034.808
23.892	13.603	1373.790	1033.199
24.907	13.658	1372.966	1032.829
25.921	13.637	1371.849	1031.765
26.936	13.716	1370.845	1031.413
27.950	13.714	1369.996	1030.673
28.965	13.867	1368.806	1030.632
29.980	13.799	1368.096	1029.588
30.994	13.838	1367.096	1028.981
32.009	13.927	1365.909	1028.553
33.023	13.951	1364.936	1027.874
34.038	13.984	1363.285	1026.744
35.053	13.900	1362.475	1025.528
36.067	13.764	1361.856	1024.130
37.082	13.880	1360.495	1023.728
38.096	13.918	1359.673	1023.255
39.111	13.918	1359.160	1022.779
40.126	13.846	1358.431	1021.699
41.140	13.755	1357.595	1020.418
42.155	13.774	1357.192	1020.140
43.169	13.702	1356.725	1019.259
44.184	13.624	1357.195	1019.039
45.199	13.633	1356.443	1018.442
46.213	13.761	1355.390	1018.347
47.228	13.714	1354.652	1017.416
48.242	13.817	1353.464	1017.060
49.257	13.735	1352.268	1015.572
50.271	13.769	1350.480	1014.348
51.286	13.812	1349.349	1013.669
52.301	13.742	1348.359	1012.412
53.315	13.700	1347.421	1011.361
54.330	13.842	1345.765	1010.891
55.344	13.770	1344.661	1009.538
56.359	13.763	1343.456	1008.501
57.374	13.739	1342.608	1007.629
58.388	13.568	1342.380	1006.329
59.403	13.755	1341.021	1006.353
60.417	13.654	1340.915	1005.574
61.432	13.514	1339.898	1003.871
62.447	13.600	1338.912	1003.566
63.461	13.580	1337.817	1002.537
64.476	13.560	1336.809	1001.568
65.490	13.619	1335.264	1000.682
66.505	13.669	1333.800	999.795
67.520	13.639	1332.910	998.860
68.534	13.605	1331.894	997.804
69.549	13.627	1330.409	996.737
70.563	13.709	1329.366	996.360
71.578	13.674	1327.718	994.830
72.593	13.646	1327.346	994.294
73.607	13.547	1326.761	993.174
74.622	13.527	1325.857	992.286
75.636	13.500	1325.220	991.561
76.651	13.568	1324.076	991.028
77.666	13.539	1323.566	990.386
78.680	13.515	1323.281	989.940
79.695	13.548	1322.097	989.165
80.709	13.631	1321.561	989.171
81.724	13.659	1320.555	988.494
82.739	13.748	1319.270	987.979
83.753	13.748	1318.797	987.537
84.768	13.769	1317.187	986.367
85.782	13.745	1316.324	985.492
86.797	13.760	1315.137	984.603
87.812	13.705	1313.581	983.026
88.826	13.733	1312.592	982.362
89.841	13.705	1311.898	981.590
90.855	13.786	1310.882	981.225
91.870	13.816	1310.078	980.713
92.884	13.805	1309.011	979.765
93.899	13.839	1308.426	979.438
94.914	13.834	1307.972	978.980
95.928	13.943	1306.672	978.568
96.943	13.887	1305.504	977.276
97.957	13.889	1304.507	976.451
98.972	13.873	1303.662	975.640
99.987	13.831	1302.655	974.553
101.001	13.877	1301.542	973.902
102.016	13.796	1300.892	972.859
103.030	13.951	1299.639	972.743
104.045	13.873	1298.952	971.688
105.060	13.801	1297.709	970.251
106.074	13.725	1296.134	968.544
107.089	13.708	1295.068	967.563
108.103	13.638	1294.384	966.557
109.118	13.685	1292.589	965.403
110.133	13.779	1290.994	964.671
111.147	13.725	1289.863	963.426
112.162	13.777	1288.922	962.940
113.176	13.787	1287.471	961.832
114.191	13.764	1286.635	960.987
115.206	13.727	1285.530	959.867
116.220	13.720	1283.927	958.541
117.235	13.741	1283.297	958.106
118.249	13.725	1282.508	957.342
119.264	13.730	1281.536	956.558
120.279	13.802	1280.349	956.003
121.293	13.717	1278.967	954.400
122.308	13.624	1278.361	953.327
123.322	13.692	1276.953	952.585
124.337	13.670	1276.146	951.774
125.352	13.699	1274.913	950.932
126.366	13.725	1273.634	950.047
127.381	13.785	1272.530	949.482
128.395	13.779	1271.271	948.424
129.410	13.667	1270.790	947.341
130.424	13.812	1269.713	947.281
131.439	13.731	1269.393	946.498
132.454	13.800	1268.113	945.852
133.468	13.851	1266.921	945.167
134.483	13.856	1266.370	944.701
135.497	13.770	1265.552	943.519
136.512	13.738	1263.951	942.059
137.527	13.789	1262.464	941.156
138.541	13.723	1261.107	939.690
139.556	13.819	1259.439	938.908
140.570	13.876	1259.051	938.856
141.585	13.866	1257.788	937.774
142.600	13.894	1256.337	936.769
143.614	13.937	1255.626	936.396
144.629	14.025	1254.120	935.690
145.643	13.921	1253.537	934.583
146.658	13.861	1252.270	933.222
147.673	13.901	1251.042	932.448
148.687	13.855	1249.895	931.250
149.702	13.764	1248.923	929.933
150.716	13.810	1247.575	929.109
151.731	13.950	1245.802	928.485
152.746	13.958	1244.679	927.612
153.760	13.919	1243.710	926.589
154.775	14.039	1242.565	926.323
155.789	13.962	1241.460	924.991
156.804	13.912	1240.564	923.964
157.819	13.950	1239.812	923.530
158.833	14.099	1238.254	923.117
159.848	14.066	1237.477	922.272
160.862	13.995	1236.674	921.200
161.877	14.057	1235.701	920.736
162.892	14.023	1234.590	919.637
163.906	14.049	1233.381	918.798
164.921	14.058	1232.593	918.182
165.935	14.094	1231.770	917.685
166.950	14.036	1231.108	916.794
167.964	14.175	1229.877	916.559
168.979	14.120	1229.646	916.003
169.994	14.165	1228.479	915.300
171.008	14.252	1227.768	915.169
172.023	14.226	1226.551	914.038
173.037	14.220	1225.955	913.480
174.052	14.215	1225.530	913.053
175.067	14.074	1224.341	911.314
176.081	14.144	1223.293	910.836
177.096	14.079	1222.674	909.942
178.110	14.099	1221.390	909.015
179.125	14.212	1220.001	908.516
180.140	14.162	1219.013	907.426
181.154	14.234	1217.555	906.656
182.169	14.308	1216.454	906.157
183.183	14.286	1215.410	905.182
184.198	14.327	1214.064	904.317
185.213	14.343	1213.445	903.867
186.227	14.376	1212.183	903.027
187.242	14.366	1211.265	902.204
188.256	14.478	1209.732	901.591
189.271	14.412	1209.161	900.731
190.286	14.306	1208.209	899.369
191.300	14.160	1207.604	898.052
192.315	14.247	1206.829	897.861
193.329	14.316	1206.190	897.680
194.344	14.253	1205.328	896.617
195.359	14.336	1204.581	896.433
196.373	14.387	1204.176	896.325
197.388	14.381	1203.783	895.921
198.402	14.457	1202.988	895.656
199.417	14.570	1202.376	895.731
200.432	14.593	1201.338	895.000
201.446	14.647	1200.406	894.515
202.461	14.593	1199.695	893.616
203.475	14.714	1198.980	893.653
204.490	14.548	1197.889	891.873
205.504	14.559	1196.436	890.775
206.519	14.690	1194.921	890.263
207.534	14.517	1194.188	888.718
208.548	14.520	1193.601	888.220
209.563	14.494	1192.847	887.440
210.577	14.674	1191.335	887.193
211.592	14.610	1190.962	886.499
212.607	14.678	1189.762	885.889
213.621	14.686	1188.888	885.198
214.636	14.731	1187.939	884.654
215.650	14.834	1187.106	884.498
216.665	14.782	1186.308	883.555
217.680	14.803	1185.233	882.783
218.694	14.861	1184.384	882.381
219.709	14.811	1183.701	881.531
220.723	14.852	1182.729	880.944
221.738	14.769	1182.580	880.319
222.753	14.808	1181.640	879.743
223.767	14.886	1180.796	879.449
224.782	14.893	1180.251	879.001
225.796	14.951	1179.798	878.890
226.811	14.879	1179.235	878.015
227.826	14.919	1178.206	877.384
228.840	15.038	1177.263	877.228
229.855	15.000	1176.342	876.264
230.869	14.955	1175.624	875.417
231.884	14.795	1175.257	874.226
232.899	14.946	1174.309	874.232
233.913	14.865	1173.746	873.314
234.928	14.954	1172.402	872.701
235.942	14.942	1171.749	872.078
236.957	14.941	1171.120	871.526
237.972	14.883	1170.491	870.676
238.986	14.901	1169.801	870.182
240.001	14.896	1169.470	869.831
241.015	15.096	1167.724	869.496
242.030	15.002	1167.317	868.625
243.045	15.111	1166.338	868.389
244.059	15.108	1165.774	867.874
245.074	15.023	1165.109	866.860
246.088	15.044	1164.014	866.079
247.103	15.166	1163.305	866.106
248.117	15.187	1162.806	865.765
249.132	15.318	1161.681	865.531
250.147	15.234	1161.079	864.573
251.161	15.202	1160.532	863.921
252.176	15.291	1159.951	863.871
253.190	15.378	1158.815	863.398
254.205	15.368	1158.485	863.024
255.220	15.324	1157.973	862.339
256.234	15.384	1157.305	862.075
257.249	15.343	1156.709	861.340
258.263	15.452	1156.060	861.340
259.278	15.496	1155.487	861.065
260.293	15.395	1155.001	860.108
261.307	15.551	1154.121	860.177
262.322	15.527	1153.698	859.660
263.336	15.476	1152.956	858.774
264.351	15.393	1152.863	858.202
265.366	15.483	1151.967	857.918
266.380	15.403	1151.223	856.881
267.395	15.629	1150.207	857.201
268.409	15.493	1149.652	856.021
269.424	15.538	1148.643	855.419
270.439	15.534	1148.180	854.981
271.453	15.621	1147.235	854.645
272.468	15.633	1146.115	853.797
273.482	15.569	1145.933	853.260
274.497	15.593	1145.573	853.037
275.512	15.705	1144.227	852.528
276.526	15.694	1143.846	852.112
277.541	15.573	1142.993	850.789
278.555	15.578	1142.381	850.282
279.570	15.669	1141.629	850.106
280.585	15.816	1140.663	850.059
281.599	15.819	1139.899	849.427
282.614	15.834	1139.029	848.778
283.628	15.758	1137.252	846.996
284.643	15.832	1136.929	847.056
285.657	15.893	1135.712	846.380
286.672	15.775	1135.260	845.373
287.687	15.882	1133.809	844.754
288.701	15.936	1133.486	844.712
289.716	15.916	1132.685	843.939
290.730	15.866	1132.108	843.183
291.745	15.938	1131.669	843.146
292.760	15.923	1130.732	842.297
293.774	15.959	1129.872	841.758
294.789	16.004	1129.658	841.753
295.803	15.966	1128.634	840.725
296.818	15.865	1128.311	839.905
297.833	16.015	1126.999	839.603
298.847	15.989	1126.358	838.919
299.862	16.039	1125.490	838.446
300.876	16.097	1125.099	838.370
301.891	16.102	1124.340	837.757
302.906	16.072	1123.768	837.109
303.920	16.123	1123.075	836.772
304.935	16.171	1122.568	836.553
305.949	16.154	1121.923	835.918
306.964	16.143	1121.276	835.307
307.979	16.150	1120.176	834.447
308.993	16.322	1119.233	834.520
310.008	16.182	1119.158	833.701
311.022	16.323	1118.153	833.574
312.037	16.363	1116.816	832.701
313.052	16.211	1116.037	831.296
314.066	16.283	1115.393	831.099
315.081	16.144	1114.662	829.798
316.095	16.226	1113.620	829.350
317.110	16.296	1112.662	828.908
318.125	16.261	1112.375	828.448
319.139	16.161	1111.632	827.332
320.154	16.177	1111.273	827.068
321.168	16.216	1110.437	826.563
322.183	16.352	1109.709	826.617
323.197	16.361	1109.309	826.290
324.212	16.411	1108.558	825.899
325.227	16.302	1107.925	824.822
326.241	16.325	1107.145	824.283
327.256	16.299	1107.124	824.065
328.270	16.439	1105.745	823.648
329.285	16.492	1104.581	822.967
330.300	16.345	1104.085	821.810
331.314	16.419	1103.139	821.394
332.329	16.418	1102.052	820.506
333.343	16.500	1101.261	820.244
334.358	16.535	1100.074	819.456
335.373	16.467	1099.527	818.648
336.387	16.435	1098.825	817.896
337.402	16.614	1098.083	818.136
338.416	16.593	1097.620	817.616
339.431	16.613	1096.626	816.901
340.446	16.602	1096.340	816.561
341.460	16.632	1095.567	816.061
342.475	16.722	1094.355	815.518
343.489	16.751	1093.492	814.942
344.504	16.651	1092.952	813.987
345.519	16.639	1092.233	813.321
346.533	16.751	1091.298	813.093
347.548	16.786	1090.627	812.687
348.562	16.796	1089.337	811.701
349.577	16.827	1088.665	811.278
350.592	16.847	1088.158	810.922
351.606	16.693	1087.507	809.632
352.621	16.799	1086.412	809.249
353.635	16.711	1085.874	808.356
354.650	16.840	1085.036	808.280
355.665	16.884	1084.478	808.000
356.679	16.767	1084.378	807.299
357.694	16.884	1083.621	807.218
358.708	16.745	1083.063	806.070
359.723	16.914	1081.915	805.948
360.738	16.942	1081.465	805.673
361.752	16.901	1080.769	804.890
362.767	16.885	1080.591	804.612
363.781	16.916	1079.863	804.145
364.796	17.031	1079.491	804.340
365.810	17.036	1078.677	803.688
366.825	17.074	1078.157	803.410
367.840	17.136	1077.400	803.065
368.854	17.015	1077.206	802.280
369.869	17.114	1076.100	801.851
370.883	17.150	1075.473	801.485
371.898	17.135	1074.490	800.610
372.913	17.053	1074.011	799.793
373.927	17.158	1073.526	799.857
374.942	17.218	1073.233	799.851
375.956	17.227	1072.744	799.456
376.971	17.136	1072.414	798.713
377.986	17.293	1071.465	798.673
379.000	17.268	1071.045	798.173
380.015	17.270	1070.422	797.647
381.029	17.354	1069.375	797.188
382.044	17.330	1068.734	796.529
383.059	17.307	1068.047	795.837
384.073	17.380	1067.458	795.671
385.088	17.351	1066.576	794.808
386.102	17.386	1065.302	793.951
387.117	17.385	1064.215	793.066
388.132	17.500	1063.378	792.908
389.146	17.235	1062.967	791.298
390.161	17.324	1062.748	791.477
391.175	17.475	1061.375	791.090
392.190	17.462	1060.719	790.469
393.205	17.482	1060.298	790.179
394.219	17.457	1059.458	789.366
395.234	17.511	1058.126	788.553
396.248	17.423	1057.612	787.694
397.263	17.409	1056.653	786.844
398.278	17.410	1056.334	786.543
399.292	17.336	1055.479	785.493
400.307	17.390	1054.969	785.296
401.321	17.406	1054.069	784.628
402.336	17.366	1053.220	783.745
403.350	17.508	1052.536	783.822
404.365	17.477	1051.834	783.084
405.380	17.626	1051.086	783.143
406.394	17.576	1050.022	782.050
407.409	17.584	1049.633	781.731
408.423	17.696	1049.070	781.754
409.438	17.645	1048.218	780.816
410.453	17.687	1047.712	780.563
411.467	17.732	1046.943	780.124
412.482	17.783	1045.982	779.577
413.496	17.871	1045.439	779.503
414.511	17.834	1045.200	779.087
415.526	17.971	1044.364	779.018
416.540	17.916	1044.047	778.463
417.555	17.926	1043.437	777.987
418.569	17.949	1042.656	777.439
419.584	17.948	1042.492	777.243
420.599	17.925	1042.253	776.889
421.613	109.206	1328.596	1487.631
422.628	100.358	1370.266	1487.703
