DTS Sentinel unit serial number:	SN413079Multiplexer serial number:	ORYXHardware model number:	OX4-SRSoftware version number:	ORYX F/W v4.00 Oryx Data Collector v3.7.2.0data status	okinstallation	princeton_trtdifferential loss correction	single-endedforward channel	channel 2reverse channel	N/Adate	2019/09/15time	17:43:35forward acquisition time	60.00reverse acquisition time	0.00gamma	496.2192k internal	0.2283k external	0.2283temperature offset calibration	0.9927default loss term (dB/km)	0.3790temperature slope calibration	1.0000multiplexer offset coefficient	1.0000multiplexer slope coefficient	1.0000fibre end	0.00T internal ref (°C)	44.87T ext. ref 1 (°C)	6.28T ext. ref 2 (°C)	39.59length (m)	temperature (°C)	Stokes	anti-Stokes-747.200	800.000	0.070	0.307
-746.185	157.147	-0.107	-0.152
-745.171	482.909	0.015	0.035
-744.156	-157.276	0.217	0.014
-743.142	186.634	-0.228	-0.349
-742.127	329.464	-0.178	0.352
-741.112	-81.674	0.299	0.101
-740.098	-96.495	-0.143	0.039
-739.083	163.643	-0.098	0.141
-738.069	800.000	0.087	0.288
-737.054	168.376	-0.112	0.164
-736.039	185.069	-0.124	-0.189
-735.025	530.414	-0.126	-0.306
-734.010	-90.128	-0.070	0.021
-732.996	1.829	-0.357	-0.264
-731.981	-200.000	-0.018	-0.192
-730.966	102.889	-0.117	0.141
-729.952	-53.389	0.285	-0.134
-728.937	-124.187	0.034	-0.005
-727.923	-68.636	-0.185	-0.074
-726.908	154.187	0.079	-0.112
-725.894	28.714	0.417	-0.362
-724.879	747.694	0.109	-0.302
-723.864	-79.530	-0.099	0.034
-722.850	298.797	0.133	0.252
-721.835	-200.000	0.004	-0.138
-720.821	-200.000	-0.254	-0.001
-719.806	-10.193	-0.196	-0.134
-718.791	12.329	-0.083	-0.066
-717.777	-106.759	-0.236	-0.054
-716.762	23.331	0.151	-0.127
-715.748	96.542	-0.128	-0.151
-714.733	-101.208	0.245	-0.061
-713.718	92.811	-0.088	0.102
-712.704	118.349	-0.034	-0.043
-711.689	-117.841	-0.191	0.035
-710.675	-198.313	-0.175	-0.001
-709.660	32.883	-0.110	-0.097
-708.645	241.612	-0.122	-0.209
-707.631	-200.000	-0.007	-0.227
-706.616	-195.605	-0.377	0.003
-705.602	-200.000	-0.087	-0.407
-704.587	800.000	0.037	-0.135
-703.572	571.030	-0.137	0.342
-702.558	-66.776	0.194	-0.079
-701.543	-200.000	0.047	0.246
-700.529	800.000	0.076	-0.257
-699.514	-75.243	0.331	-0.121
-698.499	-200.000	-0.008	-0.129
-697.485	69.560	-0.273	-0.289
-696.470	82.844	0.102	0.114
-695.456	-101.051	-0.130	0.033
-694.441	295.477	0.032	-0.061
-693.426	212.252	-0.110	0.178
-692.412	243.141	0.065	0.111
-691.397	757.342	-0.098	0.271
-690.383	-191.072	0.342	0.004
-689.368	-200.000	0.022	-0.276
-688.354	460.178	-0.107	-0.245
-687.339	-80.260	-0.394	0.135
-686.324	-200.000	0.064	0.363
-685.310	28.104	-0.115	0.100
-684.295	304.903	-0.092	0.176
-683.281	-38.922	-0.170	-0.092
-682.266	-86.908	0.209	0.065
-681.251	800.000	-0.136	0.445
-680.237	-6.958	0.286	0.199
-679.222	312.465	0.044	0.084
-678.208	-200.000	0.050	-0.424
-677.193	800.000	0.041	0.150
-676.178	319.464	-0.126	0.245
-675.164	175.369	-0.198	0.293
-674.149	-200.000	0.032	-0.226
-673.135	-200.000	0.024	0.153
-672.120	-200.000	-0.013	0.141
-671.105	-63.842	0.152	0.064
-670.091	21.034	0.306	-0.254
-669.076	800.000	-0.065	-0.267
-668.062	178.674	0.016	0.024
-667.047	219.518	0.162	-0.265
-666.032	-103.877	-0.080	0.019
-665.018	-48.399	0.218	0.108
-664.003	27.272	-0.312	0.268
-662.989	-39.309	-0.134	0.072
-661.974	-14.704	-0.172	-0.113
-660.959	-93.282	0.106	0.030
-659.945	517.415	-0.096	0.230
-658.930	-25.181	0.395	-0.240
-657.916	800.000	-0.093	-0.316
-656.901	-155.850	0.165	0.011
-655.886	180.217	0.156	-0.235
-654.872	-107.942	-0.193	0.043
-653.857	172.950	-0.060	0.088
-652.843	-139.721	-0.185	-0.020
-651.828	800.000	0.082	-0.346
-650.814	-138.880	0.340	-0.038
-649.799	-200.000	0.036	0.273
-648.784	800.000	0.040	0.176
-647.770	-40.109	0.051	0.027
-646.755	446.250	-0.136	-0.307
-645.741	-139.519	0.506	-0.055
-644.726	300.745	0.159	0.300
-643.711	-23.623	-0.206	-0.126
-642.697	217.833	-0.084	0.137
-641.682	422.521	0.103	0.227
-640.668	-200.000	-0.014	0.067
-639.653	-110.050	-0.153	0.033
-638.638	-94.945	0.157	0.043
-637.624	-200.000	-0.045	-0.336
-636.609	-43.758	-0.352	0.181
-635.595	-78.418	-0.347	0.122
-634.580	-200.000	0.025	0.157
-633.565	800.000	-0.118	-0.340
-632.551	-41.590	0.162	0.085
-631.536	-193.516	0.176	-0.002
-630.522	312.980	0.166	-0.320
-629.507	-200.000	0.017	0.129
-628.492	121.578	0.033	0.042
-627.478	247.232	-0.012	0.021
-626.463	-200.000	-0.012	-0.079
-625.449	-12.061	0.303	0.203
-624.434	800.000	-0.036	0.152
-623.419	-178.352	0.295	0.007
-622.405	299.112	-0.100	-0.188
-621.390	98.724	-0.147	0.173
-620.376	122.823	-0.116	-0.148
-619.361	67.304	-0.055	0.057
-618.346	-77.327	0.089	0.031
-617.332	-72.183	0.209	0.079
-616.317	-63.095	0.287	0.121
-615.303	800.000	0.018	-0.080
-614.288	236.454	0.092	-0.155
-613.273	87.228	-0.087	0.098
-612.259	-110.219	-0.347	-0.074
-611.244	543.619	-0.059	-0.144
-610.230	-113.744	-0.212	0.042
-609.215	44.863	-0.193	0.181
-608.201	800.000	-0.084	-0.269
-607.186	-122.338	0.270	-0.045
-606.171	-71.918	-0.146	-0.055
-605.157	-74.524	-0.264	-0.097
-604.142	20.356	0.078	-0.064
-603.128	-61.863	-0.396	0.170
-602.113	69.227	0.171	0.179
-601.098	9.592	0.172	0.133
-600.084	-200.000	-0.013	0.189
-599.069	-150.878	0.132	-0.010
-598.055	-121.209	-0.244	0.042
-597.040	75.006	-0.098	0.106
-596.025	-34.336	0.326	-0.183
-595.011	-49.261	0.140	0.068
-593.996	53.595	0.061	-0.060
-592.982	-115.805	0.193	-0.037
-591.967	-200.000	0.040	-0.297
-590.952	154.362	0.094	0.132
-589.938	-113.555	0.415	-0.083
-588.923	187.848	-0.166	0.253
-587.909	-35.562	-0.205	0.114
-586.894	-36.908	0.198	-0.108
-585.879	-92.287	-0.131	0.038
-584.865	-200.000	-0.006	-0.330
-583.850	-200.000	0.023	-0.159
-582.836	21.923	-0.177	0.148
-581.821	179.601	0.088	-0.132
-580.806	-13.287	-0.114	-0.076
-579.792	127.937	0.103	-0.134
-578.777	-200.000	0.006	-0.153
-577.763	55.670	0.175	0.173
-576.748	-14.518	0.151	0.099
-575.733	73.860	-0.046	-0.049
-574.719	47.441	-0.055	-0.052
-573.704	800.000	-0.090	-0.263
-572.690	-145.411	0.360	-0.033
-571.675	656.289	0.055	-0.143
-570.661	-115.605	-0.141	0.027
-569.646	-200.000	0.021	0.177
-568.631	-200.000	0.001	0.213
-567.617	-200.000	-0.055	0.286
-566.602	114.999	-0.143	-0.178
-565.588	-200.000	-0.012	-0.266
-564.573	-200.000	-0.001	-0.171
-563.558	-200.000	0.048	0.238
-562.544	-141.860	0.093	-0.009
-561.529	-200.000	-0.035	0.278
-560.515	-163.713	-0.223	0.011
-559.500	32.457	-0.129	-0.114
-558.485	-143.123	0.079	0.008
-557.471	-200.000	-0.046	0.501
-556.456	528.078	-0.086	0.207
-555.442	800.000	-0.070	-0.279
-554.427	19.139	-0.169	0.138
-553.412	20.963	-0.267	0.221
-552.398	5.058	-0.181	-0.136
-551.383	59.939	-0.074	-0.075
-550.369	57.192	0.097	-0.097
-549.354	-27.185	-0.210	-0.125
-548.339	800.000	-0.023	0.103
-547.325	-69.390	0.120	0.047
-546.310	217.133	0.153	-0.248
-545.296	800.000	-0.023	0.073
-544.281	800.000	-0.051	-0.166
-543.266	56.593	-0.177	0.175
-542.252	-3.328	-0.213	0.151
-541.237	25.767	-0.078	-0.066
-540.223	-27.082	0.140	0.083
-539.208	-5.744	-0.025	0.017
-538.193	245.348	0.147	-0.253
-537.179	304.485	-0.092	0.174
-536.164	-200.000	0.026	0.153
-535.150	-152.061	-0.048	0.004
-534.135	503.284	0.129	0.304
-533.121	-200.000	-0.032	-0.374
-532.106	117.198	0.304	-0.380
-531.091	-120.596	-0.354	-0.061
-530.077	-200.000	0.035	0.248
-529.062	800.000	-0.006	-0.028
-528.048	-77.653	0.332	0.117
-527.033	-200.000	-0.012	-0.088
-526.018	-62.674	0.304	-0.128
-525.004	100.256	0.111	0.132
-523.989	136.932	0.210	-0.280
-522.975	54.033	-0.142	0.140
-521.960	-177.944	-0.348	0.008
-520.945	-120.533	-0.118	-0.020
-519.931	459.981	-0.067	-0.152
-518.916	-102.079	0.259	0.064
-517.902	515.154	0.046	0.110
-516.887	-158.443	0.171	0.010
-515.872	128.368	-0.060	-0.078
-514.858	150.870	-0.033	0.045
-513.843	82.417	-0.118	-0.130
-512.829	292.990	0.055	-0.103
-511.814	419.219	-0.176	-0.384
-510.799	390.382	-0.062	0.131
-509.785	483.814	0.115	-0.267
-508.770	329.801	-0.073	-0.142
-507.756	800.000	0.035	-0.137
-506.741	130.017	-0.165	0.214
-505.726	19.555	-0.130	0.106
-504.712	-194.036	0.061	-0.001
-503.697	-200.000	-0.016	-0.253
-502.683	-13.850	-0.201	0.132
-501.668	150.024	-0.139	0.192
-500.653	542.697	0.180	0.437
-499.639	-200.000	-0.046	-0.438
-498.624	-64.330	-0.180	0.075
-497.610	375.975	0.089	-0.185
-496.595	-7.266	-0.068	0.047
-495.581	37.822	-0.087	-0.078
-494.566	314.263	-0.098	-0.187
-493.551	-200.000	-0.034	0.326
-492.537	-73.501	0.102	0.038
-491.522	-98.737	-0.395	0.102
-490.508	-158.710	0.366	-0.021
-489.493	-200.000	0.038	0.349
-488.478	18.266	-0.177	0.144
-487.464	-195.543	-0.219	-0.002
-486.449	776.733	0.040	0.111
-485.435	-4.200	-0.172	0.121
-484.420	-200.000	-0.000	-0.006
-483.405	48.581	0.085	0.081
-482.391	-108.149	0.285	-0.063
-481.376	800.000	-0.090	0.298
-480.362	156.864	0.213	0.300
-479.347	631.852	-0.079	0.203
-478.332	800.000	0.085	0.303
-477.318	36.379	-0.201	-0.180
-476.303	-29.718	-0.320	-0.186
-475.289	-140.422	-0.097	0.010
-474.274	-45.103	-0.050	0.025
-473.259	-103.920	0.201	0.048
-472.245	157.798	-0.033	0.047
-471.230	212.555	-0.081	-0.130
-470.216	-94.133	0.225	-0.063
-469.201	-97.145	0.142	-0.038
-468.186	-95.833	-0.335	0.091
-467.172	243.702	0.154	-0.262
-466.157	3.683	-0.298	-0.221
-465.143	-88.782	0.188	-0.057
-464.128	-200.000	-0.006	-0.223
-463.113	156.200	-0.043	0.061
-462.099	194.575	0.085	-0.131
-461.084	42.268	-0.196	-0.181
-460.070	105.544	-0.132	-0.158
-459.055	141.426	0.027	0.036
-458.040	392.599	0.066	0.140
-457.026	-112.837	-0.091	0.018
-456.011	-200.000	-0.022	0.333
-454.997	90.330	-0.189	-0.215
-453.982	-45.857	0.167	0.084
-452.968	-150.091	0.156	0.012
-451.953	-200.000	0.012	-0.055
-450.938	300.990	0.238	-0.445
-449.924	-200.000	-0.022	0.158
-448.909	-32.308	0.081	0.046
-447.895	-42.985	0.385	-0.198
-446.880	-90.122	0.293	0.087
-445.865	-11.876	0.161	0.107
-444.851	383.011	-0.094	0.197
-443.836	227.619	-0.107	-0.177
-442.822	-150.343	-0.149	-0.012
-441.807	38.798	0.133	0.120
-440.792	-168.010	-0.387	0.015
-439.778	-92.760	-0.048	-0.014
-438.763	-102.657	0.271	-0.066
-437.749	-106.075	-0.325	0.074
-436.734	800.000	-0.047	-0.139
-435.719	800.000	0.026	-0.080
-434.705	-86.719	-0.408	-0.127
-433.690	-200.000	0.026	0.120
-432.676	800.000	0.049	0.185
-431.661	144.496	0.202	0.274
-430.646	87.452	0.275	0.309
-429.632	272.354	-0.028	0.050
-428.617	-53.141	-0.103	-0.048
-427.603	-200.000	-0.005	0.233
-426.588	-200.000	-0.014	-0.082
-425.573	-139.094	0.231	0.025
-424.559	-200.000	0.008	0.198
-423.544	-75.253	-0.315	-0.114
-422.530	251.028	-0.034	-0.058
-421.515	68.254	0.128	-0.133
-420.500	54.823	-0.312	-0.305
-419.486	284.873	0.087	-0.158
-418.471	124.401	-0.018	0.023
-417.457	-200.000	0.001	-0.307
-416.442	-200.000	-0.021	0.191
-415.428	-162.483	0.231	-0.012
-414.413	269.345	0.100	0.177
-413.398	-200.000	-0.083	0.438
-412.384	-100.440	0.325	0.082
-411.369	44.501	-0.266	0.248
-410.355	-200.000	-0.015	-0.159
-409.340	-104.124	-0.201	-0.047
-408.325	-138.626	-0.223	-0.025
-407.311	-58.169	0.115	0.051
-406.296	-175.738	-0.174	0.005
-405.282	255.845	0.155	0.270
-404.267	-120.183	-0.138	0.024
-403.252	-200.000	-0.045	-0.235
-402.238	-22.994	-0.034	-0.021
-401.223	-76.548	-0.153	0.054
-400.209	-107.004	-0.285	0.064
-399.194	176.145	-0.140	-0.206
-398.179	-200.000	0.085	-0.475
-397.165	203.782	-0.097	0.152
-396.150	-45.057	-0.208	0.105
-395.136	230.538	0.120	0.199
-394.121	800.000	-0.006	0.023
-393.106	589.820	-0.096	-0.240
-392.092	284.111	-0.110	-0.200
-391.077	-173.649	0.069	0.002
-390.063	-40.734	0.330	0.173
-389.048	74.298	-0.163	0.173
-388.033	-200.000	-0.002	-0.106
-387.019	-150.199	-0.217	0.017
-386.004	-169.168	-0.156	-0.006
-384.990	27.925	0.158	0.135
-383.975	-11.838	0.351	0.233
-382.960	128.714	0.058	-0.075
-381.946	-96.214	-0.167	0.045
-380.931	114.134	-0.173	-0.213
-379.917	-113.517	0.350	0.069
-378.902	-98.604	0.179	-0.046
-377.888	-200.000	-0.021	-0.278
-376.873	-200.000	0.021	0.157
-375.858	387.850	-0.102	0.213
-374.844	529.546	0.083	0.197
-373.829	-200.000	-0.039	0.285
-372.815	117.320	0.125	0.155
-371.800	800.000	-0.078	-0.222
-370.785	-200.000	0.011	0.079
-369.771	44.386	0.223	0.208
-368.756	800.000	-0.055	0.169
-367.742	-48.709	-0.311	0.151
-366.727	692.347	-0.071	-0.189
-365.712	759.808	-0.057	0.155
-364.698	-25.595	0.155	0.092
-363.683	-95.617	0.469	-0.127
-362.669	190.335	0.158	0.240
-361.654	-75.857	-0.096	0.034
-360.639	-6.036	-0.292	0.202
-359.625	21.357	-0.089	-0.074
-358.610	-9.626	-0.126	-0.085
-357.596	-99.920	-0.051	-0.013
-356.581	92.036	-0.263	-0.299
-355.566	39.092	0.288	-0.261
-354.552	224.147	-0.153	0.250
-353.537	381.874	0.068	-0.142
-352.523	-121.445	0.233	0.039
-351.508	26.128	0.263	-0.222
-350.493	326.652	-0.167	-0.324
-349.479	26.798	0.325	-0.275
-348.464	-3.580	-0.052	-0.037
-347.450	-200.000	0.030	0.297
-346.435	61.686	-0.162	-0.163
-345.420	750.599	0.154	0.421
-344.406	-200.000	-0.025	-0.178
-343.391	-103.632	0.096	-0.023
-342.377	-200.000	0.027	-0.206
-341.362	800.000	-0.094	0.396
-340.348	-200.000	-0.002	-0.078
-339.333	-92.735	0.263	-0.074
-338.318	13.373	0.154	0.121
-337.304	-173.829	0.045	0.001
-336.289	-144.118	0.232	0.022
-335.275	-82.462	-0.300	0.099
-334.260	-200.000	0.055	0.429
-333.245	-93.678	0.134	-0.037
-332.231	-121.849	0.248	0.041
-331.216	-200.000	-0.003	-0.315
-330.202	42.585	0.098	-0.090
-329.187	-23.333	-0.111	-0.067
-328.172	23.124	0.099	-0.082
-327.158	18.019	-0.174	0.141
-326.143	-112.867	0.056	0.011
-325.129	-69.795	0.189	-0.073
-324.114	-84.161	-0.184	-0.059
-323.099	-90.679	0.439	0.128
-322.085	764.236	0.154	0.422
-321.070	291.129	-0.085	-0.157
-320.056	215.945	0.074	0.119
-319.041	-200.000	0.002	-0.413
-318.026	800.000	0.052	-0.148
-317.012	-34.463	0.176	-0.097
-315.997	-152.961	-0.241	-0.017
-314.983	111.173	-0.161	-0.196
-313.968	32.243	0.138	0.120
-312.953	-77.958	-0.110	-0.038
-311.939	10.534	0.175	0.135
-310.924	800.000	0.019	0.078
-309.910	-200.000	-0.077	0.456
-308.895	-134.390	0.255	0.032
-307.880	800.000	0.074	-0.308
-306.866	-97.831	-0.406	0.106
-305.851	308.767	-0.133	-0.250
-304.837	164.617	-0.068	-0.097
-303.822	-144.566	0.045	0.004
-302.807	-22.999	0.206	-0.126
-301.793	-84.598	0.531	-0.169
-300.778	-200.000	0.062	-0.365
-299.764	800.000	0.063	-0.221
-298.749	386.926	0.031	-0.065
-297.735	-129.447	0.225	0.031
-296.720	-77.703	-0.189	-0.066
-295.705	-91.081	0.165	-0.048
-294.691	-200.000	-0.011	0.217
-293.676	-124.917	-0.356	0.055
-292.662	156.102	-0.148	-0.206
-291.647	800.000	0.106	-0.354
-290.632	689.314	-0.087	0.229
-289.618	-161.472	0.295	-0.015
-288.603	-2.967	0.102	-0.072
-287.589	-200.000	-0.019	-0.121
-286.574	30.698	-0.236	0.204
-285.559	-182.612	0.278	0.005
-284.545	-200.000	-0.039	0.348
-283.530	-6.156	0.271	0.187
-282.516	-84.643	-0.229	0.073
-281.501	-174.436	-0.128	-0.004
-280.486	-200.000	-0.005	0.046
-279.472	-143.634	0.154	-0.015
-278.457	-200.000	-0.038	0.219
-277.443	800.000	-0.042	-0.183
-276.428	167.838	0.157	0.226
-275.413	606.700	0.075	-0.188
-274.399	-154.049	0.197	0.014
-273.384	-120.259	0.100	-0.017
-272.370	9.031	0.192	0.146
-271.355	84.947	0.307	-0.340
-270.340	-200.000	-0.034	-0.169
-269.326	413.030	0.132	-0.283
-268.311	-200.000	0.007	-0.124
-267.297	121.493	-0.205	0.257
-266.282	-80.544	-0.230	0.077
-265.267	52.819	-0.057	-0.055
-264.253	223.377	0.076	0.124
-263.238	195.661	-0.072	-0.110
-262.224	-57.697	0.286	0.126
-261.209	173.295	-0.130	-0.189
-260.195	-200.000	-0.025	-0.216
-259.180	85.773	0.015	0.017
-258.165	-92.758	0.132	0.037
-257.151	-200.000	0.070	-0.479
-256.136	269.006	-0.071	-0.126
-255.122	-200.000	0.057	-0.265
-254.107	-122.892	-0.326	-0.053
-253.092	220.118	0.060	0.097
-252.078	-200.000	-0.034	0.251
-251.063	-99.290	0.175	0.044
-250.049	-200.000	-0.029	-0.277
-249.034	-134.606	-0.181	-0.022
-248.019	380.828	-0.099	0.204
-247.005	-98.654	-0.135	-0.035
-245.990	-119.057	-0.247	-0.044
-244.976	800.000	-0.079	-0.246
-243.961	112.617	0.133	-0.162
-242.946	-200.000	-0.016	-0.085
-241.932	540.653	-0.069	0.166
-240.917	800.000	-0.013	-0.058
-239.903	-92.569	0.066	0.019
-238.888	-44.829	-0.084	-0.042
-237.873	20.713	-0.055	-0.045
-236.859	12.953	-0.083	0.065
-235.844	44.546	0.107	0.099
-234.830	-10.494	0.056	-0.038
-233.815	-35.083	-0.234	0.128
-232.800	-107.128	-0.240	-0.053
-231.786	-200.000	-0.003	0.076
-230.771	-86.494	0.322	0.100
-229.757	-70.789	0.206	0.078
-228.742	63.435	-0.171	-0.173
-227.727	-134.040	-0.128	0.016
-226.713	-181.477	-0.204	0.004
-225.698	163.576	0.127	0.180
-224.684	-200.000	-0.031	0.145
-223.669	-200.000	-0.018	-0.101
-222.655	562.121	-0.105	-0.256
-221.640	-67.484	0.061	0.024
-220.625	109.485	-0.042	0.050
-219.611	-200.000	-0.021	0.160
-218.596	605.874	0.122	-0.306
-217.582	800.000	-0.027	-0.116
-216.567	-84.267	0.040	-0.013
-215.552	-158.414	-0.071	0.004
-214.538	800.000	-0.062	-0.199
-213.523	-35.520	0.117	0.064
-212.509	-89.497	-0.228	-0.067
-211.494	-43.722	-0.053	0.027
-210.479	-19.014	-0.137	0.086
-209.465	-119.247	0.045	-0.008
-208.450	-149.969	0.166	-0.013
-207.436	-163.871	-0.118	0.006
-206.421	800.000	0.009	0.030
-205.406	-200.000	0.024	-0.291
-204.392	-77.390	0.245	-0.086
-203.377	-181.057	0.401	-0.008
-202.363	-26.073	-0.214	0.126
-201.348	61.597	-0.255	0.255
-200.333	89.898	0.142	0.160
-199.319	800.000	-0.028	-0.090
-198.304	32.559	0.244	0.212
-197.290	396.240	0.055	-0.116
-196.275	-39.235	-0.455	0.240
-195.260	800.000	0.046	-0.151
-194.246	116.493	0.181	0.223
-193.231	207.020	0.155	0.243
-192.217	33.654	-0.231	-0.202
-191.202	137.908	-0.122	-0.161
-190.187	665.746	0.046	0.119
-189.173	215.032	-0.250	-0.398
-188.158	148.484	-0.177	-0.241
-187.144	-200.000	0.037	0.174
-186.129	195.647	-0.123	0.189
-185.114	21.558	-0.285	0.233
-184.100	460.284	-0.135	-0.301
-183.085	230.019	0.140	0.230
-182.071	-200.000	0.034	0.299
-181.056	-57.060	-0.107	0.047
-180.042	-117.507	0.127	-0.023
-179.027	23.099	-0.119	0.098
-178.012	226.703	-0.072	0.118
-176.998	-141.135	0.080	0.008
-175.983	-87.248	-0.430	-0.131
-174.969	-73.681	-0.166	0.061
-173.954	800.000	0.078	-0.327
-172.939	449.921	-0.166	-0.368
-171.925	-92.327	0.300	0.085
-170.910	-138.327	0.321	0.036
-169.896	178.450	0.139	0.203
-168.881	-130.469	0.206	0.028
-167.866	59.391	-0.216	-0.214
-166.852	8.477	0.092	-0.070
-165.837	-200.000	-0.028	0.256
-164.823	-5.202	-0.354	-0.245
-163.808	-42.897	-0.063	-0.032
-162.793	107.274	-0.020	-0.024
-161.779	800.000	0.025	-0.104
-160.764	296.857	-0.087	-0.161
-159.750	-119.971	0.185	-0.032
-158.735	-200.000	0.011	-0.175
-157.720	278.622	0.081	-0.145
-156.706	-200.000	0.131	0.601
-155.691	-34.672	0.213	0.117
-154.677	-100.239	0.139	-0.035
-153.662	640.622	0.067	0.170
-152.647	24.459	0.195	0.162
-151.633	-68.372	-0.173	-0.067
-150.618	190.636	0.197	0.297
-149.604	800.000	0.008	-0.030
-148.589	-200.000	-0.093	0.586
-147.574	313.088	0.081	0.153
-146.560	1.665	0.132	-0.096
-145.545	178.131	-0.171	0.250
-144.531	241.017	-0.124	0.207
-143.516	127.496	0.099	-0.126
-142.502	-143.567	0.348	-0.033
-141.487	607.718	0.117	0.293
-140.472	-20.564	0.129	0.080
-139.458	96.389	0.060	-0.069
-138.443	5.136	0.047	-0.035
-137.429	-10.350	0.290	-0.193
-136.414	-75.660	-0.294	0.105
-135.399	202.346	0.228	0.354
-134.385	-84.248	-0.074	-0.023
-133.370	-200.000	0.018	0.083
-132.356	-33.104	0.153	-0.085
-131.341	-56.366	0.199	0.089
-130.326	127.838	0.044	0.056
-129.312	-50.806	-0.106	-0.050
-128.297	-200.000	-0.007	0.379
-127.283	-116.375	-0.605	0.112
-126.268	-200.000	0.013	-0.166
-125.253	668.837	0.009	0.022
-124.239	197.659	-0.190	-0.292
-123.224	-32.213	0.094	0.053
-122.210	68.661	0.116	-0.120
-121.195	-200.000	0.071	0.348
-120.180	296.232	-0.046	0.085
-119.166	-200.000	-0.028	-0.343
-118.151	19.173	-0.143	-0.115
-117.137	-200.000	-0.007	0.413
-116.122	116.620	0.116	0.143
-115.107	-113.957	-0.079	0.015
-114.093	-20.558	0.103	-0.063
-113.078	20.138	-0.371	-0.300
-112.064	-198.616	-0.158	0.001
-111.049	-114.497	0.256	-0.049
-110.034	-111.734	0.346	-0.070
-109.020	-93.333	-0.192	0.053
-108.005	-124.605	-0.420	-0.065
-106.991	394.707	0.102	0.212
-105.976	24.119	0.154	0.127
-104.962	10.936	0.197	-0.150
-103.947	-53.261	0.053	0.024
-102.932	-200.000	-0.028	-0.539
-101.918	-71.052	0.278	-0.105
-100.903	-40.375	-0.063	0.033
-99.889	-41.949	-0.258	0.132
-98.874	104.684	0.084	0.099
-97.859	-119.544	0.144	0.025
-96.845	20.104	-0.070	0.057
-95.830	-200.000	0.030	-0.214
-94.816	-200.000	0.080	0.364
-93.801	10.045	-0.131	-0.100
-92.786	800.000	0.021	0.088
-91.772	800.000	-0.026	0.083
-90.757	716.896	0.190	-0.504
-89.743	-4.109	0.049	-0.034
-88.728	76.002	-0.151	0.160
-87.713	-200.000	-0.011	0.093
-86.699	203.894	0.146	-0.226
-85.684	-50.707	-0.150	0.071
-84.670	4.963	0.244	0.180
-83.655	-200.000	-0.069	0.388
-82.640	-1.358	-0.304	0.215
-81.626	278.100	-0.123	-0.219
-80.611	-200.000	0.021	-0.355
-79.597	-111.566	0.339	-0.069
-78.582	783.932	-0.107	0.294
-77.567	189.064	-0.089	0.133
-76.553	-8.325	-0.259	-0.174
-75.538	-156.049	0.479	0.030
-74.524	800.000	0.124	-0.384
-73.509	-53.087	-0.317	-0.146
-72.494	137.298	0.197	-0.258
-71.480	139.411	-0.220	0.290
-70.465	162.662	-0.111	0.155
-69.451	492.644	0.027	0.062
-68.436	287.332	-0.076	-0.137
-67.422	71.741	0.191	-0.199
-66.407	666.278	0.059	0.153
-65.392	101.893	0.082	-0.096
-64.378	172.845	-0.068	0.098
-63.363	344.606	0.009	0.018
-62.349	56.153	0.213	-0.207
-61.334	7.889	-0.460	-0.345
-60.319	-200.000	-0.065	0.399
-59.305	-200.000	0.027	-0.798
-58.290	410.335	0.499	1.059
-57.276	613.951	0.629	1.576
-56.261	-200.000	69.622	523.787
-55.246	580.364	1252.070	3067.624
-54.232	134.490	2512.140	3258.567
-53.217	111.437	2363.181	2849.531
-52.203	54.887	1984.631	1915.753
-51.188	48.380	1771.217	1658.127
-50.173	45.457	1723.005	1590.257
-49.159	58.655	1752.432	1720.717
-48.144	65.806	1771.717	1795.343
-47.130	48.267	1736.439	1624.431
-46.115	45.068	1722.498	1586.514
-45.100	44.817	1717.905	1580.271
-44.086	44.723	1715.794	1577.541
-43.071	44.679	1713.329	1574.867
-42.057	44.688	1710.392	1572.177
-41.042	44.696	1708.129	1570.099
-40.027	44.769	1706.293	1568.908
-39.013	44.756	1703.956	1566.603
-37.998	44.758	1702.292	1565.022
-36.984	44.783	1701.071	1564.031
-35.969	44.870	1699.925	1563.584
-34.954	45.027	1697.387	1562.385
-33.940	44.934	1695.547	1559.921
-32.925	44.903	1694.072	1558.268
-31.911	44.895	1692.827	1556.994
-30.896	44.904	1690.616	1554.967
-29.881	44.941	1688.743	1553.469
-28.867	44.845	1687.162	1551.218
-27.852	44.866	1686.425	1550.642
-26.838	44.889	1684.313	1548.814
-25.823	44.923	1682.471	1547.318
-24.809	44.953	1680.804	1545.948
-23.794	44.919	1679.564	1544.490
-22.779	44.858	1678.229	1542.736
-21.765	44.840	1676.294	1540.765
-20.750	44.899	1674.844	1539.811
-19.736	44.921	1673.238	1538.445
-18.721	44.891	1671.469	1536.532
-17.706	44.854	1670.318	1535.131
-16.692	44.879	1668.177	1533.290
-15.677	44.889	1666.637	1531.886
-14.663	44.866	1665.612	1530.711
-13.648	44.932	1664.159	1529.814
-12.633	44.880	1662.359	1527.709
-11.619	44.858	1661.061	1526.292
-10.604	44.851	1659.384	1524.637
-9.590	44.894	1657.783	1523.422
-8.575	44.818	1656.829	1521.922
-7.560	44.956	1655.139	1521.336
-6.546	44.929	1654.009	1520.037
-5.531	44.836	1653.033	1518.390
-4.517	44.853	1651.762	1517.283
-3.502	44.884	1650.957	1516.714
-2.487	44.864	1649.628	1515.290
-1.473	44.931	1638.506	1505.502
-0.458	42.180	1617.066	1465.663
0.556	34.370	1611.185	1415.557
1.571	30.086	1631.240	1400.751
2.586	28.395	1643.970	1398.664
3.600	25.078	1591.475	1329.328
4.615	16.246	1478.109	1173.397
5.629	8.235	1405.906	1062.815
6.644	6.458	1396.593	1043.912
7.659	6.360	1394.268	1041.431
8.673	6.223	1393.142	1039.593
9.688	6.070	1391.614	1037.357
10.702	5.967	1388.754	1034.451
11.717	9.382	1395.392	1061.881
12.731	16.615	1408.860	1120.080
13.746	19.257	1412.154	1140.098
14.761	17.398	1407.602	1124.052
15.775	16.093	1403.780	1112.302
16.790	14.947	1401.862	1103.126
17.804	14.079	1398.976	1095.044
18.819	13.697	1397.519	1091.296
19.834	13.382	1395.748	1087.742
20.848	13.052	1395.021	1084.910
21.863	12.924	1393.412	1082.723
22.877	12.745	1392.455	1080.713
23.892	12.711	1391.432	1079.595
24.907	12.687	1390.545	1078.657
25.921	12.577	1389.968	1077.393
26.936	12.710	1388.740	1077.215
27.950	12.727	1387.797	1076.500
28.965	12.808	1386.425	1075.869
29.980	12.890	1385.198	1075.357
30.994	12.874	1384.309	1074.469
32.009	12.961	1383.057	1073.967
33.023	12.946	1381.597	1072.644
34.038	12.895	1380.274	1071.188
35.053	12.852	1378.955	1069.792
36.067	12.825	1377.987	1068.772
37.082	12.834	1376.858	1067.857
38.096	12.766	1376.214	1066.821
39.111	12.869	1374.946	1066.414
40.126	12.928	1374.186	1066.111
41.140	12.694	1373.419	1063.910
42.155	12.628	1372.934	1063.010
43.169	12.522	1372.542	1061.932
44.184	12.614	1372.213	1062.178
45.199	12.642	1371.635	1061.813
46.213	12.621	1370.900	1061.019
47.228	12.748	1370.154	1061.165
48.242	12.790	1368.824	1060.308
49.257	12.762	1367.607	1059.092
50.271	12.721	1366.210	1057.655
51.286	12.719	1364.609	1056.308
52.301	12.731	1363.421	1055.376
53.315	12.628	1362.387	1053.818
54.330	12.639	1361.323	1052.974
55.344	12.623	1360.226	1051.931
56.359	12.628	1359.040	1050.951
57.374	12.684	1357.949	1050.373
58.388	12.628	1357.352	1049.461
59.403	12.503	1356.938	1048.249
60.417	12.518	1355.791	1047.370
61.432	12.560	1355.087	1046.998
62.447	12.583	1353.980	1046.199
63.461	12.517	1353.013	1044.935
64.476	12.466	1351.611	1043.439
65.490	12.506	1350.549	1042.783
66.505	12.543	1348.759	1041.542
67.520	12.605	1347.558	1040.912
68.534	12.597	1346.613	1040.042
69.549	12.563	1345.643	1038.981
70.563	12.531	1344.497	1037.806
71.578	12.541	1343.247	1036.815
72.593	12.472	1342.508	1035.713
73.607	12.363	1341.961	1034.515
74.622	12.453	1340.998	1034.247
75.636	12.358	1340.500	1033.175
76.651	12.479	1339.331	1032.941
77.666	12.422	1339.107	1032.319
78.680	12.447	1338.350	1031.800
79.695	12.479	1337.892	1031.561
80.709	12.443	1337.024	1030.573
81.724	12.461	1336.234	1029.985
82.739	12.559	1335.365	1029.838
83.753	12.708	1334.441	1029.963
84.768	12.709	1333.456	1029.120
85.782	12.822	1332.175	1028.743
86.797	12.747	1330.835	1027.150
87.812	12.749	1329.500	1026.041
88.826	12.736	1328.305	1024.949
89.841	12.723	1327.526	1024.176
90.855	12.779	1326.478	1023.627
91.870	12.676	1325.847	1022.410
92.884	12.824	1324.865	1022.478
93.899	12.803	1324.199	1021.746
94.914	12.818	1323.370	1021.108
95.928	12.918	1322.298	1020.807
96.943	12.855	1321.212	1019.490
97.957	12.877	1320.222	1018.774
98.972	12.819	1319.693	1017.914
99.987	12.808	1318.354	1016.726
101.001	12.855	1317.314	1016.121
102.016	12.835	1316.388	1015.195
103.030	12.882	1315.194	1014.476
104.045	12.832	1314.847	1013.810
105.060	12.781	1313.503	1012.372
106.074	12.608	1311.902	1009.985
107.089	12.593	1310.683	1008.867
108.103	12.478	1309.706	1007.318
109.118	12.576	1308.243	1006.705
110.133	12.517	1307.167	1005.427
111.147	12.683	1305.438	1005.022
112.162	12.627	1303.795	1003.324
113.176	12.653	1303.080	1002.846
114.191	12.689	1301.992	1002.139
115.206	12.697	1300.552	1000.988
116.220	12.655	1299.314	999.697
117.235	12.670	1298.062	998.733
118.249	12.695	1297.387	998.280
119.264	12.571	1296.765	996.959
120.279	12.654	1294.895	995.933
121.293	12.552	1294.338	994.803
122.308	12.538	1293.447	993.946
123.322	12.551	1292.363	993.102
124.337	12.574	1291.235	992.285
125.352	12.544	1290.039	991.097
126.366	12.554	1288.929	990.217
127.381	12.631	1287.938	989.832
128.395	12.513	1286.724	988.103
129.410	12.601	1285.622	987.697
130.424	12.651	1285.073	987.491
131.439	12.551	1284.593	986.432
132.454	12.670	1283.218	986.003
133.468	12.754	1281.990	985.472
134.483	12.755	1281.890	985.316
135.497	12.727	1280.466	983.969
136.512	12.769	1279.320	983.250
137.527	12.757	1277.718	981.859
138.541	12.777	1276.437	980.908
139.556	12.789	1275.410	980.101
140.570	12.800	1274.482	979.368
141.585	12.899	1272.862	978.626
142.600	12.928	1271.496	977.660
143.614	12.949	1270.818	977.179
144.629	12.872	1269.911	975.938
145.643	13.005	1268.383	975.460
146.658	12.921	1267.552	974.244
147.673	12.847	1265.654	972.260
148.687	12.771	1264.868	971.125
149.702	12.800	1263.537	970.184
150.716	12.776	1262.158	968.898
151.731	12.628	1261.489	967.427
152.746	12.815	1259.568	966.971
153.760	12.830	1258.423	966.092
154.775	12.816	1257.605	965.296
155.789	12.870	1256.454	964.645
156.804	12.841	1255.662	963.779
157.819	12.896	1253.845	962.620
158.833	12.994	1253.190	962.604
159.848	13.022	1252.240	961.952
160.862	12.937	1251.520	960.819
161.877	12.953	1250.023	959.678
162.892	12.785	1248.983	957.820
163.906	12.808	1248.379	957.407
164.921	12.847	1247.410	956.804
165.935	12.767	1246.474	955.536
166.950	13.032	1245.452	956.202
167.964	12.811	1245.057	954.538
168.979	12.955	1244.187	954.618
169.994	12.955	1243.416	953.942
171.008	12.974	1242.592	953.333
172.023	13.089	1241.482	953.064
173.037	13.088	1240.578	952.279
174.052	13.071	1239.793	951.495
175.067	13.040	1238.459	950.209
176.081	12.864	1237.852	948.648
177.096	12.956	1236.589	948.121
178.110	12.973	1236.166	947.811
179.125	12.930	1235.136	946.691
180.140	13.097	1233.397	946.232
181.154	13.071	1231.988	944.921
182.169	13.014	1230.840	943.628
183.183	13.066	1229.676	942.947
184.198	13.175	1228.850	942.854
185.213	13.288	1227.449	942.341
186.227	13.214	1226.422	941.050
187.242	13.301	1225.583	940.818
188.256	13.301	1225.078	940.343
189.271	13.239	1223.784	938.918
190.286	13.157	1222.620	937.474
191.300	12.996	1221.725	935.790
192.315	12.874	1221.172	934.594
193.329	12.904	1220.375	934.073
194.344	13.044	1219.195	933.879
195.359	12.996	1219.193	933.525
196.373	13.111	1218.764	933.759
197.388	13.246	1217.942	933.809
198.402	13.270	1217.828	933.777
199.417	13.420	1216.980	933.889
200.432	13.446	1216.335	933.459
201.446	13.392	1215.256	932.243
202.461	13.532	1214.446	932.329
203.475	13.582	1213.365	931.701
204.490	13.457	1212.540	930.279
205.504	13.415	1210.981	928.763
206.519	13.366	1209.650	927.389
207.534	13.403	1208.555	926.673
208.548	13.389	1207.833	925.959
209.563	13.451	1207.014	925.598
210.577	13.411	1206.236	924.696
211.592	13.564	1204.911	924.454
212.607	13.586	1204.261	923.994
213.621	13.417	1203.578	922.445
214.636	13.379	1203.147	921.820
215.650	13.481	1202.121	921.523
216.665	13.496	1201.001	920.664
217.680	13.549	1200.245	920.297
218.694	13.656	1198.723	919.643
219.709	13.623	1198.443	919.165
220.723	13.707	1197.821	919.073
221.738	13.659	1196.896	918.018
222.753	13.658	1196.246	917.429
223.767	13.746	1195.551	917.300
224.782	13.759	1195.071	916.924
225.796	13.769	1194.561	916.510
226.811	13.708	1193.771	915.484
227.826	13.768	1192.511	914.764
228.840	13.760	1191.839	914.129
229.855	13.671	1191.507	913.303
230.869	13.748	1190.253	912.683
231.884	13.725	1188.992	911.508
232.899	13.670	1188.562	910.795
233.913	13.702	1187.632	910.178
234.928	13.604	1187.049	909.114
235.942	13.655	1186.359	908.784
236.957	13.682	1185.676	908.328
237.972	13.609	1184.855	907.221
238.986	13.732	1183.854	907.046
240.001	13.690	1183.424	906.405
241.015	13.698	1182.781	905.879
242.030	13.780	1181.958	905.612
243.045	13.806	1180.860	904.836
244.059	13.867	1179.747	904.233
245.074	13.815	1179.323	903.547
246.088	13.837	1178.434	902.905
247.103	13.904	1178.085	902.920
248.117	14.055	1176.703	902.604
249.132	14.077	1176.342	902.364
250.147	14.158	1175.481	902.063
251.161	14.213	1174.781	901.747
252.176	14.221	1174.510	901.500
253.190	14.261	1173.573	900.918
254.205	14.298	1173.216	900.765
255.220	14.261	1172.538	899.965
256.234	14.297	1171.734	899.463
257.249	14.313	1170.912	898.836
258.263	14.460	1170.133	898.954
259.278	14.291	1169.700	897.629
260.293	14.420	1168.976	897.691
261.307	14.309	1168.883	896.941
262.322	14.399	1168.422	896.992
263.336	14.479	1167.194	896.401
264.351	14.465	1166.743	895.897
265.366	14.386	1166.005	894.831
266.380	14.403	1165.368	894.351
267.395	14.421	1164.355	893.591
268.409	14.411	1163.469	892.781
269.424	14.461	1162.707	892.382
270.439	14.351	1162.788	891.778
271.453	14.498	1161.522	891.514
272.468	14.294	1160.604	889.639
273.482	14.448	1160.145	890.033
274.497	14.379	1159.676	889.227
275.512	14.515	1158.592	889.043
276.526	14.494	1157.930	888.342
277.541	14.411	1157.307	887.344
278.555	14.445	1156.342	886.709
279.570	14.611	1155.405	886.792
280.585	14.645	1154.942	886.538
281.599	14.584	1154.167	885.543
282.614	14.503	1152.859	884.031
283.628	14.604	1151.707	883.603
284.643	14.601	1150.748	882.771
285.657	14.540	1150.206	881.959
286.672	14.650	1148.905	881.464
287.687	14.647	1147.834	880.549
288.701	14.679	1147.155	880.116
289.716	14.615	1146.680	879.338
290.730	14.666	1146.214	879.171
291.745	14.716	1145.395	878.727
292.760	14.798	1144.314	878.254
293.774	14.761	1143.902	877.666
294.789	14.798	1143.502	877.473
295.803	14.878	1142.535	877.074
296.818	14.737	1141.977	875.829
297.833	14.697	1141.230	874.969
298.847	14.733	1140.546	874.556
299.862	14.752	1139.243	873.578
300.876	14.785	1138.530	873.128
301.891	14.931	1138.113	873.494
302.906	14.903	1137.357	872.689
303.920	14.920	1136.827	872.295
304.935	15.081	1135.418	871.971
305.949	15.081	1135.184	871.716
306.964	15.041	1134.576	870.963
307.979	15.044	1133.687	870.219
308.993	14.967	1133.153	869.331
310.008	15.088	1132.015	869.013
311.022	15.031	1131.862	868.523
312.037	15.079	1130.736	867.829
313.052	15.092	1129.669	866.998
314.066	15.056	1128.585	865.906
315.081	15.036	1127.673	865.027
316.095	14.873	1127.226	863.763
317.110	14.944	1126.319	863.362
318.125	14.917	1125.708	862.676
319.139	14.999	1125.202	862.633
320.154	14.853	1124.475	861.249
321.168	14.968	1124.180	861.537
322.183	15.007	1123.265	860.962
323.197	15.005	1122.643	860.401
324.212	15.032	1121.963	859.941
325.227	14.960	1121.653	859.257
326.241	15.033	1120.590	858.740
327.256	15.061	1119.899	858.277
328.270	15.047	1118.882	857.350
329.285	15.057	1117.826	856.517
330.300	14.999	1117.151	855.629
331.314	15.035	1116.188	854.998
332.329	15.106	1115.209	854.536
333.343	15.150	1114.575	854.198
334.358	15.301	1113.468	854.042
335.373	15.246	1112.818	853.192
336.387	15.215	1112.165	852.455
337.402	15.224	1111.517	851.930
338.416	15.248	1110.908	851.509
339.431	15.299	1110.192	851.143
340.446	15.381	1109.469	850.929
341.460	15.374	1108.854	850.347
342.475	15.443	1108.030	849.990
343.489	15.527	1107.067	849.599
344.504	15.503	1106.043	848.617
345.519	15.532	1105.361	848.167
346.533	15.522	1104.850	847.650
347.548	15.624	1103.529	847.076
348.562	15.535	1103.107	846.228
349.577	15.492	1101.892	845.006
350.592	15.324	1101.302	843.633
351.606	15.405	1100.608	843.433
352.621	15.405	1099.976	842.875
353.635	15.437	1099.145	842.325
354.650	15.520	1098.284	842.007
355.665	15.539	1097.570	841.476
356.679	15.472	1097.109	840.717
357.694	15.508	1096.837	840.615
358.708	15.541	1096.251	840.256
359.723	15.717	1095.081	840.164
360.738	15.607	1094.563	839.143
361.752	15.564	1094.060	838.467
362.767	15.654	1093.866	838.691
363.781	15.627	1093.255	838.018
364.796	15.685	1092.428	837.597
365.810	15.770	1091.441	837.188
366.825	15.833	1091.068	837.143
367.840	15.822	1090.691	836.725
368.854	15.902	1090.040	836.547
369.869	15.821	1089.442	835.615
370.883	15.908	1088.136	834.969
371.898	15.893	1087.433	834.283
372.913	15.890	1087.076	833.918
373.927	16.001	1086.455	833.917
374.942	15.948	1086.197	833.385
375.956	15.895	1085.589	832.579
376.971	16.027	1084.563	832.374
377.986	15.987	1084.104	831.748
379.000	16.045	1083.428	831.444
380.015	16.092	1082.916	831.208
381.029	16.108	1082.188	830.657
382.044	16.096	1082.030	830.402
383.059	16.149	1081.098	829.873
384.073	16.225	1080.200	829.484
385.088	16.016	1079.400	827.768
386.102	16.200	1078.167	827.651
387.117	16.130	1077.246	826.529
388.132	16.102	1076.491	825.741
389.146	16.017	1075.594	824.566
390.161	16.051	1075.062	824.251
391.175	16.029	1074.112	823.342
392.190	16.100	1073.252	822.957
393.205	16.149	1073.304	823.162
394.219	16.114	1072.097	821.992
395.234	16.245	1071.149	821.830
396.248	16.217	1069.631	820.455
397.263	16.101	1068.933	819.284
398.278	16.097	1068.613	818.947
399.292	16.183	1067.427	818.382
400.307	16.070	1066.957	817.402
401.321	16.132	1066.438	817.234
402.336	16.160	1065.955	816.925
403.350	16.033	1065.223	815.679
404.365	16.097	1064.412	815.294
405.380	16.211	1063.625	815.170
406.394	16.262	1062.934	814.817
407.409	16.276	1062.045	814.131
408.423	16.392	1061.506	814.202
409.438	16.321	1060.719	813.186
410.453	16.454	1059.885	813.115
411.467	16.467	1059.419	812.745
412.482	16.484	1058.557	812.096
413.496	16.567	1057.740	811.795
414.511	16.515	1057.463	811.260
415.526	16.593	1057.039	811.237
416.540	16.716	1056.351	811.228
417.555	16.649	1055.845	810.448
418.569	16.640	1055.431	810.016
419.584	16.684	1055.058	809.868
420.599	16.678	1054.308	809.192
421.613	61.627	1253.321	1210.436
422.628	56.586	1282.326	1210.592
