DTS Sentinel unit serial number:	SN413079Multiplexer serial number:	ORYXHardware model number:	OX4-SRSoftware version number:	ORYX F/W v4.00 Oryx Data Collector v3.7.2.0data status	okinstallation	princeton_trtdifferential loss correction	single-endedforward channel	channel 2reverse channel	N/Adate	2019/09/12time	23:27:34forward acquisition time	60.00reverse acquisition time	0.00gamma	496.2192k internal	0.2332k external	0.2332temperature offset calibration	1.0174default loss term (dB/km)	0.3790temperature slope calibration	1.0000multiplexer offset coefficient	1.0000multiplexer slope coefficient	1.0000fibre end	0.00T internal ref (°C)	29.00T ext. ref 1 (°C)	3.75T ext. ref 2 (°C)	23.67length (m)	temperature (°C)	Stokes	anti-Stokes-747.200	38.677	-0.124	-0.111
-746.185	79.778	-0.073	-0.079
-745.171	315.308	0.082	0.155
-744.156	4.099	-0.213	-0.156
-743.142	83.157	0.091	0.100
-742.127	31.157	0.250	0.216
-741.112	-200.000	-0.001	0.273
-740.098	262.522	0.221	-0.385
-739.083	-75.893	-0.047	0.017
-738.069	-200.000	-0.043	0.293
-737.054	-88.246	0.248	0.075
-736.039	743.644	-0.102	-0.275
-735.025	-153.335	0.252	0.018
-734.010	-150.814	-0.486	0.037
-732.996	115.459	-0.085	0.105
-731.981	366.211	-0.107	-0.217
-730.966	71.171	0.351	-0.366
-729.952	15.286	0.109	-0.086
-728.937	-93.418	-0.108	-0.030
-727.923	800.000	0.084	-0.280
-726.908	54.312	-0.121	-0.117
-725.894	-115.188	-0.195	-0.037
-724.879	218.987	-0.157	-0.252
-723.864	62.714	-0.167	-0.168
-722.850	-78.322	0.095	-0.033
-721.835	-9.083	-0.098	0.066
-720.821	63.801	-0.103	-0.104
-719.806	-155.777	0.265	-0.017
-718.791	51.616	-0.159	0.152
-717.777	77.542	-0.162	0.174
-716.762	3.103	0.029	-0.021
-715.748	479.395	-0.087	-0.197
-714.733	196.518	-0.215	0.329
-713.718	556.109	0.063	0.151
-712.704	83.399	-0.092	-0.101
-711.689	244.988	0.066	-0.111
-710.675	-58.088	-0.184	0.081
-709.660	-20.951	0.249	-0.153
-708.645	12.538	-0.183	0.142
-707.631	-177.134	-0.058	-0.001
-706.616	-200.000	-0.012	-0.310
-705.602	-17.524	0.091	0.057
-704.587	11.583	0.140	-0.108
-703.572	-105.996	-0.244	0.055
-702.558	225.278	0.105	0.171
-701.543	173.137	0.100	0.144
-700.529	-56.613	-0.162	-0.072
-699.514	-49.565	0.209	0.100
-698.499	-200.000	-0.025	0.141
-697.485	-27.827	-0.142	-0.083
-696.470	-200.000	0.034	0.203
-695.456	9.811	-0.111	0.084
-694.441	-200.000	-0.051	-0.248
-693.426	-51.641	0.309	-0.145
-692.412	243.041	-0.125	0.211
-691.397	4.638	-0.158	0.117
-690.383	-200.000	-0.033	-0.176
-689.368	227.213	0.078	-0.128
-688.354	-111.191	0.339	0.070
-687.339	800.000	-0.055	0.179
-686.324	-82.823	0.157	-0.051
-685.310	-131.738	0.261	0.034
-684.295	254.286	0.079	-0.135
-683.281	71.544	0.052	-0.054
-682.266	155.351	0.125	0.172
-681.251	-21.335	-0.303	0.186
-680.237	-200.000	-0.029	0.279
-679.222	216.028	-0.114	0.181
-678.208	37.631	0.133	-0.119
-677.193	-200.000	0.012	-0.426
-676.178	-200.000	0.017	0.240
-675.164	-104.374	0.258	-0.060
-674.149	404.331	-0.084	-0.177
-673.135	800.000	-0.063	-0.264
-672.120	-36.117	0.109	-0.059
-671.105	-150.339	-0.153	-0.012
-670.091	40.186	0.159	0.143
-669.076	65.950	-0.050	-0.051
-668.062	-61.883	0.359	-0.151
-667.047	-49.716	-0.299	-0.143
-666.032	475.944	0.183	-0.416
-665.018	-200.000	0.048	0.310
-664.003	-135.158	-0.414	-0.050
-662.989	-80.525	0.147	0.049
-661.974	289.672	-0.091	-0.166
-660.959	-55.288	0.099	-0.045
-659.945	381.297	-0.067	0.138
-658.930	762.788	-0.196	0.533
-657.916	-108.212	0.114	-0.025
-656.901	109.998	0.140	0.168
-655.886	74.813	-0.119	0.125
-654.872	-200.000	-0.008	0.300
-653.857	63.401	-0.133	-0.133
-652.843	38.298	0.039	-0.035
-651.828	568.741	0.094	0.228
-650.814	264.696	0.101	0.177
-649.799	-71.948	-0.340	-0.127
-648.784	148.334	-0.183	0.247
-647.770	716.459	0.096	0.255
-646.755	-78.492	0.284	-0.098
-645.741	25.188	0.218	-0.181
-644.726	-83.750	-0.095	0.030
-643.711	-200.000	-0.045	0.276
-642.697	192.565	0.085	-0.129
-641.682	363.196	0.059	0.119
-640.668	-139.775	0.152	-0.016
-639.653	-136.575	-0.283	0.033
-638.638	3.651	-0.210	-0.153
-637.624	648.344	0.089	-0.228
-636.609	96.362	0.195	-0.223
-635.595	-32.186	0.143	0.080
-634.580	636.138	-0.047	-0.121
-633.565	800.000	0.036	-0.143
-632.551	397.534	0.148	-0.310
-631.536	82.448	-0.179	-0.194
-630.522	8.144	-0.056	0.042
-629.507	-25.285	0.211	0.125
-628.492	-63.979	-0.193	0.079
-627.478	-184.126	0.301	-0.005
-626.463	59.482	0.140	-0.138
-625.449	-160.367	0.261	-0.014
-624.434	-7.571	-0.184	-0.125
-623.419	54.843	0.230	-0.222
-622.405	-104.800	0.017	-0.004
-621.390	-63.579	-0.081	-0.033
-620.376	-126.538	0.385	0.057
-619.361	3.685	-0.154	0.112
-618.346	-23.312	-0.161	0.097
-617.332	-106.649	0.200	0.045
-616.317	23.977	-0.202	0.167
-615.303	-130.628	0.092	0.012
-614.288	-169.734	0.124	0.004
-613.273	-55.646	0.127	-0.057
-612.259	396.387	0.191	-0.400
-611.244	27.576	0.216	0.182
-610.230	-61.345	-0.297	-0.125
-609.215	87.710	-0.219	0.243
-608.201	800.000	0.114	-0.323
-607.186	-138.902	-0.426	-0.046
-606.171	213.857	-0.054	0.086
-605.157	-200.000	0.020	-0.093
-604.142	-70.462	-0.052	-0.020
-603.128	-60.080	0.191	0.082
-602.113	-0.263	0.153	0.109
-601.098	-56.259	-0.240	-0.107
-600.084	800.000	-0.023	0.094
-599.069	632.447	-0.039	0.099
-598.055	-91.751	-0.401	-0.114
-597.040	306.138	0.079	-0.147
-596.025	800.000	0.062	-0.231
-595.011	51.252	-0.199	-0.189
-593.996	-200.000	-0.031	0.205
-592.982	405.468	-0.115	0.242
-591.967	-93.887	-0.147	-0.040
-590.952	58.829	0.201	-0.197
-589.938	722.526	0.022	0.059
-588.923	-158.995	-0.290	-0.016
-587.909	-36.866	-0.127	-0.068
-586.894	696.068	0.024	0.062
-585.879	-200.000	0.012	0.142
-584.865	-117.903	-0.116	-0.021
-583.850	64.095	-0.098	-0.099
-582.836	368.216	-0.108	-0.218
-581.821	54.019	-0.511	-0.491
-580.806	-200.000	-0.000	-0.231
-579.792	-69.605	-0.115	0.044
-578.777	172.611	0.090	-0.130
-577.763	-84.341	0.051	-0.016
-576.748	-200.000	-0.010	0.284
-575.733	58.503	0.156	-0.153
-574.719	-82.562	-0.374	0.121
-573.704	800.000	0.041	-0.166
-572.690	167.635	-0.294	0.418
-571.675	-200.000	-0.029	0.261
-570.661	800.000	-0.163	0.571
-569.646	-114.233	-0.145	-0.028
-568.631	-200.000	-0.001	0.487
-567.617	54.306	-0.082	-0.079
-566.602	-178.800	-0.249	0.006
-565.588	123.642	-0.144	0.181
-564.573	576.917	0.024	0.058
-563.558	85.149	0.195	-0.214
-562.544	122.620	0.017	0.022
-561.529	-88.447	0.187	-0.056
-560.515	336.899	-0.114	-0.222
-559.500	670.114	0.042	-0.109
-558.485	-199.771	-0.228	-0.001
-557.471	-200.000	0.017	-0.161
-556.456	171.654	0.138	-0.197
-555.442	-174.102	0.342	0.010
-554.427	-100.016	0.306	-0.076
-553.412	91.131	0.271	0.304
-552.398	-200.000	-0.034	-0.188
-551.383	441.404	-0.048	-0.105
-550.369	86.828	-0.241	-0.265
-549.354	-200.000	-0.041	-0.397
-548.339	136.006	0.232	-0.301
-547.325	-30.302	0.362	-0.205
-546.310	12.107	-0.134	-0.103
-545.296	-38.301	-0.099	0.053
-544.281	-142.572	-0.069	-0.007
-543.266	88.548	-0.133	0.148
-542.252	800.000	0.108	-0.367
-541.237	21.393	-0.053	-0.043
-540.223	236.791	0.091	-0.150
-539.208	-168.073	0.392	-0.015
-538.193	-200.000	0.000	-0.016
-537.179	532.257	-0.085	0.200
-536.164	800.000	-0.085	-0.244
-535.150	12.323	0.085	0.065
-534.135	-12.952	0.013	0.008
-533.121	-77.570	-0.053	-0.018
-532.106	800.000	0.021	-0.058
-531.091	539.736	-0.127	-0.301
-530.077	42.184	0.214	-0.193
-529.062	-200.000	0.025	-0.113
-528.048	-108.762	-0.030	-0.006
-527.033	596.145	-0.070	0.172
-526.018	-17.072	0.052	0.033
-525.004	41.838	-0.193	0.175
-523.989	10.630	-0.192	0.146
-522.975	-16.817	0.101	-0.064
-521.960	-78.569	-0.183	0.062
-520.945	-115.033	0.118	0.022
-519.931	103.497	-0.108	-0.126
-518.916	800.000	-0.025	0.085
-517.902	-200.000	0.024	0.296
-516.887	-200.000	0.001	-0.176
-515.872	-39.298	-0.129	0.067
-514.858	55.290	-0.231	0.223
-513.843	-171.439	-0.222	-0.007
-512.829	-200.000	-0.008	-0.195
-511.814	800.000	0.086	-0.289
-510.799	203.725	-0.066	0.103
-509.785	-71.996	-0.066	-0.024
-508.770	87.194	-0.067	-0.073
-507.756	-200.000	0.013	0.061
-506.741	800.000	-0.066	-0.186
-505.726	-92.567	-0.282	0.079
-504.712	-143.256	0.105	-0.010
-503.697	126.350	0.196	0.247
-502.683	-200.000	-0.031	0.228
-501.668	52.842	-0.128	0.122
-500.653	-6.762	0.153	-0.104
-499.639	102.170	0.052	0.060
-498.624	-179.282	0.227	-0.005
-497.610	-63.155	-0.283	0.116
-496.595	68.390	-0.065	0.066
-495.581	-45.448	0.066	-0.033
-494.566	-75.700	0.350	0.124
-493.551	800.000	0.032	0.113
-492.537	513.285	0.130	0.303
-491.522	30.763	-0.178	0.152
-490.508	-136.539	-0.243	0.028
-489.493	-97.285	0.302	-0.078
-488.478	166.027	0.245	-0.345
-487.464	-50.074	-0.075	-0.035
-486.449	-54.785	-0.263	0.118
-485.435	251.062	0.096	0.162
-484.420	-176.159	0.347	0.009
-483.405	20.023	-0.244	0.196
-482.391	761.613	-0.091	0.245
-481.376	72.895	-0.116	0.121
-480.362	-29.836	-0.255	0.145
-479.347	800.000	-0.074	0.283
-478.332	17.061	-0.092	0.073
-477.318	371.929	0.064	0.129
-476.303	-90.729	0.130	0.037
-475.289	19.825	-0.205	0.164
-474.274	-64.732	-0.071	-0.029
-473.259	-73.602	-0.207	-0.075
-472.245	-115.034	0.233	0.044
-471.230	507.550	-0.073	0.167
-470.216	196.344	-0.051	-0.077
-469.201	800.000	0.051	0.141
-468.186	579.441	0.053	0.129
-467.172	-107.178	0.289	0.063
-466.157	8.620	-0.370	-0.277
-465.143	1.132	-0.125	0.089
-464.128	-59.365	-0.329	0.141
-463.113	211.053	0.043	0.067
-462.099	221.349	-0.082	-0.131
-461.084	-131.622	-0.147	-0.019
-460.070	-63.173	0.209	0.086
-459.055	67.018	-0.108	-0.109
-458.040	164.587	0.162	-0.228
-457.026	-62.029	-0.441	0.183
-456.011	21.214	0.160	0.129
-454.997	18.112	0.092	0.073
-453.982	-91.487	0.301	0.085
-452.968	-159.723	-0.190	0.010
-451.953	173.383	-0.256	0.366
-450.938	-124.817	-0.362	0.056
-449.924	-90.639	0.211	-0.061
-448.909	-144.997	-0.526	-0.048
-447.895	19.521	-0.121	0.097
-446.880	-95.215	0.325	-0.087
-445.865	80.179	-0.311	-0.332
-444.851	800.000	-0.088	-0.273
-443.836	132.598	0.199	-0.255
-442.822	52.349	0.327	0.311
-441.807	-200.000	0.003	0.152
-440.792	-70.928	0.033	-0.012
-439.778	-1.755	-0.134	0.094
-438.763	160.990	-0.144	-0.200
-437.749	800.000	0.078	-0.251
-436.734	-27.671	-0.294	-0.169
-435.719	249.684	-0.102	-0.172
-434.705	-76.197	-0.280	-0.098
-433.690	-91.385	0.141	0.040
-432.676	-5.251	-0.063	0.043
-431.661	-24.325	-0.072	0.043
-430.646	-200.000	-0.014	0.114
-429.632	-200.000	-0.003	0.062
-428.617	26.089	0.112	-0.093
-427.603	16.892	0.074	-0.058
-426.588	-151.774	-0.279	0.020
-425.573	-200.000	0.011	0.114
-424.559	-174.846	0.319	0.009
-423.544	-200.000	0.039	-0.200
-422.530	800.000	-0.095	-0.320
-421.515	447.091	-0.067	0.146
-420.500	800.000	-0.013	-0.048
-419.486	-64.816	-0.333	-0.134
-418.471	-88.692	0.179	0.053
-417.457	-147.613	0.313	0.026
-416.442	129.143	-0.234	0.296
-415.428	800.000	-0.089	-0.316
-414.413	9.971	0.234	-0.177
-413.398	-52.508	0.157	0.072
-412.384	330.806	-0.039	-0.075
-411.369	800.000	-0.043	0.142
-410.355	-19.074	-0.077	0.047
-409.340	-67.938	0.101	-0.039
-408.325	-30.476	0.059	-0.033
-407.311	48.577	-0.519	0.483
-406.296	-86.150	0.242	-0.074
-405.282	80.254	0.235	0.251
-404.267	-116.345	-0.451	-0.083
-403.252	-200.000	0.092	0.430
-402.238	-100.855	0.323	0.079
-401.223	-115.167	0.178	0.034
-400.209	-200.000	0.049	-0.226
-399.194	-48.593	0.186	-0.089
-398.179	70.594	-0.144	-0.148
-397.165	-45.487	0.067	-0.033
-396.150	800.000	0.020	-0.072
-395.136	-33.908	0.269	0.147
-394.121	254.741	0.194	0.330
-393.106	-126.638	-0.053	-0.008
-392.092	-108.524	0.252	-0.054
-391.077	492.883	0.067	0.151
-390.063	241.065	0.130	0.215
-389.048	306.602	0.073	0.136
-388.033	-140.651	-0.236	0.024
-387.019	-123.164	0.243	0.039
-386.004	-90.135	0.146	-0.042
-384.990	0.821	0.232	-0.165
-383.975	29.891	-0.166	0.141
-382.960	150.066	0.218	-0.293
-381.946	-3.436	0.168	0.116
-380.931	-200.000	-0.021	-0.159
-379.917	-3.196	0.069	0.048
-378.902	-200.000	-0.018	-0.094
-377.888	169.588	-0.158	-0.224
-376.873	12.393	0.094	-0.072
-375.858	-53.231	-0.199	0.090
-374.844	-200.000	-0.003	0.242
-373.829	37.713	0.322	0.284
-372.815	-200.000	-0.042	0.208
-371.800	-39.846	-0.140	0.072
-370.785	-200.000	0.026	0.299
-369.771	152.091	-0.174	-0.235
-368.756	-75.633	0.476	-0.168
-367.742	314.357	0.082	0.153
-366.727	800.000	-0.092	0.328
-365.712	127.695	0.050	0.063
-364.698	-123.066	-0.160	0.026
-363.683	-191.688	-0.169	0.002
-362.669	-200.000	0.370	0.001
-361.654	45.969	-0.158	-0.145
-360.639	94.784	-0.232	0.262
-359.625	-42.147	-0.183	-0.093
-358.610	-114.126	-0.135	-0.026
-357.596	590.817	-0.050	-0.121
-356.581	-200.000	-0.002	-0.105
-355.566	-89.336	0.269	-0.079
-354.552	-20.359	0.096	0.058
-353.537	20.460	-0.403	0.323
-352.523	-34.813	0.201	0.109
-351.508	9.481	0.103	-0.078
-350.493	81.608	0.101	-0.108
-349.479	800.000	0.052	-0.189
-348.464	92.675	0.173	-0.194
-347.450	114.189	0.137	-0.165
-346.435	73.267	-0.090	-0.093
-345.420	-49.598	-0.188	0.089
-344.406	800.000	0.068	-0.237
-343.391	800.000	0.086	-0.248
-342.377	260.997	-0.056	-0.096
-341.362	-39.154	0.252	-0.131
-340.348	70.818	0.137	0.140
-339.333	61.196	0.039	-0.038
-338.318	318.658	-0.134	-0.251
-337.304	800.000	-0.064	-0.269
-336.289	201.332	-0.129	-0.197
-335.275	196.481	0.115	0.173
-334.260	-37.340	0.269	-0.142
-333.245	625.209	0.038	-0.095
-332.231	-29.775	0.168	0.095
-331.216	107.413	0.210	0.247
-330.202	-200.000	-0.032	0.141
-329.187	800.000	0.058	0.182
-328.172	-32.861	-0.402	-0.221
-327.158	-200.000	0.064	-0.288
-326.143	264.216	0.239	-0.412
-325.129	-133.892	0.123	-0.015
-324.114	674.238	-0.035	-0.091
-323.099	246.220	0.192	-0.320
-322.085	193.854	0.059	-0.088
-321.070	-39.839	0.201	-0.104
-320.056	800.000	-0.024	0.090
-319.041	-143.074	-0.295	0.028
-318.026	-80.621	0.140	0.046
-317.012	-32.156	0.092	0.051
-315.997	-104.146	-0.156	0.036
-314.983	800.000	0.048	-0.139
-313.968	-137.520	-0.231	0.026
-312.953	-200.000	0.032	-0.369
-311.939	24.883	0.276	0.226
-310.924	-200.000	-0.034	0.195
-309.910	458.514	0.132	-0.289
-308.895	-66.429	-0.365	-0.144
-307.880	-200.000	-0.007	-0.101
-306.866	779.082	0.034	0.091
-305.851	-200.000	-0.053	-0.242
-304.837	-16.481	0.182	0.114
-303.822	43.931	-0.356	0.322
-302.807	-44.371	0.222	-0.110
-301.793	-114.598	-0.255	0.048
-300.778	-135.423	0.088	0.010
-299.764	238.759	-0.065	-0.106
-298.749	-200.000	0.043	0.266
-297.735	7.638	-0.095	0.070
-296.720	-162.790	0.523	0.025
-295.705	800.000	0.076	0.225
-294.691	614.083	0.063	0.157
-293.676	-118.288	0.173	-0.030
-292.662	-36.648	0.345	-0.183
-291.647	-76.095	-0.184	0.064
-290.632	-51.301	-0.161	0.074
-289.618	-52.926	0.216	-0.098
-288.603	-50.366	-0.142	-0.066
-287.589	10.990	0.269	0.203
-286.574	-156.370	0.380	0.023
-285.559	144.613	-0.090	0.119
-284.545	-123.884	0.126	-0.020
-283.530	-200.000	-0.003	0.286
-282.516	-115.707	0.250	-0.046
-281.501	-85.051	0.146	0.045
-280.486	-200.000	0.096	-0.430
-279.472	416.703	-0.052	0.110
-278.457	800.000	-0.096	-0.273
-277.443	-22.188	-0.332	-0.199
-276.428	800.000	-0.057	-0.213
-275.413	-200.000	0.003	0.168
-274.399	307.505	-0.128	-0.236
-273.384	-200.000	0.030	-0.244
-272.370	144.188	0.106	0.140
-271.355	-91.322	-0.192	0.054
-270.340	-200.000	-0.006	-0.071
-269.326	-93.417	-0.148	-0.040
-268.311	25.009	-0.134	-0.110
-267.297	800.000	0.057	0.170
-266.282	366.599	0.159	0.318
-265.267	-61.453	0.458	-0.190
-264.253	-72.808	0.359	-0.130
-263.238	-8.611	-0.338	0.224
-262.224	540.584	-0.138	0.323
-261.209	-16.081	-0.119	0.075
-260.195	800.000	0.095	-0.263
-259.180	207.393	0.079	-0.122
-258.165	-11.874	-0.152	-0.099
-257.151	-87.780	-0.156	-0.047
-256.136	-200.000	-0.004	0.377
-255.122	-200.000	0.010	-0.405
-254.107	59.085	0.148	0.143
-253.092	130.943	-0.154	0.195
-252.078	-84.002	0.197	0.062
-251.063	500.052	0.026	-0.060
-250.049	-200.000	-0.168	0.000
-249.034	-175.559	0.345	0.009
-248.019	-200.000	0.001	-0.054
-247.005	-142.307	0.363	0.035
-245.990	-111.185	0.156	0.031
-244.976	-146.103	0.225	0.020
-243.961	-66.460	-0.209	0.082
-242.946	-155.535	0.336	0.021
-241.932	-196.226	-0.200	0.001
-240.917	800.000	-0.089	0.354
-239.903	800.000	-0.108	0.308
-238.888	294.602	-0.183	-0.331
-237.873	-94.924	-0.092	0.025
-236.859	572.244	-0.184	-0.443
-235.844	-64.258	-0.126	0.051
-234.830	92.771	-0.315	-0.351
-233.815	371.214	0.053	0.107
-232.800	38.098	-0.285	0.250
-231.786	9.835	-0.111	-0.083
-230.771	-200.000	0.000	0.033
-229.757	-71.587	-0.159	-0.058
-228.742	-26.177	0.126	-0.073
-227.727	-38.324	0.136	0.071
-226.713	148.071	-0.090	0.119
-225.698	364.723	0.105	-0.209
-224.684	-7.288	-0.231	-0.154
-223.669	-98.890	0.438	-0.110
-222.655	-186.470	-0.139	0.002
-221.640	79.077	0.202	-0.213
-220.625	57.995	-0.192	-0.185
-219.611	7.217	0.271	-0.199
-218.596	-79.017	-0.130	0.043
-217.582	104.985	-0.024	0.028
-216.567	-108.506	-0.304	0.065
-215.552	64.922	-0.136	0.136
-214.538	773.273	0.019	0.051
-213.523	31.478	0.140	0.119
-212.509	-113.992	0.294	0.056
-211.494	-200.000	-0.002	-0.146
-210.479	800.000	-0.028	-0.078
-209.465	298.936	0.230	0.417
-208.450	-144.765	-0.295	0.027
-207.436	381.571	-0.140	0.282
-206.421	14.618	-0.042	0.032
-205.406	-200.000	0.057	-0.351
-204.392	800.000	-0.026	-0.099
-203.377	-25.140	0.159	-0.093
-202.363	-103.105	-0.429	-0.100
-201.348	26.293	0.157	0.129
-200.333	175.672	-0.114	-0.163
-199.319	-200.000	0.029	-0.146
-198.304	-17.345	0.164	0.102
-197.290	-200.000	-0.021	0.187
-196.275	800.000	0.073	0.218
-195.260	257.273	0.148	-0.250
-194.246	423.642	0.032	0.068
-193.231	60.161	0.194	0.189
-192.217	800.000	-0.167	0.584
-191.202	-200.000	-0.002	0.231
-190.187	347.699	-0.210	0.408
-189.173	1.230	0.203	-0.144
-188.158	-50.049	-0.065	-0.030
-187.144	-200.000	-0.057	0.382
-186.129	69.974	0.194	0.197
-185.114	-47.007	-0.090	0.043
-184.100	61.638	-0.229	0.225
-183.085	-200.000	-0.042	-0.236
-182.071	800.000	-0.046	0.198
-181.056	488.965	0.083	0.187
-180.042	-20.269	0.180	-0.109
-179.027	55.987	-0.280	0.268
-178.012	-3.484	-0.075	-0.052
-176.998	800.000	0.061	-0.198
-175.983	72.309	0.078	0.080
-174.969	-150.048	0.093	0.007
-173.954	-51.699	-0.174	-0.080
-172.939	-71.439	-0.193	-0.071
-171.925	-25.706	0.139	-0.081
-170.910	-18.411	0.164	-0.101
-169.896	296.945	-0.080	0.145
-168.881	-77.985	-0.067	0.023
-167.866	-200.000	0.019	0.233
-166.852	-42.802	0.242	-0.121
-165.837	-39.281	0.203	-0.105
-164.823	428.059	0.091	-0.193
-163.808	-174.126	-0.340	-0.010
-162.793	-200.000	0.196	-0.000
-161.779	-70.782	-0.085	0.031
-160.764	26.052	-0.128	-0.105
-159.750	-49.110	0.081	-0.038
-158.735	-200.000	0.046	0.220
-157.720	800.000	0.039	-0.167
-156.706	69.257	0.208	-0.210
-155.691	-17.419	0.184	0.114
-154.677	39.902	-0.083	0.073
-153.662	-200.000	-0.050	0.264
-152.647	-5.838	-0.354	0.238
-151.633	207.031	0.070	0.107
-150.618	800.000	0.084	0.326
-149.604	6.105	0.076	0.055
-148.589	800.000	0.057	-0.216
-147.574	54.758	-0.229	-0.217
-146.560	516.011	0.034	0.078
-145.545	672.505	0.144	-0.367
-144.531	12.613	0.234	0.177
-143.516	-91.501	0.033	0.009
-142.502	-200.000	-0.025	0.121
-141.487	-77.809	0.206	-0.070
-140.472	-146.986	0.111	0.009
-139.458	-200.000	-0.183	0.000
-138.443	230.170	0.151	0.243
-137.429	-23.023	0.225	0.133
-136.414	131.517	-0.100	-0.126
-135.399	214.071	0.175	0.272
-134.385	-200.000	-0.002	0.162
-133.370	-5.646	0.124	0.084
-132.356	15.195	0.147	-0.113
-131.341	-200.000	-0.039	0.225
-130.326	-200.000	0.041	-0.207
-129.312	800.000	0.038	-0.123
-128.297	103.634	-0.106	-0.122
-127.283	-165.413	-0.096	-0.004
-126.268	69.435	0.092	-0.093
-125.253	36.059	-0.277	-0.239
-124.239	-69.400	0.304	0.115
-123.224	-112.571	0.137	0.027
-122.210	14.400	-0.201	-0.154
-121.195	65.401	0.149	0.148
-120.180	-96.417	0.318	0.082
-119.166	75.285	-0.164	0.170
-118.151	-97.948	-0.265	-0.067
-117.137	81.076	0.083	0.088
-116.122	-200.000	0.049	-0.297
-115.107	-4.447	-0.153	-0.104
-114.093	-200.000	-0.018	0.120
-113.078	-7.968	0.456	-0.302
-112.064	-65.341	0.082	-0.032
-111.049	-58.891	-0.150	-0.064
-110.034	-21.568	-0.162	-0.097
-109.020	190.690	-0.159	-0.234
-108.005	44.413	0.311	-0.280
-106.991	-13.464	-0.028	0.018
-105.976	800.000	-0.018	-0.078
-104.962	21.519	0.075	-0.060
-103.947	409.210	0.093	-0.194
-102.932	-200.000	-0.018	-0.142
-101.918	-163.158	-0.116	-0.005
-100.903	150.075	-0.082	0.109
-99.889	-101.194	0.140	0.034
-98.874	800.000	0.097	0.328
-97.859	649.567	-0.050	0.127
-96.845	-200.000	-0.047	0.273
-95.830	116.622	-0.099	-0.119
-94.816	-124.683	0.279	-0.042
-93.801	-200.000	-0.038	0.204
-92.786	6.144	0.019	-0.014
-91.772	601.691	0.009	0.022
-90.757	-143.593	0.358	0.033
-89.743	-97.378	-0.204	-0.052
-88.728	15.505	0.241	0.186
-87.713	-200.000	-0.039	-0.362
-86.699	-200.000	0.027	-0.216
-85.684	415.312	0.156	-0.325
-84.670	202.045	0.041	-0.063
-83.655	100.013	0.093	0.105
-82.640	28.808	0.189	0.157
-81.626	-98.318	-0.221	-0.056
-80.611	-200.000	-0.028	0.254
-79.597	-200.000	0.048	0.233
-78.582	-200.000	-0.027	-0.493
-77.567	-16.288	0.340	0.212
-76.553	92.371	-0.097	0.107
-75.538	-117.834	0.365	-0.064
-74.524	800.000	0.105	0.313
-73.509	-121.875	-0.348	0.056
-72.494	-100.401	0.073	0.018
-71.480	-200.000	-0.011	0.077
-70.465	800.000	0.087	0.244
-69.451	38.812	0.207	0.181
-68.436	800.000	0.045	0.147
-67.422	351.464	0.226	-0.439
-66.407	134.560	0.151	-0.192
-65.392	-84.291	0.115	-0.036
-64.378	-200.000	-0.023	-0.113
-63.363	-73.741	-0.216	0.077
-62.349	800.000	-0.051	0.167
-61.334	60.019	-0.944	-0.913
-60.319	-54.232	0.947	0.421
-59.305	96.024	-0.794	-0.888
-58.290	231.572	0.653	1.049
-57.276	-200.000	0.402	1.733
-56.261	-200.000	110.948	612.704
-55.246	513.159	1512.651	3452.760
-54.232	176.768	2699.989	3844.644
-53.217	104.024	2283.193	2628.085
-52.203	38.082	1890.609	1646.736
-51.188	32.240	1679.939	1419.230
-50.173	29.666	1636.741	1363.714
-49.159	48.710	1691.999	1553.226
-48.144	48.565	1707.869	1566.642
-47.130	31.751	1664.376	1402.194
-46.115	29.006	1649.819	1369.479
-45.100	28.962	1644.689	1364.844
-44.086	28.925	1642.034	1362.306
-43.071	28.873	1639.157	1359.486
-42.057	28.874	1636.895	1357.560
-41.042	28.854	1634.999	1355.789
-40.027	28.853	1633.195	1354.228
-39.013	28.936	1630.807	1352.809
-37.998	28.868	1629.518	1351.182
-36.984	28.939	1627.961	1350.360
-35.969	28.899	1627.126	1349.323
-34.954	29.078	1625.226	1349.007
-33.940	28.925	1623.740	1346.595
-32.925	28.993	1621.842	1345.467
-31.911	29.082	1619.745	1344.322
-30.896	29.031	1618.570	1342.920
-29.881	28.943	1616.916	1340.857
-28.867	28.924	1615.522	1339.511
-27.852	28.970	1614.238	1338.724
-26.838	29.017	1612.114	1337.253
-25.823	29.014	1610.850	1336.131
-24.809	28.998	1609.794	1335.085
-23.794	28.965	1608.378	1333.620
-22.779	29.022	1606.691	1332.575
-21.765	28.939	1605.383	1330.838
-20.750	28.968	1603.533	1329.462
-19.736	29.108	1602.572	1329.627
-18.721	29.053	1601.046	1327.907
-17.706	29.033	1599.355	1326.312
-16.692	29.011	1597.816	1324.824
-15.677	29.071	1596.193	1323.856
-14.663	29.129	1594.710	1322.994
-13.648	29.096	1593.382	1321.599
-12.633	28.997	1592.252	1319.896
-11.619	28.971	1590.727	1318.394
-10.604	29.052	1588.704	1317.247
-9.590	29.108	1587.842	1316.880
-8.575	29.029	1586.633	1315.263
-7.560	29.071	1585.644	1314.688
-6.546	29.033	1584.429	1313.357
-5.531	28.976	1583.948	1312.498
-4.517	28.978	1581.890	1310.756
-3.502	28.988	1581.294	1310.282
-2.487	29.081	1579.739	1309.607
-1.473	28.648	1567.704	1296.517
-0.458	25.795	1548.200	1260.404
0.556	23.883	1549.442	1228.510
1.571	21.519	1573.050	1230.520
2.586	20.916	1586.754	1236.849
3.600	18.800	1533.066	1180.373
4.615	11.558	1426.975	1052.104
5.629	4.981	1365.119	965.771
6.644	3.747	1357.884	952.963
7.659	3.696	1356.466	951.572
8.673	3.790	1355.651	951.491
9.688	3.757	1353.706	949.838
10.702	3.731	1350.378	947.260
11.717	6.735	1356.434	969.904
12.731	15.047	1371.052	1031.696
13.746	21.951	1382.432	1082.925
14.761	23.757	1384.083	1095.268
15.775	23.306	1382.407	1091.067
16.790	22.387	1380.490	1083.804
17.804	21.782	1378.630	1078.523
18.819	21.685	1377.476	1076.931
19.834	21.522	1377.195	1075.614
20.848	21.502	1376.141	1074.573
21.863	21.517	1374.944	1073.633
22.877	21.403	1374.304	1072.343
23.892	21.193	1373.513	1070.341
24.907	21.210	1372.191	1069.320
25.921	21.216	1371.055	1068.375
26.936	21.281	1370.116	1067.946
27.950	21.333	1369.584	1067.760
28.965	21.417	1368.340	1067.206
29.980	21.619	1367.268	1067.504
30.994	21.663	1366.668	1067.211
32.009	21.734	1365.456	1066.605
33.023	21.647	1364.402	1065.155
34.038	21.537	1363.216	1063.469
35.053	21.561	1361.798	1062.412
36.067	21.376	1361.233	1060.755
37.082	21.413	1360.178	1060.067
38.096	21.468	1359.427	1059.718
39.111	21.592	1358.231	1059.445
40.126	21.399	1357.652	1057.727
41.140	21.088	1356.686	1055.003
42.155	20.840	1355.718	1052.658
43.169	20.809	1355.770	1052.420
44.184	20.870	1355.625	1052.581
45.199	20.985	1355.644	1053.195
46.213	21.179	1355.227	1053.949
47.228	21.393	1354.237	1054.380
48.242	21.404	1352.715	1053.165
49.257	21.316	1351.899	1051.907
50.271	21.358	1350.303	1050.827
51.286	21.324	1349.442	1049.857
52.301	21.338	1347.869	1048.626
53.315	21.153	1346.886	1046.661
54.330	20.946	1345.956	1044.605
55.344	20.989	1344.412	1043.568
56.359	20.881	1343.591	1042.198
57.374	20.914	1342.437	1041.405
58.388	20.836	1341.829	1040.375
59.403	20.786	1341.393	1039.647
60.417	20.768	1340.371	1038.655
61.432	20.616	1339.565	1037.033
62.447	20.618	1338.291	1035.965
63.461	20.593	1337.289	1034.951
64.476	20.528	1335.906	1033.400
65.490	20.542	1335.215	1032.858
66.505	20.478	1333.870	1031.351
67.520	20.526	1332.696	1030.633
68.534	20.540	1331.589	1029.771
69.549	20.415	1330.453	1028.062
70.563	20.419	1329.443	1027.215
71.578	20.200	1328.323	1024.963
72.593	20.276	1326.986	1024.290
73.607	20.216	1326.343	1023.347
74.622	20.296	1326.218	1023.629
75.636	20.453	1324.775	1023.355
76.651	20.327	1324.813	1022.548
77.666	20.357	1324.392	1022.313
78.680	20.538	1324.094	1023.055
79.695	20.577	1323.257	1022.549
80.709	20.722	1322.909	1023.038
81.724	20.810	1322.474	1023.128
82.739	20.965	1321.489	1023.187
83.753	21.202	1320.566	1023.772
84.768	21.350	1319.947	1024.071
85.782	21.605	1318.725	1024.525
86.797	21.615	1318.015	1023.939
87.812	21.482	1316.711	1022.060
88.826	21.410	1315.952	1020.959
89.841	21.407	1314.874	1020.014
90.855	21.497	1313.780	1019.598
91.870	21.621	1313.275	1019.838
92.884	21.580	1312.705	1019.071
93.899	21.640	1311.785	1018.614
94.914	21.811	1310.251	1018.322
95.928	21.678	1309.651	1016.995
96.943	21.685	1309.281	1016.661
97.957	21.632	1308.331	1015.522
98.972	21.650	1307.070	1014.559
99.987	21.613	1306.112	1013.515
101.001	21.594	1305.198	1012.601
102.016	21.628	1303.622	1011.486
103.030	21.512	1303.570	1010.688
104.045	21.572	1302.062	1009.773
105.060	21.327	1301.039	1007.478
106.074	20.947	1299.504	1004.018
107.089	20.722	1297.539	1001.113
108.103	20.516	1296.007	998.662
109.118	20.555	1295.068	998.071
110.133	20.574	1293.796	997.111
111.147	20.623	1292.704	996.463
112.162	20.633	1291.925	995.832
113.176	20.723	1290.710	995.320
114.191	20.726	1289.934	994.651
115.206	20.858	1288.158	993.946
116.220	20.741	1287.562	992.735
117.235	20.754	1286.194	991.664
118.249	20.551	1285.820	990.131
119.264	20.456	1284.125	988.201
120.279	20.406	1283.120	987.057
121.293	20.360	1281.885	985.753
122.308	20.343	1280.543	984.542
123.322	20.092	1279.736	982.409
124.337	20.124	1278.655	981.671
125.352	20.133	1277.433	980.699
126.366	20.052	1276.599	979.517
127.381	20.128	1275.008	978.640
128.395	20.047	1274.193	977.465
129.410	20.188	1273.185	977.402
130.424	20.306	1273.307	978.074
131.439	20.403	1272.500	977.912
132.454	20.450	1271.989	977.700
133.468	20.596	1271.014	977.685
134.483	20.667	1270.247	977.406
135.497	20.676	1269.233	976.590
136.512	20.756	1268.233	976.184
137.527	20.710	1267.137	974.994
138.541	20.730	1265.538	973.794
139.556	20.861	1264.432	973.589
140.570	21.063	1263.413	973.843
141.585	21.174	1262.616	973.764
142.600	21.241	1261.726	973.364
143.614	21.439	1260.828	973.687
144.629	21.537	1259.820	973.368
145.643	21.462	1259.165	972.360
146.658	21.316	1256.905	969.715
147.673	21.123	1255.748	967.668
148.687	20.906	1254.889	965.718
149.702	20.756	1253.506	963.739
150.716	20.642	1251.941	961.820
151.731	20.637	1250.487	960.589
152.746	20.729	1249.735	960.436
153.760	20.796	1249.108	960.236
154.775	20.934	1248.028	960.083
155.789	21.183	1246.708	960.354
156.804	21.125	1246.534	959.812
157.819	21.139	1245.290	958.847
158.833	21.354	1244.974	959.700
159.848	21.497	1243.950	959.609
160.862	21.408	1243.122	958.399
161.877	21.096	1241.497	955.353
162.892	20.792	1239.682	952.208
163.906	20.509	1239.621	950.534
164.921	20.581	1238.463	949.952
165.935	20.716	1238.331	950.504
166.950	20.868	1237.243	950.415
167.964	20.956	1236.590	950.309
168.979	20.895	1235.932	949.388
169.994	20.831	1235.044	948.271
171.008	20.819	1234.107	947.406
172.023	20.928	1234.240	948.013
173.037	21.158	1233.337	948.489
174.052	21.132	1232.163	947.362
175.067	20.660	1231.424	944.147
176.081	20.593	1229.362	942.117
177.096	20.540	1228.622	941.182
178.110	20.652	1227.691	940.994
179.125	20.833	1226.656	941.092
180.140	20.981	1225.754	941.115
181.154	21.168	1225.104	941.541
182.169	21.140	1224.272	940.671
183.183	21.296	1222.970	940.427
184.198	21.312	1222.133	939.785
185.213	21.334	1220.842	938.828
186.227	21.381	1219.742	938.148
187.242	21.434	1219.214	937.946
188.256	21.615	1218.183	938.039
189.271	21.629	1217.106	937.203
190.286	21.479	1215.999	935.462
191.300	20.804	1215.300	931.237
192.315	20.761	1214.212	930.088
193.329	20.722	1213.936	929.585
194.344	20.823	1213.163	929.450
195.359	20.803	1212.888	929.053
196.373	20.838	1212.417	928.796
197.388	21.054	1212.077	929.605
198.402	21.448	1211.851	931.449
199.417	21.607	1211.727	932.116
200.432	21.858	1210.862	932.704
201.446	21.777	1210.558	931.954
202.461	21.865	1210.132	932.015
203.475	21.956	1208.244	930.959
204.490	21.480	1207.200	927.552
205.504	21.324	1205.407	925.264
206.519	21.155	1203.985	923.196
207.534	21.006	1203.050	921.609
208.548	21.155	1202.120	921.606
209.563	21.059	1201.678	920.676
210.577	21.039	1200.480	919.573
211.592	21.348	1199.909	920.683
212.607	21.488	1199.119	920.732
213.621	21.495	1198.816	920.455
214.636	21.500	1197.458	919.357
215.650	21.435	1196.965	918.555
216.665	21.706	1195.748	918.960
217.680	21.834	1195.428	919.305
218.694	21.943	1194.648	919.194
219.709	21.754	1193.841	917.503
220.723	21.729	1193.027	916.664
221.738	21.676	1192.672	916.034
222.753	21.596	1191.350	914.518
223.767	21.611	1190.856	914.137
224.782	21.890	1190.390	915.156
225.796	21.816	1190.460	914.744
226.811	21.794	1189.346	913.691
227.826	21.696	1187.962	912.034
228.840	21.575	1187.128	910.687
229.855	21.440	1186.361	909.313
230.869	21.507	1186.060	909.354
231.884	21.362	1185.274	907.915
232.899	21.181	1183.776	905.749
233.913	21.156	1183.344	905.208
234.928	21.197	1182.187	904.456
235.942	20.991	1181.714	902.946
236.957	20.962	1180.493	901.786
237.972	20.927	1180.256	901.343
238.986	21.027	1179.753	901.396
240.001	21.064	1178.925	900.876
241.015	21.141	1177.904	900.413
242.030	21.392	1177.098	901.011
243.045	21.427	1176.775	900.862
244.059	21.491	1176.162	900.646
245.074	21.593	1175.366	900.481
246.088	21.716	1174.863	900.644
247.103	21.697	1174.265	900.011
248.117	21.853	1173.912	900.463
249.132	22.134	1173.311	901.361
250.147	22.395	1173.279	902.595
251.161	22.602	1172.640	903.085
252.176	22.676	1171.854	902.779
253.190	22.652	1171.700	902.455
254.205	22.652	1171.226	902.010
255.220	22.852	1170.178	902.146
256.234	22.828	1169.637	901.527
257.249	22.791	1168.603	900.465
258.263	22.675	1167.938	899.281
259.278	22.772	1167.008	898.978
260.293	22.587	1167.279	898.165
261.307	22.758	1166.589	898.423
262.322	22.803	1165.903	898.046
263.336	22.802	1165.235	897.446
264.351	22.918	1164.361	897.284
265.366	22.881	1164.160	896.859
266.380	22.861	1163.271	895.997
267.395	22.648	1162.403	894.167
268.409	22.454	1161.919	892.731
269.424	22.452	1161.050	891.977
270.439	22.527	1160.271	891.677
271.453	22.396	1159.332	890.218
272.468	22.274	1157.674	888.249
273.482	22.147	1157.348	887.276
274.497	22.131	1157.074	886.906
275.512	22.171	1156.485	886.580
276.526	22.304	1155.077	886.091
277.541	22.336	1154.380	885.639
278.555	22.515	1153.875	886.076
279.570	22.640	1153.746	886.524
280.585	22.851	1153.379	887.224
281.599	22.776	1152.443	886.052
282.614	22.412	1151.345	883.302
283.628	22.387	1149.739	881.867
284.643	22.264	1149.226	880.780
285.657	22.302	1148.350	880.219
286.672	22.265	1147.461	879.275
287.687	22.480	1146.526	879.556
288.701	22.471	1145.994	879.023
289.716	22.425	1145.167	878.084
290.730	22.378	1144.484	877.244
291.745	22.421	1143.511	876.637
292.760	22.352	1143.239	876.010
293.774	22.636	1142.803	877.009
294.789	22.713	1142.670	877.211
295.803	22.620	1141.817	876.019
296.818	22.510	1140.695	874.531
297.833	22.426	1139.882	873.414
298.847	22.569	1138.919	873.312
299.862	22.527	1138.005	872.323
300.876	22.379	1137.935	871.458
301.891	22.603	1136.763	871.592
302.906	22.895	1136.496	872.752
303.920	23.054	1136.167	873.210
304.935	23.131	1136.152	873.500
305.949	23.358	1134.932	873.607
306.964	23.233	1134.486	872.568
307.979	22.999	1133.567	870.633
308.993	22.862	1132.830	869.314
310.008	23.002	1131.970	869.264
311.022	23.102	1131.535	869.346
312.037	23.020	1130.575	868.131
313.052	22.887	1129.105	866.273
314.066	22.554	1128.262	863.917
315.081	22.295	1126.943	861.562
316.095	22.249	1126.369	860.823
317.110	22.175	1125.811	859.958
318.125	22.250	1124.841	859.505
319.139	22.278	1124.451	859.267
320.154	22.315	1123.560	858.693
321.168	22.194	1123.257	857.796
322.183	22.328	1122.839	858.053
323.197	22.429	1121.934	857.776
324.212	22.391	1121.937	857.518
325.227	22.488	1121.202	857.355
326.241	22.582	1120.382	857.107
327.256	22.522	1119.451	856.029
328.270	22.412	1118.533	854.718
329.285	22.357	1117.757	853.781
330.300	22.471	1117.229	853.857
331.314	22.338	1115.889	852.112
332.329	22.503	1114.902	852.082
333.343	22.587	1114.166	851.850
334.358	22.669	1113.775	851.872
335.373	22.786	1113.419	852.085
336.387	22.732	1113.027	851.453
337.402	22.742	1112.349	850.904
338.416	23.015	1111.563	851.545
339.431	22.962	1111.484	851.153
340.446	23.287	1110.450	851.851
341.460	23.461	1109.876	852.170
342.475	23.580	1109.395	852.299
343.489	23.503	1108.578	851.226
344.504	23.658	1107.470	851.041
345.519	23.673	1106.897	850.596
346.533	23.618	1106.484	849.940
347.548	23.666	1105.924	849.667
348.562	23.641	1104.641	848.486
349.577	23.357	1103.337	846.052
350.592	23.047	1101.979	843.458
351.606	22.748	1101.510	841.600
352.621	22.691	1100.528	840.504
353.635	22.790	1099.376	840.019
354.650	22.843	1098.607	839.607
355.665	22.900	1098.252	839.534
356.679	23.002	1097.851	839.641
357.694	23.016	1097.564	839.413
358.708	23.074	1097.093	839.254
359.723	23.096	1096.765	839.033
360.738	23.069	1095.826	838.112
361.752	23.122	1095.394	837.959
362.767	23.120	1095.018	837.588
363.781	23.209	1094.075	837.210
364.796	23.390	1093.874	837.837
365.810	23.524	1093.711	838.275
366.825	23.811	1092.900	838.935
367.840	23.974	1092.663	839.446
368.854	24.112	1091.987	839.503
369.869	23.981	1091.281	838.269
370.883	23.910	1089.972	836.856
371.898	23.670	1089.197	835.057
372.913	23.722	1088.672	834.825
373.927	23.707	1088.477	834.533
374.942	23.980	1087.649	835.104
375.956	23.780	1087.464	833.949
376.971	23.653	1086.564	832.589
377.986	23.724	1086.437	832.750
379.000	23.931	1085.819	833.175
380.015	24.048	1085.499	833.405
381.029	24.113	1084.719	833.033
382.044	24.100	1084.112	832.436
383.059	23.985	1083.511	831.362
384.073	23.976	1082.587	830.536
385.088	23.996	1081.730	829.902
386.102	23.988	1080.678	828.980
387.117	23.751	1079.428	826.849
388.132	23.455	1078.141	824.412
389.146	23.463	1076.999	823.503
390.161	23.512	1076.372	823.176
391.175	23.418	1076.225	822.558
392.190	23.594	1075.855	823.017
393.205	23.953	1075.376	824.239
394.219	23.805	1074.399	822.735
395.234	23.723	1073.243	821.399
396.248	23.513	1071.951	819.367
397.263	23.561	1070.894	818.708
398.278	23.424	1070.215	817.482
399.292	23.440	1069.280	816.772
400.307	23.345	1068.860	815.940
401.321	23.312	1068.303	815.291
402.336	23.188	1067.466	814.009
403.350	23.219	1066.715	813.509
404.365	23.314	1066.514	813.720
405.380	23.611	1065.715	814.399
406.394	23.549	1065.333	813.753
407.409	23.835	1064.652	814.470
408.423	24.048	1064.173	815.007
409.438	24.108	1063.900	815.002
410.453	24.121	1062.973	814.277
411.467	24.137	1062.220	813.701
412.482	24.372	1061.792	814.377
413.496	24.398	1061.236	813.993
414.511	24.449	1060.672	813.724
415.526	24.565	1060.413	813.983
416.540	24.585	1060.421	814.008
417.555	24.647	1059.348	813.394
418.569	24.453	1058.830	812.038
419.584	24.311	1058.241	810.871
420.599	24.384	1057.447	810.525
421.613	156.596	1404.592	1798.255
422.628	143.871	1455.158	1798.340
