DTS Sentinel unit serial number:	SN413079Multiplexer serial number:	ORYXHardware model number:	OX4-SRSoftware version number:	ORYX F/W v4.00 Oryx Data Collector v3.7.2.0data status	okinstallation	princeton_trtdifferential loss correction	single-endedforward channel	channel 2reverse channel	N/Adate	2019/09/10time	20:09:10forward acquisition time	60.00reverse acquisition time	0.00gamma	496.2192k internal	0.2329k external	0.2329temperature offset calibration	0.9942default loss term (dB/km)	0.3790temperature slope calibration	1.0000multiplexer offset coefficient	1.0000multiplexer slope coefficient	1.0000fibre end	0.00T internal ref (°C)	32.44T ext. ref 1 (°C)	-0.32T ext. ref 2 (°C)	25.41length (m)	temperature (°C)	Stokes	anti-Stokes-747.200	294.945	-0.091	0.168
-746.185	191.358	0.158	0.239
-745.171	-104.441	-0.043	0.010
-744.156	800.000	-0.106	0.420
-743.142	-62.286	0.384	0.161
-742.127	800.000	0.065	0.244
-741.112	-200.000	-0.023	0.269
-740.098	13.371	-0.196	-0.153
-739.083	-96.244	-0.309	-0.082
-738.069	-60.164	-0.194	0.083
-737.054	-125.605	-0.316	0.048
-736.039	-200.000	-0.025	0.221
-735.025	158.307	0.100	-0.139
-734.010	-130.490	-0.253	0.034
-732.996	48.466	-0.253	-0.238
-731.981	74.214	0.139	0.147
-730.966	121.246	-0.242	-0.303
-729.952	325.082	-0.082	0.157
-728.937	-143.826	-0.306	-0.029
-727.923	800.000	-0.054	-0.158
-726.908	-64.467	-0.135	-0.055
-725.894	-160.885	0.087	-0.005
-724.879	178.130	0.099	-0.146
-723.864	253.414	0.164	-0.282
-722.850	-138.574	0.256	-0.028
-721.835	-123.438	-0.233	0.037
-720.821	-60.089	-0.507	0.218
-719.806	-75.195	0.158	0.057
-718.791	255.318	0.070	0.122
-717.777	-200.000	-0.009	-0.320
-716.762	-180.769	-0.365	0.007
-715.748	-164.106	0.089	0.004
-714.733	-200.000	-0.005	-0.044
-713.718	-88.515	0.079	0.024
-712.704	-70.998	-0.104	-0.039
-711.689	-45.610	-0.367	-0.183
-710.675	-16.384	-0.078	-0.049
-709.660	474.999	0.124	0.282
-708.645	-200.000	-0.030	0.157
-707.631	-83.211	-0.101	-0.033
-706.616	63.368	-0.187	-0.188
-705.602	-86.276	-0.382	0.118
-704.587	218.115	0.042	0.067
-703.572	-135.218	-0.113	-0.014
-702.558	176.898	-0.242	-0.353
-701.543	-200.000	-0.013	-0.063
-700.529	154.799	-0.139	0.192
-699.514	574.561	0.112	0.275
-698.499	185.014	-0.243	0.363
-697.485	800.000	-0.088	0.327
-696.470	499.262	-0.134	-0.311
-695.456	73.804	0.126	-0.133
-694.441	800.000	0.038	-0.169
-693.426	391.109	0.194	0.405
-692.412	43.563	-0.142	0.130
-691.397	-43.770	0.115	0.058
-690.383	-4.521	-0.123	0.086
-689.368	-144.588	0.193	0.018
-688.354	-200.000	0.051	-0.317
-687.339	-108.405	-0.018	0.004
-686.324	212.622	0.062	0.098
-685.310	-25.307	-0.174	0.104
-684.295	48.572	-0.399	-0.376
-683.281	33.908	0.082	0.072
-682.266	-10.387	0.016	-0.011
-681.251	-200.000	-0.188	-0.000
-680.237	800.000	-0.118	0.369
-679.222	-200.000	0.006	0.285
-678.208	-27.139	0.067	-0.039
-677.193	-55.757	-0.191	0.086
-676.178	-86.036	-0.196	-0.061
-675.164	-7.722	-0.134	-0.091
-674.149	-200.000	0.016	-0.337
-673.135	108.323	0.090	0.108
-672.120	49.625	-0.206	-0.195
-671.105	188.630	0.121	0.182
-670.091	-60.114	0.107	0.046
-669.076	29.460	-0.101	-0.086
-668.062	-200.000	-0.054	0.354
-667.047	800.000	-0.022	-0.081
-666.032	-200.000	0.050	-0.277
-665.018	30.664	-0.112	-0.097
-664.003	18.959	-0.264	-0.212
-662.989	-80.431	-0.257	0.086
-661.974	-92.108	-0.164	0.046
-660.959	-196.804	0.248	-0.002
-659.945	-200.000	0.054	0.252
-658.930	-200.000	-0.016	0.261
-657.916	67.343	0.136	0.139
-656.901	24.350	-0.070	-0.058
-655.886	357.441	-0.013	0.025
-654.872	-5.067	-0.355	-0.245
-653.857	-90.949	-0.122	0.035
-652.843	2.864	-0.101	0.074
-651.828	-200.000	-0.024	0.313
-650.814	114.373	-0.134	0.163
-649.799	-200.000	0.029	0.379
-648.784	-131.316	0.122	-0.016
-647.770	626.647	-0.099	-0.250
-646.755	-63.811	-0.243	-0.100
-645.741	-10.011	-0.195	-0.130
-644.726	-112.285	0.202	0.041
-643.711	800.000	-0.078	0.309
-642.697	-200.000	-0.057	-0.259
-641.682	54.072	0.294	0.284
-640.668	217.464	-0.052	0.084
-639.653	28.363	-0.344	-0.291
-638.638	-200.000	-0.040	-0.296
-637.624	-73.801	-0.077	-0.028
-636.609	175.506	0.250	-0.363
-635.595	-164.050	-0.212	-0.010
-634.580	396.585	-0.060	-0.126
-633.565	449.783	-0.139	-0.308
-632.551	800.000	-0.041	-0.119
-631.536	-61.180	0.091	0.038
-630.522	-200.000	0.030	-0.214
-629.507	-200.000	-0.043	0.308
-628.492	360.291	-0.177	-0.354
-627.478	-67.004	-0.158	-0.062
-626.463	-153.572	0.015	0.001
-625.449	-176.037	0.204	-0.005
-624.434	345.197	-0.169	0.333
-623.419	800.000	-0.066	0.189
-622.405	281.726	-0.079	-0.142
-621.390	-134.894	-0.124	-0.015
-620.376	160.442	0.192	-0.269
-619.361	85.779	0.121	-0.133
-618.346	800.000	-0.088	0.315
-617.332	-44.227	-0.410	-0.206
-616.317	800.000	0.047	-0.198
-615.303	390.335	0.105	0.219
-614.288	209.324	0.157	0.247
-613.273	574.736	0.045	0.109
-612.259	-61.060	0.074	-0.031
-611.244	-23.903	-0.190	-0.114
-610.230	-137.380	0.231	-0.026
-609.215	734.334	-0.084	0.226
-608.201	-106.256	0.139	0.031
-607.186	800.000	-0.052	0.147
-606.171	800.000	-0.059	0.177
-605.157	-144.772	-0.048	0.004
-604.142	-64.753	-0.263	0.107
-603.128	39.943	-0.070	-0.063
-602.113	725.962	-0.032	0.085
-601.098	-81.131	-0.297	-0.098
-600.084	-11.543	0.159	-0.104
-599.069	-48.612	0.185	0.089
-598.055	17.626	-0.048	-0.038
-597.040	-173.554	-0.264	0.008
-596.025	42.025	0.048	0.043
-595.011	-200.000	-0.022	-0.189
-593.996	-82.418	-0.183	-0.059
-592.982	-162.720	0.325	0.016
-591.967	-200.000	-0.009	-0.083
-590.952	-200.000	0.013	-0.331
-589.938	112.836	-0.134	0.162
-588.923	143.557	0.081	0.107
-587.909	-44.165	0.117	0.059
-586.894	-158.744	-0.030	-0.002
-585.879	-144.261	-0.248	0.023
-584.865	800.000	0.102	-0.321
-583.850	-19.998	0.030	-0.018
-582.836	800.000	-0.080	0.232
-581.821	112.830	0.100	-0.121
-580.806	82.535	-0.332	0.360
-579.792	8.084	0.072	0.054
-578.777	257.710	-0.159	-0.273
-577.763	11.398	-0.165	-0.127
-576.748	-200.000	0.012	0.223
-575.733	296.653	-0.016	0.029
-574.719	-30.737	0.059	0.033
-573.704	577.049	-0.192	0.470
-572.690	101.916	-0.041	-0.048
-571.675	800.000	-0.076	-0.210
-570.661	-23.866	0.116	-0.069
-569.646	800.000	-0.037	0.134
-568.631	25.741	0.158	-0.132
-567.617	-6.310	-0.265	0.181
-566.602	163.094	0.114	0.161
-565.588	117.124	-0.154	-0.190
-564.573	-124.029	-0.183	0.029
-563.558	-200.000	-0.113	-0.657
-562.544	94.918	0.262	-0.298
-561.529	-110.323	-0.336	0.070
-560.515	-91.283	-0.223	0.064
-559.500	606.402	0.020	-0.049
-558.485	-200.000	-0.007	0.071
-557.471	-16.757	-0.355	-0.225
-556.456	-89.682	0.248	-0.073
-555.442	678.687	0.050	0.129
-554.427	14.057	-0.274	0.214
-553.412	-47.329	-0.510	0.248
-552.398	-200.000	-0.013	0.151
-551.383	289.716	-0.145	0.262
-550.369	800.000	0.014	0.056
-549.354	800.000	-0.066	0.251
-548.339	800.000	-0.085	-0.336
-547.325	-200.000	0.056	0.249
-546.310	-165.438	0.165	0.007
-545.296	-200.000	-0.026	-0.305
-544.281	-141.302	0.145	0.015
-543.266	-137.990	0.240	0.027
-542.252	553.000	-0.054	0.129
-541.237	-60.860	-0.092	-0.039
-540.223	800.000	0.047	0.143
-539.208	-151.344	0.326	0.024
-538.193	-3.465	-0.413	-0.287
-537.179	-73.075	0.276	0.101
-536.164	420.206	0.138	-0.294
-535.150	-148.125	-0.373	-0.031
-534.135	800.000	0.036	-0.136
-533.121	-93.540	-0.195	0.054
-532.106	800.000	-0.079	0.314
-531.091	-120.052	0.231	0.040
-530.077	-93.712	0.202	0.056
-529.062	-16.447	0.140	-0.088
-528.048	800.000	0.014	-0.053
-527.033	42.704	-0.189	-0.172
-526.018	-165.330	-0.171	0.007
-525.004	-49.500	0.323	0.154
-523.989	800.000	0.039	-0.157
-522.975	-11.751	-0.313	0.205
-521.960	-23.444	0.054	-0.032
-520.945	800.000	0.032	0.124
-519.931	800.000	-0.015	0.066
-518.916	241.395	0.101	-0.168
-517.902	-33.242	-0.159	0.088
-516.887	552.149	-0.036	-0.086
-515.872	-6.527	-0.213	0.145
-514.858	107.306	-0.060	-0.071
-513.843	144.587	0.087	0.116
-512.829	-200.000	-0.026	0.251
-511.814	-121.894	-0.264	-0.043
-510.799	-50.244	0.149	-0.070
-509.785	800.000	0.090	0.256
-508.770	70.939	-0.146	-0.151
-507.756	11.894	-0.214	-0.164
-506.741	202.293	0.159	-0.245
-505.726	-200.000	0.032	-0.304
-504.712	-200.000	0.013	-0.505
-503.697	-200.000	0.052	-0.434
-502.683	800.000	-0.084	-0.298
-501.668	-73.377	0.437	-0.159
-500.653	-110.889	0.175	0.036
-499.639	-200.000	0.024	0.234
-498.624	123.192	-0.135	-0.169
-497.610	404.791	-0.106	0.223
-496.595	-200.000	0.033	-0.280
-495.581	-69.877	-0.138	0.053
-494.566	-159.316	0.141	-0.008
-493.551	188.835	0.073	-0.109
-492.537	-200.000	-0.002	-0.315
-491.522	-95.289	-0.208	-0.056
-490.508	-154.028	-0.155	-0.011
-489.493	264.362	-0.242	0.420
-488.478	105.793	0.075	0.088
-487.464	-63.226	0.154	0.063
-486.449	315.469	-0.085	-0.160
-485.435	53.388	-0.105	-0.100
-484.420	308.658	-0.215	0.401
-483.405	485.765	-0.055	0.124
-482.391	-200.000	-0.041	0.256
-481.376	23.607	0.198	-0.163
-480.362	-22.006	0.162	-0.098
-479.347	272.423	0.123	0.216
-478.332	39.066	-0.289	0.257
-477.318	-82.246	0.271	0.088
-476.303	-107.040	0.230	0.051
-475.289	-200.000	-0.001	0.050
-474.274	75.791	0.121	0.128
-473.259	59.077	-0.238	-0.233
-472.245	38.349	0.287	-0.255
-471.230	456.244	-0.009	0.019
-470.216	-200.000	-0.063	0.327
-469.201	-113.882	0.242	-0.047
-468.186	-60.457	-0.096	-0.040
-467.172	125.406	0.213	0.268
-466.157	15.603	0.364	-0.285
-465.143	-150.690	-0.202	0.015
-464.128	-154.449	-0.125	-0.008
-463.113	-200.000	0.035	0.163
-462.099	800.000	-0.127	-0.376
-461.084	-66.698	-0.216	-0.085
-460.070	2.724	0.169	0.122
-459.055	-60.824	-0.176	0.074
-458.040	-16.198	-0.214	0.135
-457.026	128.179	0.240	0.304
-456.011	-77.937	0.048	-0.017
-454.997	-140.239	0.413	0.043
-453.982	178.944	0.006	0.009
-452.968	238.747	0.218	0.362
-451.953	20.915	0.218	-0.176
-450.938	-191.399	0.228	-0.002
-449.924	140.276	-0.123	-0.162
-448.909	-80.135	0.213	0.071
-447.895	49.246	0.047	-0.044
-446.880	743.880	0.082	-0.219
-445.865	-122.423	0.162	0.026
-444.851	728.172	-0.014	-0.038
-443.836	-200.000	0.018	0.135
-442.822	-28.368	0.099	0.057
-441.807	37.164	0.117	0.103
-440.792	-200.000	-0.007	-0.259
-439.778	17.958	0.154	0.122
-438.763	-200.000	-0.016	0.083
-437.749	-200.000	0.034	-0.321
-436.734	103.759	-0.162	-0.190
-435.719	-166.386	0.074	0.003
-434.705	-88.951	-0.229	0.067
-433.690	-190.694	0.127	-0.001
-432.676	133.275	0.039	-0.051
-431.661	121.748	0.057	-0.070
-430.646	29.178	-0.158	-0.134
-429.632	-101.729	0.263	-0.063
-428.617	22.872	0.175	-0.143
-427.603	497.368	-0.182	0.417
-426.588	-200.000	-0.010	0.077
-425.573	-70.886	-0.122	-0.046
-424.559	-15.177	-0.412	-0.263
-423.544	196.073	0.214	-0.324
-422.530	51.624	0.223	-0.211
-421.515	-78.348	0.226	-0.077
-420.500	-130.643	-0.174	-0.023
-419.486	-66.870	0.120	0.047
-418.471	-115.106	0.420	0.079
-417.457	-200.000	0.011	0.130
-416.442	321.029	0.061	-0.115
-415.428	-95.442	-0.223	0.059
-414.413	-150.347	-0.260	0.020
-413.398	800.000	0.063	0.253
-412.384	232.031	-0.046	-0.075
-411.369	-41.529	-0.133	-0.068
-410.355	274.333	-0.165	-0.290
-409.340	72.972	-0.178	-0.185
-408.325	-200.000	0.027	0.167
-407.311	-186.827	-0.321	-0.004
-406.296	14.096	0.336	-0.260
-405.282	13.023	-0.358	0.275
-404.267	-89.786	-0.260	-0.076
-403.252	-15.031	0.156	-0.100
-402.238	-155.465	0.068	-0.004
-401.223	-30.029	0.351	0.199
-400.209	8.418	-0.197	0.147
-399.194	-55.728	0.063	-0.028
-398.179	-87.319	-0.135	-0.041
-397.165	323.279	-0.084	-0.159
-396.150	15.161	-0.034	0.026
-395.136	-124.776	0.192	0.030
-394.121	-200.000	-0.034	-0.235
-393.106	-200.000	0.049	0.231
-392.092	-46.357	-0.304	-0.149
-391.077	72.491	0.082	-0.085
-390.063	79.453	0.145	-0.155
-389.048	-200.000	0.028	-0.122
-388.033	464.850	-0.054	-0.119
-387.019	-19.679	0.234	0.144
-386.004	304.156	-0.049	-0.090
-384.990	-200.000	-0.006	0.231
-383.975	-35.424	0.097	0.052
-382.960	-113.616	0.096	0.019
-381.946	-86.732	0.184	0.056
-380.931	-56.638	0.189	0.083
-379.917	-200.000	0.066	0.309
-378.902	-47.898	-0.160	0.077
-377.888	-55.299	0.197	-0.088
-376.873	-200.000	-0.061	0.432
-375.858	795.257	-0.072	0.197
-374.844	8.323	-0.273	-0.204
-373.829	-200.000	0.125	-0.001
-372.815	403.388	0.196	0.410
-371.800	800.000	-0.069	-0.248
-370.785	-130.994	0.275	0.036
-369.771	-88.897	0.091	-0.027
-368.756	-53.925	0.253	0.115
-367.742	-105.558	0.275	-0.062
-366.727	-154.504	0.436	0.029
-365.712	-200.000	-0.021	-0.173
-364.698	800.000	-0.138	0.474
-363.683	-124.319	0.047	0.007
-362.669	800.000	0.061	0.251
-361.654	467.838	-0.128	0.286
-360.639	553.565	0.206	-0.493
-359.625	-25.500	-0.072	-0.042
-358.610	-116.587	-0.124	-0.023
-357.596	365.624	-0.123	0.245
-356.581	509.165	-0.071	0.164
-355.566	-88.719	-0.194	-0.057
-354.552	-115.290	-0.319	-0.060
-353.537	150.109	0.172	0.231
-352.523	-64.915	-0.078	-0.031
-351.508	-127.222	-0.279	-0.040
-350.493	134.283	-0.222	0.286
-349.479	-147.991	-0.220	0.018
-348.464	-200.000	0.068	-0.332
-347.450	-120.319	-0.245	0.041
-346.435	-120.928	0.218	0.036
-345.420	547.330	0.126	-0.298
-344.406	225.145	-0.107	-0.172
-343.391	-73.036	0.138	-0.050
-342.377	798.766	0.044	-0.120
-341.362	-0.492	0.199	-0.140
-340.348	-111.159	0.103	0.021
-339.333	-200.000	0.025	0.218
-338.318	-152.593	0.404	-0.029
-337.304	-13.721	0.120	-0.077
-336.289	136.225	0.026	-0.034
-335.275	83.488	-0.075	0.081
-334.260	103.850	0.304	0.354
-333.245	-14.565	0.166	0.106
-332.231	15.406	-0.309	0.240
-331.216	236.476	0.080	-0.132
-330.202	800.000	0.083	0.308
-329.187	-200.000	0.000	-0.415
-328.172	-21.745	-0.137	-0.083
-327.158	-200.000	0.037	0.198
-326.143	-75.949	0.054	-0.019
-325.129	-200.000	0.011	0.062
-324.114	315.057	-0.034	0.064
-323.099	-83.014	-0.271	0.087
-322.085	-53.536	-0.206	0.093
-321.070	800.000	0.053	0.197
-320.056	241.978	0.093	-0.153
-319.041	-69.973	-0.084	-0.032
-318.026	-200.000	-0.031	-0.217
-317.012	-200.000	-0.006	0.136
-315.997	-146.916	0.420	-0.036
-314.983	161.699	-0.187	-0.260
-313.968	-76.270	0.230	-0.080
-312.953	-85.281	0.306	0.095
-311.939	-125.698	0.057	-0.009
-310.924	-200.000	-0.018	0.122
-309.910	133.798	-0.023	0.030
-308.895	-97.235	0.109	-0.028
-307.880	-200.000	0.016	-0.208
-306.866	-200.000	-0.047	0.401
-305.851	-39.666	-0.286	-0.148
-304.837	277.914	0.151	-0.267
-303.822	247.109	0.086	-0.144
-302.807	56.811	0.082	0.079
-301.793	304.041	-0.092	-0.168
-300.778	-72.376	0.041	0.015
-299.764	-7.907	0.107	-0.071
-298.749	55.292	0.058	-0.056
-297.735	4.308	0.055	0.040
-296.720	10.709	-0.266	-0.201
-295.705	-200.000	0.005	0.386
-294.691	8.229	0.270	0.201
-293.676	-29.829	0.098	-0.055
-292.662	-149.557	0.280	-0.022
-291.647	242.601	0.075	0.125
-290.632	-85.071	-0.154	-0.048
-289.618	-200.000	-0.047	-0.249
-288.603	-200.000	-0.017	-0.150
-287.589	-200.000	-0.012	0.055
-286.574	388.255	0.128	-0.263
-285.559	-40.698	-0.257	0.132
-284.545	-99.887	-0.225	0.056
-283.530	-200.000	-0.026	-0.251
-282.516	-65.451	-0.306	0.122
-281.501	-63.483	0.061	0.025
-280.486	-54.394	-0.326	0.146
-279.472	-80.195	0.166	0.055
-278.457	339.286	0.021	0.040
-277.443	800.000	0.071	0.237
-276.428	-179.103	0.224	0.005
-275.413	309.758	-0.086	-0.160
-274.399	39.953	0.408	0.363
-273.384	49.480	0.161	-0.150
-272.370	-200.000	0.028	-0.144
-271.355	60.786	-0.067	0.065
-270.340	119.650	0.209	-0.255
-269.326	-117.057	-0.044	-0.008
-268.311	51.436	-0.120	-0.112
-267.297	6.853	0.078	0.057
-266.282	-145.727	0.241	-0.021
-265.267	-76.179	0.124	0.043
-264.253	18.181	0.109	0.086
-263.238	-33.729	0.105	-0.057
-262.224	-114.848	0.185	-0.035
-261.209	-186.724	0.298	0.004
-260.195	-200.000	-0.019	0.147
-259.180	-145.717	-0.204	-0.018
-258.165	-200.000	-0.008	0.306
-257.151	800.000	0.043	-0.139
-256.136	88.915	0.116	-0.128
-255.122	424.115	0.140	0.299
-254.107	-182.249	-0.229	0.004
-253.092	-35.677	-0.279	-0.149
-252.078	-96.583	0.126	-0.033
-251.063	-74.039	0.097	0.035
-250.049	481.164	-0.099	0.221
-249.034	-33.969	-0.160	0.087
-248.019	40.571	0.129	-0.115
-247.005	-97.152	0.141	-0.036
-245.990	-76.048	-0.439	-0.153
-244.976	-36.029	-0.129	0.069
-243.961	122.671	0.187	0.231
-242.946	70.589	-0.241	0.246
-241.932	-200.000	-0.051	-0.253
-240.917	89.798	0.162	-0.178
-239.903	131.545	0.184	-0.233
-238.888	52.567	-0.077	-0.073
-237.873	84.713	-0.071	0.077
-236.859	-67.594	0.233	0.090
-235.844	-50.783	-0.377	-0.175
-234.830	-117.690	-0.273	-0.049
-233.815	-200.000	-0.033	-0.146
-232.800	73.496	0.228	-0.236
-231.786	583.496	-0.077	0.187
-230.771	232.188	-0.126	-0.205
-229.757	188.580	0.115	0.169
-228.742	18.469	0.110	0.087
-227.727	120.580	-0.162	-0.199
-226.713	430.717	0.040	-0.085
-225.698	105.507	0.028	-0.032
-224.684	-200.000	0.006	0.217
-223.669	36.041	0.204	0.178
-222.655	36.477	0.039	0.034
-221.640	0.066	-0.121	0.085
-220.625	-60.851	-0.316	-0.132
-219.611	-100.610	0.213	-0.052
-218.596	171.469	-0.048	0.068
-217.582	-200.000	-0.002	-0.050
-216.567	-200.000	0.008	-0.038
-215.552	358.444	-0.130	0.255
-214.538	69.343	-0.120	-0.122
-213.523	-64.909	-0.183	0.073
-212.509	14.051	-0.175	-0.134
-211.494	110.045	0.097	0.115
-210.479	36.395	-0.179	0.156
-209.465	-16.407	-0.055	-0.034
-208.450	164.643	-0.351	0.488
-207.436	353.593	0.071	-0.139
-206.421	-200.000	0.032	-0.153
-205.406	-131.664	-0.494	0.064
-204.392	-34.772	0.159	0.086
-203.377	-124.587	0.170	-0.026
-202.363	800.000	0.083	0.350
-201.348	147.800	-0.180	-0.239
-200.333	-160.545	0.121	-0.006
-199.319	752.751	-0.072	0.191
-198.304	-113.442	-0.321	0.062
-197.290	-56.346	-0.125	-0.055
-196.275	-200.000	-0.038	-0.323
-195.260	17.770	0.229	-0.180
-194.246	142.898	0.335	-0.439
-193.231	-17.194	-0.355	0.221
-192.217	-77.890	-0.205	-0.070
-191.202	-197.959	0.139	-0.001
-190.187	513.014	-0.117	0.270
-189.173	800.000	0.077	0.273
-188.158	800.000	-0.091	0.305
-187.144	179.318	0.106	-0.153
-186.129	-23.386	0.066	-0.039
-185.114	465.774	-0.095	-0.210
-184.100	359.100	-0.076	-0.149
-183.085	-159.972	0.131	-0.007
-182.071	138.871	-0.079	-0.102
-181.056	140.518	0.061	0.079
-180.042	-166.383	0.097	0.004
-179.027	-44.135	0.300	0.148
-178.012	-200.000	-0.023	0.219
-176.998	-103.162	0.171	0.040
-175.983	80.620	-0.136	-0.144
-174.969	-200.000	-0.005	-0.118
-173.954	187.343	0.062	-0.090
-172.939	5.541	0.282	0.205
-171.925	179.429	-0.222	0.320
-170.910	-142.970	0.114	0.011
-169.896	-131.531	-0.091	-0.012
-168.881	443.492	0.089	-0.193
-167.866	-64.105	-0.060	-0.024
-166.852	-37.599	0.318	0.167
-165.837	800.000	-0.008	0.024
-164.823	-81.133	0.354	0.115
-163.808	-200.000	0.019	0.106
-162.793	-111.012	-0.189	-0.038
-161.779	-32.251	-0.039	0.021
-160.764	800.000	0.056	-0.239
-159.750	-36.899	0.174	0.092
-158.735	-65.616	-0.062	-0.024
-157.720	42.531	0.229	0.205
-156.706	800.000	0.095	0.264
-155.691	43.523	-0.179	-0.161
-154.677	-94.389	-0.223	0.060
-153.662	-164.544	-0.159	-0.007
-152.647	467.770	0.122	-0.270
-151.633	372.047	0.047	0.094
-150.618	-92.971	-0.146	-0.040
-149.604	-200.000	-0.044	-0.247
-148.589	306.609	-0.059	0.108
-147.574	246.598	-0.157	-0.261
-146.560	-26.738	-0.125	-0.072
-145.545	-123.162	-0.050	0.008
-144.531	800.000	0.027	-0.089
-143.516	-116.373	0.223	-0.041
-142.502	-40.618	0.244	-0.125
-141.487	-91.134	-0.199	-0.056
-140.472	800.000	0.036	-0.131
-139.458	182.189	0.140	0.204
-138.443	24.313	0.227	0.185
-137.429	-200.000	-0.058	0.340
-136.414	-120.984	0.094	-0.015
-135.399	95.514	-0.141	-0.158
-134.385	-182.505	-0.070	-0.001
-133.370	800.000	-0.087	0.369
-132.356	-33.612	-0.163	-0.089
-131.341	7.190	0.030	0.022
-130.326	-200.000	-0.018	0.147
-129.312	-139.068	-0.184	0.020
-128.297	800.000	-0.032	-0.101
-127.283	-5.113	-0.059	-0.040
-126.268	57.920	0.031	0.030
-125.253	800.000	-0.118	0.374
-124.239	116.241	-0.198	0.238
-123.224	-81.264	-0.236	-0.077
-122.210	-200.000	-0.013	0.286
-121.195	125.537	0.209	-0.259
-120.180	-100.895	0.231	-0.056
-119.166	-113.412	-0.235	-0.045
-118.151	-200.000	0.012	0.470
-117.137	216.937	0.094	0.148
-116.122	164.299	0.164	0.227
-115.107	-85.309	0.276	0.085
-114.093	-200.000	0.046	0.231
-113.078	800.000	0.073	0.272
-112.064	403.600	0.013	-0.026
-111.049	-107.579	-0.189	-0.041
-110.034	-92.506	-0.063	-0.017
-109.020	-94.235	-0.175	0.047
-108.005	-105.588	0.118	0.026
-106.991	334.682	-0.102	0.193
-105.976	-110.591	-0.283	0.058
-104.962	-120.920	-0.366	-0.061
-103.947	132.573	0.058	0.073
-102.932	382.772	0.109	-0.221
-101.918	-200.000	-0.062	-0.273
-100.903	75.580	0.079	-0.082
-99.889	14.354	0.294	-0.225
-98.874	-115.848	-0.086	-0.016
-97.859	42.721	0.179	0.161
-96.845	329.905	-0.067	0.126
-95.830	43.979	0.143	-0.129
-94.816	-145.522	0.266	-0.023
-93.801	18.686	-0.150	-0.118
-92.786	-56.816	-0.055	-0.024
-91.772	155.015	-0.044	0.059
-90.757	-89.529	0.424	-0.122
-89.743	-200.000	-0.010	0.195
-88.728	110.725	-0.085	0.101
-87.713	-81.689	0.154	-0.049
-86.699	-43.650	-0.395	0.195
-85.684	122.132	-0.150	-0.184
-84.670	9.853	0.333	-0.248
-83.655	251.936	0.018	-0.030
-82.640	742.728	0.047	-0.124
-81.626	22.589	-0.140	-0.113
-80.611	-128.055	0.076	-0.011
-79.597	162.907	0.106	-0.147
-78.582	-119.332	-0.293	-0.050
-77.567	530.298	0.033	-0.076
-76.553	3.225	0.151	0.108
-75.538	-200.000	0.013	-0.171
-74.524	800.000	0.083	-0.306
-73.509	529.327	-0.024	-0.054
-72.494	-200.000	-0.029	0.211
-71.480	51.571	0.274	-0.256
-70.465	-39.180	0.132	0.068
-69.451	-137.725	-0.156	-0.017
-68.436	195.299	0.155	-0.231
-67.422	800.000	0.142	0.513
-66.407	-200.000	-0.031	0.447
-65.392	800.000	0.061	0.221
-64.378	320.215	0.058	0.107
-63.363	-91.633	-0.136	-0.038
-62.349	254.284	0.173	0.289
-61.334	112.091	-0.846	-1.003
-60.319	149.988	0.483	0.642
-59.305	-200.000	-0.153	-0.993
-58.290	200.384	0.686	1.034
-57.276	800.000	0.425	1.497
-56.261	-200.000	99.093	598.149
-55.246	603.941	1413.362	3448.246
-54.232	189.007	2615.979	3840.286
-53.217	110.539	2283.346	2691.036
-52.203	41.855	1900.701	1689.579
-51.188	35.733	1689.691	1455.780
-50.173	33.066	1645.247	1397.740
-49.159	49.914	1694.133	1566.130
-48.144	51.623	1710.042	1593.597
-47.130	35.246	1669.094	1434.163
-46.115	32.482	1654.910	1401.376
-45.100	32.394	1649.260	1395.888
-44.086	32.348	1646.991	1393.567
-43.071	32.368	1644.369	1391.441
-42.057	32.259	1642.403	1388.916
-41.042	32.361	1639.870	1387.476
-40.027	32.337	1638.580	1386.150
-39.013	32.219	1636.360	1383.346
-37.998	32.269	1635.032	1382.540
-36.984	32.252	1633.684	1381.220
-35.969	32.376	1632.328	1380.928
-34.954	32.482	1629.737	1379.461
-33.940	32.421	1628.276	1377.722
-32.925	32.475	1626.294	1376.382
-31.911	32.420	1624.784	1374.650
-30.896	32.384	1623.068	1372.883
-29.881	32.404	1621.318	1371.494
-28.867	32.367	1619.744	1369.833
-27.852	32.377	1618.000	1368.379
-26.838	32.376	1616.885	1367.374
-25.823	32.465	1615.411	1366.723
-24.809	32.452	1614.087	1365.454
-23.794	32.456	1612.584	1364.158
-22.779	32.446	1611.024	1362.712
-21.765	32.421	1609.640	1361.305
-20.750	32.456	1607.831	1359.973
-19.736	32.453	1606.272	1358.577
-18.721	32.510	1604.942	1357.808
-17.706	32.527	1603.405	1356.575
-16.692	32.450	1602.015	1354.794
-15.677	32.428	1600.394	1353.209
-14.663	32.511	1599.321	1352.844
-13.648	32.524	1597.650	1351.476
-12.633	32.485	1596.221	1349.930
-11.619	32.533	1594.536	1348.796
-10.604	32.559	1592.738	1347.405
-9.590	32.515	1592.162	1346.552
-8.575	32.518	1590.865	1345.422
-7.560	32.565	1589.388	1344.458
-6.546	32.533	1588.291	1343.244
-5.531	32.491	1587.396	1342.135
-4.517	32.511	1586.569	1341.526
-3.502	32.519	1585.135	1340.317
-2.487	32.577	1583.306	1339.134
-1.473	32.130	1571.903	1326.277
-0.458	28.976	1552.000	1287.400
0.556	22.906	1551.191	1253.199
1.571	20.371	1575.067	1254.090
2.586	19.971	1588.556	1261.807
3.600	18.149	1536.483	1207.480
4.615	9.837	1427.072	1066.671
5.629	1.383	1360.764	963.555
6.644	-0.223	1352.253	947.319
7.659	-0.296	1350.656	945.655
8.673	-0.383	1349.753	944.388
9.688	-0.368	1347.562	942.866
10.702	-0.675	1345.125	939.152
11.717	2.723	1351.759	965.105
12.731	12.006	1369.106	1036.349
13.746	18.620	1379.399	1086.056
14.761	19.526	1380.081	1092.234
15.775	19.583	1379.765	1092.248
16.790	19.680	1379.273	1092.370
17.804	19.603	1379.293	1091.803
18.819	19.790	1378.967	1092.628
19.834	19.985	1377.780	1092.826
20.848	19.963	1376.835	1091.838
21.863	19.970	1375.903	1091.051
22.877	19.944	1375.208	1090.235
23.892	20.028	1374.214	1089.878
24.907	19.902	1373.797	1088.661
25.921	19.969	1372.321	1087.815
26.936	19.894	1371.459	1086.565
27.950	20.076	1370.199	1086.616
28.965	20.062	1369.098	1085.554
29.980	19.931	1368.203	1083.930
30.994	19.936	1366.966	1082.883
32.009	20.021	1365.466	1082.130
33.023	19.869	1364.866	1080.615
34.038	19.854	1363.536	1079.368
35.053	19.911	1362.269	1078.630
36.067	19.988	1361.545	1078.440
37.082	19.918	1360.489	1077.068
38.096	19.854	1359.667	1075.924
39.111	19.883	1359.082	1075.549
40.126	19.955	1357.869	1074.943
41.140	19.953	1357.505	1074.542
42.155	19.910	1357.359	1074.069
43.169	19.979	1356.929	1074.061
44.184	19.897	1356.915	1073.442
45.199	19.897	1356.633	1073.129
46.213	19.969	1355.609	1072.666
47.228	20.009	1354.594	1072.020
48.242	19.978	1353.459	1070.833
49.257	19.939	1352.201	1069.504
50.271	19.903	1351.144	1068.348
51.286	19.972	1349.186	1067.129
52.301	19.978	1348.238	1066.324
53.315	19.944	1347.557	1065.481
54.330	19.940	1346.631	1064.631
55.344	19.965	1345.344	1063.673
56.359	19.951	1343.938	1062.382
57.374	19.933	1343.471	1061.805
58.388	19.859	1343.238	1061.075
59.403	20.022	1342.302	1061.243
60.417	19.981	1341.516	1060.274
61.432	19.966	1340.807	1059.529
62.447	19.930	1340.367	1058.867
63.461	19.870	1338.787	1057.160
64.476	20.039	1337.283	1056.907
65.490	20.020	1336.303	1055.923
66.505	19.934	1335.086	1054.346
67.520	19.900	1333.741	1052.982
68.534	19.964	1332.921	1052.630
69.549	19.952	1332.135	1051.849
70.563	20.069	1330.653	1051.292
71.578	20.025	1329.990	1050.411
72.593	19.990	1329.278	1049.543
73.607	19.998	1328.210	1048.653
74.622	19.968	1327.323	1047.678
75.636	20.046	1326.639	1047.516
76.651	20.079	1325.932	1047.064
77.666	20.008	1325.833	1046.466
78.680	19.876	1325.250	1045.118
79.695	19.920	1324.255	1044.505
80.709	19.998	1322.965	1043.867
81.724	19.991	1322.438	1043.313
82.739	20.056	1320.699	1042.242
83.753	19.933	1320.355	1041.138
84.768	19.971	1319.077	1040.268
85.782	20.014	1318.138	1039.694
86.797	19.982	1317.207	1038.673
87.812	20.006	1316.222	1037.951
88.826	20.014	1314.790	1036.779
89.841	20.037	1313.843	1036.078
90.855	19.990	1312.830	1034.903
91.870	20.010	1311.906	1034.206
92.884	20.068	1311.162	1033.873
93.899	19.982	1310.371	1032.644
94.914	20.138	1309.263	1032.610
95.928	20.052	1308.570	1031.458
96.943	20.012	1307.993	1030.671
97.957	20.122	1307.114	1030.546
98.972	20.042	1306.170	1029.233
99.987	20.057	1305.140	1028.417
101.001	20.108	1303.800	1027.576
102.016	20.058	1303.390	1026.867
103.030	20.054	1302.274	1025.871
104.045	20.138	1301.169	1025.409
105.060	20.147	1300.152	1024.567
106.074	20.044	1299.487	1023.345
107.089	20.081	1297.822	1022.160
108.103	20.068	1296.946	1021.307
109.118	20.020	1296.440	1020.531
110.133	20.119	1294.243	1019.294
111.147	20.117	1293.202	1018.372
112.162	20.137	1292.049	1017.495
113.176	20.091	1291.153	1016.429
114.191	20.119	1290.063	1015.646
115.206	20.113	1288.930	1014.628
116.220	20.161	1287.985	1014.072
117.235	20.051	1287.149	1012.681
118.249	20.064	1285.907	1011.693
119.264	20.110	1284.911	1011.087
120.279	20.150	1284.079	1010.578
121.293	20.102	1283.375	1009.654
122.308	20.199	1282.473	1009.421
123.322	20.267	1281.365	1008.854
124.337	20.128	1280.633	1007.381
125.352	20.268	1279.188	1006.964
126.366	20.255	1278.555	1006.301
127.381	20.254	1277.201	1005.143
128.395	20.218	1276.550	1004.333
129.410	20.198	1275.947	1003.653
130.424	20.161	1274.978	1002.592
131.439	20.170	1274.148	1001.898
132.454	20.192	1273.152	1001.155
133.468	20.236	1272.385	1000.719
134.483	20.188	1272.054	1000.093
135.497	20.147	1271.022	998.956
136.512	19.983	1270.241	997.310
137.527	20.084	1268.799	996.669
138.541	20.181	1267.234	995.909
139.556	20.088	1265.596	993.999
140.570	20.089	1264.768	993.266
141.585	20.173	1263.624	992.760
142.600	20.134	1262.552	991.611
143.614	20.160	1261.655	990.968
144.629	20.167	1260.107	989.701
145.643	20.132	1259.063	988.595
146.658	20.048	1258.189	987.341
147.673	20.094	1257.518	986.991
148.687	20.023	1256.527	985.724
149.702	20.140	1254.888	985.014
150.716	20.109	1253.986	984.044
151.731	20.141	1253.143	983.478
152.746	20.142	1251.632	982.209
153.760	20.159	1250.960	981.688
154.775	20.117	1249.882	980.518
155.789	20.142	1249.139	979.989
156.804	20.166	1248.375	979.440
157.819	20.192	1247.248	978.617
158.833	20.161	1245.962	977.347
159.848	20.313	1245.730	977.935
160.862	20.245	1244.935	976.843
161.877	20.126	1243.838	975.227
162.892	20.243	1243.454	975.496
163.906	20.300	1242.359	974.871
164.921	20.320	1241.332	974.091
165.935	20.224	1240.946	973.161
166.950	20.344	1239.931	972.955
167.964	20.339	1239.628	972.601
168.979	20.259	1239.111	971.660
169.994	20.313	1238.229	971.186
171.008	20.279	1237.915	970.663
172.023	20.299	1237.323	970.223
173.037	20.415	1235.893	969.666
174.052	20.246	1235.439	968.278
175.067	20.359	1234.396	968.009
176.081	20.200	1234.047	966.762
177.096	20.195	1233.235	966.012
178.110	20.318	1231.742	965.440
179.125	20.331	1231.069	964.902
180.140	20.279	1229.928	963.631
181.154	20.183	1229.271	962.499
182.169	20.317	1227.473	961.752
183.183	20.217	1226.864	960.634
184.198	20.351	1225.611	960.307
185.213	20.298	1224.988	959.444
186.227	20.355	1224.039	958.930
187.242	20.358	1223.471	958.416
188.256	20.431	1222.075	957.639
189.271	20.396	1221.026	956.538
190.286	20.420	1220.657	956.300
191.300	20.418	1219.455	955.262
192.315	20.449	1219.170	955.121
193.329	20.357	1219.402	954.716
194.344	20.398	1218.655	954.272
195.359	20.304	1218.465	953.523
196.373	20.308	1217.721	952.877
197.388	20.269	1217.774	952.618
198.402	20.366	1216.778	952.289
199.417	20.346	1215.962	951.455
200.432	20.304	1215.731	950.962
201.446	20.323	1215.187	950.556
202.461	20.341	1214.317	949.889
203.475	20.439	1213.480	949.686
204.490	20.432	1212.778	949.015
205.504	20.392	1211.484	947.701
206.519	20.377	1210.659	946.889
207.534	20.409	1209.428	946.018
208.548	20.350	1208.997	945.276
209.563	20.340	1208.017	944.372
210.577	20.483	1206.743	944.068
211.592	20.503	1206.291	943.740
212.607	20.475	1205.618	942.976
213.621	20.420	1205.174	942.248
214.636	20.494	1203.969	941.625
215.650	20.510	1202.941	940.826
216.665	20.513	1201.791	939.855
217.680	20.446	1201.028	938.812
218.694	20.553	1200.463	938.868
219.709	20.540	1199.707	938.121
220.723	20.603	1198.851	937.711
221.738	20.428	1198.370	936.308
222.753	20.329	1197.999	935.403
223.767	20.554	1197.156	935.873
224.782	20.556	1196.827	935.546
225.796	20.623	1196.196	935.330
226.811	20.602	1195.513	934.596
227.826	20.579	1194.948	933.952
228.840	20.511	1194.509	933.162
229.855	20.493	1193.631	932.294
230.869	20.504	1192.865	931.672
231.884	20.646	1191.928	931.619
232.899	20.607	1191.300	930.836
233.913	20.566	1191.318	930.550
234.928	20.652	1190.352	930.173
235.942	20.683	1189.619	929.681
236.957	20.558	1189.236	928.631
237.972	20.607	1188.347	928.119
238.986	20.662	1187.585	927.733
240.001	20.787	1186.862	927.753
241.015	20.824	1185.814	927.049
242.030	20.720	1185.249	925.971
243.045	20.709	1184.674	925.380
244.059	20.794	1183.706	924.998
245.074	20.818	1183.225	924.663
246.088	20.757	1182.498	923.691
247.103	20.821	1181.432	923.115
248.117	20.717	1180.948	922.104
249.132	20.712	1180.420	921.584
250.147	20.759	1179.616	921.123
251.161	20.775	1179.058	920.694
252.176	20.796	1178.288	920.123
253.190	20.719	1177.550	919.054
254.205	20.814	1176.894	918.965
255.220	20.848	1175.593	918.048
256.234	20.820	1175.568	917.799
257.249	20.849	1175.135	917.530
258.263	20.821	1174.258	916.619
259.278	20.801	1173.821	916.093
260.293	20.964	1172.901	916.150
261.307	20.934	1172.708	915.761
262.322	20.743	1172.131	914.223
263.336	20.913	1171.210	914.316
264.351	20.791	1171.238	913.618
265.366	20.823	1170.754	913.326
266.380	20.831	1169.554	912.352
267.395	20.890	1168.880	912.056
268.409	20.657	1168.584	910.524
269.424	20.951	1167.887	911.435
270.439	20.887	1167.142	910.443
271.453	20.865	1166.881	910.040
272.468	20.929	1165.746	909.412
273.482	20.815	1165.321	908.402
274.497	20.923	1164.524	908.267
275.512	20.967	1164.282	908.224
276.526	21.020	1163.296	907.651
277.541	20.963	1162.357	906.541
278.555	20.936	1162.408	906.361
279.570	20.961	1161.546	905.738
280.585	20.968	1160.614	904.966
281.599	20.993	1159.851	904.422
282.614	20.999	1158.604	903.400
283.628	21.003	1158.007	902.878
284.643	21.084	1156.784	902.264
285.657	21.012	1156.364	901.484
286.672	20.997	1155.328	900.519
287.687	21.174	1154.133	900.417
288.701	21.098	1153.912	899.778
289.716	21.148	1153.347	899.512
290.730	21.068	1153.012	898.757
291.745	21.179	1151.618	898.166
292.760	21.120	1151.054	897.343
293.774	21.170	1150.858	897.366
294.789	21.157	1150.432	896.887
295.803	21.170	1149.649	896.268
296.818	21.256	1148.715	895.899
297.833	21.170	1148.200	894.979
298.847	21.183	1147.946	894.769
299.862	21.136	1147.164	893.839
300.876	21.224	1146.265	893.510
301.891	21.135	1146.363	893.050
302.906	21.329	1145.126	893.000
303.920	21.244	1144.476	891.977
304.935	21.320	1143.942	891.870
305.949	21.247	1142.915	890.622
306.964	21.326	1142.724	890.794
307.979	21.276	1142.078	889.956
308.993	21.305	1141.316	889.436
310.008	21.251	1140.812	888.684
311.022	21.342	1139.935	888.389
312.037	21.374	1138.898	887.662
313.052	21.374	1138.216	887.053
314.066	21.296	1137.525	886.039
315.081	21.334	1136.545	885.390
316.095	21.456	1135.705	885.277
317.110	21.276	1135.538	884.160
318.125	21.388	1134.780	884.053
319.139	21.297	1134.229	883.085
320.154	21.380	1133.188	882.616
321.168	21.495	1132.597	882.657
322.183	21.316	1132.641	881.715
323.197	21.325	1131.841	881.057
324.212	21.345	1131.220	880.594
325.227	21.410	1130.951	880.636
326.241	21.493	1130.196	880.389
327.256	21.438	1129.058	879.149
328.270	21.414	1128.475	878.496
329.285	21.444	1127.807	878.049
330.300	21.503	1127.110	877.723
331.314	21.475	1126.174	876.777
332.329	21.411	1125.302	875.699
333.343	21.492	1124.986	875.785
334.358	21.615	1123.369	875.061
335.373	21.507	1123.332	874.415
336.387	21.639	1122.409	874.277
337.402	21.613	1121.482	873.350
338.416	21.644	1120.996	873.047
339.431	21.570	1120.651	872.334
340.446	21.692	1119.778	872.185
341.460	21.686	1119.015	871.482
342.475	21.784	1117.904	871.026
343.489	21.644	1117.412	869.871
344.504	21.667	1116.844	869.465
345.519	21.628	1116.190	868.685
346.533	21.777	1114.830	868.291
347.548	21.638	1114.696	867.418
348.562	21.716	1113.462	866.767
349.577	21.665	1113.145	866.194
350.592	21.648	1112.458	865.500
351.606	21.592	1111.377	864.304
352.621	21.817	1110.786	864.880
353.635	21.774	1110.558	864.412
354.650	21.810	1109.506	863.692
355.665	21.859	1109.182	863.605
356.679	21.871	1108.789	863.280
357.694	21.786	1107.834	862.043
358.708	21.792	1107.165	861.478
359.723	21.795	1106.673	861.033
360.738	21.749	1106.240	860.392
361.752	21.809	1106.012	860.437
362.767	21.812	1105.309	859.826
363.781	21.922	1104.596	859.734
364.796	21.856	1104.222	859.042
365.810	21.968	1102.944	858.520
366.825	21.852	1102.852	857.805
367.840	21.885	1102.462	857.588
368.854	21.772	1102.207	856.765
369.869	21.878	1100.991	856.259
370.883	21.917	1100.097	855.680
371.898	21.892	1099.276	854.841
372.913	21.970	1098.605	854.626
373.927	21.996	1098.323	854.458
374.942	21.964	1097.852	853.857
375.956	21.976	1097.642	853.678
376.971	21.997	1097.068	853.256
377.986	21.948	1096.380	852.412
379.000	22.087	1095.535	852.350
380.015	22.056	1095.133	851.813
381.029	22.044	1094.489	851.177
382.044	22.116	1093.353	850.568
383.059	22.167	1092.623	850.173
384.073	22.026	1092.698	849.476
385.088	22.202	1091.625	849.417
386.102	22.185	1090.755	848.581
387.117	22.093	1089.860	847.367
388.132	21.944	1089.405	846.220
389.146	22.146	1088.233	846.207
390.161	22.151	1087.762	845.788
391.175	22.119	1087.384	845.266
392.190	22.173	1086.325	844.626
393.205	22.145	1085.431	843.721
394.219	22.203	1084.501	843.202
395.234	22.260	1084.129	843.113
396.248	22.224	1083.364	842.269
397.263	22.229	1082.661	841.672
398.278	22.308	1081.701	841.232
399.292	22.265	1081.059	840.453
400.307	22.293	1080.867	840.362
401.321	22.425	1079.527	839.876
402.336	22.268	1079.152	838.759
403.350	22.398	1078.396	838.719
404.365	22.334	1077.855	837.916
405.380	22.316	1077.495	837.480
406.394	22.396	1076.515	837.022
407.409	22.403	1075.764	836.397
408.423	22.437	1075.274	836.106
409.438	22.419	1074.617	835.434
410.453	22.401	1073.577	834.467
411.467	22.433	1073.196	834.247
412.482	22.547	1072.346	834.054
413.496	22.450	1071.635	832.970
414.511	22.294	1071.464	832.025
415.526	22.442	1070.561	831.946
416.540	22.456	1070.097	831.579
417.555	22.487	1069.448	831.148
418.569	22.511	1069.183	830.981
419.584	22.468	1069.116	830.656
420.599	22.555	1068.515	830.522
421.613	148.579	1397.577	1793.451
422.628	136.875	1445.525	1793.550
