DTS Sentinel unit serial number:	SN413079Multiplexer serial number:	ORYXHardware model number:	OX4-SRSoftware version number:	ORYX F/W v4.00 Oryx Data Collector v3.7.2.0data status	okinstallation	princeton_trtdifferential loss correction	single-endedforward channel	channel 2reverse channel	N/Adate	2019/09/17time	02:55:35forward acquisition time	60.00reverse acquisition time	0.00gamma	496.2192k internal	0.2327k external	0.2327temperature offset calibration	0.9970default loss term (dB/km)	0.3790temperature slope calibration	1.0000multiplexer offset coefficient	1.0000multiplexer slope coefficient	1.0000fibre end	0.00T internal ref (°C)	29.94T ext. ref 1 (°C)	0.13T ext. ref 2 (°C)	24.91length (m)	temperature (°C)	Stokes	anti-Stokes-747.200	-77.087	0.007	-0.002
-746.185	-55.756	-0.144	0.065
-745.171	800.000	0.121	0.384
-744.156	-141.448	-0.206	-0.021
-743.142	-200.000	0.002	0.043
-742.127	800.000	0.106	0.341
-741.112	55.682	-0.181	-0.177
-740.098	-35.764	0.094	0.051
-739.083	105.966	0.053	0.063
-738.069	399.330	-0.068	-0.144
-737.054	-118.552	-0.111	-0.020
-736.039	-153.218	-0.207	0.015
-735.025	-16.730	-0.241	0.154
-734.010	266.638	-0.118	0.208
-732.996	-200.000	0.014	0.223
-731.981	-147.717	-0.231	-0.020
-730.966	-200.000	-0.022	0.256
-729.952	71.211	0.070	-0.073
-728.937	-113.030	-0.361	-0.072
-727.923	178.424	-0.001	0.001
-726.908	44.959	0.179	0.166
-725.894	190.770	0.101	0.152
-724.879	-186.102	-0.618	0.009
-723.864	569.894	-0.074	0.181
-722.850	13.524	0.170	0.133
-721.835	53.483	-0.145	0.140
-720.821	-200.000	-0.028	-0.289
-719.806	379.317	-0.126	-0.260
-718.791	453.360	0.081	0.180
-717.777	-200.000	-0.000	0.041
-716.762	-24.232	-0.326	-0.196
-715.748	186.222	-0.013	0.019
-714.733	71.207	0.096	-0.100
-713.718	-25.677	0.055	0.033
-712.704	-182.788	-0.330	0.006
-711.689	48.351	0.149	-0.140
-710.675	267.361	-0.006	0.010
-709.660	-33.801	-0.356	0.197
-708.645	-200.000	-0.002	-0.105
-707.631	744.098	0.101	0.273
-706.616	34.018	-0.192	-0.168
-705.602	16.718	-0.195	0.155
-704.587	81.940	-0.035	-0.038
-703.572	-135.811	-0.176	0.021
-702.558	43.951	0.100	0.092
-701.543	86.250	0.193	0.213
-700.529	-115.088	0.126	-0.024
-699.514	800.000	0.046	0.160
-698.499	-189.271	0.031	-0.000
-697.485	-166.813	0.259	0.011
-696.470	191.554	-0.147	0.223
-695.456	-79.626	0.200	-0.068
-694.441	161.621	-0.152	0.214
-693.426	323.957	-0.101	0.193
-692.412	128.632	0.236	-0.303
-691.397	-200.000	0.044	-0.240
-690.383	68.920	-0.149	-0.154
-689.368	-132.963	0.252	0.032
-688.354	50.223	-0.103	0.098
-687.339	50.385	-0.200	0.190
-686.324	163.405	0.091	0.128
-685.310	50.607	0.150	0.143
-684.295	-25.769	-0.049	0.029
-683.281	-59.299	-0.219	0.095
-682.266	-51.604	0.152	-0.071
-681.251	800.000	0.071	-0.242
-680.237	80.048	0.041	0.044
-679.222	-200.000	0.006	0.217
-678.208	42.225	0.109	0.099
-677.193	51.963	-0.067	0.065
-676.178	309.568	-0.100	-0.187
-675.164	-9.818	0.081	-0.054
-674.149	-35.091	-0.175	-0.096
-673.135	478.605	0.015	-0.034
-672.120	-200.000	0.012	0.148
-671.105	-9.022	-0.304	0.205
-670.091	245.557	0.127	0.216
-669.076	800.000	-0.094	-0.366
-668.062	-130.600	0.102	-0.014
-667.047	-175.314	0.244	0.007
-666.032	-200.000	0.028	0.170
-665.018	88.777	-0.021	-0.024
-664.003	-29.643	-0.014	-0.008
-662.989	-200.000	-0.043	-0.212
-661.974	-200.000	-0.032	-0.173
-660.959	84.505	0.254	-0.279
-659.945	-174.676	-0.309	0.009
-658.930	398.730	-0.097	0.205
-657.916	31.360	-0.448	0.387
-656.901	-53.493	0.057	-0.026
-655.886	-153.908	-0.126	-0.009
-654.872	43.085	0.097	-0.089
-653.857	237.233	-0.175	-0.291
-652.843	-200.000	-0.018	-0.179
-651.828	-200.000	-0.025	-0.162
-650.814	220.493	-0.141	-0.227
-649.799	-115.756	-0.268	0.050
-648.784	293.436	-0.030	0.055
-647.770	429.451	0.181	-0.393
-646.755	32.527	-0.356	-0.309
-645.741	-200.000	0.013	0.188
-644.726	-7.599	-0.162	0.110
-643.711	-4.558	0.271	-0.188
-642.697	-137.549	0.116	-0.013
-641.682	-143.652	-0.285	-0.027
-640.668	3.333	-0.195	-0.142
-639.653	-99.828	0.285	-0.072
-638.638	-117.472	0.244	0.044
-637.624	236.668	-0.154	0.256
-636.609	239.231	-0.098	0.164
-635.595	152.918	0.059	0.081
-634.580	800.000	0.065	0.209
-633.565	-81.362	-0.248	0.082
-632.551	196.607	-0.194	0.297
-631.536	800.000	-0.057	-0.181
-630.522	468.537	0.087	0.197
-629.507	-200.000	0.017	-0.223
-628.492	-200.000	-0.053	-0.351
-627.478	37.241	-0.140	0.124
-626.463	328.582	-0.094	-0.181
-625.449	528.387	-0.020	-0.046
-624.434	-198.840	-0.332	0.002
-623.419	-16.624	-0.339	0.215
-622.405	-184.690	-0.114	0.002
-621.390	29.164	-0.150	0.128
-620.376	800.000	0.080	0.310
-619.361	-158.253	-0.303	-0.018
-618.346	193.673	-0.096	0.145
-617.332	-60.583	0.065	0.028
-616.317	69.456	0.269	-0.278
-615.303	-117.000	-0.153	0.028
-614.288	611.556	0.061	-0.154
-613.273	-48.918	-0.169	0.081
-612.259	-200.000	-0.030	0.254
-611.244	215.260	-0.064	0.102
-610.230	9.169	0.218	-0.165
-609.215	-48.679	-0.182	-0.088
-608.201	800.000	-0.020	0.086
-607.186	134.802	0.217	0.283
-606.171	-67.604	0.107	-0.042
-605.157	-49.757	0.332	0.158
-604.142	800.000	-0.040	0.164
-603.128	-174.475	-0.096	-0.003
-602.113	67.328	-0.258	0.264
-601.098	137.948	0.082	-0.107
-600.084	-200.000	0.014	-0.092
-599.069	-30.096	0.027	0.016
-598.055	347.144	0.095	-0.188
-597.040	1.085	-0.103	-0.074
-596.025	-43.420	0.235	0.119
-595.011	90.559	-0.189	-0.212
-593.996	-142.410	0.023	-0.002
-592.982	-200.000	-0.032	-0.185
-591.967	800.000	0.068	0.211
-590.952	386.122	0.070	-0.146
-589.938	-95.954	0.319	-0.085
-588.923	-200.000	0.066	-0.539
-587.909	-107.672	-0.376	-0.082
-586.894	84.195	0.176	-0.192
-585.879	-10.975	-0.315	-0.208
-584.865	-150.033	0.180	-0.014
-583.850	-144.678	0.210	0.019
-582.836	429.838	0.024	-0.053
-581.821	-200.000	-0.058	-0.363
-580.806	-200.000	-0.036	-0.163
-579.792	113.894	0.069	-0.084
-578.777	-200.000	-0.014	0.241
-577.763	798.701	-0.057	0.158
-576.748	-118.217	-0.128	0.023
-575.733	-200.000	0.011	-0.066
-574.719	800.000	-0.039	0.132
-573.704	-200.000	0.019	-0.395
-572.690	69.490	-0.198	-0.204
-571.675	-200.000	0.040	-0.353
-570.661	-80.778	0.245	0.082
-569.646	374.406	-0.051	-0.103
-568.631	-166.780	-0.027	0.001
-567.617	-83.911	0.308	-0.098
-566.602	-0.183	-0.018	0.013
-565.588	800.000	-0.096	0.363
-564.573	-137.377	0.248	0.028
-563.558	-54.058	0.291	0.132
-562.544	397.856	0.075	-0.158
-561.529	-141.090	-0.389	0.040
-560.515	-52.039	0.199	-0.092
-559.500	-20.936	0.052	-0.032
-558.485	138.156	0.201	0.264
-557.471	524.428	0.023	-0.055
-556.456	-18.914	0.254	0.158
-555.442	800.000	0.057	-0.199
-554.427	-75.219	-0.231	-0.083
-553.412	-200.000	0.043	-0.233
-552.398	39.544	-0.157	-0.141
-551.383	46.474	-0.190	-0.176
-550.369	22.749	0.050	-0.041
-549.354	-200.000	-0.037	-0.223
-548.339	800.000	-0.030	0.093
-547.325	-171.249	0.063	0.002
-546.310	95.296	0.205	-0.234
-545.296	-58.874	-0.104	0.045
-544.281	-200.000	-0.034	-0.216
-543.266	-88.160	-0.178	-0.053
-542.252	230.261	0.015	-0.024
-541.237	-83.954	0.109	-0.035
-540.223	51.166	-0.315	0.298
-539.208	-20.411	-0.024	-0.014
-538.193	-200.000	-0.011	-0.344
-537.179	71.880	0.272	-0.283
-536.164	-169.777	-0.245	0.009
-535.150	-50.015	0.344	0.163
-534.135	800.000	-0.067	0.218
-533.121	114.244	-0.066	0.080
-532.106	-115.557	-0.269	-0.051
-531.091	506.264	-0.019	-0.044
-530.077	800.000	0.042	0.143
-529.062	-3.843	-0.146	-0.102
-528.048	-33.009	-0.169	0.094
-527.033	-200.000	0.000	-0.098
-526.018	-1.290	-0.382	0.270
-525.004	110.224	0.294	0.353
-523.989	-105.741	-0.119	0.027
-522.975	157.738	-0.110	0.152
-521.960	-173.979	-0.098	-0.003
-520.945	-200.000	-0.042	-0.213
-519.931	-7.545	0.325	0.220
-518.916	-102.629	0.177	-0.042
-517.902	-200.000	0.020	0.291
-516.887	800.000	0.122	-0.367
-515.872	497.778	-0.167	-0.384
-514.858	-138.382	-0.077	0.009
-513.843	-128.705	-0.192	0.027
-512.829	365.462	-0.156	-0.314
-511.814	-32.991	-0.291	0.162
-510.799	-106.272	-0.088	-0.020
-509.785	261.629	-0.051	-0.089
-508.770	239.251	0.027	-0.044
-507.756	-200.000	0.010	-0.245
-506.741	800.000	0.057	-0.192
-505.726	-154.434	-0.163	-0.011
-504.712	-111.419	0.098	0.020
-503.697	268.980	0.021	-0.037
-502.683	319.430	0.137	0.260
-501.668	-200.000	0.044	-0.212
-500.653	93.344	-0.178	0.201
-499.639	800.000	-0.017	0.058
-498.624	282.142	0.084	0.150
-497.610	-200.000	-0.050	-0.237
-496.595	319.518	-0.009	-0.018
-495.581	459.801	-0.101	-0.224
-494.566	-200.000	0.008	0.109
-493.551	-115.300	-0.257	0.049
-492.537	-60.778	0.451	0.191
-491.522	265.654	0.116	0.201
-490.508	245.763	0.026	-0.043
-489.493	-200.000	-0.048	-0.267
-488.478	-58.861	-0.209	-0.090
-487.464	-96.078	0.131	-0.035
-486.449	-55.307	0.210	0.094
-485.435	-200.000	0.013	-0.101
-484.420	-200.000	0.018	0.318
-483.405	48.233	0.300	-0.280
-482.391	25.038	0.282	-0.233
-481.376	20.214	0.122	-0.098
-480.362	-67.559	-0.147	0.058
-479.347	-103.807	-0.555	-0.130
-478.332	-103.774	-0.259	0.060
-477.318	-28.936	0.165	0.095
-476.303	-74.744	-0.318	0.114
-475.289	86.072	-0.214	-0.235
-474.274	617.501	0.210	-0.527
-473.259	-140.800	-0.201	0.021
-472.245	-200.000	0.023	-0.139
-471.230	-15.152	-0.209	0.133
-470.216	-76.205	0.195	0.069
-469.201	-156.881	-0.294	0.018
-468.186	259.930	-0.114	-0.197
-467.172	-113.971	0.201	-0.039
-466.157	81.401	-0.136	0.147
-465.143	-137.268	0.105	0.012
-464.128	-200.000	0.004	0.378
-463.113	221.473	-0.150	0.240
-462.099	157.356	-0.141	0.195
-461.084	-52.753	-0.335	-0.154
-460.070	-49.517	0.185	0.088
-459.055	314.614	0.133	0.250
-458.040	-200.000	0.012	0.269
-457.026	-142.870	-0.070	-0.007
-456.011	-51.387	0.281	0.131
-454.997	130.018	0.128	-0.163
-453.982	-101.383	-0.297	-0.072
-452.968	-19.648	0.278	0.171
-451.953	301.135	-0.155	0.286
-450.938	-200.000	0.026	0.373
-449.924	-157.191	0.431	-0.026
-448.909	-200.000	0.077	0.377
-447.895	181.769	0.236	-0.347
-446.880	800.000	0.018	-0.063
-445.865	-17.569	0.148	0.093
-444.851	-142.132	-0.254	-0.025
-443.836	521.743	-0.145	-0.338
-442.822	-15.725	0.134	-0.085
-441.807	109.643	0.144	0.173
-440.792	-200.000	-0.033	0.199
-439.778	-200.000	0.031	-0.155
-438.763	800.000	-0.053	0.162
-437.749	-163.394	0.114	0.005
-436.734	-132.306	-0.035	-0.005
-435.719	-94.202	-0.175	0.048
-434.705	-29.715	-0.273	0.155
-433.690	-26.827	-0.377	-0.220
-432.676	57.803	-0.141	0.138
-431.661	800.000	0.103	0.325
-430.646	94.242	0.185	0.209
-429.632	192.216	0.080	-0.121
-428.617	-154.036	0.089	0.006
-427.603	535.020	-0.059	-0.139
-426.588	-82.605	0.289	-0.093
-425.573	800.000	0.062	-0.186
-424.559	-156.080	-0.164	0.010
-423.544	-200.000	0.007	-0.098
-422.530	15.803	0.225	-0.176
-421.515	-6.876	-0.331	-0.224
-420.500	89.564	-0.160	-0.178
-419.486	-78.417	-0.134	-0.046
-418.471	-146.311	-0.178	0.015
-417.457	-146.145	0.163	-0.014
-416.442	112.608	0.120	0.144
-415.428	800.000	-0.090	0.314
-414.413	9.961	-0.162	0.123
-413.398	789.041	-0.033	-0.090
-412.384	800.000	0.054	-0.164
-411.369	338.796	-0.086	0.167
-410.355	-176.939	0.234	-0.006
-409.340	115.487	-0.005	-0.007
-408.325	800.000	0.086	0.305
-407.311	-14.751	-0.168	0.107
-406.296	-200.000	-0.105	0.461
-405.282	-200.000	0.022	-0.260
-404.267	-157.386	0.170	-0.010
-403.252	-5.670	-0.159	0.108
-402.238	800.000	0.080	-0.247
-401.223	-17.089	0.109	0.069
-400.209	482.067	-0.088	0.200
-399.194	-200.000	0.014	-0.248
-398.179	800.000	-0.067	-0.272
-397.165	-200.000	0.033	0.244
-396.150	172.295	0.054	0.078
-395.136	45.782	-0.103	-0.095
-394.121	800.000	0.024	0.073
-393.106	-151.566	0.042	-0.003
-392.092	394.800	0.171	-0.353
-391.077	61.052	-0.163	0.161
-390.063	-200.000	-0.010	0.222
-389.048	104.936	0.323	-0.379
-388.033	4.828	-0.080	0.058
-387.019	-200.000	-0.018	0.210
-386.004	452.948	-0.127	-0.279
-384.990	800.000	0.076	-0.209
-383.975	643.138	0.052	-0.133
-382.960	-200.000	0.007	-0.048
-381.946	-38.471	0.093	-0.049
-380.931	-200.000	-0.017	0.099
-379.917	-109.317	0.188	-0.040
-378.902	-29.153	0.187	0.107
-377.888	-101.675	0.150	0.036
-376.873	138.063	0.105	0.137
-375.858	-136.434	-0.117	0.014
-374.844	263.794	0.090	-0.155
-373.829	-200.000	0.009	0.162
-372.815	800.000	0.076	0.300
-371.800	-182.359	-0.238	-0.004
-370.785	5.518	0.198	0.145
-369.771	-200.000	-0.011	0.282
-368.756	-39.621	0.043	0.022
-367.742	-114.783	-0.136	0.026
-366.727	-56.625	-0.112	0.049
-365.712	-100.820	0.214	0.052
-364.698	-57.945	-0.377	-0.164
-363.683	-116.018	-0.065	0.012
-362.669	178.710	0.235	-0.341
-361.654	800.000	-0.118	0.472
-360.639	-200.000	-0.058	0.309
-359.625	145.514	0.158	0.210
-358.610	106.994	0.260	-0.306
-357.596	75.240	0.096	0.100
-356.581	-60.073	0.140	-0.059
-355.566	58.481	0.107	0.104
-354.552	459.925	0.057	-0.126
-353.537	718.539	-0.109	-0.289
-352.523	223.017	-0.150	-0.241
-351.508	-88.167	0.341	-0.102
-350.493	3.179	0.231	-0.167
-349.479	-75.520	0.046	0.016
-348.464	800.000	-0.166	0.497
-347.450	515.289	0.049	-0.113
-346.435	-200.000	0.048	-0.360
-345.420	133.498	0.133	0.170
-344.406	-53.774	-0.060	0.027
-343.391	-200.000	0.014	-0.201
-342.377	-200.000	0.027	0.162
-341.362	-30.037	0.234	0.132
-340.348	276.428	-0.022	0.040
-339.333	0.726	0.293	-0.208
-338.318	-46.756	0.238	-0.116
-337.304	184.548	0.286	-0.421
-336.289	-200.000	-0.029	-0.174
-335.275	-6.223	-0.242	0.164
-334.260	449.642	0.158	0.345
-333.245	59.612	-0.114	0.111
-332.231	800.000	-0.050	-0.164
-331.216	-60.237	0.268	-0.113
-330.202	-200.000	-0.003	0.061
-329.187	800.000	-0.016	-0.064
-328.172	56.305	0.138	-0.133
-327.158	-91.227	-0.336	0.095
-326.143	-200.000	0.039	0.178
-325.129	152.287	-0.094	-0.127
-324.114	-118.714	0.123	-0.021
-323.099	-200.000	0.034	0.187
-322.085	383.741	-0.129	0.264
-321.070	-52.044	0.218	0.100
-320.056	36.771	0.190	0.167
-319.041	-165.396	0.193	0.008
-318.026	83.469	-0.344	0.372
-317.012	800.000	-0.006	-0.023
-315.997	124.272	0.219	0.272
-314.983	-166.603	0.376	-0.016
-313.968	13.557	0.325	-0.250
-312.953	-81.811	0.094	-0.031
-311.939	-122.266	-0.201	-0.033
-310.924	800.000	-0.088	0.254
-309.910	253.684	-0.126	-0.213
-308.895	-88.249	0.224	-0.067
-307.880	-44.672	-0.043	0.021
-306.866	-68.984	0.309	-0.118
-305.851	800.000	0.057	-0.174
-304.837	23.789	-0.161	0.132
-303.822	115.709	-0.122	0.147
-302.807	-69.397	-0.180	-0.068
-301.793	800.000	-0.064	0.220
-300.778	618.429	0.151	-0.376
-299.764	474.530	-0.076	-0.169
-298.749	-169.316	-0.148	-0.005
-297.735	46.023	0.166	0.152
-296.720	-35.767	0.176	0.094
-295.705	800.000	0.022	0.096
-294.691	170.338	0.154	-0.218
-293.676	480.639	-0.058	0.130
-292.662	800.000	-0.171	0.471
-291.647	99.676	0.344	0.394
-290.632	142.516	-0.018	-0.023
-289.618	48.967	0.101	-0.094
-288.603	-200.000	0.053	0.250
-287.589	-12.713	0.163	-0.105
-286.574	401.901	0.032	0.067
-285.559	-200.000	-0.004	0.120
-284.545	790.052	-0.177	-0.481
-283.530	504.408	-0.111	0.255
-282.516	-200.000	-0.027	-0.151
-281.501	3.936	-0.192	-0.139
-280.486	-200.000	-0.011	-0.335
-279.472	681.771	-0.153	-0.395
-278.457	800.000	-0.042	-0.182
-277.443	-30.640	0.100	-0.056
-276.428	800.000	-0.027	-0.082
-275.413	43.253	0.209	-0.189
-274.399	800.000	-0.042	-0.156
-273.384	-200.000	0.037	0.364
-272.370	-200.000	-0.018	0.205
-271.355	-35.761	-0.272	-0.146
-270.340	-200.000	0.032	0.216
-269.326	800.000	-0.096	0.280
-268.311	800.000	-0.083	0.243
-267.297	-200.000	-0.001	-0.128
-266.282	205.023	0.050	0.076
-265.267	31.397	0.172	-0.146
-264.253	-63.257	-0.153	0.063
-263.238	-144.151	0.007	0.001
-262.224	125.810	0.193	-0.242
-261.209	139.461	0.151	-0.196
-260.195	234.529	-0.075	-0.123
-259.180	-115.805	-0.140	-0.026
-258.165	-156.984	0.281	-0.017
-257.151	-5.560	-0.355	-0.241
-256.136	-200.000	-0.022	0.103
-255.122	-82.834	-0.060	-0.019
-254.107	-121.282	0.384	0.063
-253.092	138.110	-0.231	-0.300
-252.078	-200.000	0.058	-0.368
-251.063	800.000	0.076	-0.233
-250.049	-72.065	0.111	0.041
-249.034	54.128	-0.156	0.148
-248.019	800.000	0.051	-0.151
-247.005	-169.329	0.238	0.009
-245.990	-200.000	-0.230	0.001
-244.976	-137.460	-0.352	0.039
-243.961	151.518	0.067	-0.090
-242.946	-39.538	-0.307	-0.159
-241.932	-61.135	-0.151	-0.063
-240.917	-141.675	-0.292	-0.029
-239.903	87.368	0.167	-0.183
-238.888	-45.880	-0.153	0.075
-237.873	-96.925	0.189	0.049
-236.859	-73.169	-0.460	0.167
-235.844	-68.292	0.447	-0.172
-234.830	-143.596	-0.255	-0.024
-233.815	-106.817	-0.067	-0.015
-232.800	-200.000	-0.040	-0.330
-231.786	-114.601	-0.184	-0.035
-230.771	-10.933	0.155	0.101
-229.757	-46.093	-0.268	0.131
-228.742	72.650	0.198	0.204
-227.727	72.187	0.332	-0.342
-226.713	-75.865	-0.054	-0.019
-225.698	562.265	0.042	-0.100
-224.684	-91.702	0.223	-0.063
-223.669	133.187	0.239	0.305
-222.655	303.428	-0.153	-0.279
-221.640	740.341	-0.133	0.354
-220.625	-41.965	-0.151	0.077
-219.611	-86.443	0.192	0.058
-218.596	449.201	0.160	0.348
-217.582	64.027	-0.055	-0.054
-216.567	-200.000	-0.057	0.323
-215.552	115.929	-0.105	0.127
-214.538	-87.663	-0.462	0.138
-213.523	-118.856	-0.140	0.024
-212.509	-33.611	0.091	0.050
-211.494	132.129	0.179	-0.227
-210.479	-200.000	-0.030	0.171
-209.465	-46.225	0.047	0.023
-208.450	48.128	0.086	-0.080
-207.436	-200.000	-0.043	0.407
-206.421	583.370	-0.074	-0.178
-205.406	-83.342	-0.043	-0.014
-204.392	-200.000	-0.020	0.103
-203.377	12.018	-0.090	0.068
-202.363	51.771	0.275	0.258
-201.348	38.342	0.226	0.199
-200.333	-83.462	-0.177	-0.056
-199.319	800.000	-0.043	0.118
-198.304	-200.000	-0.003	0.210
-197.290	59.053	0.211	0.205
-196.275	-70.192	-0.131	-0.049
-195.260	-200.000	0.018	-0.081
-194.246	91.542	-0.244	-0.270
-193.231	1.640	0.108	0.077
-192.217	-144.836	0.314	-0.028
-191.202	581.676	-0.072	-0.175
-190.187	-63.307	-0.328	-0.133
-189.173	112.418	0.230	-0.275
-188.158	-30.336	-0.206	-0.115
-187.144	-93.865	0.365	-0.099
-186.129	-198.553	-0.329	0.002
-185.114	4.757	0.094	0.068
-184.100	76.546	-0.262	0.274
-183.085	-200.000	0.025	-0.216
-182.071	338.285	0.146	0.279
-181.056	-200.000	0.049	0.245
-180.042	800.000	-0.042	0.123
-179.027	800.000	0.063	0.253
-178.012	-42.018	0.284	0.143
-176.998	78.172	-0.178	0.187
-175.983	-200.000	0.037	-0.354
-174.969	-146.212	-0.249	0.022
-173.954	-69.582	0.162	0.061
-172.939	-54.038	-0.237	0.106
-171.925	-39.907	0.444	0.229
-170.910	226.758	-0.147	-0.235
-169.896	-44.946	0.320	-0.157
-168.881	4.133	0.113	-0.081
-167.866	-165.451	0.225	0.010
-166.852	20.945	-0.172	0.137
-165.837	539.731	0.044	-0.104
-164.823	401.931	0.071	-0.146
-163.808	-196.381	0.168	-0.001
-162.793	-200.000	-0.003	0.067
-161.779	-55.492	-0.069	0.030
-160.764	115.594	0.105	0.126
-159.750	186.382	-0.089	0.130
-158.735	-24.304	0.064	0.038
-157.720	-200.000	-0.044	0.288
-156.706	-39.363	-0.462	-0.239
-155.691	-93.225	-0.087	-0.024
-154.677	-200.000	-0.049	-0.272
-153.662	104.633	0.072	0.084
-152.647	98.735	-0.296	0.336
-151.633	82.154	0.173	0.184
-150.618	312.270	0.066	0.123
-149.604	362.649	0.106	0.210
-148.589	313.858	-0.139	-0.257
-147.574	17.570	-0.043	0.034
-146.560	128.300	-0.072	-0.090
-145.545	182.201	0.112	0.163
-144.531	800.000	0.032	-0.110
-143.516	-200.000	0.014	-0.233
-142.502	-200.000	-0.032	0.377
-141.487	-26.189	-0.168	0.097
-140.472	-200.000	0.150	-0.001
-139.458	-200.000	-0.088	0.387
-138.443	-31.787	-0.149	0.083
-137.429	-90.982	0.165	0.047
-136.414	267.040	-0.115	-0.198
-135.399	49.604	-0.057	-0.053
-134.385	650.496	0.132	-0.332
-133.370	387.933	-0.149	-0.304
-132.356	52.283	0.105	0.099
-131.341	38.763	-0.179	-0.157
-130.326	-169.433	0.245	0.009
-129.312	800.000	0.035	0.138
-128.297	2.465	0.217	0.155
-127.283	-29.013	0.273	0.154
-126.268	-77.339	0.287	0.098
-125.253	-101.000	0.215	-0.052
-124.239	-200.000	-0.058	0.293
-123.224	17.218	-0.145	0.113
-122.210	-200.000	0.050	-0.239
-121.195	800.000	0.100	-0.374
-120.180	-200.000	0.000	-0.092
-119.166	-140.538	-0.409	-0.042
-118.151	-3.667	-0.042	-0.029
-117.137	630.792	0.082	0.204
-116.122	-171.148	-0.078	-0.003
-115.107	-38.499	0.420	0.218
-114.093	-200.000	-0.011	0.103
-113.078	-75.135	0.269	-0.095
-112.064	-200.000	-0.012	-0.241
-111.049	-200.000	-0.046	0.289
-110.034	-200.000	0.074	0.348
-109.020	-101.874	0.154	0.037
-108.005	800.000	0.029	0.085
-106.991	92.118	-0.137	-0.151
-105.976	-100.815	-0.158	0.038
-104.962	-200.000	-0.031	-0.193
-103.947	734.553	0.085	-0.224
-102.932	597.565	-0.050	-0.123
-101.918	800.000	0.042	-0.141
-100.903	800.000	0.108	-0.337
-99.889	-99.688	-0.255	0.063
-98.874	-200.000	0.025	-0.187
-97.859	-161.221	0.210	-0.011
-96.845	-127.933	0.108	-0.015
-95.830	120.576	-0.180	-0.220
-94.816	-166.171	0.170	-0.007
-93.801	-200.000	0.009	0.126
-92.786	-200.000	-0.019	-0.114
-91.772	-22.214	-0.376	0.224
-90.757	-118.043	0.142	-0.025
-89.743	-114.131	0.014	0.003
-88.728	-43.570	0.143	-0.071
-87.713	11.115	-0.291	-0.219
-86.699	-200.000	0.014	-0.117
-85.684	137.944	0.107	-0.138
-84.670	27.214	0.048	0.040
-83.655	-200.000	-0.015	-0.412
-82.640	-200.000	0.027	-0.239
-81.626	14.758	0.080	0.062
-80.611	193.741	0.146	-0.217
-79.597	-48.108	0.299	-0.142
-78.582	-128.250	-0.273	0.038
-77.567	47.748	-0.108	0.099
-76.553	800.000	-0.042	0.171
-75.538	800.000	-0.081	-0.340
-74.524	467.901	-0.047	0.103
-73.509	90.451	0.216	-0.238
-72.494	7.097	-0.224	-0.164
-71.480	-34.838	0.104	0.056
-70.465	-61.558	-0.547	-0.226
-69.451	-60.102	0.386	0.162
-68.436	-137.764	0.165	0.018
-67.422	442.611	0.065	0.139
-66.407	-157.545	-0.220	0.013
-65.392	40.240	0.210	-0.185
-64.378	51.779	0.238	0.222
-63.363	-200.000	-0.013	0.116
-62.349	56.630	-0.140	0.134
-61.334	6.406	-1.241	-0.904
-60.319	33.051	0.485	0.413
-59.305	-200.000	-0.190	-1.205
-58.290	115.567	0.900	1.080
-57.276	-200.000	0.253	1.467
-56.261	-200.000	105.913	577.122
-55.246	460.880	1456.340	3184.981
-54.232	148.971	2649.100	3515.501
-53.217	100.714	2290.878	2612.020
-52.203	39.037	1903.959	1670.063
-51.188	33.221	1691.908	1439.892
-50.173	30.618	1648.270	1383.370
-49.159	48.577	1701.180	1564.025
-48.144	49.221	1716.227	1582.662
-47.130	32.713	1674.515	1421.040
-46.115	30.070	1660.216	1389.067
-45.100	29.911	1655.675	1384.021
-44.086	29.927	1652.478	1381.417
-43.071	29.802	1650.739	1378.977
-42.057	29.757	1648.172	1376.442
-41.042	29.764	1646.140	1374.737
-40.027	29.848	1643.811	1373.365
-39.013	29.807	1642.126	1371.599
-37.998	29.719	1640.798	1369.781
-36.984	29.851	1638.648	1368.909
-35.969	30.023	1637.488	1369.157
-34.954	30.002	1635.652	1367.413
-33.940	29.986	1634.362	1366.161
-32.925	30.037	1632.166	1364.647
-31.911	29.966	1630.761	1362.898
-30.896	29.898	1628.809	1360.712
-29.881	29.881	1627.533	1359.466
-28.867	29.875	1625.730	1357.860
-27.852	29.904	1624.651	1357.121
-26.838	29.801	1623.397	1355.267
-25.823	29.934	1621.414	1354.532
-24.809	30.031	1620.114	1354.094
-23.794	29.944	1618.937	1352.423
-22.779	29.974	1617.378	1351.290
-21.765	29.917	1615.558	1349.296
-20.750	29.932	1613.783	1347.869
-19.736	29.951	1612.750	1347.094
-18.721	30.018	1611.290	1346.307
-17.706	29.995	1610.148	1345.130
-16.692	29.978	1608.303	1343.414
-15.677	30.010	1607.195	1342.669
-14.663	29.966	1605.783	1341.118
-13.648	29.924	1604.342	1339.559
-12.633	29.972	1602.904	1338.650
-11.619	29.900	1601.430	1336.841
-10.604	30.082	1599.438	1336.443
-9.590	29.878	1598.635	1334.245
-8.575	30.042	1597.253	1334.220
-7.560	30.017	1595.657	1332.654
-6.546	29.936	1595.288	1331.711
-5.531	29.959	1594.338	1331.034
-4.517	29.999	1592.658	1329.862
-3.502	29.927	1591.441	1328.280
-2.487	30.061	1589.835	1327.842
-1.473	29.705	1578.470	1315.767
-0.458	27.137	1559.082	1281.469
0.556	21.954	1560.646	1251.644
1.571	19.751	1584.675	1254.833
2.586	19.465	1598.393	1263.487
3.600	17.797	1545.597	1209.828
4.615	9.973	1435.500	1071.825
5.629	1.885	1370.084	971.502
6.644	0.200	1362.015	955.014
7.659	0.191	1360.473	953.795
8.673	0.092	1359.613	952.483
9.688	0.027	1358.043	950.886
10.702	-0.092	1355.066	947.966
11.717	3.753	1360.629	976.096
12.731	12.351	1374.604	1040.713
13.746	17.426	1381.236	1077.864
14.761	17.278	1379.788	1075.704
15.775	16.218	1376.752	1066.550
16.790	15.293	1373.812	1058.338
17.804	14.404	1371.799	1051.089
18.819	14.060	1370.351	1047.719
19.834	13.774	1369.245	1044.979
20.848	13.611	1367.579	1042.589
21.863	13.333	1366.555	1039.971
22.877	13.262	1365.324	1038.496
23.892	13.136	1364.648	1037.095
24.907	13.212	1363.643	1036.722
25.921	13.208	1363.218	1036.277
26.936	13.223	1361.764	1035.175
27.950	13.206	1360.929	1034.345
28.965	13.292	1359.961	1034.055
29.980	13.272	1359.042	1033.141
30.994	13.325	1358.302	1032.817
32.009	13.433	1357.523	1032.805
33.023	13.449	1356.088	1031.724
34.038	13.309	1355.567	1030.365
35.053	13.279	1354.398	1029.197
36.067	13.300	1353.066	1028.222
37.082	13.248	1352.098	1027.072
38.096	13.394	1350.873	1026.958
39.111	13.352	1350.210	1026.104
40.126	13.279	1349.528	1025.041
41.140	13.190	1348.757	1023.816
42.155	13.142	1348.792	1023.455
43.169	13.091	1348.215	1022.609
44.184	13.148	1347.947	1022.665
45.199	13.132	1347.448	1022.098
46.213	13.198	1347.064	1022.127
47.228	13.206	1345.806	1021.130
48.242	13.257	1344.316	1020.221
49.257	13.236	1342.851	1018.893
50.271	13.288	1341.612	1018.182
51.286	13.296	1340.571	1017.350
52.301	13.295	1339.288	1016.284
53.315	13.236	1338.650	1015.348
54.330	13.164	1337.330	1013.810
55.344	13.241	1336.425	1013.508
56.359	13.265	1335.141	1012.591
57.374	13.234	1334.239	1011.630
58.388	13.219	1333.434	1010.838
59.403	13.048	1333.105	1009.454
60.417	13.152	1332.394	1009.463
61.432	13.098	1331.274	1008.194
62.447	13.029	1330.300	1006.944
63.461	13.088	1328.845	1006.117
64.476	12.997	1327.878	1004.737
65.490	13.011	1327.003	1004.072
66.505	12.991	1325.431	1002.675
67.520	13.087	1324.055	1002.125
68.534	13.162	1323.093	1001.767
69.549	13.154	1321.936	1000.750
70.563	13.028	1320.872	999.096
71.578	13.031	1319.516	997.999
72.593	13.036	1318.938	997.502
73.607	12.931	1318.666	996.575
74.622	13.104	1316.931	996.222
75.636	12.960	1316.475	994.918
76.651	12.975	1315.436	994.136
77.666	12.983	1315.165	993.893
78.680	12.987	1314.883	993.614
79.695	13.114	1313.587	993.312
80.709	13.082	1313.212	992.749
81.724	13.049	1312.292	991.768
82.739	13.105	1311.397	991.337
83.753	13.268	1310.147	991.281
84.768	13.328	1308.856	990.576
85.782	13.345	1307.766	989.763
86.797	13.292	1307.011	988.787
87.812	13.235	1305.522	987.236
88.826	13.106	1304.793	985.828
89.841	13.284	1303.151	985.559
90.855	13.318	1302.300	985.033
91.870	13.280	1301.420	984.055
92.884	13.291	1300.751	983.527
93.899	13.296	1300.147	983.010
94.914	13.395	1299.223	982.813
95.928	13.463	1298.038	982.234
96.943	13.425	1297.220	981.306
97.957	13.346	1296.632	980.302
98.972	13.269	1295.039	978.555
99.987	13.308	1294.191	978.061
101.001	13.442	1293.361	978.135
102.016	13.358	1292.287	976.745
103.030	13.332	1291.584	975.971
104.045	13.332	1290.389	974.985
105.060	13.298	1289.485	974.015
106.074	13.216	1288.219	972.485
107.089	13.069	1287.415	970.930
108.103	13.123	1285.750	969.906
109.118	13.124	1284.637	968.986
110.133	13.077	1283.238	967.567
111.147	13.149	1281.753	966.785
112.162	13.164	1280.866	966.118
113.176	13.242	1279.616	965.545
114.191	13.181	1278.886	964.552
115.206	13.284	1277.520	964.041
116.220	13.172	1276.706	962.690
117.235	13.200	1275.608	961.939
118.249	13.263	1273.978	960.987
119.264	13.130	1273.538	959.800
120.279	13.161	1272.063	958.783
121.293	13.241	1270.870	958.263
122.308	13.179	1269.923	957.107
123.322	13.107	1269.283	956.123
124.337	13.181	1267.808	955.353
125.352	13.224	1266.903	954.835
126.366	13.179	1265.927	953.754
127.381	13.068	1265.081	952.392
128.395	13.196	1263.756	952.047
129.410	13.254	1263.031	951.755
130.424	13.195	1261.996	950.546
131.439	13.180	1261.110	949.712
132.454	13.216	1260.198	949.145
133.468	13.344	1259.351	949.159
134.483	13.264	1258.759	948.168
135.497	13.260	1257.889	947.410
136.512	13.194	1256.331	945.772
137.527	13.256	1254.843	944.927
138.541	13.225	1253.805	943.881
139.556	13.166	1252.284	942.314
140.570	13.356	1251.189	942.490
141.585	13.382	1249.935	941.610
142.600	13.393	1248.343	940.391
143.614	13.390	1247.924	939.977
144.629	13.476	1246.799	939.535
145.643	13.417	1245.883	938.426
146.658	13.380	1244.529	937.113
147.673	13.510	1242.767	936.438
148.687	13.268	1242.707	934.945
149.702	13.383	1240.704	933.999
150.716	13.252	1239.786	932.491
151.731	13.331	1238.021	931.525
152.746	13.310	1237.355	930.824
153.760	13.414	1235.649	930.044
154.775	13.457	1234.520	929.348
155.789	13.459	1233.764	928.711
156.804	13.476	1232.592	927.842
157.819	13.530	1231.556	927.284
158.833	13.605	1230.757	927.015
159.848	13.582	1230.225	926.404
160.862	13.615	1229.055	925.628
161.877	13.458	1228.130	923.975
162.892	13.480	1227.033	923.188
163.906	13.319	1226.192	921.578
164.921	13.425	1225.101	921.264
165.935	13.474	1224.529	921.025
166.950	13.552	1223.694	920.749
167.964	13.463	1222.714	919.438
168.979	13.468	1222.104	918.928
169.994	13.534	1221.244	918.566
171.008	13.620	1220.145	918.131
172.023	13.691	1219.640	918.064
173.037	13.642	1219.107	917.311
174.052	13.691	1218.086	916.734
175.067	13.571	1216.885	915.086
176.081	13.652	1215.976	914.764
177.096	13.635	1215.138	913.960
178.110	13.571	1214.011	912.678
179.125	13.642	1212.873	912.133
180.140	13.718	1211.215	911.228
181.154	13.601	1210.323	909.831
182.169	13.696	1209.237	909.455
183.183	13.798	1207.853	908.892
184.198	13.844	1206.769	908.246
185.213	13.789	1205.628	907.011
186.227	13.785	1204.915	906.369
187.242	13.810	1204.222	905.902
188.256	13.929	1202.448	905.141
189.271	13.904	1201.925	904.528
190.286	13.781	1201.109	903.167
191.300	13.569	1200.304	901.325
192.315	13.718	1199.435	901.405
193.329	13.649	1198.893	900.545
194.344	13.673	1198.236	900.102
195.359	13.671	1197.627	899.554
196.373	13.763	1197.296	899.720
197.388	13.965	1196.246	899.950
198.402	13.972	1196.063	899.769
199.417	13.996	1195.202	899.168
200.432	14.108	1194.510	899.177
201.446	14.056	1193.450	898.016
202.461	14.112	1192.890	897.818
203.475	14.176	1191.339	896.919
204.490	14.005	1190.399	895.211
205.504	13.929	1189.481	894.030
206.519	13.914	1188.290	892.977
207.534	13.967	1187.240	892.393
208.548	14.115	1186.019	892.188
209.563	14.018	1185.433	891.149
210.577	14.106	1184.322	890.708
211.592	14.086	1183.637	890.006
212.607	14.186	1182.801	889.836
213.621	14.178	1181.910	889.045
214.636	14.144	1181.016	888.109
215.650	14.062	1180.192	886.975
216.665	14.252	1179.366	887.287
217.680	14.246	1178.357	886.418
218.694	14.419	1177.190	886.382
219.709	14.270	1176.814	885.228
220.723	14.313	1176.043	884.801
221.738	14.231	1175.059	883.543
222.753	14.204	1174.865	883.175
223.767	14.395	1173.500	883.088
224.782	14.458	1172.829	882.838
225.796	14.328	1172.653	881.936
226.811	14.389	1171.811	881.550
227.826	14.410	1171.074	881.028
228.840	14.357	1170.254	880.051
229.855	14.346	1169.773	879.555
230.869	14.394	1169.025	879.167
231.884	14.278	1168.493	878.077
232.899	14.249	1167.253	876.913
233.913	14.288	1166.681	876.615
234.928	14.225	1165.815	875.552
235.942	14.298	1164.619	874.961
236.957	14.290	1164.289	874.596
237.972	14.381	1163.580	874.460
238.986	14.242	1163.011	873.226
240.001	14.302	1162.260	872.903
241.015	14.389	1161.205	872.486
242.030	14.432	1160.058	871.774
243.045	14.443	1159.911	871.645
244.059	14.612	1158.730	871.562
245.074	14.574	1157.984	870.722
246.088	14.490	1157.378	869.755
247.103	14.499	1156.418	869.005
248.117	14.526	1156.034	868.776
249.132	14.693	1155.280	869.003
250.147	14.707	1154.247	868.222
251.161	14.776	1153.821	868.181
252.176	14.795	1152.836	867.466
253.190	14.806	1152.293	867.039
254.205	14.853	1151.983	866.970
255.220	14.856	1151.373	866.449
256.234	14.846	1150.785	865.877
257.249	14.841	1149.833	865.059
258.263	14.897	1148.883	864.556
259.278	14.876	1148.426	864.030
260.293	14.910	1148.092	863.878
261.307	14.993	1147.724	863.951
262.322	15.015	1146.499	863.069
263.336	15.083	1146.049	863.001
264.351	15.098	1145.468	862.567
265.366	15.091	1144.696	861.872
266.380	15.054	1144.023	861.101
267.395	15.039	1142.963	860.146
268.409	15.003	1142.369	859.438
269.424	15.006	1142.222	859.269
270.439	15.157	1141.096	859.118
271.453	15.195	1140.285	858.626
272.468	14.953	1139.610	856.802
273.482	15.073	1138.732	856.682
274.497	14.978	1138.740	856.125
275.512	15.021	1137.680	855.473
276.526	15.127	1136.649	855.164
277.541	15.030	1136.238	854.282
278.555	15.028	1135.699	853.791
279.570	15.115	1134.878	853.545
280.585	15.134	1134.198	853.053
281.599	15.203	1133.204	852.581
282.614	15.240	1132.339	852.045
283.628	15.182	1131.037	850.693
284.643	15.232	1130.281	850.304
285.657	15.250	1129.576	849.791
286.672	15.233	1128.485	848.810
287.687	15.210	1127.365	847.772
288.701	15.225	1126.820	847.366
289.716	15.302	1126.055	847.101
290.730	15.360	1125.011	846.534
291.745	15.385	1124.459	846.171
292.760	15.436	1123.581	845.693
293.774	15.411	1123.446	845.388
294.789	15.456	1122.854	845.095
295.803	15.341	1122.234	843.977
296.818	15.472	1121.433	843.960
297.833	15.323	1120.942	842.766
298.847	15.400	1120.008	842.373
299.862	15.438	1119.299	841.958
300.876	15.453	1118.551	841.397
301.891	15.514	1117.880	841.123
302.906	15.542	1117.171	840.653
303.920	15.578	1116.297	840.102
304.935	15.708	1116.059	840.498
305.949	15.729	1114.921	839.672
306.964	15.655	1114.421	838.854
307.979	15.502	1113.594	837.392
308.993	15.648	1113.369	837.879
310.008	15.760	1112.154	837.446
311.022	15.703	1111.480	836.583
312.037	15.592	1110.794	835.437
313.052	15.689	1109.362	834.771
314.066	15.635	1109.036	834.182
315.081	15.726	1108.131	833.877
316.095	15.555	1107.496	832.483
317.110	15.725	1106.788	832.714
318.125	15.624	1105.939	831.502
319.139	15.672	1105.242	831.143
320.154	15.713	1104.742	830.896
321.168	15.671	1104.009	830.067
322.183	15.796	1103.678	830.360
323.197	15.785	1102.867	829.619
324.212	15.597	1102.429	828.293
325.227	15.775	1101.789	828.613
326.241	15.793	1101.034	828.063
327.256	15.795	1100.065	827.269
328.270	15.855	1099.147	826.802
329.285	15.752	1098.446	825.695
330.300	15.845	1097.306	825.222
331.314	15.752	1096.398	824.008
332.329	15.861	1095.653	823.912
333.343	15.900	1094.738	823.341
334.358	15.797	1094.342	822.465
335.373	15.902	1093.310	822.128
336.387	15.864	1092.803	821.493
337.402	15.933	1091.825	821.019
338.416	15.928	1090.964	820.274
339.431	15.962	1090.517	820.029
340.446	16.052	1090.039	820.037
341.460	15.996	1089.632	819.387
342.475	15.971	1088.974	818.696
343.489	16.081	1087.610	818.133
344.504	16.195	1086.807	818.010
345.519	16.231	1085.764	817.328
346.533	16.222	1084.985	816.626
347.548	16.322	1084.363	816.569
348.562	16.290	1083.665	815.816
349.577	16.172	1083.027	814.693
350.592	16.145	1082.247	813.902
351.606	16.225	1081.049	813.315
352.621	16.177	1080.823	812.841
353.635	16.134	1080.234	812.119
354.650	16.191	1079.264	811.595
355.665	16.237	1078.645	811.276
356.679	16.144	1078.324	810.518
357.694	16.274	1077.820	810.689
358.708	16.226	1077.137	809.874
359.723	16.318	1076.137	809.495
360.738	16.428	1075.346	809.353
361.752	16.293	1075.262	808.573
362.767	16.380	1074.471	808.324
363.781	16.358	1073.777	807.626
364.796	16.374	1073.416	807.356
365.810	16.378	1072.603	806.691
366.825	16.581	1072.019	807.152
367.840	16.502	1071.594	806.384
368.854	16.587	1070.897	806.193
369.869	16.527	1070.361	805.429
370.883	16.613	1069.159	804.866
371.898	16.598	1068.525	804.247
372.913	16.511	1067.975	803.346
373.927	16.680	1067.398	803.642
374.942	16.680	1067.015	803.286
375.956	16.763	1066.332	803.094
376.971	16.679	1065.869	802.276
377.986	16.697	1065.569	802.064
379.000	16.688	1064.554	801.188
380.015	16.678	1064.756	801.218
381.029	16.709	1063.880	800.635
382.044	16.729	1063.146	800.105
383.059	16.810	1062.017	799.568
384.073	16.806	1061.015	798.723
385.088	16.810	1060.725	798.454
386.102	16.762	1059.663	797.359
387.117	16.717	1058.873	796.484
388.132	16.837	1057.548	795.979
389.146	16.718	1057.553	795.355
390.161	16.770	1056.392	794.655
391.175	16.950	1055.180	794.514
392.190	16.853	1055.219	794.020
393.205	16.926	1054.377	793.655
394.219	16.888	1053.608	792.829
395.234	16.839	1052.604	791.778
396.248	16.908	1051.562	791.246
397.263	16.916	1050.699	790.563
398.278	16.945	1049.998	790.100
399.292	16.762	1049.839	789.058
400.307	16.848	1048.969	788.736
401.321	16.862	1048.121	788.091
402.336	16.715	1047.622	786.964
403.350	16.868	1046.476	786.743
404.365	17.041	1045.557	786.787
405.380	16.984	1045.290	786.252
406.394	16.983	1044.210	785.364
407.409	17.026	1043.906	785.265
408.423	17.094	1043.276	785.035
409.438	17.117	1042.301	784.338
410.453	17.251	1041.671	784.412
411.467	17.160	1040.969	783.398
412.482	17.247	1040.264	783.197
413.496	17.306	1039.212	782.608
414.511	17.242	1039.100	782.161
415.526	17.185	1038.799	781.604
416.540	17.367	1038.073	781.821
417.555	17.406	1037.252	781.316
418.569	17.361	1036.853	780.738
419.584	17.373	1036.643	780.567
420.599	17.271	1036.335	779.799
421.613	102.963	1321.560	1467.556
422.628	94.391	1363.087	1467.671
