DTS Sentinel unit serial number:	SN413079Multiplexer serial number:	ORYXHardware model number:	OX4-SRSoftware version number:	ORYX F/W v4.00 Oryx Data Collector v3.7.2.0data status	okinstallation	princeton_trtdifferential loss correction	single-endedforward channel	channel 2reverse channel	N/Adate	2019/09/13time	15:31:35forward acquisition time	60.00reverse acquisition time	0.00gamma	496.2192k internal	0.2317k external	0.2317temperature offset calibration	1.0211default loss term (dB/km)	0.3790temperature slope calibration	1.0000multiplexer offset coefficient	1.0000multiplexer slope coefficient	1.0000fibre end	0.00T internal ref (°C)	35.11T ext. ref 1 (°C)	4.74T ext. ref 2 (°C)	29.63length (m)	temperature (°C)	Stokes	anti-Stokes-747.200	-106.119	0.215	0.049
-746.185	609.642	-0.108	0.274
-745.171	-91.109	0.092	0.027
-744.156	-149.115	-0.407	0.033
-743.142	128.250	-0.021	0.027
-742.127	244.795	0.098	0.166
-741.112	78.847	-0.112	0.122
-740.098	19.446	-0.212	0.172
-739.083	146.276	-0.082	-0.112
-738.069	800.000	-0.127	0.506
-737.054	450.545	0.099	0.222
-736.039	-200.000	0.030	-0.202
-735.025	-200.000	0.004	0.283
-734.010	239.927	-0.221	-0.372
-732.996	800.000	-0.109	-0.480
-731.981	57.075	0.152	-0.150
-730.966	800.000	-0.059	-0.197
-729.952	-32.711	0.045	-0.026
-728.937	-200.000	0.040	-0.328
-727.923	-104.748	-0.610	0.142
-726.908	-200.000	-0.038	0.210
-725.894	-9.409	-0.256	-0.173
-724.879	-23.131	0.090	-0.055
-723.864	-41.242	-0.297	-0.155
-722.850	-52.060	0.145	0.068
-721.835	85.617	-0.199	0.221
-720.821	-200.000	-0.065	0.312
-719.806	-66.070	-0.307	0.124
-718.791	-16.558	-0.402	0.258
-717.777	137.236	-0.116	-0.153
-716.762	605.014	0.087	0.219
-715.748	-200.000	0.021	-0.139
-714.733	-37.936	0.121	0.065
-713.718	256.961	-0.035	0.061
-712.704	80.422	-0.180	-0.196
-711.689	57.385	-0.261	-0.258
-710.675	186.272	0.046	-0.069
-709.660	-200.000	-0.043	-0.261
-708.645	103.315	0.146	-0.173
-707.631	95.732	-0.275	-0.318
-706.616	800.000	0.039	-0.148
-705.602	800.000	0.064	-0.194
-704.587	-145.817	-0.524	-0.047
-703.572	116.918	-0.069	-0.085
-702.558	-71.282	0.374	-0.142
-701.543	266.962	-0.156	0.276
-700.529	-146.316	0.042	-0.004
-699.514	-200.000	0.001	-0.082
-698.499	800.000	-0.018	-0.057
-697.485	-200.000	0.005	-0.475
-696.470	-200.000	-0.052	-0.341
-695.456	501.974	-0.049	-0.113
-694.441	800.000	0.065	-0.211
-693.426	-111.973	-0.056	-0.011
-692.412	800.000	0.086	-0.245
-691.397	-166.700	0.255	0.011
-690.383	-9.094	-0.190	-0.129
-689.368	-78.280	-0.155	0.054
-688.354	88.458	0.183	-0.205
-687.339	22.046	-0.183	0.151
-686.324	-50.162	0.486	0.232
-685.310	367.439	0.017	0.035
-684.295	-178.335	-0.157	0.004
-683.281	473.383	-0.105	0.239
-682.266	484.320	-0.094	0.217
-681.251	-120.190	-0.350	0.060
-680.237	467.707	0.108	-0.245
-679.222	-137.597	-0.221	0.025
-678.208	-45.743	0.184	-0.092
-677.193	-200.000	-0.038	0.186
-676.178	800.000	-0.082	0.246
-675.164	-73.946	0.202	-0.074
-674.149	-200.000	-0.001	-0.267
-673.135	261.819	-0.130	-0.228
-672.120	403.253	0.095	-0.203
-671.105	-146.154	0.263	0.023
-670.091	-200.000	0.008	0.148
-669.076	-84.111	-0.102	0.033
-668.062	800.000	0.050	-0.207
-667.047	-89.077	0.506	-0.151
-666.032	-200.000	-0.019	0.180
-665.018	-55.314	-0.123	0.056
-664.003	-133.378	0.121	0.015
-662.989	52.220	-0.053	0.051
-661.974	-78.028	0.155	0.054
-660.959	1.470	-0.122	-0.089
-659.945	-127.099	0.438	-0.065
-658.930	800.000	0.092	-0.260
-657.916	479.084	-0.129	0.294
-656.901	-134.144	-0.037	0.005
-655.886	538.733	-0.120	0.289
-654.872	129.050	-0.047	0.060
-653.857	-200.000	0.010	-0.114
-652.843	-200.000	-0.023	-0.153
-651.828	800.000	0.060	-0.175
-650.814	-200.000	0.034	-0.334
-649.799	-119.112	0.117	-0.021
-648.784	-61.178	-0.336	-0.143
-647.770	104.036	-0.125	0.148
-646.755	-139.623	0.084	0.009
-645.741	-177.252	-0.018	0.000
-644.726	-120.611	-0.180	0.031
-643.711	-200.000	-0.021	-0.557
-642.697	-11.029	-0.266	-0.177
-641.682	-200.000	0.007	0.064
-640.668	774.335	0.060	-0.164
-639.653	-200.000	-0.079	0.422
-638.638	-62.491	0.099	0.041
-637.624	-86.181	0.176	0.055
-636.609	800.000	0.041	0.144
-635.595	-185.454	-0.433	-0.007
-634.580	800.000	0.026	-0.076
-633.565	-130.691	-0.217	0.029
-632.551	-200.000	-0.026	-0.365
-631.536	200.377	0.164	-0.254
-630.522	-200.000	0.008	-0.169
-629.507	800.000	0.115	0.331
-628.492	94.095	-0.133	-0.152
-627.478	-82.289	-0.231	0.076
-626.463	555.225	0.078	0.188
-625.449	-40.294	-0.266	-0.140
-624.434	-196.357	0.260	-0.002
-623.419	-58.986	-0.137	-0.060
-622.405	-160.671	-0.241	-0.013
-621.390	35.618	-0.037	-0.033
-620.376	30.345	0.238	-0.205
-619.361	-200.000	0.013	0.119
-618.346	-21.048	0.024	-0.015
-617.332	-17.468	-0.179	0.113
-616.317	-179.047	0.217	-0.005
-615.303	7.630	0.152	0.114
-614.288	-106.567	-0.126	-0.028
-613.273	-96.865	0.259	-0.069
-612.259	84.292	-0.120	0.132
-611.244	13.465	0.134	-0.105
-610.230	68.237	-0.244	-0.251
-609.215	543.993	0.133	0.319
-608.201	646.144	-0.123	0.316
-607.186	68.899	-0.169	0.175
-606.171	209.323	-0.089	-0.140
-605.157	99.833	-0.073	-0.085
-604.142	800.000	-0.116	-0.350
-603.128	15.102	-0.129	0.102
-602.113	800.000	-0.067	0.210
-601.098	-1.339	0.347	-0.247
-600.084	-118.425	-0.167	0.030
-599.069	397.239	-0.100	-0.210
-598.055	-200.000	-0.014	-0.079
-597.040	-200.000	-0.013	-0.127
-596.025	705.005	0.016	0.044
-595.011	-53.019	0.252	-0.117
-593.996	313.939	-0.113	-0.214
-592.982	-139.733	-0.175	-0.019
-591.967	800.000	-0.025	0.097
-590.952	800.000	0.079	-0.328
-589.938	800.000	-0.127	-0.382
-588.923	105.884	0.107	-0.128
-587.909	-200.000	-0.026	0.235
-586.894	145.171	0.098	0.131
-585.879	-26.364	0.323	-0.191
-584.865	692.711	0.059	-0.155
-583.850	25.590	0.321	0.269
-582.836	-200.000	-0.024	0.146
-581.821	177.273	-0.135	0.198
-580.806	-200.000	-0.002	-0.055
-579.792	-1.109	-0.141	-0.101
-578.777	-200.000	0.010	-0.316
-577.763	-18.752	0.141	0.088
-576.748	800.000	-0.054	0.187
-575.733	41.056	-0.278	0.252
-574.719	-130.471	0.016	-0.002
-573.704	-27.575	0.174	-0.102
-572.690	-200.000	0.004	-0.327
-571.675	406.156	-0.060	0.127
-570.661	-146.258	-0.331	-0.029
-569.646	-159.763	0.506	0.028
-568.631	-94.476	-0.193	0.053
-567.617	-126.955	-0.106	-0.016
-566.602	-179.920	-0.497	0.011
-565.588	-200.000	-0.027	0.388
-564.573	-72.917	0.266	0.098
-563.558	-200.000	-0.026	0.481
-562.544	119.614	-0.191	-0.238
-561.529	28.589	0.056	-0.048
-560.515	-61.714	-0.078	0.033
-559.500	-63.529	0.037	-0.015
-558.485	80.525	0.034	0.037
-557.471	-55.849	0.114	0.051
-556.456	-64.873	0.258	0.105
-555.442	642.760	-0.092	0.235
-554.427	-11.836	-0.289	-0.190
-553.412	-164.936	0.214	0.010
-552.398	255.603	-0.060	-0.104
-551.383	-21.120	0.055	-0.034
-550.369	131.825	-0.155	0.200
-549.354	437.424	-0.062	-0.136
-548.339	-83.293	-0.156	-0.050
-547.325	-200.000	0.064	-0.332
-546.310	-196.462	-0.131	0.001
-545.296	-38.675	-0.159	-0.084
-544.281	52.805	-0.086	0.082
-543.266	-200.000	-0.002	-0.393
-542.252	22.017	-0.304	-0.249
-541.237	-89.291	-0.355	-0.105
-540.223	800.000	0.084	0.271
-539.208	-96.650	0.388	-0.103
-538.193	19.911	-0.067	-0.054
-537.179	139.418	0.126	-0.166
-536.164	150.702	-0.137	-0.188
-535.150	-200.000	0.011	0.217
-534.135	800.000	0.091	-0.272
-533.121	-89.187	-0.205	0.061
-532.106	59.090	-0.197	0.195
-531.091	-3.043	0.043	-0.030
-530.077	3.336	-0.264	-0.193
-529.062	-23.476	-0.337	-0.203
-528.048	800.000	-0.122	0.362
-527.033	-200.000	0.021	-0.406
-526.018	494.260	-0.075	-0.173
-525.004	-45.577	-0.377	0.187
-523.989	128.410	0.095	-0.122
-522.975	125.701	-0.081	0.102
-521.960	56.716	-0.136	-0.132
-520.945	81.200	0.211	-0.228
-519.931	-12.752	-0.054	0.035
-518.916	800.000	0.082	0.238
-517.902	800.000	0.043	-0.135
-516.887	36.438	0.263	-0.233
-515.872	243.587	-0.189	0.318
-514.858	794.121	-0.093	-0.258
-513.843	100.051	0.066	0.077
-512.829	297.024	-0.093	0.172
-511.814	63.706	0.193	0.194
-510.799	85.432	-0.046	-0.051
-509.785	-200.000	0.039	0.177
-508.770	800.000	0.054	0.154
-507.756	-160.179	-0.567	0.031
-506.741	-59.308	0.420	0.181
-505.726	95.194	0.115	0.132
-504.712	-200.000	-0.007	-0.084
-503.697	-31.293	-0.322	-0.182
-502.683	-74.371	-0.012	-0.004
-501.668	-57.470	-0.336	0.148
-500.653	321.546	-0.176	-0.336
-499.639	800.000	-0.096	0.358
-498.624	-138.189	0.242	-0.027
-497.610	-40.928	0.039	-0.020
-496.595	-200.000	-0.012	-0.080
-495.581	-129.749	-0.052	0.007
-494.566	-200.000	0.031	-0.180
-493.551	13.402	-0.433	-0.337
-492.537	157.740	0.123	0.171
-491.522	-151.097	0.309	0.023
-490.508	275.697	-0.035	-0.063
-489.493	30.826	-0.183	0.157
-488.478	800.000	-0.036	0.102
-487.464	800.000	-0.068	-0.259
-486.449	-115.344	0.201	0.038
-485.435	-67.677	-0.079	-0.031
-484.420	-70.936	-0.146	0.055
-483.405	-104.452	0.090	0.021
-482.391	-200.000	0.020	0.170
-481.376	-81.737	0.357	-0.117
-480.362	-200.000	0.018	-0.080
-479.347	-92.149	0.178	-0.050
-478.332	800.000	-0.044	-0.137
-477.318	4.648	0.031	0.023
-476.303	-200.000	-0.052	-0.247
-475.289	-200.000	-0.016	-0.093
-474.274	-200.000	0.011	-0.299
-473.259	-90.180	-0.277	0.081
-472.245	800.000	-0.016	-0.046
-471.230	406.521	0.113	-0.240
-470.216	-200.000	0.041	0.222
-469.201	32.151	0.340	-0.294
-468.186	-66.177	-0.411	-0.164
-467.172	-49.681	-0.207	0.098
-466.157	453.539	0.117	0.259
-465.143	800.000	0.058	-0.181
-464.128	12.111	-0.324	-0.250
-463.113	-108.515	0.204	-0.044
-462.099	-107.510	0.119	-0.026
-461.084	678.438	-0.083	-0.217
-460.070	-22.702	0.136	0.082
-459.055	153.394	0.075	0.103
-458.040	-69.477	-0.447	0.172
-457.026	800.000	0.121	0.528
-456.011	379.988	0.042	-0.086
-454.997	-11.261	-0.067	0.044
-453.982	30.142	0.194	-0.166
-452.968	101.843	-0.057	0.066
-451.953	-88.974	0.143	-0.042
-450.938	-0.211	-0.163	-0.116
-449.924	-59.670	-0.240	-0.103
-448.909	14.324	-0.171	0.133
-447.895	-200.000	0.020	0.222
-446.880	-200.000	0.007	0.177
-445.865	181.711	-0.043	-0.064
-444.851	-200.000	0.034	-0.306
-443.836	249.921	0.068	-0.115
-442.822	-35.948	-0.074	0.040
-441.807	19.307	0.090	-0.073
-440.792	800.000	-0.045	-0.154
-439.778	-109.904	0.216	0.045
-438.763	-200.000	-0.007	0.158
-437.749	152.064	-0.121	0.165
-436.734	-99.068	-0.099	0.025
-435.719	800.000	-0.024	0.081
-434.705	86.751	0.147	0.162
-433.690	38.621	0.067	0.060
-432.676	-92.011	-0.335	0.095
-431.661	-200.000	-0.010	-0.046
-430.646	338.528	0.065	-0.126
-429.632	-169.551	0.204	-0.007
-428.617	24.809	0.128	0.106
-427.603	-92.339	-0.300	-0.084
-426.588	-200.000	-0.020	0.096
-425.573	800.000	0.012	0.046
-424.559	180.619	0.016	0.024
-423.544	78.085	0.145	0.155
-422.530	-15.052	-0.087	-0.056
-421.515	-200.000	0.057	0.432
-420.500	800.000	-0.021	0.076
-419.486	-12.069	0.209	0.137
-418.471	25.813	-0.177	0.148
-417.457	-83.665	-0.411	-0.131
-416.442	-22.525	-0.063	-0.038
-415.428	186.690	0.086	0.128
-414.413	-43.084	0.311	-0.158
-413.398	194.388	0.280	-0.424
-412.384	190.815	0.319	0.479
-411.369	3.684	0.126	0.092
-410.355	-200.000	0.038	0.237
-409.340	-94.920	0.340	0.092
-408.325	800.000	0.035	-0.151
-407.311	-200.000	-0.020	-0.169
-406.296	13.619	-0.058	-0.045
-405.282	677.431	0.074	-0.191
-404.267	19.380	0.295	-0.237
-403.252	174.819	0.155	-0.224
-402.238	-21.251	-0.393	-0.240
-401.223	-160.593	-0.329	-0.018
-400.209	427.150	-0.076	0.163
-399.194	-9.474	0.277	0.184
-398.179	-62.835	-0.254	0.105
-397.165	-154.330	0.240	0.016
-396.150	800.000	-0.025	-0.077
-395.136	131.522	0.114	0.146
-394.121	-55.438	0.332	0.149
-393.106	182.035	0.110	0.162
-392.092	-119.419	-0.201	0.035
-391.077	-160.704	-0.182	-0.010
-390.063	81.487	-0.168	0.181
-389.048	66.690	-0.099	0.101
-388.033	118.489	-0.091	-0.113
-387.019	-200.000	0.004	0.231
-386.004	399.553	-0.052	-0.108
-384.990	-80.745	-0.209	0.069
-383.975	43.640	0.099	-0.091
-382.960	319.873	-0.027	-0.052
-381.946	481.766	0.139	0.315
-380.931	-200.000	-0.010	0.238
-379.917	-6.856	0.184	0.125
-378.902	-31.667	-0.248	0.139
-377.888	182.694	0.191	-0.282
-376.873	-97.845	-0.061	-0.016
-375.858	-31.111	0.139	-0.078
-374.844	-108.521	0.269	0.058
-373.829	-49.324	0.101	-0.048
-372.815	-200.000	-0.032	0.397
-371.800	-140.493	0.067	0.007
-370.785	-51.442	0.125	0.058
-369.771	-200.000	0.009	-0.093
-368.756	-113.408	0.194	-0.038
-367.742	-35.225	-0.179	-0.097
-366.727	-57.044	-0.206	-0.091
-365.712	-169.790	-0.322	0.012
-364.698	-97.324	-0.197	-0.051
-363.683	245.285	0.169	0.284
-362.669	178.021	0.310	-0.451
-361.654	-94.548	0.034	0.009
-360.639	1.463	0.097	0.070
-359.625	-200.000	0.035	0.167
-358.610	663.084	-0.055	0.141
-357.596	200.151	0.169	0.259
-356.581	139.534	-0.197	0.259
-355.566	-76.675	0.249	0.087
-354.552	100.156	-0.081	0.094
-353.537	-37.322	0.160	-0.085
-352.523	5.775	0.079	-0.058
-351.508	-56.031	0.183	-0.081
-350.493	49.086	-0.242	0.226
-349.479	-57.260	-0.123	0.054
-348.464	-200.000	0.027	0.177
-347.450	-125.731	0.178	-0.027
-346.435	-64.098	-0.335	0.136
-345.420	642.449	-0.063	0.161
-344.406	800.000	-0.058	-0.179
-343.391	382.078	0.015	-0.031
-342.377	647.071	0.229	-0.584
-341.362	-136.195	0.111	-0.013
-340.348	382.399	-0.077	0.159
-339.333	58.661	0.196	-0.191
-338.318	-200.000	0.029	-0.130
-337.304	800.000	0.011	-0.039
-336.289	252.323	-0.198	0.337
-335.275	27.620	-0.228	0.191
-334.260	-53.639	0.135	-0.062
-333.245	-114.911	-0.295	-0.056
-332.231	223.721	0.064	0.102
-331.216	-78.436	-0.394	-0.135
-330.202	420.084	-0.056	0.119
-329.187	800.000	0.059	0.244
-328.172	162.163	0.106	-0.148
-327.158	129.984	0.036	-0.045
-326.143	23.261	-0.136	0.111
-325.129	10.650	0.191	0.145
-324.114	-105.824	0.155	0.035
-323.099	-78.273	0.188	-0.064
-322.085	219.707	-0.084	0.134
-321.070	-0.021	-0.275	0.195
-320.056	100.407	0.243	0.281
-319.041	-90.625	-0.101	-0.029
-318.026	75.533	-0.259	0.272
-317.012	217.478	0.113	-0.180
-315.997	-122.567	-0.310	0.050
-314.983	800.000	-0.025	0.085
-313.968	476.170	0.035	0.078
-312.953	539.269	0.059	-0.139
-311.939	-146.769	-0.179	-0.015
-310.924	-200.000	-0.015	0.254
-309.910	451.675	-0.105	0.231
-308.895	-200.000	-0.024	-0.140
-307.880	99.272	-0.106	-0.122
-306.866	800.000	0.051	0.198
-305.851	-123.797	-0.378	-0.059
-304.837	93.662	0.171	-0.193
-303.822	-200.000	-0.048	-0.402
-302.807	-115.082	0.248	-0.047
-301.793	800.000	-0.084	0.367
-300.778	372.697	0.032	-0.066
-299.764	-32.594	0.218	0.121
-298.749	-122.047	0.324	0.053
-297.735	-79.918	0.205	0.069
-296.720	581.389	0.018	-0.043
-295.705	-125.159	-0.386	-0.059
-294.691	-82.825	0.191	-0.062
-293.676	-200.000	0.031	-0.309
-292.662	-176.157	0.142	-0.004
-291.647	76.302	-0.110	-0.116
-290.632	68.262	0.055	0.056
-289.618	-200.000	-0.037	0.265
-288.603	-7.871	0.074	0.050
-287.589	24.596	-0.235	0.194
-286.574	-102.307	0.183	0.044
-285.559	155.876	-0.210	-0.287
-284.545	312.592	-0.110	0.205
-283.530	-178.239	0.152	0.004
-282.516	-110.569	0.311	-0.064
-281.501	-121.926	-0.132	0.022
-280.486	-13.729	-0.118	0.076
-279.472	-200.000	-0.023	-0.299
-278.457	-153.129	-0.130	0.009
-277.443	12.899	-0.201	0.154
-276.428	192.891	0.067	-0.101
-275.413	209.523	0.216	0.336
-274.399	271.431	-0.118	-0.206
-273.384	707.581	0.111	0.292
-272.370	-200.000	0.070	-0.530
-271.355	11.688	-0.062	-0.047
-270.340	-102.670	-0.103	-0.024
-269.326	800.000	0.084	0.242
-268.311	76.219	-0.120	0.126
-267.297	-104.681	0.312	0.071
-266.282	-2.531	0.062	0.043
-265.267	800.000	0.086	0.277
-264.253	317.602	0.078	0.146
-263.238	-159.515	-0.131	0.007
-262.224	-54.144	-0.135	-0.061
-261.209	-55.378	0.352	0.157
-260.195	-2.002	0.371	0.259
-259.180	800.000	0.027	0.108
-258.165	-180.533	-0.376	0.008
-257.151	49.622	0.301	0.281
-256.136	397.173	0.140	0.291
-255.122	111.645	0.134	-0.161
-254.107	-40.630	0.147	-0.076
-253.092	3.152	-0.034	-0.025
-252.078	-187.239	-0.121	0.002
-251.063	-75.452	0.195	0.069
-250.049	800.000	-0.148	-0.512
-249.034	-200.000	0.061	-0.282
-248.019	800.000	-0.068	-0.236
-247.005	-98.482	0.225	0.057
-245.990	-37.877	-0.274	0.145
-244.976	-200.000	0.009	-0.221
-243.961	-85.546	0.465	-0.144
-242.946	309.217	0.140	0.260
-241.932	-73.870	0.170	0.061
-240.917	-108.370	-0.123	0.026
-239.903	121.427	0.244	-0.302
-238.888	-200.000	-0.013	0.061
-237.873	-200.000	-0.048	0.221
-236.859	-81.908	0.149	0.048
-235.844	-67.832	0.042	-0.016
-234.830	69.423	-0.135	0.137
-233.815	65.831	-0.225	0.226
-232.800	-43.308	0.167	-0.084
-231.786	-68.410	0.257	0.099
-230.771	238.876	0.038	-0.063
-229.757	-102.520	0.339	-0.080
-228.742	99.259	-0.207	0.238
-227.727	-200.000	-0.017	0.254
-226.713	-54.303	0.483	-0.217
-225.698	27.993	0.318	-0.266
-224.684	-200.000	-0.094	-0.459
-223.669	18.256	0.194	-0.153
-222.655	12.170	-0.264	-0.201
-221.640	471.751	0.104	0.232
-220.625	13.574	-0.084	-0.065
-219.611	-200.000	0.011	0.082
-218.596	23.383	0.075	0.061
-217.582	800.000	0.085	0.354
-216.567	123.234	0.187	0.232
-215.552	-65.861	0.203	0.081
-214.538	-74.193	0.216	0.077
-213.523	45.864	0.013	0.012
-212.509	-167.905	-0.263	-0.010
-211.494	-200.000	-0.032	0.165
-210.479	-166.210	0.071	-0.003
-209.465	-166.428	0.200	-0.008
-208.450	-65.119	0.299	0.120
-207.436	-150.965	0.097	0.007
-206.421	-63.378	-0.292	-0.119
-205.406	-126.988	-0.313	-0.046
-204.392	-68.871	-0.107	0.041
-203.377	56.539	0.129	-0.124
-202.363	-46.341	0.374	0.182
-201.348	23.213	-0.126	0.102
-200.333	193.976	-0.076	-0.114
-199.319	382.437	0.055	-0.112
-198.304	-200.000	-0.035	-0.207
-197.290	56.354	-0.169	0.162
-196.275	572.999	0.071	-0.172
-195.260	-200.000	0.158	0.000
-194.246	-97.023	0.262	0.068
-193.231	558.969	0.139	-0.332
-192.217	800.000	0.067	-0.217
-191.202	155.414	0.086	0.117
-190.187	145.645	-0.097	0.128
-189.173	800.000	0.045	0.167
-188.158	29.550	-0.259	0.218
-187.144	800.000	-0.175	-0.498
-186.129	-91.199	0.217	0.062
-185.114	-200.000	-0.001	-0.044
-184.100	-117.296	0.083	-0.015
-183.085	633.752	-0.042	-0.106
-182.071	321.866	-0.154	-0.290
-181.056	800.000	0.042	0.175
-180.042	24.886	-0.100	-0.082
-179.027	185.900	0.038	0.055
-178.012	86.018	-0.052	-0.057
-176.998	41.894	0.151	0.136
-175.983	372.979	-0.235	-0.473
-174.969	-200.000	0.008	-0.084
-173.954	-179.802	-0.069	0.001
-172.939	47.475	-0.108	-0.099
-171.925	-200.000	-0.064	-0.289
-170.910	-54.679	0.167	-0.075
-169.896	800.000	0.038	0.138
-168.881	-123.070	-0.283	-0.045
-167.866	5.999	-0.051	0.038
-166.852	196.010	-0.173	0.260
-165.837	-36.135	0.192	0.102
-164.823	800.000	-0.118	0.477
-163.808	181.463	-0.092	-0.134
-162.793	-132.810	0.494	-0.062
-161.779	800.000	0.101	-0.302
-160.764	319.260	0.159	-0.297
-159.750	-4.061	-0.054	0.037
-158.735	800.000	-0.081	-0.266
-157.720	152.544	-0.147	-0.199
-156.706	-200.000	0.004	0.032
-155.691	-200.000	0.001	0.107
-154.677	-140.810	-0.118	-0.012
-153.662	-93.924	-0.144	0.039
-152.647	216.943	0.100	-0.157
-151.633	-177.682	0.315	0.008
-150.618	-200.000	0.053	0.286
-149.604	-105.537	0.123	0.028
-148.589	-21.749	-0.184	-0.111
-147.574	109.467	0.116	0.137
-146.560	-123.493	0.223	-0.035
-145.545	-200.000	0.009	-0.056
-144.531	514.108	-0.144	0.333
-143.516	316.753	0.149	0.279
-142.502	229.815	-0.207	0.335
-141.487	-200.000	0.015	0.099
-140.472	575.624	-0.111	-0.268
-139.458	-86.547	-0.239	-0.072
-138.443	193.227	0.135	0.202
-137.429	-2.959	0.227	-0.157
-136.414	-70.905	0.129	-0.048
-135.399	180.432	-0.114	-0.165
-134.385	-200.000	-0.003	0.033
-133.370	800.000	-0.026	-0.109
-132.356	800.000	-0.027	-0.104
-131.341	486.070	-0.081	-0.183
-130.326	129.739	-0.074	0.093
-129.312	-173.257	0.123	0.004
-128.297	627.504	-0.031	0.077
-127.283	123.077	0.142	-0.176
-126.268	-200.000	-0.054	-0.383
-125.253	272.794	-0.213	0.371
-124.239	-200.000	-0.001	0.023
-123.224	97.716	0.055	-0.062
-122.210	800.000	-0.031	-0.114
-121.195	-200.000	0.145	-0.705
-120.180	144.209	0.130	0.171
-119.166	119.728	-0.141	-0.173
-118.151	-128.918	-0.395	0.055
-117.137	-200.000	0.095	-0.000
-116.122	800.000	-0.040	-0.170
-115.107	53.717	-0.099	-0.093
-114.093	800.000	0.072	0.202
-113.078	-103.315	0.509	-0.119
-112.064	-187.792	0.195	-0.003
-111.049	-200.000	0.007	-0.136
-110.034	-200.000	-0.074	-0.391
-109.020	18.661	0.247	0.195
-108.005	800.000	-0.058	0.234
-106.991	-11.626	-0.198	-0.129
-105.976	14.144	-0.348	-0.267
-104.962	-151.371	-0.274	0.020
-103.947	687.975	-0.070	-0.181
-102.932	16.788	-0.151	-0.118
-101.918	-29.955	-0.245	-0.138
-100.903	103.882	0.197	0.228
-99.889	-200.000	-0.081	0.401
-98.874	-200.000	-0.012	-0.155
-97.859	370.690	-0.129	-0.257
-96.845	40.646	-0.157	0.139
-95.830	-200.000	0.010	0.093
-94.816	157.236	-0.072	0.098
-93.801	-47.907	-0.406	-0.194
-92.786	800.000	-0.066	-0.279
-91.772	-78.330	-0.150	0.051
-90.757	-165.308	0.410	0.018
-89.743	61.448	-0.230	0.225
-88.728	800.000	0.074	-0.265
-87.713	800.000	0.179	-0.492
-86.699	-139.626	-0.166	0.017
-85.684	176.533	0.027	-0.039
-84.670	-72.610	0.201	0.073
-83.655	800.000	-0.044	0.189
-82.640	416.480	-0.075	-0.159
-81.626	70.629	0.150	-0.153
-80.611	-8.302	0.217	0.144
-79.597	266.356	0.096	0.166
-78.582	-79.176	-0.245	-0.082
-77.567	-98.861	0.144	-0.036
-76.553	800.000	-0.072	-0.210
-75.538	-25.965	-0.271	-0.157
-74.524	-49.888	0.142	0.066
-73.509	-200.000	0.020	-0.144
-72.494	-9.703	-0.076	0.050
-71.480	-200.000	0.014	0.075
-70.465	-53.706	0.110	-0.049
-69.451	-200.000	-0.003	-0.095
-68.436	271.430	-0.137	-0.238
-67.422	-66.208	0.062	0.024
-66.407	-70.514	0.123	0.046
-65.392	-58.933	0.197	-0.084
-64.378	-200.000	0.057	0.433
-63.363	72.620	-0.120	0.124
-62.349	-6.981	0.085	-0.057
-61.334	-68.474	-1.022	-0.391
-60.319	568.289	0.232	0.556
-59.305	241.841	-0.469	-0.772
-58.290	284.620	0.508	0.902
-57.276	800.000	0.577	1.644
-56.261	-200.000	97.084	585.330
-55.246	670.109	1387.702	3541.040
-54.232	187.114	2611.674	3836.932
-53.217	118.481	2309.795	2809.092
-52.203	45.066	1921.940	1744.864
-51.188	38.582	1707.860	1500.963
-50.173	35.510	1663.438	1438.890
-49.159	53.131	1711.866	1615.028
-48.144	56.685	1729.538	1658.596
-47.130	38.166	1685.465	1477.904
-46.115	35.227	1670.167	1442.353
-45.100	35.039	1665.190	1436.583
-44.086	35.053	1662.854	1434.617
-43.071	34.931	1660.225	1431.376
-42.057	34.917	1657.658	1429.003
-41.042	35.016	1655.470	1427.803
-40.027	34.926	1653.859	1425.684
-39.013	35.022	1651.519	1424.326
-37.998	34.928	1650.220	1422.451
-36.984	34.978	1648.775	1421.516
-35.969	35.087	1647.305	1421.006
-34.954	35.199	1645.456	1420.185
-33.940	35.139	1643.724	1418.191
-32.925	35.158	1642.039	1416.815
-31.911	35.072	1640.595	1414.882
-30.896	35.060	1638.718	1413.116
-29.881	35.083	1637.298	1412.005
-28.867	35.162	1635.081	1410.623
-27.852	35.100	1633.634	1408.858
-26.838	35.031	1632.661	1407.455
-25.823	35.075	1631.102	1406.379
-24.809	35.094	1629.263	1404.876
-23.794	35.117	1628.236	1404.104
-22.779	35.114	1626.617	1402.635
-21.765	35.165	1624.846	1401.424
-20.750	35.070	1622.927	1399.018
-19.736	35.096	1621.754	1398.141
-18.721	35.126	1620.123	1396.899
-17.706	35.230	1617.913	1395.694
-16.692	35.080	1617.161	1393.894
-15.677	35.177	1615.163	1392.827
-14.663	35.239	1614.008	1392.224
-13.648	35.112	1612.642	1390.068
-12.633	35.148	1611.067	1388.916
-11.619	35.183	1609.478	1387.744
-10.604	35.173	1607.991	1386.333
-9.590	35.122	1607.239	1385.267
-8.575	35.190	1605.550	1384.242
-7.560	35.119	1604.073	1382.403
-6.546	35.170	1603.256	1382.013
-5.531	35.155	1602.033	1380.795
-4.517	35.175	1600.543	1379.601
-3.502	35.133	1600.039	1378.806
-2.487	35.130	1598.268	1377.203
-1.473	34.776	1586.688	1364.648
-0.458	31.545	1566.366	1324.291
0.556	29.716	1564.702	1284.748
1.571	26.740	1587.971	1282.712
2.586	25.424	1600.658	1283.450
3.600	22.235	1547.654	1218.776
4.615	13.844	1437.591	1077.743
5.629	6.215	1372.101	981.118
6.644	4.808	1363.357	966.057
7.659	4.721	1362.513	964.835
8.673	4.643	1361.855	963.801
9.688	4.807	1359.642	963.165
10.702	4.840	1357.486	961.751
11.717	8.479	1364.285	989.034
12.731	17.029	1379.870	1053.546
13.746	22.401	1388.442	1093.461
14.761	22.708	1387.019	1094.150
15.775	21.910	1384.713	1087.287
16.790	20.804	1382.435	1078.560
17.804	19.986	1379.940	1071.455
18.819	19.664	1378.850	1068.526
19.834	19.450	1378.127	1066.550
20.848	19.349	1376.429	1064.516
21.863	19.126	1375.512	1062.333
22.877	19.084	1374.167	1060.945
23.892	18.935	1373.532	1059.444
24.907	18.931	1372.824	1058.780
25.921	19.048	1371.527	1058.405
26.936	18.970	1370.995	1057.416
27.950	19.126	1369.439	1057.083
28.965	19.158	1368.825	1056.715
29.980	19.204	1367.955	1056.232
30.994	19.235	1367.155	1055.705
32.009	19.294	1365.838	1054.962
33.023	19.352	1364.398	1054.106
34.038	19.302	1362.654	1052.364
35.053	19.197	1361.708	1050.897
36.067	19.116	1360.965	1049.734
37.082	19.245	1359.786	1049.524
38.096	19.226	1358.661	1048.443
39.111	19.273	1358.261	1048.331
40.126	19.179	1357.119	1046.780
41.140	19.018	1355.723	1044.638
42.155	18.713	1355.892	1042.823
43.169	18.657	1355.663	1042.213
44.184	18.701	1354.984	1041.865
45.199	18.698	1355.109	1041.851
46.213	18.838	1354.610	1042.226
47.228	19.013	1353.685	1042.480
48.242	19.096	1352.528	1042.003
49.257	19.070	1350.900	1040.500
50.271	19.046	1349.695	1039.333
51.286	19.095	1348.262	1038.430
52.301	19.091	1346.807	1037.195
53.315	19.009	1345.890	1035.905
54.330	18.860	1344.847	1034.112
55.344	18.858	1343.405	1032.898
56.359	18.790	1342.985	1032.075
57.374	18.799	1341.695	1031.048
58.388	18.723	1340.979	1029.954
59.403	18.697	1340.243	1029.136
60.417	18.657	1339.730	1028.413
61.432	18.639	1338.515	1027.282
62.447	18.460	1337.801	1025.575
63.461	18.574	1336.281	1024.996
64.476	18.495	1335.111	1023.540
65.490	18.474	1334.053	1022.515
66.505	18.573	1332.620	1021.914
67.520	18.487	1331.596	1020.528
68.534	18.604	1330.386	1020.204
69.549	18.558	1329.310	1019.012
70.563	18.484	1328.056	1017.527
71.578	18.428	1326.987	1016.281
72.593	18.328	1326.282	1015.059
73.607	18.263	1325.658	1014.107
74.622	18.345	1324.365	1013.512
75.636	18.360	1324.228	1013.411
76.651	18.399	1323.274	1012.818
77.666	18.381	1323.090	1012.484
78.680	18.524	1322.699	1012.942
79.695	18.530	1322.006	1012.354
80.709	18.650	1321.032	1012.227
81.724	18.729	1320.493	1012.187
82.739	18.791	1319.766	1011.910
83.753	18.955	1318.891	1012.112
84.768	19.107	1317.946	1012.194
85.782	19.261	1316.880	1012.186
86.797	19.125	1315.855	1010.512
87.812	19.083	1314.299	1008.981
88.826	19.057	1313.331	1007.997
89.841	19.206	1312.321	1008.005
90.855	19.161	1311.660	1007.148
91.870	19.217	1310.773	1006.705
92.884	19.267	1310.025	1006.332
93.899	19.240	1308.947	1005.258
94.914	19.358	1308.127	1005.226
95.928	19.341	1307.785	1004.773
96.943	19.243	1306.615	1003.218
97.957	19.209	1305.475	1002.057
98.972	19.174	1304.264	1000.829
99.987	19.241	1303.691	1000.694
101.001	19.197	1302.759	999.634
102.016	19.401	1301.171	999.512
103.030	19.154	1300.869	997.758
104.045	19.166	1299.886	996.986
105.060	19.099	1298.305	995.295
106.074	18.883	1296.822	992.825
107.089	18.488	1295.438	989.397
108.103	18.486	1294.406	988.511
109.118	18.574	1293.243	988.045
110.133	18.500	1292.030	986.602
111.147	18.600	1290.546	985.957
112.162	18.704	1288.838	985.164
113.176	18.748	1288.291	984.907
114.191	18.737	1287.057	983.814
115.206	18.701	1285.974	982.695
116.220	18.736	1284.457	981.646
117.235	18.742	1283.458	980.833
118.249	18.611	1282.701	979.416
119.264	18.620	1281.466	978.438
120.279	18.578	1280.284	977.212
121.293	18.406	1279.451	975.509
122.308	18.397	1277.996	974.265
123.322	18.361	1276.923	973.154
124.337	18.265	1276.177	971.955
125.352	18.370	1275.133	971.667
126.366	18.361	1273.848	970.551
127.381	18.279	1273.082	969.419
128.395	18.393	1271.886	969.069
129.410	18.473	1270.868	968.661
130.424	18.477	1270.044	967.968
131.439	18.580	1269.478	968.032
132.454	18.706	1268.283	967.748
133.468	18.713	1267.674	967.231
134.483	18.652	1267.221	966.459
135.497	18.750	1265.891	965.909
136.512	18.717	1264.903	964.888
137.527	18.752	1263.632	964.025
138.541	18.771	1262.271	963.012
139.556	18.874	1260.699	962.302
140.570	18.957	1260.247	962.340
141.585	18.985	1258.925	961.401
142.600	19.201	1258.000	961.813
143.614	19.142	1257.208	960.793
144.629	19.159	1256.455	960.227
145.643	19.208	1254.764	959.125
146.658	19.043	1253.694	957.306
147.673	18.934	1252.044	955.351
148.687	18.856	1250.750	953.846
149.702	18.749	1249.315	952.078
150.716	18.820	1248.224	951.552
151.731	18.632	1247.495	949.872
152.746	18.696	1245.762	948.822
153.760	18.881	1244.662	948.924
154.775	18.923	1244.205	948.721
155.789	19.011	1243.141	948.315
156.804	18.962	1242.115	947.175
157.819	19.100	1240.918	946.941
158.833	19.183	1239.912	946.542
159.848	19.268	1239.389	946.527
160.862	19.300	1238.316	945.802
161.877	19.054	1236.715	943.147
162.892	18.841	1235.751	941.159
163.906	18.800	1235.004	940.282
164.921	18.724	1234.058	939.062
165.935	19.010	1233.019	939.753
166.950	18.991	1232.231	938.965
167.964	19.046	1231.792	938.851
168.979	18.845	1230.989	937.055
169.994	18.815	1230.776	936.646
171.008	19.059	1229.760	937.122
172.023	19.082	1228.896	936.507
173.037	19.241	1228.277	936.815
174.052	19.270	1227.084	935.981
175.067	18.956	1226.280	933.581
176.081	18.819	1224.983	931.768
177.096	18.762	1224.014	930.639
178.110	18.899	1223.371	930.811
179.125	18.915	1221.972	929.751
180.140	19.064	1220.539	929.383
181.154	19.125	1219.763	929.037
182.169	19.193	1218.508	928.364
183.183	19.235	1217.549	927.778
184.198	19.248	1216.967	927.322
185.213	19.240	1215.407	926.011
186.227	19.380	1214.337	925.864
187.242	19.403	1213.039	924.917
188.256	19.534	1212.072	924.796
189.271	19.462	1211.408	923.827
190.286	19.286	1210.232	921.904
191.300	18.920	1209.094	919.000
192.315	18.697	1208.307	917.128
193.329	18.780	1207.982	917.244
194.344	19.010	1207.117	917.736
195.359	19.161	1206.449	917.951
196.373	19.078	1206.454	917.428
197.388	19.276	1206.027	918.079
198.402	19.431	1205.484	918.411
199.417	19.538	1205.385	918.821
200.432	19.668	1204.550	918.798
201.446	19.668	1203.890	918.212
202.461	19.784	1202.993	918.062
203.475	19.675	1202.289	916.864
204.490	19.622	1200.778	915.353
205.504	19.457	1199.293	913.264
206.519	19.473	1197.823	912.149
207.534	19.291	1196.975	910.464
208.548	19.385	1195.822	910.002
209.563	19.382	1195.267	909.479
210.577	19.396	1194.451	908.852
211.592	19.556	1193.302	908.742
212.607	19.676	1192.759	908.878
213.621	19.635	1192.103	908.082
214.636	19.580	1190.993	906.868
215.650	19.648	1189.748	906.194
216.665	19.873	1188.785	906.563
217.680	19.904	1188.189	906.190
218.694	19.934	1187.833	905.996
219.709	19.835	1186.759	904.579
220.723	19.850	1186.124	904.093
221.738	19.744	1185.514	902.994
222.753	19.729	1184.725	902.234
223.767	19.803	1183.919	901.926
224.782	20.001	1183.443	902.516
225.796	20.078	1182.941	902.456
226.811	19.873	1182.506	900.973
227.826	19.761	1181.456	899.513
228.840	19.793	1180.379	898.778
229.855	19.766	1179.645	898.001
230.869	19.757	1178.662	897.127
231.884	19.656	1178.131	896.120
232.899	19.621	1177.129	895.096
233.913	19.534	1176.514	894.098
234.928	19.522	1175.681	893.324
235.942	19.515	1174.473	892.293
236.957	19.552	1174.087	892.112
237.972	19.515	1173.381	891.303
238.986	19.495	1173.064	890.883
240.001	19.498	1172.302	890.238
241.015	19.630	1171.222	890.022
242.030	19.697	1170.531	889.761
243.045	19.750	1169.719	889.338
244.059	19.845	1168.688	888.963
245.074	19.914	1168.018	888.729
246.088	19.977	1167.135	888.300
247.103	19.981	1166.930	888.088
248.117	20.075	1166.121	887.876
249.132	20.255	1165.838	888.504
250.147	20.396	1165.023	888.527
251.161	20.554	1164.307	888.707
252.176	20.664	1163.649	888.692
253.190	20.632	1163.239	888.135
254.205	20.587	1163.314	887.884
255.220	20.749	1162.138	887.735
256.234	20.625	1161.537	886.566
257.249	20.672	1160.463	885.902
258.263	20.612	1160.047	885.204
259.278	20.575	1159.819	884.763
260.293	20.615	1158.670	884.009
261.307	20.755	1158.208	884.292
262.322	20.738	1157.684	883.728
263.336	20.644	1157.136	882.752
264.351	20.783	1156.274	882.722
265.366	20.770	1155.483	881.974
266.380	20.768	1155.404	881.825
267.395	20.631	1154.300	880.211
268.409	20.453	1153.137	878.347
269.424	20.627	1152.598	878.739
270.439	20.503	1152.439	877.912
271.453	20.562	1151.294	877.260
272.468	20.423	1150.288	875.714
273.482	20.344	1149.642	874.749
274.497	20.489	1149.041	874.943
275.512	20.557	1147.931	874.362
276.526	20.491	1147.522	873.645
277.541	20.545	1146.608	873.140
278.555	20.623	1146.085	873.059
279.570	20.725	1145.767	873.247
280.585	20.760	1145.143	872.871
281.599	20.856	1143.795	872.247
282.614	20.798	1142.774	871.104
283.628	20.597	1141.594	869.122
284.643	20.514	1141.033	868.202
285.657	20.664	1139.910	868.019
286.672	20.674	1138.908	867.228
287.687	20.815	1137.832	867.036
288.701	20.633	1137.332	865.671
289.716	20.640	1136.702	865.152
290.730	20.737	1135.661	864.764
291.745	20.741	1135.111	864.291
292.760	20.705	1134.958	863.915
293.774	20.871	1134.360	864.211
294.789	20.922	1134.111	864.195
295.803	20.875	1133.113	863.125
296.818	20.917	1131.968	862.386
297.833	20.766	1131.532	861.228
298.847	20.713	1130.628	860.206
299.862	20.791	1129.928	859.980
300.876	20.742	1129.285	859.171
301.891	20.862	1128.920	859.412
302.906	20.967	1128.148	859.266
303.920	21.113	1127.417	859.353
304.935	21.170	1126.760	859.057
305.949	21.281	1126.439	859.280
306.964	21.287	1125.637	858.621
307.979	21.171	1124.841	857.367
308.993	21.133	1124.132	856.568
310.008	21.171	1123.188	855.958
311.022	21.340	1122.374	856.088
312.037	21.143	1121.890	854.681
313.052	21.101	1120.545	853.376
314.066	20.989	1119.405	851.884
315.081	20.856	1118.463	850.440
316.095	20.878	1117.608	849.825
317.110	20.924	1117.214	849.673
318.125	20.840	1116.493	848.639
319.139	20.776	1116.143	847.987
320.154	20.917	1115.526	848.130
321.168	20.826	1114.925	847.155
322.183	21.009	1113.892	847.184
323.197	20.912	1113.311	846.198
324.212	20.991	1113.031	846.292
325.227	21.021	1112.626	846.058
326.241	20.943	1112.059	845.171
327.256	20.955	1111.236	844.528
328.270	20.900	1109.852	843.136
329.285	20.971	1108.775	842.589
330.300	20.946	1108.196	841.949
331.314	20.939	1107.366	841.214
332.329	21.095	1106.359	841.126
333.343	21.102	1105.266	840.255
334.358	21.194	1104.578	840.098
335.373	21.184	1104.250	839.725
336.387	21.194	1103.256	838.944
337.402	21.271	1102.618	838.755
338.416	21.507	1102.031	839.367
339.431	21.352	1101.739	838.328
340.446	21.482	1101.155	838.431
341.460	21.519	1100.672	838.165
342.475	21.750	1099.503	838.307
343.489	21.706	1098.491	837.250
344.504	21.882	1097.559	837.305
345.519	21.895	1096.723	836.655
346.533	21.789	1096.248	835.718
347.548	21.945	1095.612	835.898
348.562	21.868	1094.790	834.832
349.577	21.660	1093.716	832.949
350.592	21.537	1092.749	831.558
351.606	21.361	1092.228	830.249
352.621	21.454	1091.508	830.071
353.635	21.422	1090.621	829.170
354.650	21.392	1089.859	828.378
355.665	21.463	1089.299	828.215
356.679	21.450	1088.764	827.671
357.694	21.415	1088.550	827.268
358.708	21.659	1087.703	827.708
359.723	21.495	1087.521	826.718
360.738	21.561	1086.946	826.521
361.752	21.544	1086.430	825.974
362.767	21.758	1085.369	826.105
363.781	21.586	1085.019	824.955
364.796	21.831	1084.227	825.433
365.810	21.894	1083.868	825.381
366.825	22.091	1083.156	825.695
367.840	22.258	1082.646	826.017
368.854	22.254	1082.182	825.570
369.869	22.168	1081.764	824.775
370.883	22.073	1080.747	823.483
371.898	21.907	1079.989	822.052
372.913	21.890	1079.083	821.211
373.927	22.069	1078.817	821.775
374.942	22.162	1078.484	821.881
375.956	22.120	1077.780	821.079
376.971	22.020	1077.147	820.056
377.986	22.167	1076.213	819.958
379.000	22.258	1076.304	820.378
380.015	22.265	1075.805	819.959
381.029	22.339	1075.187	819.760
382.044	22.419	1074.093	819.224
383.059	22.320	1073.268	818.064
384.073	22.397	1072.755	817.955
385.088	22.362	1071.878	817.052
386.102	22.227	1070.907	815.615
387.117	22.189	1069.767	814.499
388.132	22.121	1068.421	813.087
389.146	22.034	1068.310	812.526
390.161	21.953	1067.564	811.514
391.175	22.103	1066.740	811.509
392.190	22.159	1066.085	811.198
393.205	22.327	1065.106	811.156
394.219	22.176	1064.788	810.145
395.234	22.227	1063.592	809.398
396.248	22.196	1062.151	808.088
397.263	21.990	1061.980	806.941
398.278	21.966	1060.781	805.847
399.292	22.050	1060.080	805.630
400.307	21.894	1059.564	804.450
401.321	21.867	1058.981	803.812
402.336	21.831	1058.129	802.928
403.350	21.933	1057.270	802.673
404.365	22.113	1056.865	803.116
405.380	22.088	1056.356	802.547
406.394	22.015	1055.752	801.681
407.409	22.325	1054.691	802.219
408.423	22.506	1054.323	802.695
409.438	22.443	1054.027	802.110
410.453	22.449	1053.436	801.619
411.467	22.650	1052.218	801.534
412.482	22.704	1051.796	801.384
413.496	22.694	1050.918	800.602
414.511	22.780	1050.314	800.460
415.526	22.870	1050.060	800.603
416.540	22.912	1049.668	800.422
417.555	22.893	1049.265	799.960
418.569	22.674	1048.642	798.424
419.584	22.777	1047.749	798.137
420.599	22.819	1047.638	798.171
421.613	154.737	1400.581	1789.121
422.628	141.887	1452.007	1789.241
