DTS Sentinel unit serial number:	SN413079Multiplexer serial number:	ORYXHardware model number:	OX4-SRSoftware version number:	ORYX F/W v4.00 Oryx Data Collector v3.7.2.0data status	okinstallation	princeton_trtdifferential loss correction	single-endedforward channel	channel 2reverse channel	N/Adate	2019/09/12time	23:47:34forward acquisition time	60.00reverse acquisition time	0.00gamma	496.2192k internal	0.2332k external	0.2332temperature offset calibration	1.0175default loss term (dB/km)	0.3790temperature slope calibration	1.0000multiplexer offset coefficient	1.0000multiplexer slope coefficient	1.0000fibre end	0.00T internal ref (°C)	28.80T ext. ref 1 (°C)	3.78T ext. ref 2 (°C)	23.54length (m)	temperature (°C)	Stokes	anti-Stokes-747.200	271.731	-0.064	0.113
-746.185	103.278	0.226	0.267
-745.171	144.577	0.170	-0.229
-744.156	-128.365	-0.077	-0.011
-743.142	-82.654	-0.156	0.051
-742.127	181.281	0.073	0.108
-741.112	53.312	-0.059	-0.057
-740.098	218.076	-0.198	0.318
-739.083	-167.196	0.274	0.011
-738.069	800.000	-0.068	0.264
-737.054	723.982	0.137	0.367
-736.039	-174.378	-0.347	0.010
-735.025	-169.029	-0.165	-0.006
-734.010	800.000	-0.044	0.185
-732.996	40.370	0.099	-0.090
-731.981	-81.793	-0.072	-0.024
-730.966	92.566	0.095	0.108
-729.952	800.000	0.030	-0.116
-728.937	207.452	-0.107	0.167
-727.923	231.386	0.145	-0.239
-726.908	800.000	0.056	-0.228
-725.894	-200.000	-0.288	-0.000
-724.879	-65.959	-0.074	0.030
-723.864	-92.915	0.132	-0.037
-722.850	20.118	-0.137	-0.111
-721.835	-95.651	-0.081	-0.022
-720.821	-46.459	0.120	-0.059
-719.806	-90.101	-0.237	0.069
-718.791	175.148	-0.239	0.348
-717.777	26.407	-0.172	-0.145
-716.762	-55.844	-0.279	-0.125
-715.748	-94.822	0.318	0.087
-714.733	-200.000	-0.006	-0.057
-713.718	-97.914	0.043	-0.011
-712.704	-105.456	0.097	-0.022
-711.689	-200.000	-0.042	-0.190
-710.675	-146.363	-0.182	-0.016
-709.660	268.550	0.186	0.328
-708.645	159.873	-0.081	0.113
-707.631	-80.253	0.196	-0.066
-706.616	241.814	0.087	-0.145
-705.602	-187.718	0.088	0.001
-704.587	328.264	0.109	0.210
-703.572	-156.379	0.479	0.030
-702.558	-182.540	-0.100	0.002
-701.543	747.146	0.130	-0.351
-700.529	510.909	-0.079	-0.184
-699.514	-200.000	0.005	0.198
-698.499	-79.361	0.279	0.095
-697.485	103.048	-0.285	0.335
-696.470	800.000	0.027	-0.111
-695.456	-92.296	0.193	0.055
-694.441	-130.516	-0.246	-0.033
-693.426	-68.508	0.223	-0.087
-692.412	-16.245	-0.137	0.087
-691.397	-5.454	-0.106	-0.073
-690.383	-200.000	-0.028	0.212
-689.368	-81.419	-0.316	-0.104
-688.354	-200.000	-0.021	-0.202
-687.339	-149.940	-0.369	0.029
-686.324	800.000	0.079	-0.222
-685.310	-103.645	0.146	0.034
-684.295	142.479	0.193	-0.258
-683.281	362.775	0.005	-0.010
-682.266	2.753	-0.143	0.104
-681.251	-112.261	0.147	-0.030
-680.237	-200.000	0.025	0.439
-679.222	-72.123	-0.161	-0.060
-678.208	381.304	-0.076	0.156
-677.193	342.294	0.047	0.093
-676.178	462.273	0.049	0.110
-675.164	-15.181	-0.266	-0.171
-674.149	-127.227	-0.133	-0.020
-673.135	-102.398	-0.046	0.011
-672.120	-167.583	0.157	0.006
-671.105	-105.944	-0.045	0.010
-670.091	-100.187	0.242	0.060
-669.076	-16.735	-0.184	0.117
-668.062	-58.945	0.068	0.030
-667.047	-116.729	-0.196	0.036
-666.032	-150.986	-0.166	-0.013
-665.018	15.513	0.031	0.025
-664.003	-19.679	-0.196	-0.122
-662.989	191.064	-0.111	-0.167
-661.974	-79.263	0.030	-0.010
-660.959	-158.848	0.347	0.020
-659.945	-27.124	-0.277	-0.162
-658.930	800.000	-0.102	-0.297
-657.916	-60.756	0.096	-0.041
-656.901	-100.684	0.359	0.089
-655.886	284.140	-0.152	0.274
-654.872	800.000	0.111	-0.313
-653.857	497.773	-0.108	-0.249
-652.843	161.764	-0.274	-0.384
-651.828	-200.000	0.032	0.282
-650.814	97.513	-0.016	0.019
-649.799	-169.783	-0.015	-0.001
-648.784	-2.107	-0.225	0.158
-647.770	113.973	0.189	0.230
-646.755	-8.714	0.086	0.058
-645.741	800.000	-0.073	-0.224
-644.726	800.000	-0.009	0.030
-643.711	-200.000	0.035	-0.268
-642.697	-26.982	-0.098	0.058
-641.682	800.000	0.046	-0.145
-640.668	48.999	0.289	-0.272
-639.653	633.309	-0.037	-0.094
-638.638	-200.000	0.014	-0.078
-637.624	-41.638	-0.255	-0.131
-636.609	-145.117	-0.193	-0.018
-635.595	-32.355	-0.172	0.096
-634.580	-101.380	0.245	0.060
-633.565	-200.000	-0.036	0.276
-632.551	233.112	0.039	-0.064
-631.536	180.323	0.047	0.068
-630.522	253.021	-0.088	-0.150
-629.507	800.000	-0.041	0.148
-628.492	236.633	-0.122	0.202
-627.478	-60.100	0.267	0.114
-626.463	404.294	0.034	0.072
-625.449	105.356	0.085	-0.100
-624.434	28.606	-0.164	0.139
-623.419	148.247	-0.097	-0.131
-622.405	-21.658	-0.387	-0.236
-621.390	-200.000	0.022	-0.152
-620.376	5.489	0.165	-0.122
-619.361	-136.964	-0.211	0.024
-618.346	69.342	0.081	-0.083
-617.332	-200.000	0.004	-0.049
-616.317	800.000	0.033	-0.095
-615.303	-200.000	-0.014	-0.067
-614.288	13.661	-0.095	0.074
-613.273	-160.361	-0.265	0.014
-612.259	-75.029	0.332	-0.119
-611.244	-78.664	0.296	0.101
-610.230	-39.487	0.108	-0.057
-609.215	262.479	0.074	0.128
-608.201	123.794	0.109	-0.137
-607.186	7.175	-0.167	-0.125
-606.171	-11.648	-0.120	0.079
-605.157	220.536	-0.191	0.306
-604.142	448.721	0.124	0.272
-603.128	-167.287	-0.241	-0.010
-602.113	452.247	-0.113	-0.251
-601.098	207.209	-0.328	-0.512
-600.084	276.095	-0.145	-0.257
-599.069	24.975	0.259	-0.215
-598.055	-55.651	-0.120	-0.054
-597.040	697.815	0.045	0.117
-596.025	-65.795	-0.053	-0.021
-595.011	61.851	0.291	-0.290
-593.996	139.596	0.041	-0.054
-592.982	-73.065	0.044	0.016
-591.967	384.457	0.105	-0.216
-590.952	-156.821	-0.120	-0.007
-589.938	57.757	-0.251	0.245
-588.923	150.752	0.207	0.282
-587.909	92.807	0.153	0.173
-586.894	-54.530	0.131	0.059
-585.879	-117.135	-0.165	0.030
-584.865	-80.372	-0.269	-0.090
-583.850	-200.000	0.034	0.177
-582.836	638.092	-0.062	0.157
-581.821	-50.399	0.105	-0.049
-580.806	-61.997	-0.241	-0.101
-579.792	0.263	-0.057	0.040
-578.777	111.098	0.206	-0.248
-577.763	-200.000	-0.074	-0.423
-576.748	16.411	0.113	-0.090
-575.733	155.266	-0.205	0.282
-574.719	-55.415	-0.245	-0.110
-573.704	568.794	-0.113	-0.276
-572.690	223.144	-0.114	-0.184
-571.675	-25.871	0.153	0.090
-570.661	800.000	-0.021	0.074
-569.646	125.681	0.062	0.078
-568.631	41.315	0.018	-0.016
-567.617	-200.000	0.026	-0.244
-566.602	51.266	0.262	0.249
-565.588	-200.000	-0.061	0.314
-564.573	-112.199	-0.237	-0.048
-563.558	800.000	-0.042	-0.142
-562.544	-190.369	0.222	0.002
-561.529	-119.366	-0.130	-0.023
-560.515	-174.393	0.230	-0.007
-559.500	155.385	-0.229	-0.315
-558.485	-2.046	0.038	0.027
-557.471	22.546	-0.104	0.085
-556.456	-73.206	0.261	0.095
-555.442	23.622	0.137	0.112
-554.427	800.000	-0.128	0.423
-553.412	-13.143	0.050	0.033
-552.398	800.000	0.028	-0.082
-551.383	-81.019	0.309	0.102
-550.369	-171.321	0.207	-0.007
-549.354	800.000	0.109	0.438
-548.339	51.693	0.304	0.288
-547.325	-183.169	0.100	0.002
-546.310	-172.170	-0.265	0.009
-545.296	-200.000	0.030	-0.147
-544.281	191.522	-0.020	0.029
-543.266	393.402	0.149	-0.310
-542.252	-30.062	-0.161	-0.091
-541.237	800.000	0.092	-0.299
-540.223	-200.000	0.043	0.217
-539.208	-35.303	-0.376	-0.204
-538.193	-38.104	0.143	0.076
-537.179	405.574	0.004	-0.007
-536.164	468.399	0.123	-0.276
-535.150	800.000	-0.061	-0.247
-534.135	-109.661	0.112	-0.024
-533.121	74.693	-0.199	0.209
-532.106	-200.000	-0.024	0.290
-531.091	-200.000	-0.007	-0.163
-530.077	-200.000	-0.055	0.310
-529.062	-8.667	-0.181	0.121
-528.048	11.520	-0.148	0.113
-527.033	-200.000	0.051	0.273
-526.018	-200.000	0.024	-0.229
-525.004	24.404	-0.101	-0.083
-523.989	-114.202	-0.233	0.045
-522.975	-19.901	-0.189	0.116
-521.960	-143.925	0.286	0.027
-520.945	-51.463	0.132	-0.061
-519.931	-200.000	-0.055	-0.376
-518.916	-14.456	0.251	-0.161
-517.902	484.085	0.088	0.200
-516.887	-200.000	0.004	-0.301
-515.872	800.000	-0.048	-0.149
-514.858	-85.596	-0.069	-0.021
-513.843	-54.291	-0.213	-0.096
-512.829	105.906	-0.218	-0.257
-511.814	-42.434	-0.207	-0.105
-510.799	193.333	0.118	-0.177
-509.785	-200.000	0.017	-0.289
-508.770	315.591	-0.048	-0.091
-507.756	82.934	-0.243	0.263
-506.741	525.643	0.068	0.159
-505.726	-200.000	0.007	0.087
-504.712	234.882	-0.069	0.113
-503.697	-80.381	-0.269	-0.090
-502.683	-200.000	0.002	-0.095
-501.668	800.000	0.055	-0.211
-500.653	-200.000	0.020	-0.159
-499.639	606.691	-0.041	0.102
-498.624	-55.687	-0.252	-0.112
-497.610	476.665	0.056	-0.127
-496.595	673.794	0.010	-0.025
-495.581	-200.000	0.014	-0.201
-494.566	126.697	-0.015	-0.019
-493.551	136.582	0.213	-0.277
-492.537	-39.468	0.106	-0.055
-491.522	-200.000	-0.023	0.258
-490.508	-152.954	-0.257	0.018
-489.493	610.216	-0.045	0.111
-488.478	595.781	-0.153	0.378
-487.464	238.460	-0.099	-0.163
-486.449	-84.875	0.282	0.088
-485.435	-200.000	0.050	-0.221
-484.420	118.448	0.237	0.291
-483.405	633.685	0.155	0.392
-482.391	44.005	-0.128	0.117
-481.376	-200.000	0.057	-0.470
-480.362	-111.183	-0.084	-0.017
-479.347	-138.976	0.053	0.006
-478.332	33.855	-0.091	0.079
-477.318	-143.060	-0.079	0.008
-476.303	57.586	0.164	0.159
-475.289	611.579	0.017	0.042
-474.274	-74.986	-0.112	-0.040
-473.259	-109.149	-0.035	0.007
-472.245	224.266	0.125	-0.201
-471.230	424.127	0.120	0.256
-470.216	-200.000	0.015	-0.191
-469.201	-143.613	0.139	0.013
-468.186	-61.127	0.144	-0.060
-467.172	-76.305	0.233	-0.082
-466.157	-75.537	0.323	-0.114
-465.143	-186.171	0.058	-0.001
-464.128	5.310	0.091	0.067
-463.113	16.634	0.303	0.239
-462.099	-200.000	0.011	0.186
-461.084	-92.834	-0.185	0.052
-460.070	-103.747	0.288	0.067
-459.055	-200.000	0.325	-0.001
-458.040	144.653	-0.047	0.063
-457.026	-200.000	-0.008	0.044
-456.011	-53.982	-0.087	0.040
-454.997	-80.357	-0.178	0.059
-453.982	800.000	0.071	0.200
-452.968	-200.000	-0.051	-0.290
-451.953	213.578	0.105	-0.165
-450.938	78.089	-0.181	0.192
-449.924	530.833	0.074	-0.175
-448.909	-200.000	-0.044	-0.231
-447.895	262.537	-0.154	0.266
-446.880	-200.000	0.004	-0.087
-445.865	-37.362	-0.246	-0.131
-444.851	22.978	-0.199	-0.163
-443.836	-68.262	-0.127	0.049
-442.822	226.500	0.209	-0.338
-441.807	800.000	0.014	0.060
-440.792	205.010	0.110	0.170
-439.778	-71.674	-0.094	-0.035
-438.763	381.878	-0.073	0.148
-437.749	-200.000	-0.044	0.251
-436.734	-101.631	0.027	-0.007
-435.719	-34.094	-0.140	0.076
-434.705	60.180	-0.082	0.081
-433.690	252.721	0.039	0.067
-432.676	116.199	0.131	0.160
-431.661	716.236	0.116	0.305
-430.646	-111.572	-0.272	-0.055
-429.632	517.842	0.060	0.140
-428.617	36.667	-0.076	0.066
-427.603	-200.000	0.012	0.125
-426.588	177.177	0.217	0.314
-425.573	162.037	0.094	-0.131
-424.559	149.359	0.170	-0.228
-423.544	-12.283	0.194	0.126
-422.530	-193.443	-0.114	-0.001
-421.515	-200.000	-0.043	-0.271
-420.500	-90.725	0.395	-0.113
-419.486	-59.777	0.279	-0.119
-418.471	-112.896	-0.229	0.045
-417.457	-53.240	0.071	0.032
-416.442	-57.321	-0.322	0.141
-415.428	-166.253	-0.134	0.006
-414.413	-200.000	-0.017	-0.106
-413.398	800.000	-0.087	-0.314
-412.384	73.063	0.183	-0.190
-411.369	676.834	-0.054	0.140
-410.355	127.017	-0.040	0.051
-409.340	-200.000	-0.044	0.373
-408.325	800.000	-0.073	0.301
-407.311	-67.389	0.324	-0.126
-406.296	388.658	0.123	-0.252
-405.282	90.427	0.087	0.097
-404.267	15.049	-0.303	-0.235
-403.252	-52.053	0.230	0.106
-402.238	-21.413	0.206	-0.125
-401.223	-71.978	-0.343	0.127
-400.209	800.000	0.097	-0.365
-399.194	283.317	-0.188	0.335
-398.179	133.861	-0.114	-0.146
-397.165	-37.302	0.149	0.079
-396.150	-56.370	0.194	0.086
-395.136	-92.268	-0.176	-0.049
-394.121	-14.198	-0.176	-0.113
-393.106	-200.000	0.044	-0.271
-392.092	-123.495	0.302	0.048
-391.077	-200.000	-0.005	0.158
-390.063	-67.153	0.379	-0.148
-389.048	-177.290	-0.114	0.003
-388.033	-200.000	-0.018	0.216
-387.019	-197.326	-0.138	0.001
-386.004	-59.380	-0.215	-0.092
-384.990	-200.000	-0.019	0.100
-383.975	286.772	0.129	0.231
-382.960	-105.565	0.168	-0.038
-381.946	-200.000	-0.063	-0.366
-380.931	-59.968	-0.164	-0.070
-379.917	-90.552	-0.306	0.088
-378.902	382.356	0.040	0.081
-377.888	87.225	0.139	-0.153
-376.873	278.730	-0.123	-0.218
-375.858	382.907	0.116	-0.236
-374.844	800.000	0.059	-0.193
-373.829	72.575	0.107	-0.111
-372.815	800.000	0.032	-0.136
-371.800	-200.000	-0.023	-0.133
-370.785	-200.000	0.022	0.264
-369.771	-85.274	0.087	0.027
-368.756	86.712	0.105	-0.115
-367.742	-3.688	0.388	0.267
-366.727	-96.535	0.188	0.049
-365.712	800.000	0.062	-0.195
-364.698	-130.249	-0.279	0.038
-363.683	-184.709	-0.246	0.004
-362.669	-66.995	-0.141	0.055
-361.654	100.144	0.027	-0.032
-360.639	-200.000	0.014	-0.109
-359.625	-19.364	-0.455	0.280
-358.610	-161.489	0.114	-0.006
-357.596	800.000	-0.084	0.231
-356.581	-39.596	-0.088	-0.046
-355.566	8.547	0.109	0.082
-354.552	-73.595	-0.260	-0.094
-353.537	-112.812	0.114	0.022
-352.523	40.173	-0.121	-0.108
-351.508	-130.512	0.322	0.043
-350.493	-122.232	0.227	-0.037
-349.479	-200.000	-0.030	-0.197
-348.464	37.352	0.130	0.114
-347.450	240.615	0.155	0.255
-346.435	-200.000	-0.038	0.397
-345.420	-200.000	-0.030	-0.211
-344.406	-92.743	0.471	-0.131
-343.391	182.324	-0.069	-0.101
-342.377	148.774	0.138	0.184
-341.362	0.219	-0.145	0.102
-340.348	78.921	0.010	0.011
-339.333	232.274	0.113	-0.183
-338.318	800.000	-0.026	-0.106
-337.304	-168.735	0.292	-0.011
-336.289	266.266	0.261	0.452
-335.275	-200.000	-0.023	-0.198
-334.260	228.841	-0.045	-0.073
-333.245	39.044	0.272	0.240
-332.231	-178.834	-0.390	-0.009
-331.216	289.407	0.134	-0.241
-330.202	66.301	0.093	-0.094
-329.187	191.575	0.060	0.089
-328.172	522.009	0.061	0.141
-327.158	-161.427	-0.326	0.017
-326.143	-13.596	0.202	-0.129
-325.129	-200.000	-0.043	0.241
-324.114	-71.635	0.222	0.082
-323.099	-40.816	0.347	-0.178
-322.085	-147.804	-0.296	-0.024
-321.070	-116.837	0.127	0.023
-320.056	-200.000	-0.181	0.000
-319.041	-200.000	-0.026	-0.142
-318.026	-200.000	-0.053	0.246
-317.012	-200.000	-0.002	0.265
-315.997	-114.508	-0.227	-0.043
-314.983	-107.405	-0.384	-0.083
-313.968	-1.569	-0.094	0.066
-312.953	-14.739	0.176	0.112
-311.939	422.145	-0.107	0.227
-310.924	34.540	-0.126	0.109
-309.910	-200.000	-0.066	0.409
-308.895	-47.191	-0.199	0.096
-307.880	125.681	0.157	0.197
-306.866	694.876	0.040	0.104
-305.851	130.907	0.138	0.176
-304.837	-104.315	0.229	-0.053
-303.822	800.000	0.054	-0.201
-302.807	152.439	0.166	0.224
-301.793	-200.000	-0.019	-0.250
-300.778	53.893	-0.336	-0.319
-299.764	340.236	0.180	-0.348
-298.749	720.567	0.080	-0.211
-297.735	249.682	0.042	0.070
-296.720	0.374	-0.076	-0.053
-295.705	125.393	0.234	-0.292
-294.691	-98.861	0.102	0.026
-293.676	445.756	-0.117	-0.253
-292.662	552.200	0.101	-0.241
-291.647	-68.702	-0.173	0.066
-290.632	82.587	-0.058	-0.062
-289.618	800.000	0.107	-0.360
-288.603	-105.623	-0.363	-0.081
-287.589	311.114	-0.078	-0.145
-286.574	-200.000	0.031	0.167
-285.559	-137.014	0.332	-0.038
-284.545	463.228	-0.089	-0.196
-283.530	-16.966	-0.249	0.155
-282.516	-64.602	0.250	-0.100
-281.501	0.012	0.249	0.175
-280.486	-200.000	-0.018	0.226
-279.472	788.614	0.062	0.167
-278.457	727.788	-0.100	-0.263
-277.443	90.752	-0.170	0.189
-276.428	-80.515	-0.446	0.147
-275.413	27.274	-0.366	0.304
-274.399	-28.518	0.054	-0.031
-273.384	-200.000	0.026	0.136
-272.370	800.000	0.118	0.374
-271.355	-13.814	0.207	-0.132
-270.340	189.624	-0.204	0.302
-269.326	-114.126	-0.129	-0.025
-268.311	90.973	0.359	-0.397
-267.297	24.141	0.208	0.170
-266.282	800.000	-0.056	0.216
-265.267	751.455	0.039	-0.103
-264.253	-93.498	0.140	0.038
-263.238	-200.000	-0.029	-0.333
-262.224	-15.675	-0.269	-0.169
-261.209	-28.957	0.310	-0.176
-260.195	289.428	0.031	-0.055
-259.180	-42.835	0.176	-0.088
-258.165	93.472	-0.182	0.203
-257.151	-124.994	0.196	0.030
-256.136	-200.000	0.006	0.068
-255.122	-200.000	-0.021	-0.136
-254.107	-81.348	-0.147	0.048
-253.092	304.528	0.171	0.312
-252.078	671.993	-0.088	0.224
-251.063	1.807	0.147	-0.105
-250.049	112.618	-0.082	-0.098
-249.034	-200.000	0.010	0.078
-248.019	-77.877	-0.138	0.047
-247.005	-200.000	0.010	0.243
-245.990	800.000	-0.166	0.572
-244.976	800.000	0.005	0.014
-243.961	29.904	0.071	0.060
-242.946	55.692	0.301	0.288
-241.932	800.000	-0.119	0.439
-240.917	95.722	0.116	0.130
-239.903	210.160	0.199	0.309
-238.888	800.000	-0.019	0.052
-237.873	800.000	0.044	-0.131
-236.859	-137.918	-0.131	-0.014
-235.844	-16.768	-0.124	-0.078
-234.830	-179.762	0.238	-0.005
-233.815	564.069	0.039	-0.094
-232.800	-167.118	-0.240	0.010
-231.786	800.000	0.019	-0.068
-230.771	-168.284	0.344	-0.013
-229.757	215.028	0.061	-0.096
-228.742	233.644	-0.141	-0.230
-227.727	-83.944	0.050	-0.016
-226.713	85.701	-0.050	-0.054
-225.698	-96.726	-0.348	-0.090
-224.684	543.537	-0.017	0.039
-223.669	446.037	-0.161	0.349
-222.655	240.096	0.062	0.102
-221.640	-47.214	0.144	0.069
-220.625	-200.000	-0.014	0.089
-219.611	800.000	0.093	-0.279
-218.596	-84.131	-0.347	0.108
-217.582	-84.656	0.026	-0.008
-216.567	-56.292	-0.125	-0.055
-215.552	-200.000	-0.048	0.286
-214.538	-200.000	-0.045	-0.211
-213.523	-101.288	0.147	-0.035
-212.509	-168.255	-0.260	0.010
-211.494	4.541	-0.270	0.195
-210.479	46.534	0.189	-0.173
-209.465	-19.269	-0.210	0.128
-208.450	4.592	0.081	0.059
-207.436	-200.000	0.011	-0.160
-206.421	-73.895	-0.096	0.034
-205.406	167.985	-0.159	-0.223
-204.392	800.000	0.038	0.129
-203.377	196.522	0.054	-0.081
-202.363	1.306	0.238	0.168
-201.348	800.000	-0.006	0.017
-200.333	172.892	0.020	0.028
-199.319	-147.607	0.178	0.015
-198.304	-47.478	-0.206	0.099
-197.290	-114.561	-0.110	-0.021
-196.275	-124.780	-0.369	0.056
-195.260	62.476	0.123	0.121
-194.246	102.651	0.156	0.180
-193.231	-125.725	-0.232	-0.035
-192.217	-200.000	0.002	0.177
-191.202	120.502	-0.021	0.026
-190.187	-138.475	-0.360	0.039
-189.173	-103.005	-0.341	-0.080
-188.158	-128.130	-0.244	0.034
-187.144	-76.826	0.129	-0.045
-186.129	412.282	0.030	-0.063
-185.114	-119.591	0.203	0.035
-184.100	43.711	-0.100	-0.090
-183.085	501.315	0.114	-0.258
-182.071	-101.330	0.114	0.027
-181.056	-200.000	0.013	0.259
-180.042	210.399	-0.173	-0.267
-179.027	-200.000	-0.045	-0.223
-178.012	-124.695	-0.265	-0.040
-176.998	-121.370	0.263	0.043
-175.983	8.145	-0.159	-0.117
-174.969	-178.241	-0.163	0.004
-173.954	-200.000	0.012	-0.213
-172.939	800.000	0.009	0.034
-171.925	-120.250	0.146	0.024
-170.910	-20.269	0.134	0.081
-169.896	741.375	-0.045	-0.118
-168.881	-159.258	0.088	-0.005
-167.866	-46.997	0.110	0.053
-166.852	-126.366	0.132	0.019
-165.837	6.816	0.073	0.054
-164.823	-200.000	-0.010	0.235
-163.808	17.006	0.094	0.073
-162.793	212.405	0.083	0.129
-161.779	-57.635	0.198	0.085
-160.764	14.060	-0.097	0.074
-159.750	436.621	-0.156	-0.335
-158.735	-200.000	0.010	0.046
-157.720	15.360	-0.174	-0.134
-156.706	167.228	-0.168	-0.234
-155.691	-1.940	-0.192	-0.133
-154.677	-200.000	-0.064	0.521
-153.662	-169.782	0.315	-0.011
-152.647	461.587	0.115	-0.252
-151.633	-200.000	0.021	-0.413
-150.618	-48.515	-0.185	-0.087
-149.604	-99.964	0.342	-0.084
-148.589	25.978	0.292	0.240
-147.574	-29.775	-0.166	0.093
-146.560	2.214	-0.416	0.296
-145.545	15.900	0.469	-0.363
-144.531	-63.443	-0.361	-0.146
-143.516	-93.156	0.261	0.071
-142.502	-8.297	-0.116	-0.076
-141.487	104.556	-0.120	0.138
-140.472	19.552	-0.196	-0.155
-139.458	64.481	0.266	0.264
-138.443	327.936	-0.122	0.230
-137.429	87.238	0.241	0.262
-136.414	-89.197	-0.048	0.014
-135.399	171.649	-0.126	0.177
-134.385	277.371	0.202	-0.353
-133.370	-200.000	-0.065	-0.370
-132.356	64.818	0.107	-0.106
-131.341	153.304	0.143	0.192
-130.326	-109.571	0.199	-0.041
-129.312	52.099	-0.079	0.074
-128.297	-83.145	0.139	0.044
-127.283	477.064	-0.016	0.037
-126.268	-125.075	0.143	-0.022
-125.253	-200.000	-0.019	0.311
-124.239	800.000	-0.029	0.084
-123.224	-118.997	-0.303	-0.052
-122.210	-61.181	-0.206	0.085
-121.195	365.787	-0.134	0.265
-120.180	-26.293	0.307	-0.177
-119.166	-69.186	-0.151	-0.057
-118.151	167.646	-0.140	-0.195
-117.137	24.301	-0.251	-0.204
-116.122	800.000	-0.031	0.109
-115.107	800.000	0.103	0.300
-114.093	366.896	-0.065	0.129
-113.078	-117.658	0.215	-0.038
-112.064	-2.238	0.196	0.135
-111.049	633.652	-0.138	0.343
-110.034	-136.693	0.044	-0.005
-109.020	-56.339	-0.087	0.038
-108.005	-200.000	0.004	0.173
-106.991	-200.000	-0.046	0.203
-105.976	-44.385	-0.290	0.143
-104.962	715.791	-0.088	-0.229
-103.947	-26.157	-0.107	0.062
-102.932	-90.342	0.168	0.048
-101.918	476.242	-0.069	-0.153
-100.903	800.000	0.025	-0.090
-99.889	36.722	-0.194	0.168
-98.874	-7.568	-0.133	-0.089
-97.859	-200.000	-0.013	-0.222
-96.845	117.859	0.048	-0.058
-95.830	-200.000	-0.004	0.085
-94.816	-200.000	-0.048	0.290
-93.801	-155.428	0.382	0.024
-92.786	82.952	0.174	0.186
-91.772	-119.775	0.144	-0.024
-90.757	-200.000	0.062	-0.342
-89.743	800.000	-0.078	-0.289
-88.728	-200.000	0.005	-0.142
-87.713	-69.227	0.399	-0.150
-86.699	-200.000	0.014	0.090
-85.684	566.895	0.222	0.529
-84.670	-200.000	0.209	0.001
-83.655	-98.950	-0.474	-0.118
-82.640	800.000	0.055	-0.237
-81.626	800.000	0.074	-0.209
-80.611	800.000	0.077	0.209
-79.597	-200.000	-0.004	0.056
-78.582	-98.265	-0.269	0.068
-77.567	-30.408	0.061	-0.034
-76.553	-18.328	-0.146	0.089
-75.538	145.415	0.156	0.205
-74.524	91.190	0.137	0.150
-73.509	42.135	0.113	0.100
-72.494	338.714	-0.076	-0.145
-71.480	-200.000	0.008	0.096
-70.465	-68.285	-0.308	-0.117
-69.451	800.000	-0.072	-0.218
-68.436	-200.000	0.002	0.170
-67.422	78.237	0.196	0.205
-66.407	377.896	-0.146	-0.293
-65.392	183.633	0.129	-0.187
-64.378	-97.602	0.185	0.047
-63.363	-124.031	0.331	0.051
-62.349	-122.063	0.323	0.052
-61.334	31.477	-0.931	-0.784
-60.319	-35.005	0.532	0.284
-59.305	241.035	-0.602	-0.984
-58.290	800.000	0.394	1.393
-57.276	448.156	0.655	1.413
-56.261	-200.000	111.735	618.478
-55.246	510.738	1518.596	3459.416
-54.232	176.079	2703.399	3842.813
-53.217	104.063	2283.103	2628.212
-52.203	37.990	1889.946	1645.300
-51.188	32.130	1678.558	1417.160
-50.173	29.448	1635.785	1361.245
-49.159	49.033	1691.451	1555.052
-48.144	49.014	1706.239	1568.441
-47.130	31.467	1663.469	1399.243
-46.115	28.897	1648.640	1367.625
-45.100	28.661	1643.671	1361.698
-44.086	28.673	1641.047	1359.556
-43.071	28.645	1638.484	1357.175
-42.057	28.644	1635.523	1354.660
-41.042	28.683	1634.065	1353.686
-40.027	28.740	1631.679	1352.073
-39.013	28.614	1630.433	1350.061
-37.998	28.629	1628.405	1348.441
-36.984	28.678	1627.116	1347.681
-35.969	28.746	1625.650	1346.913
-34.954	28.732	1624.230	1345.578
-33.940	28.762	1622.318	1344.159
-32.925	28.813	1620.327	1342.832
-31.911	28.859	1618.675	1341.744
-30.896	28.829	1617.219	1340.262
-29.881	28.835	1615.918	1339.177
-28.867	28.830	1614.138	1337.611
-27.852	28.818	1613.023	1336.544
-26.838	28.811	1611.270	1334.989
-25.823	28.843	1609.832	1333.977
-24.809	28.856	1608.922	1333.266
-23.794	28.874	1606.874	1331.647
-22.779	28.784	1605.713	1329.982
-21.765	28.849	1603.914	1328.910
-20.750	28.802	1602.404	1327.265
-19.736	28.870	1601.435	1326.900
-18.721	28.869	1599.574	1325.294
-17.706	28.743	1598.829	1323.717
-16.692	28.806	1596.980	1322.593
-15.677	28.792	1595.692	1321.371
-14.663	28.809	1594.497	1320.453
-13.648	28.878	1593.008	1319.661
-12.633	28.832	1591.495	1318.021
-11.619	28.825	1590.200	1316.853
-10.604	28.789	1588.430	1315.076
-9.590	28.880	1587.165	1314.625
-8.575	28.830	1586.213	1313.426
-7.560	28.810	1585.092	1312.305
-6.546	28.809	1584.274	1311.570
-5.531	28.822	1582.898	1310.467
-4.517	28.828	1581.571	1309.361
-3.502	28.837	1580.408	1308.413
-2.487	28.879	1578.924	1307.431
-1.473	28.572	1566.795	1295.163
-0.458	25.533	1547.697	1258.097
0.556	23.720	1548.064	1226.132
1.571	21.223	1571.848	1227.336
2.586	20.759	1584.932	1234.151
3.600	18.670	1532.091	1178.573
4.615	11.495	1425.755	1050.662
5.629	4.897	1365.039	965.068
6.644	3.803	1357.001	952.564
7.659	3.747	1356.063	951.477
8.673	3.737	1355.003	950.584
9.688	3.833	1352.992	949.682
10.702	3.798	1349.732	947.097
11.717	6.906	1355.346	970.046
12.731	15.050	1370.536	1031.193
13.746	21.844	1382.028	1081.804
14.761	23.531	1383.989	1093.657
15.775	23.141	1381.599	1089.271
16.790	22.373	1379.614	1082.887
17.804	21.717	1377.632	1077.206
18.819	21.515	1376.799	1075.216
19.834	21.437	1376.396	1074.323
20.848	21.464	1375.775	1073.914
21.863	21.351	1374.214	1071.904
22.877	21.204	1373.208	1070.123
23.892	21.147	1372.165	1068.866
24.907	21.093	1371.847	1068.198
25.921	21.153	1370.390	1067.333
26.936	21.097	1369.382	1066.110
27.950	21.131	1368.542	1065.572
28.965	21.268	1368.051	1065.927
29.980	21.343	1366.819	1065.334
30.994	21.570	1365.981	1065.969
32.009	21.607	1364.570	1064.996
33.023	21.478	1363.919	1063.611
34.038	21.325	1362.644	1061.591
35.053	21.246	1360.870	1059.638
36.067	21.297	1360.012	1059.189
37.082	21.207	1359.674	1058.283
38.096	21.451	1358.599	1058.833
39.111	21.436	1357.673	1057.923
40.126	21.272	1356.691	1056.072
41.140	20.905	1355.660	1052.962
42.155	20.696	1354.881	1050.998
43.169	20.634	1354.876	1050.529
44.184	20.652	1354.868	1050.536
45.199	20.840	1354.266	1051.115
46.213	21.051	1353.838	1051.963
47.228	21.237	1353.240	1052.523
48.242	21.273	1352.193	1051.832
49.257	21.191	1350.770	1050.138
50.271	21.197	1349.126	1048.805
51.286	21.207	1347.839	1047.775
52.301	21.143	1346.969	1046.620
53.315	21.023	1345.492	1044.660
54.330	20.831	1344.791	1042.874
55.344	20.861	1343.134	1041.676
56.359	20.708	1342.483	1040.162
57.374	20.768	1340.995	1039.280
58.388	20.709	1340.533	1038.475
59.403	20.613	1339.775	1037.226
60.417	20.553	1339.269	1036.385
61.432	20.438	1338.307	1034.861
62.447	20.433	1337.330	1033.988
63.461	20.410	1335.872	1032.630
64.476	20.320	1335.092	1031.402
65.490	20.398	1333.638	1030.647
66.505	20.387	1332.564	1029.661
67.520	20.385	1331.572	1028.792
68.534	20.373	1330.547	1027.837
69.549	20.383	1329.506	1027.004
70.563	20.352	1327.789	1025.402
71.578	20.156	1326.975	1023.528
72.593	20.182	1325.441	1022.409
73.607	20.149	1325.055	1021.821
74.622	20.135	1324.543	1021.257
75.636	20.279	1324.129	1021.693
76.651	20.229	1323.704	1020.982
77.666	20.363	1322.844	1021.019
78.680	20.353	1322.664	1020.731
79.695	20.338	1322.157	1020.157
80.709	20.525	1321.716	1020.829
81.724	20.662	1321.025	1021.006
82.739	20.872	1320.208	1021.517
83.753	20.974	1319.884	1021.774
84.768	21.183	1318.852	1022.106
85.782	21.426	1317.561	1022.438
86.797	21.587	1316.087	1022.141
87.812	21.280	1315.473	1019.787
88.826	21.282	1314.224	1018.736
89.841	21.338	1313.557	1018.457
90.855	21.411	1312.413	1017.903
91.870	21.451	1311.862	1017.618
92.884	21.531	1311.360	1017.605
93.899	21.659	1309.812	1017.056
94.914	21.597	1309.556	1016.409
95.928	21.562	1308.572	1015.353
96.943	21.396	1307.827	1013.724
97.957	21.383	1306.908	1012.841
98.972	21.410	1306.014	1012.220
99.987	21.375	1305.307	1011.378
101.001	21.470	1304.079	1010.888
102.016	21.481	1302.976	1010.006
103.030	21.337	1302.348	1008.601
104.045	21.385	1301.301	1007.974
105.060	21.217	1299.719	1005.690
106.074	20.797	1298.262	1002.058
107.089	20.638	1296.110	999.397
108.103	20.355	1295.220	996.994
109.118	20.420	1293.937	996.292
110.133	20.462	1292.322	995.206
111.147	20.502	1291.456	994.675
112.162	20.631	1290.363	994.484
113.176	20.503	1289.304	992.847
114.191	20.620	1288.299	992.656
115.206	20.653	1287.410	992.069
116.220	20.650	1286.064	990.929
117.235	20.531	1285.268	989.550
118.249	20.462	1283.793	987.934
119.264	20.483	1282.262	986.789
120.279	20.384	1281.358	985.443
121.293	20.279	1280.664	984.230
122.308	20.144	1279.494	982.474
123.322	20.114	1277.935	981.021
124.337	20.000	1277.566	980.010
125.352	20.081	1276.430	979.504
126.366	20.048	1275.289	978.356
127.381	20.005	1274.362	977.316
128.395	19.892	1273.031	975.575
129.410	19.972	1272.147	975.259
130.424	20.159	1271.478	975.715
131.439	20.284	1271.092	976.035
132.454	20.472	1270.132	976.270
133.468	20.467	1269.815	975.910
134.483	20.564	1269.273	975.950
135.497	20.542	1268.140	974.871
136.512	20.561	1267.320	974.259
137.527	20.580	1265.836	973.137
138.541	20.727	1264.183	972.606
139.556	20.683	1263.398	971.667
140.570	20.861	1262.676	972.019
141.585	20.963	1261.738	971.779
142.600	21.138	1260.797	971.946
143.614	21.324	1260.159	972.400
144.629	21.405	1259.107	971.957
145.643	21.276	1258.182	970.438
146.658	21.110	1256.817	968.377
147.673	20.837	1255.277	965.595
148.687	20.735	1253.973	963.938
149.702	20.633	1252.617	962.247
150.716	20.579	1251.091	960.693
151.731	20.535	1249.794	959.367
152.746	20.554	1248.512	958.405
153.760	20.612	1247.773	958.071
154.775	20.861	1246.542	958.409
155.789	20.989	1245.649	958.342
156.804	20.938	1245.146	957.592
157.819	21.033	1244.288	957.372
158.833	21.140	1243.512	957.273
159.848	21.239	1242.910	957.269
160.862	21.212	1241.731	956.130
161.877	20.909	1240.042	953.087
162.892	20.523	1238.628	949.807
163.906	20.440	1237.710	948.566
164.921	20.415	1236.866	947.697
165.935	20.622	1236.100	948.154
166.950	20.687	1235.652	948.081
167.964	20.750	1234.780	947.670
168.979	20.717	1234.275	947.019
169.994	20.665	1233.092	945.747
171.008	20.617	1232.677	945.082
172.023	20.931	1231.949	946.149
173.037	21.064	1231.568	946.492
174.052	20.988	1230.766	945.378
175.067	20.654	1229.474	942.496
176.081	20.512	1227.847	940.399
177.096	20.436	1227.349	939.522
178.110	20.479	1226.341	938.900
179.125	20.642	1225.292	938.890
180.140	20.811	1224.345	938.993
181.154	21.057	1223.313	939.447
182.169	21.089	1222.607	938.994
183.183	20.983	1221.844	937.753
184.198	21.232	1220.640	938.086
185.213	21.300	1219.195	937.257
186.227	21.233	1218.705	936.435
187.242	21.316	1217.788	936.093
188.256	21.297	1217.084	935.367
189.271	21.474	1216.246	935.586
190.286	21.248	1214.756	933.151
191.300	20.809	1213.508	929.764
192.315	20.544	1212.867	927.777
193.329	20.664	1212.487	928.044
194.344	20.691	1211.512	927.360
195.359	20.651	1211.048	926.709
196.373	20.751	1210.495	926.740
197.388	20.982	1210.224	927.676
198.402	21.074	1210.796	928.524
199.417	21.423	1210.133	929.790
200.432	21.604	1209.184	929.940
201.446	21.632	1208.944	929.820
202.461	21.720	1208.243	929.665
203.475	21.768	1206.747	928.686
204.490	21.382	1205.264	925.421
205.504	21.160	1203.773	923.021
206.519	21.198	1202.443	922.121
207.534	20.980	1201.799	920.394
208.548	20.939	1200.524	919.121
209.563	20.961	1200.383	919.048
210.577	21.004	1199.459	918.483
211.592	21.191	1198.698	918.806
212.607	21.356	1198.202	919.211
213.621	21.473	1197.233	919.001
214.636	21.235	1196.564	917.157
215.650	21.338	1195.239	916.600
216.665	21.438	1194.819	916.721
217.680	21.748	1194.300	917.867
218.694	21.816	1193.493	917.519
219.709	21.557	1192.676	915.457
220.723	21.562	1191.884	914.795
221.738	21.508	1191.036	913.780
222.753	21.482	1190.011	912.779
223.767	21.410	1189.304	911.781
224.782	21.715	1188.857	912.944
225.796	21.834	1188.732	913.386
226.811	21.798	1187.662	912.295
227.826	21.529	1186.722	910.094
228.840	21.453	1185.699	908.835
229.855	21.426	1184.891	907.996
230.869	21.356	1184.478	907.237
231.884	21.214	1183.739	905.853
232.899	21.050	1182.584	904.041
233.913	21.026	1181.728	903.179
234.928	20.917	1180.894	901.899
235.942	20.828	1179.929	900.623
236.957	20.962	1179.126	900.624
237.972	20.836	1178.397	899.335
238.986	20.922	1178.287	899.616
240.001	20.874	1177.513	898.696
241.015	21.022	1176.638	898.711
242.030	21.121	1175.825	898.522
243.045	21.263	1175.428	898.868
244.059	21.344	1175.111	898.965
245.074	21.428	1173.953	898.430
246.088	21.523	1173.071	898.161
247.103	21.641	1172.518	898.266
248.117	21.830	1172.394	899.062
249.132	21.863	1172.183	898.987
250.147	22.309	1171.339	900.543
251.161	22.506	1170.530	900.852
252.176	22.599	1170.036	900.866
253.190	22.586	1170.023	900.711
254.205	22.695	1169.208	900.557
255.220	22.711	1168.722	900.189
256.234	22.703	1168.030	899.534
257.249	22.599	1167.382	898.423
258.263	22.577	1166.452	897.519
259.278	22.505	1165.628	896.439
260.293	22.564	1165.622	896.654
261.307	22.658	1164.945	896.530
262.322	22.729	1164.530	896.492
263.336	22.758	1163.381	895.677
264.351	22.687	1162.705	894.715
265.366	22.772	1162.374	894.814
266.380	22.768	1161.548	894.081
267.395	22.652	1160.848	892.874
268.409	22.479	1160.091	891.337
269.424	22.321	1159.719	890.173
270.439	22.524	1158.853	890.456
271.453	22.309	1157.744	888.439
272.468	22.166	1156.562	886.732
273.482	22.020	1156.095	885.559
274.497	21.936	1155.795	884.828
275.512	22.056	1154.712	884.526
276.526	22.125	1154.026	884.271
277.541	22.181	1153.346	883.950
278.555	22.278	1152.348	883.594
279.570	22.583	1152.114	884.868
280.585	22.673	1151.865	885.051
281.599	22.616	1150.687	883.783
282.614	22.549	1149.265	882.275
283.628	22.210	1148.251	879.725
284.643	22.309	1147.253	879.377
285.657	22.192	1146.592	878.206
286.672	22.195	1145.527	877.330
287.687	22.293	1144.609	877.036
288.701	22.266	1144.192	876.507
289.716	22.328	1143.029	875.846
290.730	22.274	1142.283	874.929
291.745	22.480	1141.325	875.141
292.760	22.347	1141.109	874.235
293.774	22.501	1141.020	874.853
294.789	22.588	1140.706	874.967
295.803	22.544	1139.940	874.085
296.818	22.393	1138.958	872.505
297.833	22.296	1137.600	870.908
298.847	22.279	1137.593	870.741
299.862	22.251	1136.359	869.581
300.876	22.285	1135.841	869.276
301.891	22.437	1135.149	869.419
302.906	22.636	1134.897	870.133
303.920	22.849	1134.379	870.709
304.935	22.868	1134.029	870.460
305.949	23.007	1133.605	870.740
306.964	23.035	1132.971	870.313
307.979	22.778	1131.846	868.109
308.993	22.743	1131.009	867.218
310.008	22.813	1130.351	866.981
311.022	22.947	1129.553	866.949
312.037	22.806	1128.884	865.666
313.052	22.868	1127.012	864.459
314.066	22.433	1126.276	861.690
315.081	22.250	1125.107	859.824
316.095	22.104	1124.384	858.485
317.110	22.161	1123.782	858.225
318.125	22.126	1123.229	857.559
319.139	22.121	1122.382	856.808
320.154	22.197	1121.539	856.461
321.168	22.184	1121.231	856.088
322.183	22.209	1120.369	855.475
323.197	22.318	1119.916	855.581
324.212	22.381	1119.463	855.466
325.227	22.337	1119.236	855.003
326.241	22.354	1118.496	854.444
327.256	22.444	1117.255	853.857
328.270	22.159	1116.904	852.134
329.285	22.268	1115.495	851.510
330.300	22.225	1114.531	850.491
331.314	22.349	1113.559	850.273
332.329	22.329	1112.623	849.387
333.343	22.394	1111.745	848.953
334.358	22.546	1111.769	849.630
335.373	22.576	1111.378	849.401
336.387	22.684	1110.298	849.023
337.402	22.744	1109.465	848.596
338.416	22.826	1108.972	848.539
339.431	22.989	1108.729	849.063
340.446	23.059	1108.571	849.201
341.460	23.346	1107.757	849.878
342.475	23.443	1107.040	849.719
343.489	23.363	1106.018	848.475
344.504	23.490	1105.540	848.642
345.519	23.441	1105.007	847.927
346.533	23.670	1103.963	848.143
347.548	23.666	1103.384	847.603
348.562	23.468	1102.418	845.844
349.577	23.221	1101.198	843.653
350.592	22.947	1099.921	841.296
351.606	22.701	1099.134	839.448
352.621	22.715	1098.454	838.923
353.635	22.593	1097.751	837.732
354.650	22.688	1096.753	837.347
355.665	22.724	1096.386	837.162
356.679	22.887	1096.348	837.831
357.694	22.946	1095.237	837.189
358.708	23.062	1094.826	837.352
359.723	22.958	1094.507	836.542
360.738	22.976	1093.789	836.003
361.752	23.058	1093.065	835.764
362.767	23.108	1092.381	835.405
363.781	23.094	1091.952	834.935
364.796	23.229	1091.930	835.482
365.810	23.531	1091.331	836.374
366.825	23.600	1090.906	836.296
367.840	23.804	1090.465	836.845
368.854	23.963	1089.859	837.058
369.869	23.840	1089.183	835.886
370.883	23.720	1087.871	834.238
371.898	23.414	1087.196	832.210
372.913	23.287	1087.101	831.468
373.927	23.442	1086.582	831.728
374.942	23.766	1085.991	832.718
375.956	23.629	1085.345	831.510
376.971	23.529	1084.828	830.571
377.986	23.657	1084.116	830.550
379.000	23.905	1083.632	831.266
380.015	24.010	1083.267	831.404
381.029	24.113	1082.913	831.540
382.044	24.001	1082.079	830.300
383.059	23.875	1081.120	828.904
384.073	23.872	1080.442	828.298
385.088	23.913	1079.444	827.649
386.102	23.868	1078.723	826.817
387.117	23.473	1077.481	823.953
388.132	23.406	1076.174	822.572
389.146	23.365	1075.296	821.637
390.161	23.320	1074.708	820.909
391.175	23.253	1074.499	820.365
392.190	23.466	1073.529	820.539
393.205	23.856	1073.302	822.096
394.219	23.689	1072.503	820.641
395.234	23.501	1071.344	818.812
396.248	23.376	1069.979	817.121
397.263	23.452	1068.966	816.624
398.278	23.255	1068.671	815.421
399.292	23.173	1067.649	814.188
400.307	23.190	1066.798	813.548
401.321	23.264	1065.910	813.137
402.336	23.092	1065.571	812.016
403.350	23.118	1064.881	811.538
404.365	23.210	1064.420	811.536
405.380	23.314	1064.136	811.725
406.394	23.400	1063.151	811.295
407.409	23.523	1062.824	811.537
408.423	23.912	1062.001	812.616
409.438	24.038	1061.455	812.700
410.453	24.046	1060.940	812.273
411.467	24.138	1060.188	812.042
412.482	24.166	1059.798	811.798
413.496	24.241	1059.309	811.697
414.511	24.348	1058.622	811.582
415.526	24.430	1058.462	811.761
416.540	24.413	1058.246	811.447
417.555	24.452	1057.343	810.862
418.569	24.253	1056.742	809.423
419.584	24.192	1056.143	808.616
420.599	24.186	1055.227	807.816
421.613	156.474	1403.777	1796.389
422.628	143.708	1454.532	1796.494
