DTS Sentinel unit serial number:	SN413079Multiplexer serial number:	ORYXHardware model number:	OX4-SRSoftware version number:	ORYX F/W v4.00 Oryx Data Collector v3.7.2.0data status	okinstallation	princeton_trtdifferential loss correction	single-endedforward channel	channel 2reverse channel	N/Adate	2019/09/14time	00:31:34forward acquisition time	60.00reverse acquisition time	0.00gamma	496.2192k internal	0.2338k external	0.2338temperature offset calibration	1.0126default loss term (dB/km)	0.3790temperature slope calibration	1.0000multiplexer offset coefficient	1.0000multiplexer slope coefficient	1.0000fibre end	0.00T internal ref (°C)	26.44T ext. ref 1 (°C)	3.17T ext. ref 2 (°C)	21.16length (m)	temperature (°C)	Stokes	anti-Stokes-747.200	-200.000	0.054	0.295
-746.185	4.290	-0.253	0.186
-745.171	-200.000	0.011	0.083
-744.156	22.268	-0.287	-0.235
-743.142	-53.816	0.214	-0.098
-742.127	44.579	0.190	0.175
-741.112	-188.841	0.255	-0.003
-740.098	-200.000	-0.018	0.305
-739.083	89.679	0.070	0.078
-738.069	800.000	0.012	0.042
-737.054	-1.172	0.145	-0.103
-736.039	-126.797	-0.446	0.066
-735.025	256.688	-0.036	0.062
-734.010	-37.450	-0.226	-0.121
-732.996	259.942	0.044	-0.077
-731.981	51.996	0.071	0.068
-730.966	-76.499	0.122	-0.043
-729.952	800.000	-0.058	0.245
-728.937	-200.000	0.043	-0.257
-727.923	-42.875	0.169	0.086
-726.908	800.000	0.101	-0.430
-725.894	79.239	-0.255	-0.274
-724.879	-164.253	-0.251	-0.012
-723.864	367.919	0.097	-0.197
-722.850	-119.209	-0.209	-0.037
-721.835	800.000	0.069	-0.234
-720.821	-200.000	-0.011	0.102
-719.806	53.271	-0.102	0.098
-718.791	239.664	0.136	0.227
-717.777	42.924	0.043	-0.039
-716.762	-58.518	0.377	-0.164
-715.748	325.644	0.132	0.254
-714.733	-200.000	0.280	-0.001
-713.718	800.000	-0.007	-0.031
-712.704	-108.658	-0.128	-0.028
-711.689	-76.235	0.133	-0.047
-710.675	701.091	0.155	0.409
-709.660	3.378	-0.237	-0.173
-708.645	-200.000	-0.008	0.297
-707.631	-160.745	-0.203	0.011
-706.616	746.046	-0.090	0.243
-705.602	157.089	0.194	0.269
-704.587	92.619	-0.062	-0.070
-703.572	-85.708	-0.100	-0.031
-702.558	-112.182	-0.286	0.058
-701.543	53.463	0.124	-0.119
-700.529	137.634	-0.113	0.148
-699.514	748.021	-0.094	-0.254
-698.499	-200.000	-0.021	0.230
-697.485	643.399	-0.097	0.248
-696.470	110.582	0.310	-0.373
-695.456	-76.243	-0.053	0.019
-694.441	228.058	0.101	-0.165
-693.426	-60.719	0.432	0.184
-692.412	-200.000	0.036	-0.375
-691.397	-55.566	0.257	0.115
-690.383	382.701	-0.085	-0.174
-689.368	-126.449	-0.100	-0.015
-688.354	752.005	-0.041	-0.110
-687.339	800.000	-0.093	-0.314
-686.324	708.075	-0.060	-0.158
-685.310	415.912	0.014	-0.031
-684.295	-97.807	-0.217	-0.056
-683.281	711.113	-0.054	-0.142
-682.266	-200.000	0.048	-0.243
-681.251	-200.000	0.010	0.151
-680.237	107.739	0.051	-0.061
-679.222	-200.000	0.036	-0.248
-678.208	-29.714	-0.036	-0.021
-677.193	-105.086	-0.327	-0.075
-676.178	-99.892	-0.200	0.050
-675.164	800.000	-0.033	0.094
-674.149	-103.884	-0.277	0.065
-673.135	-19.540	-0.247	-0.153
-672.120	800.000	-0.059	0.235
-671.105	367.987	0.044	0.089
-670.091	706.284	-0.033	0.086
-669.076	13.531	-0.079	-0.061
-668.062	126.048	-0.098	-0.125
-667.047	8.561	0.210	0.158
-666.032	-46.764	0.393	-0.192
-665.018	2.971	-0.187	-0.136
-664.003	67.898	-0.147	0.150
-662.989	-117.315	-0.120	-0.022
-661.974	43.887	0.076	0.070
-660.959	-22.889	-0.190	0.114
-659.945	-167.632	-0.362	0.014
-658.930	209.624	-0.152	-0.238
-657.916	800.000	-0.027	-0.085
-656.901	-99.880	-0.025	0.006
-655.886	800.000	0.079	-0.260
-654.872	164.059	0.232	-0.327
-653.857	-162.666	-0.390	-0.019
-652.843	-200.000	0.008	-0.175
-651.828	-103.728	0.183	0.043
-650.814	83.422	-0.126	0.137
-649.799	131.630	-0.177	0.228
-648.784	-101.600	-0.247	-0.060
-647.770	-200.000	0.010	-0.227
-646.755	67.567	-0.158	-0.162
-645.741	-200.000	-0.038	-0.411
-644.726	800.000	0.046	-0.178
-643.711	-98.864	-0.355	-0.090
-642.697	-85.800	0.276	0.085
-641.682	-200.000	0.016	0.332
-640.668	-88.720	-0.123	-0.037
-639.653	61.799	0.060	0.059
-638.638	486.593	-0.018	-0.041
-637.624	123.883	0.023	-0.029
-636.609	-86.731	0.091	0.028
-635.595	-200.000	0.094	-0.523
-634.580	-11.390	-0.044	-0.029
-633.565	-5.949	0.320	0.219
-632.551	538.557	-0.092	-0.218
-631.536	76.404	-0.129	-0.136
-630.522	-136.060	-0.338	-0.040
-629.507	540.996	0.030	-0.072
-628.492	54.220	-0.154	0.148
-627.478	14.291	0.345	0.269
-626.463	-105.996	-0.160	-0.036
-625.449	800.000	0.032	0.121
-624.434	800.000	0.065	0.193
-623.419	-82.814	-0.234	-0.075
-622.405	-75.010	-0.282	-0.101
-621.390	68.200	0.132	0.135
-620.376	-85.329	0.203	0.063
-619.361	6.624	0.223	0.166
-618.346	98.637	0.049	0.056
-617.332	-47.478	-0.076	-0.037
-616.317	-127.771	0.121	0.017
-615.303	800.000	-0.113	-0.450
-614.288	280.702	-0.087	0.156
-613.273	2.664	0.192	0.139
-612.259	-100.294	-0.324	-0.080
-611.244	-200.000	-0.025	0.229
-610.230	-132.849	0.319	0.041
-609.215	-21.045	0.133	0.081
-608.201	296.947	-0.139	0.255
-607.186	24.727	0.136	0.112
-606.171	-135.282	0.150	-0.018
-605.157	-64.994	0.292	0.118
-604.142	-200.000	-0.060	-0.305
-603.128	-40.111	-0.159	0.082
-602.113	158.082	-0.054	-0.075
-601.098	129.726	0.140	-0.179
-600.084	800.000	0.042	-0.153
-599.069	-200.000	0.004	0.259
-598.055	139.719	-0.229	-0.300
-597.040	-200.000	-0.034	-0.350
-596.025	24.807	-0.083	0.069
-595.011	-96.149	-0.191	-0.051
-593.996	146.598	0.056	0.075
-592.982	-8.611	0.067	0.045
-591.967	-101.277	-0.244	0.059
-590.952	-109.983	-0.175	-0.036
-589.938	80.395	0.083	-0.089
-588.923	14.789	-0.252	0.196
-587.909	-63.871	-0.223	0.091
-586.894	658.805	-0.055	0.142
-585.879	-86.459	-0.196	-0.060
-584.865	-93.604	0.274	0.076
-583.850	800.000	-0.088	-0.358
-582.836	-49.258	0.102	-0.049
-581.821	-83.197	0.336	0.108
-580.806	79.412	-0.098	0.105
-579.792	116.114	0.277	0.339
-578.777	800.000	0.014	-0.047
-577.763	800.000	0.037	-0.113
-576.748	231.671	0.212	0.346
-575.733	764.904	-0.174	-0.471
-574.719	316.082	0.147	-0.277
-573.704	-200.000	0.029	0.619
-572.690	55.189	-0.302	-0.291
-571.675	800.000	-0.077	0.330
-570.661	327.035	0.077	-0.148
-569.646	105.371	-0.073	-0.086
-568.631	-200.000	0.002	-0.141
-567.617	-144.539	0.107	0.010
-566.602	-30.123	0.136	-0.077
-565.588	-38.529	-0.201	-0.106
-564.573	-200.000	-0.077	-0.388
-563.558	610.846	0.094	0.235
-562.544	149.243	0.080	-0.109
-561.529	58.667	0.054	-0.053
-560.515	83.055	0.306	-0.331
-559.500	-76.938	-0.097	-0.034
-558.485	-121.996	-0.338	0.055
-557.471	68.942	0.265	0.271
-556.456	-4.251	0.179	-0.123
-555.442	-200.000	-0.020	0.143
-554.427	75.057	-0.173	-0.182
-553.412	113.020	0.335	-0.405
-552.398	304.375	-0.092	-0.170
-551.383	-27.594	0.078	0.045
-550.369	-119.127	-0.325	-0.057
-549.354	800.000	-0.023	-0.065
-548.339	800.000	-0.125	-0.455
-547.325	800.000	0.097	0.343
-546.310	311.613	0.086	0.160
-545.296	-53.235	0.249	-0.114
-544.281	-200.000	0.012	-0.331
-543.266	-18.162	-0.306	0.191
-542.252	-140.361	0.097	0.010
-541.237	-132.521	-0.147	0.019
-540.223	-70.758	-0.178	0.067
-539.208	-19.460	0.045	0.028
-538.193	-66.130	0.437	0.174
-537.179	256.024	0.102	-0.174
-536.164	76.855	-0.154	0.163
-535.150	48.442	0.252	0.235
-534.135	-29.009	-0.185	0.106
-533.121	64.447	0.192	0.193
-532.106	94.707	0.210	0.237
-531.091	93.929	-0.137	-0.154
-530.077	-75.332	0.131	0.046
-529.062	461.749	0.177	-0.393
-528.048	-142.161	0.206	0.020
-527.033	4.821	-0.163	-0.119
-526.018	734.559	0.140	-0.373
-525.004	-200.000	0.009	0.052
-523.989	800.000	-0.018	0.050
-522.975	-66.296	0.186	-0.074
-521.960	-200.000	-0.003	-0.154
-520.945	466.452	-0.138	0.307
-519.931	-200.000	0.024	0.208
-518.916	-104.864	-0.390	-0.089
-517.902	800.000	-0.059	0.252
-516.887	-180.147	0.245	0.005
-515.872	800.000	0.098	-0.380
-514.858	-200.000	-0.009	-0.492
-513.843	-113.369	0.476	0.093
-512.829	226.483	0.091	-0.146
-511.814	26.178	0.204	-0.170
-510.799	-39.698	0.090	0.047
-509.785	-164.596	0.303	-0.014
-508.770	341.587	-0.082	0.159
-507.756	-64.340	-0.169	0.068
-506.741	-21.680	0.135	-0.081
-505.726	-9.100	-0.555	0.369
-504.712	26.736	0.147	0.122
-503.697	-45.891	0.221	-0.108
-502.683	32.464	-0.132	-0.113
-501.668	-200.000	-0.031	0.164
-500.653	62.568	-0.103	-0.103
-499.639	68.345	0.275	-0.280
-498.624	-200.000	-0.001	-0.133
-497.610	-73.939	-0.126	-0.046
-496.595	-163.512	0.216	0.010
-495.581	-200.000	0.034	-0.177
-494.566	800.000	0.078	0.273
-493.551	185.498	0.189	0.278
-492.537	-41.910	-0.077	0.039
-491.522	37.242	0.135	-0.118
-490.508	800.000	0.076	-0.246
-489.493	-59.316	-0.112	-0.048
-488.478	48.027	-0.119	0.110
-487.464	-61.559	0.163	0.068
-486.449	-200.000	0.020	-0.102
-485.435	120.379	-0.079	0.097
-484.420	-172.942	0.421	-0.013
-483.405	-73.282	0.064	0.023
-482.391	800.000	-0.019	-0.058
-481.376	-69.949	-0.417	0.158
-480.362	800.000	0.048	0.207
-479.347	-23.912	-0.185	0.110
-478.332	49.590	0.032	-0.030
-477.318	-109.662	-0.420	0.088
-476.303	146.604	0.179	0.238
-475.289	353.904	0.125	-0.247
-474.274	154.076	-0.245	0.334
-473.259	-143.936	0.271	0.025
-472.245	800.000	0.023	-0.075
-471.230	17.981	0.113	0.089
-470.216	90.620	-0.085	-0.095
-469.201	121.412	-0.098	0.121
-468.186	79.948	-0.044	0.047
-467.172	291.664	0.091	-0.164
-466.157	277.166	-0.151	-0.267
-465.143	55.544	0.144	-0.139
-464.128	191.437	-0.253	0.378
-463.113	-112.971	-0.073	-0.014
-462.099	-33.532	-0.084	0.046
-461.084	-108.574	0.081	-0.017
-460.070	163.498	0.241	-0.337
-459.055	33.291	-0.081	-0.070
-458.040	-200.000	0.031	-0.259
-457.026	-58.062	-0.266	-0.115
-456.011	-28.355	0.030	0.017
-454.997	115.474	-0.213	-0.258
-453.982	-139.355	-0.247	-0.026
-452.968	-128.698	-0.166	-0.023
-451.953	31.251	0.245	0.209
-450.938	-188.224	0.071	-0.001
-449.924	62.103	-0.162	-0.160
-448.909	164.780	-0.039	0.054
-447.895	800.000	0.042	-0.155
-446.880	-24.777	0.255	0.150
-445.865	208.681	0.198	-0.307
-444.851	-63.808	-0.309	0.125
-443.836	114.132	-0.132	-0.160
-442.822	25.117	-0.137	0.113
-441.807	-200.000	-0.047	0.272
-440.792	-200.000	-0.007	-0.111
-439.778	-105.626	-0.072	0.016
-438.763	800.000	-0.012	-0.051
-437.749	695.888	-0.097	-0.252
-436.734	509.407	0.063	-0.144
-435.719	-49.894	0.213	0.100
-434.705	515.579	-0.037	-0.085
-433.690	-15.955	-0.085	0.054
-432.676	652.998	-0.126	-0.320
-431.661	-22.047	0.075	-0.045
-430.646	-200.000	0.006	-0.060
-429.632	-200.000	-0.016	0.253
-428.617	-135.007	-0.390	0.047
-427.603	114.016	0.303	-0.366
-426.588	29.263	-0.204	0.172
-425.573	14.771	-0.247	-0.192
-424.559	-119.620	0.241	-0.041
-423.544	-75.015	-0.390	-0.139
-422.530	-26.026	-0.157	-0.092
-421.515	27.465	-0.106	0.088
-420.500	-74.175	0.314	-0.113
-419.486	-107.577	0.029	0.006
-418.471	-135.232	0.150	-0.018
-417.457	54.364	-0.083	-0.079
-416.442	-54.278	0.255	-0.115
-415.428	800.000	0.074	0.250
-414.413	652.474	0.099	0.252
-413.398	-115.616	0.093	-0.017
-412.384	-200.000	-0.024	-0.204
-411.369	-200.000	0.020	-0.087
-410.355	-14.765	-0.225	0.143
-409.340	769.901	0.115	-0.310
-408.325	-3.058	0.250	-0.172
-407.311	306.310	-0.175	-0.323
-406.296	8.099	0.063	-0.047
-405.282	126.456	-0.135	-0.169
-404.267	773.825	0.039	-0.106
-403.252	697.268	-0.054	-0.140
-402.238	18.654	0.088	-0.069
-401.223	-200.000	0.014	-0.066
-400.209	-29.156	0.280	-0.159
-399.194	-173.540	-0.337	0.010
-398.179	54.809	-0.176	-0.169
-397.165	42.824	0.160	-0.144
-396.150	800.000	-0.065	0.215
-395.136	-139.685	0.215	0.023
-394.121	-101.848	0.083	-0.020
-393.106	-200.000	-0.000	-0.236
-392.092	-200.000	-0.026	-0.182
-391.077	479.505	0.243	0.544
-390.063	84.477	-0.193	0.209
-389.048	-200.000	0.016	0.292
-388.033	423.629	0.162	0.345
-387.019	601.687	-0.083	0.205
-386.004	-29.311	-0.313	-0.177
-384.990	-37.884	0.064	0.033
-383.975	-65.950	-0.045	-0.018
-382.960	391.533	-0.066	-0.136
-381.946	-200.000	-0.026	-0.178
-380.931	-200.000	0.036	-0.156
-379.917	40.031	0.139	0.123
-378.902	123.491	-0.096	-0.120
-377.888	-22.974	0.071	0.042
-376.873	-69.010	0.208	0.079
-375.858	65.246	0.159	0.159
-374.844	800.000	0.047	0.167
-373.829	-141.335	-0.477	0.048
-372.815	-163.590	-0.120	0.006
-371.800	-85.481	0.218	0.067
-370.785	800.000	-0.020	0.057
-369.771	8.241	0.289	-0.215
-368.756	-5.379	-0.249	-0.169
-367.742	-133.941	0.135	0.017
-366.727	-81.973	0.263	0.085
-365.712	-35.703	-0.422	0.226
-364.698	800.000	0.070	0.202
-363.683	1.639	-0.086	-0.061
-362.669	-60.596	0.248	-0.104
-361.654	570.960	0.109	-0.263
-360.639	-88.619	0.195	0.057
-359.625	800.000	-0.041	-0.153
-358.610	671.293	0.050	0.128
-357.596	113.323	0.108	0.129
-356.581	549.801	-0.062	0.147
-355.566	11.631	0.280	0.213
-354.552	-20.793	-0.179	0.108
-353.537	336.165	0.102	0.196
-352.523	55.557	-0.101	0.096
-351.508	-200.000	0.027	0.132
-350.493	276.159	0.046	-0.080
-349.479	180.045	-0.146	-0.212
-348.464	-76.263	0.160	0.056
-347.450	800.000	0.047	-0.170
-346.435	-200.000	-0.037	-0.218
-345.420	386.772	0.106	0.217
-344.406	337.066	0.102	0.196
-343.391	800.000	0.031	0.098
-342.377	-78.130	-0.199	0.068
-341.362	-108.312	0.251	-0.054
-340.348	533.464	-0.110	0.258
-339.333	-200.000	0.002	-0.225
-338.318	-197.107	-0.217	-0.001
-337.304	-200.000	-0.097	0.422
-336.289	-200.000	-0.044	0.245
-335.275	-101.936	0.052	0.012
-334.260	500.794	0.080	-0.182
-333.245	300.124	0.042	0.076
-332.231	-114.285	0.264	-0.050
-331.216	-174.613	0.153	0.004
-330.202	800.000	0.124	-0.404
-329.187	13.138	-0.189	-0.144
-328.172	-83.137	-0.361	0.115
-327.158	-200.000	0.033	0.166
-326.143	-200.000	0.005	-0.093
-325.129	-12.793	0.077	-0.049
-324.114	55.684	0.112	-0.107
-323.099	39.253	-0.139	-0.123
-322.085	-200.000	0.028	0.198
-321.070	128.337	0.178	0.224
-320.056	24.944	-0.173	-0.142
-319.041	-160.995	0.386	0.020
-318.026	-200.000	0.000	0.265
-317.012	715.614	-0.176	0.460
-315.997	326.755	-0.171	0.324
-314.983	-200.000	-0.009	-0.146
-313.968	300.191	0.149	-0.272
-312.953	-200.000	0.037	0.254
-311.939	-200.000	0.181	-0.000
-310.924	-111.870	0.134	0.027
-309.910	-147.479	-0.182	-0.015
-308.895	686.521	-0.097	0.249
-307.880	-58.601	-0.200	-0.085
-306.866	142.565	0.163	0.214
-305.851	140.185	-0.108	0.141
-304.837	-142.333	-0.254	0.025
-303.822	-86.512	0.091	-0.027
-302.807	-25.194	0.085	-0.050
-301.793	-200.000	-0.007	0.153
-300.778	-200.000	0.023	-0.135
-299.764	175.739	-0.143	-0.205
-298.749	501.604	-0.062	-0.141
-297.735	-154.349	0.060	0.004
-296.720	67.734	-0.246	-0.248
-295.705	328.875	-0.075	0.142
-294.691	-178.940	0.133	0.003
-293.676	800.000	0.083	0.309
-292.662	-200.000	0.027	-0.126
-291.647	228.790	-0.137	-0.220
-290.632	7.384	0.145	-0.107
-289.618	-200.000	0.008	-0.253
-288.603	-200.000	-0.019	-0.428
-287.589	-1.167	-0.172	0.120
-286.574	-21.771	0.223	0.134
-285.559	220.681	0.055	0.087
-284.545	-3.899	0.286	0.195
-283.530	103.008	0.164	0.189
-282.516	-68.846	-0.024	0.009
-281.501	-5.085	-0.177	0.120
-280.486	-9.229	-0.114	-0.075
-279.472	131.805	0.266	0.337
-278.457	-200.000	-0.013	0.075
-277.443	-123.031	-0.034	0.005
-276.428	310.837	0.075	0.138
-275.413	412.123	0.061	-0.128
-274.399	-51.601	-0.138	-0.063
-273.384	190.132	0.102	-0.150
-272.370	297.926	0.121	0.219
-271.355	-200.000	0.030	0.168
-270.340	503.783	0.071	-0.163
-269.326	-200.000	-0.017	-0.200
-268.311	-200.000	0.006	-0.250
-267.297	3.229	0.230	0.165
-266.282	-69.877	-0.229	-0.086
-265.267	-200.000	-0.019	0.190
-264.253	88.683	-0.101	0.111
-263.238	-200.000	-0.013	0.106
-262.224	165.601	0.445	0.620
-261.209	341.154	0.046	-0.089
-260.195	-122.825	-0.294	0.047
-259.180	-65.333	-0.097	-0.039
-258.165	-23.186	0.179	0.106
-257.151	-119.398	-0.317	-0.054
-256.136	180.089	-0.045	-0.065
-255.122	324.407	0.064	-0.121
-254.107	30.728	0.093	-0.078
-253.092	86.847	-0.174	0.189
-252.078	94.444	0.142	0.159
-251.063	-190.050	0.279	0.003
-250.049	74.931	0.248	-0.257
-249.034	131.121	-0.200	0.253
-248.019	-75.754	-0.356	0.124
-247.005	266.180	0.092	-0.158
-245.990	-49.717	-0.153	-0.071
-244.976	-200.000	-0.072	0.340
-243.961	286.409	-0.204	0.362
-242.946	-106.979	0.085	0.018
-241.932	23.620	-0.126	0.102
-240.917	-53.292	0.083	0.037
-239.903	70.951	0.040	-0.041
-238.888	-137.805	0.105	-0.012
-237.873	-131.949	0.478	0.061
-236.859	61.138	-0.194	0.190
-235.844	6.121	-0.233	0.170
-234.830	-200.000	0.007	0.125
-233.815	-8.305	-0.209	-0.138
-232.800	269.671	0.052	-0.090
-231.786	800.000	-0.083	0.247
-230.771	35.190	-0.085	-0.073
-229.757	-23.417	-0.404	0.239
-228.742	-190.856	-0.118	-0.001
-227.727	10.653	0.230	-0.172
-226.713	-200.000	0.020	0.310
-225.698	-92.013	-0.275	0.077
-224.684	14.684	0.265	-0.204
-223.669	-128.293	0.552	-0.077
-222.655	-111.563	-0.198	0.040
-221.640	-200.000	0.028	0.125
-220.625	91.403	0.206	0.227
-219.611	-1.235	-0.343	0.238
-218.596	-71.267	0.333	-0.123
-217.582	-145.101	-0.367	-0.033
-216.567	-200.000	-0.021	-0.205
-215.552	155.314	0.122	-0.165
-214.538	-94.225	0.281	0.076
-213.523	74.029	-0.155	0.160
-212.509	-78.765	-0.369	-0.124
-211.494	800.000	-0.163	0.531
-210.479	-62.675	-0.120	-0.049
-209.465	-200.000	-0.057	0.349
-208.450	-159.776	0.227	0.012
-207.436	-5.888	-0.202	-0.136
-206.421	-101.813	-0.280	0.067
-205.406	194.255	0.085	-0.126
-204.392	268.438	-0.038	0.065
-203.377	800.000	0.014	0.057
-202.363	-200.000	0.052	0.238
-201.348	-86.803	-0.072	0.022
-200.333	-121.468	0.162	0.027
-199.319	52.778	-0.304	-0.286
-198.304	250.680	-0.107	-0.179
-197.290	-38.804	-0.231	-0.120
-196.275	-122.519	0.329	-0.053
-195.260	83.452	-0.038	0.040
-194.246	112.758	0.065	0.077
-193.231	-200.000	0.016	0.416
-192.217	170.312	-0.130	-0.183
-191.202	26.493	0.159	-0.131
-190.187	25.536	0.112	0.092
-189.173	19.455	0.169	-0.133
-188.158	43.474	-0.006	0.005
-187.144	-135.631	-0.420	-0.049
-186.129	-200.000	-0.011	-0.161
-185.114	144.677	0.081	-0.106
-184.100	8.306	-0.121	-0.089
-183.085	800.000	0.089	-0.242
-182.071	176.827	-0.089	0.127
-181.056	487.463	-0.099	0.222
-180.042	-101.630	0.305	0.073
-179.027	-133.717	0.292	0.036
-178.012	800.000	0.046	-0.135
-176.998	-52.595	-0.147	0.066
-175.983	-148.579	0.201	-0.016
-174.969	97.792	-0.164	0.185
-173.954	526.167	0.073	-0.170
-172.939	800.000	-0.064	0.227
-171.925	-200.000	0.030	-0.182
-170.910	800.000	0.041	-0.127
-169.896	283.539	-0.075	-0.133
-168.881	-200.000	-0.020	-0.369
-167.866	-114.042	0.062	-0.012
-166.852	314.453	-0.128	-0.236
-165.837	-116.085	-0.143	0.026
-164.823	-184.841	0.237	0.004
-163.808	-200.000	0.005	-0.254
-162.793	-53.256	-0.070	-0.031
-161.779	800.000	0.154	0.464
-160.764	-78.336	0.128	-0.043
-159.750	602.983	0.039	-0.095
-158.735	206.850	-0.205	-0.314
-157.720	-57.724	-0.192	-0.083
-156.706	79.925	-0.209	-0.220
-155.691	-200.000	-0.013	-0.114
-154.677	-200.000	0.008	0.377
-153.662	-200.000	0.028	-0.147
-152.647	-33.839	-0.370	0.200
-151.633	200.249	-0.142	0.214
-150.618	150.117	0.130	-0.173
-149.604	5.799	-0.062	-0.045
-148.589	35.055	0.075	-0.065
-147.574	187.104	0.132	-0.193
-146.560	-148.040	-0.080	-0.007
-145.545	-38.645	0.082	0.042
-144.531	-200.000	0.020	0.124
-143.516	-104.346	-0.126	0.029
-142.502	11.231	-0.115	0.086
-141.487	624.715	0.082	0.203
-140.472	-143.580	0.366	-0.034
-139.458	528.133	-0.128	0.297
-138.443	-58.068	0.118	-0.051
-137.429	800.000	-0.072	-0.254
-136.414	800.000	0.028	0.102
-135.399	7.403	-0.083	-0.061
-134.385	-34.378	0.143	0.077
-133.370	126.422	-0.054	-0.067
-132.356	58.539	-0.287	-0.276
-131.341	117.499	0.277	0.334
-130.326	-200.000	0.057	0.253
-129.312	-68.192	0.143	0.055
-128.297	-148.197	0.374	-0.030
-127.283	126.249	0.120	-0.148
-126.268	-146.862	-0.146	-0.012
-125.253	-200.000	0.006	-0.073
-124.239	-200.000	-0.000	0.134
-123.224	800.000	-0.102	0.345
-122.210	800.000	0.118	0.409
-121.195	134.445	0.202	-0.257
-120.180	-197.069	0.236	-0.001
-119.166	-131.024	-0.355	0.046
-118.151	-91.523	-0.507	0.141
-117.137	-47.307	0.359	0.171
-116.122	-88.664	0.163	0.048
-115.107	58.803	-0.054	-0.051
-114.093	643.982	-0.021	-0.053
-113.078	42.889	0.257	0.229
-112.064	-33.845	-0.431	0.233
-111.049	72.783	0.089	-0.091
-110.034	704.916	0.093	-0.239
-109.020	-110.701	-0.078	0.016
-108.005	-200.000	-0.257	-0.001
-106.991	800.000	-0.008	0.027
-105.976	29.402	0.279	0.232
-104.962	-55.128	-0.155	0.068
-103.947	145.247	0.106	0.139
-102.932	62.174	0.324	-0.316
-101.918	52.180	-0.166	-0.155
-100.903	-200.000	-0.007	0.078
-99.889	680.567	-0.091	0.231
-98.874	-100.521	0.070	0.017
-97.859	-191.738	-0.153	0.001
-96.845	165.350	0.174	-0.241
-95.830	-161.081	-0.194	0.010
-94.816	-200.000	0.007	-0.101
-93.801	187.282	0.086	0.125
-92.786	31.673	0.183	-0.154
-91.772	-58.219	-0.375	0.160
-90.757	20.216	0.072	-0.057
-89.743	365.064	0.159	-0.313
-88.728	-142.094	-0.225	0.022
-87.713	443.601	0.100	-0.214
-86.699	86.341	0.104	0.112
-85.684	-0.756	0.210	-0.146
-84.670	435.794	0.071	0.152
-83.655	57.448	-0.110	0.105
-82.640	9.469	-0.238	-0.177
-81.626	173.688	0.125	-0.176
-80.611	229.615	-0.089	0.142
-79.597	382.006	0.192	0.385
-78.582	85.801	0.165	0.177
-77.567	-109.663	0.148	-0.030
-76.553	-51.835	-0.306	0.139
-75.538	-200.000	-0.006	-0.073
-74.524	127.192	0.178	-0.221
-73.509	-14.476	0.205	-0.129
-72.494	-7.333	-0.052	0.034
-71.480	-149.057	0.153	-0.012
-70.465	-47.414	-0.218	-0.104
-69.451	-163.701	-0.238	0.011
-68.436	-38.021	0.115	-0.060
-67.422	245.269	-0.138	-0.227
-66.407	-119.151	0.175	-0.030
-65.392	-76.482	0.367	0.126
-64.378	-25.849	0.078	-0.045
-63.363	19.588	-0.260	0.204
-62.349	617.894	-0.035	-0.085
-61.334	207.021	-0.652	-0.993
-60.319	-30.837	0.700	0.386
-59.305	-200.000	-0.120	-0.945
-58.290	410.421	0.509	1.054
-57.276	312.393	0.705	1.294
-56.261	-200.000	115.815	643.193
-55.246	502.869	1535.677	3467.688
-54.232	175.063	2716.019	3841.954
-53.217	98.613	2291.278	2581.103
-52.203	35.368	1899.786	1627.726
-51.188	29.576	1693.755	1407.167
-50.173	27.130	1653.093	1355.114
-49.159	47.206	1710.661	1555.257
-48.144	45.935	1723.595	1557.315
-47.130	29.125	1681.130	1393.046
-46.115	26.495	1667.201	1361.690
-45.100	26.411	1661.896	1356.670
-44.086	26.375	1659.670	1354.531
-43.071	26.379	1656.574	1351.982
-42.057	26.314	1654.596	1349.823
-41.042	26.377	1651.962	1348.096
-40.027	26.387	1650.427	1346.861
-39.013	26.273	1648.536	1344.418
-37.998	26.293	1647.015	1343.273
-36.984	26.331	1646.098	1342.751
-35.969	26.311	1644.496	1341.241
-34.954	26.364	1642.485	1339.945
-33.940	26.507	1640.617	1339.424
-32.925	26.466	1638.512	1337.349
-31.911	26.376	1637.585	1335.878
-30.896	26.440	1635.649	1334.715
-29.881	26.481	1633.649	1333.333
-28.867	26.381	1632.872	1331.907
-27.852	26.404	1631.502	1330.905
-26.838	26.453	1629.916	1329.918
-25.823	26.446	1628.523	1328.683
-24.809	26.507	1627.118	1327.931
-23.794	26.409	1625.665	1325.973
-22.779	26.472	1624.134	1325.135
-21.765	26.420	1622.708	1323.535
-20.750	26.412	1620.814	1321.879
-19.736	26.517	1619.262	1321.325
-18.721	26.539	1617.936	1320.355
-17.706	26.430	1616.516	1318.346
-16.692	26.550	1614.633	1317.636
-15.677	26.502	1613.455	1316.275
-14.663	26.450	1612.120	1314.750
-13.648	26.517	1610.913	1314.200
-12.633	26.496	1609.099	1312.520
-11.619	26.495	1607.453	1311.114
-10.604	26.465	1606.151	1309.788
-9.590	26.441	1604.886	1308.531
-8.575	26.469	1603.299	1307.385
-7.560	26.485	1602.271	1306.610
-6.546	26.465	1601.194	1305.537
-5.531	26.539	1599.827	1304.902
-4.517	26.467	1599.014	1303.665
-3.502	26.463	1598.314	1303.015
-2.487	26.574	1596.075	1301.938
-1.473	26.232	1584.269	1289.816
-0.458	23.311	1565.106	1253.528
0.556	20.716	1567.194	1223.245
1.571	18.471	1590.585	1225.364
2.586	18.036	1602.899	1231.602
3.600	15.837	1547.763	1173.813
4.615	9.270	1440.787	1049.826
5.629	3.971	1382.212	973.785
6.644	3.214	1374.813	963.748
7.659	3.093	1373.518	961.995
8.673	3.184	1372.374	961.679
9.688	3.178	1370.437	960.201
10.702	3.144	1367.747	958.017
11.717	5.636	1371.972	976.441
12.731	12.738	1385.312	1030.416
13.746	18.973	1395.805	1077.308
14.761	20.397	1396.761	1086.871
15.775	19.843	1394.383	1081.465
16.790	18.650	1392.391	1072.372
17.804	17.932	1390.359	1066.231
18.819	17.632	1389.036	1063.247
19.834	17.453	1387.905	1061.171
20.848	17.375	1386.741	1059.704
21.863	17.137	1385.639	1057.288
22.877	16.977	1384.004	1054.953
23.892	16.997	1383.096	1054.288
24.907	16.892	1383.041	1053.504
25.921	16.901	1381.451	1052.253
26.936	16.971	1380.479	1051.853
27.950	17.077	1379.531	1051.693
28.965	17.053	1378.777	1050.878
29.980	17.148	1378.008	1050.787
30.994	17.305	1376.509	1050.523
32.009	17.303	1375.724	1049.815
33.023	17.350	1374.177	1048.836
34.038	17.216	1372.817	1046.879
35.053	17.051	1372.006	1045.149
36.067	17.172	1370.568	1044.708
37.082	17.102	1369.787	1043.591
38.096	17.246	1368.238	1043.202
39.111	17.277	1367.501	1042.736
40.126	17.070	1367.273	1041.203
41.140	16.846	1365.908	1038.698
42.155	16.782	1365.500	1037.901
43.169	16.788	1364.984	1037.453
44.184	16.709	1364.700	1036.664
45.199	16.793	1364.498	1036.930
46.213	16.930	1363.478	1036.905
47.228	17.083	1362.805	1037.236
48.242	17.026	1361.901	1036.105
49.257	17.090	1360.353	1035.228
50.271	17.005	1358.787	1033.427
51.286	17.111	1357.538	1033.030
52.301	17.012	1356.310	1031.402
53.315	16.914	1355.412	1030.032
54.330	16.901	1354.126	1028.886
55.344	16.882	1352.665	1027.568
56.359	16.907	1351.898	1027.046
57.374	16.762	1351.371	1025.681
58.388	16.725	1350.446	1024.661
59.403	16.720	1349.644	1023.932
60.417	16.624	1349.029	1022.794
61.432	16.657	1348.067	1022.175
62.447	16.652	1346.868	1021.145
63.461	16.476	1345.891	1019.251
64.476	16.548	1344.879	1018.831
65.490	16.523	1343.363	1017.443
66.505	16.564	1341.671	1016.313
67.520	16.585	1341.041	1015.877
68.534	16.678	1339.566	1015.225
69.549	16.635	1338.603	1014.145
70.563	16.580	1337.835	1013.144
71.578	16.437	1336.700	1011.344
72.593	16.424	1335.699	1010.420
73.607	16.342	1334.851	1009.193
74.622	16.471	1333.788	1009.073
75.636	16.464	1333.585	1008.787
76.651	16.462	1332.429	1007.816
77.666	16.454	1332.557	1007.770
78.680	16.568	1332.021	1007.960
79.695	16.555	1331.391	1007.316
80.709	16.689	1330.530	1007.371
81.724	16.685	1330.207	1007.013
82.739	16.769	1328.961	1006.478
83.753	16.908	1327.773	1006.320
84.768	17.067	1326.900	1006.506
85.782	17.189	1326.106	1006.540
86.797	17.202	1324.155	1005.049
87.812	17.047	1323.575	1003.602
88.826	17.048	1322.013	1002.337
89.841	17.084	1321.140	1001.796
90.855	17.096	1320.514	1001.302
91.870	17.154	1319.669	1000.919
92.884	17.178	1318.740	1000.265
93.899	17.287	1317.752	1000.071
94.914	17.352	1316.884	999.702
95.928	17.246	1316.196	998.468
96.943	17.164	1315.292	997.214
97.957	17.174	1314.329	996.456
98.972	17.094	1313.410	995.203
99.987	17.164	1311.889	994.370
101.001	17.167	1311.318	993.869
102.016	17.113	1310.517	992.853
103.030	17.253	1309.118	992.523
104.045	17.169	1308.170	991.227
105.060	17.009	1307.169	989.448
106.074	16.799	1305.910	987.188
107.089	16.649	1304.257	984.978
108.103	16.525	1303.043	983.249
109.118	16.572	1301.514	982.283
110.133	16.648	1300.209	981.653
111.147	16.489	1299.152	979.845
112.162	16.749	1297.510	980.027
113.176	16.730	1296.871	979.347
114.191	16.718	1295.674	978.283
115.206	16.816	1294.409	977.810
116.220	16.817	1293.275	976.876
117.235	16.804	1292.297	975.974
118.249	16.762	1291.245	974.852
119.264	16.700	1289.498	973.090
120.279	16.607	1288.821	971.956
121.293	16.648	1287.722	971.277
122.308	16.521	1286.827	969.792
123.322	16.462	1285.684	968.501
124.337	16.482	1284.683	967.779
125.352	16.472	1283.437	966.697
126.366	16.478	1282.299	965.787
127.381	16.493	1281.213	964.971
128.395	16.573	1279.938	964.380
129.410	16.483	1279.792	963.672
130.424	16.620	1279.023	963.792
131.439	16.731	1277.767	963.390
132.454	16.685	1277.305	962.695
133.468	16.688	1276.379	961.928
134.483	16.754	1275.533	961.578
135.497	16.775	1274.633	960.938
136.512	16.743	1273.029	959.460
137.527	16.747	1271.869	958.525
138.541	16.865	1270.482	958.062
139.556	16.961	1269.094	957.468
140.570	16.908	1268.088	956.328
141.585	17.124	1266.739	956.442
142.600	17.020	1266.468	955.566
143.614	17.147	1265.448	955.429
144.629	17.205	1264.335	954.832
145.643	17.133	1263.252	953.525
146.658	17.098	1261.483	951.910
147.673	16.908	1260.465	949.991
148.687	16.957	1258.800	948.924
149.702	16.900	1257.609	947.627
150.716	16.863	1256.421	946.440
151.731	16.856	1255.344	945.505
152.746	16.827	1254.644	944.735
153.760	16.889	1253.320	943.997
154.775	17.035	1251.808	943.586
155.789	17.079	1251.016	943.154
156.804	17.053	1250.029	942.179
157.819	17.082	1249.309	941.712
158.833	17.143	1248.484	941.346
159.848	17.412	1247.601	942.087
160.862	17.207	1246.686	940.181
161.877	17.079	1245.134	938.217
162.892	17.012	1243.865	936.812
163.906	16.967	1243.171	935.958
164.921	16.875	1242.551	934.896
165.935	16.938	1241.929	934.694
166.950	17.130	1240.714	934.756
167.964	17.072	1239.870	933.719
168.979	16.954	1239.655	932.821
169.994	16.996	1238.072	931.782
171.008	17.116	1237.875	932.210
172.023	17.159	1236.965	931.676
173.037	17.215	1236.560	931.594
174.052	17.214	1235.737	930.890
175.067	17.090	1233.898	928.741
176.081	16.933	1233.428	927.447
177.096	16.918	1232.281	926.421
178.110	16.905	1231.610	925.764
179.125	17.118	1230.089	925.698
180.140	17.076	1228.704	924.346
181.154	17.077	1227.962	923.712
182.169	17.284	1226.599	923.733
183.183	17.295	1225.409	922.812
184.198	17.316	1224.601	922.239
185.213	17.317	1223.385	921.244
186.227	17.421	1222.260	920.879
187.242	17.383	1221.609	920.100
188.256	17.387	1220.312	919.067
189.271	17.523	1219.690	919.249
190.286	17.201	1218.653	916.652
191.300	17.024	1216.891	914.287
192.315	16.920	1216.467	913.327
193.329	16.880	1216.420	912.998
194.344	17.146	1215.094	913.354
195.359	17.194	1215.012	913.470
196.373	17.209	1214.628	913.178
197.388	17.311	1214.109	913.255
198.402	17.366	1213.608	913.095
199.417	17.571	1212.821	913.520
200.432	17.805	1211.844	913.958
201.446	17.661	1211.303	912.696
202.461	17.689	1210.761	912.356
203.475	17.804	1209.396	911.863
204.490	17.647	1207.993	909.885
205.504	17.544	1206.557	908.174
206.519	17.530	1205.196	906.995
207.534	17.454	1204.749	906.175
208.548	17.470	1203.870	905.517
209.563	17.404	1203.006	904.437
210.577	17.473	1201.932	903.917
211.592	17.602	1200.872	903.726
212.607	17.680	1200.362	903.676
213.621	17.712	1199.498	903.114
214.636	17.594	1198.807	901.886
215.650	17.573	1198.167	901.216
216.665	17.764	1196.777	901.100
217.680	17.911	1196.093	901.281
218.694	17.897	1195.477	900.664
219.709	17.933	1194.412	899.974
220.723	17.920	1193.338	899.014
221.738	17.780	1193.149	898.052
222.753	17.959	1191.723	897.843
223.767	17.754	1191.872	896.800
224.782	17.963	1190.759	896.979
225.796	18.025	1190.743	897.216
226.811	18.034	1189.723	896.413
227.826	17.854	1188.703	894.622
228.840	17.926	1187.723	894.182
229.855	17.701	1187.554	892.794
230.869	17.810	1186.305	892.351
231.884	17.774	1185.973	891.834
232.899	17.766	1184.655	890.721
233.913	17.647	1184.195	889.675
234.928	17.694	1183.258	889.134
235.942	17.666	1182.429	888.290
236.957	17.631	1181.437	887.281
237.972	17.695	1180.803	887.063
238.986	17.641	1180.066	886.147
240.001	17.742	1179.354	886.062
241.015	17.789	1178.616	885.670
242.030	17.822	1178.091	885.369
243.045	17.926	1176.984	884.999
244.059	17.896	1176.206	884.181
245.074	17.879	1175.576	883.538
246.088	17.851	1175.024	882.904
247.103	18.085	1174.060	883.307
248.117	18.095	1173.670	882.987
249.132	18.290	1172.972	883.395
250.147	18.478	1172.440	883.883
251.161	18.471	1171.750	883.248
252.176	18.451	1171.241	882.684
253.190	18.655	1170.314	882.957
254.205	18.655	1169.881	882.552
255.220	18.631	1169.292	881.908
256.234	18.641	1168.609	881.367
257.249	18.526	1168.207	880.391
258.263	18.631	1167.102	880.021
259.278	18.656	1166.518	879.629
260.293	18.659	1165.974	879.159
261.307	18.600	1165.598	878.495
262.322	18.716	1164.870	878.461
263.336	18.840	1163.819	878.227
264.351	18.843	1163.254	877.738
265.366	18.903	1162.338	877.276
266.380	18.824	1162.038	876.567
267.395	18.777	1161.080	875.528
268.409	18.676	1159.931	874.070
269.424	18.612	1160.049	873.755
270.439	18.551	1159.301	872.803
271.453	18.498	1158.434	871.801
272.468	18.507	1157.051	870.733
273.482	18.528	1156.121	870.063
274.497	18.552	1156.161	870.138
275.512	18.612	1155.599	869.941
276.526	18.590	1154.736	869.103
277.541	18.623	1153.374	868.165
278.555	18.614	1153.246	867.948
279.570	18.864	1152.450	868.537
280.585	18.898	1151.607	867.998
281.599	18.870	1150.859	867.214
282.614	18.783	1149.662	865.796
283.628	18.729	1148.966	864.925
284.643	18.736	1147.712	863.941
285.657	18.770	1146.878	863.407
286.672	18.653	1146.011	862.087
287.687	18.696	1145.058	861.514
288.701	18.757	1144.142	861.051
289.716	18.793	1143.310	860.529
290.730	18.752	1143.067	860.067
291.745	18.881	1142.087	859.896
292.760	18.770	1141.844	859.085
293.774	18.791	1141.148	858.587
294.789	19.052	1140.531	859.352
295.803	19.017	1139.811	858.561
296.818	18.809	1138.915	856.771
297.833	18.847	1138.027	856.215
298.847	18.766	1137.478	855.324
299.862	18.894	1136.515	855.161
300.876	18.966	1136.008	855.061
301.891	18.930	1135.747	854.612
302.906	19.134	1134.902	854.915
303.920	19.120	1134.119	854.177
304.935	19.237	1133.683	854.355
305.949	19.410	1132.841	854.503
306.964	19.274	1132.502	853.498
307.979	19.257	1131.500	852.581
308.993	19.229	1130.787	851.832
310.008	19.198	1130.349	851.271
311.022	19.248	1129.105	850.506
312.037	19.308	1128.185	850.034
313.052	19.069	1127.545	848.300
314.066	19.131	1126.147	847.478
315.081	18.943	1125.420	845.930
316.095	18.852	1124.983	845.079
317.110	18.957	1124.270	844.985
318.125	19.026	1123.487	844.659
319.139	18.949	1122.553	843.508
320.154	18.984	1121.679	842.946
321.168	18.953	1121.503	842.588
322.183	18.933	1121.029	842.060
323.197	18.938	1120.348	841.498
324.212	19.139	1119.345	841.652
325.227	19.142	1119.276	841.539
326.241	19.218	1118.352	841.143
327.256	19.229	1117.259	840.300
328.270	19.013	1116.549	838.638
329.285	19.090	1115.285	837.991
330.300	19.132	1114.343	837.410
331.314	19.224	1113.056	836.815
332.329	19.042	1113.019	835.833
333.343	19.175	1111.789	835.477
334.358	19.351	1111.234	835.841
335.373	19.232	1110.582	834.701
336.387	19.305	1109.759	834.362
337.402	19.319	1109.034	833.812
338.416	19.434	1108.286	833.732
339.431	19.421	1107.590	833.069
340.446	19.493	1107.236	833.078
341.460	19.672	1106.499	833.314
342.475	19.672	1105.811	832.720
343.489	19.741	1104.736	832.171
344.504	19.840	1104.309	832.251
345.519	19.763	1103.259	831.014
346.533	19.910	1102.658	831.196
347.548	19.876	1102.085	830.527
348.562	19.802	1100.830	829.153
349.577	19.770	1100.079	828.362
350.592	19.614	1098.937	826.679
351.606	19.513	1098.306	825.649
352.621	19.435	1097.216	824.385
353.635	19.444	1096.786	824.030
354.650	19.486	1095.940	823.525
355.665	19.480	1095.548	823.127
356.679	19.645	1094.792	823.273
357.694	19.672	1094.179	822.868
358.708	19.743	1093.558	822.664
359.723	19.580	1093.520	821.788
360.738	19.746	1092.704	821.894
361.752	19.726	1091.872	821.097
362.767	19.792	1091.591	821.127
363.781	19.661	1091.092	820.058
364.796	19.721	1090.990	820.196
365.810	19.834	1090.076	819.971
366.825	20.064	1089.438	820.506
367.840	20.171	1088.680	820.367
368.854	20.233	1088.186	820.217
369.869	20.182	1087.614	819.471
370.883	20.110	1086.334	818.095
371.898	20.045	1085.710	817.246
372.913	19.936	1085.352	816.393
373.927	20.078	1084.836	816.599
374.942	20.164	1084.256	816.496
375.956	20.095	1083.927	815.851
376.971	20.189	1082.900	815.448
377.986	20.180	1082.638	815.136
379.000	20.283	1081.756	814.883
380.015	20.382	1081.551	815.121
381.029	20.409	1080.556	814.427
382.044	20.365	1080.217	813.893
383.059	20.323	1079.300	812.932
384.073	20.365	1078.559	812.498
385.088	20.379	1077.488	811.687
386.102	20.421	1076.413	811.003
387.117	20.221	1075.519	809.321
388.132	20.127	1074.622	808.138
389.146	20.134	1074.064	807.678
390.161	20.074	1073.036	806.557
391.175	20.092	1072.643	806.272
392.190	20.290	1071.713	806.423
393.205	20.449	1070.876	806.460
394.219	20.360	1070.056	805.356
395.234	20.191	1069.270	803.910
396.248	20.185	1068.082	802.921
397.263	20.237	1067.044	802.307
398.278	20.166	1066.301	801.351
399.292	20.171	1065.531	800.722
400.307	20.017	1064.667	799.293
401.321	20.108	1064.012	799.153
402.336	20.100	1063.547	798.695
403.350	20.144	1063.032	798.440
404.365	20.164	1062.284	797.899
405.380	20.144	1061.952	797.488
406.394	20.269	1061.173	797.406
407.409	20.349	1060.369	797.099
408.423	20.562	1059.409	797.283
409.438	20.462	1059.370	796.726
410.453	20.709	1058.495	797.128
411.467	20.709	1057.136	796.034
412.482	20.701	1057.097	795.897
413.496	20.740	1056.551	795.596
414.511	20.766	1055.860	795.124
415.526	20.797	1055.495	794.920
416.540	20.889	1055.401	795.195
417.555	20.821	1054.500	794.139
418.569	20.820	1053.789	793.528
419.584	20.719	1053.761	792.976
420.599	20.693	1053.020	792.229
421.613	155.444	1404.578	1796.823
422.628	142.636	1455.776	1796.913
