DTS Sentinel unit serial number:	SN413079Multiplexer serial number:	ORYXHardware model number:	OX4-SRSoftware version number:	ORYX F/W v4.00 Oryx Data Collector v3.7.2.0data status	okinstallation	princeton_trtdifferential loss correction	single-endedforward channel	channel 2reverse channel	N/Adate	2019/09/14time	06:55:34forward acquisition time	60.00reverse acquisition time	0.00gamma	496.2192k internal	0.2339k external	0.2339temperature offset calibration	1.0134default loss term (dB/km)	0.3790temperature slope calibration	1.0000multiplexer offset coefficient	1.0000multiplexer slope coefficient	1.0000fibre end	0.00T internal ref (°C)	26.25T ext. ref 1 (°C)	3.44T ext. ref 2 (°C)	20.92length (m)	temperature (°C)	Stokes	anti-Stokes-747.200	353.435	-0.279	-0.556
-746.185	-92.720	0.284	0.080
-745.171	-12.317	-0.115	-0.076
-744.156	800.000	0.041	0.135
-743.142	-200.000	-0.052	0.260
-742.127	362.359	0.078	0.156
-741.112	166.870	-0.060	0.086
-740.098	-70.876	0.061	-0.023
-739.083	130.261	0.197	-0.252
-738.069	512.943	-0.048	0.112
-737.054	-108.249	0.137	-0.030
-736.039	-94.136	-0.185	-0.051
-735.025	-97.971	0.083	0.021
-734.010	-65.627	-0.452	0.182
-732.996	23.696	0.225	-0.186
-731.981	800.000	-0.019	-0.071
-730.966	-12.959	-0.267	0.174
-729.952	34.314	0.103	0.090
-728.937	278.902	-0.114	0.204
-727.923	-103.488	0.161	-0.038
-726.908	87.057	-0.103	0.114
-725.894	273.612	-0.198	-0.351
-724.879	800.000	-0.051	-0.159
-723.864	-200.000	0.042	-0.261
-722.850	41.166	-0.193	-0.175
-721.835	-164.465	-0.115	0.005
-720.821	-39.950	-0.193	0.101
-719.806	-116.497	-0.149	0.027
-718.791	800.000	0.075	0.245
-717.777	-29.792	-0.106	-0.061
-716.762	-88.520	-0.175	0.052
-715.748	174.086	0.169	-0.245
-714.733	-200.000	-0.004	-0.233
-713.718	-63.117	0.455	-0.188
-712.704	49.799	0.233	0.220
-711.689	273.331	0.061	0.108
-710.675	-200.000	0.017	0.180
-709.660	168.460	0.066	0.094
-708.645	-67.727	0.126	-0.049
-707.631	-76.681	-0.140	0.049
-706.616	800.000	-0.045	0.151
-705.602	276.818	0.111	-0.197
-704.587	-162.955	-0.214	-0.010
-703.572	-66.151	-0.248	-0.099
-702.558	-148.196	0.075	0.006
-701.543	-98.928	0.314	0.080
-700.529	308.123	-0.119	0.223
-699.514	17.048	-0.154	-0.122
-698.499	-9.757	-0.184	-0.123
-697.485	800.000	0.110	-0.388
-696.470	-200.000	-0.027	-0.158
-695.456	637.171	0.094	0.240
-694.441	411.228	0.224	0.477
-693.426	-127.292	-0.137	0.020
-692.412	800.000	-0.076	0.248
-691.397	-46.020	-0.143	-0.071
-690.383	527.612	-0.164	-0.388
-689.368	341.069	-0.149	-0.291
-688.354	-200.000	0.022	-0.136
-687.339	84.466	0.164	0.180
-686.324	72.216	-0.218	-0.227
-685.310	-38.248	0.207	-0.110
-684.295	-78.036	-0.142	0.049
-683.281	-200.000	-0.010	0.214
-682.266	25.920	0.217	0.181
-681.251	-3.141	-0.255	-0.178
-680.237	-200.000	-0.040	-0.214
-679.222	-172.846	-0.236	-0.007
-678.208	-70.296	0.184	-0.070
-677.193	-200.000	0.055	0.293
-676.178	180.566	0.037	0.055
-675.164	594.809	-0.014	0.036
-674.149	-69.211	-0.101	-0.039
-673.135	-31.421	-0.119	0.067
-672.120	193.379	0.138	0.208
-671.105	-200.000	-0.013	0.086
-670.091	-200.000	-0.009	0.229
-669.076	-92.571	-0.214	-0.060
-668.062	-30.770	0.165	0.094
-667.047	-200.000	-0.002	0.262
-666.032	-200.000	-0.015	0.358
-665.018	142.716	0.097	0.128
-664.003	-134.272	-0.118	-0.015
-662.989	310.888	0.061	-0.114
-661.974	335.333	-0.093	-0.180
-660.959	-44.899	-0.358	-0.178
-659.945	225.338	-0.163	0.265
-658.930	-200.000	0.000	-0.096
-657.916	-136.034	-0.120	0.014
-656.901	49.666	0.162	-0.153
-655.886	-200.000	-0.064	-0.392
-654.872	-77.769	-0.081	-0.028
-653.857	-200.000	-0.030	0.516
-652.843	-69.478	-0.105	0.040
-651.828	800.000	0.062	0.216
-650.814	777.659	0.058	0.157
-649.799	-39.589	-0.121	0.063
-648.784	-130.234	0.096	-0.013
-647.770	-149.436	-0.349	0.028
-646.755	85.691	-0.021	0.023
-645.741	800.000	0.023	-0.080
-644.726	-200.000	0.010	-0.295
-643.711	800.000	-0.036	-0.155
-642.697	-23.062	0.093	0.056
-641.682	-185.915	-0.261	-0.004
-640.668	-200.000	0.021	-0.208
-639.653	-137.560	0.420	-0.047
-638.638	-200.000	-0.004	-0.107
-637.624	800.000	0.020	0.069
-636.609	-51.442	-0.112	0.052
-635.595	-200.000	0.032	-0.164
-634.580	800.000	0.026	-0.077
-633.565	-59.400	-0.131	-0.056
-632.551	46.503	-0.290	0.269
-631.536	212.943	-0.117	0.185
-630.522	13.748	-0.094	0.073
-629.507	-79.272	0.021	-0.007
-628.492	-33.911	-0.107	0.059
-627.478	-150.644	-0.142	-0.011
-626.463	-74.965	-0.149	0.053
-625.449	-123.585	0.047	-0.007
-624.434	220.768	0.073	0.116
-623.419	-17.831	-0.203	-0.127
-622.405	136.961	0.165	-0.216
-621.390	800.000	-0.034	-0.108
-620.376	174.548	-0.156	-0.225
-619.361	96.384	0.074	-0.085
-618.346	-84.652	-0.113	-0.035
-617.332	283.154	0.107	-0.193
-616.317	-105.918	0.130	-0.029
-615.303	493.356	-0.037	-0.085
-614.288	800.000	0.050	0.154
-613.273	-61.874	-0.270	-0.113
-612.259	-200.000	-0.028	0.145
-611.244	25.876	0.148	0.123
-610.230	121.154	-0.167	-0.208
-609.215	-2.070	0.058	-0.040
-608.201	-22.592	-0.104	-0.063
-607.186	-23.577	-0.201	0.121
-606.171	-6.699	0.214	-0.145
-605.157	-170.296	-0.168	0.006
-604.142	622.347	0.138	-0.347
-603.128	-79.846	-0.063	0.021
-602.113	-185.791	0.233	0.003
-601.098	-200.000	-0.059	0.280
-600.084	-101.010	-0.219	-0.054
-599.069	-84.596	0.112	-0.035
-598.055	-37.439	-0.115	-0.061
-597.040	-146.362	-0.072	-0.006
-596.025	90.329	0.059	0.066
-595.011	-72.931	0.374	-0.137
-593.996	-200.000	0.021	0.118
-592.982	-200.000	0.065	0.298
-591.967	-200.000	0.025	0.289
-590.952	101.618	0.097	-0.112
-589.938	-98.149	-0.207	0.053
-588.923	-200.000	-0.068	-0.483
-587.909	118.907	-0.133	0.164
-586.894	-44.400	0.082	-0.041
-585.879	-20.164	0.274	0.168
-584.865	221.385	0.056	0.090
-583.850	150.364	0.204	-0.276
-582.836	280.115	-0.135	-0.240
-581.821	-81.509	-0.217	-0.071
-580.806	-63.635	-0.140	-0.057
-579.792	-37.668	-0.301	-0.160
-578.777	-166.519	-0.182	-0.008
-577.763	-152.266	-0.320	0.023
-576.748	800.000	0.052	-0.203
-575.733	152.757	0.076	0.104
-574.719	-200.000	-0.022	-0.202
-573.704	643.184	0.077	-0.195
-572.690	-45.445	0.097	-0.048
-571.675	332.129	-0.114	-0.219
-570.661	-183.734	-0.307	-0.005
-569.646	50.619	0.103	0.097
-568.631	-6.809	0.102	0.069
-567.617	-112.025	-0.100	-0.020
-566.602	44.357	0.308	-0.281
-565.588	-60.660	-0.376	0.159
-564.573	-200.000	-0.007	-0.176
-563.558	-112.900	0.355	0.070
-562.544	153.385	0.084	-0.115
-561.529	-200.000	-0.032	0.227
-560.515	487.728	0.020	0.046
-559.500	-140.222	-0.187	-0.020
-558.485	-102.520	-0.170	0.040
-557.471	-73.422	0.244	-0.089
-556.456	78.803	-0.023	-0.025
-555.442	-200.000	-0.031	-0.197
-554.427	-64.931	-0.291	0.117
-553.412	-46.235	0.350	-0.172
-552.398	-200.000	-0.057	0.279
-551.383	48.229	-0.117	-0.109
-550.369	800.000	0.072	0.217
-549.354	-200.000	0.042	0.190
-548.339	42.442	0.096	-0.087
-547.325	800.000	-0.112	-0.480
-546.310	-200.000	-0.004	-0.310
-545.296	85.150	0.151	-0.165
-544.281	277.214	0.112	-0.198
-543.266	623.479	0.123	0.308
-542.252	160.045	0.158	0.219
-541.237	52.366	-0.213	0.202
-540.223	129.813	-0.087	-0.111
-539.208	-53.071	-0.151	-0.069
-538.193	-106.305	0.143	-0.032
-537.179	-73.998	0.249	0.090
-536.164	-49.823	-0.171	0.081
-535.150	79.893	-0.150	-0.160
-534.135	800.000	0.122	-0.355
-533.121	263.870	-0.257	-0.445
-532.106	26.814	0.070	-0.059
-531.091	9.653	0.155	-0.117
-530.077	113.350	-0.069	-0.083
-529.062	228.313	-0.145	-0.235
-528.048	-200.000	0.034	0.193
-527.033	42.936	0.329	0.299
-526.018	696.177	-0.098	0.257
-525.004	-200.000	0.035	0.233
-523.989	124.331	-0.179	-0.224
-522.975	-93.086	-0.129	-0.036
-521.960	467.014	-0.064	0.143
-520.945	130.227	0.284	-0.361
-519.931	-17.733	0.151	0.094
-518.916	-200.000	-0.051	0.236
-517.902	-200.000	-0.011	-0.201
-516.887	55.026	0.284	-0.272
-515.872	-87.616	-0.153	0.046
-514.858	139.561	-0.187	-0.245
-513.843	110.999	-0.131	-0.157
-512.829	187.419	0.127	0.189
-511.814	-51.403	0.391	-0.182
-510.799	-200.000	0.044	-0.421
-509.785	697.261	0.020	0.052
-508.770	86.935	-0.168	-0.185
-507.756	-200.000	0.034	-0.211
-506.741	-136.046	0.124	-0.014
-505.726	-112.311	-0.080	0.016
-504.712	-74.844	-0.206	-0.073
-503.697	15.530	0.237	-0.185
-502.683	86.466	0.163	-0.179
-501.668	800.000	0.050	0.190
-500.653	-200.000	0.051	-0.238
-499.639	-106.384	-0.403	-0.090
-498.624	-114.982	0.312	0.059
-497.610	70.064	0.109	0.112
-496.595	-3.281	0.202	-0.140
-495.581	-58.513	-0.209	-0.090
-494.566	3.518	0.190	0.137
-493.551	-75.612	0.210	0.074
-492.537	-119.255	-0.289	0.050
-491.522	286.454	0.127	0.227
-490.508	-42.398	-0.171	-0.087
-489.493	0.474	-0.194	0.138
-488.478	-50.169	-0.170	-0.080
-487.464	6.866	0.108	-0.080
-486.449	-18.642	0.140	-0.087
-485.435	229.396	0.039	0.064
-484.420	800.000	0.086	-0.241
-483.405	-54.093	0.049	-0.022
-482.391	482.686	0.125	-0.283
-481.376	-89.300	0.329	0.096
-480.362	800.000	-0.065	-0.177
-479.347	-16.542	-0.050	-0.032
-478.332	800.000	-0.107	-0.298
-477.318	-200.000	0.095	-0.538
-476.303	116.559	0.099	-0.121
-475.289	800.000	-0.014	-0.055
-474.274	112.223	0.147	0.176
-473.259	800.000	-0.111	0.315
-472.245	-43.150	-0.081	0.041
-471.230	-146.830	-0.175	0.015
-470.216	800.000	0.129	0.410
-469.201	800.000	-0.103	0.307
-468.186	-6.747	-0.209	0.141
-467.172	-19.913	-0.223	0.137
-466.157	563.915	0.059	-0.142
-465.143	-24.730	-0.155	-0.091
-464.128	800.000	0.074	0.266
-463.113	-200.000	0.052	0.239
-462.099	112.616	-0.156	-0.187
-461.084	-122.301	0.138	0.022
-460.070	137.679	0.160	0.208
-459.055	146.770	-0.143	-0.191
-458.040	-200.000	-0.063	-0.457
-457.026	-42.795	-0.194	0.098
-456.011	-131.049	0.320	0.042
-454.997	-80.252	-0.274	-0.091
-453.982	-166.784	-0.336	-0.014
-452.968	70.308	0.138	-0.141
-451.953	-55.899	-0.133	0.059
-450.938	800.000	0.063	0.202
-449.924	57.139	0.167	0.161
-448.909	542.935	-0.071	0.167
-447.895	-200.000	-0.008	0.093
-446.880	63.725	0.076	-0.075
-445.865	-21.258	0.213	0.129
-444.851	-83.748	-0.222	-0.070
-443.836	-183.442	-0.376	-0.006
-442.822	800.000	-0.081	0.251
-441.807	800.000	0.028	-0.095
-440.792	-113.688	0.338	-0.065
-439.778	-172.901	0.151	0.005
-438.763	125.353	0.060	-0.075
-437.749	-200.000	0.018	0.142
-436.734	18.395	-0.164	-0.130
-435.719	0.043	0.058	-0.041
-434.705	169.871	0.027	0.038
-433.690	183.731	0.121	0.177
-432.676	-155.226	0.436	-0.028
-431.661	-93.870	0.105	0.029
-430.646	-150.443	-0.170	-0.013
-429.632	800.000	-0.045	-0.130
-428.617	-33.606	0.056	0.031
-427.603	115.832	-0.105	-0.128
-426.588	-75.915	-0.291	-0.102
-425.573	137.139	0.091	-0.118
-424.559	-84.413	0.244	-0.077
-423.544	-76.069	0.059	0.021
-422.530	-200.000	0.006	-0.127
-421.515	155.599	-0.016	-0.022
-420.500	-58.416	-0.076	0.033
-419.486	58.053	0.187	-0.181
-418.471	-200.000	0.038	-0.305
-417.457	18.181	-0.072	-0.057
-416.442	-89.578	0.291	0.085
-415.428	238.965	-0.149	0.246
-414.413	-125.349	0.297	0.045
-413.398	-108.161	0.068	-0.014
-412.384	-162.747	0.205	-0.010
-411.369	354.675	-0.047	0.093
-410.355	800.000	0.052	0.183
-409.340	-128.976	-0.103	-0.014
-408.325	198.205	0.102	0.155
-407.311	246.957	0.081	0.136
-406.296	-59.865	0.290	0.123
-405.282	106.792	-0.143	0.168
-404.267	-200.000	-0.016	0.220
-403.252	-200.000	-0.024	0.106
-402.238	-58.645	0.234	0.100
-401.223	-125.851	-0.410	0.061
-400.209	-76.162	-0.284	-0.099
-399.194	-137.224	-0.365	0.041
-398.179	-200.000	-0.008	-0.340
-397.165	134.111	0.142	0.182
-396.150	288.237	0.039	-0.069
-395.136	712.977	0.049	0.129
-394.121	-200.000	-0.009	-0.184
-393.106	-157.147	-0.115	-0.007
-392.092	551.144	0.025	-0.060
-391.077	118.558	-0.197	0.240
-390.063	176.837	0.130	0.187
-389.048	-200.000	0.010	0.063
-388.033	-29.455	-0.150	0.085
-387.019	-91.801	-0.244	-0.069
-386.004	-200.000	-0.001	0.103
-384.990	-147.843	-0.251	-0.021
-383.975	800.000	0.111	0.454
-382.960	-99.561	0.272	0.068
-381.946	800.000	-0.033	-0.129
-380.931	-54.330	0.352	0.158
-379.917	-200.000	0.004	0.360
-378.902	390.665	-0.135	-0.277
-377.888	-115.781	0.423	0.078
-376.873	-80.090	0.175	-0.058
-375.858	800.000	0.047	0.183
-374.844	-200.000	-0.008	0.074
-373.829	34.818	-0.179	-0.154
-372.815	-31.794	0.068	-0.038
-371.800	316.441	0.068	0.126
-370.785	25.197	0.106	0.087
-369.771	-64.863	0.340	-0.136
-368.756	132.634	0.123	0.157
-367.742	-15.096	-0.196	0.124
-366.727	123.744	0.093	0.116
-365.712	340.810	0.145	0.280
-364.698	-71.933	-0.262	-0.096
-363.683	87.238	-0.237	0.258
-362.669	-22.132	0.115	0.069
-361.654	-90.525	0.226	0.065
-360.639	-30.339	0.080	0.045
-359.625	-200.000	0.002	-0.049
-358.610	800.000	0.087	-0.292
-357.596	-122.171	-0.169	-0.027
-356.581	-140.716	-0.189	0.019
-355.566	-87.318	0.314	0.094
-354.552	-112.367	-0.153	0.030
-353.537	800.000	-0.072	0.258
-352.523	224.226	0.062	0.100
-351.508	244.608	-0.107	0.177
-350.493	-31.646	-0.105	-0.058
-349.479	11.378	0.151	-0.114
-348.464	88.558	-0.251	0.276
-347.450	-116.594	0.088	0.016
-346.435	-92.404	-0.120	-0.033
-345.420	-130.769	-0.081	-0.011
-344.406	-200.000	-0.032	-0.166
-343.391	733.420	0.092	0.242
-342.377	-29.630	0.032	0.018
-341.362	-31.020	-0.185	-0.103
-340.348	367.900	0.065	0.130
-339.333	-85.451	0.134	-0.041
-338.318	-200.000	-0.004	0.044
-337.304	359.994	0.081	-0.160
-336.289	-135.416	0.198	0.023
-335.275	800.000	-0.080	-0.246
-334.260	-28.672	-0.145	-0.082
-333.245	47.532	-0.257	-0.236
-332.231	60.855	-0.171	-0.167
-331.216	-2.554	0.182	0.126
-330.202	190.624	-0.216	-0.320
-329.187	-68.945	0.218	-0.083
-328.172	-6.361	-0.224	0.151
-327.158	-180.424	-0.064	0.001
-326.143	132.910	-0.063	0.080
-325.129	22.813	-0.077	-0.062
-324.114	800.000	-0.045	0.151
-323.099	11.740	-0.281	-0.213
-322.085	-121.529	0.352	0.058
-321.070	457.069	-0.160	-0.351
-320.056	50.744	-0.235	0.220
-319.041	18.213	0.230	0.181
-318.026	-125.167	0.216	-0.033
-317.012	-46.320	-0.076	-0.037
-315.997	68.125	-0.085	0.086
-314.983	136.858	-0.186	0.240
-313.968	800.000	0.113	0.376
-312.953	-125.200	-0.244	0.037
-311.939	-200.000	-0.020	0.195
-310.924	-200.000	0.126	0.672
-309.910	800.000	0.086	0.344
-308.895	-87.614	0.116	-0.034
-307.880	-158.914	0.200	-0.011
-306.866	407.487	-0.030	0.063
-305.851	-200.000	0.045	0.216
-304.837	147.774	-0.115	-0.153
-303.822	52.124	-0.303	-0.285
-302.807	530.019	-0.201	-0.469
-301.793	-71.004	-0.118	-0.044
-300.778	-86.966	0.042	-0.013
-299.764	-200.000	-0.020	0.270
-298.749	110.195	-0.110	-0.130
-297.735	-136.228	0.133	-0.015
-296.720	-122.500	0.091	-0.015
-295.705	200.803	-0.142	0.216
-294.691	800.000	-0.017	0.057
-293.676	800.000	-0.096	0.302
-292.662	-103.857	-0.397	0.091
-291.647	62.989	-0.281	-0.277
-290.632	-48.762	0.135	-0.064
-289.618	-128.778	0.294	0.041
-288.603	-29.852	-0.163	0.092
-287.589	-50.053	0.076	-0.036
-286.574	-4.524	-0.133	-0.090
-285.559	-200.000	-0.033	0.213
-284.545	6.455	0.029	-0.021
-283.530	-200.000	-0.008	-0.112
-282.516	-200.000	0.050	0.220
-281.501	-200.000	-0.058	0.315
-280.486	483.932	0.018	-0.040
-279.472	-200.000	-0.020	0.165
-278.457	723.522	0.070	-0.183
-277.443	417.429	-0.080	0.168
-276.428	595.504	0.124	0.302
-275.413	-92.843	-0.162	0.045
-274.399	-42.117	-0.530	0.267
-273.384	229.771	0.148	-0.238
-272.370	800.000	-0.041	0.146
-271.355	-170.869	-0.245	-0.008
-270.340	546.810	0.042	-0.099
-269.326	-115.669	-0.172	0.032
-268.311	152.529	0.159	0.214
-267.297	-18.614	-0.151	-0.093
-266.282	-94.785	-0.297	-0.079
-265.267	-102.402	-0.395	0.093
-264.253	-24.680	-0.474	0.278
-263.238	-86.016	-0.066	0.020
-262.224	-200.000	-0.022	0.196
-261.209	-85.547	-0.211	0.065
-260.195	51.601	0.194	-0.182
-259.180	-75.621	0.023	-0.008
-258.165	-90.782	-0.019	-0.006
-257.151	118.722	-0.049	-0.059
-256.136	-82.803	0.342	0.109
-255.122	89.928	-0.140	-0.154
-254.107	-170.019	-0.144	-0.005
-253.092	-87.100	0.131	-0.039
-252.078	731.097	-0.060	0.158
-251.063	401.732	0.040	0.082
-250.049	172.711	-0.165	0.234
-249.034	-94.609	0.171	0.046
-248.019	-73.416	0.203	-0.073
-247.005	-87.047	-0.044	-0.013
-245.990	800.000	-0.116	0.403
-244.976	34.387	-0.095	0.081
-243.961	255.247	0.143	0.241
-242.946	599.246	-0.068	-0.165
-241.932	-30.151	-0.044	0.024
-240.917	-42.836	-0.447	-0.223
-239.903	332.274	0.041	-0.079
-238.888	800.000	-0.020	-0.069
-237.873	-73.836	0.091	0.033
-236.859	-127.242	0.348	0.050
-235.844	605.193	-0.035	0.087
-234.830	11.751	0.512	-0.387
-233.815	-200.000	0.032	-0.300
-232.800	-10.426	0.148	-0.096
-231.786	-200.000	0.033	-0.156
-230.771	524.853	-0.088	0.205
-229.757	471.173	0.069	0.153
-228.742	182.986	0.064	0.093
-227.727	4.841	-0.324	-0.234
-226.713	383.720	0.106	0.214
-225.698	-12.739	0.342	0.219
-224.684	358.946	0.147	0.288
-223.669	63.760	0.107	-0.106
-222.655	-98.672	0.374	-0.094
-221.640	-200.000	-0.020	-0.244
-220.625	-41.084	-0.133	-0.067
-219.611	37.393	0.340	0.296
-218.596	-115.966	0.218	-0.040
-217.582	-200.000	0.038	-0.278
-216.567	350.304	-0.051	-0.100
-215.552	-122.704	-0.312	-0.050
-214.538	-52.917	-0.241	0.109
-213.523	13.859	0.124	-0.095
-212.509	-29.144	-0.177	-0.100
-211.494	-31.771	-0.259	-0.143
-210.479	-200.000	0.018	0.131
-209.465	-18.680	0.122	-0.075
-208.450	-200.000	0.137	-0.000
-207.436	-6.818	0.039	-0.026
-206.421	-74.547	0.301	-0.106
-205.406	-200.000	-0.023	0.252
-204.392	-200.000	0.016	0.181
-203.377	-74.006	0.132	-0.047
-202.363	196.251	0.200	0.299
-201.348	-111.969	0.148	0.029
-200.333	75.204	0.073	-0.075
-199.319	-152.209	0.109	-0.008
-198.304	-140.057	0.243	-0.025
-197.290	-142.922	-0.347	0.033
-196.275	90.882	0.098	-0.107
-195.260	349.284	0.042	-0.081
-194.246	-200.000	-0.027	-0.144
-193.231	-31.933	0.118	0.065
-192.217	-119.253	-0.325	0.056
-191.202	-200.000	-0.014	-0.178
-190.187	-200.000	-0.023	0.205
-189.173	-61.316	0.049	0.020
-188.158	-153.659	0.257	0.017
-187.144	800.000	-0.045	0.164
-186.129	-62.839	0.154	-0.062
-185.114	107.061	0.133	-0.155
-184.100	-145.155	0.123	-0.011
-183.085	-76.695	-0.162	0.056
-182.071	-132.328	-0.138	0.018
-181.056	-100.611	0.177	0.043
-180.042	-200.000	-0.002	-0.222
-179.027	19.876	0.159	0.126
-178.012	436.953	-0.075	0.161
-176.998	-30.194	-0.246	-0.137
-175.983	-11.694	0.291	-0.188
-174.969	-101.401	-0.059	0.014
-173.954	92.637	-0.124	0.138
-172.939	773.803	0.098	0.262
-171.925	5.173	0.234	0.169
-170.910	-184.359	-0.073	0.001
-169.896	-58.099	-0.192	-0.082
-168.881	330.529	0.068	0.128
-167.866	-200.000	-0.013	0.207
-166.852	-200.000	0.024	-0.171
-165.837	107.852	0.302	-0.352
-164.823	-200.000	0.052	-0.276
-163.808	-76.389	0.209	-0.072
-162.793	-65.279	0.063	0.025
-161.779	-200.000	0.009	0.369
-160.764	33.374	-0.303	-0.258
-159.750	599.611	0.029	0.072
-158.735	42.735	-0.014	0.012
-157.720	-15.889	0.326	-0.203
-156.706	417.779	0.108	-0.226
-155.691	-185.652	-0.204	0.003
-154.677	716.693	0.019	-0.050
-153.662	-144.281	0.105	-0.010
-152.647	-199.187	0.400	-0.002
-151.633	-86.925	0.043	0.013
-150.618	-112.031	-0.268	0.053
-149.604	191.612	0.165	-0.244
-148.589	-200.000	0.005	-0.224
-147.574	-140.541	-0.282	0.029
-146.560	-119.237	0.141	0.024
-145.545	201.684	0.122	-0.184
-144.531	-107.754	-0.257	-0.055
-143.516	-32.002	0.224	0.123
-142.502	-200.000	-0.008	0.117
-141.487	800.000	0.027	0.114
-140.472	87.567	0.145	-0.158
-139.458	-4.499	0.059	-0.040
-138.443	44.324	0.113	-0.102
-137.429	-87.991	0.250	0.073
-136.414	71.725	-0.248	-0.253
-135.399	-184.615	0.034	-0.001
-134.385	-107.896	-0.108	0.023
-133.370	-92.113	0.477	0.132
-132.356	-74.565	0.215	-0.076
-131.341	-35.700	-0.210	-0.111
-130.326	-9.585	-0.224	0.146
-129.312	29.174	0.059	0.049
-128.297	76.591	-0.160	-0.166
-127.283	-148.851	0.289	0.023
-126.268	23.083	-0.078	-0.063
-125.253	-52.497	-0.149	0.067
-124.239	69.734	0.226	-0.228
-123.224	19.897	-0.191	-0.150
-122.210	630.069	0.109	-0.271
-121.195	202.355	0.137	0.208
-120.180	-200.000	0.061	0.317
-119.166	-35.158	0.127	-0.068
-118.151	-101.492	-0.164	0.039
-117.137	167.899	0.069	0.096
-116.122	-42.948	-0.255	0.127
-115.107	-27.203	-0.160	-0.091
-114.093	328.135	0.030	-0.056
-113.078	-200.000	0.029	-0.250
-112.064	-33.722	-0.260	-0.140
-111.049	444.205	-0.156	-0.334
-110.034	-167.299	0.556	0.022
-109.020	800.000	-0.043	0.124
-108.005	-30.587	0.132	0.073
-106.991	-180.458	0.538	-0.011
-105.976	626.869	-0.090	0.222
-104.962	-200.000	0.049	-0.331
-103.947	-91.914	0.151	-0.042
-102.932	-200.000	0.038	0.262
-101.918	78.032	-0.080	-0.083
-100.903	-26.795	0.153	-0.087
-99.889	19.606	-0.249	0.196
-98.874	501.786	0.187	-0.422
-97.859	37.879	0.094	0.082
-96.845	-42.563	0.144	0.072
-95.830	-38.393	-0.065	-0.034
-94.816	-84.893	-0.123	0.038
-93.801	-38.401	-0.059	0.031
-92.786	-92.982	0.269	-0.073
-91.772	60.743	0.237	-0.230
-90.757	112.510	-0.180	-0.213
-89.743	467.836	-0.048	-0.105
-88.728	-151.937	0.190	0.014
-87.713	-50.547	-0.442	0.204
-86.699	574.334	-0.121	-0.287
-85.684	-103.086	0.345	-0.080
-84.670	-37.251	0.052	-0.027
-83.655	133.107	-0.164	0.207
-82.640	319.151	0.140	-0.260
-81.626	22.438	0.159	-0.127
-80.611	-30.965	0.341	0.188
-79.597	-132.490	0.138	-0.017
-78.582	-36.350	0.136	-0.071
-77.567	-75.265	0.249	-0.087
-76.553	-61.647	-0.079	0.032
-75.538	81.922	-0.196	-0.207
-74.524	-25.259	0.292	0.169
-73.509	-200.000	0.276	0.001
-72.494	-84.128	0.257	0.080
-71.480	-43.287	-0.125	-0.062
-70.465	-81.300	0.315	-0.102
-69.451	800.000	-0.034	0.106
-68.436	641.912	-0.130	-0.324
-67.422	-33.528	0.077	-0.041
-66.407	-177.763	0.155	-0.004
-65.392	-180.136	0.373	0.008
-64.378	-6.350	-0.266	-0.177
-63.363	-61.123	0.140	-0.058
-62.349	-200.000	0.001	-0.045
-61.334	69.386	-0.921	-0.926
-60.319	-13.782	0.893	0.564
-59.305	-200.000	-0.172	-1.150
-58.290	134.511	1.077	1.365
-57.276	480.469	0.676	1.497
-56.261	-200.000	117.698	638.158
-55.246	482.740	1553.250	3446.958
-54.232	172.341	2735.157	3841.606
-53.217	98.078	2303.952	2589.497
-52.203	35.363	1909.336	1635.296
-51.188	29.420	1702.107	1412.421
-50.173	27.028	1661.193	1360.521
-49.159	46.868	1719.312	1560.027
-48.144	45.591	1732.908	1562.560
-47.130	28.844	1689.923	1397.710
-46.115	26.301	1674.929	1366.056
-45.100	26.213	1670.148	1361.438
-44.086	26.161	1667.981	1359.229
-43.071	26.188	1665.082	1357.013
-42.057	26.193	1662.534	1354.927
-41.042	26.168	1660.573	1353.082
-40.027	26.103	1659.065	1351.311
-39.013	26.045	1657.210	1349.319
-37.998	26.087	1655.707	1348.353
-36.984	26.137	1654.266	1347.498
-35.969	26.143	1652.999	1346.462
-34.954	26.252	1651.241	1345.788
-33.940	26.174	1649.772	1343.956
-32.925	26.193	1647.581	1342.260
-31.911	26.223	1645.667	1340.870
-30.896	26.202	1643.943	1339.256
-29.881	26.226	1642.751	1338.408
-28.867	26.243	1640.990	1337.048
-27.852	26.268	1639.961	1336.340
-26.838	26.286	1638.097	1334.901
-25.823	26.275	1636.776	1333.687
-24.809	26.367	1635.271	1333.091
-23.794	26.227	1634.350	1331.256
-22.779	26.318	1632.437	1330.312
-21.765	26.282	1631.014	1328.837
-20.750	26.223	1629.264	1326.922
-19.736	26.225	1628.357	1326.143
-18.721	26.395	1626.230	1325.605
-17.706	26.312	1624.983	1323.932
-16.692	26.262	1623.439	1322.254
-15.677	26.328	1621.812	1321.357
-14.663	26.291	1620.541	1320.004
-13.648	26.341	1619.041	1319.091
-12.633	26.319	1617.427	1317.566
-11.619	26.340	1615.679	1316.238
-10.604	26.329	1614.380	1315.049
-9.590	26.351	1613.283	1314.265
-8.575	26.316	1611.613	1312.596
-7.560	26.249	1610.573	1311.214
-6.546	26.281	1609.550	1310.562
-5.531	26.235	1608.788	1309.555
-4.517	26.285	1607.575	1308.878
-3.502	26.357	1606.635	1308.577
-2.487	26.331	1604.694	1306.761
-1.473	26.008	1592.678	1294.605
-0.458	23.141	1572.700	1257.960
0.556	20.675	1574.395	1227.214
1.571	18.479	1599.078	1230.594
2.586	18.084	1611.771	1237.397
3.600	16.109	1556.216	1180.821
4.615	9.535	1448.740	1056.184
5.629	4.272	1389.543	979.764
6.644	3.464	1382.227	969.440
7.659	3.409	1381.231	968.306
8.673	3.358	1380.344	967.281
9.688	3.549	1377.527	966.417
10.702	3.512	1374.696	964.112
11.717	5.998	1379.111	982.697
12.731	12.971	1392.381	1035.988
13.746	18.926	1402.384	1080.892
14.761	20.270	1403.333	1089.975
15.775	19.675	1401.331	1084.588
16.790	18.687	1399.242	1076.685
17.804	17.973	1396.522	1070.026
18.819	17.534	1395.358	1066.291
19.834	17.309	1394.438	1064.083
20.848	17.286	1392.495	1062.361
21.863	16.942	1391.618	1059.454
22.877	16.859	1390.603	1058.064
23.892	16.797	1389.906	1057.054
24.907	16.758	1388.704	1055.802
25.921	16.748	1388.025	1055.134
26.936	16.756	1387.416	1054.625
27.950	16.908	1385.780	1054.237
28.965	16.904	1385.507	1053.906
29.980	17.144	1383.990	1054.154
30.994	17.125	1383.082	1053.248
32.009	17.159	1381.915	1052.479
33.023	17.085	1380.723	1051.021
34.038	17.034	1379.185	1049.441
35.053	16.971	1378.096	1048.132
36.067	16.960	1377.129	1047.232
37.082	17.019	1375.811	1046.504
38.096	17.088	1374.641	1045.946
39.111	17.097	1374.188	1045.561
40.126	17.056	1373.107	1044.394
41.140	16.804	1372.364	1042.191
42.155	16.637	1371.828	1040.663
43.169	16.683	1371.295	1040.446
44.184	16.655	1371.119	1040.050
45.199	16.657	1370.586	1039.568
46.213	16.842	1369.622	1039.879
47.228	16.910	1369.629	1040.209
48.242	16.946	1368.182	1039.240
49.257	16.912	1366.647	1037.774
50.271	16.881	1365.335	1036.497
51.286	16.914	1363.703	1035.364
52.301	17.026	1362.370	1034.943
53.315	16.885	1361.347	1033.220
54.330	16.796	1360.157	1031.678
55.344	16.690	1359.288	1030.285
56.359	16.688	1358.557	1029.628
57.374	16.667	1358.017	1029.001
58.388	16.571	1357.042	1027.584
59.403	16.646	1355.963	1027.135
60.417	16.673	1355.367	1026.754
61.432	16.589	1354.537	1025.528
62.447	16.526	1353.146	1024.001
63.461	16.494	1352.433	1023.177
64.476	16.386	1351.653	1021.847
65.490	16.503	1350.047	1021.244
66.505	16.513	1348.444	1020.002
67.520	16.634	1347.058	1019.591
68.534	16.592	1346.224	1018.621
69.549	16.534	1345.263	1017.451
70.563	16.444	1344.388	1016.159
71.578	16.428	1343.034	1014.951
72.593	16.428	1341.902	1014.004
73.607	16.369	1341.330	1013.131
74.622	16.337	1340.266	1012.046
75.636	16.405	1339.841	1012.043
76.651	16.414	1339.478	1011.735
77.666	16.486	1338.812	1011.571
78.680	16.479	1338.344	1011.087
79.695	16.632	1337.636	1011.377
80.709	16.675	1336.767	1010.887
81.724	16.619	1336.177	1010.013
82.739	16.781	1334.961	1009.973
83.753	16.772	1334.662	1009.603
84.768	16.847	1333.879	1009.371
85.782	17.061	1332.558	1009.554
86.797	16.905	1331.358	1007.630
87.812	16.877	1329.946	1006.305
88.826	16.946	1328.353	1005.417
89.841	17.015	1327.650	1005.204
90.855	17.075	1326.535	1004.626
91.870	16.995	1325.773	1003.491
92.884	17.059	1325.095	1003.268
93.899	16.987	1324.089	1001.992
94.914	17.172	1323.230	1002.340
95.928	17.175	1322.565	1001.766
96.943	17.094	1321.411	1000.326
97.957	17.004	1320.654	999.134
98.972	17.025	1319.743	998.482
99.987	16.985	1318.736	997.398
101.001	17.102	1317.258	996.878
102.016	17.006	1316.526	995.670
103.030	17.109	1315.351	995.302
104.045	16.968	1315.011	994.128
105.060	16.916	1313.519	992.608
106.074	16.822	1311.744	990.630
107.089	16.589	1310.524	988.262
108.103	16.527	1309.567	987.088
109.118	16.554	1308.234	986.151
110.133	16.554	1306.427	984.704
111.147	16.599	1305.063	983.852
112.162	16.675	1304.220	983.569
113.176	16.768	1302.819	982.965
114.191	16.735	1302.255	982.262
115.206	16.809	1300.527	981.298
116.220	16.637	1299.829	979.692
117.235	16.704	1298.996	979.364
118.249	16.583	1298.327	978.075
119.264	16.671	1296.439	977.075
120.279	16.538	1295.524	975.527
121.293	16.625	1293.934	974.749
122.308	16.547	1292.867	973.407
123.322	16.558	1291.961	972.705
124.337	16.462	1291.489	971.712
125.352	16.480	1290.253	970.798
126.366	16.480	1288.998	969.769
127.381	16.475	1287.915	968.838
128.395	16.450	1286.859	967.813
129.410	16.427	1286.325	967.194
130.424	16.527	1284.961	966.656
131.439	16.600	1284.626	966.736
132.454	16.688	1283.669	966.432
133.468	16.584	1282.864	965.148
134.483	16.667	1281.887	964.798
135.497	16.616	1281.032	963.778
136.512	16.685	1279.652	963.050
137.527	16.695	1278.391	962.074
138.541	16.722	1277.200	961.245
139.556	16.786	1275.594	960.313
140.570	16.773	1274.765	959.534
141.585	16.935	1273.223	959.201
142.600	16.977	1272.596	958.882
143.614	17.057	1271.505	958.428
144.629	16.941	1271.082	957.366
145.643	16.999	1269.386	956.335
146.658	17.076	1267.847	955.524
147.673	16.839	1266.656	953.208
148.687	16.683	1265.430	951.326
149.702	16.776	1263.917	950.623
150.716	16.797	1262.723	949.762
151.731	16.757	1262.043	948.943
152.746	16.824	1260.272	947.897
153.760	16.897	1259.040	947.298
154.775	16.895	1258.040	946.453
155.789	16.930	1257.512	946.165
156.804	16.996	1256.320	945.549
157.819	17.016	1255.423	944.903
158.833	17.096	1254.546	944.603
159.848	17.327	1253.271	944.844
160.862	17.212	1252.458	943.513
161.877	16.931	1251.311	941.006
162.892	16.834	1250.219	939.559
163.906	16.932	1248.887	939.023
164.921	16.827	1248.529	938.084
165.935	16.800	1247.759	937.275
166.950	17.008	1246.940	937.729
167.964	16.878	1246.247	936.404
168.979	16.925	1245.450	935.981
169.994	16.908	1244.774	935.300
171.008	16.984	1243.849	934.939
172.023	17.156	1243.087	935.232
173.037	17.091	1242.382	934.259
174.052	17.221	1240.817	933.718
175.067	17.010	1240.039	931.886
176.081	17.005	1238.774	930.830
177.096	16.899	1238.009	929.590
178.110	16.913	1237.081	928.890
179.125	17.002	1235.766	928.304
180.140	17.028	1234.463	927.385
181.154	17.059	1233.323	926.620
182.169	17.126	1232.452	926.243
183.183	17.227	1231.153	925.740
184.198	17.256	1230.190	925.090
185.213	17.233	1229.085	924.051
186.227	17.291	1227.868	923.369
187.242	17.226	1227.120	922.375
188.256	17.383	1226.059	922.346
189.271	17.437	1224.960	921.728
190.286	17.238	1223.823	919.716
191.300	16.964	1222.674	917.287
192.315	16.815	1222.283	916.110
193.329	16.858	1221.531	915.698
194.344	17.046	1220.593	915.930
195.359	17.081	1220.646	916.075
196.373	17.163	1220.238	916.132
197.388	17.274	1219.595	916.163
198.402	17.424	1219.348	916.704
199.417	17.563	1218.589	916.804
200.432	17.643	1217.934	916.658
201.446	17.684	1216.665	915.841
202.461	17.566	1216.646	915.115
203.475	17.654	1215.342	914.523
204.490	17.573	1213.630	912.722
205.504	17.478	1212.309	911.140
206.519	17.424	1211.334	910.038
207.534	17.440	1210.108	909.123
208.548	17.478	1208.785	908.249
209.563	17.413	1208.414	907.541
210.577	17.419	1207.307	906.666
211.592	17.553	1206.438	906.646
212.607	17.651	1205.821	906.622
213.621	17.618	1204.950	905.708
214.636	17.611	1204.094	904.949
215.650	17.608	1203.175	904.163
216.665	17.754	1202.272	904.177
217.680	17.837	1201.159	903.701
218.694	17.889	1200.518	903.416
219.709	17.837	1199.613	902.377
220.723	17.802	1198.927	901.599
221.738	17.771	1198.332	900.907
222.753	17.704	1197.525	899.868
223.767	17.755	1196.876	899.570
224.782	17.870	1196.219	899.598
225.796	17.925	1195.787	899.486
226.811	17.875	1194.704	898.331
227.826	17.763	1194.324	897.375
228.840	17.806	1192.921	896.466
229.855	17.778	1192.315	895.783
230.869	17.789	1191.572	895.205
231.884	17.797	1190.719	894.525
232.899	17.627	1190.329	893.265
233.913	17.676	1189.311	892.677
234.928	17.587	1188.271	891.354
235.942	17.637	1187.401	890.885
236.957	17.733	1186.874	890.911
237.972	17.709	1186.004	890.053
238.986	17.717	1185.555	889.679
240.001	17.680	1184.542	888.646
241.015	17.731	1183.831	888.298
242.030	17.735	1183.354	887.885
243.045	17.757	1182.588	887.347
244.059	17.775	1182.060	886.965
245.074	17.899	1180.849	886.621
246.088	18.001	1179.977	886.418
247.103	18.087	1179.658	886.546
248.117	18.132	1178.728	886.003
249.132	18.226	1178.175	885.993
250.147	18.259	1177.519	885.595
251.161	18.402	1176.790	885.705
252.176	18.380	1176.194	885.065
253.190	18.539	1175.524	885.306
254.205	18.582	1174.759	884.870
255.220	18.663	1174.180	884.776
256.234	18.492	1173.711	883.461
257.249	18.579	1172.851	883.186
258.263	18.557	1172.058	882.396
259.278	18.459	1171.898	881.695
260.293	18.482	1171.006	881.061
261.307	18.527	1170.459	880.803
262.322	18.690	1170.045	881.253
263.336	18.765	1169.374	881.053
264.351	18.636	1168.915	879.967
265.366	18.717	1167.873	879.522
266.380	18.567	1167.242	878.198
267.395	18.638	1166.251	877.741
268.409	18.543	1165.630	876.708
269.424	18.597	1164.984	876.421
270.439	18.551	1164.313	875.603
271.453	18.592	1163.738	875.305
272.468	18.597	1162.411	874.252
273.482	18.542	1161.504	873.213
274.497	18.530	1161.157	872.814
275.512	18.478	1160.386	871.895
276.526	18.474	1159.931	871.453
277.541	18.467	1158.664	870.388
278.555	18.536	1158.397	870.462
279.570	18.671	1157.567	870.447
280.585	18.763	1156.849	870.294
281.599	18.877	1155.736	869.956
282.614	18.706	1154.623	868.180
283.628	18.732	1153.520	867.406
284.643	18.836	1152.265	866.906
285.657	18.613	1151.871	865.409
286.672	18.597	1151.211	864.759
287.687	18.687	1150.008	864.231
288.701	18.762	1148.924	863.716
289.716	18.771	1148.436	863.318
290.730	18.830	1147.752	863.024
291.745	18.772	1147.135	862.193
292.760	18.857	1146.836	862.320
293.774	18.816	1145.839	861.286
294.789	18.978	1145.385	861.679
295.803	19.039	1144.615	861.332
296.818	18.827	1144.087	859.794
297.833	18.752	1143.249	858.716
298.847	18.796	1142.221	858.088
299.862	18.865	1141.168	857.562
300.876	18.943	1140.977	857.732
301.891	19.016	1140.121	857.380
302.906	19.015	1139.431	856.780
303.920	19.153	1138.872	856.970
304.935	19.154	1138.198	856.393
305.949	19.278	1137.997	856.783
306.964	19.150	1137.377	855.603
307.979	19.118	1136.271	854.537
308.993	19.047	1135.615	853.616
310.008	19.151	1134.627	853.312
311.022	19.217	1134.009	853.099
312.037	19.369	1132.537	852.668
313.052	19.148	1131.951	851.059
314.066	19.022	1130.900	849.572
315.081	18.904	1130.256	848.427
316.095	18.913	1129.443	847.786
317.110	18.880	1128.737	847.021
318.125	19.043	1127.758	847.014
319.139	18.979	1127.266	846.255
320.154	18.938	1126.969	845.757
321.168	19.018	1126.188	845.487
322.183	19.060	1125.533	845.126
323.197	19.006	1125.004	844.387
324.212	19.079	1124.083	843.983
325.227	19.072	1123.371	843.340
326.241	19.206	1122.927	843.587
327.256	19.113	1122.106	842.439
328.270	19.056	1120.882	841.165
329.285	19.089	1119.962	840.563
330.300	18.973	1119.697	839.722
331.314	19.139	1118.375	839.466
332.329	19.191	1116.936	838.569
333.343	19.141	1116.874	838.202
334.358	19.311	1115.694	838.071
335.373	19.361	1115.053	837.758
336.387	19.346	1114.293	837.038
337.402	19.377	1113.659	836.640
338.416	19.424	1112.551	835.961
339.431	19.387	1112.501	835.671
340.446	19.548	1112.105	836.078
341.460	19.627	1111.043	835.587
342.475	19.667	1110.233	835.100
343.489	19.772	1109.275	834.812
344.504	19.783	1108.410	834.138
345.519	19.644	1107.804	832.936
346.533	19.773	1107.158	833.002
347.548	19.737	1106.363	832.157
348.562	19.687	1105.586	831.258
349.577	19.683	1104.533	830.372
350.592	19.546	1103.229	828.663
351.606	19.448	1102.852	827.833
352.621	19.433	1102.093	827.117
353.635	19.365	1101.561	826.320
354.650	19.549	1100.411	826.265
355.665	19.641	1099.655	826.065
356.679	19.591	1099.659	825.757
357.694	19.706	1098.578	825.419
358.708	19.608	1098.141	824.553
359.723	19.757	1097.534	824.735
360.738	19.724	1096.805	823.958
361.752	19.790	1096.231	823.765
362.767	19.767	1095.682	823.171
363.781	19.761	1095.289	822.774
364.796	19.861	1094.820	822.823
365.810	19.988	1094.106	822.819
366.825	19.990	1093.703	822.451
367.840	20.133	1093.146	822.641
368.854	20.118	1092.830	822.256
369.869	20.120	1091.719	821.359
370.883	20.077	1090.616	820.251
371.898	20.020	1089.768	819.274
372.913	19.998	1089.683	819.031
373.927	19.971	1089.468	818.670
374.942	20.209	1088.574	819.048
375.956	20.077	1088.345	818.180
376.971	20.117	1087.610	817.745
377.986	20.064	1087.316	817.202
379.000	20.235	1086.148	817.059
380.015	20.175	1086.199	816.738
381.029	20.329	1085.267	816.692
382.044	20.317	1084.551	816.027
383.059	20.283	1083.683	815.140
384.073	20.288	1082.848	814.464
385.088	20.292	1082.003	813.776
386.102	20.153	1081.321	812.537
387.117	20.270	1079.923	811.962
388.132	20.146	1078.732	810.416
389.146	20.118	1078.549	810.078
390.161	19.937	1077.528	808.391
391.175	20.030	1077.283	808.571
392.190	20.198	1076.233	808.494
393.205	20.376	1075.513	808.712
394.219	20.317	1074.955	807.945
395.234	20.113	1073.744	806.018
396.248	20.230	1072.183	805.314
397.263	20.161	1071.429	804.358
398.278	20.071	1071.155	803.663
399.292	20.017	1070.435	802.801
400.307	20.035	1069.748	802.300
401.321	20.148	1068.936	802.143
402.336	20.102	1067.883	801.068
403.350	20.098	1067.144	800.423
404.365	20.143	1066.956	800.422
405.380	20.150	1066.108	799.746
406.394	20.274	1065.529	799.814
407.409	20.377	1064.556	799.484
408.423	20.469	1063.835	799.298
409.438	20.616	1063.270	799.478
410.453	20.594	1062.623	798.818
411.467	20.594	1062.140	798.387
412.482	20.663	1061.425	798.096
413.496	20.717	1060.692	797.720
414.511	20.756	1059.948	797.269
415.526	20.827	1059.707	797.342
416.540	20.854	1059.359	797.131
417.555	20.813	1058.829	796.476
418.569	20.781	1058.144	795.745
419.584	20.694	1057.471	794.771
420.599	20.690	1057.131	794.427
421.613	155.655	1405.029	1796.430
422.628	142.961	1455.703	1796.501
