DTS Sentinel unit serial number:	SN413079Multiplexer serial number:	ORYXHardware model number:	OX4-SRSoftware version number:	ORYX F/W v4.00 Oryx Data Collector v3.7.2.0data status	okinstallation	princeton_trtdifferential loss correction	single-endedforward channel	channel 2reverse channel	N/Adate	2019/09/13time	23:03:35forward acquisition time	60.00reverse acquisition time	0.00gamma	496.2192k internal	0.2336k external	0.2336temperature offset calibration	1.0132default loss term (dB/km)	0.3790temperature slope calibration	1.0000multiplexer offset coefficient	1.0000multiplexer slope coefficient	1.0000fibre end	0.00T internal ref (°C)	27.28T ext. ref 1 (°C)	3.19T ext. ref 2 (°C)	21.26length (m)	temperature (°C)	Stokes	anti-Stokes-747.200	800.000	0.037	-0.138
-746.185	190.859	-0.195	0.294
-745.171	9.283	0.032	-0.024
-744.156	800.000	-0.060	0.231
-743.142	-52.365	-0.149	0.069
-742.127	800.000	-0.051	0.146
-741.112	9.513	-0.154	0.117
-740.098	-200.000	0.042	0.236
-739.083	-98.784	-0.257	0.066
-738.069	241.617	-0.100	0.167
-737.054	171.278	-0.211	0.304
-736.039	2.116	-0.379	0.275
-735.025	-33.463	0.342	-0.190
-734.010	800.000	0.024	0.067
-732.996	75.724	-0.206	-0.219
-731.981	22.503	0.045	-0.037
-730.966	86.863	0.196	-0.217
-729.952	-74.263	0.299	-0.108
-728.937	49.305	0.185	-0.175
-727.923	-9.054	0.043	0.029
-726.908	528.068	-0.027	0.065
-725.894	129.762	0.100	-0.128
-724.879	250.221	0.075	-0.127
-723.864	-116.829	-0.185	-0.034
-722.850	46.951	0.177	-0.166
-721.835	140.301	0.073	-0.097
-720.821	-26.679	-0.202	-0.118
-719.806	-27.436	0.209	-0.122
-718.791	-33.209	-0.179	-0.100
-717.777	29.476	0.114	0.097
-716.762	0.303	0.085	0.061
-715.748	161.262	0.083	0.117
-714.733	49.581	0.177	-0.167
-713.718	-58.374	-0.232	-0.101
-712.704	294.586	-0.112	-0.206
-711.689	-200.000	0.011	0.114
-710.675	-58.649	0.064	0.028
-709.660	-101.751	0.247	0.060
-708.645	-136.219	0.223	0.026
-707.631	-88.753	-0.462	0.138
-706.616	-106.791	-0.096	-0.021
-705.602	56.483	-0.156	0.152
-704.587	0.517	-0.027	-0.019
-703.572	-150.566	0.152	0.012
-702.558	-35.494	-0.258	0.140
-701.543	-96.294	-0.337	-0.090
-700.529	521.584	0.142	0.334
-699.514	142.336	-0.063	-0.084
-698.499	-200.000	-0.001	-0.098
-697.485	-86.077	0.030	-0.009
-696.470	-126.578	-0.271	-0.040
-695.456	-200.000	-0.022	0.117
-694.441	62.493	-0.157	-0.157
-693.426	690.549	0.074	-0.194
-692.412	-3.980	-0.132	-0.091
-691.397	-200.000	-0.001	-0.072
-690.383	490.804	0.170	-0.391
-689.368	529.328	-0.028	0.065
-688.354	-26.949	0.124	0.072
-687.339	-100.234	0.153	-0.038
-686.324	82.755	0.200	0.217
-685.310	-200.000	0.019	0.214
-684.295	-49.887	-0.109	-0.052
-683.281	800.000	0.103	0.327
-682.266	398.916	-0.146	-0.306
-681.251	-200.000	-0.007	0.191
-680.237	99.730	-0.144	0.167
-679.222	298.760	0.022	0.041
-678.208	111.775	0.298	-0.360
-677.193	27.736	0.279	-0.236
-676.178	-200.000	-0.068	0.495
-675.164	-112.870	0.106	0.021
-674.149	-60.993	0.177	-0.075
-673.135	318.961	0.107	0.203
-672.120	270.594	-0.032	0.057
-671.105	-79.087	0.265	0.090
-670.091	-133.219	0.146	-0.018
-669.076	291.894	0.121	0.221
-668.062	-27.953	-0.114	0.066
-667.047	-62.207	0.152	-0.063
-666.032	800.000	0.063	0.270
-665.018	3.237	-0.146	0.107
-664.003	164.896	0.126	-0.178
-662.989	-1.516	-0.282	-0.199
-661.974	-200.000	0.017	0.126
-660.959	800.000	0.062	-0.208
-659.945	-200.000	0.048	-0.403
-658.930	-166.732	-0.242	0.010
-657.916	-200.000	-0.020	0.143
-656.901	518.041	0.158	0.371
-655.886	-200.000	0.017	0.142
-654.872	159.132	-0.240	-0.334
-653.857	-144.290	-0.211	-0.020
-652.843	-129.057	0.216	0.030
-651.828	-198.557	-0.273	0.002
-650.814	188.381	0.210	-0.315
-649.799	319.692	0.016	0.031
-648.784	-118.909	0.110	-0.019
-647.770	-82.044	0.120	-0.039
-646.755	102.495	-0.198	-0.232
-645.741	112.674	0.130	0.157
-644.726	800.000	-0.033	0.128
-643.711	350.514	0.114	-0.226
-642.697	328.304	0.147	0.282
-641.682	-46.575	-0.042	0.021
-640.668	-84.291	0.220	0.070
-639.653	-94.685	0.216	0.059
-638.638	-200.000	-0.004	-0.320
-637.624	-54.103	-0.122	0.056
-636.609	800.000	-0.157	0.543
-635.595	-86.076	-0.071	-0.022
-634.580	98.558	0.057	0.066
-633.565	200.645	0.087	-0.134
-632.551	-200.000	-0.035	0.169
-631.536	118.360	-0.040	-0.049
-630.522	-0.461	-0.330	0.234
-629.507	-200.000	0.023	-0.244
-628.492	-54.330	-0.286	0.130
-627.478	-124.953	0.107	0.017
-626.463	-33.401	-0.201	0.111
-625.449	139.029	0.190	0.249
-624.434	173.594	0.075	0.108
-623.419	60.008	-0.201	0.198
-622.405	-88.353	-0.200	0.060
-621.390	191.365	0.258	0.389
-620.376	-169.566	0.333	-0.012
-619.361	-121.682	-0.389	-0.064
-618.346	584.763	0.110	-0.270
-617.332	-124.061	-0.310	-0.049
-616.317	92.750	0.157	-0.177
-615.303	-93.472	0.111	0.031
-614.288	-200.000	0.015	-0.298
-613.273	-83.877	0.298	0.095
-612.259	-149.787	-0.232	-0.018
-611.244	-200.000	-0.000	0.086
-610.230	61.702	-0.054	-0.054
-609.215	-44.704	0.261	-0.130
-608.201	148.134	-0.063	-0.085
-607.186	229.673	0.157	0.255
-606.171	-26.905	-0.171	0.100
-605.157	800.000	0.043	-0.170
-604.142	45.314	-0.200	-0.184
-603.128	-200.000	-0.010	-0.246
-602.113	800.000	-0.013	0.046
-601.098	48.634	-0.150	0.141
-600.084	-200.000	0.037	0.190
-599.069	-200.000	-0.003	0.139
-598.055	-200.000	0.069	0.336
-597.040	69.924	0.108	-0.111
-596.025	-0.575	0.395	-0.280
-595.011	-200.000	0.044	-0.323
-593.996	-98.579	0.197	0.050
-592.982	206.672	0.096	0.149
-591.967	-112.810	-0.301	0.060
-590.952	-200.000	0.036	-0.254
-589.938	-19.725	0.348	0.215
-588.923	315.116	-0.107	-0.202
-587.909	-200.000	0.013	-0.377
-586.894	-88.610	-0.208	-0.062
-585.879	-80.137	-0.218	0.073
-584.865	-86.480	0.194	0.059
-583.850	32.936	-0.334	-0.289
-582.836	184.857	0.127	0.188
-581.821	-59.959	0.114	0.048
-580.806	3.251	-0.109	0.079
-579.792	150.696	-0.049	-0.067
-578.777	-30.541	-0.197	-0.111
-577.763	724.026	0.068	0.182
-576.748	-200.000	0.016	0.217
-575.733	800.000	-0.070	0.251
-574.719	57.398	-0.142	0.139
-573.704	29.292	0.057	0.049
-572.690	5.532	-0.073	-0.054
-571.675	92.481	-0.271	-0.304
-570.661	9.739	0.200	0.151
-569.646	-73.395	0.208	0.076
-568.631	-6.884	-0.187	-0.127
-567.617	381.892	-0.071	0.145
-566.602	422.305	-0.074	-0.158
-565.588	-200.000	-0.040	0.279
-564.573	-200.000	0.009	-0.121
-563.558	186.782	-0.033	-0.049
-562.544	-80.101	0.132	0.044
-561.529	-178.338	0.251	0.006
-560.515	429.823	0.014	-0.031
-559.500	728.664	-0.020	-0.053
-558.485	-139.325	0.349	0.037
-557.471	23.108	0.166	0.136
-556.456	-107.235	-0.199	-0.044
-555.442	39.687	-0.109	-0.098
-554.427	-117.274	-0.200	-0.036
-553.412	-13.032	0.411	-0.266
-552.398	217.602	0.163	-0.260
-551.383	201.813	-0.193	-0.297
-550.369	-115.794	-0.165	0.031
-549.354	211.284	-0.192	0.302
-548.339	182.863	-0.165	0.242
-547.325	28.422	-0.195	0.164
-546.310	462.223	0.042	-0.093
-545.296	800.000	0.037	-0.108
-544.281	-58.272	0.211	-0.091
-543.266	-107.264	-0.199	-0.044
-542.252	-147.021	-0.136	0.012
-541.237	800.000	0.084	0.234
-540.223	-200.000	-0.037	-0.242
-539.208	-200.000	-0.020	0.089
-538.193	349.774	0.065	-0.127
-537.179	137.947	0.178	0.232
-536.164	800.000	0.076	0.240
-535.150	-36.924	0.023	0.012
-534.135	715.539	-0.084	-0.222
-533.121	-2.919	-0.422	-0.294
-532.106	236.074	0.127	0.209
-531.091	38.074	-0.100	0.089
-530.077	37.875	0.207	0.183
-529.062	-94.607	0.028	-0.008
-528.048	-200.000	-0.049	0.259
-527.033	49.693	0.384	0.360
-526.018	800.000	-0.023	0.070
-525.004	-43.074	0.121	-0.061
-523.989	-200.000	0.070	0.357
-522.975	-200.000	-0.004	-0.173
-521.960	-50.024	-0.161	-0.076
-520.945	-62.321	-0.350	0.145
-519.931	328.034	-0.074	-0.142
-518.916	215.173	0.348	-0.549
-517.902	169.165	-0.018	-0.026
-516.887	190.161	0.055	-0.082
-515.872	150.300	-0.124	0.167
-514.858	-42.736	0.113	0.057
-513.843	-200.000	-0.007	0.154
-512.829	-200.000	0.029	-0.231
-511.814	-44.975	0.347	0.172
-510.799	-14.464	0.139	-0.089
-509.785	-109.425	0.207	-0.044
-508.770	-186.235	0.221	-0.003
-507.756	131.605	-0.175	-0.224
-506.741	-126.335	-0.217	0.032
-505.726	86.604	0.401	0.440
-504.712	-200.000	-0.021	0.110
-503.697	360.703	0.138	-0.275
-502.683	220.362	0.144	0.229
-501.668	74.218	0.025	0.026
-500.653	-200.000	-0.002	-0.225
-499.639	592.484	-0.041	-0.101
-498.624	124.282	0.131	0.164
-497.610	550.082	-0.049	-0.117
-496.595	-200.000	0.009	-0.282
-495.581	-103.376	-0.083	-0.019
-494.566	-200.000	-0.047	0.272
-493.551	403.946	0.066	-0.139
-492.537	-35.374	-0.265	0.143
-491.522	-24.720	0.069	-0.041
-490.508	-39.620	-0.070	0.036
-489.493	-26.091	0.168	0.098
-488.478	-200.000	0.130	0.000
-487.464	-110.446	-0.363	-0.075
-486.449	800.000	0.046	0.185
-485.435	-23.753	-0.235	0.140
-484.420	30.996	0.260	-0.221
-483.405	-13.839	-0.086	-0.055
-482.391	-36.495	-0.136	0.073
-481.376	609.330	0.062	0.155
-480.362	-19.668	-0.169	-0.104
-479.347	223.993	-0.172	0.277
-478.332	-131.828	0.204	-0.026
-477.318	-200.000	0.001	0.040
-476.303	170.447	0.084	-0.119
-475.289	624.364	-0.057	0.142
-474.274	93.639	0.018	0.020
-473.259	221.878	-0.203	-0.324
-472.245	800.000	0.012	0.036
-471.230	-164.415	0.073	0.003
-470.216	108.656	-0.062	-0.073
-469.201	-200.000	-0.032	0.248
-468.186	4.404	0.274	-0.200
-467.172	-200.000	-0.002	0.055
-466.157	-94.526	0.148	0.040
-465.143	-164.688	-0.362	-0.016
-464.128	-93.278	0.258	-0.071
-463.113	-200.000	0.029	-0.198
-462.099	-167.773	0.237	-0.009
-461.084	94.873	-0.191	-0.216
-460.070	800.000	-0.068	-0.279
-459.055	-200.000	0.012	-0.080
-458.040	88.120	0.054	0.059
-457.026	-69.190	0.223	-0.085
-456.011	-11.417	0.103	0.067
-454.997	800.000	0.057	0.161
-453.982	641.701	0.093	0.236
-452.968	18.659	-0.151	0.120
-451.953	-155.368	0.188	0.012
-450.938	-103.581	-0.189	-0.044
-449.924	-153.317	-0.350	0.024
-448.909	800.000	0.090	0.289
-447.895	-31.970	0.506	0.281
-446.880	-40.058	-0.041	0.021
-445.865	-200.000	-0.004	0.024
-444.851	-163.330	-0.245	0.012
-443.836	400.219	0.034	-0.071
-442.822	264.651	-0.055	0.094
-441.807	-200.000	-0.053	0.348
-440.792	-69.658	0.065	0.025
-439.778	141.309	-0.146	-0.192
-438.763	-40.954	0.099	-0.051
-437.749	-32.457	0.085	-0.047
-436.734	260.627	0.079	0.136
-435.719	280.060	0.105	0.186
-434.705	248.322	0.132	-0.221
-433.690	224.993	-0.080	0.128
-432.676	-158.840	0.137	0.008
-431.661	-200.000	-0.037	-0.374
-430.646	-200.000	-0.054	-0.246
-429.632	-200.000	0.001	-0.041
-428.617	-41.453	0.257	-0.131
-427.603	-96.199	0.048	-0.013
-426.588	39.794	0.122	-0.108
-425.573	-62.009	-0.107	0.044
-424.559	-101.394	0.141	-0.034
-423.544	231.890	-0.030	0.050
-422.530	228.351	0.234	-0.378
-421.515	-141.423	-0.340	0.034
-420.500	160.109	-0.144	0.199
-419.486	-135.692	-0.410	-0.048
-418.471	414.796	-0.025	-0.054
-417.457	5.934	0.248	0.182
-416.442	190.595	-0.041	-0.061
-415.428	246.483	-0.136	-0.227
-414.413	-0.705	-0.169	0.119
-413.398	110.029	0.022	-0.026
-412.384	-94.325	-0.151	-0.041
-411.369	47.271	-0.184	0.169
-410.355	-2.548	0.074	-0.052
-409.340	-86.391	-0.083	-0.025
-408.325	190.719	-0.167	-0.248
-407.311	800.000	-0.127	-0.423
-406.296	120.120	0.161	-0.198
-405.282	800.000	0.022	0.085
-404.267	101.858	0.212	-0.246
-403.252	-103.570	-0.328	0.076
-402.238	800.000	-0.082	-0.279
-401.223	460.352	0.042	-0.093
-400.209	-110.432	-0.291	0.060
-399.194	-189.330	-0.425	0.005
-398.179	569.211	0.050	0.121
-397.165	-57.205	-0.295	-0.129
-396.150	-103.200	0.232	0.054
-395.136	220.787	-0.055	0.087
-394.121	474.426	0.151	0.337
-393.106	-39.699	0.154	0.080
-392.092	-4.240	-0.187	0.128
-391.077	116.314	-0.143	0.174
-390.063	-50.805	-0.137	-0.064
-389.048	800.000	-0.066	0.189
-388.033	-200.000	-0.001	0.146
-387.019	-159.083	-0.149	0.008
-386.004	-200.000	-0.012	-0.084
-384.990	-105.414	0.278	-0.063
-383.975	800.000	0.059	0.192
-382.960	-200.000	0.003	-0.018
-381.946	269.229	0.070	-0.122
-380.931	800.000	0.015	-0.044
-379.917	101.540	0.119	0.138
-378.902	-200.000	-0.013	0.225
-377.888	92.266	-0.046	0.052
-376.873	-115.912	-0.442	-0.082
-375.858	-200.000	0.027	-0.123
-374.844	-115.898	0.075	0.014
-373.829	203.681	0.096	0.148
-372.815	800.000	-0.016	0.059
-371.800	-71.551	0.273	0.101
-370.785	-200.000	0.008	-0.170
-369.771	399.527	-0.057	-0.118
-368.756	59.040	0.184	-0.179
-367.742	201.930	0.074	0.112
-366.727	678.638	-0.204	0.525
-365.712	-51.093	-0.194	-0.090
-364.698	21.879	-0.095	-0.077
-363.683	-26.814	-0.176	-0.102
-362.669	-96.211	0.131	-0.034
-361.654	198.011	0.137	0.208
-360.639	-68.742	0.058	-0.022
-359.625	195.924	-0.144	-0.216
-358.610	-30.611	0.109	-0.061
-357.596	319.904	0.225	0.422
-356.581	-200.000	0.013	-0.080
-355.566	-200.000	0.021	0.278
-354.552	382.232	0.057	0.116
-353.537	800.000	-0.059	-0.205
-352.523	128.747	-0.005	-0.006
-351.508	-89.220	-0.176	-0.051
-350.493	-37.260	0.351	-0.185
-349.479	-46.435	-0.492	-0.239
-348.464	15.018	0.321	-0.248
-347.450	123.678	0.161	0.199
-346.435	64.291	-0.067	-0.066
-345.420	-200.000	0.016	-0.223
-344.406	-47.297	0.109	-0.052
-343.391	-200.000	-0.020	-0.120
-342.377	-21.479	-0.109	-0.066
-341.362	-18.039	0.004	-0.002
-340.348	-1.020	-0.322	-0.225
-339.333	-0.242	0.157	-0.110
-338.318	-74.939	-0.201	-0.071
-337.304	99.632	0.048	-0.055
-336.289	-148.371	0.083	0.007
-335.275	-84.445	0.281	-0.088
-334.260	-130.058	-0.253	-0.034
-333.245	800.000	-0.042	-0.140
-332.231	253.110	-0.148	0.250
-331.216	-181.853	-0.264	-0.005
-330.202	800.000	0.054	0.186
-329.187	-200.000	0.010	0.269
-328.172	413.315	-0.062	0.130
-327.158	-200.000	0.012	-0.090
-326.143	-87.632	0.325	0.097
-325.129	-200.000	-0.011	0.317
-324.114	-200.000	0.006	0.116
-323.099	545.743	0.064	-0.151
-322.085	-32.376	0.375	-0.207
-321.070	-47.110	0.313	-0.151
-320.056	-73.160	0.115	0.042
-319.041	70.398	-0.151	0.154
-318.026	-200.000	-0.031	0.186
-317.012	77.577	0.262	-0.275
-315.997	800.000	0.045	0.142
-314.983	97.577	-0.118	-0.134
-313.968	-69.650	0.218	0.082
-312.953	248.737	0.140	-0.234
-311.939	-16.841	0.066	0.041
-310.924	800.000	0.106	0.319
-309.910	-200.000	-0.012	-0.322
-308.895	-60.589	0.153	-0.064
-307.880	-40.771	0.344	0.176
-306.866	-22.110	-0.331	0.199
-305.851	72.080	0.012	-0.012
-304.837	321.651	-0.158	-0.296
-303.822	189.433	-0.092	-0.137
-302.807	58.298	0.153	-0.148
-301.793	-91.758	0.117	0.033
-300.778	226.399	-0.102	0.164
-299.764	153.167	0.117	-0.158
-298.749	-200.000	-0.018	-0.306
-297.735	-69.438	-0.167	-0.063
-296.720	103.449	-0.189	-0.219
-295.705	-200.000	-0.032	0.397
-294.691	-151.880	0.196	0.014
-293.676	-63.322	0.148	-0.060
-292.662	42.987	0.188	-0.169
-291.647	-55.112	0.133	-0.059
-290.632	-41.713	-0.159	-0.080
-289.618	800.000	-0.014	0.041
-288.603	297.419	0.111	0.201
-287.589	116.188	0.094	0.114
-286.574	-200.000	-0.006	-0.292
-285.559	796.850	-0.060	0.163
-284.545	-27.520	0.191	-0.109
-283.530	-64.275	-0.103	0.041
-282.516	-200.000	-0.020	-0.104
-281.501	800.000	-0.077	0.247
-280.486	800.000	-0.111	0.381
-279.472	18.894	-0.030	0.024
-278.457	-143.543	0.097	0.009
-277.443	-125.360	0.186	0.028
-276.428	-95.723	-0.124	0.033
-275.413	158.146	-0.044	-0.061
-274.399	383.859	0.153	0.310
-273.384	15.772	-0.280	-0.217
-272.370	490.527	-0.150	0.339
-271.355	4.353	0.270	-0.195
-270.340	178.864	0.169	0.244
-269.326	453.897	0.109	-0.239
-268.311	118.735	0.199	0.242
-267.297	-103.083	0.108	-0.025
-266.282	105.983	-0.020	0.023
-265.267	534.249	-0.066	0.155
-264.253	800.000	0.067	0.202
-263.238	-183.720	0.374	0.006
-262.224	-94.383	-0.233	0.063
-261.209	134.261	0.136	-0.174
-260.195	12.206	-0.060	0.046
-259.180	78.723	-0.123	0.130
-258.165	129.444	0.037	0.047
-257.151	37.072	-0.132	-0.115
-256.136	-200.000	0.060	0.298
-255.122	186.170	-0.066	-0.096
-254.107	800.000	-0.126	0.406
-253.092	-200.000	-0.051	0.258
-252.078	-122.669	-0.233	-0.037
-251.063	638.455	0.097	0.243
-250.049	-200.000	0.054	-0.337
-249.034	-200.000	0.029	0.216
-248.019	-200.000	-0.057	-0.345
-247.005	-200.000	0.010	0.135
-245.990	158.474	-0.136	-0.185
-244.976	467.997	-0.044	-0.098
-243.961	-200.000	-0.018	-0.138
-242.946	-81.070	-0.266	0.087
-241.932	488.000	0.053	-0.118
-240.917	592.323	0.204	0.495
-239.903	-20.837	0.103	0.062
-238.888	250.099	0.094	-0.157
-237.873	-200.000	-0.005	-0.037
-236.859	-22.845	0.346	-0.205
-235.844	-200.000	-0.010	-0.145
-234.830	108.086	0.076	-0.089
-233.815	-41.223	-0.198	0.101
-232.800	-9.731	-0.244	-0.160
-231.786	-48.865	-0.185	-0.087
-230.771	-122.927	0.222	-0.035
-229.757	800.000	0.065	-0.232
-228.742	-37.157	-0.026	0.014
-227.727	70.289	0.236	0.240
-226.713	-95.899	-0.207	-0.054
-225.698	-102.442	0.226	-0.053
-224.684	322.355	-0.070	-0.131
-223.669	-200.000	0.002	0.048
-222.655	452.645	0.023	-0.051
-221.640	15.612	-0.078	0.061
-220.625	57.362	0.112	-0.108
-219.611	350.183	0.155	-0.302
-218.596	-151.772	-0.015	0.001
-217.582	-200.000	-0.033	-0.244
-216.567	-82.732	0.094	-0.030
-215.552	800.000	0.045	-0.137
-214.538	800.000	0.068	-0.204
-213.523	-39.317	-0.201	-0.104
-212.509	-150.753	-0.261	0.019
-211.494	54.362	0.175	-0.165
-210.479	-29.111	0.163	-0.092
-209.465	-200.000	-0.006	-0.044
-208.450	112.759	0.204	0.243
-207.436	247.271	0.079	0.131
-206.421	19.192	0.089	0.071
-205.406	69.927	-0.137	0.139
-204.392	800.000	-0.071	-0.206
-203.377	54.729	-0.526	0.499
-202.363	341.729	-0.142	-0.273
-201.348	-0.141	0.017	0.012
-200.333	800.000	0.050	-0.158
-199.319	70.439	-0.212	0.215
-198.304	77.530	-0.083	-0.087
-197.290	-200.000	0.008	-0.451
-196.275	172.188	0.064	-0.091
-195.260	-92.576	-0.167	0.046
-194.246	-200.000	-0.002	0.098
-193.231	-200.000	0.004	-0.094
-192.217	-58.258	-0.353	0.151
-191.202	-200.000	-0.041	0.247
-190.187	86.201	0.153	0.166
-189.173	-1.324	0.172	-0.119
-188.158	-200.000	-0.051	-0.422
-187.144	103.460	0.160	0.184
-186.129	-171.171	-0.244	-0.008
-185.114	-117.334	-0.290	0.052
-184.100	-200.000	0.036	-0.167
-183.085	588.770	0.061	-0.149
-182.071	641.763	0.021	0.051
-181.056	-200.000	-0.007	0.050
-180.042	-31.867	-0.469	0.258
-179.027	-113.503	0.407	0.078
-178.012	49.048	-0.138	-0.127
-176.998	-139.904	-0.405	-0.042
-175.983	-103.414	0.370	0.086
-174.969	174.452	0.048	0.068
-173.954	-177.559	-0.170	0.004
-172.939	608.697	-0.058	0.143
-171.925	800.000	0.019	-0.076
-170.910	282.911	-0.106	0.186
-169.896	546.172	0.023	-0.054
-168.881	-200.000	-0.027	-0.283
-167.866	332.022	0.050	-0.094
-166.852	130.958	0.110	0.138
-165.837	-87.222	-0.320	-0.095
-164.823	79.752	0.056	0.059
-163.808	28.698	0.140	-0.117
-162.793	-118.032	0.366	-0.064
-161.779	-30.486	-0.274	-0.152
-160.764	-33.076	-0.247	0.134
-159.750	-200.000	-0.038	0.184
-158.735	-200.000	-0.017	0.195
-157.720	-200.000	0.026	-0.209
-156.706	-200.000	-0.043	-0.249
-155.691	-58.741	-0.045	-0.019
-154.677	-54.281	-0.157	0.070
-153.662	-200.000	-0.011	0.081
-152.647	130.260	-0.152	-0.191
-151.633	21.819	-0.068	0.054
-150.618	-200.000	0.018	0.090
-149.604	-12.870	0.356	-0.227
-148.589	274.145	0.078	-0.136
-147.574	650.408	-0.075	0.188
-146.560	39.663	-0.159	-0.140
-145.545	800.000	0.113	-0.344
-144.531	800.000	-0.088	0.335
-143.516	92.554	-0.131	0.145
-142.502	217.929	-0.044	-0.069
-141.487	372.080	0.080	0.159
-140.472	800.000	-0.076	0.220
-139.458	-134.868	-0.099	0.012
-138.443	4.727	0.215	-0.155
-137.429	627.518	0.128	-0.316
-136.414	50.188	-0.172	-0.159
-135.399	307.746	0.204	-0.372
-134.385	-14.887	0.167	0.105
-133.370	-4.936	-0.102	0.069
-132.356	-110.516	-0.043	-0.009
-131.341	-200.000	0.002	-0.041
-130.326	265.594	0.206	-0.352
-129.312	800.000	-0.040	-0.109
-128.297	388.959	-0.075	-0.151
-127.283	-64.344	-0.230	-0.092
-126.268	377.263	-0.052	0.105
-125.253	800.000	0.110	0.419
-124.239	-155.327	-0.320	-0.020
-123.224	-128.798	-0.354	-0.049
-122.210	751.449	0.049	-0.129
-121.195	-14.864	-0.192	0.121
-120.180	-200.000	0.004	0.145
-119.166	800.000	-0.032	0.111
-118.151	22.654	-0.056	0.045
-117.137	-36.404	0.222	0.117
-116.122	-159.043	0.370	-0.021
-115.107	423.660	-0.031	0.065
-114.093	-30.403	0.164	-0.091
-113.078	87.227	-0.182	-0.197
-112.064	-43.526	-0.232	-0.115
-111.049	14.201	-0.096	-0.073
-110.034	1.781	-0.114	0.080
-109.020	375.953	0.131	0.262
-108.005	499.982	0.075	-0.169
-106.991	-200.000	0.054	0.232
-105.976	800.000	-0.056	0.230
-104.962	107.980	0.102	-0.119
-103.947	800.000	-0.049	0.133
-102.932	222.145	-0.236	0.372
-101.918	-107.990	0.159	-0.034
-100.903	219.580	0.198	0.310
-99.889	-164.556	0.155	-0.007
-98.874	-65.899	-0.140	-0.055
-97.859	89.269	0.152	0.166
-96.845	41.261	0.440	-0.390
-95.830	-200.000	0.004	-0.023
-94.816	44.369	0.161	0.145
-93.801	238.935	0.078	-0.126
-92.786	-81.786	-0.153	-0.049
-91.772	308.633	0.194	0.355
-90.757	47.468	0.261	0.238
-89.743	90.650	-0.325	0.356
-88.728	800.000	0.046	0.138
-87.713	42.580	-0.407	0.362
-86.699	194.477	0.159	-0.236
-85.684	-157.153	-0.221	-0.013
-84.670	27.243	0.184	0.151
-83.655	-200.000	0.030	0.184
-82.640	-83.807	0.139	0.043
-81.626	800.000	-0.105	-0.322
-80.611	-138.353	-0.079	0.009
-79.597	-200.000	-0.043	0.214
-78.582	41.195	0.133	-0.118
-77.567	-200.000	-0.002	-0.106
-76.553	91.805	-0.258	-0.284
-75.538	-70.194	0.383	-0.142
-74.524	82.901	0.086	0.092
-73.509	-200.000	-0.176	0.001
-72.494	89.708	0.170	0.185
-71.480	-141.132	-0.059	-0.006
-70.465	68.287	0.087	-0.087
-69.451	-116.039	0.275	0.050
-68.436	689.062	-0.076	0.194
-67.422	144.209	-0.134	0.175
-66.407	-153.556	0.187	0.013
-65.392	-92.330	-0.306	0.084
-64.378	-124.118	0.088	-0.013
-63.363	67.469	-0.148	0.148
-62.349	56.953	0.277	0.264
-61.334	26.150	-0.947	-0.773
-60.319	105.840	0.718	0.831
-59.305	248.682	-0.541	-0.896
-58.290	196.035	0.861	1.281
-57.276	425.175	0.759	1.597
-56.261	-200.000	115.216	660.080
-55.246	543.218	1518.181	3540.872
-54.232	177.988	2696.022	3843.976
-53.217	102.425	2285.426	2611.550
-52.203	36.480	1893.947	1633.332
-51.188	30.472	1685.736	1408.339
-50.173	27.953	1644.307	1355.013
-49.159	49.875	1700.344	1566.942
-48.144	48.465	1714.308	1569.148
-47.130	30.011	1672.080	1393.243
-46.115	27.278	1657.806	1360.874
-45.100	27.135	1653.316	1356.068
-44.086	27.119	1650.798	1353.830
-43.071	27.143	1648.282	1351.891
-42.057	27.211	1645.195	1349.808
-41.042	27.108	1643.386	1347.512
-40.027	27.158	1641.792	1346.519
-39.013	27.194	1639.837	1345.131
-37.998	27.182	1637.982	1343.465
-36.984	27.230	1636.601	1342.635
-35.969	27.274	1635.442	1341.953
-34.954	27.291	1633.867	1340.735
-33.940	27.266	1631.876	1338.867
-32.925	27.255	1630.197	1337.354
-31.911	27.273	1628.304	1335.874
-30.896	27.145	1626.842	1333.683
-29.881	27.273	1625.263	1333.274
-28.867	27.282	1623.431	1331.786
-27.852	27.190	1622.080	1329.955
-26.838	27.262	1620.267	1328.938
-25.823	27.307	1618.877	1328.075
-24.809	27.371	1617.693	1327.516
-23.794	27.326	1616.597	1326.242
-22.779	27.327	1615.048	1324.922
-21.765	27.242	1613.589	1323.052
-20.750	27.208	1611.915	1321.383
-19.736	27.285	1610.686	1320.880
-18.721	27.304	1609.291	1319.823
-17.706	27.217	1608.382	1318.392
-16.692	27.304	1606.228	1317.205
-15.677	27.351	1605.229	1316.672
-14.663	27.415	1603.372	1315.559
-13.648	27.415	1601.965	1314.353
-12.633	27.310	1600.806	1312.593
-11.619	27.262	1599.566	1311.178
-10.604	27.331	1597.357	1309.814
-9.590	27.379	1596.230	1309.181
-8.575	27.360	1595.217	1308.165
-7.560	27.353	1593.864	1306.949
-6.546	27.361	1592.643	1305.956
-5.531	27.257	1591.804	1304.471
-4.517	27.305	1590.572	1303.756
-3.502	27.347	1589.467	1303.094
-2.487	27.445	1587.147	1301.841
-1.473	26.879	1575.852	1288.509
-0.458	23.933	1555.753	1251.332
0.556	21.140	1556.640	1218.094
1.571	18.686	1580.422	1219.187
2.586	18.171	1592.892	1225.011
3.600	16.108	1537.677	1168.162
4.615	9.501	1430.995	1044.294
5.629	4.163	1372.822	968.470
6.644	3.193	1365.785	957.388
7.659	3.111	1364.463	955.866
8.673	3.227	1362.862	955.376
9.688	3.219	1361.802	954.499
10.702	3.216	1358.453	952.051
11.717	5.628	1363.136	970.204
12.731	12.828	1376.452	1024.492
13.746	19.089	1386.189	1070.719
14.761	20.530	1388.013	1081.005
15.775	19.990	1385.765	1075.805
16.790	18.920	1382.946	1066.886
17.804	18.070	1381.065	1060.066
18.819	17.691	1380.112	1056.891
19.834	17.571	1379.169	1055.335
20.848	17.413	1377.580	1053.046
21.863	17.154	1376.843	1050.792
22.877	17.118	1375.339	1049.324
23.892	17.179	1374.282	1048.804
24.907	17.144	1373.843	1048.160
25.921	17.132	1372.005	1046.591
26.936	17.013	1371.989	1045.752
27.950	17.197	1370.467	1045.631
28.965	17.235	1369.799	1045.264
29.980	17.233	1369.181	1044.685
30.994	17.428	1367.866	1044.792
32.009	17.473	1366.938	1044.267
33.023	17.477	1365.700	1043.252
34.038	17.318	1363.924	1040.826
35.053	17.330	1362.692	1039.867
36.067	17.283	1361.307	1038.434
37.082	17.290	1360.726	1037.943
38.096	17.363	1359.769	1037.566
39.111	17.402	1359.589	1037.571
40.126	17.327	1357.640	1035.540
41.140	17.163	1356.813	1033.819
42.155	16.955	1356.478	1032.204
43.169	16.908	1356.299	1031.689
44.184	16.854	1356.457	1031.388
45.199	16.985	1355.215	1031.155
46.213	17.031	1354.960	1031.145
47.228	17.177	1354.110	1031.291
48.242	17.226	1352.953	1030.621
49.257	17.190	1351.525	1029.224
50.271	17.214	1349.978	1028.100
51.286	17.297	1348.527	1027.403
52.301	17.165	1347.875	1026.017
53.315	17.073	1346.618	1024.415
54.330	16.992	1345.716	1023.148
55.344	17.010	1344.051	1021.905
56.359	16.998	1343.251	1021.131
57.374	17.009	1342.293	1020.376
58.388	16.865	1341.740	1019.002
59.403	16.796	1341.493	1018.310
60.417	16.854	1340.627	1017.912
61.432	16.855	1338.982	1016.576
62.447	16.692	1338.401	1015.073
63.461	16.685	1336.860	1013.771
64.476	16.639	1336.538	1013.162
65.490	16.652	1335.525	1012.383
66.505	16.776	1333.257	1011.311
67.520	16.813	1332.163	1010.611
68.534	16.804	1331.005	1009.590
69.549	16.710	1330.279	1008.393
70.563	16.621	1329.349	1007.066
71.578	16.635	1327.842	1005.922
72.593	16.615	1326.721	1004.865
73.607	16.576	1325.968	1003.970
74.622	16.583	1325.521	1003.586
75.636	16.610	1324.763	1003.086
76.651	16.610	1324.020	1002.434
77.666	16.572	1324.240	1002.285
78.680	16.655	1323.471	1002.106
79.695	16.680	1322.676	1001.565
80.709	16.862	1322.157	1002.160
81.724	16.848	1321.642	1001.598
82.739	16.992	1320.296	1001.339
83.753	17.057	1319.901	1001.333
84.768	17.250	1318.851	1001.585
85.782	17.381	1317.559	1001.285
86.797	17.341	1316.392	1000.079
87.812	17.170	1315.062	997.973
88.826	17.301	1313.375	997.374
89.841	17.281	1312.834	996.757
90.855	17.296	1312.223	996.294
91.870	17.402	1310.961	995.865
92.884	17.321	1310.464	994.927
93.899	17.459	1309.481	994.900
94.914	17.417	1308.493	993.813
95.928	17.366	1308.118	993.144
96.943	17.323	1307.096	992.033
97.957	17.215	1306.379	990.768
98.972	17.296	1304.808	989.960
99.987	17.232	1304.069	988.943
101.001	17.263	1303.172	988.354
102.016	17.335	1302.120	987.886
103.030	17.371	1301.340	987.416
104.045	17.307	1300.505	986.324
105.060	17.164	1299.026	984.287
106.074	16.968	1297.478	981.889
107.089	16.777	1296.300	979.806
108.103	16.759	1294.711	978.419
109.118	16.820	1293.514	977.778
110.133	16.847	1292.049	976.742
111.147	16.810	1290.711	975.427
112.162	16.878	1289.765	975.018
113.176	16.952	1288.743	974.586
114.191	16.943	1287.796	973.732
115.206	17.001	1286.276	972.827
116.220	16.939	1285.029	971.444
117.235	16.928	1283.843	970.397
118.249	16.823	1283.333	969.328
119.264	16.814	1281.767	968.005
120.279	16.751	1280.587	966.672
121.293	16.672	1279.549	965.349
122.308	16.615	1278.671	964.280
123.322	16.691	1277.565	963.792
124.337	16.669	1276.307	962.633
125.352	16.711	1275.239	961.980
126.366	16.721	1273.879	960.925
127.381	16.662	1272.949	959.805
128.395	16.574	1271.832	958.379
129.410	16.625	1271.259	958.149
130.424	16.742	1270.672	958.284
131.439	16.765	1269.412	957.379
132.454	16.804	1269.112	957.289
133.468	16.858	1267.944	956.630
134.483	16.908	1267.148	956.229
135.497	16.915	1266.306	955.545
136.512	16.932	1264.847	954.455
137.527	16.956	1263.872	953.773
138.541	16.971	1262.567	952.787
139.556	16.967	1261.489	951.864
140.570	17.122	1260.414	951.841
141.585	17.131	1259.975	951.472
142.600	17.228	1258.496	950.815
143.614	17.238	1257.278	949.867
144.629	17.393	1256.361	949.958
145.643	17.298	1255.686	948.829
146.658	17.178	1253.823	946.671
147.673	17.147	1252.517	945.431
148.687	16.973	1251.270	943.438
149.702	17.008	1250.414	942.903
150.716	17.002	1248.555	941.386
151.731	17.033	1247.395	940.597
152.746	17.031	1246.785	940.044
153.760	17.084	1245.259	939.102
154.775	17.162	1244.627	938.976
155.789	17.207	1243.386	938.201
156.804	17.197	1242.556	937.437
157.819	17.341	1241.295	937.200
158.833	17.327	1240.960	936.784
159.848	17.492	1239.864	936.781
160.862	17.419	1238.536	935.297
161.877	17.279	1236.887	933.200
162.892	17.051	1236.132	931.298
163.906	17.024	1235.412	930.522
164.921	17.069	1234.455	929.965
165.935	17.121	1233.599	929.523
166.950	17.197	1232.745	929.215
167.964	17.240	1232.272	929.011
168.979	17.118	1231.502	927.682
169.994	17.064	1230.867	926.828
171.008	17.224	1229.796	926.808
172.023	17.252	1229.353	926.546
173.037	17.267	1228.862	926.176
174.052	17.414	1227.415	925.803
175.067	17.171	1226.176	923.468
176.081	17.174	1225.100	922.590
177.096	17.036	1224.346	921.191
178.110	17.107	1223.249	920.671
179.125	17.165	1221.999	919.962
180.140	17.319	1220.640	919.689
181.154	17.328	1219.453	918.766
182.169	17.392	1218.455	918.276
183.183	17.495	1217.340	917.909
184.198	17.545	1216.555	917.508
185.213	17.448	1215.822	916.352
186.227	17.563	1214.382	915.803
187.242	17.601	1213.719	915.423
188.256	17.715	1212.291	914.877
189.271	17.637	1211.391	913.697
190.286	17.543	1209.954	912.032
191.300	17.226	1209.145	909.644
192.315	17.089	1208.602	908.422
193.329	17.075	1208.287	908.031
194.344	17.196	1207.617	908.096
195.359	17.343	1207.133	908.433
196.373	17.357	1207.071	908.382
197.388	17.465	1206.618	908.537
198.402	17.656	1205.993	909.007
199.417	17.792	1205.212	909.062
200.432	17.854	1204.463	908.745
201.446	17.901	1203.998	908.563
202.461	17.955	1203.276	908.225
203.475	17.856	1202.205	906.811
204.490	17.805	1200.547	905.209
205.504	17.566	1199.314	902.934
206.519	17.570	1198.351	902.151
207.534	17.530	1196.907	900.770
208.548	17.655	1195.915	900.608
209.563	17.587	1195.383	899.769
210.577	17.697	1194.335	899.479
211.592	17.704	1193.950	899.146
212.607	17.792	1193.042	898.846
213.621	17.827	1192.311	898.402
214.636	17.844	1191.186	897.562
215.650	17.861	1190.145	896.789
216.665	17.907	1189.783	896.679
217.680	18.033	1188.907	896.599
218.694	18.035	1187.771	895.674
219.709	18.026	1187.094	895.036
220.723	17.967	1186.413	894.136
221.738	17.976	1185.434	893.364
222.753	17.889	1184.980	892.488
223.767	17.944	1184.137	892.063
224.782	18.096	1183.569	892.349
225.796	18.185	1182.609	892.013
226.811	18.086	1182.243	891.140
227.826	18.088	1181.513	890.522
228.840	18.036	1180.525	889.430
229.855	17.976	1180.345	888.902
230.869	17.947	1179.209	887.817
231.884	17.890	1178.432	886.855
232.899	17.864	1177.136	885.670
233.913	17.785	1176.805	884.929
234.928	17.784	1175.852	884.129
235.942	17.736	1175.148	883.275
236.957	17.801	1174.366	882.942
237.972	17.858	1173.375	882.418
238.986	17.815	1172.746	881.643
240.001	17.925	1172.035	881.598
241.015	17.856	1171.609	880.845
242.030	17.963	1170.664	880.608
243.045	17.961	1170.045	880.052
244.059	18.010	1169.123	879.535
245.074	18.031	1168.624	879.188
246.088	18.127	1167.747	878.946
247.103	18.243	1166.692	878.667
248.117	18.212	1166.379	878.196
249.132	18.421	1166.263	879.101
250.147	18.501	1165.553	878.903
251.161	18.572	1164.641	878.498
252.176	18.665	1164.380	878.703
253.190	18.766	1163.741	878.656
254.205	18.791	1162.844	878.029
255.220	18.882	1162.460	878.129
256.234	18.775	1161.657	876.898
257.249	18.847	1160.823	876.555
258.263	18.770	1160.104	875.546
259.278	18.803	1159.313	875.037
260.293	18.758	1159.508	874.877
261.307	18.875	1158.443	874.592
262.322	18.834	1158.149	874.086
263.336	18.853	1157.426	873.558
264.351	18.888	1157.011	873.344
265.366	18.883	1156.111	872.563
266.380	18.947	1155.040	872.002
267.395	18.907	1154.352	871.204
268.409	18.770	1153.657	869.906
269.424	18.768	1152.897	869.249
270.439	18.842	1152.266	869.069
271.453	18.795	1151.343	868.060
272.468	18.610	1150.448	866.372
273.482	18.626	1149.407	865.592
274.497	18.634	1149.039	865.279
275.512	18.776	1148.040	865.165
276.526	18.657	1147.678	864.219
277.541	18.768	1146.501	863.814
278.555	18.765	1146.424	863.665
279.570	18.903	1145.709	863.741
280.585	18.984	1145.007	863.543
281.599	18.989	1143.801	862.580
282.614	18.854	1142.764	861.046
283.628	18.782	1141.758	859.853
284.643	18.928	1140.419	859.500
285.657	18.814	1139.950	858.499
286.672	18.854	1139.630	858.384
287.687	18.916	1138.216	857.552
288.701	18.925	1137.340	856.860
289.716	19.029	1136.712	856.829
290.730	18.961	1135.822	855.745
291.745	18.897	1135.588	855.174
292.760	19.021	1134.717	855.059
293.774	18.996	1134.489	854.689
294.789	19.090	1133.785	854.548
295.803	19.144	1133.408	854.455
296.818	19.057	1132.398	853.186
297.833	18.962	1131.438	851.916
298.847	18.989	1130.755	851.464
299.862	19.025	1129.550	850.656
300.876	19.194	1128.765	850.824
301.891	19.151	1128.266	850.160
302.906	19.185	1127.918	849.993
303.920	19.325	1127.309	850.146
304.935	19.322	1126.751	849.635
305.949	19.588	1126.287	850.524
306.964	19.487	1125.135	849.082
307.979	19.371	1124.376	847.862
308.993	19.245	1123.794	846.727
310.008	19.321	1123.233	846.605
311.022	19.345	1122.211	845.875
312.037	19.433	1121.322	845.563
313.052	19.354	1120.080	844.164
314.066	19.261	1119.557	843.243
315.081	19.157	1118.300	841.712
316.095	19.089	1117.762	840.900
317.110	19.067	1117.203	840.299
318.125	19.007	1116.739	839.579
319.139	19.050	1115.546	838.821
320.154	19.162	1114.965	838.856
321.168	19.171	1114.088	838.165
322.183	19.104	1114.168	837.821
323.197	19.279	1113.487	838.090
324.212	19.209	1112.684	837.073
325.227	19.166	1112.461	836.619
326.241	19.260	1111.161	836.022
327.256	19.142	1110.858	835.147
328.270	19.309	1109.503	834.867
329.285	19.216	1108.782	833.801
330.300	19.214	1107.837	833.006
331.314	19.281	1106.900	832.552
332.329	19.194	1106.269	831.585
333.343	19.331	1105.528	831.611
334.358	19.473	1104.199	831.222
335.373	19.500	1104.160	831.251
336.387	19.478	1102.806	830.053
337.402	19.467	1102.169	829.447
338.416	19.564	1101.944	829.669
339.431	19.509	1101.670	829.124
340.446	19.726	1100.779	829.422
341.460	19.760	1100.121	829.016
342.475	19.818	1099.362	828.649
343.489	19.975	1098.234	828.478
344.504	19.968	1097.377	827.724
345.519	19.890	1096.946	826.951
346.533	20.011	1096.042	826.776
347.548	20.000	1095.460	826.210
348.562	19.985	1094.496	825.338
349.577	19.791	1093.569	823.641
350.592	19.670	1092.651	822.302
351.606	19.718	1091.768	821.796
352.621	19.670	1090.907	820.848
353.635	19.614	1090.556	820.243
354.650	19.704	1089.856	820.073
355.665	19.780	1089.080	819.775
356.679	19.763	1088.548	819.220
357.694	19.852	1087.898	819.081
358.708	19.906	1087.147	818.699
359.723	19.929	1086.724	818.415
360.738	19.889	1085.912	817.542
361.752	19.819	1085.717	816.995
362.767	19.829	1085.084	816.493
363.781	20.000	1084.542	816.818
364.796	20.045	1084.186	816.692
365.810	20.070	1083.722	816.386
366.825	20.164	1083.065	816.260
367.840	20.303	1082.994	816.788
368.854	20.365	1082.064	816.310
369.869	20.305	1081.251	815.342
370.883	20.320	1079.966	814.368
371.898	20.160	1079.626	813.293
372.913	20.099	1078.950	812.424
373.927	20.296	1078.258	812.755
374.942	20.486	1077.930	813.325
375.956	20.413	1077.078	812.267
376.971	20.296	1076.685	811.355
377.986	20.351	1076.354	811.287
379.000	20.387	1076.182	811.256
380.015	20.497	1075.234	810.982
381.029	20.494	1074.558	810.385
382.044	20.507	1073.725	809.746
383.059	20.506	1073.224	809.294
384.073	20.569	1072.276	808.801
385.088	20.548	1071.276	807.876
386.102	20.531	1070.324	807.010
387.117	20.374	1069.491	805.579
388.132	20.311	1068.216	804.257
389.146	20.301	1067.526	803.622
390.161	20.279	1066.823	802.919
391.175	20.181	1066.519	802.166
392.190	20.364	1065.700	802.325
393.205	20.387	1065.085	801.893
394.219	20.476	1064.384	801.705
395.234	20.585	1062.940	801.049
396.248	20.300	1062.243	799.144
397.263	20.350	1061.480	798.729
398.278	20.183	1060.850	797.415
399.292	20.143	1060.044	796.553
400.307	20.124	1059.359	795.881
401.321	20.245	1058.245	795.532
402.336	20.223	1057.433	794.747
403.350	20.244	1057.230	794.620
404.365	20.272	1056.468	794.108
405.380	20.405	1055.741	794.100
406.394	20.471	1055.246	793.959
407.409	20.691	1053.780	793.788
408.423	20.626	1053.733	793.387
409.438	20.775	1053.068	793.495
410.453	20.725	1052.997	793.143
411.467	20.830	1051.912	792.734
412.482	20.773	1051.089	791.784
413.496	20.931	1050.443	791.944
414.511	20.996	1049.838	791.713
415.526	21.037	1049.810	791.807
416.540	21.065	1049.232	791.430
417.555	21.108	1048.522	791.019
418.569	20.892	1048.077	789.633
419.584	21.076	1047.635	790.066
420.599	20.777	1047.523	788.558
421.613	155.753	1404.075	1797.865
422.628	142.752	1455.987	1797.956
