DTS Sentinel unit serial number:	SN413079Multiplexer serial number:	ORYXHardware model number:	OX4-SRSoftware version number:	ORYX F/W v4.00 Oryx Data Collector v3.7.2.0data status	okinstallation	princeton_trtdifferential loss correction	single-endedforward channel	channel 2reverse channel	N/Adate	2019/09/16time	20:03:35forward acquisition time	60.00reverse acquisition time	0.00gamma	496.2192k internal	0.2327k external	0.2327temperature offset calibration	0.9967default loss term (dB/km)	0.3790temperature slope calibration	1.0000multiplexer offset coefficient	1.0000multiplexer slope coefficient	1.0000fibre end	0.00T internal ref (°C)	33.31T ext. ref 1 (°C)	0.08T ext. ref 2 (°C)	26.65length (m)	temperature (°C)	Stokes	anti-Stokes-747.200	-108.320	0.169	0.037
-746.185	58.134	-0.265	-0.262
-745.171	-15.107	0.199	0.129
-744.156	-200.000	-0.061	0.285
-743.142	-86.467	0.469	0.145
-742.127	800.000	-0.108	0.421
-741.112	800.000	-0.099	0.376
-740.098	800.000	-0.018	0.052
-739.083	110.192	0.102	-0.123
-738.069	79.958	-0.135	0.146
-737.054	344.428	-0.093	-0.183
-736.039	5.821	-0.256	-0.191
-735.025	400.428	0.010	-0.022
-734.010	584.051	0.080	0.198
-732.996	-114.157	-0.266	-0.052
-731.981	137.068	-0.165	-0.217
-730.966	8.696	0.291	-0.221
-729.952	-200.000	-0.005	0.164
-728.937	-144.349	0.172	0.016
-727.923	-57.560	0.266	0.117
-726.908	158.452	0.159	-0.222
-725.894	-27.742	-0.082	0.048
-724.879	-6.841	-0.265	-0.182
-723.864	-200.000	0.047	0.471
-722.850	-200.000	0.026	-0.202
-721.835	-200.000	-0.035	0.170
-720.821	176.575	-0.074	0.109
-719.806	800.000	0.096	-0.285
-718.791	215.942	0.082	-0.132
-717.777	800.000	0.100	-0.298
-716.762	201.077	0.128	-0.199
-715.748	-38.699	-0.221	0.117
-714.733	-105.970	-0.115	-0.026
-713.718	-5.129	0.220	-0.152
-712.704	-15.299	-0.328	0.211
-711.689	800.000	0.018	0.073
-710.675	-200.000	-0.015	0.154
-709.660	800.000	-0.059	0.167
-708.645	-184.039	-0.400	-0.007
-707.631	-77.589	0.053	0.018
-706.616	-29.921	0.149	0.086
-705.602	379.690	0.109	-0.225
-704.587	-98.790	-0.209	-0.054
-703.572	-200.000	0.000	-0.026
-702.558	-79.018	-0.262	-0.090
-701.543	-200.000	-0.057	-0.322
-700.529	489.855	-0.132	0.304
-699.514	475.929	-0.083	-0.188
-698.499	-200.000	-0.059	0.329
-697.485	495.578	0.097	-0.224
-696.470	-107.885	-0.086	-0.019
-695.456	89.509	-0.176	-0.198
-694.441	332.522	-0.170	-0.330
-693.426	-193.254	-0.170	-0.002
-692.412	-118.706	0.236	0.042
-691.397	-125.109	-0.337	0.052
-690.383	-126.176	-0.095	-0.014
-689.368	-200.000	-0.074	-0.348
-688.354	-132.723	0.320	-0.041
-687.339	-128.051	0.219	0.032
-686.324	489.750	0.094	-0.216
-685.310	-126.604	-0.385	0.057
-684.295	55.872	0.268	0.262
-683.281	105.104	-0.158	0.187
-682.266	517.334	0.123	0.289
-681.251	399.751	0.177	0.373
-680.237	398.930	-0.065	0.136
-679.222	212.565	-0.109	-0.173
-678.208	-200.000	-0.002	0.235
-677.193	18.845	0.040	-0.032
-676.178	800.000	-0.065	-0.254
-675.164	-200.000	-0.043	-0.320
-674.149	-75.711	0.139	-0.049
-673.135	139.398	-0.197	0.261
-672.120	-32.633	-0.216	0.121
-671.105	-155.612	0.016	0.001
-670.091	87.080	0.209	-0.232
-669.076	-4.285	0.048	-0.034
-668.062	-14.549	-0.287	0.186
-667.047	-200.000	-0.080	-0.427
-666.032	-69.113	0.275	0.107
-665.018	-200.000	-0.371	-0.000
-664.003	800.000	0.060	0.173
-662.989	-69.755	0.155	0.059
-661.974	-121.197	-0.183	-0.031
-660.959	84.168	-0.034	-0.037
-659.945	-94.590	0.399	-0.109
-658.930	11.976	-0.224	-0.173
-657.916	-104.377	-0.028	0.007
-656.901	-200.000	0.045	-0.312
-655.886	-200.000	-0.014	0.262
-654.872	93.219	-0.098	0.111
-653.857	-200.000	-0.055	0.370
-652.843	-200.000	-0.045	-0.256
-651.828	-10.210	0.137	0.091
-650.814	-74.322	-0.150	-0.054
-649.799	-64.674	0.220	0.090
-648.784	-125.921	-0.191	-0.029
-647.770	509.043	-0.154	0.360
-646.755	800.000	0.009	0.033
-645.741	-73.958	0.136	0.050
-644.726	-142.287	-0.203	-0.020
-643.711	-200.000	-0.037	-0.263
-642.697	-68.603	-0.313	-0.122
-641.682	800.000	0.070	0.239
-640.668	268.413	0.048	-0.085
-639.653	-89.731	-0.228	0.067
-638.638	-200.000	-0.012	0.063
-637.624	-55.094	-0.158	0.071
-636.609	-125.606	-0.198	0.030
-635.595	124.455	-0.034	-0.043
-634.580	-43.724	-0.133	-0.067
-633.565	-61.298	-0.147	-0.062
-632.551	315.352	0.024	-0.045
-631.536	-200.000	0.090	0.432
-630.522	317.195	0.075	-0.143
-629.507	-200.000	-0.041	-0.372
-628.492	63.267	0.068	0.068
-627.478	91.834	-0.105	-0.119
-626.463	-77.195	0.118	0.041
-625.449	724.194	0.067	-0.179
-624.434	800.000	-0.089	0.285
-623.419	-200.000	-0.008	0.121
-622.405	-98.298	-0.289	0.074
-621.390	-8.785	-0.164	0.110
-620.376	-177.106	-0.070	0.002
-619.361	-200.000	-0.005	-0.120
-618.346	-200.000	-0.057	0.291
-617.332	37.988	-0.102	-0.091
-616.317	-15.252	-0.250	0.161
-615.303	765.618	-0.074	-0.200
-614.288	42.204	0.174	0.159
-613.273	800.000	0.029	0.126
-612.259	-87.155	0.242	-0.074
-611.244	-85.527	-0.204	-0.064
-610.230	-34.296	-0.050	0.027
-609.215	-93.187	-0.448	0.125
-608.201	-51.833	-0.249	-0.116
-607.186	800.000	0.092	0.304
-606.171	54.826	0.119	-0.115
-605.157	-200.000	0.004	0.312
-604.142	-79.952	-0.094	-0.032
-603.128	46.654	-0.228	0.212
-602.113	-200.000	0.043	-0.284
-601.098	-16.704	0.171	-0.108
-600.084	-85.532	-0.095	0.030
-599.069	-83.156	-0.067	0.022
-598.055	-181.893	-0.149	-0.003
-597.040	783.729	-0.048	-0.133
-596.025	-141.100	-0.189	0.019
-595.011	-41.863	0.123	0.063
-593.996	-30.352	0.162	-0.092
-592.982	-59.427	0.143	-0.062
-591.967	-167.335	0.088	0.004
-590.952	232.033	-0.068	-0.111
-589.938	339.160	0.031	-0.061
-588.923	800.000	-0.043	-0.144
-587.909	-186.317	0.121	0.002
-586.894	-70.016	-0.337	0.129
-585.879	-70.690	-0.114	-0.043
-584.865	-200.000	0.016	-0.192
-583.850	800.000	0.019	0.077
-582.836	123.685	-0.056	-0.071
-581.821	800.000	-0.001	0.004
-580.806	-200.000	0.019	-0.265
-579.792	-108.651	0.224	-0.048
-578.777	-200.000	0.004	0.037
-577.763	39.149	-0.027	0.024
-576.748	254.150	-0.051	-0.088
-575.733	110.420	0.126	-0.152
-574.719	7.253	-0.109	-0.081
-573.704	-105.002	-0.294	-0.067
-572.690	-68.144	0.114	-0.045
-571.675	-200.000	-0.019	-0.268
-570.661	-91.738	-0.173	-0.049
-569.646	-103.100	0.073	-0.017
-568.631	190.039	0.143	0.215
-567.617	396.568	0.058	0.121
-566.602	21.575	-0.240	0.196
-565.588	-144.750	-0.108	-0.010
-564.573	-134.900	0.434	0.053
-563.558	-148.397	-0.216	0.018
-562.544	-76.277	0.078	0.028
-561.529	-163.040	-0.208	0.010
-560.515	34.184	0.320	0.279
-559.500	149.598	0.092	0.125
-558.485	17.294	0.211	-0.168
-557.471	-200.000	0.007	0.220
-556.456	-55.675	-0.182	-0.081
-555.442	-84.359	-0.125	-0.040
-554.427	-23.094	-0.040	-0.024
-553.412	36.361	-0.344	0.304
-552.398	133.802	0.056	0.072
-551.383	-31.775	-0.157	0.088
-550.369	237.564	0.089	0.147
-549.354	-7.634	0.088	0.060
-548.339	94.316	0.224	0.254
-547.325	216.718	0.098	-0.157
-546.310	38.587	0.125	0.111
-545.296	-170.723	-0.078	-0.003
-544.281	89.249	0.100	-0.111
-543.266	-47.028	0.085	0.042
-542.252	-33.282	-0.173	0.096
-541.237	-200.000	0.011	0.294
-540.223	160.865	-0.163	0.228
-539.208	42.981	0.016	0.014
-538.193	-159.733	-0.101	-0.006
-537.179	-45.804	0.302	0.149
-536.164	419.484	0.114	0.244
-535.150	32.986	-0.421	-0.365
-534.135	-165.901	-0.268	-0.011
-533.121	215.020	0.041	-0.065
-532.106	-85.338	-0.240	0.075
-531.091	87.107	0.127	0.140
-530.077	-200.000	-0.023	0.118
-529.062	-28.727	-0.115	-0.066
-528.048	-75.973	-0.191	-0.068
-527.033	-86.137	0.247	-0.076
-526.018	78.161	0.287	-0.306
-525.004	452.513	0.015	0.032
-523.989	82.978	0.118	-0.128
-522.975	121.604	0.019	0.024
-521.960	-69.333	0.162	-0.062
-520.945	28.884	0.326	-0.276
-519.931	636.994	-0.135	-0.342
-518.916	246.008	0.088	0.148
-517.902	800.000	-0.085	0.284
-516.887	143.444	0.137	-0.183
-515.872	-13.558	0.093	-0.060
-514.858	347.586	0.137	0.270
-513.843	0.293	0.185	-0.132
-512.829	57.121	0.179	-0.175
-511.814	-67.707	0.168	-0.066
-510.799	-36.604	0.280	0.150
-509.785	165.755	0.186	0.263
-508.770	-4.153	0.132	-0.091
-507.756	800.000	-0.033	-0.144
-506.741	-200.000	0.013	-0.319
-505.726	-92.196	-0.095	-0.027
-504.712	53.011	-0.100	-0.095
-503.697	3.019	-0.111	0.080
-502.683	251.787	-0.072	0.123
-501.668	299.427	-0.148	-0.272
-500.653	800.000	-0.136	0.400
-499.639	1.631	-0.030	0.021
-498.624	-139.446	0.477	0.051
-497.610	-4.196	-0.358	-0.247
-496.595	-200.000	-0.001	0.088
-495.581	-142.316	0.286	-0.028
-494.566	639.947	0.090	0.229
-493.551	28.912	0.244	0.206
-492.537	-61.956	-0.278	0.116
-491.522	800.000	0.094	-0.312
-490.508	-200.000	0.043	0.279
-489.493	413.180	-0.086	-0.182
-488.478	189.118	-0.087	0.131
-487.464	-88.295	-0.051	0.015
-486.449	147.066	-0.150	0.201
-485.435	118.797	-0.228	0.282
-484.420	-200.000	0.032	0.158
-483.405	58.844	0.247	-0.242
-482.391	206.312	-0.087	-0.135
-481.376	-23.524	0.248	-0.149
-480.362	108.811	-0.173	-0.207
-479.347	-200.000	0.011	0.173
-478.332	-200.000	0.243	-0.000
-477.318	-81.273	-0.347	0.114
-476.303	-200.000	0.029	-0.157
-475.289	-73.161	0.104	-0.038
-474.274	-97.684	-0.235	-0.061
-473.259	75.314	-0.158	-0.166
-472.245	73.272	-0.192	-0.201
-471.230	-200.000	0.013	0.245
-470.216	-200.000	0.005	0.138
-469.201	459.346	0.130	0.289
-468.186	800.000	0.060	-0.242
-467.172	-49.257	-0.248	-0.118
-466.157	-25.986	-0.141	0.083
-465.143	-109.810	-0.315	-0.066
-464.128	-85.172	0.289	0.090
-463.113	-60.530	0.075	-0.032
-462.099	450.897	0.059	0.129
-461.084	-4.152	0.094	-0.065
-460.070	-156.867	-0.218	-0.013
-459.055	-34.415	0.054	0.030
-458.040	-13.088	0.095	-0.062
-457.026	644.915	-0.072	-0.184
-456.011	377.013	0.101	0.206
-454.997	82.122	-0.073	-0.079
-453.982	-178.216	0.317	-0.007
-452.968	-78.356	0.294	-0.100
-451.953	729.511	-0.132	0.352
-450.938	-91.388	0.089	-0.025
-449.924	35.264	-0.293	-0.256
-448.909	172.602	0.214	-0.307
-447.895	19.682	0.231	0.185
-446.880	-200.000	-0.045	-0.279
-445.865	-84.166	-0.147	0.046
-444.851	71.436	-0.201	-0.208
-443.836	-87.087	-0.122	0.037
-442.822	144.267	0.258	-0.343
-441.807	453.678	-0.058	-0.128
-440.792	-200.000	0.023	0.249
-439.778	-200.000	0.012	-0.195
-438.763	24.420	-0.241	0.198
-437.749	-146.985	-0.170	0.015
-436.734	-25.795	0.226	0.133
-435.719	370.661	-0.039	0.079
-434.705	24.183	-0.259	0.213
-433.690	-200.000	-0.015	-0.198
-432.676	32.467	-0.097	-0.084
-431.661	800.000	0.012	-0.049
-430.646	40.293	0.057	-0.051
-429.632	299.140	-0.194	0.356
-428.617	170.072	-0.171	0.244
-427.603	-41.175	0.135	-0.070
-426.588	279.369	0.068	-0.121
-425.573	-191.754	0.214	-0.002
-424.559	-25.024	0.226	0.134
-423.544	-23.449	-0.135	0.081
-422.530	-113.409	-0.337	-0.066
-421.515	249.022	-0.073	0.123
-420.500	-67.290	-0.184	0.072
-419.486	800.000	-0.037	-0.137
-418.471	-15.388	0.257	0.164
-417.457	-107.948	0.066	0.014
-416.442	-35.617	-0.162	-0.087
-415.428	-96.710	0.172	0.045
-414.413	642.246	0.150	-0.380
-413.398	-200.000	0.036	-0.282
-412.384	7.743	-0.037	0.028
-411.369	-88.277	0.169	-0.050
-410.355	-71.717	0.303	-0.112
-409.340	-200.000	-0.043	-0.270
-408.325	-7.930	-0.285	-0.192
-407.311	-16.692	-0.191	0.121
-406.296	800.000	0.095	0.309
-405.282	30.201	0.376	0.319
-404.267	-61.391	-0.126	0.053
-403.252	-5.866	0.199	0.136
-402.238	-11.211	-0.288	0.189
-401.223	-138.215	-0.260	0.029
-400.209	52.077	0.207	-0.196
-399.194	127.821	0.158	0.200
-398.179	-52.940	-0.113	0.052
-397.165	106.230	-0.135	0.159
-396.150	-200.000	-0.020	-0.263
-395.136	-153.964	0.276	-0.019
-394.121	27.456	0.271	0.227
-393.106	714.359	0.043	0.112
-392.092	-200.000	0.012	-0.255
-391.077	99.975	0.105	0.121
-390.063	223.664	0.083	-0.133
-389.048	-200.000	0.011	-0.304
-388.033	-87.686	0.057	-0.017
-387.019	16.073	-0.536	0.420
-386.004	-40.619	0.276	0.142
-384.990	136.288	-0.158	0.204
-383.975	77.011	0.221	0.234
-382.960	-24.808	0.028	0.017
-381.946	-200.000	-0.002	0.039
-380.931	-200.000	0.023	-0.242
-379.917	-71.890	-0.171	0.063
-378.902	226.864	-0.066	-0.106
-377.888	-200.000	-0.014	0.113
-376.873	156.475	0.067	0.092
-375.858	-200.000	-0.001	0.345
-374.844	-161.178	0.054	0.003
-373.829	-200.000	-0.022	0.182
-372.815	213.529	0.215	-0.338
-371.800	800.000	-0.118	-0.452
-370.785	-115.743	-0.296	0.055
-369.771	-114.504	0.349	0.067
-368.756	46.003	0.331	-0.305
-367.742	800.000	-0.034	0.099
-366.727	-200.000	0.007	0.322
-365.712	800.000	-0.025	0.097
-364.698	75.425	-0.104	0.109
-363.683	-80.760	-0.204	-0.067
-362.669	69.275	-0.172	-0.176
-361.654	-200.000	-0.033	0.259
-360.639	800.000	-0.051	0.181
-359.625	-200.000	0.017	0.287
-358.610	800.000	-0.059	0.216
-357.596	-66.946	0.150	-0.059
-356.581	-32.395	0.079	0.044
-355.566	114.052	-0.142	-0.172
-354.552	-7.482	0.197	-0.132
-353.537	241.093	0.071	-0.117
-352.523	-200.000	0.005	0.321
-351.508	-6.309	0.287	-0.195
-350.493	-29.688	0.249	-0.141
-349.479	-127.914	-0.260	-0.037
-348.464	181.065	0.112	-0.163
-347.450	-200.000	0.010	-0.186
-346.435	183.316	0.167	0.246
-345.420	559.843	0.071	-0.170
-344.406	-200.000	-0.005	0.041
-343.391	-200.000	-0.004	0.271
-342.377	14.002	-0.026	0.020
-341.362	-200.000	-0.005	0.028
-340.348	-200.000	0.045	0.207
-339.333	-200.000	-0.008	-0.065
-338.318	-20.355	0.113	-0.069
-337.304	24.951	0.361	-0.297
-336.289	-30.530	-0.178	0.100
-335.275	-88.955	-0.185	0.055
-334.260	-200.000	0.001	-0.093
-333.245	-143.012	-0.137	-0.013
-332.231	-137.918	0.099	-0.011
-331.216	112.260	-0.200	-0.240
-330.202	37.480	0.047	0.042
-329.187	557.703	0.037	-0.088
-328.172	-200.000	-0.015	-0.249
-327.158	-92.937	-0.359	0.099
-326.143	130.637	-0.035	-0.044
-325.129	-163.566	0.207	0.010
-324.114	158.336	0.164	0.226
-323.099	-115.947	0.176	0.033
-322.085	-200.000	0.034	-0.360
-321.070	-200.000	-0.028	-0.282
-320.056	-115.880	-0.146	0.027
-319.041	-155.813	-0.263	-0.017
-318.026	562.369	0.074	0.177
-317.012	70.981	0.122	0.125
-315.997	-92.085	0.190	0.053
-314.983	800.000	-0.082	-0.341
-313.968	-45.605	-0.052	-0.026
-312.953	120.307	-0.060	0.073
-311.939	-30.726	0.344	-0.193
-310.924	-43.279	0.194	0.097
-309.910	-100.475	-0.384	0.094
-308.895	-200.000	-0.049	-0.443
-307.880	322.581	-0.099	0.187
-306.866	601.183	0.044	-0.107
-305.851	14.495	0.198	-0.154
-304.837	-64.590	0.225	-0.091
-303.822	-200.000	-0.007	-0.157
-302.807	-9.785	0.198	0.130
-301.793	130.285	0.091	0.116
-300.778	-35.540	0.216	0.116
-299.764	17.948	0.273	-0.216
-298.749	291.045	-0.145	-0.261
-297.735	292.538	-0.068	-0.122
-296.720	-44.513	-0.008	0.004
-295.705	-162.194	0.198	-0.010
-294.691	800.000	0.146	-0.414
-293.676	-166.137	-0.124	-0.005
-292.662	-98.988	-0.052	-0.013
-291.647	-94.879	0.203	0.055
-290.632	78.694	0.086	0.091
-289.618	-200.000	0.015	-0.321
-288.603	28.134	-0.215	0.180
-287.589	800.000	-0.077	-0.232
-286.574	196.757	0.016	-0.024
-285.559	-77.033	0.233	0.080
-284.545	-114.806	0.047	-0.009
-283.530	278.083	0.021	-0.038
-282.516	365.421	-0.024	0.048
-281.501	-75.919	-0.232	-0.081
-280.486	-200.000	-0.034	0.197
-279.472	-175.216	-0.205	0.006
-278.457	800.000	-0.052	-0.189
-277.443	488.557	-0.156	-0.354
-276.428	-90.429	0.291	0.084
-275.413	-78.462	-0.056	-0.019
-274.399	-122.959	-0.253	0.040
-273.384	800.000	-0.044	-0.158
-272.370	-200.000	-0.040	0.225
-271.355	800.000	0.041	-0.129
-270.340	-116.766	0.258	0.047
-269.326	-110.750	0.201	-0.041
-268.311	-200.000	0.047	0.281
-267.297	-44.876	-0.039	-0.019
-266.282	-200.000	0.003	0.055
-265.267	800.000	0.083	-0.231
-264.253	198.599	-0.034	-0.051
-263.238	44.169	-0.351	0.319
-262.224	-148.905	0.153	-0.012
-261.209	266.932	-0.081	-0.140
-260.195	739.964	0.019	0.051
-259.180	-200.000	0.019	-0.247
-258.165	-48.711	-0.190	-0.090
-257.151	260.379	0.193	-0.330
-256.136	-200.000	0.046	0.292
-255.122	-188.892	-0.410	-0.005
-254.107	33.036	0.217	0.186
-253.092	12.867	0.028	0.022
-252.078	137.218	-0.145	-0.188
-251.063	-100.988	0.388	0.094
-250.049	-80.085	-0.182	-0.060
-249.034	-107.130	-0.150	-0.033
-248.019	129.754	0.138	-0.175
-247.005	68.948	-0.078	-0.079
-245.990	800.000	0.029	0.125
-244.976	-200.000	0.009	0.227
-243.961	800.000	0.098	0.368
-242.946	800.000	0.037	-0.148
-241.932	-200.000	-0.010	-0.056
-240.917	49.944	-0.145	0.135
-239.903	293.644	0.213	0.385
-238.888	-67.798	-0.157	0.061
-237.873	368.223	0.075	-0.151
-236.859	106.932	0.058	0.068
-235.844	-200.000	0.023	-0.255
-234.830	6.228	0.174	-0.128
-233.815	-87.845	-0.427	-0.127
-232.800	-66.529	-0.091	-0.036
-231.786	327.406	0.035	-0.067
-230.771	-159.632	-0.274	-0.015
-229.757	-200.000	0.064	-0.000
-228.742	63.364	0.210	-0.208
-227.727	-16.652	0.269	-0.168
-226.713	800.000	-0.117	0.325
-225.698	41.581	0.227	0.203
-224.684	28.843	-0.144	-0.121
-223.669	66.978	-0.233	0.235
-222.655	-115.268	-0.051	0.009
-221.640	-130.356	0.183	-0.025
-220.625	800.000	0.027	0.083
-219.611	800.000	-0.087	0.263
-218.596	-200.000	0.021	-0.217
-217.582	-200.000	0.001	0.143
-216.567	-140.374	0.249	0.026
-215.552	-19.777	0.391	0.239
-214.538	800.000	0.072	0.294
-213.523	-28.330	0.200	-0.114
-212.509	-71.893	0.227	-0.084
-211.494	-200.000	-0.007	-0.233
-210.479	-200.000	0.015	0.155
-209.465	-200.000	-0.011	0.246
-208.450	284.283	0.081	-0.144
-207.436	237.017	0.183	-0.300
-206.421	800.000	0.058	-0.209
-205.406	-94.829	0.163	0.044
-204.392	-95.567	0.093	-0.025
-203.377	90.115	0.079	-0.087
-202.363	-65.647	0.232	-0.092
-201.348	236.297	0.083	-0.136
-200.333	-200.000	-0.016	0.081
-199.319	230.691	0.223	0.361
-198.304	-81.085	-0.414	-0.135
-197.290	325.072	0.103	-0.195
-196.275	-200.000	0.016	-0.396
-195.260	-14.232	-0.324	-0.206
-194.246	90.004	-0.210	0.231
-193.231	-200.000	0.002	-0.026
-192.217	-200.000	0.008	-0.251
-191.202	800.000	0.081	-0.225
-190.187	-200.000	0.029	0.156
-189.173	172.598	-0.151	-0.215
-188.158	124.974	-0.268	-0.333
-187.144	-14.588	0.248	0.157
-186.129	429.633	-0.049	0.105
-185.114	-40.452	-0.325	-0.166
-184.100	298.534	-0.058	-0.105
-183.085	134.833	0.243	0.311
-182.071	-181.780	0.221	-0.004
-181.056	-99.864	-0.057	-0.014
-180.042	800.000	-0.121	-0.371
-179.027	150.307	-0.048	-0.065
-178.012	800.000	-0.079	0.333
-176.998	-57.472	-0.378	0.164
-175.983	-113.158	0.313	0.061
-174.969	-200.000	0.031	0.362
-173.954	800.000	-0.023	0.083
-172.939	800.000	-0.040	-0.173
-171.925	96.390	-0.103	-0.117
-170.910	-198.286	0.146	0.001
-169.896	-115.576	-0.117	-0.022
-168.881	69.445	0.165	0.167
-167.866	-89.125	0.113	0.033
-166.852	-137.800	-0.182	-0.020
-165.837	800.000	0.029	0.106
-164.823	-195.186	-0.446	-0.003
-163.808	152.704	0.116	0.156
-162.793	195.951	0.153	0.230
-161.779	691.445	0.124	-0.319
-160.764	2.438	-0.194	-0.138
-159.750	118.367	-0.055	0.067
-158.735	545.650	-0.109	-0.256
-157.720	180.526	0.149	0.216
-156.706	-38.935	-0.517	0.268
-155.691	800.000	-0.081	0.244
-154.677	-121.143	-0.205	0.034
-153.662	800.000	-0.031	0.105
-152.647	-49.457	0.090	0.042
-151.633	-200.000	0.013	0.089
-150.618	-85.698	0.282	-0.086
-149.604	-113.575	-0.042	0.008
-148.589	-82.200	0.121	0.039
-147.574	244.535	-0.083	-0.138
-146.560	-74.735	-0.256	-0.091
-145.545	-59.391	0.221	0.094
-144.531	268.308	0.101	0.174
-143.516	-200.000	-0.035	0.239
-142.502	-4.889	0.501	-0.340
-141.487	800.000	-0.036	-0.113
-140.472	-56.393	0.356	-0.156
-139.458	800.000	0.057	0.202
-138.443	-200.000	-0.004	0.183
-137.429	-140.122	0.087	0.009
-136.414	166.288	-0.039	0.054
-135.399	456.557	-0.133	0.291
-134.385	-200.000	-0.039	-0.210
-133.370	-8.347	0.247	0.164
-132.356	800.000	-0.074	0.228
-131.341	-48.285	-0.160	-0.076
-130.326	95.791	-0.248	-0.279
-129.312	571.992	0.110	0.263
-128.297	299.200	-0.119	0.216
-127.283	6.289	0.206	0.151
-126.268	126.158	0.184	-0.229
-125.253	410.092	-0.231	0.481
-124.239	265.627	0.130	0.223
-123.224	84.474	-0.188	0.202
-122.210	-200.000	0.027	-0.161
-121.195	94.481	-0.217	-0.242
-120.180	-129.048	0.235	0.032
-119.166	-200.000	-0.009	-0.200
-118.151	5.120	0.298	-0.216
-117.137	172.716	0.095	0.135
-116.122	-18.312	0.229	0.141
-115.107	188.678	0.088	0.130
-114.093	800.000	-0.037	-0.144
-113.078	504.777	-0.031	-0.070
-112.064	557.433	0.085	0.202
-111.049	-81.990	-0.205	-0.066
-110.034	-162.178	-0.239	-0.012
-109.020	110.073	-0.205	-0.242
-108.005	37.464	-0.254	0.221
-106.991	-99.673	-0.082	0.020
-105.976	223.580	-0.122	0.193
-104.962	-200.000	0.074	0.379
-103.947	158.426	0.092	0.126
-102.932	31.479	-0.056	-0.047
-101.918	-200.000	0.057	-0.319
-100.903	-180.144	0.130	-0.003
-99.889	-112.625	-0.083	-0.016
-98.874	-175.244	-0.274	-0.007
-97.859	800.000	-0.043	0.172
-96.845	83.161	0.053	0.056
-95.830	123.002	0.278	-0.342
-94.816	800.000	0.066	-0.223
-93.801	199.796	-0.105	-0.158
-92.786	-192.231	0.172	0.002
-91.772	800.000	0.106	-0.312
-90.757	157.694	0.202	0.275
-89.743	-141.206	0.223	-0.022
-88.728	-143.242	0.308	-0.029
-87.713	-120.809	-0.144	-0.024
-86.699	800.000	-0.048	0.168
-85.684	312.846	0.146	-0.270
-84.670	-175.162	0.059	0.002
-83.655	168.292	-0.132	-0.184
-82.640	-126.922	0.047	-0.007
-81.626	106.398	-0.170	0.198
-80.611	-20.261	0.060	0.036
-79.597	130.162	0.089	0.113
-78.582	12.774	-0.332	-0.252
-77.567	-117.580	0.210	-0.037
-76.553	800.000	0.123	0.434
-75.538	-5.813	-0.029	0.019
-74.524	366.452	0.062	-0.124
-73.509	74.878	-0.091	0.094
-72.494	-200.000	0.078	-0.340
-71.480	222.202	0.024	0.037
-70.465	70.563	-0.145	-0.147
-69.451	495.296	0.075	-0.170
-68.436	-24.686	-0.181	0.106
-67.422	-90.720	0.200	0.057
-66.407	-38.814	-0.231	0.120
-65.392	-200.000	0.020	-0.133
-64.378	-139.015	0.262	-0.028
-63.363	-4.111	-0.392	-0.267
-62.349	800.000	-0.014	-0.038
-61.334	0.949	-0.920	-0.648
-60.319	-0.763	0.308	0.214
-59.305	800.000	-0.181	-0.751
-58.290	297.804	0.576	1.039
-57.276	-200.000	0.314	1.503
-56.261	-200.000	92.974	557.851
-55.246	560.207	1365.365	3236.709
-54.232	163.074	2541.394	3503.351
-53.217	107.213	2269.074	2646.611
-52.203	42.603	1896.328	1693.569
-51.188	36.583	1686.433	1460.749
-50.173	33.978	1642.015	1403.027
-49.159	51.761	1687.120	1574.785
-48.144	53.379	1703.996	1602.560
-47.130	36.284	1664.989	1439.719
-46.115	33.415	1650.919	1406.227
-45.100	33.170	1646.402	1400.514
-44.086	33.150	1643.420	1397.771
-43.071	33.232	1640.515	1395.849
-42.057	33.128	1638.365	1393.203
-41.042	33.211	1636.650	1392.299
-40.027	33.201	1634.540	1390.378
-39.013	33.184	1632.429	1388.400
-37.998	33.213	1630.965	1387.308
-36.984	33.180	1629.764	1385.994
-35.969	33.342	1628.026	1385.644
-34.954	33.316	1626.685	1384.262
-33.940	33.392	1624.035	1382.505
-32.925	33.280	1623.188	1380.915
-31.911	33.212	1621.943	1379.302
-30.896	33.299	1619.863	1378.111
-29.881	33.349	1617.698	1376.575
-28.867	33.322	1616.506	1375.317
-27.852	33.286	1614.849	1373.585
-26.838	33.393	1613.213	1372.915
-25.823	33.330	1612.067	1371.432
-24.809	33.414	1610.610	1370.744
-23.794	33.303	1609.239	1368.718
-22.779	33.363	1607.762	1367.842
-21.765	33.232	1606.324	1365.621
-20.750	33.253	1604.782	1364.404
-19.736	33.297	1603.057	1363.203
-18.721	33.309	1601.803	1362.170
-17.706	33.386	1600.232	1361.335
-16.692	33.329	1598.665	1359.538
-15.677	33.323	1597.230	1358.220
-14.663	33.326	1596.197	1357.307
-13.648	33.280	1594.782	1355.724
-12.633	33.396	1592.493	1354.551
-11.619	33.351	1591.694	1353.495
-10.604	33.337	1590.398	1352.241
-9.590	33.285	1588.985	1350.613
-8.575	33.405	1587.677	1350.306
-7.560	33.369	1586.396	1348.904
-6.546	33.426	1585.043	1348.105
-5.531	33.385	1583.767	1346.678
-4.517	33.349	1582.694	1345.457
-3.502	33.378	1581.956	1344.980
-2.487	33.391	1580.449	1343.740
-1.473	32.960	1568.014	1330.080
-0.458	29.832	1547.758	1291.057
0.556	23.950	1547.330	1255.487
1.571	21.388	1569.690	1255.154
2.586	20.744	1583.318	1261.270
3.600	19.002	1531.216	1207.441
4.615	10.675	1421.764	1066.540
5.629	2.097	1354.767	962.302
6.644	0.209	1345.402	943.743
7.659	0.060	1344.231	941.909
8.673	0.014	1342.944	940.633
9.688	0.017	1341.627	939.646
10.702	-0.167	1338.668	936.343
11.717	3.771	1345.329	965.559
12.731	12.697	1359.448	1031.750
13.746	17.856	1365.467	1068.612
14.761	17.384	1362.807	1063.486
15.775	16.276	1360.524	1054.696
16.790	15.162	1357.983	1045.681
17.804	14.381	1355.855	1039.080
18.819	14.088	1354.337	1036.002
19.834	13.796	1352.852	1032.959
20.848	13.539	1352.078	1030.673
21.863	13.329	1350.378	1027.984
22.877	13.121	1348.828	1025.419
23.892	13.073	1348.762	1024.983
24.907	13.090	1347.767	1024.242
25.921	13.198	1346.625	1023.950
26.936	13.247	1345.562	1023.353
27.950	13.194	1344.887	1022.423
28.965	13.356	1343.753	1022.470
29.980	13.254	1343.036	1021.206
30.994	13.343	1342.034	1020.905
32.009	13.367	1340.987	1020.166
33.023	13.369	1339.841	1019.216
34.038	13.374	1338.099	1017.831
35.053	13.248	1337.922	1016.829
36.067	13.204	1336.992	1015.761
37.082	13.302	1335.847	1015.405
38.096	13.293	1335.160	1014.736
39.111	13.392	1333.821	1014.235
40.126	13.200	1333.788	1012.944
41.140	13.181	1332.519	1011.775
42.155	13.158	1331.931	1011.100
43.169	12.983	1332.252	1010.184
44.184	13.093	1331.701	1010.346
45.199	13.026	1331.758	1009.890
46.213	13.128	1330.846	1009.734
47.228	13.217	1329.838	1009.424
48.242	13.265	1328.673	1008.743
49.257	13.118	1327.308	1006.718
50.271	13.158	1325.799	1005.731
51.286	13.213	1324.632	1005.093
52.301	13.201	1322.863	1003.588
53.315	13.118	1322.518	1002.735
54.330	13.130	1321.673	1002.076
55.344	13.050	1319.998	1000.234
56.359	13.126	1318.802	999.700
57.374	13.132	1318.184	999.177
58.388	13.076	1317.011	997.863
59.403	13.039	1316.928	997.486
60.417	12.937	1316.109	996.164
61.432	12.965	1315.738	995.964
62.447	13.083	1313.990	995.264
63.461	12.938	1312.754	993.362
64.476	12.947	1312.300	992.986
65.490	12.993	1311.275	992.400
66.505	13.006	1309.104	990.751
67.520	12.987	1308.194	989.860
68.534	13.022	1307.039	989.105
69.549	13.060	1305.464	988.052
70.563	12.970	1304.571	986.753
71.578	12.998	1303.386	985.934
72.593	12.855	1302.577	984.383
73.607	12.891	1301.719	983.863
74.622	12.918	1300.944	983.349
75.636	12.951	1300.167	982.872
76.651	12.974	1299.364	982.313
77.666	13.026	1298.462	981.859
78.680	12.985	1297.933	981.127
79.695	13.028	1297.157	980.705
80.709	13.061	1296.411	980.254
81.724	13.070	1295.331	979.403
82.739	13.123	1294.949	979.340
83.753	13.158	1293.842	978.627
84.768	13.266	1292.750	978.351
85.782	13.228	1291.892	977.391
86.797	13.219	1290.536	976.229
87.812	13.125	1289.247	974.611
88.826	13.120	1288.344	973.810
89.841	13.158	1287.548	973.347
90.855	13.249	1285.915	972.564
91.870	13.233	1285.221	971.857
92.884	13.299	1284.283	971.451
93.899	13.274	1283.824	970.869
94.914	13.353	1282.710	970.403
95.928	13.305	1281.900	969.423
96.943	13.281	1281.046	968.555
97.957	13.318	1280.132	967.995
98.972	13.282	1279.120	966.931
99.987	13.307	1277.950	966.108
101.001	13.345	1277.272	965.731
102.016	13.208	1276.294	964.105
103.030	13.222	1275.505	963.510
104.045	13.273	1274.674	963.092
105.060	13.254	1273.472	961.985
106.074	13.147	1271.884	960.078
107.089	13.036	1271.070	958.739
108.103	13.084	1269.863	958.017
109.118	13.097	1268.914	957.295
110.133	13.073	1267.559	956.050
111.147	13.167	1265.911	955.264
112.162	13.143	1264.887	954.268
113.176	13.249	1263.564	953.795
114.191	13.228	1262.615	952.877
115.206	13.146	1261.876	951.764
116.220	13.066	1260.445	950.136
117.235	13.105	1259.728	949.737
118.249	13.108	1258.729	948.918
119.264	13.150	1257.438	948.103
120.279	13.164	1256.188	947.157
121.293	13.170	1255.244	946.392
122.308	13.017	1254.224	944.666
123.322	13.132	1253.289	944.536
124.337	13.051	1252.657	943.512
125.352	13.023	1251.142	942.129
126.366	13.086	1249.908	941.476
127.381	13.113	1249.301	941.087
128.395	13.191	1247.896	940.390
129.410	13.138	1247.379	939.619
130.424	13.097	1246.802	938.866
131.439	13.186	1245.974	938.666
132.454	13.139	1244.997	937.577
133.468	13.362	1243.672	937.762
134.483	13.216	1243.336	936.598
135.497	13.247	1242.177	935.820
136.512	13.167	1240.802	934.247
137.527	13.169	1239.581	933.257
138.541	13.178	1238.310	932.267
139.556	13.367	1236.612	931.972
140.570	13.202	1236.287	930.716
141.585	13.263	1234.863	929.904
142.600	13.339	1233.628	929.316
143.614	13.303	1232.690	928.330
144.629	13.242	1231.930	927.330
145.643	13.355	1230.822	927.049
146.658	13.405	1229.255	926.068
147.673	13.350	1227.424	924.299
148.687	13.150	1226.963	922.753
149.702	13.200	1225.208	921.629
150.716	13.267	1223.854	920.901
151.731	13.308	1223.064	920.457
152.746	13.283	1221.929	919.378
153.760	13.330	1220.797	918.706
154.775	13.263	1219.904	917.584
155.789	13.331	1218.669	916.951
156.804	13.367	1217.783	916.400
157.819	13.468	1216.379	915.820
158.833	13.509	1215.315	915.166
159.848	13.497	1214.427	914.348
160.862	13.498	1213.907	913.882
161.877	13.456	1212.463	912.482
162.892	13.362	1211.877	911.443
163.906	13.288	1211.069	910.349
164.921	13.275	1210.019	909.410
165.935	13.407	1208.772	909.114
166.950	13.472	1208.531	909.212
167.964	13.425	1207.490	908.090
168.979	13.376	1207.125	907.466
169.994	13.355	1206.507	906.807
171.008	13.369	1205.393	905.962
172.023	13.527	1204.413	906.009
173.037	13.594	1203.712	905.772
174.052	13.617	1202.871	905.184
175.067	13.465	1201.993	903.612
176.081	13.559	1200.622	903.016
177.096	13.580	1199.793	902.427
178.110	13.546	1198.899	901.487
179.125	13.504	1197.760	900.326
180.140	13.585	1196.437	899.689
181.154	13.502	1195.467	898.432
182.169	13.559	1194.590	898.001
183.183	13.636	1193.072	897.196
184.198	13.685	1191.849	896.460
185.213	13.650	1191.176	895.687
186.227	13.682	1189.992	894.893
187.242	13.737	1188.664	894.108
188.256	13.835	1187.625	893.779
189.271	13.770	1186.873	892.782
190.286	13.609	1186.196	891.331
191.300	13.587	1184.894	890.152
192.315	13.574	1184.093	889.404
193.329	13.643	1183.670	889.375
194.344	13.579	1183.151	888.562
195.359	13.730	1181.951	888.393
196.373	13.667	1182.215	888.178
197.388	13.882	1181.735	888.888
198.402	13.844	1181.174	888.184
199.417	14.004	1179.956	888.045
200.432	13.985	1179.417	887.458
201.446	14.011	1178.666	886.956
202.461	14.096	1177.477	886.432
203.475	14.051	1176.925	885.699
204.490	13.946	1175.256	883.806
205.504	13.849	1174.307	882.501
206.519	13.963	1173.012	882.054
207.534	13.956	1171.787	881.018
208.548	13.892	1171.093	880.080
209.563	13.958	1170.410	879.837
210.577	13.981	1169.786	879.413
211.592	14.027	1168.368	878.512
212.607	14.077	1167.752	878.234
213.621	14.074	1166.689	877.339
214.636	14.001	1166.073	876.418
215.650	14.125	1165.144	876.295
216.665	14.243	1163.882	875.887
217.680	14.201	1163.598	875.377
218.694	14.159	1162.889	874.544
219.709	14.137	1162.026	873.700
220.723	14.268	1160.712	873.326
221.738	14.170	1160.519	872.587
222.753	14.133	1160.033	871.949
223.767	14.210	1159.320	871.743
224.782	14.307	1158.502	871.555
225.796	14.328	1157.867	871.111
226.811	14.293	1157.303	870.429
227.826	14.338	1156.169	869.733
228.840	14.285	1156.088	869.320
229.855	14.227	1154.915	868.056
230.869	14.318	1154.177	867.897
231.884	14.242	1153.391	866.834
232.899	14.233	1152.760	866.239
233.913	14.260	1152.405	866.032
234.928	14.238	1151.278	864.995
235.942	14.229	1150.549	864.328
236.957	14.216	1149.628	863.490
237.972	14.251	1149.038	863.152
238.986	14.105	1148.725	862.082
240.001	14.324	1147.220	862.012
241.015	14.294	1146.874	861.522
242.030	14.313	1145.807	860.741
243.045	14.383	1145.212	860.581
244.059	14.301	1144.919	859.858
245.074	14.396	1144.068	859.636
246.088	14.442	1143.411	859.299
247.103	14.477	1142.306	858.573
248.117	14.463	1142.220	858.360
249.132	14.517	1140.816	857.508
250.147	14.633	1140.212	857.575
251.161	14.686	1139.212	857.019
252.176	14.649	1138.879	856.504
253.190	14.797	1137.951	856.488
254.205	14.793	1137.318	855.915
255.220	14.820	1136.875	855.646
256.234	14.693	1136.640	854.741
257.249	14.860	1135.642	854.771
258.263	14.786	1135.117	853.922
259.278	14.916	1134.505	854.050
260.293	14.947	1133.969	853.731
261.307	14.881	1133.221	852.754
262.322	14.835	1133.022	852.294
263.336	14.906	1132.002	851.813
264.351	14.958	1131.402	851.549
265.366	14.881	1131.092	850.851
266.380	15.071	1130.151	851.034
267.395	15.011	1129.276	849.992
268.409	14.866	1128.409	848.531
269.424	14.996	1127.498	848.429
270.439	15.011	1126.900	847.980
271.453	14.922	1126.714	847.313
272.468	14.859	1125.844	846.264
273.482	14.841	1125.302	845.691
274.497	14.993	1124.242	845.590
275.512	14.973	1123.670	844.982
276.526	14.948	1123.181	844.414
277.541	14.992	1122.167	843.799
278.555	15.068	1121.623	843.700
279.570	15.152	1120.417	843.138
280.585	15.127	1119.706	842.405
281.599	15.127	1118.969	841.774
282.614	15.130	1118.004	840.989
283.628	15.226	1116.981	840.628
284.643	15.244	1116.194	840.049
285.657	15.084	1115.704	838.808
286.672	15.228	1114.285	838.384
287.687	15.215	1113.384	837.568
288.701	15.153	1113.039	836.923
289.716	15.238	1112.172	836.624
290.730	15.243	1111.410	836.001
291.745	15.317	1111.118	836.077
292.760	15.123	1110.592	834.640
293.774	15.242	1109.785	834.551
294.789	15.378	1108.931	834.515
295.803	15.450	1108.291	834.315
296.818	15.311	1107.381	832.868
297.833	15.402	1107.010	832.965
298.847	15.358	1106.407	832.218
299.862	15.352	1105.419	831.371
300.876	15.439	1104.575	831.097
301.891	15.391	1104.079	830.409
302.906	15.421	1103.634	830.152
303.920	15.530	1103.097	830.215
304.935	15.428	1102.431	829.136
305.949	15.626	1101.256	829.153
306.964	15.597	1100.807	828.597
307.979	15.532	1100.088	827.663
308.993	15.531	1099.348	827.030
310.008	15.644	1098.363	826.773
311.022	15.642	1097.612	826.125
312.037	15.681	1096.799	825.629
313.052	15.570	1095.944	824.367
314.066	15.547	1095.052	823.512
315.081	15.593	1094.260	823.069
316.095	15.583	1093.652	822.487
317.110	15.504	1093.151	821.656
318.125	15.624	1092.615	821.762
319.139	15.634	1091.593	820.973
320.154	15.712	1090.814	820.696
321.168	15.568	1090.912	819.991
322.183	15.451	1090.361	818.933
323.197	15.574	1089.262	818.636
324.212	15.626	1088.573	818.298
325.227	15.608	1088.456	818.052
326.241	15.640	1087.749	817.602
327.256	15.650	1086.760	816.838
328.270	15.657	1085.772	816.053
329.285	15.649	1084.676	815.119
330.300	15.646	1083.820	814.389
331.314	15.602	1083.267	813.692
332.329	15.846	1081.804	813.698
333.343	15.791	1081.036	812.783
334.358	15.671	1080.624	811.823
335.373	15.758	1080.142	811.808
336.387	15.874	1078.893	811.355
337.402	15.799	1078.570	810.682
338.416	15.916	1077.336	810.246
339.431	15.972	1076.620	809.902
340.446	15.984	1076.421	809.742
341.460	16.074	1075.734	809.585
342.475	16.088	1074.541	808.682
343.489	16.119	1073.713	808.134
344.504	15.947	1073.090	806.770
345.519	16.161	1072.027	806.924
346.533	16.014	1071.455	805.717
347.548	16.122	1070.511	805.457
348.562	16.213	1070.263	805.630
349.577	16.173	1069.203	804.570
350.592	16.115	1068.101	803.395
351.606	15.983	1067.658	802.360
352.621	16.012	1067.235	802.109
353.635	16.112	1066.255	801.780
354.650	16.038	1065.468	800.763
355.665	16.116	1064.922	800.655
356.679	16.186	1064.541	800.628
357.694	16.145	1063.883	799.868
358.708	16.146	1063.135	799.238
359.723	16.071	1062.378	798.245
360.738	16.243	1061.900	798.628
361.752	16.231	1061.525	798.218
362.767	16.314	1060.639	797.877
363.781	16.315	1060.403	797.631
364.796	16.333	1059.902	797.269
365.810	16.354	1059.234	796.794
366.825	16.308	1058.965	796.304
367.840	16.432	1058.145	796.201
368.854	16.435	1057.743	795.841
369.869	16.470	1057.079	795.439
370.883	16.517	1056.001	794.776
371.898	16.397	1055.143	793.497
372.913	16.487	1054.304	793.219
373.927	16.537	1053.711	792.937
374.942	16.609	1053.252	792.858
375.956	16.547	1052.967	792.282
376.971	16.507	1052.427	791.619
377.986	16.570	1051.767	791.350
379.000	16.576	1051.558	791.150
380.015	16.753	1050.511	791.119
381.029	16.785	1050.048	790.850
382.044	16.661	1049.401	789.714
383.059	16.664	1048.682	789.117
384.073	16.825	1047.813	789.145
385.088	16.675	1047.053	787.802
386.102	16.775	1045.962	787.376
387.117	16.748	1045.180	786.592
388.132	16.785	1044.063	785.854
389.146	16.691	1043.479	784.912
390.161	16.703	1042.838	784.412
391.175	16.688	1042.297	783.866
392.190	16.752	1041.762	783.692
393.205	16.678	1041.097	782.780
394.219	16.784	1040.191	782.519
395.234	16.791	1039.150	781.700
396.248	16.776	1038.001	780.696
397.263	16.731	1037.499	780.041
398.278	16.668	1036.909	779.241
399.292	16.712	1035.960	778.659
400.307	16.743	1035.469	778.366
401.321	16.763	1034.635	777.762
402.336	16.777	1033.909	777.210
403.350	16.726	1033.350	776.489
404.365	16.695	1033.055	776.054
405.380	16.953	1031.819	776.241
406.394	16.901	1031.424	775.635
407.409	16.994	1030.286	775.138
408.423	17.037	1029.736	774.851
409.438	16.969	1029.085	773.982
410.453	17.102	1028.575	774.136
411.467	17.024	1028.143	773.385
412.482	17.204	1027.081	773.340
413.496	17.067	1026.584	772.272
414.511	17.297	1025.832	772.684
415.526	17.199	1025.513	771.931
416.540	17.158	1025.321	771.530
417.555	17.265	1024.828	771.580
418.569	17.155	1024.299	770.610
419.584	17.249	1023.751	770.556
420.599	17.297	1023.113	770.229
421.613	101.732	1315.837	1455.378
422.628	92.964	1358.440	1455.482
