DTS Sentinel unit serial number:	SN413079Multiplexer serial number:	ORYXHardware model number:	OX4-SRSoftware version number:	ORYX F/W v4.00 Oryx Data Collector v3.7.2.0data status	okinstallation	princeton_trtdifferential loss correction	single-endedforward channel	channel 2reverse channel	N/Adate	2019/09/12time	10:45:11forward acquisition time	60.00reverse acquisition time	0.00gamma	496.2192k internal	0.2308k external	0.2308temperature offset calibration	1.0067default loss term (dB/km)	0.3790temperature slope calibration	1.0000multiplexer offset coefficient	1.0000multiplexer slope coefficient	1.0000fibre end	0.00T internal ref (°C)	37.70T ext. ref 1 (°C)	1.92T ext. ref 2 (°C)	36.19length (m)	temperature (°C)	Stokes	anti-Stokes-747.200	800.000	0.019	0.066
-746.185	46.073	-0.203	0.191
-745.171	178.905	-0.205	0.304
-744.156	-200.000	0.037	0.336
-743.142	800.000	0.052	0.148
-742.127	-200.000	0.031	0.327
-741.112	-200.000	-0.029	-0.255
-740.098	-200.000	-0.016	0.253
-739.083	-159.336	0.140	-0.008
-738.069	188.605	-0.216	0.328
-737.054	-74.767	-0.028	0.010
-736.039	800.000	0.118	0.335
-735.025	76.384	0.175	0.188
-734.010	-11.534	-0.186	0.124
-732.996	11.784	-0.259	0.202
-731.981	145.262	-0.043	0.059
-730.966	53.648	0.080	-0.078
-729.952	315.615	0.079	-0.152
-728.937	800.000	0.100	-0.326
-727.923	152.226	-0.274	-0.380
-726.908	-14.611	0.262	-0.171
-725.894	304.449	0.164	0.309
-724.879	114.926	-0.073	0.090
-723.864	-75.401	-0.226	0.082
-722.850	800.000	-0.077	0.261
-721.835	-11.880	0.182	0.121
-720.821	-200.000	-0.015	-0.220
-719.806	12.814	0.132	0.104
-718.791	800.000	0.015	0.064
-717.777	42.214	-0.136	0.126
-716.762	-76.047	-0.097	-0.035
-715.748	-200.000	-0.050	-0.242
-714.733	-200.000	0.033	0.184
-713.718	246.837	-0.023	0.040
-712.704	45.186	0.125	0.117
-711.689	-66.255	-0.106	-0.043
-710.675	-8.333	-0.058	-0.040
-709.660	332.222	0.150	-0.294
-708.645	486.545	-0.137	-0.316
-707.631	303.135	0.266	-0.500
-706.616	800.000	-0.075	-0.255
-705.602	108.818	0.171	-0.208
-704.587	-46.632	0.368	-0.183
-703.572	252.404	-0.043	0.075
-702.558	682.042	-0.158	0.417
-701.543	765.865	-0.052	-0.145
-700.529	399.814	-0.177	-0.377
-699.514	-45.736	0.239	-0.120
-698.499	-200.000	0.021	-0.292
-697.485	276.891	-0.110	-0.198
-696.470	-30.182	-0.112	-0.064
-695.456	-10.055	0.273	0.184
-694.441	-99.550	-0.132	-0.034
-693.426	-63.362	-0.358	0.150
-692.412	-119.656	-0.274	0.048
-691.397	-200.000	-0.002	0.077
-690.383	19.191	-0.099	0.080
-689.368	-53.609	-0.123	0.057
-688.354	-63.160	-0.235	-0.098
-687.339	19.745	-0.190	-0.155
-686.324	82.264	-0.133	0.146
-685.310	-200.000	0.000	0.129
-684.295	91.373	0.071	0.081
-683.281	-87.247	-0.055	-0.017
-682.266	-174.252	-0.067	0.002
-681.251	571.723	-0.082	-0.203
-680.237	-138.581	-0.152	-0.017
-679.222	-67.846	-0.111	-0.044
-678.208	-194.635	-0.198	-0.002
-677.193	-200.000	0.022	-0.164
-676.178	-34.218	-0.155	0.086
-675.164	-200.000	0.048	-0.447
-674.149	-77.576	0.181	0.064
-673.135	-200.000	0.010	-0.264
-672.120	-126.443	-0.236	0.036
-671.105	-109.157	-0.164	0.035
-670.091	-117.005	0.224	-0.042
-669.076	800.000	0.074	-0.252
-668.062	-200.000	-0.067	-0.580
-667.047	-200.000	-0.007	-0.050
-666.032	65.343	-0.109	0.111
-665.018	-200.000	0.039	0.391
-664.003	-12.342	0.188	0.125
-662.989	323.451	0.141	-0.272
-661.974	800.000	-0.075	-0.277
-660.959	800.000	-0.071	0.292
-659.945	336.657	0.181	-0.357
-658.930	-200.000	-0.009	0.155
-657.916	800.000	0.009	0.031
-656.901	-139.935	0.140	0.015
-655.886	269.743	-0.113	-0.202
-654.872	-128.259	0.406	0.059
-653.857	-151.093	-0.105	-0.008
-652.843	10.510	-0.093	0.071
-651.828	327.661	-0.233	-0.453
-650.814	112.396	-0.113	0.138
-649.799	-95.835	-0.342	-0.092
-648.784	800.000	0.036	-0.137
-647.770	-68.455	-0.292	-0.115
-646.755	-174.606	0.366	-0.011
-645.741	238.979	0.094	-0.158
-644.726	656.462	-0.076	-0.198
-643.711	-135.178	-0.108	-0.013
-642.697	-33.753	-0.228	0.127
-641.682	-200.000	-0.030	-0.135
-640.668	-200.000	0.015	-0.140
-639.653	800.000	-0.110	-0.459
-638.638	-13.860	-0.206	-0.135
-637.624	-17.721	0.303	-0.192
-636.609	-200.000	-0.015	0.090
-635.595	-113.737	0.106	-0.021
-634.580	-200.000	-0.347	0.000
-633.565	-151.222	-0.334	-0.025
-632.551	140.687	0.010	-0.014
-631.536	283.328	0.040	-0.073
-630.522	58.883	-0.061	-0.061
-629.507	800.000	0.093	0.324
-628.492	-110.574	0.213	-0.045
-627.478	-200.000	-0.006	-0.131
-626.463	-63.663	-0.242	0.100
-625.449	-33.619	-0.233	0.130
-624.434	-96.560	-0.214	0.057
-623.419	12.518	0.102	-0.079
-622.405	209.338	0.157	-0.248
-621.390	-43.788	0.075	0.038
-620.376	-152.578	0.154	-0.011
-619.361	-200.000	0.030	0.371
-618.346	154.207	0.067	0.094
-617.332	81.287	0.023	0.025
-616.317	-200.000	-0.027	0.125
-615.303	-43.008	0.234	-0.120
-614.288	-53.655	-0.104	0.048
-613.273	152.721	0.091	0.126
-612.259	-19.969	0.067	-0.042
-611.244	71.467	0.111	0.116
-610.230	-65.216	-0.407	0.166
-609.215	-200.000	0.015	0.255
-608.201	-95.015	0.228	-0.062
-607.186	-200.000	0.013	-0.070
-606.171	-200.000	-0.009	-0.196
-605.157	310.333	0.115	0.217
-604.142	-60.250	-0.181	-0.078
-603.128	800.000	0.052	0.216
-602.113	-200.000	0.030	-0.314
-601.098	-200.000	0.013	-0.337
-600.084	-111.701	0.082	-0.017
-599.069	3.148	0.050	0.037
-598.055	-171.547	-0.265	0.009
-597.040	-200.000	-0.014	0.108
-596.025	800.000	-0.023	-0.086
-595.011	181.729	-0.146	-0.217
-593.996	-200.000	-0.063	0.360
-592.982	-153.000	0.226	0.016
-591.967	-200.000	-0.254	0.000
-590.952	1.682	0.410	-0.298
-589.938	-200.000	0.009	0.189
-588.923	-42.318	-0.236	-0.122
-587.909	79.010	-0.199	0.215
-586.894	266.066	-0.091	0.161
-585.879	-200.000	0.040	-0.194
-584.865	231.443	0.093	0.153
-583.850	85.054	0.186	0.206
-582.836	-51.214	0.162	0.077
-581.821	23.278	0.242	0.201
-580.806	-64.832	0.294	-0.120
-579.792	-200.000	0.045	-0.406
-578.777	-74.725	-0.379	-0.138
-577.763	-147.430	0.187	0.016
-576.748	-102.960	0.270	0.065
-575.733	-63.115	-0.072	0.030
-574.719	276.807	-0.075	-0.134
-573.704	501.978	0.143	-0.334
-572.690	447.766	0.067	0.148
-571.675	-200.000	-0.044	-0.207
-570.661	-88.909	-0.273	0.082
-569.646	-96.335	0.070	0.019
-568.631	800.000	-0.015	-0.052
-567.617	-200.000	-0.017	-0.145
-566.602	-104.119	-0.064	-0.015
-565.588	-37.406	0.167	0.090
-564.573	800.000	-0.018	0.076
-563.558	-117.342	-0.280	-0.051
-562.544	-200.000	-0.008	-0.297
-561.529	106.839	0.148	-0.178
-560.515	-200.000	-0.026	-0.116
-559.500	342.095	-0.019	0.038
-558.485	279.859	0.117	0.211
-557.471	-36.548	-0.147	-0.080
-556.456	230.738	0.057	-0.095
-555.442	-200.000	0.032	0.192
-554.427	-200.000	-0.036	0.168
-553.412	-170.487	0.139	0.005
-552.398	-12.237	0.180	0.119
-551.383	-200.000	-0.011	-0.158
-550.369	800.000	0.013	-0.051
-549.354	-158.811	0.196	-0.011
-548.339	800.000	-0.026	-0.108
-547.325	-58.202	0.114	-0.050
-546.310	-200.000	0.101	0.000
-545.296	-164.230	-0.188	0.009
-544.281	-87.981	-0.065	0.020
-543.266	-200.000	0.004	-0.244
-542.252	800.000	0.068	0.204
-541.237	-200.000	-0.024	-0.161
-540.223	288.475	0.011	0.020
-539.208	-200.000	0.040	-0.255
-538.193	-135.593	-0.301	-0.036
-537.179	98.595	0.076	0.088
-536.164	-66.861	-0.270	-0.108
-535.150	62.544	-0.252	0.254
-534.135	4.166	0.117	-0.086
-533.121	547.445	0.076	0.182
-532.106	-94.381	0.201	-0.055
-531.091	-200.000	0.030	-0.154
-530.077	-87.022	-0.277	-0.085
-529.062	-133.985	-0.129	0.016
-528.048	312.978	0.147	-0.278
-527.033	-104.544	-0.266	0.062
-526.018	-83.453	0.100	-0.032
-525.004	32.478	0.109	-0.095
-523.989	511.972	0.090	-0.212
-522.975	2.223	-0.288	0.210
-521.960	-75.943	0.021	-0.008
-520.945	11.480	-0.251	0.194
-519.931	42.765	0.146	0.134
-518.916	276.673	-0.136	-0.243
-517.902	39.048	0.112	0.101
-516.887	28.803	-0.131	-0.112
-515.872	148.594	-0.171	-0.233
-514.858	-123.502	-0.415	0.066
-513.843	48.901	-0.265	-0.251
-512.829	-99.866	-0.150	0.038
-511.814	227.305	0.115	-0.188
-510.799	-8.809	0.173	-0.117
-509.785	-126.283	0.209	0.032
-508.770	-200.000	-0.013	-0.165
-507.756	33.675	-0.097	-0.085
-506.741	-171.547	0.174	-0.006
-505.726	-200.000	-0.000	-0.345
-504.712	-15.970	-0.171	-0.109
-503.697	147.425	-0.027	0.036
-502.683	13.440	-0.008	-0.006
-501.668	-80.717	0.168	-0.056
-500.653	-200.000	0.022	0.167
-499.639	-200.000	0.006	-0.036
-498.624	93.172	0.242	0.276
-497.610	117.813	0.078	0.096
-496.595	-17.351	0.188	0.119
-495.581	800.000	-0.077	0.337
-494.566	-200.000	-0.012	0.167
-493.551	29.618	0.131	-0.112
-492.537	-108.055	-0.332	0.073
-491.522	254.371	0.144	-0.248
-490.508	-200.000	-0.007	0.384
-489.493	800.000	-0.036	0.134
-488.478	302.493	-0.027	0.051
-487.464	43.605	-0.101	-0.093
-486.449	-200.000	-0.005	0.050
-485.435	-200.000	-0.016	0.112
-484.420	800.000	-0.010	0.037
-483.405	-176.642	0.223	-0.006
-482.391	-59.551	-0.234	-0.101
-481.376	23.250	-0.226	-0.187
-480.362	800.000	0.026	0.102
-479.347	-109.812	-0.225	-0.047
-478.332	-60.759	-0.159	0.068
-477.318	-200.000	-0.018	-0.265
-476.303	-77.204	-0.173	-0.060
-475.289	-200.000	-0.045	0.480
-474.274	-200.000	0.037	-0.163
-473.259	-45.778	0.093	-0.046
-472.245	62.782	-0.068	0.068
-471.230	143.767	0.095	-0.128
-470.216	198.457	0.035	0.054
-469.201	-86.737	-0.427	-0.131
-468.186	-110.757	0.142	0.029
-467.172	-86.466	0.147	-0.046
-466.157	-54.219	-0.251	0.115
-465.143	124.505	-0.109	-0.138
-464.128	38.685	-0.458	-0.411
-463.113	20.827	0.245	0.199
-462.099	-54.858	-0.258	0.117
-461.084	-78.490	0.203	0.070
-460.070	455.872	0.042	-0.094
-459.055	44.827	-0.203	0.188
-458.040	-11.918	-0.128	0.084
-457.026	-93.853	-0.116	0.032
-456.011	486.683	-0.085	-0.195
-454.997	800.000	0.110	0.333
-453.982	209.762	0.195	-0.307
-452.968	-131.949	-0.202	-0.027
-451.953	0.763	-0.226	-0.162
-450.938	-180.099	0.242	-0.005
-449.924	153.750	-0.052	0.072
-448.909	66.159	-0.250	-0.255
-447.895	111.309	-0.140	0.170
-446.880	-95.722	-0.247	-0.066
-445.865	-24.761	0.335	0.200
-444.851	-200.000	0.023	0.214
-443.836	-42.003	0.077	0.040
-442.822	-91.676	-0.146	-0.042
-441.807	3.900	-0.321	-0.236
-440.792	209.508	-0.061	-0.097
-439.778	199.390	0.089	0.138
-438.763	-108.428	-0.212	-0.046
-437.749	-26.131	0.196	-0.116
-436.734	174.193	0.194	-0.282
-435.719	219.024	-0.141	-0.226
-434.705	-8.055	-0.126	-0.085
-433.690	156.914	0.101	-0.140
-432.676	241.707	0.082	-0.138
-431.661	-112.862	-0.204	0.041
-430.646	-4.163	-0.145	0.101
-429.632	-103.496	-0.116	0.027
-428.617	-200.000	0.047	0.000
-427.603	235.781	-0.126	-0.209
-426.588	-182.651	0.206	0.004
-425.573	-16.819	0.279	-0.177
-424.559	-200.000	0.016	-0.138
-423.544	194.753	-0.114	-0.174
-422.530	535.780	0.125	0.297
-421.515	-200.000	-0.069	-0.506
-420.500	-77.907	-0.164	0.057
-419.486	48.414	-0.227	-0.214
-418.471	-119.892	0.099	0.017
-417.457	-17.982	-0.183	0.115
-416.442	137.446	-0.196	0.258
-415.428	86.071	-0.088	-0.097
-414.413	185.114	0.045	0.067
-413.398	-57.835	-0.178	-0.078
-412.384	549.659	0.103	0.248
-411.369	110.519	0.131	0.158
-410.355	335.176	-0.118	-0.230
-409.340	396.502	-0.049	-0.104
-408.325	675.743	0.042	0.110
-407.311	307.513	0.137	0.257
-406.296	132.893	0.068	-0.088
-405.282	103.315	0.335	0.394
-404.267	800.000	-0.077	-0.229
-403.252	-200.000	0.048	-0.271
-402.238	-200.000	0.029	-0.193
-401.223	-120.589	0.034	-0.006
-400.209	-88.813	-0.353	0.105
-399.194	306.883	-0.068	-0.126
-398.179	-200.000	0.030	-0.422
-397.165	35.501	-0.195	0.172
-396.150	-119.968	-0.094	0.016
-395.136	235.389	0.108	-0.178
-394.121	-200.000	-0.040	0.406
-393.106	105.644	0.107	0.127
-392.092	26.062	0.130	-0.109
-391.077	461.948	-0.042	-0.094
-390.063	33.444	-0.301	-0.262
-389.048	-177.399	0.145	-0.004
-388.033	70.542	0.211	0.218
-387.019	277.249	0.074	-0.133
-386.004	-200.000	0.003	-0.108
-384.990	800.000	-0.108	-0.340
-383.975	800.000	-0.028	-0.094
-382.960	22.933	-0.164	-0.135
-381.946	-106.770	-0.238	-0.053
-380.931	-145.138	-0.135	0.012
-379.917	-200.000	-0.032	0.279
-378.902	665.668	-0.154	-0.399
-377.888	-11.232	0.087	-0.058
-376.873	495.858	0.164	0.377
-375.858	-200.000	-0.027	0.199
-374.844	-85.675	0.432	-0.135
-373.829	64.997	0.143	-0.145
-372.815	35.420	0.243	-0.214
-371.800	24.046	0.202	-0.167
-370.785	-200.000	0.012	-0.061
-369.771	399.344	-0.117	0.245
-368.756	-91.032	0.120	-0.035
-367.742	137.042	0.130	-0.170
-366.727	100.116	-0.069	0.080
-365.712	-42.955	0.174	0.088
-364.698	383.789	-0.045	-0.093
-363.683	-55.337	0.055	0.025
-362.669	-128.609	0.516	-0.073
-361.654	83.351	-0.251	-0.274
-360.639	-200.000	0.002	0.039
-359.625	-29.083	-0.224	-0.129
-358.610	-170.587	0.265	0.009
-357.596	-200.000	0.010	-0.054
-356.581	22.338	0.139	0.114
-355.566	-200.000	-0.003	0.029
-354.552	748.622	0.080	0.217
-353.537	298.260	-0.167	-0.307
-352.523	-200.000	-0.026	0.166
-351.508	4.753	-0.281	-0.207
-350.493	-200.000	-0.063	0.282
-349.479	37.075	-0.090	-0.080
-348.464	40.663	0.162	0.147
-347.450	126.017	-0.261	0.330
-346.435	-129.093	-0.064	-0.009
-345.420	69.598	0.075	-0.077
-344.406	800.000	-0.025	0.078
-343.391	249.061	0.224	0.380
-342.377	800.000	0.097	0.303
-341.362	-200.000	0.004	-0.203
-340.348	-164.782	-0.281	-0.013
-339.333	-102.463	0.477	0.114
-338.318	-162.242	0.439	0.022
-337.304	-154.418	0.223	-0.015
-336.289	-63.058	-0.487	0.201
-335.275	-106.019	0.319	0.072
-334.260	110.225	0.067	-0.081
-333.245	-57.570	0.207	-0.091
-332.231	-200.000	0.007	0.179
-331.216	-105.697	-0.291	0.066
-330.202	-114.619	0.103	0.020
-329.187	-3.804	-0.252	-0.175
-328.172	53.543	0.289	0.278
-327.158	-50.306	-0.244	-0.115
-326.143	329.519	-0.094	-0.180
-325.129	-6.235	-0.253	-0.173
-324.114	-169.661	0.282	0.010
-323.099	-151.897	-0.242	0.018
-322.085	86.066	-0.108	-0.118
-321.070	-155.337	-0.072	-0.005
-320.056	6.827	0.066	0.049
-319.041	-141.827	-0.167	0.017
-318.026	658.099	0.072	-0.185
-317.012	-142.589	-0.105	0.010
-315.997	-58.236	-0.121	0.053
-314.983	19.712	0.090	0.073
-313.968	39.572	-0.113	0.101
-312.953	800.000	0.066	0.185
-311.939	-167.292	-0.118	-0.005
-310.924	42.923	-0.074	-0.067
-309.910	87.728	-0.126	-0.139
-308.895	-71.639	-0.271	-0.101
-307.880	155.616	-0.132	-0.181
-306.866	-123.715	0.445	-0.070
-305.851	495.089	0.161	0.370
-304.837	178.224	0.067	0.098
-303.822	-11.364	0.142	-0.094
-302.807	-190.603	0.231	-0.002
-301.793	-79.935	0.114	-0.038
-300.778	-200.000	-0.005	-0.142
-299.764	140.242	-0.137	-0.180
-298.749	176.765	0.007	0.011
-297.735	800.000	-0.015	0.045
-296.720	-117.659	0.173	0.031
-295.705	800.000	0.058	0.242
-294.691	-59.592	-0.236	-0.101
-293.676	-110.978	-0.179	0.037
-292.662	800.000	0.082	0.341
-291.647	-117.631	-0.167	0.030
-290.632	333.218	0.159	-0.307
-289.618	-35.806	-0.173	-0.093
-288.603	-200.000	-0.011	-0.091
-287.589	800.000	-0.104	0.335
-286.574	-200.000	-0.011	0.084
-285.559	800.000	-0.028	0.081
-284.545	-66.778	-0.335	0.132
-283.530	-200.000	0.022	-0.184
-282.516	72.697	0.027	-0.028
-281.501	34.203	-0.284	0.248
-280.486	60.289	0.245	-0.242
-279.472	-50.870	0.105	-0.049
-278.457	800.000	0.010	0.029
-277.443	-101.959	-0.129	0.031
-276.428	243.306	-0.117	0.195
-275.413	0.094	-0.179	0.127
-274.399	-192.744	-0.304	-0.003
-273.384	-122.065	-0.259	-0.042
-272.370	-119.128	0.131	0.023
-271.355	-67.279	0.253	0.099
-270.340	-200.000	0.010	-0.172
-269.326	-90.439	-0.044	-0.013
-268.311	-65.175	-0.249	0.100
-267.297	303.004	0.031	-0.057
-266.282	-139.057	0.118	-0.013
-265.267	-25.920	0.301	-0.177
-264.253	-200.000	0.016	-0.253
-263.238	98.106	0.096	-0.110
-262.224	314.978	-0.122	0.229
-261.209	28.777	-0.286	0.242
-260.195	-119.112	0.192	0.033
-259.180	-52.079	0.135	0.062
-258.165	800.000	0.040	0.125
-257.151	131.516	-0.119	0.152
-256.136	778.661	-0.078	-0.212
-255.122	117.505	0.053	-0.065
-254.107	37.173	0.110	-0.097
-253.092	-20.061	0.190	-0.117
-252.078	800.000	0.029	0.094
-251.063	188.711	0.023	-0.034
-250.049	-200.000	-0.042	-0.437
-249.034	-117.311	-0.415	-0.075
-248.019	800.000	0.015	0.051
-247.005	58.300	0.071	-0.070
-245.990	-200.000	0.016	0.188
-244.976	-1.206	0.462	-0.325
-243.961	-58.548	-0.307	-0.133
-242.946	49.403	-0.182	-0.170
-241.932	-124.668	0.400	0.062
-240.917	737.415	-0.061	0.164
-239.903	545.509	0.096	0.228
-238.888	25.427	0.090	0.075
-237.873	173.525	0.073	-0.105
-236.859	229.741	0.079	-0.129
-235.844	-68.314	0.181	0.070
-234.830	233.702	-0.026	0.043
-233.815	376.498	-0.073	-0.149
-232.800	238.135	0.157	0.260
-231.786	-34.424	0.517	0.282
-230.771	-200.000	-0.022	0.099
-229.757	3.953	0.214	0.156
-228.742	-5.241	0.229	-0.157
-227.727	-115.813	-0.068	0.013
-226.713	-46.373	0.335	-0.164
-225.698	9.265	-0.152	-0.115
-224.684	162.378	0.199	0.278
-223.669	557.325	-0.083	-0.199
-222.655	-132.112	-0.074	-0.010
-221.640	-144.646	0.185	-0.017
-220.625	800.000	-0.055	0.221
-219.611	10.026	-0.026	0.020
-218.596	-32.705	0.298	-0.165
-217.582	800.000	-0.078	0.238
-216.567	413.449	-0.149	-0.316
-215.552	6.599	0.219	0.162
-214.538	292.848	0.121	0.220
-213.523	-51.787	-0.297	0.138
-212.509	0.504	-0.120	-0.085
-211.494	-4.506	-0.187	0.128
-210.479	-123.875	0.215	-0.034
-209.465	170.260	-0.062	0.088
-208.450	-0.577	0.362	-0.256
-207.436	22.529	0.174	-0.142
-206.421	166.484	0.179	0.252
-205.406	72.243	0.017	0.018
-204.392	-32.432	0.192	-0.106
-203.377	22.200	0.141	0.115
-202.363	-48.635	-0.138	0.066
-201.348	-159.063	-0.308	-0.017
-200.333	127.732	-0.114	0.145
-199.319	800.000	-0.109	0.356
-198.304	-200.000	-0.009	0.125
-197.290	800.000	0.034	0.138
-196.275	29.909	0.221	0.187
-195.260	-120.460	-0.207	0.035
-194.246	43.835	-0.119	0.108
-193.231	251.378	0.113	0.192
-192.217	-26.715	0.285	-0.166
-191.202	107.536	-0.052	-0.061
-190.187	-200.000	0.090	0.442
-189.173	-200.000	0.011	0.096
-188.158	25.539	0.258	0.214
-187.144	-169.616	0.126	-0.005
-186.129	256.897	0.165	-0.282
-185.114	-138.404	0.046	0.005
-184.100	800.000	-0.040	0.162
-183.085	-200.000	-0.026	0.414
-182.071	452.276	0.083	0.183
-181.056	-200.000	-0.020	0.292
-180.042	92.412	-0.179	0.200
-179.027	-110.716	0.036	0.007
-178.012	-16.503	-0.247	-0.156
-176.998	68.611	0.235	-0.240
-175.983	-200.000	0.027	0.163
-174.969	297.119	0.104	0.190
-173.954	122.450	0.171	-0.212
-172.939	-200.000	0.089	0.460
-171.925	-33.597	0.088	0.048
-170.910	51.602	0.328	-0.310
-169.896	-128.877	0.280	0.039
-168.881	123.624	0.137	0.171
-167.866	135.220	-0.115	-0.149
-166.852	-200.000	-0.068	0.375
-165.837	-89.809	0.083	-0.024
-164.823	5.917	-0.177	-0.130
-163.808	800.000	-0.043	0.171
-162.793	-200.000	-0.046	0.263
-161.779	800.000	-0.119	0.469
-160.764	-39.310	-0.251	0.131
-159.750	-12.042	0.266	0.173
-158.735	133.118	-0.036	0.047
-157.720	462.865	0.190	-0.421
-156.706	-94.883	0.345	-0.093
-155.691	-124.881	0.265	0.041
-154.677	-91.892	-0.189	0.053
-153.662	-160.591	-0.101	0.005
-152.647	370.663	0.034	0.068
-151.633	337.156	-0.113	0.219
-150.618	169.739	-0.152	0.216
-149.604	188.178	-0.107	0.159
-148.589	153.632	0.238	-0.324
-147.574	22.530	-0.151	0.122
-146.560	-104.521	0.102	0.024
-145.545	-95.071	-0.198	-0.053
-144.531	-98.342	0.331	-0.084
-143.516	-34.193	0.099	-0.054
-142.502	800.000	-0.057	-0.196
-141.487	-151.919	0.074	-0.005
-140.472	177.213	-0.086	-0.125
-139.458	-92.318	-0.294	0.082
-138.443	253.266	0.022	-0.038
-137.429	800.000	0.065	0.209
-136.414	-64.005	-0.271	-0.110
-135.399	267.752	0.106	-0.185
-134.385	-200.000	-0.057	0.430
-133.370	-200.000	-0.017	0.399
-132.356	-49.476	0.074	-0.035
-131.341	-168.241	-0.069	0.003
-130.326	-200.000	-0.011	-0.302
-129.312	40.973	-0.104	-0.093
-128.297	-200.000	-0.000	0.187
-127.283	102.775	0.180	0.209
-126.268	-200.000	0.012	-0.156
-125.253	121.997	-0.077	0.095
-124.239	-200.000	0.009	-0.150
-123.224	-103.623	0.599	-0.140
-122.210	-200.000	0.032	-0.198
-121.195	-29.467	-0.181	-0.103
-120.180	-59.947	-0.058	0.025
-119.166	-2.758	0.153	-0.106
-118.151	-143.102	0.248	-0.024
-117.137	80.398	-0.065	-0.070
-116.122	-200.000	0.026	-0.183
-115.107	247.374	-0.124	-0.208
-114.093	-102.657	-0.117	-0.028
-113.078	-55.871	0.283	0.125
-112.064	62.432	0.168	0.167
-111.049	62.889	0.215	0.213
-110.034	-200.000	0.007	-0.182
-109.020	-200.000	0.019	-0.324
-108.005	169.482	0.081	0.115
-106.991	-91.822	-0.114	-0.032
-105.976	-200.000	0.074	-0.352
-104.962	43.445	0.060	-0.054
-103.947	-200.000	0.026	0.217
-102.932	-74.851	-0.132	0.047
-101.918	-66.335	-0.262	0.103
-100.903	-163.188	0.427	0.020
-99.889	-200.000	-0.008	-0.494
-98.874	-2.433	0.104	0.073
-97.859	93.838	0.285	0.320
-96.845	16.628	-0.197	0.154
-95.830	-134.281	-0.223	-0.027
-94.816	26.849	0.053	-0.044
-93.801	-50.259	-0.167	-0.078
-92.786	-200.000	0.016	0.303
-91.772	259.598	-0.140	0.239
-90.757	-35.031	0.031	0.017
-89.743	748.538	0.098	0.262
-88.728	-143.252	0.044	-0.004
-87.713	-129.949	0.110	0.015
-86.699	-107.154	0.312	0.068
-85.684	607.136	-0.158	0.390
-84.670	331.717	-0.256	0.489
-83.655	-37.537	0.027	-0.014
-82.640	-200.000	-0.011	0.282
-81.626	-86.499	0.191	0.058
-80.611	-200.000	0.066	-0.297
-79.597	136.816	0.163	-0.210
-78.582	194.864	-0.081	0.122
-77.567	31.684	0.212	0.180
-76.553	800.000	0.103	0.296
-75.538	-200.000	0.044	0.329
-74.524	-16.349	-0.270	-0.170
-73.509	351.760	-0.048	0.094
-72.494	-46.333	0.065	-0.032
-71.480	100.114	-0.173	0.198
-70.465	229.333	-0.181	0.292
-69.451	-107.885	0.224	0.048
-68.436	769.010	0.032	-0.087
-67.422	315.912	-0.066	0.123
-66.407	800.000	0.072	-0.231
-65.392	-200.000	-0.039	-0.299
-64.378	-94.258	0.237	-0.064
-63.363	-200.000	0.019	-0.088
-62.349	76.371	0.187	-0.196
-61.334	74.707	-0.686	-0.715
-60.319	148.523	0.328	0.438
-59.305	800.000	-0.243	-0.709
-58.290	800.000	0.215	0.875
-57.276	800.000	0.506	1.651
-56.261	-200.000	84.376	493.944
-55.246	457.764	1390.697	3058.158
-54.232	144.684	2617.175	3460.341
-53.217	104.892	2357.947	2751.146
-52.203	46.401	1964.210	1802.220
-51.188	40.865	1750.214	1562.442
-50.173	38.111	1704.326	1500.295
-49.159	52.857	1744.618	1650.529
-48.144	56.565	1763.717	1697.335
-47.130	40.741	1723.866	1537.711
-46.115	37.652	1709.825	1501.355
-45.100	37.513	1705.313	1496.264
-44.086	37.532	1702.279	1493.691
-43.071	37.513	1699.691	1491.213
-42.057	37.474	1697.462	1488.901
-41.042	37.520	1694.899	1486.940
-40.027	37.479	1693.572	1485.409
-39.013	37.475	1691.115	1483.166
-37.998	37.525	1689.276	1481.869
-36.984	37.644	1687.985	1481.589
-35.969	37.660	1686.534	1480.375
-34.954	37.720	1684.622	1479.092
-33.940	37.676	1682.513	1476.850
-32.925	37.696	1681.331	1475.903
-31.911	37.709	1679.896	1474.689
-30.896	37.743	1677.483	1472.769
-29.881	37.733	1676.341	1471.629
-28.867	37.686	1674.605	1469.695
-27.852	37.722	1673.333	1468.787
-26.838	37.734	1671.441	1467.159
-25.823	37.746	1670.127	1466.040
-24.809	37.743	1668.861	1464.845
-23.794	37.695	1667.645	1463.360
-22.779	37.721	1665.779	1461.860
-21.765	37.722	1664.025	1460.273
-20.750	37.705	1662.319	1458.589
-19.736	37.658	1661.511	1457.467
-18.721	37.733	1660.057	1456.697
-17.706	37.701	1658.240	1454.807
-16.692	37.754	1656.291	1453.432
-15.677	37.750	1655.315	1452.489
-14.663	37.800	1654.189	1451.818
-13.648	37.742	1652.659	1449.981
-12.633	37.716	1650.806	1448.105
-11.619	37.769	1649.224	1447.058
-10.604	37.720	1647.542	1445.161
-9.590	37.801	1646.033	1444.378
-8.575	37.808	1645.009	1443.474
-7.560	37.702	1643.777	1441.555
-6.546	37.703	1642.415	1440.308
-5.531	37.746	1641.736	1439.977
-4.517	37.616	1640.573	1437.935
-3.502	37.746	1639.452	1437.859
-2.487	37.776	1637.546	1436.346
-1.473	37.768	1626.817	1426.826
-0.458	35.872	1607.733	1396.286
0.556	32.486	1608.695	1365.366
1.571	30.238	1633.506	1369.722
2.586	29.458	1647.768	1375.748
3.600	25.470	1590.497	1299.049
4.615	13.561	1471.146	1121.335
5.629	3.749	1398.913	1002.758
6.644	2.044	1389.525	984.941
7.659	1.948	1388.205	983.302
8.673	1.932	1386.813	982.127
9.688	1.756	1384.918	979.566
10.702	1.466	1382.560	975.948
11.717	5.340	1389.695	1005.869
12.731	16.343	1411.186	1092.895
13.746	24.773	1425.841	1159.018
14.761	26.471	1427.761	1171.480
15.775	26.666	1427.470	1172.406
16.790	26.745	1426.778	1172.245
17.804	26.811	1426.304	1172.173
18.819	26.857	1426.437	1172.479
19.834	27.040	1425.338	1172.652
20.848	27.074	1424.602	1172.164
21.863	27.064	1423.484	1171.075
22.877	27.152	1422.709	1170.904
23.892	27.062	1422.331	1169.904
24.907	27.042	1421.535	1169.018
25.921	27.117	1420.102	1168.220
26.936	27.143	1418.699	1167.132
27.950	27.080	1418.125	1166.152
28.965	27.029	1416.911	1164.723
29.980	27.049	1415.765	1163.805
30.994	27.065	1414.460	1162.730
32.009	27.091	1413.265	1161.815
33.023	27.000	1412.306	1160.338
34.038	27.116	1410.843	1159.773
35.053	27.114	1409.872	1158.861
36.067	26.969	1409.211	1157.294
37.082	27.100	1407.957	1156.996
38.096	27.047	1407.298	1156.011
39.111	27.103	1406.146	1155.318
40.126	27.041	1405.910	1154.628
41.140	26.934	1405.666	1153.646
42.155	27.106	1404.546	1153.720
43.169	27.125	1404.691	1153.852
44.184	26.989	1404.924	1153.081
45.199	27.030	1404.508	1152.897
46.213	27.143	1403.601	1152.766
47.228	27.112	1402.436	1151.510
48.242	27.020	1401.229	1149.840
49.257	27.019	1399.692	1148.466
50.271	27.041	1398.260	1147.329
51.286	27.056	1397.098	1146.368
52.301	26.946	1396.038	1144.706
53.315	27.009	1394.708	1143.908
54.330	27.097	1394.013	1143.795
55.344	26.982	1393.069	1142.192
56.359	27.145	1391.358	1141.713
57.374	27.053	1391.220	1140.919
58.388	27.091	1390.612	1140.558
59.403	26.969	1390.321	1139.454
60.417	27.154	1389.309	1139.686
61.432	27.078	1388.653	1138.570
62.447	27.040	1387.706	1137.456
63.461	27.029	1386.649	1136.419
64.476	27.083	1385.584	1135.782
65.490	27.154	1383.858	1134.708
66.505	27.038	1383.025	1133.207
67.520	27.049	1381.682	1132.074
68.534	27.043	1380.443	1130.920
69.549	26.994	1380.109	1130.237
70.563	27.009	1379.069	1129.385
71.578	27.061	1377.673	1128.459
72.593	27.017	1377.402	1127.868
73.607	27.167	1375.589	1127.214
74.622	27.015	1375.718	1126.273
75.636	27.127	1374.558	1125.920
76.651	27.061	1374.182	1125.107
77.666	27.002	1373.745	1124.282
78.680	26.978	1373.618	1123.930
79.695	27.036	1372.459	1123.243
80.709	27.062	1371.770	1122.741
81.724	27.066	1370.492	1121.615
82.739	27.035	1369.803	1120.763
83.753	27.053	1368.667	1119.846
84.768	27.040	1367.939	1119.072
85.782	27.083	1366.521	1118.074
86.797	27.079	1365.379	1117.021
87.812	27.073	1364.343	1116.034
88.826	27.075	1362.997	1114.847
89.841	27.097	1362.283	1114.297
90.855	27.131	1361.145	1113.479
91.870	27.103	1360.180	1112.418
92.884	27.107	1359.462	1111.758
93.899	27.156	1358.340	1111.043
94.914	27.110	1357.750	1110.178
95.928	27.050	1357.101	1109.186
96.943	27.149	1356.282	1109.019
97.957	27.100	1355.648	1108.107
98.972	27.132	1354.688	1107.419
99.987	27.154	1353.408	1106.409
101.001	27.125	1352.782	1105.624
102.016	27.009	1352.427	1104.526
103.030	27.083	1351.090	1103.787
104.045	27.024	1350.330	1102.712
105.060	27.094	1349.697	1102.524
106.074	27.130	1348.216	1101.435
107.089	27.227	1347.237	1101.124
108.103	27.125	1346.243	1099.597
109.118	27.204	1344.816	1098.810
110.133	27.232	1344.169	1098.351
111.147	27.210	1342.750	1096.963
112.162	27.205	1341.717	1095.995
113.176	27.264	1340.918	1095.598
114.191	27.172	1340.098	1094.276
115.206	27.170	1339.011	1093.281
116.220	27.147	1337.976	1092.204
117.235	27.145	1337.694	1091.865
118.249	27.150	1336.166	1090.546
119.264	27.118	1335.392	1089.626
120.279	27.145	1334.738	1089.162
121.293	27.222	1333.798	1088.758
122.308	27.221	1333.133	1088.115
123.322	27.203	1332.596	1087.469
124.337	27.070	1331.895	1086.008
125.352	27.328	1330.452	1086.278
126.366	27.317	1329.389	1085.248
127.381	27.298	1328.772	1084.532
128.395	27.175	1327.868	1082.963
129.410	27.209	1327.418	1082.704
130.424	27.200	1327.039	1082.245
131.439	27.227	1325.834	1081.327
132.454	27.175	1324.930	1080.187
133.468	27.217	1324.366	1079.883
134.483	27.281	1323.459	1079.426
135.497	27.244	1323.073	1078.796
136.512	27.270	1322.201	1078.142
137.527	27.304	1320.825	1077.127
138.541	27.210	1319.646	1075.516
139.556	27.222	1318.601	1074.639
140.570	27.173	1317.093	1073.025
141.585	27.257	1316.121	1072.637
142.600	27.268	1315.362	1071.985
143.614	27.197	1314.733	1070.963
144.629	27.261	1313.186	1069.979
145.643	27.143	1312.517	1068.650
146.658	27.085	1311.727	1067.569
147.673	27.107	1310.430	1066.551
148.687	27.149	1309.389	1065.854
149.702	27.157	1308.110	1064.765
150.716	27.147	1307.020	1063.725
151.731	27.278	1305.711	1063.332
152.746	27.165	1305.440	1062.358
153.760	27.220	1304.166	1061.543
154.775	27.170	1303.512	1060.628
155.789	27.220	1302.317	1059.855
156.804	27.261	1301.380	1059.235
157.819	27.215	1300.767	1058.375
158.833	27.165	1299.969	1057.342
159.848	27.254	1299.070	1057.034
160.862	27.215	1298.815	1056.506
161.877	27.236	1298.087	1055.944
162.892	27.351	1296.602	1055.307
163.906	27.338	1296.183	1054.798
164.921	27.234	1295.465	1053.517
165.935	27.229	1294.596	1052.687
166.950	27.261	1294.020	1052.312
167.964	27.337	1293.235	1052.021
168.979	27.312	1292.617	1051.283
169.994	27.267	1292.236	1050.621
171.008	27.368	1290.916	1050.034
172.023	27.351	1290.319	1049.361
173.037	27.313	1290.151	1048.912
174.052	27.309	1289.200	1048.023
175.067	27.300	1288.549	1047.345
176.081	27.336	1287.018	1046.215
177.096	27.290	1286.488	1045.429
178.110	27.340	1285.253	1044.619
179.125	27.337	1284.609	1043.988
180.140	27.317	1283.492	1042.870
181.154	27.382	1282.383	1042.253
182.169	27.331	1281.407	1041.075
183.183	27.295	1280.486	1040.026
184.198	27.318	1279.687	1039.417
185.213	27.305	1278.586	1038.358
186.227	27.399	1277.700	1038.081
187.242	27.376	1277.055	1037.337
188.256	27.381	1275.768	1036.229
189.271	27.456	1274.625	1035.631
190.286	27.419	1274.596	1035.307
191.300	27.356	1273.882	1034.278
192.315	27.386	1273.533	1034.075
193.329	27.432	1272.815	1033.662
194.344	27.538	1272.317	1033.765
195.359	27.430	1271.968	1032.776
196.373	27.389	1271.231	1031.853
197.388	27.339	1271.224	1031.473
198.402	27.378	1270.505	1031.021
199.417	27.403	1270.109	1030.750
200.432	27.464	1269.440	1030.460
201.446	27.500	1268.451	1029.773
202.461	27.433	1268.238	1029.130
203.475	27.470	1267.387	1028.554
204.490	27.481	1266.524	1027.826
205.504	27.471	1265.310	1026.692
206.519	27.426	1264.711	1025.863
207.534	27.426	1263.578	1024.852
208.548	27.501	1262.293	1024.143
209.563	27.435	1261.877	1023.345
210.577	27.526	1260.468	1022.618
211.592	27.547	1260.026	1022.291
212.607	27.494	1259.242	1021.264
213.621	27.507	1258.700	1020.809
214.636	27.604	1257.603	1020.371
215.650	27.547	1256.771	1019.285
216.665	27.532	1255.679	1018.231
217.680	27.624	1254.522	1017.713
218.694	27.592	1253.953	1016.981
219.709	27.541	1253.645	1016.360
220.723	27.626	1252.830	1016.082
221.738	27.552	1251.781	1014.730
222.753	27.394	1251.394	1013.447
223.767	27.507	1250.829	1013.530
224.782	27.719	1250.351	1014.229
225.796	27.643	1249.655	1013.153
226.811	27.619	1249.373	1012.701
227.826	27.675	1248.104	1011.895
228.840	27.617	1248.029	1011.422
229.855	27.574	1247.211	1010.434
230.869	27.705	1245.786	1009.913
231.884	27.682	1245.660	1009.596
232.899	27.650	1244.968	1008.764
233.913	27.562	1244.598	1007.891
234.928	27.692	1243.885	1007.945
235.942	27.704	1243.194	1007.362
236.957	27.687	1242.259	1006.419
237.972	27.669	1241.621	1005.714
238.986	27.719	1241.019	1005.413
240.001	27.688	1240.859	1005.026
241.015	27.778	1239.871	1004.628
242.030	27.776	1238.960	1003.789
243.045	27.791	1238.054	1003.053
244.059	27.780	1237.500	1002.455
245.074	27.873	1236.355	1001.946
246.088	27.888	1235.725	1001.431
247.103	27.821	1234.930	1000.331
248.117	27.777	1234.064	999.299
249.132	27.903	1233.146	999.159
250.147	27.925	1232.590	998.737
251.161	27.913	1231.983	998.090
252.176	27.928	1231.126	997.393
253.190	27.940	1230.618	996.957
254.205	27.851	1229.960	995.852
255.220	27.970	1229.200	995.796
256.234	27.901	1229.123	995.269
257.249	27.904	1228.018	994.304
258.263	27.881	1227.728	993.858
259.278	27.993	1226.687	993.531
260.293	27.977	1226.288	993.034
261.307	27.910	1226.007	992.357
262.322	27.906	1225.288	991.663
263.336	27.991	1224.430	991.341
264.351	27.922	1224.398	990.853
265.366	27.962	1223.266	990.067
266.380	27.918	1222.782	989.349
267.395	28.076	1221.552	989.124
268.409	27.929	1221.474	988.177
269.424	27.960	1220.829	987.733
270.439	27.862	1220.996	987.252
271.453	27.894	1219.973	986.513
272.468	27.918	1218.945	985.721
273.482	28.105	1217.778	985.699
274.497	28.037	1217.804	985.268
275.512	27.950	1217.476	984.443
276.526	28.129	1216.033	984.155
277.541	28.098	1215.542	983.504
278.555	28.063	1214.834	982.655
279.570	28.244	1213.901	982.784
280.585	28.065	1213.383	981.321
281.599	28.107	1212.490	980.733
282.614	28.064	1211.692	979.770
283.628	27.965	1211.058	978.642
284.643	28.069	1209.883	978.165
285.657	28.031	1209.227	977.343
286.672	28.060	1208.542	976.856
287.687	28.180	1207.295	976.406
288.701	28.106	1207.250	975.884
289.716	28.252	1206.141	975.684
290.730	28.181	1205.110	974.383
291.745	28.206	1204.643	974.051
292.760	28.183	1204.015	973.334
293.774	28.208	1203.949	973.327
294.789	28.232	1202.842	972.478
295.803	28.173	1202.455	971.763
296.818	28.226	1202.048	971.632
297.833	28.179	1201.385	970.759
298.847	28.226	1200.454	970.168
299.862	28.171	1199.789	969.254
300.876	28.312	1198.805	969.118
301.891	28.352	1198.335	968.869
302.906	28.373	1197.774	968.441
303.920	28.363	1197.185	967.823
304.935	28.373	1196.693	967.394
305.949	28.295	1195.801	966.177
306.964	28.343	1195.300	965.936
307.979	28.334	1194.998	965.559
308.993	28.275	1194.287	964.590
310.008	28.337	1193.475	964.177
311.022	28.413	1192.452	963.660
312.037	28.424	1191.315	962.715
313.052	28.336	1190.596	961.587
314.066	28.463	1189.690	961.435
315.081	28.323	1189.349	960.344
316.095	28.480	1188.414	960.326
317.110	28.364	1188.261	959.507
318.125	28.352	1187.882	959.058
319.139	28.380	1186.835	958.269
320.154	28.566	1185.473	958.058
321.168	28.443	1185.318	957.205
322.183	28.470	1184.721	956.781
323.197	28.447	1184.576	956.459
324.212	28.443	1183.630	955.588
325.227	28.424	1183.317	955.154
326.241	28.637	1182.292	955.351
327.256	28.648	1181.834	954.953
328.270	28.531	1181.145	953.704
329.285	28.580	1180.292	953.186
330.300	28.589	1179.271	952.323
331.314	28.495	1178.873	951.427
332.329	28.549	1177.737	950.707
333.343	28.551	1177.108	950.129
334.358	28.718	1176.014	950.024
335.373	28.711	1175.427	949.428
336.387	28.688	1175.139	948.992
337.402	28.624	1174.492	948.057
338.416	28.709	1173.456	947.573
339.431	28.733	1172.804	947.089
340.446	28.681	1172.610	946.579
341.460	28.764	1171.869	946.326
342.475	28.758	1170.779	945.331
343.489	28.826	1169.802	944.808
344.504	28.771	1169.018	943.809
345.519	28.760	1168.135	942.957
346.533	28.759	1167.641	942.468
347.548	28.651	1167.105	941.399
348.562	28.918	1166.174	941.932
349.577	28.697	1165.595	940.250
350.592	28.790	1164.387	939.666
351.606	28.750	1164.017	939.082
352.621	28.799	1163.354	938.716
353.635	28.808	1162.602	938.070
354.650	28.886	1161.913	937.827
355.665	28.935	1161.112	937.350
356.679	28.891	1161.040	936.981
357.694	28.867	1160.252	936.145
358.708	28.914	1159.550	935.735
359.723	28.849	1158.552	934.514
360.738	28.864	1158.043	934.099
361.752	28.823	1158.049	933.809
362.767	28.903	1157.063	933.339
363.781	28.947	1156.497	933.024
364.796	28.925	1155.952	932.388
365.810	28.985	1155.594	932.323
366.825	29.044	1154.782	931.881
367.840	29.044	1154.373	931.470
368.854	29.036	1153.474	930.621
369.869	29.066	1152.721	930.085
370.883	29.033	1152.264	929.468
371.898	28.983	1151.707	928.682
372.913	28.955	1151.071	927.949
373.927	29.028	1150.753	927.975
374.942	29.123	1150.001	927.765
375.956	29.186	1149.257	927.403
376.971	29.141	1148.610	926.569
377.986	29.112	1148.361	926.141
379.000	29.215	1147.571	925.939
380.015	29.279	1147.146	925.839
381.029	29.246	1146.203	924.829
382.044	29.103	1145.852	923.745
383.059	29.232	1145.078	923.685
384.073	29.281	1144.329	923.247
385.088	29.203	1143.416	922.035
386.102	29.233	1143.120	921.870
387.117	29.125	1142.187	920.493
388.132	29.308	1140.871	920.263
389.146	29.128	1140.612	919.075
390.161	29.211	1140.000	918.915
391.175	29.268	1139.202	918.474
392.190	29.278	1138.612	917.966
393.205	29.238	1137.857	917.078
394.219	29.301	1137.259	916.828
395.234	29.401	1136.271	916.450
396.248	29.340	1135.364	915.333
397.263	29.364	1134.468	914.648
398.278	29.329	1134.393	914.336
399.292	29.402	1133.402	913.816
400.307	29.447	1133.049	913.671
401.321	29.396	1132.534	912.925
402.336	29.390	1131.942	912.335
403.350	29.357	1130.861	911.221
404.365	29.453	1130.403	911.248
405.380	29.445	1129.399	910.318
406.394	29.439	1128.995	909.881
407.409	29.534	1128.019	909.482
408.423	29.516	1126.927	908.432
409.438	29.556	1126.563	908.255
410.453	29.607	1125.857	907.854
411.467	29.645	1125.192	907.429
412.482	29.542	1124.354	906.165
413.496	29.515	1123.847	905.545
414.511	29.617	1122.908	905.207
415.526	29.613	1122.574	904.837
416.540	29.616	1122.416	904.645
417.555	29.701	1121.904	904.566
418.569	29.666	1120.953	903.552
419.584	29.614	1121.064	903.307
420.599	29.740	1120.543	903.423
421.613	94.395	1313.295	1412.362
422.628	88.770	1341.374	1412.477
