DTS Sentinel unit serial number:	SN413079Multiplexer serial number:	ORYXHardware model number:	OX4-SRSoftware version number:	ORYX F/W v4.00 Oryx Data Collector v3.7.2.0data status	okinstallation	princeton_trtdifferential loss correction	single-endedforward channel	channel 2reverse channel	N/Adate	2019/09/15time	02:51:35forward acquisition time	60.00reverse acquisition time	0.00gamma	496.2192k internal	0.2326k external	0.2326temperature offset calibration	1.0034default loss term (dB/km)	0.3790temperature slope calibration	1.0000multiplexer offset coefficient	1.0000multiplexer slope coefficient	1.0000fibre end	0.00T internal ref (°C)	31.31T ext. ref 1 (°C)	4.57T ext. ref 2 (°C)	25.70length (m)	temperature (°C)	Stokes	anti-Stokes-747.200	800.000	0.021	0.065
-746.185	-40.406	-0.218	0.114
-745.171	-200.000	-0.006	0.044
-744.156	-159.163	-0.388	-0.022
-743.142	3.120	0.098	0.072
-742.127	14.468	-0.088	-0.070
-741.112	-88.504	0.247	-0.074
-740.098	-200.000	0.039	0.225
-739.083	-35.292	-0.124	-0.068
-738.069	85.027	-0.137	0.151
-737.054	-42.231	-0.229	-0.118
-736.039	312.120	0.149	-0.282
-735.025	247.704	-0.074	0.127
-734.010	182.661	0.225	0.335
-732.996	367.172	0.102	-0.207
-731.981	-76.055	-0.500	0.178
-730.966	-63.721	0.584	0.241
-729.952	-94.067	-0.240	-0.066
-728.937	204.761	-0.028	0.043
-727.923	-112.365	0.076	-0.015
-726.908	800.000	0.117	-0.347
-725.894	800.000	-0.024	-0.076
-724.879	-200.000	-0.022	-0.291
-723.864	232.652	0.035	-0.058
-722.850	-66.412	-0.028	-0.011
-721.835	-200.000	0.023	0.188
-720.821	682.084	0.071	0.187
-719.806	-200.000	0.019	0.230
-718.791	-200.000	0.008	-0.164
-717.777	-113.873	0.453	0.089
-716.762	-200.000	0.076	-0.475
-715.748	-200.000	0.035	0.273
-714.733	11.054	0.139	-0.107
-713.718	-25.297	-0.062	0.037
-712.704	-15.340	-0.225	-0.145
-711.689	188.902	-0.099	0.150
-710.675	427.213	-0.061	0.133
-709.660	800.000	-0.138	0.418
-708.645	-200.000	-0.031	0.313
-707.631	-32.876	0.085	-0.048
-706.616	-63.263	0.332	0.138
-705.602	50.007	-0.113	0.107
-704.587	195.112	-0.103	-0.157
-703.572	-200.000	-0.068	-0.318
-702.558	800.000	-0.095	-0.332
-701.543	24.704	0.415	0.346
-700.529	-200.000	0.021	-0.108
-699.514	-114.183	-0.075	-0.015
-698.499	-74.885	-0.466	0.168
-697.485	-200.000	0.002	-0.061
-696.470	-147.163	0.095	0.008
-695.456	-73.898	0.178	-0.065
-694.441	-152.850	-0.239	0.017
-693.426	-61.795	-0.267	-0.112
-692.412	-200.000	-0.007	-0.141
-691.397	-17.455	0.050	0.032
-690.383	-27.450	-0.215	-0.126
-689.368	800.000	-0.085	0.258
-688.354	266.051	-0.203	0.357
-687.339	419.292	0.060	0.129
-686.324	149.998	-0.042	0.058
-685.310	-114.465	-0.084	-0.016
-684.295	-200.000	-0.043	0.286
-683.281	-200.000	0.060	-0.447
-682.266	353.322	-0.021	-0.042
-681.251	-99.976	-0.243	0.061
-680.237	-57.078	-0.340	-0.151
-679.222	243.129	-0.234	-0.395
-678.208	16.185	-0.057	0.045
-677.193	-200.000	0.033	0.188
-676.178	-46.836	-0.269	0.132
-675.164	292.482	0.092	-0.169
-674.149	239.048	0.105	-0.176
-673.135	85.422	0.151	-0.167
-672.120	-33.806	0.159	0.088
-671.105	-200.000	-0.047	-0.221
-670.091	-200.000	0.016	-0.276
-669.076	184.823	-0.139	-0.207
-668.062	-127.166	0.121	0.018
-667.047	215.683	-0.031	0.049
-666.032	45.023	0.152	0.140
-665.018	800.000	0.033	0.091
-664.003	25.856	-0.376	0.315
-662.989	-27.783	-0.240	0.140
-661.974	800.000	0.064	0.223
-660.959	-200.000	-0.041	-0.201
-659.945	800.000	-0.090	-0.368
-658.930	115.449	-0.007	0.009
-657.916	-68.188	-0.217	-0.085
-656.901	77.700	0.192	-0.206
-655.886	-115.594	0.283	0.053
-654.872	296.015	0.275	0.506
-653.857	-200.000	0.036	0.203
-652.843	800.000	0.012	-0.035
-651.828	-3.712	-0.224	-0.157
-650.814	17.109	0.114	0.091
-649.799	29.408	-0.151	0.129
-648.784	800.000	0.079	-0.291
-647.770	-10.692	-0.276	-0.183
-646.755	-20.166	-0.133	-0.082
-645.741	40.271	0.169	0.153
-644.726	-200.000	0.001	0.150
-643.711	-200.000	-0.022	0.099
-642.697	48.658	0.147	-0.138
-641.682	-200.000	-0.053	-0.308
-640.668	194.316	-0.103	-0.157
-639.653	-15.553	-0.126	-0.081
-638.638	630.520	0.123	-0.312
-637.624	188.272	0.004	-0.007
-636.609	147.553	0.244	0.330
-635.595	761.251	0.150	0.409
-634.580	-200.000	0.025	0.486
-633.565	84.692	-0.049	0.054
-632.551	-62.149	-0.140	-0.059
-631.536	46.411	0.117	0.109
-630.522	-69.721	0.306	-0.117
-629.507	800.000	-0.071	0.261
-628.492	-200.000	0.013	-0.098
-627.478	-184.238	-0.304	-0.005
-626.463	35.532	-0.150	0.132
-625.449	128.090	-0.120	0.153
-624.434	-49.215	0.074	0.036
-623.419	62.770	0.270	0.271
-622.405	-144.497	0.351	-0.033
-621.390	128.106	-0.201	-0.256
-620.376	-200.000	-0.017	0.184
-619.361	237.733	-0.017	0.029
-618.346	647.002	0.107	0.274
-617.332	194.091	0.215	-0.327
-616.317	82.497	-0.162	-0.177
-615.303	321.156	0.095	-0.181
-614.288	85.612	-0.247	-0.272
-613.273	-145.011	0.266	-0.024
-612.259	170.406	-0.041	0.059
-611.244	-11.609	0.285	0.188
-610.230	-143.554	0.123	-0.012
-609.215	-200.000	0.032	0.175
-608.201	-200.000	0.007	0.146
-607.186	431.588	0.141	-0.306
-606.171	-112.121	-0.334	0.067
-605.157	-44.961	-0.138	0.069
-604.142	-77.737	-0.095	-0.033
-603.128	-200.000	-0.047	-0.234
-602.113	393.222	-0.110	-0.229
-601.098	290.171	0.231	0.420
-600.084	-150.142	-0.217	0.017
-599.069	800.000	0.110	-0.325
-598.055	-200.000	0.021	-0.102
-597.040	-69.919	-0.437	0.167
-596.025	-200.000	0.035	0.423
-595.011	-6.069	0.164	-0.112
-593.996	85.296	-0.024	-0.026
-592.982	614.572	0.074	-0.187
-591.967	-108.027	-0.359	0.078
-590.952	16.914	-0.075	-0.059
-589.938	-46.978	0.334	0.164
-588.923	145.487	-0.215	-0.288
-587.909	-65.702	-0.151	0.061
-586.894	-54.008	-0.068	-0.031
-585.879	-121.384	0.278	0.046
-584.865	317.009	0.255	-0.482
-583.850	-200.000	0.031	-0.426
-582.836	31.147	0.085	0.073
-581.821	131.242	-0.048	0.062
-580.806	-119.891	-0.218	0.038
-579.792	115.016	-0.277	-0.339
-578.777	412.842	0.147	0.313
-577.763	-200.000	0.003	0.318
-576.748	429.146	0.066	-0.144
-575.733	-38.080	0.328	0.174
-574.719	111.529	0.028	0.034
-573.704	2.538	0.150	0.109
-572.690	-122.706	-0.342	-0.055
-571.675	800.000	0.110	-0.318
-570.661	-200.000	0.024	0.159
-569.646	-200.000	0.052	0.272
-568.631	2.350	-0.178	-0.129
-567.617	225.298	0.114	0.184
-566.602	476.996	-0.057	0.130
-565.588	-43.711	-0.220	-0.111
-564.573	41.291	-0.174	0.158
-563.558	-96.850	0.264	0.070
-562.544	117.659	-0.120	0.148
-561.529	-91.623	-0.150	-0.043
-560.515	6.473	0.330	-0.246
-559.500	-150.822	0.223	0.017
-558.485	-82.140	-0.336	-0.110
-557.471	-200.000	-0.031	-0.150
-556.456	-200.000	-0.001	0.020
-555.442	20.873	0.203	-0.165
-554.427	102.915	-0.308	-0.361
-553.412	-102.318	-0.227	0.054
-552.398	-200.000	-0.009	-0.122
-551.383	-159.470	-0.418	0.023
-550.369	-200.000	0.023	0.141
-549.354	280.958	-0.107	0.191
-548.339	800.000	0.099	-0.432
-547.325	170.007	-0.050	-0.071
-546.310	-200.000	-0.004	-0.061
-545.296	-200.000	-0.011	0.233
-544.281	56.832	0.120	-0.117
-543.266	-1.401	0.210	0.148
-542.252	213.146	0.183	0.289
-541.237	-119.433	-0.144	0.025
-540.223	457.375	0.078	0.174
-539.208	-200.000	-0.012	-0.109
-538.193	103.496	-0.147	-0.172
-537.179	503.147	-0.042	0.097
-536.164	488.900	-0.041	0.093
-535.150	94.689	0.078	0.089
-534.135	-132.859	-0.059	-0.008
-533.121	-101.394	-0.180	-0.044
-532.106	60.409	0.005	-0.005
-531.091	-77.684	0.033	-0.011
-530.077	26.676	-0.114	0.095
-529.062	343.962	0.198	0.388
-528.048	-200.000	-0.002	0.435
-527.033	-77.366	0.173	0.060
-526.018	-59.553	0.146	0.063
-525.004	161.096	0.098	-0.137
-523.989	-200.000	-0.040	-0.332
-522.975	800.000	-0.068	-0.220
-521.960	-80.627	0.135	0.045
-520.945	-200.000	0.026	0.145
-519.931	-121.965	0.140	0.023
-518.916	165.878	0.162	-0.229
-517.902	82.994	-0.195	-0.212
-516.887	800.000	0.067	-0.189
-515.872	-200.000	0.034	-0.227
-514.858	-7.851	-0.208	-0.140
-513.843	-58.458	-0.134	-0.058
-512.829	-200.000	-0.002	-0.176
-511.814	800.000	0.092	-0.326
-510.799	214.760	0.093	-0.147
-509.785	73.813	-0.159	0.166
-508.770	35.138	-0.327	0.286
-507.756	309.304	0.050	-0.094
-506.741	-108.040	-0.113	-0.024
-505.726	-104.757	-0.068	0.016
-504.712	-85.074	-0.133	-0.042
-503.697	-167.993	-0.285	-0.011
-502.683	118.154	0.248	-0.305
-501.668	721.427	0.056	-0.150
-500.653	-200.000	-0.023	-0.320
-499.639	112.159	-0.202	-0.244
-498.624	-46.256	0.150	-0.074
-497.610	144.187	-0.157	0.210
-496.595	22.889	0.045	0.037
-495.581	487.927	0.097	0.222
-494.566	-43.483	0.307	-0.155
-493.551	78.613	-0.182	-0.194
-492.537	0.706	0.078	-0.056
-491.522	-135.063	0.089	0.011
-490.508	-81.237	-0.259	-0.086
-489.493	453.062	-0.104	-0.229
-488.478	415.514	-0.105	-0.224
-487.464	350.518	-0.079	0.156
-486.449	-200.000	0.004	-0.109
-485.435	800.000	-0.062	0.181
-484.420	-89.483	-0.192	0.056
-483.405	-200.000	0.010	0.047
-482.391	800.000	0.013	0.050
-481.376	-147.667	0.318	-0.027
-480.362	-57.995	-0.117	0.051
-479.347	-36.772	0.100	0.054
-478.332	-55.897	0.242	0.108
-477.318	-142.842	-0.252	-0.024
-476.303	-42.097	-0.327	-0.167
-475.289	-58.082	0.125	-0.055
-474.274	-137.597	0.113	-0.013
-473.259	-187.280	-0.230	-0.003
-472.245	24.147	-0.182	-0.150
-471.230	-67.057	0.354	-0.139
-470.216	-200.000	0.047	-0.264
-469.201	526.475	-0.118	-0.277
-468.186	10.286	-0.208	0.158
-467.172	43.085	-0.081	0.073
-466.157	800.000	-0.020	-0.059
-465.143	-200.000	-0.010	-0.193
-464.128	-132.578	0.139	-0.018
-463.113	-63.311	0.100	0.041
-462.099	496.773	0.033	0.077
-461.084	75.918	0.091	0.096
-460.070	-105.396	-0.271	0.062
-459.055	-177.531	0.414	0.010
-458.040	-121.514	-0.050	-0.008
-457.026	-108.035	0.153	0.033
-456.011	800.000	0.049	-0.182
-454.997	-82.957	-0.041	0.013
-453.982	-200.000	0.046	-0.204
-452.968	-42.627	-0.348	-0.177
-451.953	800.000	-0.035	-0.137
-450.938	503.502	-0.085	-0.196
-449.924	2.500	0.239	0.173
-448.909	-140.130	0.154	0.016
-447.895	438.908	-0.100	0.217
-446.880	21.029	0.193	-0.156
-445.865	0.020	-0.150	0.107
-444.851	7.421	-0.245	0.183
-443.836	747.609	-0.059	0.158
-442.822	800.000	0.039	-0.116
-441.807	220.209	0.042	0.067
-440.792	-200.000	-0.010	-0.252
-439.778	67.362	0.144	-0.147
-438.763	800.000	-0.046	0.187
-437.749	-61.386	0.338	0.142
-436.734	116.774	0.264	-0.323
-435.719	-200.000	-0.005	0.037
-434.705	279.081	-0.236	0.420
-433.690	-46.461	0.202	-0.099
-432.676	-86.997	-0.083	-0.025
-431.661	-142.235	0.257	0.025
-430.646	-200.000	-0.023	0.287
-429.632	-200.000	0.032	-0.381
-428.617	180.434	0.088	0.128
-427.603	-119.497	0.293	-0.051
-426.588	-7.056	-0.131	-0.089
-425.573	-76.975	0.107	-0.037
-424.559	800.000	-0.037	-0.113
-423.544	7.517	0.134	-0.100
-422.530	-200.000	0.063	-0.279
-421.515	332.959	-0.082	0.157
-420.500	-9.677	0.162	-0.107
-419.486	-78.182	-0.316	-0.108
-418.471	-102.574	0.262	0.062
-417.457	87.914	-0.130	-0.144
-416.442	800.000	0.074	0.224
-415.428	-92.258	-0.173	-0.049
-414.413	44.513	0.096	0.088
-413.398	772.821	-0.037	0.102
-412.384	203.904	0.087	-0.134
-411.369	-200.000	-0.005	0.096
-410.355	800.000	0.015	-0.055
-409.340	39.737	0.282	0.252
-408.325	-77.973	0.259	0.089
-407.311	521.607	-0.147	-0.344
-406.296	-56.118	-0.481	0.213
-405.282	-89.097	-0.113	0.033
-404.267	226.255	-0.223	0.360
-403.252	-40.891	-0.121	0.062
-402.238	-200.000	-0.004	0.187
-401.223	-177.801	-0.086	-0.002
-400.209	-89.897	-0.094	-0.027
-399.194	46.645	-0.064	-0.059
-398.179	800.000	0.047	0.143
-397.165	59.583	-0.197	-0.194
-396.150	-200.000	-0.008	-0.141
-395.136	-200.000	0.039	0.348
-394.121	-200.000	-0.011	0.080
-393.106	-200.000	0.034	0.223
-392.092	-78.951	-0.469	0.159
-391.077	800.000	0.087	0.252
-390.063	-22.562	0.120	-0.072
-389.048	-41.673	-0.218	-0.111
-388.033	9.024	-0.328	0.246
-387.019	800.000	0.031	-0.086
-386.004	72.492	-0.161	-0.167
-384.990	791.693	-0.035	0.096
-383.975	-115.114	0.027	0.005
-382.960	800.000	0.081	0.241
-381.946	269.538	-0.031	0.054
-380.931	-200.000	-0.021	-0.174
-379.917	38.373	0.268	0.238
-378.902	116.333	-0.124	0.151
-377.888	146.381	0.162	0.216
-376.873	44.730	0.066	0.061
-375.858	-148.360	-0.209	0.017
-374.844	93.946	-0.216	-0.243
-373.829	56.970	0.083	-0.080
-372.815	-200.000	-0.018	0.301
-371.800	-84.962	0.132	0.041
-370.785	55.894	0.125	0.121
-369.771	625.794	-0.069	0.173
-368.756	-62.612	0.383	0.158
-367.742	191.369	-0.089	0.133
-366.727	-169.407	-0.073	-0.003
-365.712	-200.000	-0.037	0.175
-364.698	-14.198	0.145	-0.093
-363.683	-126.504	0.243	-0.036
-362.669	617.285	0.123	-0.306
-361.654	-68.320	0.175	-0.068
-360.639	325.628	-0.074	0.141
-359.625	800.000	0.036	0.124
-358.610	800.000	-0.123	0.429
-357.596	-80.091	-0.374	0.124
-356.581	-158.211	0.133	0.008
-355.566	-119.558	0.103	-0.018
-354.552	-70.907	-0.198	-0.074
-353.537	10.648	0.099	0.075
-352.523	-44.379	0.182	0.091
-351.508	-200.000	-0.047	0.300
-350.493	27.793	-0.218	0.182
-349.479	-184.908	0.179	0.003
-348.464	721.141	-0.104	0.274
-347.450	97.422	0.125	0.143
-346.435	800.000	0.123	0.348
-345.420	800.000	0.035	-0.128
-344.406	-104.278	0.169	0.039
-343.391	-200.000	-0.009	-0.236
-342.377	9.177	0.086	-0.065
-341.362	-16.926	0.045	0.028
-340.348	-98.626	0.171	-0.043
-339.333	301.714	-0.071	-0.129
-338.318	139.875	0.301	-0.394
-337.304	415.924	0.007	0.015
-336.289	-60.554	-0.378	0.159
-335.275	169.209	-0.079	-0.113
-334.260	-91.034	-0.123	0.035
-333.245	55.020	0.127	-0.122
-332.231	216.446	0.172	0.271
-331.216	-118.665	-0.062	-0.011
-330.202	-121.955	-0.133	-0.022
-329.187	238.586	-0.168	0.276
-328.172	-72.144	-0.152	0.056
-327.158	-200.000	-0.322	-0.001
-326.143	-200.000	0.006	0.044
-325.129	262.040	-0.054	0.093
-324.114	377.422	0.082	0.166
-323.099	-200.000	-0.010	0.254
-322.085	-180.380	0.208	-0.004
-321.070	168.632	-0.132	-0.187
-320.056	290.024	-0.091	-0.164
-319.041	257.351	0.065	0.111
-318.026	-120.185	-0.304	0.051
-317.012	800.000	-0.041	0.134
-315.997	128.186	0.208	-0.262
-314.983	7.650	0.156	0.116
-313.968	32.273	-0.048	-0.041
-312.953	-175.724	0.350	-0.009
-311.939	-91.939	0.125	0.035
-310.924	-118.172	0.136	0.024
-309.910	-49.243	0.287	-0.136
-308.895	-63.246	0.300	-0.122
-307.880	-72.887	0.121	-0.044
-306.866	-86.375	-0.072	0.022
-305.851	-200.000	-0.020	-0.169
-304.837	-52.014	-0.101	-0.047
-303.822	-200.000	0.013	0.179
-302.807	-58.206	-0.273	0.118
-301.793	25.910	-0.124	-0.102
-300.778	-46.608	0.155	0.075
-299.764	-15.992	0.177	0.112
-298.749	800.000	-0.128	0.536
-297.735	-65.981	-0.226	0.090
-296.720	1.466	0.135	0.096
-295.705	13.796	-0.221	0.170
-294.691	57.862	0.140	-0.135
-293.676	-7.627	0.090	-0.060
-292.662	-100.806	0.291	-0.071
-291.647	800.000	-0.114	0.417
-290.632	-98.658	0.306	-0.077
-289.618	-200.000	-0.020	0.222
-288.603	224.382	-0.082	-0.132
-287.589	-87.261	-0.269	0.081
-286.574	-40.833	0.102	-0.052
-285.559	-200.000	-0.024	-0.122
-284.545	-200.000	-0.004	-0.045
-283.530	-126.748	0.163	-0.024
-282.516	616.569	-0.103	-0.256
-281.501	-47.109	0.183	0.088
-280.486	-130.724	-0.080	0.011
-279.472	38.267	0.105	0.092
-278.457	-49.896	0.214	0.101
-277.443	-200.000	0.013	0.248
-276.428	-77.460	-0.101	0.035
-275.413	-16.138	0.134	-0.084
-274.399	-200.000	0.003	0.030
-273.384	-114.147	-0.217	0.042
-272.370	800.000	-0.111	-0.474
-271.355	-12.876	-0.052	0.034
-270.340	-165.661	-0.228	0.010
-269.326	-189.719	-0.340	-0.004
-268.311	9.212	0.135	-0.101
-267.297	68.398	0.077	-0.078
-266.282	-0.527	0.203	0.143
-265.267	116.499	0.140	-0.170
-264.253	-59.174	0.088	0.038
-263.238	-12.964	0.146	0.094
-262.224	-98.482	0.275	-0.070
-261.209	-200.000	0.010	0.169
-260.195	800.000	-0.052	0.193
-259.180	135.637	0.174	-0.224
-258.165	-19.878	0.272	-0.166
-257.151	-73.977	-0.250	-0.090
-256.136	-200.000	-0.021	-0.216
-255.122	-74.843	-0.084	-0.030
-254.107	431.236	0.046	0.098
-253.092	-200.000	-0.078	-0.487
-252.078	193.560	0.161	0.241
-251.063	-200.000	-0.039	0.405
-250.049	-200.000	-0.017	0.000
-249.034	-116.048	0.125	-0.023
-248.019	-9.741	-0.099	0.065
-247.005	800.000	0.035	0.136
-245.990	97.635	-0.157	-0.179
-244.976	46.566	0.129	-0.119
-243.961	-200.000	0.009	0.067
-242.946	92.990	0.236	-0.264
-241.932	117.837	-0.284	0.346
-240.917	407.336	-0.115	0.240
-239.903	800.000	0.046	-0.170
-238.888	187.928	-0.182	0.269
-237.873	-40.155	-0.208	0.107
-236.859	800.000	0.020	-0.087
-235.844	-141.056	0.319	-0.032
-234.830	800.000	0.098	0.300
-233.815	30.390	-0.149	-0.126
-232.800	57.989	-0.105	0.102
-231.786	79.599	0.268	-0.285
-230.771	367.239	0.101	-0.203
-229.757	-94.092	-0.232	0.063
-228.742	-87.612	-0.060	-0.018
-227.727	153.221	-0.085	0.114
-226.713	-200.000	-0.064	-0.380
-225.698	-8.486	-0.113	-0.075
-224.684	50.417	0.207	-0.193
-223.669	27.648	0.045	0.038
-222.655	125.860	0.311	-0.388
-221.640	22.266	0.210	-0.169
-220.625	193.926	-0.319	-0.477
-219.611	297.021	-0.143	-0.259
-218.596	-125.141	0.118	-0.018
-217.582	-35.907	0.185	-0.099
-216.567	37.533	0.223	-0.195
-215.552	-0.898	0.132	-0.093
-214.538	-52.808	-0.081	0.037
-213.523	-200.000	-0.011	0.114
-212.509	800.000	0.033	0.090
-211.494	-200.000	0.023	0.160
-210.479	-200.000	0.042	-0.192
-209.465	490.396	-0.084	-0.190
-208.450	161.692	-0.028	0.039
-207.436	31.872	-0.033	0.028
-206.421	-34.270	-0.147	0.079
-205.406	172.445	0.259	-0.369
-204.392	-200.000	-0.021	0.102
-203.377	73.619	0.269	-0.278
-202.363	220.383	-0.152	-0.241
-201.348	113.720	0.274	0.329
-200.333	306.226	-0.022	0.041
-199.319	287.205	-0.117	0.210
-198.304	-56.553	0.235	0.103
-197.290	-178.394	-0.181	0.004
-196.275	734.111	0.150	0.396
-195.260	800.000	0.064	0.184
-194.246	-200.000	-0.044	-0.203
-193.231	83.594	-0.177	-0.191
-192.217	50.243	-0.087	-0.081
-191.202	800.000	-0.068	-0.239
-190.187	-136.365	0.103	0.012
-189.173	-77.597	-0.071	0.024
-188.158	-164.314	-0.334	0.015
-187.144	-127.145	-0.259	0.037
-186.129	191.948	0.227	0.338
-185.114	83.418	0.249	0.268
-184.100	-40.727	-0.146	-0.074
-183.085	-56.743	0.042	-0.019
-182.071	67.868	0.255	-0.258
-181.056	89.157	-0.078	0.086
-180.042	-79.739	0.162	0.054
-179.027	-200.000	-0.013	0.264
-178.012	7.810	0.109	0.081
-176.998	-200.000	0.029	-0.166
-175.983	136.919	0.127	0.164
-174.969	-114.928	-0.123	0.023
-173.954	-42.927	-0.300	-0.150
-172.939	-182.533	0.172	0.003
-171.925	212.313	-0.146	0.228
-170.910	96.218	0.174	0.196
-169.896	90.695	-0.160	-0.177
-168.881	800.000	-0.034	0.095
-167.866	-200.000	-0.017	-0.306
-166.852	-3.855	-0.046	-0.031
-165.837	129.434	-0.081	-0.102
-164.823	40.995	0.205	-0.182
-163.808	216.006	0.141	0.221
-162.793	-139.489	0.315	-0.033
-161.779	544.924	-0.041	0.096
-160.764	-9.655	-0.246	-0.161
-159.750	50.735	-0.102	-0.095
-158.735	-9.306	-0.120	0.079
-157.720	-60.335	-0.365	0.153
-156.706	-196.068	-0.129	0.001
-155.691	-154.952	0.155	-0.010
-154.677	86.098	-0.161	0.174
-153.662	-85.349	-0.210	0.065
-152.647	-41.729	-0.362	-0.183
-151.633	-200.000	-0.041	-0.274
-150.618	-54.368	-0.323	0.144
-149.604	-79.143	0.337	-0.113
-148.589	-107.566	-0.258	0.056
-147.574	-111.217	-0.282	-0.057
-146.560	-17.547	-0.089	-0.055
-145.545	38.752	-0.193	0.170
-144.531	-156.174	0.076	-0.005
-143.516	-75.395	-0.112	0.039
-142.502	-115.713	-0.206	-0.038
-141.487	47.529	0.130	0.119
-140.472	55.013	0.277	0.263
-139.458	-200.000	0.017	0.112
-138.443	800.000	-0.049	-0.160
-137.429	48.808	0.337	0.311
-136.414	-94.306	-0.404	0.109
-135.399	-22.515	0.310	0.184
-134.385	-200.000	-0.002	-0.129
-133.370	109.778	-0.144	-0.171
-132.356	13.528	0.292	0.223
-131.341	400.115	-0.063	0.130
-130.326	14.092	-0.114	-0.087
-129.312	800.000	0.039	0.158
-128.297	-113.195	-0.077	-0.015
-127.283	238.228	-0.238	-0.390
-126.268	-65.499	-0.075	-0.030
-125.253	-200.000	-0.018	0.136
-124.239	800.000	0.069	-0.230
-123.224	-200.000	0.007	-0.113
-122.210	-27.350	0.193	-0.110
-121.195	-77.573	-0.153	-0.052
-120.180	495.277	0.082	-0.187
-119.166	-61.644	-0.063	-0.026
-118.151	-128.653	0.109	0.015
-117.137	-200.000	0.006	-0.111
-116.122	36.633	-0.164	0.143
-115.107	150.961	-0.187	0.251
-114.093	-200.000	0.058	-0.284
-113.078	438.230	0.017	-0.035
-112.064	70.787	-0.215	-0.219
-111.049	-119.271	-0.160	-0.027
-110.034	-200.000	0.021	-0.143
-109.020	256.216	-0.181	-0.306
-108.005	-200.000	0.010	-0.190
-106.991	-51.675	0.306	0.140
-105.976	-129.194	-0.416	-0.057
-104.962	191.568	-0.091	-0.135
-103.947	-83.203	0.018	-0.006
-102.932	-71.946	-0.281	0.103
-101.918	-133.019	0.268	0.034
-100.903	-61.947	0.261	-0.107
-99.889	94.325	-0.076	0.085
-98.874	161.877	-0.188	0.258
-97.859	79.207	0.326	0.344
-96.845	-57.742	-0.260	-0.112
-95.830	800.000	-0.090	-0.295
-94.816	-200.000	-0.029	-0.310
-93.801	692.769	-0.070	0.180
-92.786	745.851	-0.053	0.140
-91.772	70.829	0.038	0.039
-90.757	-173.483	0.200	0.006
-89.743	72.996	-0.094	-0.096
-88.728	68.306	-0.250	-0.252
-87.713	-200.000	-0.034	0.149
-86.699	-106.223	0.219	-0.048
-85.684	135.524	-0.129	0.165
-84.670	800.000	0.078	-0.255
-83.655	569.731	0.094	0.225
-82.640	-151.102	-0.165	0.012
-81.626	-200.000	-0.059	-0.416
-80.611	-105.709	-0.205	0.046
-79.597	-200.000	-0.002	-0.154
-78.582	148.467	-0.186	0.247
-77.567	113.001	-0.106	-0.127
-76.553	-156.334	-0.248	-0.015
-75.538	-61.799	0.071	0.029
-74.524	362.055	-0.220	0.433
-73.509	282.106	0.038	0.067
-72.494	185.630	-0.136	0.199
-71.480	175.895	0.047	-0.067
-70.465	46.119	-0.098	-0.089
-69.451	566.796	-0.131	0.311
-68.436	-200.000	-0.006	-0.049
-67.422	-200.000	-0.036	0.171
-66.407	581.754	0.137	0.331
-65.392	-81.578	0.194	-0.063
-64.378	-173.143	0.300	-0.009
-63.363	215.143	-0.111	0.174
-62.349	-11.995	-0.101	0.065
-61.334	25.204	-0.932	-0.760
-60.319	18.903	0.319	0.251
-59.305	558.334	-0.310	-0.734
-58.290	381.576	0.603	1.215
-57.276	469.238	0.637	1.406
-56.261	-200.000	99.454	608.299
-55.246	605.070	1402.150	3428.664
-54.232	192.561	2592.574	3843.158
-53.217	112.888	2272.531	2703.617
-52.203	40.780	1895.702	1678.659
-51.188	34.635	1684.405	1445.158
-50.173	31.948	1640.947	1387.971
-49.159	50.263	1689.971	1567.284
-48.144	51.647	1706.122	1592.580
-47.130	34.149	1665.948	1425.459
-46.115	31.458	1651.623	1393.127
-45.100	31.252	1646.583	1387.287
-44.086	31.273	1643.949	1385.173
-43.071	31.271	1641.692	1383.199
-42.057	31.159	1639.375	1380.364
-41.042	31.245	1636.909	1378.872
-40.027	31.268	1635.588	1377.869
-39.013	31.174	1633.218	1375.125
-37.998	31.105	1631.964	1373.513
-36.984	31.196	1630.555	1372.941
-35.969	31.343	1628.503	1372.236
-34.954	31.311	1627.889	1371.427
-33.940	31.248	1625.575	1368.963
-32.925	31.333	1623.724	1367.972
-31.911	31.256	1622.510	1366.333
-30.896	31.240	1620.673	1364.614
-29.881	31.211	1619.194	1363.099
-28.867	31.350	1616.912	1362.143
-27.852	31.318	1615.865	1360.974
-26.838	31.252	1614.167	1359.006
-25.823	31.322	1612.886	1358.382
-24.809	31.299	1611.628	1357.100
-23.794	31.371	1610.203	1356.369
-22.779	31.338	1608.727	1354.833
-21.765	31.306	1607.370	1353.409
-20.750	31.361	1605.236	1351.955
-19.736	31.334	1604.156	1350.799
-18.721	31.416	1602.420	1349.876
-17.706	31.343	1601.014	1348.109
-16.692	31.285	1599.840	1346.652
-15.677	31.304	1598.290	1345.426
-14.663	31.422	1597.155	1345.270
-13.648	31.466	1595.767	1344.361
-12.633	31.316	1594.571	1342.221
-11.619	31.390	1592.811	1341.217
-10.604	31.354	1590.958	1339.351
-9.590	31.355	1589.831	1338.352
-8.575	31.423	1588.641	1337.782
-7.560	31.358	1587.429	1336.247
-6.546	31.363	1586.546	1335.484
-5.531	31.402	1585.331	1334.687
-4.517	31.450	1583.900	1333.771
-3.502	31.351	1583.029	1332.278
-2.487	31.424	1581.510	1331.472
-1.473	31.115	1569.566	1319.174
-0.458	28.160	1549.966	1281.981
0.556	23.937	1549.767	1249.794
1.571	21.362	1573.285	1250.262
2.586	21.083	1585.307	1257.686
3.600	18.655	1532.509	1198.753
4.615	11.483	1426.033	1068.584
5.629	5.565	1365.189	985.727
6.644	4.677	1358.615	975.330
7.659	4.517	1356.409	972.660
8.673	4.469	1355.360	971.519
9.688	4.607	1353.714	971.119
10.702	4.441	1350.732	967.855
11.717	7.216	1356.258	989.077
12.731	14.149	1368.821	1041.706
13.746	18.848	1376.017	1076.601
14.761	18.782	1374.570	1074.961
15.775	17.791	1371.788	1066.495
16.790	16.804	1369.483	1058.445
17.804	15.912	1366.708	1050.646
18.819	15.507	1365.339	1046.979
19.834	15.300	1364.433	1044.900
20.848	15.022	1363.109	1042.061
21.863	14.812	1361.943	1039.775
22.877	14.653	1360.621	1037.680
23.892	14.712	1359.460	1037.071
24.907	14.713	1358.858	1036.529
25.921	14.740	1357.789	1035.787
26.936	14.747	1357.013	1035.149
27.950	14.728	1356.245	1034.351
28.965	14.751	1355.205	1033.610
29.980	15.002	1353.904	1034.076
30.994	15.051	1352.862	1033.495
32.009	14.869	1352.164	1031.743
33.023	14.884	1350.651	1030.592
34.038	14.910	1348.992	1029.392
35.053	14.878	1347.416	1027.906
36.067	14.821	1346.908	1027.076
37.082	14.864	1345.930	1026.505
38.096	14.803	1345.486	1025.696
39.111	14.903	1344.272	1025.294
40.126	14.862	1343.411	1024.294
41.140	14.663	1342.460	1022.262
42.155	14.706	1341.877	1021.992
43.169	14.550	1342.026	1021.056
44.184	14.610	1341.157	1020.677
45.199	14.632	1340.997	1020.596
46.213	14.751	1340.286	1020.695
47.228	14.794	1339.075	1019.944
48.242	14.854	1338.057	1019.441
49.257	14.830	1336.819	1018.262
50.271	14.771	1335.634	1016.911
51.286	14.854	1334.648	1016.578
52.301	14.845	1332.746	1014.981
53.315	14.709	1331.985	1013.488
54.330	14.671	1330.777	1012.251
55.344	14.576	1329.521	1010.629
56.359	14.571	1328.797	1009.960
57.374	14.654	1327.469	1009.364
58.388	14.584	1326.981	1008.478
59.403	14.570	1326.416	1007.874
60.417	14.602	1325.737	1007.461
61.432	14.516	1324.982	1006.278
62.447	14.438	1324.256	1005.171
63.461	14.403	1322.608	1003.622
64.476	14.419	1322.102	1003.243
65.490	14.452	1320.583	1002.199
66.505	14.413	1318.731	1000.470
67.520	14.565	1317.514	1000.374
68.534	14.535	1316.500	999.332
69.549	14.472	1315.772	998.317
70.563	14.530	1314.418	997.549
71.578	14.393	1313.689	996.088
72.593	14.366	1312.536	994.960
73.607	14.352	1312.055	994.425
74.622	14.398	1310.984	993.801
75.636	14.393	1310.435	993.266
76.651	14.374	1309.692	992.506
77.666	14.430	1309.117	992.313
78.680	14.444	1308.499	991.837
79.695	14.467	1308.246	991.696
80.709	14.566	1306.940	991.205
81.724	14.624	1306.304	990.983
82.739	14.637	1305.539	990.389
83.753	14.679	1304.816	990.003
84.768	14.788	1303.990	989.935
85.782	14.827	1302.858	989.220
86.797	14.881	1301.358	988.315
87.812	14.668	1300.062	985.982
88.826	14.747	1299.022	985.576
89.841	14.701	1298.291	984.663
90.855	14.865	1297.262	984.757
91.870	14.860	1296.545	984.097
92.884	14.857	1295.665	983.323
93.899	14.884	1294.447	982.472
94.914	15.002	1293.563	982.409
95.928	14.896	1292.645	981.002
96.943	14.858	1292.021	980.220
97.957	14.805	1291.300	979.271
98.972	14.872	1289.866	978.493
99.987	14.884	1289.296	978.044
101.001	14.810	1288.331	976.790
102.016	14.719	1287.724	975.713
103.030	14.854	1286.631	975.587
104.045	14.950	1284.974	974.804
105.060	14.774	1283.812	972.813
106.074	14.703	1282.459	971.285
107.089	14.686	1281.065	970.048
108.103	14.510	1279.870	968.035
109.118	14.566	1278.784	967.451
110.133	14.490	1277.336	965.828
111.147	14.513	1276.281	965.078
112.162	14.675	1274.917	964.899
113.176	14.568	1274.239	963.685
114.191	14.711	1273.520	963.879
115.206	14.709	1271.855	962.524
116.220	14.663	1270.520	961.162
117.235	14.666	1269.560	960.367
118.249	14.679	1268.623	959.650
119.264	14.603	1267.237	958.082
120.279	14.585	1266.464	957.309
121.293	14.581	1265.196	956.243
122.308	14.561	1264.573	955.575
123.322	14.476	1263.123	953.904
124.337	14.430	1262.581	953.148
125.352	14.598	1261.149	952.942
126.366	14.483	1260.127	951.431
127.381	14.515	1258.953	950.643
128.395	14.583	1258.136	950.331
129.410	14.657	1256.979	949.790
130.424	14.592	1256.691	949.121
131.439	14.587	1255.581	948.167
132.454	14.573	1254.802	947.417
133.468	14.722	1253.397	947.119
134.483	14.742	1252.622	946.560
135.497	14.745	1251.725	945.820
136.512	14.749	1250.676	944.963
137.527	14.699	1249.280	943.542
138.541	14.718	1247.819	942.463
139.556	14.701	1246.929	941.611
140.570	14.688	1246.380	941.040
141.585	14.770	1244.969	940.354
142.600	14.801	1244.383	940.002
143.614	15.015	1242.204	939.471
144.629	14.882	1241.739	938.292
145.643	14.913	1240.549	937.483
146.658	14.950	1238.905	936.365
147.673	14.822	1237.618	934.595
148.687	14.811	1236.354	933.497
149.702	14.713	1235.358	932.116
150.716	14.558	1233.917	930.080
151.731	14.731	1232.918	930.210
152.746	14.823	1231.434	929.520
153.760	14.864	1230.171	928.713
154.775	14.821	1229.652	928.001
155.789	14.826	1228.699	927.224
156.804	14.849	1227.890	926.659
157.819	14.870	1226.748	925.832
158.833	15.002	1225.613	925.626
159.848	15.026	1224.927	925.157
160.862	15.040	1223.796	924.297
161.877	14.981	1222.816	923.149
162.892	14.888	1221.242	921.370
163.906	14.947	1220.317	920.913
164.921	14.845	1219.953	919.994
165.935	14.833	1219.122	919.221
166.950	15.031	1218.010	919.389
167.964	15.054	1216.824	918.542
168.979	14.920	1216.745	917.662
169.994	14.950	1216.124	917.281
171.008	15.005	1215.325	916.896
172.023	15.076	1214.315	916.443
173.037	15.129	1213.812	916.272
174.052	15.009	1212.947	914.881
175.067	14.925	1211.981	913.612
176.081	14.867	1210.802	912.325
177.096	14.950	1209.739	911.900
178.110	15.014	1208.851	911.498
179.125	15.076	1207.019	910.371
180.140	15.011	1205.917	909.107
181.154	14.931	1205.490	908.272
182.169	15.177	1203.925	908.345
183.183	15.227	1202.938	907.792
184.198	15.185	1201.610	906.482
185.213	15.170	1200.503	905.484
186.227	15.152	1200.039	904.958
187.242	15.304	1198.690	904.680
188.256	15.304	1197.744	903.887
189.271	15.277	1197.166	903.222
190.286	15.233	1195.555	901.694
191.300	14.979	1195.006	899.835
192.315	14.968	1194.211	899.093
193.329	14.960	1193.533	898.464
194.344	14.981	1193.071	898.145
195.359	15.066	1192.454	898.057
196.373	15.116	1192.071	897.957
197.388	15.274	1191.749	898.484
198.402	15.392	1191.070	898.527
199.417	15.432	1190.694	898.374
200.432	15.597	1189.484	898.265
201.446	15.508	1188.981	897.330
202.461	15.734	1187.829	897.588
203.475	15.586	1186.684	895.855
204.490	15.543	1185.541	894.683
205.504	15.419	1184.478	893.139
206.519	15.514	1183.179	892.586
207.534	15.274	1182.370	890.627
208.548	15.326	1181.287	890.006
209.563	15.482	1180.291	890.001
210.577	15.544	1179.345	889.540
211.592	15.517	1179.020	889.072
212.607	15.550	1177.899	888.322
213.621	15.511	1177.020	887.374
214.636	15.612	1175.863	886.956
215.650	15.520	1175.125	885.836
216.665	15.616	1174.128	885.512
217.680	15.709	1173.247	885.258
218.694	15.736	1172.443	884.719
219.709	15.768	1171.737	884.273
220.723	15.824	1171.227	884.107
221.738	15.804	1170.497	883.374
222.753	15.704	1169.448	881.977
223.767	15.756	1168.956	881.802
224.782	15.815	1168.312	881.544
225.796	15.694	1168.209	880.757
226.811	15.754	1167.047	880.117
227.826	15.717	1166.366	879.331
228.840	15.680	1165.588	878.475
229.855	15.772	1164.946	878.392
230.869	15.663	1164.673	877.541
231.884	15.728	1163.127	876.638
232.899	15.738	1162.602	876.217
233.913	15.577	1161.914	874.784
234.928	15.699	1161.055	874.690
235.942	15.679	1160.185	873.853
236.957	15.727	1159.541	873.540
237.972	15.742	1158.585	872.820
238.986	15.666	1158.427	872.231
240.001	15.673	1157.930	871.814
241.015	15.730	1156.481	870.944
242.030	15.756	1155.821	870.502
243.045	15.923	1154.762	870.494
244.059	15.959	1154.185	870.168
245.074	15.941	1153.638	869.586
246.088	15.975	1152.548	868.862
247.103	16.015	1151.845	868.461
248.117	16.105	1151.288	868.429
249.132	16.034	1151.220	867.933
250.147	16.207	1150.390	868.120
251.161	16.219	1149.662	867.554
252.176	16.315	1149.067	867.525
253.190	16.338	1148.130	866.858
254.205	16.412	1147.434	866.636
255.220	16.425	1146.989	866.288
256.234	16.261	1146.484	864.993
257.249	16.432	1145.683	865.188
258.263	16.408	1145.169	864.599
259.278	16.414	1144.379	863.957
260.293	16.397	1144.178	863.642
261.307	16.600	1143.145	863.823
262.322	16.570	1142.519	863.116
263.336	16.465	1142.071	862.168
264.351	16.534	1141.411	861.943
265.366	16.669	1140.042	861.523
266.380	16.498	1139.771	860.369
267.395	16.553	1138.814	859.850
268.409	16.512	1138.187	859.097
269.424	16.446	1137.680	858.299
270.439	16.434	1136.986	857.642
271.453	16.424	1136.770	857.350
272.468	16.560	1135.129	856.727
273.482	16.474	1134.356	855.630
274.497	16.420	1134.453	855.357
275.512	16.455	1133.659	854.856
276.526	16.392	1132.997	853.965
277.541	16.472	1131.930	853.489
278.555	16.561	1131.289	853.380
279.570	16.590	1130.729	853.029
280.585	16.574	1130.004	852.326
281.599	16.714	1128.716	851.982
282.614	16.704	1127.666	851.064
283.628	16.658	1126.797	850.100
284.643	16.508	1126.222	848.839
285.657	16.672	1125.212	848.826
286.672	16.654	1124.341	848.004
287.687	16.587	1123.312	846.817
288.701	16.555	1123.123	846.437
289.716	16.611	1122.234	845.975
290.730	16.773	1121.214	845.939
291.745	16.754	1120.847	845.491
292.760	16.803	1119.923	844.967
293.774	16.804	1119.481	844.561
294.789	16.841	1118.712	844.090
295.803	16.910	1118.050	843.862
296.818	16.900	1117.516	843.332
297.833	16.870	1116.110	842.048
298.847	16.815	1115.811	841.474
299.862	16.823	1115.392	841.125
300.876	16.914	1114.477	840.812
301.891	16.919	1113.902	840.329
302.906	17.005	1113.140	840.108
303.920	17.018	1112.536	839.642
304.935	17.074	1111.936	839.387
305.949	17.233	1110.736	839.196
306.964	17.115	1110.624	838.453
307.979	17.093	1109.789	837.641
308.993	17.061	1109.265	837.014
310.008	17.091	1108.555	836.550
311.022	17.145	1107.741	836.129
312.037	17.246	1106.692	835.761
313.052	17.111	1105.733	834.297
314.066	17.027	1104.975	833.241
315.081	16.964	1104.115	832.209
316.095	16.996	1103.422	831.769
317.110	16.927	1102.559	830.706
318.125	16.984	1101.907	830.419
319.139	16.941	1101.545	829.865
320.154	17.031	1100.651	829.559
321.168	17.047	1099.730	828.867
322.183	16.993	1099.667	828.483
323.197	17.030	1099.155	828.207
324.212	17.058	1098.563	827.824
325.227	17.041	1097.883	827.156
326.241	17.200	1097.061	827.235
327.256	17.131	1096.027	826.049
328.270	17.244	1095.017	825.762
329.285	17.128	1094.098	824.430
330.300	17.135	1093.289	823.785
331.314	17.154	1092.649	823.322
332.329	17.137	1091.540	822.331
333.343	17.162	1090.747	821.779
334.358	17.209	1090.010	821.380
335.373	17.362	1088.987	821.273
336.387	17.383	1088.328	820.806
337.402	17.322	1087.954	820.158
338.416	17.291	1087.446	819.552
339.431	17.421	1086.749	819.583
340.446	17.530	1085.637	819.196
341.460	17.578	1085.254	819.062
342.475	17.510	1084.809	818.328
343.489	17.618	1083.757	817.981
344.504	17.638	1082.898	817.357
345.519	17.696	1081.996	816.881
346.533	17.623	1081.175	815.841
347.548	17.600	1080.911	815.459
348.562	17.741	1079.918	815.310
349.577	17.568	1079.311	813.953
350.592	17.700	1077.947	813.485
351.606	17.575	1077.403	812.406
352.621	17.476	1076.439	811.133
353.635	17.592	1075.754	811.099
354.650	17.523	1075.424	810.452
355.665	17.614	1074.600	810.191
356.679	17.575	1074.283	809.691
357.694	17.761	1073.283	809.753
358.708	17.580	1073.156	808.723
359.723	17.578	1072.463	808.120
360.738	17.717	1071.587	808.047
361.752	17.746	1071.081	807.734
362.767	17.746	1070.433	807.175
363.781	17.695	1069.840	806.412
364.796	17.830	1069.369	806.623
365.810	17.855	1068.998	806.392
366.825	17.915	1068.658	806.347
367.840	17.881	1068.119	805.710
368.854	18.014	1067.301	805.647
369.869	17.989	1066.409	804.784
370.883	18.031	1065.320	804.092
371.898	17.971	1064.550	803.154
372.913	17.978	1064.140	802.809
373.927	17.941	1063.683	802.219
374.942	18.024	1063.288	802.240
375.956	18.057	1062.742	801.913
376.971	18.140	1062.053	801.708
377.986	18.050	1061.777	801.010
379.000	18.096	1061.099	800.644
380.015	18.261	1060.494	800.886
381.029	18.248	1059.895	800.304
382.044	18.319	1058.889	799.805
383.059	18.234	1058.310	798.898
384.073	18.234	1057.582	798.278
385.088	18.331	1056.500	797.842
386.102	18.355	1055.731	797.305
387.117	18.221	1054.818	795.921
388.132	18.220	1053.738	795.032
389.146	18.112	1053.011	793.912
390.161	18.124	1052.722	793.677
391.175	18.113	1051.867	792.914
392.190	18.267	1050.805	792.756
393.205	18.205	1050.496	792.162
394.219	18.286	1049.600	791.795
395.234	18.297	1048.577	791.000
396.248	18.257	1047.565	789.981
397.263	18.290	1046.528	789.283
398.278	18.214	1045.759	788.285
399.292	18.135	1045.025	787.300
400.307	18.200	1044.351	787.020
401.321	18.148	1043.972	786.424
402.336	18.147	1043.402	785.919
403.350	18.260	1042.337	785.568
404.365	18.214	1041.815	784.895
405.380	18.304	1041.142	784.732
406.394	18.393	1040.140	784.311
407.409	18.389	1039.728	783.915
408.423	18.455	1039.416	783.911
409.438	18.511	1038.568	783.461
410.453	18.545	1037.640	782.845
411.467	18.566	1037.382	782.677
412.482	18.633	1036.565	782.299
413.496	18.651	1035.865	781.779
414.511	18.627	1035.227	781.119
415.526	18.700	1034.791	781.057
416.540	18.790	1034.190	780.944
417.555	18.838	1033.914	780.882
418.569	18.663	1033.225	779.496
419.584	18.691	1032.500	779.007
420.599	18.740	1032.158	778.906
421.613	150.776	1401.460	1795.701
422.628	137.608	1455.259	1795.803
