DTS Sentinel unit serial number:	SN413079Multiplexer serial number:	ORYXHardware model number:	OX4-SRSoftware version number:	ORYX F/W v4.00 Oryx Data Collector v3.7.2.0data status	okinstallation	princeton_trtdifferential loss correction	single-endedforward channel	channel 2reverse channel	N/Adate	2019/09/18time	21:03:35forward acquisition time	60.00reverse acquisition time	0.00gamma	496.2192k internal	0.2342k external	0.2342temperature offset calibration	1.0044default loss term (dB/km)	0.3790temperature slope calibration	1.0000multiplexer offset coefficient	1.0000multiplexer slope coefficient	1.0000fibre end	0.00T internal ref (°C)	26.37T ext. ref 1 (°C)	1.13T ext. ref 2 (°C)	17.97length (m)	temperature (°C)	Stokes	anti-Stokes-747.200	-200.000	0.022	0.240
-746.185	-43.821	-0.026	-0.013
-745.171	326.693	-0.082	-0.157
-744.156	288.960	-0.033	0.060
-743.142	-200.000	0.031	-0.366
-742.127	-9.261	-0.348	-0.233
-741.112	-118.476	-0.178	0.032
-740.098	121.349	0.113	0.142
-739.083	-39.745	0.186	-0.097
-738.069	800.000	0.057	0.159
-737.054	-32.419	0.202	-0.113
-736.039	-163.619	-0.191	-0.009
-735.025	-37.628	0.363	0.194
-734.010	-45.134	0.112	-0.056
-732.996	16.371	-0.326	-0.258
-731.981	-70.428	0.138	0.052
-730.966	-50.655	-0.140	-0.066
-729.952	-200.000	-0.028	-0.277
-728.937	-113.737	-0.286	0.056
-727.923	-200.000	0.051	-0.253
-726.908	59.123	-0.079	0.078
-725.894	-200.000	0.025	0.277
-724.879	-55.900	0.181	-0.081
-723.864	-166.694	-0.076	0.003
-722.850	-200.000	0.046	0.220
-721.835	-175.116	-0.127	-0.004
-720.821	800.000	0.080	0.238
-719.806	-63.863	0.185	0.076
-718.791	229.848	0.148	0.242
-717.777	108.092	-0.359	-0.429
-716.762	800.000	-0.021	-0.067
-715.748	166.830	-0.251	0.356
-714.733	470.840	0.069	0.156
-713.718	800.000	0.092	-0.311
-712.704	156.532	-0.051	-0.071
-711.689	-81.429	-0.082	0.027
-710.675	-53.533	0.109	0.050
-709.660	-200.000	0.026	-0.425
-708.645	31.875	0.463	-0.398
-707.631	218.699	-0.150	0.239
-706.616	139.590	0.134	-0.177
-705.602	56.677	0.177	0.173
-704.587	-200.000	0.002	0.109
-703.572	-6.382	-0.209	-0.143
-702.558	800.000	0.080	-0.323
-701.543	-200.000	0.015	0.388
-700.529	-114.878	-0.212	0.040
-699.514	15.568	0.026	0.020
-698.499	800.000	-0.049	-0.206
-697.485	-124.032	0.239	0.038
-696.470	-2.576	0.079	0.055
-695.456	-65.512	0.225	0.090
-694.441	-143.476	0.056	0.005
-693.426	234.866	0.097	0.159
-692.412	-40.873	-0.064	0.033
-691.397	-19.925	-0.212	-0.131
-690.383	64.454	-0.067	-0.067
-689.368	-34.971	-0.140	-0.076
-688.354	-9.454	0.168	0.112
-687.339	200.484	0.092	-0.142
-686.324	38.701	-0.082	-0.073
-685.310	57.422	-0.033	-0.032
-684.295	-70.042	-0.060	0.023
-683.281	733.613	-0.041	-0.110
-682.266	154.134	-0.080	0.109
-681.251	-200.000	0.000	0.049
-680.237	-200.000	0.013	-0.303
-679.222	-200.000	0.021	-0.254
-678.208	-103.762	0.393	-0.092
-677.193	188.248	-0.199	0.298
-676.178	800.000	-0.044	-0.124
-675.164	47.629	-0.059	0.055
-674.149	-22.753	-0.280	-0.169
-673.135	-18.141	0.195	-0.122
-672.120	800.000	0.115	0.493
-671.105	-133.670	-0.043	0.005
-670.091	800.000	-0.025	-0.076
-669.076	462.973	0.186	0.414
-668.062	362.428	-0.079	-0.159
-667.047	-200.000	-0.005	0.112
-666.032	-200.000	0.035	-0.172
-665.018	488.724	0.029	0.067
-664.003	800.000	0.027	0.079
-662.989	-192.528	0.252	-0.002
-661.974	88.798	-0.121	-0.134
-660.959	-18.639	0.217	0.135
-659.945	715.222	-0.200	0.530
-658.930	-61.340	0.373	-0.157
-657.916	-145.236	-0.069	-0.006
-656.901	-200.000	-0.028	0.126
-655.886	-146.139	0.095	-0.008
-654.872	251.796	0.132	-0.225
-653.857	-200.000	-0.005	0.186
-652.843	563.104	0.102	-0.245
-651.828	-60.876	-0.241	-0.102
-650.814	-65.783	0.177	0.071
-649.799	-29.878	-0.221	0.126
-648.784	632.071	0.189	0.477
-647.770	-200.000	-0.001	0.114
-646.755	-200.000	-0.017	0.226
-645.741	-52.907	-0.347	0.160
-644.726	-159.685	0.161	-0.009
-643.711	455.213	-0.111	0.246
-642.697	-189.091	-0.209	-0.002
-641.682	-5.343	0.291	-0.199
-640.668	-47.881	-0.335	0.162
-639.653	426.610	0.045	0.096
-638.638	472.567	0.047	-0.107
-637.624	5.799	-0.325	0.240
-636.609	-200.000	0.058	0.288
-635.595	171.100	0.133	0.190
-634.580	313.059	-0.031	-0.058
-633.565	800.000	0.056	0.176
-632.551	-200.000	0.013	-0.293
-631.536	-200.000	-0.010	-0.088
-630.522	-106.647	-0.122	0.027
-629.507	-30.254	0.222	-0.126
-628.492	61.871	-0.097	-0.096
-627.478	-17.393	-0.223	0.140
-626.463	-136.976	0.187	-0.021
-625.449	247.583	-0.187	-0.316
-624.434	-30.534	0.079	-0.045
-623.419	54.352	0.242	0.233
-622.405	-110.616	-0.190	-0.039
-621.390	800.000	0.062	-0.265
-620.376	82.096	-0.033	-0.035
-619.361	-15.676	0.247	0.157
-618.346	800.000	0.053	-0.219
-617.332	-115.400	-0.072	0.014
-616.317	-101.120	-0.145	0.035
-615.303	-200.000	0.002	0.088
-614.288	-59.182	-0.076	-0.033
-613.273	800.000	0.065	0.253
-612.259	-142.212	0.408	0.040
-611.244	-39.349	-0.389	0.204
-610.230	800.000	-0.015	-0.059
-609.215	-200.000	0.033	0.217
-608.201	800.000	-0.062	-0.199
-607.186	-13.793	0.172	0.111
-606.171	-200.000	-0.018	-0.210
-605.157	-200.000	-0.075	0.360
-604.142	-200.000	0.040	-0.226
-603.128	95.881	-0.330	0.375
-602.113	-200.000	-0.019	-0.142
-601.098	-47.052	-0.295	0.144
-600.084	-200.000	-0.041	-0.268
-599.069	800.000	-0.030	0.113
-598.055	-78.379	0.552	-0.188
-597.040	800.000	0.064	-0.261
-596.025	-2.469	0.139	-0.097
-595.011	-200.000	-0.027	0.279
-593.996	-6.817	0.079	-0.053
-592.982	-200.000	-0.032	0.340
-591.967	-64.174	-0.374	-0.152
-590.952	118.597	-0.116	0.142
-589.938	179.236	-0.208	-0.304
-588.923	-100.159	0.140	0.035
-587.909	-200.000	0.055	-0.346
-586.894	-116.857	-0.350	0.064
-585.879	-200.000	0.023	-0.337
-584.865	-74.021	-0.071	-0.026
-583.850	-200.000	-0.074	0.381
-582.836	-200.000	0.003	0.078
-581.821	51.791	0.257	0.244
-580.806	-101.979	-0.422	-0.101
-579.792	206.387	0.083	0.129
-578.777	257.790	0.186	0.319
-577.763	-103.683	0.186	-0.043
-576.748	101.066	0.125	0.144
-575.733	-88.166	0.146	-0.043
-574.719	-57.349	0.174	-0.076
-573.704	-154.338	0.157	-0.011
-572.690	184.904	-0.133	0.196
-571.675	86.694	0.153	-0.168
-570.661	319.200	0.211	-0.399
-569.646	133.024	0.156	0.200
-568.631	-37.697	0.041	0.022
-567.617	800.000	-0.040	0.118
-566.602	63.565	0.099	-0.099
-565.588	112.802	-0.087	-0.105
-564.573	-156.647	0.270	-0.017
-563.558	367.289	0.061	0.123
-562.544	-200.000	0.017	-0.209
-561.529	60.927	-0.193	-0.190
-560.515	800.000	0.040	0.160
-559.500	443.942	0.134	0.293
-558.485	-2.200	0.111	0.078
-557.471	53.241	-0.116	0.110
-556.456	359.222	-0.071	0.141
-555.442	800.000	0.057	-0.212
-554.427	-171.690	-0.185	0.006
-553.412	-63.945	0.189	0.077
-552.398	-43.345	0.219	-0.110
-551.383	744.724	0.053	0.142
-550.369	-35.248	0.149	0.081
-549.354	36.091	-0.218	0.190
-548.339	-200.000	-0.022	0.316
-547.325	-200.000	0.006	-0.099
-546.310	-15.023	-0.245	-0.156
-545.296	-141.036	0.172	0.018
-544.281	102.338	-0.122	-0.142
-543.266	274.641	0.031	0.054
-542.252	32.983	0.066	-0.057
-541.237	-62.670	-0.400	-0.165
-540.223	84.817	-0.183	-0.199
-539.208	-200.000	-0.084	-0.397
-538.193	-43.328	0.119	-0.060
-537.179	110.052	-0.185	-0.220
-536.164	800.000	0.087	0.245
-535.150	125.512	0.156	0.196
-534.135	169.879	0.037	-0.053
-533.121	-55.493	-0.158	0.070
-532.106	-2.839	-0.134	-0.093
-531.091	-33.010	-0.186	0.102
-530.077	-118.877	-0.346	-0.060
-529.062	54.812	-0.229	0.219
-528.048	-200.000	0.016	-0.170
-527.033	1.875	0.166	0.119
-526.018	-39.017	-0.358	-0.187
-525.004	800.000	-0.081	-0.267
-523.989	-85.867	0.548	-0.169
-522.975	-200.000	0.031	-0.260
-521.960	-200.000	0.041	-0.302
-520.945	155.841	-0.103	-0.141
-519.931	446.391	-0.054	-0.117
-518.916	717.272	-0.102	0.269
-517.902	-200.000	-0.016	-0.379
-516.887	353.395	0.030	-0.059
-515.872	-108.048	0.350	0.075
-514.858	28.433	0.145	0.121
-513.843	113.092	0.030	-0.036
-512.829	20.489	0.105	-0.085
-511.814	-139.888	-0.083	-0.009
-510.799	14.269	-0.112	-0.087
-509.785	-200.000	0.079	-0.458
-508.770	-84.730	0.140	0.044
-507.756	-200.000	0.006	0.178
-506.741	69.715	-0.122	-0.125
-505.726	-200.000	0.009	0.263
-504.712	-200.000	0.014	0.172
-503.697	-50.663	-0.136	-0.063
-502.683	-200.000	0.027	0.381
-501.668	-200.000	0.007	-0.191
-500.653	-200.000	-0.045	0.199
-499.639	87.797	-0.057	-0.063
-498.624	-200.000	-0.062	-0.338
-497.610	-200.000	-0.041	-0.279
-496.595	18.148	-0.073	0.058
-495.581	229.642	0.116	-0.188
-494.566	-61.134	0.217	0.091
-493.551	-49.697	-0.311	-0.147
-492.537	-200.000	0.070	-0.363
-491.522	-171.706	-0.146	-0.005
-490.508	264.473	-0.063	-0.108
-489.493	-200.000	0.095	-0.578
-488.478	114.122	0.083	0.101
-487.464	88.188	-0.250	-0.275
-486.449	569.875	0.033	-0.079
-485.435	-147.839	0.259	0.021
-484.420	40.941	0.334	-0.298
-483.405	151.821	-0.236	-0.319
-482.391	-200.000	-0.018	-0.193
-481.376	-82.702	-0.378	0.121
-480.362	-163.650	-0.066	-0.003
-479.347	800.000	-0.039	-0.156
-478.332	-200.000	0.008	0.036
-477.318	-109.786	-0.120	0.025
-476.303	22.768	0.164	-0.133
-475.289	340.003	0.115	0.221
-474.274	170.373	0.093	-0.132
-473.259	436.501	-0.110	0.237
-472.245	-92.197	-0.062	-0.017
-471.230	218.626	-0.197	0.312
-470.216	31.278	0.100	0.085
-469.201	-106.507	-0.318	0.070
-468.186	800.000	0.163	-0.506
-467.172	26.692	-0.157	0.130
-466.157	800.000	-0.088	-0.242
-465.143	85.975	0.164	-0.179
-464.128	98.140	0.006	-0.007
-463.113	606.729	0.034	0.085
-462.099	-200.000	0.013	0.000
-461.084	-24.628	0.283	0.167
-460.070	301.972	-0.214	-0.393
-459.055	770.999	0.090	-0.243
-458.040	-53.879	0.207	0.094
-457.026	-200.000	-0.040	-0.349
-456.011	-200.000	0.015	0.178
-454.997	45.144	-0.286	0.261
-453.982	238.752	-0.130	-0.213
-452.968	16.945	0.333	0.261
-451.953	-128.476	-0.016	0.002
-450.938	549.190	-0.172	-0.408
-449.924	-200.000	-0.013	-0.067
-448.909	149.579	-0.167	0.224
-447.895	54.520	0.158	0.151
-446.880	800.000	-0.127	-0.406
-445.865	-200.000	-0.029	0.206
-444.851	122.712	0.065	-0.081
-443.836	-200.000	0.018	0.289
-442.822	-200.000	0.033	0.150
-441.807	-200.000	0.004	0.157
-440.792	427.812	0.195	-0.416
-439.778	-200.000	-0.061	-0.369
-438.763	-101.441	-0.399	0.096
-437.749	800.000	0.025	-0.094
-436.734	-24.033	-0.355	-0.210
-435.719	-200.000	-0.039	0.195
-434.705	-143.819	-0.239	0.022
-433.690	-21.815	-0.140	-0.084
-432.676	800.000	0.154	-0.432
-431.661	-33.743	0.191	-0.104
-430.646	-111.217	-0.477	0.097
-429.632	64.125	-0.130	0.129
-428.617	-180.836	-0.326	-0.007
-427.603	-106.626	0.103	-0.023
-426.588	397.333	0.102	0.210
-425.573	-200.000	0.016	-0.219
-424.559	581.430	-0.136	0.331
-423.544	-200.000	0.032	0.251
-422.530	-200.000	-0.005	0.118
-421.515	-67.417	-0.421	-0.163
-420.500	-26.476	-0.186	0.108
-419.486	54.077	0.210	-0.200
-418.471	199.824	0.292	-0.443
-417.457	800.000	-0.076	-0.237
-416.442	481.311	0.096	0.216
-415.428	-159.602	0.325	0.018
-414.413	-15.437	-0.227	-0.143
-413.398	-200.000	-0.013	0.067
-412.384	350.722	0.085	0.166
-411.369	319.085	-0.094	0.177
-410.355	-169.069	-0.229	0.008
-409.340	202.598	0.042	-0.064
-408.325	-72.742	-0.068	-0.025
-407.311	-32.803	-0.110	-0.060
-406.296	192.127	-0.015	0.022
-405.282	49.487	0.163	0.152
-404.267	800.000	-0.040	-0.166
-403.252	800.000	0.182	0.507
-402.238	-200.000	-0.056	-0.250
-401.223	-132.881	-0.166	0.021
-400.209	89.346	0.229	-0.252
-399.194	722.510	-0.032	0.084
-398.179	373.814	-0.033	-0.066
-397.165	-200.000	0.059	-0.297
-396.150	-200.000	-0.029	0.446
-395.136	101.802	-0.045	0.052
-394.121	-75.786	0.251	0.088
-393.106	-200.000	0.011	-0.256
-392.092	325.088	0.170	0.320
-391.077	800.000	0.099	-0.413
-390.063	-34.891	-0.152	-0.082
-389.048	135.578	-0.116	-0.149
-388.033	-65.532	-0.287	-0.114
-387.019	167.933	-0.210	0.295
-386.004	-4.577	0.324	0.221
-384.990	800.000	-0.056	-0.170
-383.975	39.951	0.146	-0.129
-382.960	800.000	-0.069	-0.255
-381.946	800.000	-0.027	-0.099
-380.931	800.000	-0.060	0.183
-379.917	330.400	0.189	0.359
-378.902	-73.927	0.155	0.055
-377.888	38.163	0.228	-0.200
-376.873	-66.373	0.159	0.062
-375.858	-69.841	0.273	0.103
-374.844	455.713	-0.129	0.282
-373.829	15.105	0.123	-0.095
-372.815	-70.449	-0.166	-0.062
-371.800	598.727	0.076	0.186
-370.785	-170.751	0.248	-0.008
-369.771	142.573	0.238	-0.312
-368.756	38.407	0.077	0.068
-367.742	-200.000	-0.019	0.408
-366.727	-41.044	0.193	-0.098
-365.712	43.630	-0.079	-0.071
-364.698	-69.396	-0.168	-0.064
-363.683	-37.165	0.350	0.185
-362.669	268.155	-0.180	0.312
-361.654	800.000	-0.039	0.148
-360.639	-200.000	-0.033	-0.306
-359.625	-137.554	-0.184	0.020
-358.610	800.000	-0.090	0.297
-357.596	-87.722	-0.388	-0.115
-356.581	-2.300	-0.131	0.091
-355.566	174.913	-0.136	0.194
-354.552	450.064	0.010	-0.022
-353.537	62.498	0.052	-0.051
-352.523	79.299	-0.251	0.265
-351.508	121.263	0.096	-0.118
-350.493	126.041	0.021	0.026
-349.479	151.759	-0.155	0.208
-348.464	-0.907	0.189	0.132
-347.450	-200.000	-0.008	-0.283
-346.435	11.373	-0.151	-0.114
-345.420	-92.291	-0.186	-0.052
-344.406	800.000	0.050	-0.170
-343.391	-103.015	0.210	0.049
-342.377	-57.540	0.240	-0.104
-341.362	-35.782	0.224	-0.120
-340.348	-166.535	-0.098	0.004
-339.333	800.000	-0.121	0.381
-338.318	-200.000	-0.056	0.261
-337.304	-82.872	0.212	0.068
-336.289	-200.000	-0.032	0.206
-335.275	242.126	0.076	-0.125
-334.260	800.000	-0.035	-0.115
-333.245	-200.000	-0.006	-0.066
-332.231	-200.000	0.050	0.265
-331.216	11.582	0.126	0.095
-330.202	-134.953	0.335	-0.040
-329.187	-75.097	-0.316	0.112
-328.172	167.484	-0.146	-0.205
-327.158	-79.507	-0.153	0.051
-326.143	-98.770	0.124	0.031
-325.129	-50.623	-0.266	0.124
-324.114	-50.078	-0.337	0.157
-323.099	-67.945	0.175	0.067
-322.085	84.600	-0.195	0.210
-321.070	560.327	0.086	-0.204
-320.056	-126.931	-0.092	0.013
-319.041	-200.000	-0.013	0.168
-318.026	-200.000	0.058	0.321
-317.012	32.966	-0.287	0.245
-315.997	425.309	-0.173	0.366
-314.983	-76.174	0.216	-0.075
-313.968	-200.000	0.030	-0.295
-312.953	-200.000	0.006	0.191
-311.939	800.000	-0.094	0.404
-310.924	-200.000	0.058	0.272
-309.910	12.921	-0.324	0.247
-308.895	-126.586	0.362	0.053
-307.880	-2.665	-0.204	-0.141
-306.866	626.390	0.133	-0.330
-305.851	580.975	-0.018	-0.043
-304.837	-200.000	-0.024	-0.141
-303.822	-124.215	-0.091	-0.014
-302.807	70.988	-0.052	0.053
-301.793	11.424	0.133	-0.100
-300.778	102.851	-0.251	0.289
-299.764	-200.000	-0.017	-0.098
-298.749	392.932	0.217	-0.445
-297.735	-200.000	0.041	-0.320
-296.720	28.150	0.152	0.126
-295.705	-80.717	0.173	0.057
-294.691	313.666	-0.174	0.323
-293.676	348.120	-0.145	-0.281
-292.662	-122.150	-0.348	-0.056
-291.647	800.000	-0.037	-0.152
-290.632	129.811	-0.175	-0.220
-289.618	-57.832	0.069	0.030
-288.603	-200.000	0.019	0.180
-287.589	800.000	-0.023	0.080
-286.574	39.356	0.243	0.214
-285.559	33.837	0.307	-0.263
-284.545	-200.000	-0.012	-0.096
-283.530	335.079	-0.090	0.172
-282.516	-134.037	-0.140	0.017
-281.501	-200.000	-0.009	0.477
-280.486	-21.820	0.093	-0.056
-279.472	-196.739	0.255	0.002
-278.457	-16.857	0.264	0.164
-277.443	7.949	-0.137	-0.101
-276.428	686.724	0.117	-0.302
-275.413	-73.681	0.097	-0.035
-274.399	800.000	0.048	-0.136
-273.384	-200.000	-0.006	-0.067
-272.370	-61.800	0.026	0.011
-271.355	-151.770	-0.417	0.030
-270.340	265.862	0.052	-0.089
-269.326	6.517	0.245	0.179
-268.311	-15.015	0.096	0.060
-267.297	-200.000	0.005	0.125
-266.282	446.459	0.114	0.247
-265.267	-200.000	-0.020	-0.102
-264.253	94.546	0.249	-0.279
-263.238	47.152	-0.072	-0.066
-262.224	-92.750	0.141	0.039
-261.209	85.379	-0.197	0.213
-260.195	800.000	0.069	0.267
-259.180	-21.292	0.153	0.092
-258.165	-57.879	-0.165	0.071
-257.151	-32.704	-0.157	0.086
-256.136	-92.418	0.279	-0.077
-255.122	356.228	-0.083	0.163
-254.107	-78.010	0.118	0.040
-253.092	-200.000	0.025	-0.115
-252.078	-49.278	0.289	-0.136
-251.063	-30.514	-0.070	-0.039
-250.049	60.087	0.200	-0.195
-249.034	-200.000	0.065	-0.498
-248.019	-50.234	0.304	-0.141
-247.005	52.841	0.154	-0.145
-245.990	329.728	0.057	-0.107
-244.976	94.872	-0.203	-0.226
-243.961	-200.000	-0.073	-0.443
-242.946	247.240	-0.079	-0.131
-241.932	800.000	-0.050	0.137
-240.917	-79.109	0.104	-0.035
-239.903	-200.000	0.004	-0.118
-238.888	-200.000	-0.009	0.129
-237.873	-18.828	0.245	-0.150
-236.859	227.816	0.091	-0.145
-235.844	352.870	-0.078	-0.152
-234.830	800.000	0.075	0.254
-233.815	-26.662	0.213	-0.122
-232.800	-78.916	-0.225	0.075
-231.786	800.000	0.114	-0.390
-230.771	628.856	-0.012	0.031
-229.757	-200.000	-0.003	0.305
-228.742	800.000	-0.066	0.190
-227.727	37.427	-0.067	0.059
-226.713	800.000	0.104	0.303
-225.698	411.539	0.109	0.228
-224.684	33.987	0.129	0.111
-223.669	-132.545	0.328	0.041
-222.655	-38.113	0.156	0.081
-221.640	-200.000	0.029	0.250
-220.625	-132.657	-0.204	-0.026
-219.611	800.000	-0.032	0.122
-218.596	-47.235	-0.023	0.011
-217.582	-58.138	0.315	0.135
-216.567	-200.000	0.012	0.054
-215.552	-200.000	-0.010	0.173
-214.538	-200.000	0.029	-0.209
-213.523	-200.000	0.001	0.038
-212.509	194.112	-0.119	0.177
-211.494	343.775	0.137	-0.264
-210.479	594.895	-0.050	0.121
-209.465	-3.470	0.073	0.050
-208.450	-53.076	0.141	-0.063
-207.436	-115.042	-0.107	-0.020
-206.421	-135.030	0.161	-0.019
-205.406	-200.000	-0.028	0.123
-204.392	47.804	-0.170	0.156
-203.377	-58.957	-0.258	0.109
-202.363	9.244	0.358	-0.265
-201.348	2.650	-0.333	-0.237
-200.333	-200.000	0.004	0.123
-199.319	-200.000	0.027	-0.345
-198.304	715.582	0.067	0.175
-197.290	800.000	-0.111	0.313
-196.275	-36.892	-0.102	-0.054
-195.260	-200.000	0.028	-0.201
-194.246	-200.000	-0.008	0.177
-193.231	-130.790	0.124	0.016
-192.217	308.364	0.227	0.415
-191.202	-200.000	-0.005	-0.083
-190.187	205.858	0.097	0.148
-189.173	-123.544	-0.327	-0.051
-188.158	800.000	0.006	0.017
-187.144	51.115	-0.044	0.041
-186.129	18.009	-0.153	0.120
-185.114	57.641	0.372	0.356
-184.100	32.831	0.180	0.152
-183.085	55.577	-0.090	0.085
-182.071	-200.000	0.040	0.343
-181.056	503.677	-0.086	-0.196
-180.042	-200.000	-0.012	0.131
-179.027	448.785	-0.114	-0.246
-178.012	104.416	0.028	0.033
-176.998	182.096	-0.127	-0.184
-175.983	-200.000	0.032	0.137
-174.969	45.569	0.130	0.117
-173.954	18.342	-0.230	-0.180
-172.939	58.227	0.332	0.319
-171.925	642.010	-0.100	0.249
-170.910	50.054	-0.072	-0.067
-169.896	227.419	-0.082	-0.131
-168.881	47.176	-0.226	-0.206
-167.866	-46.666	0.141	0.068
-166.852	252.824	-0.145	-0.242
-165.837	-200.000	0.025	-0.242
-164.823	-55.096	0.348	-0.153
-163.808	78.835	0.066	0.069
-162.793	26.559	-0.165	-0.135
-161.779	39.695	0.104	-0.091
-160.764	1.112	-0.093	-0.065
-159.750	-39.169	-0.125	-0.064
-158.735	-98.279	0.191	-0.048
-157.720	31.163	0.118	-0.099
-156.706	-20.026	0.226	-0.137
-155.691	800.000	0.043	-0.181
-154.677	45.227	0.127	0.114
-153.662	800.000	-0.075	0.302
-152.647	29.074	-0.073	0.061
-151.633	18.002	-0.165	-0.129
-150.618	-97.801	-0.165	0.042
-149.604	-56.003	0.243	-0.106
-148.589	-24.449	0.173	-0.101
-147.574	-25.519	0.170	-0.098
-146.560	-189.904	-0.186	0.002
-145.545	21.755	-0.100	-0.080
-144.531	800.000	-0.061	0.186
-143.516	-19.301	0.284	0.172
-142.502	103.628	0.065	-0.074
-141.487	-141.679	0.285	0.028
-140.472	-200.000	-0.021	-0.127
-139.458	-19.995	0.259	0.156
-138.443	315.525	0.057	0.105
-137.429	-60.843	0.244	-0.101
-136.414	-167.911	0.109	-0.004
-135.399	-200.000	0.030	-0.230
-134.385	-3.548	0.122	0.083
-133.370	800.000	0.024	-0.089
-132.356	138.221	-0.191	-0.245
-131.341	-159.866	-0.141	0.008
-130.326	433.177	0.038	0.081
-129.312	800.000	0.109	-0.398
-128.297	7.321	-0.232	0.169
-127.283	-18.178	-0.164	0.100
-126.268	82.170	0.118	0.125
-125.253	35.780	0.238	0.205
-124.239	169.361	0.131	0.183
-123.224	-112.808	0.059	0.011
-122.210	289.660	-0.137	0.243
-121.195	-108.811	0.315	0.066
-120.180	-85.064	0.258	-0.079
-119.166	-121.620	0.360	0.058
-118.151	163.842	-0.125	0.172
-117.137	-147.307	-0.193	0.016
-116.122	-152.767	0.183	0.013
-115.107	430.604	0.199	0.421
-114.093	-192.023	0.140	0.001
-113.078	-33.882	0.360	-0.194
-112.064	-112.108	0.219	-0.043
-111.049	291.807	-0.115	-0.204
-110.034	-29.711	-0.134	0.075
-109.020	142.093	0.156	-0.203
-108.005	521.127	0.149	0.342
-106.991	800.000	-0.087	0.352
-105.976	-57.843	0.191	-0.082
-104.962	-50.689	0.321	-0.148
-103.947	170.565	0.183	-0.256
-102.932	227.443	-0.104	-0.166
-101.918	-200.000	-0.063	-0.631
-100.903	51.174	0.101	-0.094
-99.889	-200.000	0.051	0.356
-98.874	-94.202	-0.222	-0.059
-97.859	89.854	0.067	0.073
-96.845	-164.862	0.101	-0.004
-95.830	-200.000	-0.013	0.064
-94.816	310.163	0.129	0.235
-93.801	670.681	0.089	0.225
-92.786	-32.402	-0.152	-0.083
-91.772	254.919	0.328	0.549
-90.757	-37.779	0.263	0.137
-89.743	-37.894	0.316	-0.164
-88.728	151.761	-0.123	0.164
-87.713	-129.326	0.285	-0.039
-86.699	-200.000	0.013	0.109
-85.684	-200.000	0.031	-0.136
-84.670	-32.656	0.188	-0.102
-83.655	-141.516	-0.439	-0.043
-82.640	-28.096	-0.209	-0.118
-81.626	-103.175	0.322	-0.074
-80.611	-139.076	-0.026	-0.003
-79.597	-200.000	0.015	0.391
-78.582	180.672	0.116	0.167
-77.567	86.617	-0.101	-0.109
-76.553	19.195	-0.122	0.096
-75.538	-200.000	0.008	0.333
-74.524	-200.000	-0.022	-0.185
-73.509	-200.000	-0.002	-0.020
-72.494	-98.321	0.245	-0.061
-71.480	311.369	-0.069	-0.126
-70.465	-53.798	-0.125	-0.056
-69.451	546.639	-0.146	0.340
-68.436	-54.629	0.172	-0.076
-67.422	-95.644	-0.333	-0.087
-66.407	-160.968	-0.130	-0.007
-65.392	-200.000	-0.002	-0.083
-64.378	-200.000	0.039	0.282
-63.363	112.554	-0.115	0.136
-62.349	-125.409	-0.120	-0.018
-61.334	91.853	-1.010	-1.109
-60.319	70.371	0.401	0.404
-59.305	352.697	-0.536	-1.036
-58.290	288.456	0.754	1.331
-57.276	800.000	0.433	1.573
-56.261	-200.000	117.481	625.109
-55.246	432.253	1518.424	3210.290
-54.232	148.264	2684.507	3532.798
-53.217	93.035	2266.801	2497.599
-52.203	34.928	1880.533	1604.622
-51.188	29.482	1676.688	1389.756
-50.173	27.199	1635.655	1338.897
-49.159	46.114	1697.567	1532.408
-48.144	44.777	1711.143	1534.537
-47.130	28.939	1665.742	1376.398
-46.115	26.437	1650.682	1345.318
-45.100	26.331	1645.547	1340.295
-44.086	26.311	1642.716	1337.786
-43.071	26.227	1640.265	1335.119
-42.057	26.151	1638.545	1333.105
-41.042	26.118	1637.034	1331.579
-40.027	26.309	1634.323	1330.723
-39.013	26.195	1632.651	1328.471
-37.998	26.235	1631.238	1327.563
-36.984	26.239	1629.782	1326.359
-35.969	26.279	1628.479	1325.534
-34.954	26.393	1626.297	1324.545
-33.940	26.379	1624.839	1323.202
-32.925	26.341	1623.421	1321.716
-31.911	26.323	1621.796	1320.206
-30.896	26.423	1619.642	1319.131
-29.881	26.293	1618.610	1317.292
-28.867	26.274	1617.373	1316.097
-27.852	26.441	1615.660	1315.862
-26.838	26.396	1614.269	1314.350
-25.823	26.456	1612.905	1313.625
-24.809	26.388	1611.680	1312.078
-23.794	26.372	1610.480	1310.933
-22.779	26.336	1608.933	1309.362
-21.765	26.360	1607.398	1308.234
-20.750	26.370	1605.383	1306.616
-19.736	26.426	1604.610	1306.343
-18.721	26.448	1603.057	1305.186
-17.706	26.403	1601.700	1303.701
-16.692	26.420	1599.648	1302.102
-15.677	26.392	1598.534	1300.941
-14.663	26.403	1597.501	1300.129
-13.648	26.495	1595.825	1299.373
-12.633	26.461	1594.145	1297.709
-11.619	26.423	1592.577	1296.109
-10.604	26.444	1591.140	1295.040
-9.590	26.503	1589.722	1294.253
-8.575	26.448	1588.618	1292.915
-7.560	26.452	1587.475	1291.962
-6.546	26.453	1586.560	1291.172
-5.531	26.336	1585.355	1289.303
-4.517	26.315	1584.233	1288.190
-3.502	26.397	1582.840	1287.594
-2.487	26.474	1581.411	1286.922
-1.473	25.790	1569.008	1271.956
-0.458	22.177	1548.494	1230.039
0.556	17.216	1548.562	1191.838
1.571	14.566	1570.493	1189.738
2.586	13.951	1582.426	1194.248
3.600	12.918	1529.674	1147.154
4.615	7.714	1425.530	1035.148
5.629	2.243	1367.267	958.513
6.644	1.236	1359.825	946.930
7.659	1.089	1358.624	945.091
8.673	1.101	1357.670	944.418
9.688	1.084	1355.881	942.982
10.702	0.959	1352.297	939.631
11.717	3.605	1355.381	958.130
12.731	10.272	1365.931	1007.098
13.746	16.133	1373.862	1049.431
14.761	17.769	1375.470	1060.747
15.775	17.184	1373.649	1055.615
16.790	16.240	1370.871	1047.530
17.804	15.440	1368.727	1040.840
18.819	15.023	1367.299	1037.080
19.834	14.865	1365.597	1034.719
20.848	14.588	1365.090	1032.529
21.863	14.206	1363.754	1029.064
22.877	14.097	1362.657	1027.471
23.892	13.987	1361.915	1026.143
24.907	13.977	1360.825	1025.169
25.921	14.123	1359.516	1024.991
26.936	14.066	1359.150	1024.272
27.950	14.152	1357.985	1023.836
28.965	14.292	1357.353	1024.126
29.980	14.219	1355.959	1022.536
30.994	14.260	1355.238	1022.156
32.009	14.201	1354.509	1021.154
33.023	14.259	1353.684	1020.798
34.038	14.216	1352.417	1019.488
35.053	14.138	1351.430	1018.178
36.067	14.192	1350.150	1017.450
37.082	14.218	1349.435	1016.981
38.096	14.314	1348.171	1016.525
39.111	14.337	1347.159	1015.810
40.126	14.142	1346.713	1014.195
41.140	14.212	1345.939	1013.949
42.155	14.123	1345.518	1013.001
43.169	14.117	1345.659	1012.984
44.184	13.998	1345.510	1012.057
45.199	14.082	1344.633	1011.816
46.213	14.140	1344.243	1011.788
47.228	14.149	1343.041	1010.849
48.242	14.215	1341.600	1010.074
49.257	14.271	1340.144	1009.230
50.271	14.194	1339.082	1007.873
51.286	14.144	1337.439	1006.243
52.301	14.327	1335.930	1006.126
53.315	14.188	1335.100	1004.572
54.330	14.109	1334.614	1003.644
55.344	14.078	1333.528	1002.551
56.359	14.048	1332.189	1001.275
57.374	14.031	1331.698	1000.711
58.388	14.104	1330.161	999.909
59.403	14.065	1330.206	999.618
60.417	13.998	1329.213	998.383
61.432	13.934	1328.709	997.530
62.447	13.968	1327.729	996.912
63.461	13.997	1326.892	996.366
64.476	14.021	1325.570	995.431
65.490	14.048	1323.551	993.986
66.505	14.063	1322.710	993.361
67.520	14.006	1321.642	992.130
68.534	14.076	1320.397	991.522
69.549	14.066	1318.963	990.300
70.563	14.011	1317.891	989.080
71.578	14.024	1316.808	988.254
72.593	13.937	1315.859	986.938
73.607	13.962	1315.383	986.644
74.622	13.970	1314.501	985.943
75.636	13.956	1313.545	985.054
76.651	13.984	1312.834	984.599
77.666	13.916	1312.579	983.921
78.680	14.005	1311.283	983.387
79.695	14.020	1310.839	983.057
80.709	13.830	1310.762	981.789
81.724	13.985	1309.451	981.636
82.739	14.173	1307.911	981.504
83.753	14.070	1307.361	980.393
84.768	14.115	1306.533	979.953
85.782	14.227	1304.842	979.259
86.797	14.191	1303.659	978.074
87.812	14.193	1302.690	977.272
88.826	14.137	1301.525	975.982
89.841	14.047	1301.148	975.081
90.855	14.145	1299.817	974.571
91.870	14.148	1298.832	973.766
92.884	14.130	1298.082	973.013
93.899	14.211	1297.126	972.687
94.914	14.288	1296.039	972.232
95.928	14.229	1295.501	971.398
96.943	14.215	1294.594	970.553
97.957	14.116	1294.302	969.671
98.972	14.233	1292.316	968.779
99.987	14.229	1291.256	967.875
101.001	14.148	1290.876	967.033
102.016	14.180	1289.582	966.161
103.030	14.233	1288.529	965.594
104.045	14.199	1288.107	964.995
105.060	14.180	1286.706	963.754
106.074	14.198	1285.471	962.843
107.089	14.053	1284.587	961.257
108.103	14.094	1282.958	960.190
109.118	14.110	1281.630	959.203
110.133	14.052	1280.466	957.914
111.147	14.127	1279.257	957.359
112.162	14.033	1277.979	955.776
113.176	14.099	1276.787	955.179
114.191	14.128	1275.826	954.540
115.206	14.210	1274.932	954.261
116.220	14.212	1273.278	952.949
117.235	14.130	1272.290	951.653
118.249	14.174	1271.044	950.892
119.264	14.039	1270.494	949.622
120.279	14.095	1269.166	948.866
121.293	14.085	1267.910	947.787
122.308	14.196	1266.866	947.555
123.322	14.080	1265.949	946.124
124.337	14.113	1264.957	945.488
125.352	14.075	1263.868	944.375
126.366	14.029	1262.700	943.156
127.381	14.106	1261.527	942.635
128.395	13.985	1260.715	941.259
129.410	14.009	1259.684	940.541
130.424	14.094	1258.928	940.375
131.439	14.203	1257.727	940.009
132.454	14.139	1257.012	939.029
133.468	14.237	1255.705	938.524
134.483	14.113	1255.592	937.657
135.497	14.217	1254.195	937.116
136.512	14.158	1253.193	935.951
137.527	14.129	1251.207	934.222
138.541	14.181	1249.805	933.388
139.556	14.205	1248.652	932.575
140.570	14.153	1248.022	931.736
141.585	14.268	1246.555	931.196
142.600	14.254	1245.534	930.276
143.614	14.309	1244.357	929.623
144.629	14.307	1243.476	928.868
145.643	14.362	1242.396	928.287
146.658	14.325	1241.119	927.043
147.673	14.253	1240.118	925.814
148.687	14.347	1238.551	925.083
149.702	14.257	1237.449	923.679
150.716	14.189	1236.201	922.289
151.731	14.261	1235.041	921.741
152.746	14.213	1234.007	920.624
153.760	14.276	1233.033	920.165
154.775	14.355	1231.616	919.463
155.789	14.348	1230.388	918.426
156.804	14.350	1229.609	917.771
157.819	14.378	1228.575	917.074
158.833	14.379	1228.007	916.576
159.848	14.436	1226.573	915.736
160.862	14.451	1225.315	914.798
161.877	14.477	1224.002	913.879
162.892	14.369	1223.757	913.021
163.906	14.275	1222.767	911.691
164.921	14.390	1221.728	911.462
165.935	14.373	1220.816	910.611
166.950	14.414	1220.435	910.466
167.964	14.392	1219.762	909.764
168.979	14.451	1218.792	909.286
169.994	14.368	1217.855	908.050
171.008	14.497	1217.141	908.141
172.023	14.484	1216.659	907.633
173.037	14.615	1215.629	907.495
174.052	14.562	1214.720	906.446
175.067	14.491	1213.463	905.043
176.081	14.430	1213.015	904.298
177.096	14.428	1211.820	903.319
178.110	14.478	1210.787	902.738
179.125	14.535	1209.335	901.883
180.140	14.572	1207.853	900.898
181.154	14.692	1206.707	900.613
182.169	14.759	1205.403	899.920
183.183	14.601	1204.849	898.575
184.198	14.641	1203.746	897.891
185.213	14.760	1202.052	897.186
186.227	14.675	1201.342	896.121
187.242	14.752	1200.357	895.721
188.256	14.675	1199.445	894.545
189.271	14.811	1198.671	894.617
190.286	14.664	1197.662	892.998
191.300	14.629	1197.005	892.245
192.315	14.569	1196.473	891.449
193.329	14.538	1195.728	890.645
194.344	14.620	1195.258	890.658
195.359	14.707	1194.282	890.313
196.373	14.774	1193.674	890.138
197.388	14.776	1193.214	889.725
198.402	14.808	1193.020	889.677
199.417	14.812	1192.096	888.929
200.432	14.926	1190.943	888.594
201.446	15.012	1190.124	888.360
202.461	14.997	1189.374	887.643
203.475	14.921	1188.559	886.554
204.490	14.984	1186.818	885.514
205.504	14.957	1185.482	884.295
206.519	15.015	1184.511	883.799
207.534	14.959	1183.602	882.746
208.548	15.011	1182.389	882.037
209.563	14.950	1181.743	881.155
210.577	14.959	1180.899	880.497
211.592	15.017	1180.012	880.063
212.607	15.066	1179.034	879.514
213.621	15.099	1178.570	879.263
214.636	15.156	1177.465	878.659
215.650	15.083	1176.642	877.583
216.665	15.036	1175.723	876.576
217.680	15.136	1174.747	876.294
218.694	15.197	1173.728	875.775
219.709	15.171	1173.366	875.288
220.723	15.058	1172.553	874.017
221.738	15.178	1171.663	873.903
222.753	15.201	1170.895	873.371
223.767	15.211	1170.020	872.691
224.782	15.187	1169.708	872.256
225.796	15.251	1168.828	871.856
226.811	15.374	1167.771	871.629
227.826	15.279	1167.482	870.847
228.840	15.215	1166.917	870.016
229.855	15.283	1166.200	869.756
230.869	15.221	1165.149	868.575
231.884	15.292	1164.326	868.252
232.899	15.290	1163.774	867.751
233.913	15.145	1163.039	866.377
234.928	15.190	1162.368	866.034
235.942	15.220	1161.451	865.428
236.957	15.200	1160.887	864.829
237.972	15.276	1159.836	864.360
238.986	15.284	1159.216	863.863
240.001	15.419	1158.290	863.790
241.015	15.324	1157.518	862.650
242.030	15.461	1156.483	862.507
243.045	15.415	1155.996	861.831
244.059	15.401	1155.234	861.112
245.074	15.476	1154.698	861.026
246.088	15.537	1153.404	860.296
247.103	15.495	1152.867	859.605
248.117	15.497	1152.170	859.017
249.132	15.550	1151.528	858.736
250.147	15.567	1150.719	858.144
251.161	15.619	1150.134	857.894
252.176	15.728	1149.226	857.700
253.190	15.654	1148.591	856.771
254.205	15.672	1148.430	856.669
255.220	15.675	1147.587	855.980
256.234	15.746	1147.064	855.872
257.249	15.777	1146.003	855.163
258.263	15.681	1145.327	854.096
259.278	15.853	1144.699	854.427
260.293	15.804	1144.716	854.114
261.307	15.873	1143.887	853.770
262.322	15.862	1142.779	852.810
263.336	15.921	1142.426	852.771
264.351	15.888	1141.941	852.166
265.366	15.922	1141.249	851.746
266.380	15.910	1140.566	851.102
267.395	15.912	1139.526	850.259
268.409	15.817	1139.121	849.404
269.424	15.998	1138.271	849.605
270.439	15.984	1137.793	849.103
271.453	15.945	1137.032	848.264
272.468	15.916	1135.728	847.072
273.482	15.935	1135.212	846.707
274.497	15.937	1135.016	846.497
275.512	16.081	1133.791	846.229
276.526	15.999	1133.300	845.376
277.541	16.001	1132.846	844.975
278.555	16.092	1131.979	844.705
279.570	16.149	1130.959	844.159
280.585	16.157	1130.322	843.645
281.599	16.157	1129.120	842.676
282.614	16.114	1128.598	841.998
283.628	16.121	1127.462	841.109
284.643	16.228	1126.420	840.789
285.657	16.088	1126.021	839.719
286.672	16.061	1125.095	838.824
287.687	16.164	1124.136	838.545
288.701	16.155	1123.223	837.744
289.716	16.268	1122.449	837.656
290.730	16.235	1122.238	837.259
291.745	16.329	1120.948	836.691
292.760	16.263	1120.484	835.943
293.774	16.332	1120.075	835.905
294.789	16.359	1119.191	835.305
295.803	16.389	1118.930	835.181
296.818	16.308	1118.196	834.161
297.833	16.400	1117.105	833.726
298.847	16.290	1116.495	832.656
299.862	16.388	1115.654	832.436
300.876	16.373	1115.496	832.173
301.891	16.479	1114.509	831.885
302.906	16.444	1113.841	831.141
303.920	16.534	1112.798	830.732
304.935	16.523	1113.000	830.754
305.949	16.657	1111.746	830.404
306.964	16.542	1111.334	829.457
307.979	16.535	1110.764	828.923
308.993	16.559	1110.038	828.426
310.008	16.600	1108.774	827.610
311.022	16.625	1108.667	827.578
312.037	16.576	1107.737	826.571
313.052	16.568	1106.828	825.778
314.066	16.657	1105.421	825.093
315.081	16.604	1104.839	824.327
316.095	16.604	1104.250	823.814
317.110	16.554	1103.838	823.192
318.125	16.518	1103.022	822.332
319.139	16.558	1102.503	822.068
320.154	16.607	1101.430	821.432
321.168	16.708	1100.614	821.244
322.183	16.650	1100.006	820.437
323.197	16.736	1099.230	820.201
324.212	16.642	1098.707	819.283
325.227	16.678	1098.255	819.049
326.241	16.614	1097.904	818.403
327.256	16.746	1096.493	817.918
328.270	16.766	1095.758	817.394
329.285	16.767	1094.846	816.645
330.300	16.644	1094.235	815.522
331.314	16.691	1093.296	814.979
332.329	16.756	1092.279	814.460
333.343	16.879	1091.433	814.349
334.358	16.907	1090.501	813.716
335.373	16.906	1090.385	813.552
336.387	16.871	1089.483	812.638
337.402	16.959	1088.542	812.288
338.416	16.843	1088.173	811.385
339.431	16.992	1087.200	811.298
340.446	16.951	1086.641	810.616
341.460	17.013	1086.056	810.403
342.475	17.089	1084.864	809.805
343.489	17.071	1083.980	808.988
344.504	17.151	1082.948	808.526
345.519	17.054	1082.507	807.665
346.533	17.165	1081.334	807.246
347.548	17.206	1080.620	806.835
348.562	17.178	1080.297	806.390
349.577	17.172	1079.380	805.605
350.592	17.101	1078.485	804.530
351.606	17.120	1078.018	804.202
352.621	17.061	1077.287	803.307
353.635	17.191	1076.042	802.917
354.650	17.114	1075.910	802.386
355.665	17.162	1075.189	802.004
356.679	17.224	1074.684	801.849
357.694	17.176	1074.021	801.056
358.708	17.155	1073.603	800.576
359.723	17.269	1072.659	800.339
360.738	17.266	1071.969	799.736
361.752	17.329	1071.548	799.649
362.767	17.256	1070.993	798.823
363.781	17.251	1070.272	798.190
364.796	17.407	1069.659	798.393
365.810	17.341	1069.312	797.753
366.825	17.355	1068.800	797.368
367.840	17.555	1068.345	797.894
368.854	17.572	1067.264	797.094
369.869	17.408	1067.213	796.218
370.883	17.514	1066.156	795.855
371.898	17.433	1065.017	794.559
372.913	17.516	1064.539	794.517
373.927	17.614	1063.633	794.228
374.942	17.636	1063.329	794.033
375.956	17.590	1062.955	793.469
376.971	17.541	1062.663	792.955
377.986	17.602	1062.056	792.713
379.000	17.636	1061.441	792.343
380.015	17.711	1060.700	792.067
381.029	17.715	1060.079	791.554
382.044	17.782	1059.308	791.219
383.059	17.663	1058.999	790.365
384.073	17.815	1057.601	789.957
385.088	17.817	1057.071	789.498
386.102	17.697	1056.602	788.525
387.117	17.684	1055.261	787.396
388.132	17.805	1054.439	787.269
389.146	17.656	1053.400	785.735
390.161	17.662	1052.967	785.373
391.175	17.790	1052.081	785.230
392.190	17.794	1051.446	784.708
393.205	17.845	1050.638	784.269
394.219	17.892	1049.639	783.668
395.234	17.857	1048.523	782.604
396.248	17.841	1047.545	781.733
397.263	17.757	1046.984	780.862
398.278	17.747	1046.352	780.274
399.292	17.848	1045.466	780.008
400.307	17.775	1044.878	779.165
401.321	17.831	1044.481	779.058
402.336	17.888	1043.766	778.713
403.350	17.899	1043.118	778.213
404.365	17.883	1042.411	777.542
405.380	17.914	1041.439	776.888
406.394	18.081	1041.033	777.276
407.409	18.044	1040.105	776.350
408.423	18.047	1039.613	775.924
409.438	18.035	1038.677	775.104
410.453	18.110	1037.953	774.836
411.467	18.147	1037.229	774.391
412.482	18.191	1036.627	774.076
413.496	18.227	1035.946	773.662
414.511	18.130	1035.529	772.841
415.526	18.227	1034.894	772.739
416.540	18.221	1034.926	772.666
417.555	18.351	1033.725	772.289
418.569	18.254	1033.075	771.297
419.584	18.255	1032.883	771.088
420.599	18.308	1032.312	770.834
421.613	109.392	1326.591	1485.601
422.628	100.285	1369.426	1485.683
