DTS Sentinel unit serial number:	SN413079Multiplexer serial number:	ORYXHardware model number:	OX4-SRSoftware version number:	ORYX F/W v4.00 Oryx Data Collector v3.7.2.0data status	okinstallation	princeton_trtdifferential loss correction	single-endedforward channel	channel 2reverse channel	N/Adate	2019/09/12time	18:23:49forward acquisition time	15.00reverse acquisition time	0.00gamma	496.2192k internal	0.2324k external	0.2324temperature offset calibration	1.0137default loss term (dB/km)	0.3790temperature slope calibration	1.0000multiplexer offset coefficient	1.0000multiplexer slope coefficient	1.0000fibre end	0.00T internal ref (°C)	33.37T ext. ref 1 (°C)	3.05T ext. ref 2 (°C)	27.97length (m)	temperature (°C)	Stokes	anti-Stokes-747.200	-27.083	-0.089	-0.052
-746.185	56.010	0.741	-0.726
-745.171	800.000	-0.163	-0.575
-744.156	-82.765	-0.231	-0.075
-743.142	-38.033	-0.881	0.472
-742.127	-139.551	-0.215	-0.023
-741.112	-32.803	-0.794	0.445
-740.098	-200.000	-0.111	0.693
-739.083	-200.000	-0.058	-0.306
-738.069	242.665	0.230	-0.388
-737.054	138.077	-0.517	0.684
-736.039	6.335	0.345	-0.259
-735.025	-200.000	0.002	0.604
-734.010	276.853	-0.171	-0.307
-732.996	22.978	-0.227	0.188
-731.981	800.000	0.075	0.295
-730.966	176.891	-0.249	-0.366
-729.952	-18.059	0.331	0.209
-728.937	307.203	0.193	-0.363
-727.923	85.231	0.037	0.041
-726.908	-23.591	0.597	-0.361
-725.894	800.000	0.230	-0.997
-724.879	4.644	-0.224	0.166
-723.864	800.000	0.154	-0.595
-722.850	-46.395	-0.380	0.188
-721.835	63.855	-0.410	-0.415
-720.821	-200.000	-0.034	-1.059
-719.806	800.000	-0.170	-0.564
-718.791	-200.000	0.004	0.094
-717.777	-171.345	-0.457	-0.015
-716.762	204.709	-0.371	-0.580
-715.748	-200.000	-0.044	-0.269
-714.733	-153.668	-0.704	0.049
-713.718	-200.000	-0.006	0.233
-712.704	-117.647	0.610	-0.111
-711.689	-45.942	0.840	-0.418
-710.675	800.000	0.033	0.113
-709.660	-56.581	-0.430	-0.192
-708.645	-131.731	-0.342	0.045
-707.631	115.840	-0.348	-0.429
-706.616	-52.166	-1.072	-0.501
-705.602	248.477	0.093	-0.158
-704.587	-185.609	0.577	-0.009
-703.572	269.581	0.107	0.189
-702.558	-136.085	-0.078	0.009
-701.543	-28.281	-0.347	-0.202
-700.529	-26.307	0.368	-0.218
-699.514	418.106	0.488	1.051
-698.499	-11.328	-0.240	0.159
-697.485	83.333	-0.203	0.223
-696.470	-200.000	0.030	-0.616
-695.456	-200.000	0.018	-0.149
-694.441	-20.572	0.087	0.054
-693.426	-107.081	0.119	0.026
-692.412	800.000	-0.067	-0.286
-691.397	-62.673	0.611	-0.255
-690.383	-31.383	-0.249	-0.141
-689.368	-86.203	0.646	-0.201
-688.354	-19.382	-0.250	-0.156
-687.339	-68.259	-0.184	-0.072
-686.324	-101.347	0.610	0.150
-685.310	5.669	-0.353	0.263
-684.295	-200.000	0.042	0.478
-683.281	-161.469	-1.018	-0.053
-682.266	34.585	0.796	0.700
-681.251	124.701	0.861	-1.091
-680.237	349.555	-0.351	-0.697
-679.222	-159.141	-0.281	0.016
-678.208	-88.514	-0.934	0.280
-677.193	-10.904	0.476	0.316
-676.178	800.000	0.168	0.492
-675.164	-200.000	-0.066	0.373
-674.149	-51.262	-0.377	0.178
-673.135	800.000	0.283	-0.834
-672.120	12.517	-0.590	-0.458
-671.105	267.780	-0.116	-0.205
-670.091	-40.387	0.707	-0.370
-669.076	-143.938	0.569	0.054
-668.062	-200.000	0.019	-0.250
-667.047	-10.957	0.579	-0.385
-666.032	800.000	0.127	0.399
-665.018	701.001	-0.152	0.402
-664.003	82.212	0.470	-0.513
-662.989	800.000	0.157	-0.447
-661.974	800.000	-0.076	0.304
-660.959	-111.362	0.205	0.042
-659.945	-200.000	0.065	-0.787
-658.930	6.313	0.605	0.451
-657.916	-175.475	0.366	0.010
-656.901	73.282	-0.226	0.238
-655.886	270.080	0.200	-0.354
-654.872	800.000	-0.236	0.663
-653.857	-144.705	0.745	-0.069
-652.843	-133.154	-0.282	-0.036
-651.828	-200.000	-0.002	-0.592
-650.814	212.995	-0.683	1.084
-649.799	108.623	-0.711	-0.854
-648.784	112.309	-0.469	0.570
-647.770	-200.000	-0.228	0.001
-646.755	800.000	-0.079	0.254
-645.741	-128.526	-0.549	0.078
-644.726	-145.829	0.175	0.016
-643.711	224.053	-0.082	0.134
-642.697	-31.422	0.637	-0.360
-641.682	240.833	-0.435	0.731
-640.668	-124.439	0.569	-0.089
-639.653	-51.722	0.549	0.257
-638.638	-57.175	-0.294	0.130
-637.624	28.517	-0.214	0.182
-636.609	-162.227	-0.677	-0.034
-635.595	-32.394	-0.092	-0.051
-634.580	-200.000	-0.092	1.059
-633.565	210.390	0.593	0.936
-632.551	10.929	-0.528	-0.405
-631.536	180.811	-0.499	-0.736
-630.522	-84.769	-0.250	0.079
-629.507	-53.472	0.476	-0.219
-628.492	365.789	-0.069	0.140
-627.478	800.000	-0.154	-0.551
-626.463	-200.000	0.025	-0.329
-625.449	-118.842	-0.480	-0.085
-624.434	505.408	0.269	-0.627
-623.419	236.301	0.349	-0.580
-622.405	800.000	-0.353	-1.165
-621.390	-35.261	0.077	0.042
-620.376	800.000	-0.220	0.627
-619.361	-200.000	-0.129	1.436
-618.346	11.717	0.972	0.750
-617.332	531.110	-0.223	0.530
-616.317	-85.698	0.234	-0.073
-615.303	18.323	-0.268	0.215
-614.288	-107.716	0.404	-0.088
-613.273	-200.000	0.019	-0.196
-612.259	-28.229	1.037	0.602
-611.244	-147.742	-0.094	0.008
-610.230	-200.000	-0.052	1.157
-609.215	243.123	0.261	-0.439
-608.201	-200.000	-0.008	0.139
-607.186	-69.867	-1.279	-0.490
-606.171	9.775	0.689	-0.524
-605.157	-26.479	0.214	-0.126
-604.142	-26.003	-0.382	-0.226
-603.128	-200.000	-0.019	-0.647
-602.113	389.943	-0.516	-1.073
-601.098	131.761	-0.437	0.564
-600.084	-103.681	-0.325	-0.076
-599.069	-146.515	-0.747	-0.065
-598.055	-103.392	-0.159	-0.038
-597.040	540.527	-0.159	0.379
-596.025	200.654	0.359	0.554
-595.011	144.448	0.511	-0.685
-593.996	-30.610	-0.203	0.115
-592.982	-68.882	0.536	-0.208
-591.967	-200.000	-0.002	0.431
-590.952	-76.134	0.566	0.200
-589.938	800.000	-0.099	0.417
-588.923	-70.612	-0.362	-0.137
-587.909	-200.000	-0.045	-0.386
-586.894	800.000	0.244	-0.865
-585.879	-62.175	-0.391	-0.164
-584.865	-120.440	0.218	0.037
-583.850	-52.587	0.586	-0.272
-582.836	-200.000	0.112	0.946
-581.821	-200.000	-0.032	0.320
-580.806	73.169	0.351	0.368
-579.792	-36.244	-0.292	-0.158
-578.777	127.317	-0.421	-0.536
-577.763	-140.343	-0.438	0.046
-576.748	-37.553	-0.182	0.098
-575.733	119.515	0.371	-0.460
-574.719	432.253	-0.127	0.275
-573.704	-200.000	-0.038	-0.293
-572.690	-54.848	0.491	-0.222
-571.675	-69.639	0.336	0.129
-570.661	-200.000	-0.002	-0.348
-569.646	-105.768	-0.395	0.090
-568.631	656.872	-0.188	-0.485
-567.617	15.540	0.450	-0.354
-566.602	81.774	0.272	0.295
-565.588	-200.000	0.003	-0.183
-564.573	800.000	0.189	0.646
-563.558	438.456	0.169	-0.370
-562.544	-126.048	-0.177	-0.027
-561.529	-99.953	-0.747	-0.187
-560.515	70.707	-0.632	-0.656
-559.500	800.000	0.056	-0.230
-558.485	800.000	-0.035	0.100
-557.471	-149.425	-0.424	0.034
-556.456	469.711	-0.152	0.343
-555.442	791.714	0.333	0.919
-554.427	-104.339	1.380	0.321
-553.412	-1.820	0.251	-0.177
-552.398	-200.000	-0.012	0.294
-551.383	172.703	0.663	-0.956
-550.369	39.437	-0.406	0.364
-549.354	126.310	-0.159	-0.201
-548.339	459.379	-0.066	0.146
-547.325	-35.288	-0.842	-0.459
-546.310	-180.980	0.759	-0.015
-545.296	-162.728	-0.332	0.016
-544.281	-200.000	-0.006	-0.143
-543.266	-200.000	-0.110	0.493
-542.252	800.000	0.152	-0.521
-541.237	560.843	0.046	0.110
-540.223	-20.245	-0.657	0.405
-539.208	101.016	0.251	-0.293
-538.193	333.929	0.170	0.329
-537.179	-5.469	0.247	0.170
-536.164	99.914	-0.189	0.220
-535.150	56.328	0.429	-0.417
-534.135	-103.875	0.370	-0.087
-533.121	800.000	0.165	-0.606
-532.106	800.000	0.106	0.419
-531.091	-200.000	-0.006	-0.130
-530.077	-59.168	0.895	-0.386
-529.062	-84.557	0.464	-0.147
-528.048	-200.000	0.013	0.499
-527.033	-169.717	-0.884	-0.032
-526.018	800.000	0.289	-1.258
-525.004	-54.345	-0.422	-0.192
-523.989	-200.000	0.180	0.959
-522.975	-68.021	0.156	-0.061
-521.960	289.375	0.032	-0.059
-520.945	113.722	0.432	0.525
-519.931	800.000	0.067	-0.259
-518.916	244.990	0.155	0.260
-517.902	-79.262	0.434	-0.147
-516.887	-200.000	0.033	0.832
-515.872	222.535	-0.315	0.507
-514.858	-200.000	0.044	-0.336
-513.843	-81.639	-1.309	0.430
-512.829	800.000	-0.162	-0.544
-511.814	467.596	-0.162	-0.363
-510.799	-200.000	-0.038	-0.324
-509.785	-61.350	-0.571	-0.240
-508.770	-200.000	-0.003	0.990
-507.756	274.685	-0.392	-0.695
-506.741	-200.000	0.080	0.643
-505.726	152.306	-0.141	-0.192
-504.712	344.457	-0.153	0.300
-503.697	29.781	-0.950	-0.809
-502.683	-18.325	-0.141	0.088
-501.668	800.000	-0.167	-0.639
-500.653	-102.545	-0.298	0.071
-499.639	-169.550	0.162	-0.006
-498.624	19.311	-0.512	0.411
-497.610	-50.666	-0.281	0.132
-496.595	-11.783	0.220	-0.144
-495.581	-131.192	0.340	0.045
-494.566	-48.328	0.643	-0.310
-493.551	-127.070	0.816	0.120
-492.537	-200.000	-0.070	0.379
-491.522	111.115	-0.344	-0.414
-490.508	-200.000	0.020	0.471
-489.493	97.368	0.226	-0.260
-488.478	104.624	0.493	-0.580
-487.464	800.000	-0.188	0.652
-486.449	-170.110	0.516	0.018
-485.435	13.659	-0.385	-0.299
-484.420	-94.362	-0.220	-0.060
-483.405	-200.000	0.103	0.599
-482.391	-145.626	0.691	0.062
-481.376	-128.408	-1.187	0.169
-480.362	-200.000	-0.030	-0.321
-479.347	-24.023	1.028	0.614
-478.332	800.000	-0.210	0.592
-477.318	-40.685	0.545	0.282
-476.303	-137.440	0.810	-0.092
-475.289	26.589	0.404	-0.338
-474.274	167.147	-0.307	0.435
-473.259	-158.581	-0.332	0.019
-472.245	176.694	0.514	-0.747
-471.230	-87.694	-0.101	-0.030
-470.216	-164.823	0.696	0.031
-469.201	-200.000	0.059	0.658
-468.186	800.000	-0.160	-0.482
-467.172	41.026	-0.241	-0.217
-466.157	32.946	-0.274	-0.237
-465.143	170.324	-0.550	0.786
-464.128	-182.457	0.587	0.011
-463.113	-156.751	0.517	0.032
-462.099	-200.000	-0.078	-0.672
-461.084	-123.798	-0.411	0.065
-460.070	-200.000	-0.073	0.670
-459.055	-63.644	0.959	0.393
-458.040	-200.000	-0.011	-0.090
-457.026	-167.964	-0.626	-0.024
-456.011	677.648	0.264	-0.686
-454.997	-72.403	-0.300	-0.111
-453.982	-2.579	0.053	-0.037
-452.968	-76.464	0.739	-0.259
-451.953	-101.652	-0.676	0.164
-450.938	76.338	-0.558	0.590
-449.924	-107.407	0.172	-0.038
-448.909	-99.552	1.112	0.279
-447.895	115.366	0.357	0.435
-446.880	-66.965	-0.059	0.023
-445.865	15.877	0.376	0.295
-444.851	-166.868	0.826	-0.034
-443.836	-200.000	0.064	0.481
-442.822	69.237	-0.995	1.021
-441.807	-104.625	-0.607	0.140
-440.792	452.471	0.270	-0.596
-439.778	0.645	0.638	-0.455
-438.763	-200.000	-0.020	-0.110
-437.749	-27.774	-0.364	-0.211
-436.734	800.000	-0.084	-0.300
-435.719	296.154	0.160	0.293
-434.705	127.176	0.558	0.705
-433.690	518.749	0.057	-0.132
-432.676	470.727	0.340	-0.762
-431.661	-135.411	-0.624	-0.074
-430.646	800.000	-0.212	0.640
-429.632	450.769	0.120	-0.265
-428.617	-43.301	0.258	0.130
-427.603	228.591	-0.273	-0.444
-426.588	17.207	0.668	0.528
-425.573	-200.000	-0.074	0.645
-424.559	-137.040	0.508	-0.058
-423.544	244.075	-0.364	0.609
-422.530	53.547	-0.214	0.205
-421.515	512.093	-0.277	0.642
-420.500	47.489	-0.582	0.541
-419.486	767.946	0.203	0.551
-418.471	-40.082	0.536	-0.278
-417.457	-12.346	-0.638	-0.416
-416.442	800.000	0.264	-0.821
-415.428	217.854	-0.137	0.218
-414.413	-200.000	-0.046	0.272
-413.398	-28.466	-0.633	-0.364
-412.384	235.662	-0.469	0.772
-411.369	-200.000	-0.022	-0.141
-410.355	-150.651	-0.358	-0.027
-409.340	800.000	-0.136	-0.496
-408.325	336.964	0.501	-0.970
-407.311	-113.427	0.630	-0.123
-406.296	-200.000	0.054	0.660
-405.282	163.559	0.222	-0.311
-404.267	-200.000	-0.215	-0.972
-403.252	-24.454	-0.246	0.146
-402.238	-200.000	-0.079	0.454
-401.223	30.679	-0.338	-0.288
-400.209	-45.014	-0.234	-0.116
-399.194	-200.000	-0.109	-0.582
-398.179	-200.000	-0.059	-0.319
-397.165	1.956	-0.509	-0.366
-396.150	-108.508	0.319	-0.068
-395.136	332.189	-0.095	-0.183
-394.121	617.619	-0.226	-0.565
-393.106	114.511	0.371	0.449
-392.092	131.308	-0.164	0.210
-391.077	-27.148	-0.329	-0.191
-390.063	-200.000	0.103	-0.497
-389.048	95.256	-0.420	0.477
-388.033	350.469	0.208	0.410
-387.019	800.000	-0.176	-0.494
-386.004	-19.962	0.433	0.266
-384.990	-200.000	0.010	-0.045
-383.975	29.648	-0.734	0.622
-382.960	329.505	0.230	-0.441
-381.946	166.191	-0.227	-0.320
-380.931	-56.194	0.218	0.096
-379.917	137.702	0.313	0.408
-378.902	-200.000	0.033	-0.292
-377.888	-70.595	-0.613	-0.231
-376.873	800.000	0.068	0.260
-375.858	83.677	-0.245	0.266
-374.844	800.000	-0.040	0.150
-373.829	-58.516	-0.725	-0.313
-372.815	-103.458	-0.943	0.221
-371.800	-59.877	0.336	-0.143
-370.785	800.000	0.124	0.383
-369.771	-106.603	-0.816	-0.181
-368.756	0.679	-0.396	0.282
-367.742	-106.717	0.341	0.075
-366.727	7.511	0.687	0.511
-365.712	96.017	-0.244	0.278
-364.698	299.833	0.457	0.838
-363.683	21.868	-0.707	0.573
-362.669	-115.642	0.455	0.085
-361.654	512.288	-0.124	-0.287
-360.639	-68.889	-0.812	-0.312
-359.625	19.353	0.246	0.196
-358.610	57.738	0.292	0.284
-357.596	22.682	0.427	-0.348
-356.581	-66.757	-0.985	0.388
-355.566	681.994	0.203	0.527
-354.552	1.470	-0.577	-0.413
-353.537	-33.632	0.488	-0.268
-352.523	-112.059	-0.719	0.144
-351.508	-41.701	0.195	0.100
-350.493	-200.000	-0.061	-0.287
-349.479	34.826	-0.393	-0.342
-348.464	174.048	0.633	0.909
-347.450	-200.000	-0.187	-0.847
-346.435	-200.000	0.010	-0.700
-345.420	-103.897	1.032	0.240
-344.406	639.408	-0.200	0.506
-343.391	137.853	-0.362	-0.471
-342.377	-25.271	-0.675	-0.397
-341.362	-200.000	-0.020	-0.288
-340.348	-200.000	0.102	0.830
-339.333	-17.984	-0.345	-0.215
-338.318	-132.800	-0.177	0.022
-337.304	-107.167	0.278	-0.061
-336.289	38.992	0.282	-0.251
-335.275	-94.824	-0.746	-0.201
-334.260	800.000	-0.200	0.789
-333.245	-3.652	-0.453	-0.312
-332.231	-152.757	-0.774	-0.055
-331.216	110.023	0.519	0.619
-330.202	-14.799	-0.537	-0.342
-329.187	-200.000	-0.155	-0.842
-328.172	-80.835	0.843	-0.278
-327.158	-101.393	0.147	0.036
-326.143	-73.122	-0.770	-0.280
-325.129	800.000	-0.223	0.947
-324.114	231.783	0.152	-0.248
-323.099	-200.000	-0.006	0.653
-322.085	-200.000	0.208	1.128
-321.070	123.721	-0.204	-0.255
-320.056	-200.000	-0.012	-0.625
-319.041	60.550	-0.251	-0.247
-318.026	-45.657	-0.597	-0.293
-317.012	800.000	0.266	-0.746
-315.997	-78.291	0.644	0.220
-314.983	451.011	-0.116	-0.253
-313.968	-102.741	-0.710	-0.168
-312.953	281.579	-0.250	-0.444
-311.939	-79.567	-0.227	0.076
-310.924	-200.000	-0.095	0.755
-309.910	800.000	-0.140	-0.560
-308.895	800.000	0.190	0.531
-307.880	45.408	0.187	0.171
-306.866	-142.027	-0.278	-0.028
-305.851	577.501	0.271	-0.657
-304.837	-200.000	0.013	-0.239
-303.822	62.560	-0.305	-0.302
-302.807	-200.000	-0.081	0.782
-301.793	-200.000	0.065	-0.461
-300.778	-138.707	0.696	-0.075
-299.764	800.000	0.237	-0.748
-298.749	-133.404	-0.684	-0.085
-297.735	-90.844	0.464	-0.133
-296.720	800.000	0.182	-0.785
-295.705	-141.374	0.881	-0.089
-294.691	35.443	0.686	-0.598
-293.676	9.707	-0.281	-0.212
-292.662	800.000	0.291	-0.934
-291.647	113.239	-0.291	-0.350
-290.632	-200.000	-0.112	0.666
-289.618	-88.871	-0.325	0.096
-288.603	-200.000	-0.120	-0.668
-287.589	164.116	0.684	0.956
-286.574	67.723	-0.300	-0.304
-285.559	-77.852	0.491	-0.168
-284.545	-79.056	0.741	-0.250
-283.530	-51.335	0.558	0.259
-282.516	166.163	0.373	-0.524
-281.501	-97.832	-0.818	-0.210
-280.486	-200.000	-0.058	0.968
-279.472	-200.000	-0.035	0.788
-278.457	212.754	-0.169	0.264
-277.443	-13.594	-0.861	-0.553
-276.428	376.911	0.131	-0.266
-275.413	122.144	0.210	0.260
-274.399	59.769	-0.533	0.521
-273.384	148.256	0.886	1.185
-272.370	800.000	0.150	-0.423
-271.355	62.494	-0.339	0.336
-270.340	800.000	-0.098	-0.339
-269.326	169.679	-0.720	1.020
-268.311	124.679	0.075	-0.093
-267.297	-102.136	0.696	-0.166
-266.282	125.263	0.255	0.318
-265.267	-75.706	0.166	0.058
-264.253	800.000	-0.111	-0.344
-263.238	-108.484	-0.394	-0.084
-262.224	-200.000	-0.037	0.463
-261.209	-61.625	0.378	-0.157
-260.195	116.578	-0.338	-0.411
-259.180	-200.000	0.105	1.074
-258.165	-100.402	-0.679	0.167
-257.151	312.543	0.388	-0.721
-256.136	-41.505	0.604	0.308
-255.122	-102.955	-0.223	0.052
-254.107	-103.863	-0.511	0.118
-253.092	-63.483	0.434	0.177
-252.078	44.744	0.711	0.648
-251.063	-123.173	-0.401	0.064
-250.049	-139.417	0.471	-0.050
-249.034	-200.000	0.060	-0.507
-248.019	-189.493	0.667	-0.008
-247.005	-56.415	0.611	0.268
-245.990	322.705	0.313	0.591
-244.976	482.135	0.136	0.307
-243.961	328.619	0.282	0.537
-242.946	62.059	0.253	-0.249
-241.932	-200.000	0.022	-0.148
-240.917	-64.231	-0.382	-0.154
-239.903	166.279	-0.414	-0.580
-238.888	800.000	0.272	-0.813
-237.873	-200.000	-0.047	-0.278
-236.859	230.206	-0.384	0.621
-235.844	-200.000	-0.062	-0.324
-234.830	16.368	0.264	-0.206
-233.815	-85.858	-1.281	0.393
-232.800	-134.776	0.106	-0.013
-231.786	-31.581	0.262	-0.146
-230.771	800.000	0.115	0.357
-229.757	93.904	-0.072	0.080
-228.742	800.000	-0.249	0.760
-227.727	614.033	0.209	0.517
-226.713	-100.297	0.797	0.196
-225.698	60.626	-0.346	-0.339
-224.684	-200.000	0.179	-1.439
-223.669	-200.000	-0.026	-0.514
-222.655	-200.000	0.064	0.586
-221.640	183.585	0.382	-0.558
-220.625	-21.414	-0.438	0.264
-219.611	127.038	0.134	-0.168
-218.596	-155.632	-0.151	-0.010
-217.582	-121.966	-0.558	0.091
-216.567	-20.083	0.279	-0.170
-215.552	21.526	-0.695	-0.559
-214.538	449.415	-0.306	-0.666
-213.523	355.609	-0.093	0.184
-212.509	-91.546	-0.722	0.204
-211.494	-200.000	0.052	0.244
-210.479	25.374	0.359	0.295
-209.465	800.000	0.064	-0.260
-208.450	-95.750	0.241	-0.064
-207.436	800.000	-0.249	0.744
-206.421	800.000	-0.104	0.283
-205.406	-60.942	-0.373	0.156
-204.392	-200.000	-0.074	0.735
-203.377	-200.000	-0.134	0.969
-202.363	-61.695	-0.240	-0.100
-201.348	-200.000	0.001	0.075
-200.333	204.101	-0.450	-0.689
-199.319	-38.716	0.392	-0.205
-198.304	-116.186	1.020	-0.187
-197.290	57.600	0.519	0.501
-196.275	800.000	0.114	-0.321
-195.260	-200.000	0.067	0.472
-194.246	127.432	0.517	0.648
-193.231	-100.797	1.201	0.292
-192.217	220.902	0.228	0.362
-191.202	-126.003	0.575	0.085
-190.187	-200.000	-0.001	-0.178
-189.173	66.460	0.274	0.275
-188.158	-123.275	-0.405	-0.064
-187.144	126.401	0.526	-0.658
-186.129	43.916	-0.318	0.288
-185.114	-200.000	0.108	-0.950
-184.100	0.233	0.751	-0.529
-183.085	-4.475	-0.273	0.187
-182.071	-54.934	0.319	0.142
-181.056	100.420	-0.103	0.118
-180.042	-200.000	-0.054	-0.508
-179.027	-80.534	-0.708	-0.233
-178.012	-5.052	0.351	-0.238
-176.998	-112.888	0.369	0.072
-175.983	-200.000	0.022	0.370
-174.969	-200.000	0.242	1.140
-173.954	-104.659	-0.358	-0.081
-172.939	-200.000	0.128	-0.838
-171.925	32.318	-0.672	-0.573
-170.910	-127.153	0.145	-0.021
-169.896	266.603	-0.394	0.680
-168.881	-16.031	-0.144	-0.090
-167.866	-157.247	0.749	-0.045
-166.852	-139.496	0.681	-0.072
-165.837	167.779	0.456	-0.640
-164.823	153.135	-0.289	-0.390
-163.808	-29.915	0.401	0.225
-162.793	-200.000	-0.015	-0.220
-161.779	-4.235	-0.308	0.210
-160.764	-200.000	0.005	-0.537
-159.750	-200.000	0.064	0.310
-158.735	-32.529	0.127	-0.070
-157.720	-200.000	0.126	-1.059
-156.706	-167.851	-0.385	0.015
-155.691	-200.000	0.049	-0.780
-154.677	-51.509	0.595	-0.274
-153.662	-200.000	-0.086	-0.677
-152.647	240.006	0.115	0.190
-151.633	49.457	-0.647	0.601
-150.618	800.000	0.102	0.317
-149.604	-124.180	1.111	-0.172
-148.589	68.507	-0.810	0.819
-147.574	800.000	0.166	0.690
-146.560	2.227	-0.322	0.230
-145.545	540.226	-0.206	-0.483
-144.531	-200.000	0.061	-0.647
-143.516	42.922	0.152	-0.137
-142.502	603.068	0.084	0.206
-141.487	86.965	-0.459	-0.500
-140.472	800.000	-0.048	0.140
-139.458	-170.381	-1.178	0.041
-138.443	800.000	-0.114	-0.433
-137.429	-149.193	-0.379	-0.030
-136.414	75.899	-0.293	-0.305
-135.399	201.963	-0.426	-0.648
-134.385	-124.233	1.120	0.173
-133.370	800.000	-0.117	0.388
-132.356	359.737	0.216	-0.426
-131.341	-200.000	0.014	-0.077
-130.326	-74.455	0.355	0.126
-129.312	-152.487	0.626	-0.044
-128.297	268.704	-0.246	-0.424
-127.283	656.548	-0.057	-0.143
-126.268	381.623	-0.294	0.596
-125.253	103.389	0.348	0.403
-124.239	-137.180	-0.616	0.069
-123.224	-125.794	0.135	-0.020
-122.210	-200.000	0.033	-0.240
-121.195	-119.643	0.263	0.045
-120.180	-142.896	-0.972	-0.093
-119.166	800.000	-0.205	0.571
-118.151	12.171	-0.170	0.129
-117.137	62.435	0.487	-0.479
-116.122	1.853	0.225	-0.160
-115.107	-44.919	0.571	-0.280
-114.093	34.373	-0.592	0.509
-113.078	17.826	-0.245	0.192
-112.064	800.000	0.110	-0.473
-111.049	121.741	0.393	-0.482
-110.034	172.586	0.267	0.379
-109.020	136.162	-0.386	0.495
-108.005	295.224	-0.527	-0.950
-106.991	205.973	0.250	-0.383
-105.976	-7.547	0.641	0.427
-104.962	345.491	-0.189	0.365
-103.947	-107.270	0.148	0.032
-102.932	-53.440	1.382	0.623
-101.918	150.906	0.287	-0.385
-100.903	62.224	0.064	-0.063
-99.889	800.000	0.171	0.653
-98.874	202.286	-0.368	-0.559
-97.859	-111.333	-0.388	0.078
-96.845	-200.000	0.084	0.981
-95.830	-62.925	-0.621	-0.253
-94.816	-144.367	1.063	-0.097
-93.801	-200.000	0.115	1.026
-92.786	800.000	-0.271	0.915
-91.772	-200.000	0.039	1.030
-90.757	-68.208	-0.659	-0.252
-89.743	-200.000	-0.010	-0.302
-88.728	-25.039	-0.552	0.322
-87.713	314.187	0.286	0.530
-86.699	180.273	-0.118	0.170
-85.684	-101.962	-0.610	-0.145
-84.670	-74.356	-0.784	0.279
-83.655	-97.800	-0.117	-0.030
-82.640	-110.799	0.722	0.146
-81.626	-105.537	0.625	0.139
-80.611	-23.437	-0.351	0.207
-79.597	800.000	0.226	0.728
-78.582	800.000	0.046	-0.170
-77.567	256.557	0.111	-0.188
-76.553	123.063	0.390	-0.480
-75.538	-17.047	-0.316	0.196
-74.524	-138.916	0.568	0.061
-73.509	44.130	0.379	0.342
-72.494	554.861	0.186	-0.441
-71.480	-133.198	0.395	0.049
-70.465	800.000	0.122	0.447
-69.451	-63.519	0.084	-0.034
-68.436	-2.510	0.157	-0.108
-67.422	319.643	0.266	0.497
-66.407	414.372	-0.305	0.639
-65.392	-84.789	0.577	-0.178
-64.378	664.828	-0.033	-0.085
-63.363	230.997	0.432	-0.696
-62.349	426.321	0.593	-1.257
-61.334	353.114	-0.455	-0.888
-60.319	277.775	0.153	0.268
-59.305	464.029	0.251	-0.551
-58.290	210.140	0.730	1.125
-57.276	581.055	0.316	0.760
-56.261	-200.000	96.320	572.041
-55.246	634.944	1373.478	3424.354
-54.232	199.368	2548.282	3839.055
-53.217	111.517	2256.297	2674.210
-52.203	42.654	1885.674	1686.889
-51.188	36.674	1677.975	1456.187
-50.173	34.002	1633.959	1398.311
-49.159	52.317	1681.984	1576.339
-48.144	53.178	1698.463	1598.133
-47.130	36.445	1657.200	1436.223
-46.115	33.360	1644.670	1402.499
-45.100	33.191	1639.879	1397.107
-44.086	33.354	1635.300	1394.353
-43.071	33.482	1632.319	1392.699
-42.057	33.272	1630.705	1389.724
-41.042	33.481	1628.599	1389.408
-40.027	33.040	1628.164	1385.747
-39.013	33.078	1625.975	1384.110
-37.998	33.072	1624.965	1383.146
-36.984	33.411	1622.521	1383.491
-35.969	33.374	1620.945	1381.823
-34.954	33.233	1620.574	1380.421
-33.940	33.520	1617.300	1379.663
-32.925	33.399	1615.891	1377.533
-31.911	33.307	1614.209	1375.377
-30.896	33.364	1612.193	1374.014
-29.881	33.501	1610.298	1373.339
-28.867	33.191	1609.771	1370.590
-27.852	33.343	1608.543	1370.586
-26.838	33.397	1606.845	1369.476
-25.823	33.379	1604.744	1367.504
-24.809	33.482	1603.049	1366.748
-23.794	33.097	1603.010	1363.880
-22.779	33.432	1599.783	1363.492
-21.765	33.462	1598.310	1362.400
-20.750	33.294	1596.558	1359.643
-19.736	33.419	1595.977	1359.997
-18.721	33.489	1594.864	1359.498
-17.706	33.390	1593.334	1357.430
-16.692	33.344	1591.076	1355.123
-15.677	33.458	1589.842	1354.828
-14.663	33.539	1587.345	1353.226
-13.648	33.372	1586.899	1351.600
-12.633	33.521	1585.012	1351.004
-11.619	33.599	1583.424	1350.153
-10.604	33.544	1582.347	1348.790
-9.590	33.162	1582.662	1346.285
-8.575	33.483	1580.122	1346.354
-7.560	33.606	1578.035	1345.395
-6.546	33.287	1579.171	1344.040
-5.531	33.463	1577.187	1343.546
-4.517	33.476	1575.899	1342.493
-3.502	33.417	1574.871	1341.143
-2.487	33.553	1572.213	1339.787
-1.473	33.275	1560.216	1327.558
-0.458	30.433	1540.805	1291.267
0.556	27.728	1541.459	1257.621
1.571	24.907	1565.686	1257.494
2.586	24.421	1577.743	1263.627
3.600	21.706	1524.194	1202.029
4.615	12.436	1415.778	1057.077
5.629	4.814	1349.754	960.807
6.644	3.380	1341.584	946.107
7.659	3.001	1340.950	943.254
8.673	2.907	1339.237	941.388
9.688	2.913	1337.716	940.272
10.702	2.843	1334.087	937.211
11.717	6.174	1340.911	962.334
12.731	15.933	1359.020	1035.520
13.746	23.729	1371.842	1093.389
14.761	25.839	1373.698	1107.764
15.775	26.063	1374.941	1110.047
16.790	26.204	1374.037	1110.085
17.804	26.275	1373.100	1109.661
18.819	26.413	1372.245	1109.719
19.834	26.389	1372.558	1109.731
20.848	26.733	1371.442	1110.837
21.863	26.405	1370.352	1107.847
22.877	26.618	1370.690	1109.325
23.892	26.723	1368.259	1107.902
24.907	26.661	1368.365	1107.514
25.921	26.506	1367.574	1105.825
26.936	26.619	1365.801	1104.983
27.950	26.750	1364.985	1105.029
28.965	26.626	1364.047	1103.412
29.980	26.602	1363.056	1102.369
30.994	26.677	1361.937	1101.823
32.009	26.555	1360.881	1100.130
33.023	26.647	1359.688	1099.624
34.038	26.785	1357.581	1098.658
35.053	26.435	1358.234	1096.972
36.067	26.462	1356.730	1095.821
37.082	26.843	1355.539	1097.065
38.096	26.513	1355.768	1095.159
39.111	26.645	1355.206	1095.408
40.126	26.490	1353.307	1092.838
41.140	26.858	1351.958	1093.874
42.155	26.729	1352.524	1093.455
43.169	26.686	1352.581	1093.144
44.184	26.497	1352.134	1091.547
45.199	26.554	1352.454	1092.051
46.213	26.747	1350.806	1091.790
47.228	26.728	1350.285	1091.154
48.242	26.456	1349.907	1089.117
49.257	26.845	1348.432	1090.166
50.271	26.998	1345.309	1088.466
51.286	26.537	1346.871	1086.863
52.301	26.778	1343.951	1085.858
53.315	26.646	1343.533	1084.635
54.330	26.705	1342.883	1084.364
55.344	26.758	1341.314	1083.321
56.359	26.913	1339.546	1082.722
57.374	26.753	1339.095	1081.305
58.388	26.588	1339.730	1080.740
59.403	27.023	1337.789	1081.668
60.417	26.794	1337.574	1080.032
61.432	26.757	1336.774	1079.071
62.447	26.734	1336.270	1078.433
63.461	26.910	1335.487	1078.750
64.476	26.900	1333.469	1076.971
65.490	26.807	1333.277	1076.165
66.505	26.798	1331.190	1074.332
67.520	26.630	1331.414	1073.422
68.534	26.777	1328.840	1072.123
69.549	26.793	1328.105	1071.526
70.563	26.761	1327.528	1070.780
71.578	26.899	1326.011	1070.272
72.593	26.793	1326.428	1069.890
73.607	26.831	1325.024	1068.886
74.622	26.813	1324.869	1068.565
75.636	26.798	1323.102	1066.953
76.651	26.853	1322.479	1066.680
77.666	26.912	1322.968	1067.327
78.680	26.984	1321.771	1066.690
79.695	26.926	1321.967	1066.415
80.709	27.168	1319.536	1065.777
81.724	27.048	1318.537	1064.171
82.739	26.983	1318.546	1063.704
83.753	26.884	1318.254	1062.796
84.768	27.091	1316.173	1062.233
85.782	26.954	1314.807	1060.240
86.797	27.081	1313.997	1060.230
87.812	26.816	1313.197	1057.949
88.826	27.036	1311.852	1058.051
89.841	27.120	1310.660	1057.485
90.855	26.959	1309.768	1055.735
91.870	26.871	1309.732	1055.099
92.884	27.026	1308.102	1054.597
93.899	27.031	1307.542	1054.082
94.914	26.965	1306.429	1052.707
95.928	27.033	1305.320	1052.112
96.943	27.103	1304.419	1051.700
97.957	27.153	1304.086	1051.628
98.972	27.205	1303.197	1051.117
99.987	27.049	1302.986	1049.955
101.001	26.893	1302.160	1048.292
102.016	26.938	1300.851	1047.409
103.030	27.210	1299.149	1047.514
104.045	27.161	1299.416	1047.349
105.060	26.793	1299.693	1045.363
106.074	27.309	1296.481	1045.652
107.089	27.225	1295.435	1044.233
108.103	27.010	1296.085	1043.432
109.118	27.420	1293.805	1043.851
110.133	26.810	1294.114	1040.509
111.147	27.038	1291.958	1039.993
112.162	27.111	1290.226	1038.923
113.176	27.076	1290.138	1038.558
114.191	26.998	1288.641	1036.815
115.206	26.885	1288.394	1035.882
116.220	27.136	1286.630	1035.802
117.235	27.261	1285.977	1035.899
118.249	27.005	1285.518	1033.975
119.264	27.095	1284.875	1033.879
120.279	27.439	1283.330	1034.503
121.293	27.210	1282.854	1032.725
122.308	27.522	1281.785	1033.543
123.322	27.325	1281.921	1032.443
124.337	27.411	1280.900	1032.021
125.352	27.355	1279.498	1030.479
126.366	27.509	1277.554	1029.697
127.381	27.254	1276.963	1027.684
128.395	27.019	1277.107	1026.382
129.410	27.184	1276.298	1026.575
130.424	27.506	1275.091	1027.328
131.439	27.265	1275.093	1025.882
132.454	27.463	1273.665	1025.755
133.468	27.285	1273.417	1024.461
134.483	27.322	1272.452	1023.804
135.497	27.221	1272.914	1023.514
136.512	27.430	1270.217	1022.429
137.527	27.348	1269.151	1021.023
138.541	27.374	1267.397	1019.669
139.556	27.163	1267.275	1018.296
140.570	27.366	1265.893	1018.232
141.585	27.229	1264.788	1016.489
142.600	27.301	1264.343	1016.442
143.614	27.355	1263.819	1016.230
144.629	27.463	1261.577	1014.939
145.643	27.164	1261.915	1013.458
146.658	27.151	1261.402	1012.883
147.673	27.322	1259.175	1011.958
148.687	27.539	1257.687	1011.875
149.702	27.276	1257.755	1010.382
150.716	27.042	1256.498	1007.982
151.731	27.304	1255.403	1008.466
152.746	27.641	1253.526	1008.736
153.760	27.525	1253.215	1007.751
154.775	27.408	1252.746	1006.642
155.789	27.459	1251.404	1005.756
156.804	27.149	1251.299	1003.867
157.819	27.605	1249.695	1005.009
158.833	27.504	1248.479	1003.386
159.848	27.575	1248.498	1003.704
160.862	27.453	1247.294	1001.977
161.877	27.725	1245.562	1001.987
162.892	27.587	1245.038	1000.723
163.906	27.408	1246.204	1000.584
164.921	27.459	1245.588	1000.282
165.935	27.307	1244.738	998.679
166.950	27.442	1243.490	998.328
167.964	27.556	1243.176	998.614
168.979	27.385	1242.846	997.321
169.994	27.648	1241.104	997.275
171.008	27.751	1240.921	997.605
172.023	27.566	1240.301	996.004
173.037	27.537	1240.198	995.675
174.052	27.677	1239.327	995.653
175.067	27.604	1236.884	993.205
176.081	27.502	1236.969	992.630
177.096	27.321	1237.166	991.712
178.110	27.641	1235.221	991.805
179.125	27.590	1234.839	991.135
180.140	27.873	1233.126	991.207
181.154	27.506	1232.865	988.921
182.169	27.771	1230.567	988.425
183.183	27.526	1230.255	986.757
184.198	27.750	1229.155	986.999
185.213	27.627	1228.551	985.764
186.227	27.754	1227.305	985.361
187.242	27.412	1227.823	983.845
188.256	27.752	1225.229	983.513
189.271	27.696	1225.114	983.031
190.286	27.588	1225.423	982.611
191.300	27.831	1223.918	982.622
192.315	27.790	1223.227	981.762
193.329	27.860	1223.106	981.953
194.344	27.815	1223.099	981.620
195.359	27.601	1222.694	980.056
196.373	27.719	1221.535	979.673
197.388	27.880	1222.000	980.826
198.402	27.721	1221.223	979.259
199.417	27.927	1220.653	979.823
200.432	27.812	1220.071	978.650
201.446	27.717	1220.056	978.047
202.461	27.835	1218.277	977.164
203.475	28.096	1218.017	978.262
204.490	27.825	1216.692	975.663
205.504	28.003	1215.907	975.901
206.519	27.661	1214.510	972.868
207.534	27.890	1215.143	974.510
208.548	27.696	1214.285	972.703
209.563	27.994	1213.559	973.624
210.577	27.799	1211.667	970.984
211.592	28.097	1210.311	971.390
212.607	28.070	1209.706	970.677
213.621	28.417	1207.732	970.844
214.636	27.784	1209.438	968.772
215.650	28.035	1207.773	968.684
216.665	28.071	1206.087	967.438
217.680	27.938	1205.478	966.157
218.694	27.878	1205.125	965.472
219.709	27.945	1204.225	965.021
220.723	27.769	1203.787	963.656
221.738	28.118	1201.996	963.974
222.753	27.743	1202.633	962.426
223.767	27.872	1202.032	962.537
224.782	27.839	1202.097	962.328
225.796	28.021	1200.852	962.206
226.811	28.060	1199.942	961.600
227.826	28.363	1199.217	962.523
228.840	28.244	1198.451	961.197
229.855	27.929	1198.765	959.713
230.869	28.243	1197.184	960.007
231.884	28.204	1197.124	959.669
232.899	28.180	1196.971	959.334
233.913	27.870	1195.984	956.835
234.928	28.257	1194.646	957.708
235.942	28.401	1194.150	957.975
236.957	28.237	1193.043	956.148
237.972	28.380	1193.289	957.006
238.986	28.096	1193.220	955.385
240.001	28.416	1191.893	955.906
241.015	28.609	1190.215	955.480
242.030	28.290	1189.937	953.510
243.045	28.481	1188.414	953.200
244.059	28.436	1188.901	953.272
245.074	28.362	1188.488	952.474
246.088	28.399	1187.669	951.926
247.103	28.549	1185.604	950.961
248.117	28.457	1186.852	951.400
249.132	28.532	1184.591	949.896
250.147	28.603	1184.776	950.323
251.161	28.382	1184.032	948.504
252.176	28.520	1182.129	947.607
253.190	28.714	1181.701	948.182
254.205	28.606	1181.582	947.444
255.220	28.696	1181.045	947.391
256.234	28.316	1181.705	945.877
257.249	28.352	1180.414	944.944
258.263	28.623	1179.500	945.524
259.278	28.694	1179.206	945.575
260.293	28.382	1179.304	943.959
261.307	28.553	1178.696	944.269
262.322	28.647	1177.816	943.968
263.336	28.462	1177.063	942.330
264.351	28.541	1175.874	941.701
265.366	28.484	1175.535	941.053
266.380	28.523	1175.343	941.014
267.395	28.438	1174.907	940.146
268.409	28.864	1173.020	940.732
269.424	28.458	1173.492	938.950
270.439	28.627	1172.706	939.102
271.453	28.475	1172.666	938.208
272.468	28.619	1171.610	938.018
273.482	28.605	1170.689	937.128
274.497	28.456	1170.383	936.037
275.512	28.725	1169.562	936.673
276.526	28.461	1169.944	935.549
277.541	28.396	1168.980	934.360
278.555	28.886	1167.516	935.601
279.570	28.911	1167.039	935.264
280.585	28.724	1166.570	933.854
281.599	28.670	1165.733	932.831
282.614	28.857	1164.290	932.541
283.628	29.113	1162.724	932.498
284.643	28.788	1162.710	930.760
285.657	28.761	1162.250	930.174
286.672	28.974	1160.787	929.999
287.687	28.667	1161.500	928.934
288.701	28.941	1160.109	929.125
289.716	28.735	1159.661	927.640
290.730	28.896	1158.214	927.212
291.745	28.892	1158.837	927.609
292.760	28.961	1157.026	926.427
293.774	28.733	1157.567	925.627
294.789	28.784	1155.975	924.528
295.803	29.064	1155.218	925.252
296.818	28.960	1155.141	924.585
297.833	29.119	1154.087	924.457
298.847	29.141	1153.101	923.697
299.862	28.953	1152.249	921.988
300.876	29.065	1152.014	922.283
301.891	28.944	1152.158	921.707
302.906	29.258	1149.857	921.355
303.920	28.887	1150.276	919.756
304.935	28.888	1149.859	919.343
305.949	29.260	1149.465	920.806
306.964	28.896	1149.155	918.657
307.979	28.967	1148.836	918.676
308.993	29.097	1147.030	917.802
310.008	29.184	1146.251	917.529
311.022	29.146	1145.823	916.915
312.037	29.403	1144.786	917.281
313.052	29.160	1144.743	915.958
314.066	28.864	1144.087	913.879
315.081	29.262	1142.960	914.876
316.095	29.159	1142.463	913.886
317.110	29.464	1141.739	914.738
318.125	29.096	1140.968	912.219
319.139	29.255	1140.360	912.439
320.154	29.226	1139.542	911.557
321.168	29.218	1139.788	911.635
322.183	29.216	1138.398	910.431
323.197	28.958	1138.997	909.555
324.212	29.030	1137.985	909.021
325.227	29.247	1137.315	909.479
326.241	29.225	1136.734	908.823
327.256	29.222	1136.514	908.553
328.270	29.211	1134.733	906.995
329.285	29.318	1134.442	907.209
330.300	29.097	1134.639	906.197
331.314	29.461	1132.513	906.210
332.329	29.269	1131.862	904.667
333.343	29.623	1131.162	905.762
334.358	29.429	1130.637	904.313
335.373	29.466	1129.622	903.599
336.387	29.367	1129.878	903.239
337.402	29.719	1129.636	904.690
338.416	29.601	1127.977	902.705
339.431	29.403	1127.646	901.390
340.446	29.364	1127.084	900.672
341.460	29.381	1126.528	900.233
342.475	29.699	1124.917	900.412
343.489	29.659	1123.962	899.376
344.504	29.598	1123.664	898.759
345.519	29.391	1122.631	896.849
346.533	29.966	1120.506	897.859
347.548	29.576	1121.440	896.638
348.562	29.860	1121.182	897.728
349.577	29.519	1120.439	895.399
350.592	29.447	1118.895	893.737
351.606	29.638	1118.365	894.161
352.621	29.443	1118.058	892.895
353.635	29.145	1118.270	891.539
354.650	29.645	1116.724	892.646
355.665	29.603	1116.629	892.290
356.679	29.170	1116.886	890.321
357.694	29.695	1115.164	891.403
358.708	29.717	1114.077	890.563
359.723	29.757	1113.089	889.883
360.738	29.509	1113.604	889.022
361.752	29.670	1112.797	889.078
362.767	29.745	1111.790	888.555
363.781	29.652	1111.378	887.701
364.796	29.467	1110.386	885.940
365.810	29.828	1109.087	886.556
366.825	29.855	1109.047	886.573
367.840	29.103	1109.789	883.484
368.854	29.620	1108.774	885.073
369.869	29.610	1107.374	883.828
370.883	29.780	1107.311	884.513
371.898	29.603	1106.466	882.916
372.913	29.848	1106.298	883.871
373.927	29.398	1105.546	881.048
374.942	29.629	1103.477	880.421
375.956	29.475	1104.586	880.490
376.971	29.437	1103.414	879.298
377.986	29.385	1103.526	879.061
379.000	29.427	1102.977	878.747
380.015	29.387	1102.595	878.174
381.029	29.334	1101.847	877.248
382.044	29.575	1099.861	876.732
383.059	29.683	1099.218	876.655
384.073	29.538	1098.099	874.998
385.088	29.534	1097.425	874.367
386.102	29.516	1096.999	873.863
387.117	29.593	1095.443	872.912
388.132	29.417	1095.613	872.139
389.146	29.278	1095.545	871.348
390.161	29.265	1094.269	870.195
391.175	29.479	1092.446	869.676
392.190	29.340	1092.740	869.182
393.205	29.224	1092.806	868.611
394.219	29.166	1092.043	867.651
395.234	29.329	1090.653	867.238
396.248	29.317	1090.419	866.917
397.263	29.188	1088.660	864.838
398.278	29.519	1087.921	865.725
399.292	29.474	1087.564	865.158
400.307	29.105	1088.208	863.858
401.321	29.059	1086.851	862.489
402.336	29.019	1085.804	861.394
403.350	29.144	1085.172	861.401
404.365	28.799	1085.027	859.597
405.380	29.181	1083.749	860.293
406.394	29.060	1082.732	858.844
407.409	29.144	1082.165	858.713
408.423	28.949	1081.932	857.542
409.438	29.310	1080.313	857.864
410.453	29.151	1079.068	856.060
411.467	28.979	1079.097	855.208
412.482	28.952	1078.292	854.367
413.496	29.281	1076.967	854.769
414.511	29.211	1076.930	854.342
415.526	29.257	1076.744	854.332
416.540	29.073	1076.103	852.893
417.555	29.158	1076.464	853.496
418.569	29.209	1075.578	852.958
419.584	28.818	1074.994	850.609
420.599	28.812	1074.619	850.209
421.613	152.629	1405.310	1792.850
422.628	140.693	1453.525	1792.906
