DTS Sentinel unit serial number:	SN413079Multiplexer serial number:	ORYXHardware model number:	OX4-SRSoftware version number:	ORYX F/W v4.00 Oryx Data Collector v3.7.2.0data status	okinstallation	princeton_trtdifferential loss correction	single-endedforward channel	channel 2reverse channel	N/Adate	2019/09/12time	22:43:34forward acquisition time	60.00reverse acquisition time	0.00gamma	496.2192k internal	0.2331k external	0.2331temperature offset calibration	1.0179default loss term (dB/km)	0.3790temperature slope calibration	1.0000multiplexer offset coefficient	1.0000multiplexer slope coefficient	1.0000fibre end	0.00T internal ref (°C)	29.52T ext. ref 1 (°C)	3.75T ext. ref 2 (°C)	24.11length (m)	temperature (°C)	Stokes	anti-Stokes-747.200	-200.000	0.081	0.442
-746.185	252.899	-0.053	0.091
-745.171	-17.962	-0.216	0.136
-744.156	-200.000	0.012	0.412
-743.142	-200.000	0.042	0.206
-742.127	157.536	-0.066	-0.092
-741.112	-98.270	0.101	-0.026
-740.098	-127.098	-0.191	0.028
-739.083	-78.715	0.168	0.058
-738.069	800.000	0.022	0.062
-737.054	-24.962	-0.143	-0.086
-736.039	-8.187	-0.169	0.115
-735.025	-157.728	0.214	-0.013
-734.010	34.587	-0.464	-0.408
-732.996	-135.801	0.220	-0.026
-731.981	-30.935	-0.131	-0.075
-730.966	800.000	0.044	-0.156
-729.952	142.244	-0.097	0.130
-728.937	42.659	-0.301	-0.275
-727.923	-60.148	0.219	0.094
-726.908	645.809	0.097	-0.250
-725.894	-104.592	-0.253	-0.059
-724.879	-200.000	0.076	0.367
-723.864	37.490	-0.195	0.174
-722.850	-143.144	-0.351	-0.034
-721.835	-68.243	0.449	-0.175
-720.821	117.307	-0.102	0.127
-719.806	464.326	-0.075	-0.168
-718.791	-80.177	-0.147	0.049
-717.777	-199.353	0.345	-0.002
-716.762	-3.010	0.225	0.158
-715.748	722.249	0.077	0.206
-714.733	-55.965	-0.131	-0.059
-713.718	576.166	-0.055	0.134
-712.704	-24.072	-0.302	-0.181
-711.689	605.969	0.098	0.247
-710.675	-128.111	-0.419	-0.060
-709.660	-200.000	0.035	-0.206
-708.645	-147.808	-0.109	-0.009
-707.631	-12.349	0.382	-0.251
-706.616	66.852	-0.174	-0.178
-705.602	-81.173	0.363	-0.121
-704.587	-200.000	-0.041	0.340
-703.572	14.726	0.103	0.081
-702.558	800.000	0.060	-0.222
-701.543	-111.232	0.136	0.028
-700.529	63.145	-0.027	-0.027
-699.514	-200.000	0.032	-0.451
-698.499	640.646	-0.178	0.455
-697.485	22.519	-0.152	0.125
-696.470	1.645	0.118	0.085
-695.456	-200.000	-0.056	0.436
-694.441	-200.000	-0.017	0.436
-693.426	-35.800	-0.193	0.105
-692.412	-70.750	0.086	-0.033
-691.397	-117.868	0.148	-0.027
-690.383	-200.000	-0.021	-0.131
-689.368	310.193	-0.039	-0.072
-688.354	-200.000	0.021	-0.242
-687.339	-200.000	0.068	-0.407
-686.324	-200.000	0.015	-0.093
-685.310	37.761	-0.037	0.033
-684.295	-157.946	-0.337	-0.020
-683.281	42.268	0.345	0.314
-682.266	66.498	0.242	0.247
-681.251	63.547	-0.165	-0.166
-680.237	614.104	-0.123	0.309
-679.222	66.515	0.204	0.208
-678.208	113.323	0.315	0.384
-677.193	-75.028	0.106	-0.038
-676.178	109.635	-0.137	0.164
-675.164	800.000	0.074	0.205
-674.149	-200.000	-0.051	-0.232
-673.135	-200.000	0.021	-0.335
-672.120	15.980	-0.182	-0.144
-671.105	-200.000	0.003	-0.199
-670.091	-184.795	-0.338	0.005
-669.076	-132.937	0.194	0.025
-668.062	-11.706	0.315	0.208
-667.047	39.407	-0.210	0.188
-666.032	571.246	-0.097	0.237
-665.018	256.405	0.043	-0.075
-664.003	-87.271	-0.037	-0.011
-662.989	-54.761	0.104	-0.047
-661.974	235.892	-0.062	0.102
-660.959	-200.000	0.006	0.206
-659.945	22.538	-0.266	0.219
-658.930	-108.399	-0.260	0.056
-657.916	-148.477	0.185	0.015
-656.901	100.611	-0.189	-0.220
-655.886	70.218	0.070	-0.072
-654.872	53.629	-0.137	-0.132
-653.857	-149.416	-0.208	-0.017
-652.843	61.570	0.106	0.105
-651.828	-33.792	-0.345	-0.191
-650.814	-200.000	-0.006	-0.254
-649.799	41.260	0.216	0.196
-648.784	-200.000	0.006	-0.138
-647.770	-200.000	-0.040	-0.234
-646.755	175.270	-0.194	-0.282
-645.741	149.426	0.068	0.093
-644.726	500.004	-0.062	-0.144
-643.711	-51.739	-0.134	-0.062
-642.697	25.915	-0.423	0.353
-641.682	441.500	-0.092	-0.201
-640.668	-55.435	0.297	-0.133
-639.653	-200.000	0.029	-0.207
-638.638	3.212	0.198	0.144
-637.624	-92.886	0.238	0.067
-636.609	61.730	-0.104	-0.104
-635.595	207.620	0.096	-0.150
-634.580	119.913	-0.013	-0.016
-633.565	-14.925	-0.306	0.197
-632.551	137.464	0.211	-0.277
-631.536	160.961	-0.010	0.014
-630.522	52.039	-0.119	-0.114
-629.507	-200.000	0.040	-0.180
-628.492	-200.000	-0.039	0.197
-627.478	105.510	-0.123	0.146
-626.463	14.503	-0.124	0.097
-625.449	195.459	0.085	0.130
-624.434	-79.266	-0.184	-0.063
-623.419	27.162	-0.187	0.158
-622.405	234.099	0.063	-0.104
-621.390	-200.000	-0.022	0.205
-620.376	296.932	0.096	0.176
-619.361	-173.618	-0.141	0.004
-618.346	197.603	0.129	-0.197
-617.332	131.683	0.024	-0.031
-616.317	-70.367	0.131	0.050
-615.303	-200.000	0.051	0.259
-614.288	-200.000	0.019	0.124
-613.273	485.620	0.084	-0.191
-612.259	49.086	-0.085	0.080
-611.244	-200.000	0.036	0.253
-610.230	-78.177	0.085	-0.029
-609.215	-200.000	0.038	-0.359
-608.201	800.000	-0.030	-0.108
-607.186	-165.967	-0.258	0.011
-606.171	-83.417	-0.126	0.040
-605.157	-7.725	0.072	0.048
-604.142	-200.000	0.010	-0.068
-603.128	-56.600	0.150	-0.067
-602.113	-117.664	-0.091	0.016
-601.098	-200.000	-0.040	0.228
-600.084	-200.000	-0.005	-0.040
-599.069	-31.406	-0.122	-0.069
-598.055	-200.000	-0.065	-0.327
-597.040	42.872	0.133	-0.122
-596.025	184.048	0.113	-0.168
-595.011	227.122	0.032	0.052
-593.996	46.430	0.084	0.078
-592.982	800.000	0.009	0.032
-591.967	-30.073	-0.246	0.140
-590.952	-80.641	0.267	-0.089
-589.938	69.921	-0.067	-0.070
-588.923	-200.000	0.094	-0.453
-587.909	-119.802	0.177	0.031
-586.894	800.000	0.036	0.150
-585.879	185.882	-0.187	0.278
-584.865	-45.291	0.206	-0.102
-583.850	-46.997	0.234	-0.115
-582.836	8.472	0.274	-0.207
-581.821	133.419	0.070	-0.090
-580.806	800.000	-0.065	-0.197
-579.792	15.611	0.221	0.174
-578.777	-200.000	-0.049	0.304
-577.763	-9.718	0.131	-0.088
-576.748	-200.000	0.047	0.428
-575.733	91.635	0.181	0.203
-574.719	-200.000	-0.096	-0.000
-573.704	-64.226	-0.264	-0.107
-572.690	221.674	0.040	-0.064
-571.675	89.705	-0.230	-0.256
-570.661	62.246	0.138	0.138
-569.646	-181.794	0.137	0.003
-568.631	351.542	-0.222	-0.439
-567.617	382.479	-0.208	-0.427
-566.602	466.584	0.089	-0.200
-565.588	-62.824	0.026	0.011
-564.573	-200.000	0.002	-0.151
-563.558	-103.007	-0.352	-0.084
-562.544	-200.000	-0.011	-0.127
-561.529	-107.375	-0.266	-0.058
-560.515	201.915	-0.102	0.157
-559.500	5.294	0.025	0.018
-558.485	-126.062	0.336	0.050
-557.471	800.000	-0.008	-0.031
-556.456	-184.588	-0.399	0.006
-555.442	800.000	0.072	-0.203
-554.427	-89.993	-0.170	-0.049
-553.412	14.262	-0.213	0.166
-552.398	108.166	0.039	-0.046
-551.383	800.000	0.072	-0.212
-550.369	-25.481	-0.061	-0.036
-549.354	-200.000	-0.021	-0.119
-548.339	410.746	-0.138	0.291
-547.325	-200.000	0.012	-0.053
-546.310	-77.928	-0.099	-0.034
-545.296	-200.000	0.019	0.154
-544.281	84.842	0.154	0.169
-543.266	156.050	0.057	0.078
-542.252	285.646	-0.067	-0.120
-541.237	-10.592	0.039	-0.026
-540.223	-188.577	0.234	-0.003
-539.208	-10.869	-0.102	0.068
-538.193	342.318	-0.061	-0.119
-537.179	-66.010	0.060	-0.024
-536.164	800.000	0.020	-0.078
-535.150	198.706	0.108	-0.165
-534.135	800.000	-0.078	-0.274
-533.121	-75.698	0.268	-0.095
-532.106	-45.385	-0.064	-0.032
-531.091	800.000	-0.052	-0.208
-530.077	151.463	-0.039	-0.053
-529.062	85.010	-0.029	-0.032
-528.048	199.393	0.047	-0.072
-527.033	-200.000	0.050	0.228
-526.018	-118.413	-0.212	-0.038
-525.004	34.194	0.180	0.156
-523.989	-54.762	-0.073	0.033
-522.975	-26.571	0.077	0.045
-521.960	769.570	0.072	0.197
-520.945	292.600	-0.117	0.212
-519.931	-130.412	0.308	-0.042
-518.916	-190.353	-0.086	-0.001
-517.902	-200.000	-0.028	-0.383
-516.887	5.016	-0.079	0.058
-515.872	-100.459	-0.161	-0.040
-514.858	-92.135	0.207	0.058
-513.843	128.764	-0.146	0.186
-512.829	-139.007	0.146	-0.016
-511.814	150.478	-0.275	0.373
-510.799	800.000	0.032	-0.090
-509.785	-166.694	0.138	0.006
-508.770	-119.066	-0.187	0.033
-507.756	800.000	-0.022	0.082
-506.741	112.265	-0.214	0.258
-505.726	-200.000	-0.023	-0.249
-504.712	-130.394	-0.177	-0.024
-503.697	-200.000	-0.017	0.083
-502.683	21.819	0.158	-0.128
-501.668	-62.683	0.098	-0.041
-500.653	34.970	0.092	0.080
-499.639	16.994	-0.349	-0.276
-498.624	534.076	-0.064	0.152
-497.610	109.304	0.290	0.347
-496.595	-90.512	-0.196	-0.057
-495.581	-200.000	0.028	0.210
-494.566	-109.255	0.088	0.019
-493.551	-143.248	-0.052	-0.005
-492.537	681.686	-0.156	-0.404
-491.522	800.000	0.114	0.444
-490.508	-94.010	-0.243	0.067
-489.493	26.816	0.147	-0.122
-488.478	-97.624	0.266	0.069
-487.464	-137.851	-0.152	-0.017
-486.449	116.705	0.117	0.143
-485.435	137.019	0.216	0.281
-484.420	-84.462	0.481	0.151
-483.405	-39.448	0.145	-0.076
-482.391	800.000	0.046	-0.129
-481.376	-200.000	0.027	-0.244
-480.362	370.128	0.081	-0.163
-479.347	9.277	-0.103	0.077
-478.332	-181.216	-0.050	0.001
-477.318	12.918	-0.130	0.100
-476.303	-66.622	-0.064	0.025
-475.289	99.262	0.047	0.054
-474.274	-167.118	-0.375	-0.015
-473.259	-117.676	-0.349	0.063
-472.245	321.107	-0.285	-0.539
-471.230	8.270	0.109	0.082
-470.216	3.383	0.167	-0.121
-469.201	800.000	-0.078	0.294
-468.186	14.194	-0.140	0.108
-467.172	800.000	0.100	0.284
-466.157	-36.490	0.302	0.162
-465.143	-156.679	0.119	-0.007
-464.128	-5.272	0.213	-0.146
-463.113	-200.000	0.002	-0.126
-462.099	-89.813	-0.157	-0.046
-461.084	-104.604	-0.101	0.023
-460.070	-67.627	-0.327	0.127
-459.055	-20.886	-0.115	-0.070
-458.040	403.970	-0.109	0.228
-457.026	-46.400	0.243	-0.119
-456.011	351.225	-0.019	0.038
-454.997	-31.805	0.382	0.213
-453.982	459.886	0.070	0.154
-452.968	800.000	-0.031	0.132
-451.953	109.803	0.101	0.120
-450.938	42.277	-0.318	-0.288
-449.924	800.000	0.015	0.055
-448.909	153.446	0.089	-0.121
-447.895	-9.387	-0.369	0.245
-446.880	261.851	0.017	-0.029
-445.865	48.604	-0.065	-0.060
-444.851	800.000	0.070	0.242
-443.836	800.000	0.069	0.216
-442.822	-8.481	-0.273	-0.183
-441.807	-7.706	0.159	-0.107
-440.792	201.954	0.078	-0.119
-439.778	-200.000	0.045	0.295
-438.763	-200.000	-0.032	0.246
-437.749	-105.152	-0.261	-0.059
-436.734	625.350	-0.083	0.208
-435.719	222.014	0.188	-0.300
-434.705	90.152	-0.098	0.109
-433.690	800.000	0.077	0.280
-432.676	-200.000	-0.036	0.190
-431.661	-112.691	-0.238	-0.047
-430.646	-145.342	-0.336	-0.030
-429.632	-26.024	0.269	-0.157
-428.617	166.818	0.095	0.134
-427.603	51.445	-0.328	0.310
-426.588	800.000	0.025	0.105
-425.573	-99.577	0.332	0.083
-424.559	-200.000	0.034	-0.185
-423.544	325.451	0.062	-0.117
-422.530	-1.749	0.069	0.048
-421.515	-149.408	-0.106	0.008
-420.500	23.273	0.164	-0.134
-419.486	107.721	0.167	-0.197
-418.471	56.556	-0.008	-0.008
-417.457	417.745	-0.058	-0.122
-416.442	757.255	-0.059	0.159
-415.428	-200.000	-0.066	-0.412
-414.413	-30.547	0.199	-0.112
-413.398	264.104	0.212	-0.367
-412.384	-113.051	0.047	-0.009
-411.369	23.242	-0.210	0.171
-410.355	68.726	0.233	0.238
-409.340	147.617	0.050	-0.067
-408.325	-38.999	-0.317	0.166
-407.311	-200.000	-0.015	-0.143
-406.296	-200.000	-0.042	-0.214
-405.282	682.926	0.089	0.231
-404.267	-59.101	-0.252	0.108
-403.252	68.595	-0.205	0.209
-402.238	800.000	0.035	0.118
-401.223	-113.586	-0.183	0.036
-400.209	187.695	0.123	0.182
-399.194	-35.270	-0.260	0.141
-398.179	352.156	0.118	0.233
-397.165	-118.831	0.202	0.035
-396.150	800.000	0.015	0.054
-395.136	800.000	0.033	-0.125
-394.121	55.594	-0.150	0.144
-393.106	800.000	-0.086	0.298
-392.092	-91.189	-0.281	-0.080
-391.077	-57.877	0.104	0.045
-390.063	79.242	-0.114	0.121
-389.048	-200.000	-0.020	0.704
-388.033	-100.840	-0.016	0.004
-387.019	-28.677	-0.251	0.144
-386.004	800.000	-0.206	-0.752
-384.990	98.061	-0.043	-0.049
-383.975	-36.667	0.080	0.043
-382.960	-200.000	0.005	0.154
-381.946	149.535	-0.148	-0.199
-380.931	407.508	-0.007	-0.015
-379.917	324.007	0.089	0.169
-378.902	-93.863	-0.130	0.036
-377.888	-142.014	-0.161	0.016
-376.873	324.054	-0.240	0.455
-375.858	-200.000	-0.022	-0.179
-374.844	27.310	-0.126	-0.105
-373.829	247.736	-0.075	-0.125
-372.815	-92.250	-0.040	-0.011
-371.800	29.749	0.194	0.164
-370.785	36.900	0.046	-0.040
-369.771	-200.000	-0.001	0.059
-368.756	-50.239	-0.119	0.056
-367.742	57.240	0.088	0.086
-366.727	78.690	-0.256	-0.272
-365.712	157.153	0.048	-0.066
-364.698	-82.429	0.319	0.103
-363.683	55.508	0.286	0.275
-362.669	-96.748	-0.187	-0.049
-361.654	66.738	-0.150	0.151
-360.639	217.543	0.037	0.058
-359.625	-200.000	-0.043	0.218
-358.610	-200.000	0.005	0.282
-357.596	31.190	0.198	-0.168
-356.581	73.977	-0.229	0.239
-355.566	-40.805	-0.126	0.065
-354.552	-125.108	0.148	0.022
-353.537	-105.116	0.242	-0.055
-352.523	-200.000	0.024	-0.117
-351.508	-200.000	-0.012	-0.068
-350.493	498.781	-0.155	0.354
-349.479	228.989	0.081	0.131
-348.464	-82.167	0.252	-0.081
-347.450	42.719	0.032	0.029
-346.435	-125.699	-0.399	0.060
-345.420	14.873	-0.278	-0.215
-344.406	800.000	-0.072	-0.303
-343.391	-31.006	0.306	-0.171
-342.377	-76.172	-0.092	-0.032
-341.362	-51.042	-0.185	0.086
-340.348	-200.000	-0.031	-0.341
-339.333	-66.636	0.110	0.043
-338.318	800.000	-0.010	-0.034
-337.304	214.668	0.083	-0.131
-336.289	467.937	0.064	-0.142
-335.275	800.000	-0.159	-0.444
-334.260	233.265	0.104	0.169
-333.245	-73.066	-0.196	0.071
-332.231	-111.693	-0.263	-0.053
-331.216	-108.672	-0.149	-0.032
-330.202	-35.020	-0.197	0.107
-329.187	-177.423	-0.229	-0.006
-328.172	241.041	-0.166	-0.274
-327.158	27.999	0.101	0.084
-326.143	-45.427	-0.085	0.042
-325.129	185.663	0.167	0.245
-324.114	18.202	0.301	-0.238
-323.099	89.516	0.276	-0.305
-322.085	502.638	-0.027	0.061
-321.070	-85.512	-0.303	-0.094
-320.056	-36.535	0.350	0.186
-319.041	-56.702	0.176	0.077
-318.026	259.544	0.112	0.191
-317.012	-95.759	-0.351	-0.093
-315.997	121.218	0.122	0.151
-314.983	267.239	0.058	-0.101
-313.968	-200.000	0.021	-0.162
-312.953	-200.000	0.024	-0.137
-311.939	283.235	0.095	-0.168
-310.924	25.004	0.138	0.114
-309.910	-71.640	-0.077	-0.028
-308.895	-82.325	-0.254	-0.082
-307.880	182.526	0.200	-0.291
-306.866	4.112	0.284	0.206
-305.851	800.000	0.047	0.197
-304.837	-115.544	-0.336	0.062
-303.822	-141.476	-0.309	-0.031
-302.807	545.655	-0.065	-0.155
-301.793	-12.316	-0.286	0.185
-300.778	-189.830	-0.179	-0.002
-299.764	-90.101	0.345	0.099
-298.749	-200.000	-0.039	-0.200
-297.735	6.077	0.190	-0.139
-296.720	25.333	-0.093	0.077
-295.705	-108.679	0.219	0.046
-294.691	-26.721	-0.278	-0.161
-293.676	244.900	0.186	-0.309
-292.662	21.722	0.156	0.125
-291.647	471.206	0.063	0.140
-290.632	-42.535	0.164	-0.083
-289.618	-200.000	0.002	0.198
-288.603	-200.000	0.007	0.160
-287.589	-102.792	0.163	0.038
-286.574	-200.000	0.047	0.215
-285.559	122.291	-0.174	0.215
-284.545	62.113	0.159	-0.157
-283.530	-181.132	-0.193	0.004
-282.516	-81.843	-0.147	-0.048
-281.501	235.138	-0.134	-0.218
-280.486	118.675	0.145	-0.177
-279.472	465.551	-0.129	-0.286
-278.457	-75.691	0.199	0.070
-277.443	598.431	0.044	-0.108
-276.428	800.000	0.050	0.156
-275.413	-200.000	-0.003	-0.145
-274.399	800.000	-0.046	-0.176
-273.384	-64.410	0.405	0.163
-272.370	224.899	0.169	0.270
-271.355	800.000	-0.081	0.222
-270.340	-45.631	0.397	-0.194
-269.326	-127.560	0.232	0.033
-268.311	-200.000	0.010	0.164
-267.297	-139.224	-0.088	-0.009
-266.282	-200.000	-0.023	-0.145
-265.267	174.625	0.031	0.044
-264.253	-65.036	0.128	0.051
-263.238	-137.097	0.388	-0.044
-262.224	-113.728	-0.153	-0.029
-261.209	134.344	0.172	0.220
-260.195	-108.437	-0.286	0.061
-259.180	48.904	0.079	-0.073
-258.165	800.000	0.163	0.452
-257.151	374.044	0.132	-0.266
-256.136	-99.148	0.518	-0.129
-255.122	191.039	-0.034	-0.051
-254.107	-92.790	-0.204	0.056
-253.092	-200.000	0.006	-0.281
-252.078	165.996	-0.077	-0.108
-251.063	-200.000	-0.006	0.200
-250.049	-200.000	-0.030	-0.161
-249.034	-13.980	-0.103	-0.066
-248.019	360.068	-0.134	-0.265
-247.005	-200.000	-0.022	-0.107
-245.990	37.560	0.302	-0.265
-244.976	198.711	-0.043	-0.064
-243.961	-26.478	0.360	-0.208
-242.946	319.949	0.180	0.337
-241.932	-200.000	0.063	-0.354
-240.917	156.639	-0.200	0.273
-239.903	-38.279	0.375	-0.196
-238.888	-200.000	0.024	0.160
-237.873	198.914	0.072	0.109
-236.859	800.000	0.038	0.134
-235.844	-131.727	0.269	0.035
-234.830	-155.430	0.124	-0.008
-233.815	-165.529	-0.340	0.015
-232.800	32.023	-0.162	0.137
-231.786	-39.968	0.189	-0.097
-230.771	87.064	0.224	-0.244
-229.757	-166.294	-0.234	-0.010
-228.742	522.768	-0.065	0.151
-227.727	-200.000	-0.032	0.182
-226.713	366.551	0.054	0.107
-225.698	-64.931	0.139	0.055
-224.684	282.187	-0.091	0.162
-223.669	25.906	0.140	-0.115
-222.655	15.703	-0.093	-0.072
-221.640	-57.925	0.180	-0.077
-220.625	-82.394	0.185	0.059
-219.611	213.874	-0.125	0.196
-218.596	94.606	0.107	0.120
-217.582	287.537	-0.038	0.067
-216.567	-111.053	-0.343	0.069
-215.552	-103.208	-0.291	0.068
-214.538	-200.000	0.012	0.059
-213.523	116.869	-0.027	0.033
-212.509	800.000	0.103	-0.355
-211.494	19.168	0.126	0.100
-210.479	-200.000	-0.038	-0.277
-209.465	-54.190	-0.370	-0.166
-208.450	-200.000	-0.042	0.205
-207.436	640.684	-0.035	0.088
-206.421	-167.398	0.185	-0.007
-205.406	670.519	-0.097	0.247
-204.392	47.667	0.086	-0.079
-203.377	143.960	-0.204	-0.268
-202.363	-33.427	0.192	0.105
-201.348	-200.000	0.055	0.395
-200.333	231.345	0.182	-0.294
-199.319	-40.012	-0.165	-0.085
-198.304	-77.531	-0.181	0.062
-197.290	101.731	-0.121	0.139
-196.275	2.392	0.325	0.231
-195.260	-200.000	-0.025	0.201
-194.246	-33.356	-0.240	-0.131
-193.231	23.861	-0.101	-0.082
-192.217	800.000	0.078	0.213
-191.202	43.465	-0.119	-0.107
-190.187	-78.993	0.228	0.076
-189.173	-200.000	-0.054	-0.386
-188.158	-141.384	0.057	0.006
-187.144	544.498	-0.030	-0.071
-186.129	-40.115	0.206	-0.106
-185.114	-6.742	0.472	0.316
-184.100	-76.789	0.099	0.034
-183.085	-1.750	-0.028	-0.019
-182.071	655.322	0.134	-0.338
-181.056	20.269	0.078	-0.062
-180.042	-31.741	0.046	-0.025
-179.027	-18.822	0.074	-0.046
-178.012	104.983	-0.138	0.160
-176.998	-82.869	0.272	-0.086
-175.983	-74.278	-0.263	-0.093
-174.969	-159.388	0.252	-0.014
-173.954	-200.000	-0.011	-0.109
-172.939	-200.000	0.027	0.258
-171.925	151.726	-0.299	-0.401
-170.910	-77.363	0.360	-0.123
-169.896	794.429	0.108	0.291
-168.881	-101.004	-0.167	0.040
-167.866	-54.609	-0.061	-0.027
-166.852	34.943	-0.194	0.167
-165.837	483.787	0.075	-0.167
-164.823	161.104	-0.136	-0.188
-163.808	-200.000	-0.086	0.393
-162.793	411.342	-0.044	-0.091
-161.779	277.550	-0.159	0.279
-160.764	10.684	-0.126	-0.094
-159.750	306.537	0.089	-0.163
-158.735	-44.643	-0.252	0.124
-157.720	439.028	-0.195	-0.419
-156.706	-200.000	-0.024	-0.182
-155.691	-109.182	0.459	0.096
-154.677	53.660	0.014	-0.013
-153.662	-115.700	0.217	-0.040
-152.647	1.518	-0.063	-0.044
-151.633	423.090	-0.109	-0.230
-150.618	23.343	-0.085	-0.069
-149.604	256.380	-0.093	-0.157
-148.589	191.727	-0.109	-0.161
-147.574	800.000	0.065	-0.255
-146.560	-172.007	-0.184	-0.006
-145.545	636.066	-0.043	-0.107
-144.531	73.272	0.057	-0.058
-143.516	60.849	0.320	-0.312
-142.502	140.814	-0.060	-0.078
-141.487	-78.376	0.089	-0.030
-140.472	-200.000	0.016	-0.221
-139.458	70.950	0.214	0.218
-138.443	485.277	0.093	0.209
-137.429	-131.614	-0.133	0.017
-136.414	-143.853	-0.317	0.029
-135.399	135.702	0.163	-0.209
-134.385	-137.973	-0.354	0.039
-133.370	362.708	0.114	0.226
-132.356	59.396	-0.125	-0.121
-131.341	-45.066	-0.116	0.057
-130.326	-200.000	0.021	-0.146
-129.312	219.779	-0.064	-0.101
-128.297	-32.841	-0.367	-0.200
-127.283	349.026	0.051	-0.100
-126.268	-200.000	0.005	-0.197
-125.253	-200.000	-0.022	-0.295
-124.239	143.992	0.331	-0.434
-123.224	-3.816	0.332	0.226
-122.210	-62.115	0.227	0.093
-121.195	-34.928	-0.154	-0.083
-120.180	307.745	0.102	0.187
-119.166	43.737	-0.153	0.137
-118.151	88.178	-0.091	-0.099
-117.137	37.008	0.104	0.090
-116.122	800.000	-0.019	0.081
-115.107	-60.900	0.151	0.063
-114.093	-76.305	0.193	-0.067
-113.078	-120.251	-0.220	0.037
-112.064	-44.757	0.087	0.042
-111.049	-27.184	0.267	-0.152
-110.034	145.117	0.132	-0.174
-109.020	41.062	0.058	0.052
-108.005	-157.161	-0.245	0.015
-106.991	-76.971	0.144	-0.049
-105.976	-100.894	0.195	0.047
-104.962	-100.732	-0.250	-0.061
-103.947	800.000	0.083	-0.353
-102.932	0.281	0.115	-0.080
-101.918	252.198	-0.131	-0.220
-100.903	260.730	0.150	-0.254
-99.889	26.228	0.310	-0.254
-98.874	-200.000	-0.047	0.208
-97.859	523.983	-0.200	0.461
-96.845	9.621	-0.075	-0.056
-95.830	-111.241	-0.207	-0.041
-94.816	-34.817	0.392	-0.210
-93.801	357.980	-0.079	-0.155
-92.786	-73.491	-0.172	-0.062
-91.772	-200.000	-0.032	0.232
-90.757	-85.714	0.042	-0.013
-89.743	-2.163	-0.112	-0.077
-88.728	155.756	-0.097	-0.131
-87.713	147.885	-0.171	0.226
-86.699	-20.831	0.120	0.072
-85.684	-28.476	0.186	0.105
-84.670	74.839	0.234	0.241
-83.655	373.043	-0.077	-0.153
-82.640	325.979	0.131	-0.245
-81.626	800.000	0.144	0.433
-80.611	-100.858	0.292	0.071
-79.597	-200.000	0.001	0.213
-78.582	132.510	0.199	-0.251
-77.567	108.377	-0.058	0.068
-76.553	126.555	0.134	-0.166
-75.538	345.115	-0.157	-0.303
-74.524	-200.000	0.026	-0.155
-73.509	-200.000	-0.012	0.138
-72.494	-200.000	-0.010	-0.046
-71.480	-200.000	-0.004	0.236
-70.465	-85.166	-0.099	0.031
-69.451	-110.078	0.098	-0.020
-68.436	800.000	0.111	0.316
-67.422	-64.075	0.095	-0.038
-66.407	800.000	0.030	-0.110
-65.392	743.751	-0.055	-0.146
-64.378	181.782	-0.146	0.211
-63.363	43.001	0.316	-0.282
-62.349	732.459	-0.080	-0.211
-61.334	72.715	-0.870	-0.890
-60.319	130.017	0.238	0.298
-59.305	-200.000	-0.225	-1.043
-58.290	321.171	0.480	0.894
-57.276	452.770	0.711	1.542
-56.261	-200.000	108.336	604.247
-55.246	513.121	1492.058	3407.538
-54.232	178.805	2683.626	3842.521
-53.217	103.881	2280.906	2625.595
-52.203	38.476	1892.653	1652.755
-51.188	32.735	1682.221	1425.686
-50.173	30.086	1638.751	1369.251
-49.159	48.274	1693.190	1551.928
-48.144	48.840	1708.694	1570.338
-47.130	32.230	1665.768	1407.737
-46.115	29.554	1651.276	1375.535
-45.100	29.482	1645.905	1370.473
-44.086	29.401	1643.423	1367.751
-43.071	29.297	1641.040	1364.940
-42.057	29.313	1638.608	1362.985
-41.042	29.373	1636.126	1361.303
-40.027	29.416	1634.155	1359.929
-39.013	29.375	1632.655	1358.327
-37.998	29.308	1631.143	1356.519
-36.984	29.439	1629.560	1356.111
-35.969	29.557	1628.207	1355.796
-34.954	29.603	1626.413	1354.586
-33.940	29.521	1625.033	1352.783
-32.925	29.426	1623.360	1350.646
-31.911	29.590	1621.267	1350.046
-30.896	29.508	1620.011	1348.346
-29.881	29.557	1617.870	1346.870
-28.867	29.468	1616.538	1345.061
-27.852	29.436	1614.701	1343.249
-26.838	29.459	1613.724	1342.549
-25.823	29.628	1611.495	1341.869
-24.809	29.570	1610.670	1340.701
-23.794	29.483	1609.888	1339.372
-22.779	29.576	1608.130	1338.531
-21.765	29.513	1606.170	1336.387
-20.750	29.466	1604.618	1334.706
-19.736	29.571	1603.119	1334.160
-18.721	29.546	1601.789	1332.820
-17.706	29.542	1600.582	1331.737
-16.692	29.545	1599.190	1330.547
-15.677	29.511	1597.807	1329.095
-14.663	29.539	1596.421	1328.093
-13.648	29.616	1594.419	1326.926
-12.633	29.596	1592.855	1325.432
-11.619	29.519	1591.751	1323.907
-10.604	29.510	1590.574	1322.813
-9.590	29.610	1588.966	1322.140
-8.575	29.593	1587.644	1320.862
-7.560	29.595	1586.877	1320.190
-6.546	29.542	1585.796	1318.859
-5.531	29.458	1584.647	1317.252
-4.517	29.505	1583.324	1316.429
-3.502	29.487	1582.071	1315.214
-2.487	29.655	1580.403	1314.964
-1.473	29.224	1568.350	1301.843
-0.458	26.265	1548.870	1264.941
0.556	24.396	1549.402	1232.073
1.571	21.828	1573.109	1232.784
2.586	21.431	1585.577	1239.634
3.600	19.221	1531.990	1182.482
4.615	11.717	1424.936	1051.669
5.629	5.015	1363.042	964.552
6.644	3.810	1355.120	951.447
7.659	3.686	1354.179	949.941
8.673	3.767	1352.966	949.503
9.688	3.748	1351.101	947.992
10.702	3.709	1347.951	945.463
11.717	6.742	1354.257	968.429
12.731	15.042	1368.783	1030.001
13.746	22.105	1380.139	1082.119
14.761	23.806	1382.868	1094.650
15.775	23.483	1380.964	1091.061
16.790	22.701	1379.126	1084.706
17.804	22.185	1377.294	1080.001
18.819	21.899	1376.278	1077.348
19.834	21.945	1375.438	1076.880
20.848	21.978	1375.066	1076.693
21.863	21.992	1373.573	1075.515
22.877	21.766	1372.576	1073.256
23.892	21.790	1371.177	1072.216
24.907	21.666	1370.542	1070.866
25.921	21.649	1369.676	1069.994
26.936	21.595	1369.099	1069.113
27.950	21.655	1368.069	1068.582
28.965	21.752	1367.463	1068.608
29.980	21.999	1366.215	1069.038
30.994	22.088	1365.139	1068.645
32.009	22.179	1363.943	1068.169
33.023	22.075	1362.760	1066.513
34.038	21.907	1361.636	1064.520
35.053	21.830	1360.405	1062.998
36.067	21.753	1359.657	1061.854
37.082	21.861	1358.617	1061.600
38.096	21.894	1357.666	1060.968
39.111	21.973	1356.978	1060.812
40.126	21.891	1356.000	1059.455
41.140	21.484	1355.120	1056.216
42.155	21.327	1354.134	1054.408
43.169	21.282	1353.825	1053.803
44.184	21.190	1354.070	1053.347
45.199	21.489	1353.622	1054.708
46.213	21.629	1353.613	1055.451
47.228	21.765	1352.716	1055.479
48.242	21.871	1351.512	1055.082
49.257	21.735	1350.221	1053.165
50.271	21.728	1349.095	1052.151
51.286	21.682	1347.759	1050.738
52.301	21.718	1345.990	1049.484
53.315	21.580	1344.898	1047.713
54.330	21.507	1344.075	1046.544
55.344	21.362	1342.853	1044.631
56.359	21.352	1341.583	1043.490
57.374	21.307	1340.798	1042.523
58.388	21.288	1340.409	1042.010
59.403	21.185	1339.788	1040.822
60.417	21.083	1338.927	1039.454
61.432	21.148	1337.671	1038.777
62.447	21.024	1336.807	1037.276
63.461	20.936	1336.086	1036.098
64.476	20.916	1334.908	1034.976
65.490	20.933	1333.723	1034.069
66.505	20.976	1332.095	1032.967
67.520	20.944	1331.167	1031.965
68.534	21.018	1329.927	1031.350
69.549	20.850	1328.945	1029.504
70.563	20.841	1327.428	1028.186
71.578	20.683	1326.634	1026.549
72.593	20.682	1325.293	1025.416
73.607	20.618	1325.305	1024.959
74.622	20.750	1324.365	1024.916
75.636	20.807	1324.014	1024.889
76.651	20.826	1323.336	1024.388
77.666	20.821	1322.793	1023.845
78.680	20.935	1321.861	1023.704
79.695	20.962	1321.375	1023.397
80.709	21.168	1321.079	1024.283
81.724	21.219	1320.566	1024.096
82.739	21.403	1319.923	1024.580
83.753	21.611	1318.836	1024.865
84.768	21.792	1318.253	1025.383
85.782	22.097	1317.137	1026.205
86.797	22.003	1316.124	1024.774
87.812	21.824	1315.203	1022.924
88.826	21.843	1313.799	1021.850
89.841	21.811	1312.853	1020.837
90.855	21.940	1312.453	1021.189
91.870	22.064	1311.296	1020.920
92.884	21.993	1310.889	1020.098
93.899	22.088	1309.818	1019.726
94.914	22.056	1309.040	1018.847
95.928	22.158	1308.067	1018.591
96.943	22.052	1307.291	1017.279
97.957	22.013	1306.574	1016.407
98.972	22.037	1305.415	1015.556
99.987	22.019	1304.477	1014.629
101.001	22.056	1303.772	1014.209
102.016	22.010	1302.921	1013.190
103.030	21.890	1302.159	1011.817
104.045	21.926	1300.616	1010.732
105.060	21.676	1299.649	1008.452
106.074	21.417	1297.333	1005.080
107.089	21.192	1295.539	1002.309
108.103	20.904	1294.752	999.956
109.118	20.899	1293.485	998.865
110.133	20.893	1292.275	997.807
111.147	21.099	1290.736	997.706
112.162	21.056	1289.984	996.789
113.176	21.084	1289.181	996.245
114.191	21.167	1287.704	995.487
115.206	21.103	1287.018	994.506
116.220	21.187	1285.399	993.642
117.235	21.086	1284.591	992.355
118.249	20.882	1283.779	990.482
119.264	20.879	1282.175	989.142
120.279	20.830	1281.448	988.210
121.293	20.784	1279.933	986.697
122.308	20.640	1279.035	985.100
123.322	20.602	1277.516	983.627
124.337	20.552	1277.003	982.863
125.352	20.518	1276.014	981.827
126.366	20.486	1274.596	980.464
127.381	20.348	1273.903	979.066
128.395	20.380	1272.660	978.208
129.410	20.469	1271.305	977.579
130.424	20.583	1270.931	977.845
131.439	20.852	1270.316	978.796
132.454	20.902	1269.949	978.709
133.468	20.985	1269.294	978.583
134.483	21.086	1268.097	978.143
135.497	21.002	1267.260	976.936
136.512	21.094	1266.104	976.476
137.527	21.130	1265.004	975.740
138.541	21.127	1263.826	974.728
139.556	21.273	1263.241	975.008
140.570	21.416	1262.061	974.809
141.585	21.536	1261.251	974.766
142.600	21.640	1260.257	974.489
143.614	21.823	1259.924	975.164
144.629	21.881	1259.200	974.839
145.643	21.821	1257.759	973.306
146.658	21.755	1255.811	971.344
147.673	21.407	1255.131	968.806
148.687	21.202	1253.710	966.488
149.702	21.155	1252.199	964.976
150.716	21.006	1250.339	962.637
151.731	21.020	1249.622	962.079
152.746	20.951	1248.577	960.806
153.760	21.147	1247.671	961.103
154.775	21.316	1246.764	961.251
155.789	21.409	1245.858	960.978
156.804	21.333	1245.573	960.254
157.819	21.553	1244.033	960.189
158.833	21.655	1243.744	960.440
159.848	21.847	1243.283	961.054
160.862	21.786	1242.187	959.789
161.877	21.374	1240.483	956.134
162.892	21.130	1238.920	953.510
163.906	20.985	1237.827	951.794
164.921	20.870	1237.190	950.591
165.935	21.192	1236.348	951.615
166.950	21.258	1235.594	951.312
167.964	21.243	1235.182	950.830
168.979	21.034	1234.989	949.455
169.994	21.094	1234.110	949.022
171.008	21.086	1233.151	948.160
172.023	21.410	1232.145	949.060
173.037	21.574	1232.222	949.924
174.052	21.495	1231.546	948.894
175.067	21.186	1229.836	945.815
176.081	20.958	1228.372	943.375
177.096	20.987	1227.618	942.870
178.110	21.066	1226.375	942.259
179.125	21.058	1225.960	941.811
180.140	21.290	1224.872	942.140
181.154	21.369	1224.486	942.190
182.169	21.478	1223.014	941.560
183.183	21.576	1221.835	941.097
184.198	21.660	1221.296	941.045
185.213	21.639	1219.900	939.775
186.227	21.599	1219.651	939.287
187.242	21.711	1217.990	938.524
188.256	21.874	1217.269	938.759
189.271	21.957	1216.331	938.396
190.286	21.832	1215.096	936.692
191.300	21.378	1213.686	933.101
192.315	21.156	1213.107	931.386
193.329	21.122	1213.029	931.063
194.344	21.196	1212.562	931.017
195.359	21.227	1211.590	930.356
196.373	21.060	1211.242	929.114
197.388	21.379	1210.923	930.487
198.402	21.736	1211.107	932.448
199.417	21.920	1210.668	933.004
200.432	22.149	1209.915	933.558
201.446	22.215	1209.762	933.706
202.461	22.291	1208.921	933.380
203.475	22.081	1208.008	931.477
204.490	21.864	1206.163	928.824
205.504	21.516	1204.963	925.977
206.519	21.450	1203.502	924.423
207.534	21.357	1202.407	923.008
208.548	21.440	1201.442	922.626
209.563	21.486	1200.609	922.148
210.577	21.424	1199.591	920.954
211.592	21.557	1198.927	921.066
212.607	21.870	1198.742	922.489
213.621	21.896	1197.956	921.935
214.636	21.808	1196.733	920.451
215.650	21.817	1196.189	920.001
216.665	22.002	1195.279	920.187
217.680	22.252	1194.669	920.946
218.694	22.180	1194.127	920.072
219.709	22.084	1193.312	918.860
220.723	22.116	1192.372	918.221
221.738	21.935	1191.654	916.641
222.753	21.924	1190.740	915.799
223.767	21.913	1190.520	915.494
224.782	22.093	1189.824	915.817
225.796	22.370	1189.298	916.772
226.811	22.230	1188.475	915.329
227.826	21.944	1187.504	913.009
228.840	21.861	1186.812	911.967
229.855	21.942	1185.384	911.210
230.869	21.932	1184.973	910.758
231.884	21.779	1183.810	908.991
232.899	21.605	1182.717	907.173
233.913	21.355	1182.685	905.773
234.928	21.494	1181.458	905.473
235.942	21.324	1180.731	903.956
236.957	21.205	1180.007	902.704
237.972	21.174	1179.227	901.868
238.986	21.408	1178.292	902.281
240.001	21.437	1178.284	902.344
241.015	21.453	1177.022	901.381
242.030	21.561	1176.329	901.326
243.045	21.718	1176.118	901.894
244.059	21.731	1175.538	901.437
245.074	21.791	1174.657	900.988
246.088	21.854	1174.178	900.866
247.103	21.922	1173.546	900.648
248.117	22.167	1172.941	901.362
249.132	22.397	1172.645	902.234
250.147	22.716	1172.368	903.577
251.161	23.020	1171.398	904.305
252.176	22.935	1171.498	903.863
253.190	23.036	1170.699	903.686
254.205	23.140	1169.970	903.574
255.220	23.234	1169.262	903.429
256.234	23.196	1168.610	902.649
257.249	23.096	1168.505	901.977
258.263	23.096	1167.149	900.851
259.278	22.974	1166.562	899.697
260.293	23.079	1165.956	899.686
261.307	23.085	1165.580	899.346
262.322	23.182	1165.131	899.413
263.336	23.135	1164.552	898.648
264.351	23.140	1163.815	898.023
265.366	23.224	1162.647	897.471
266.380	23.233	1162.448	897.283
267.395	23.052	1161.444	895.514
268.409	22.864	1160.625	893.852
269.424	22.807	1160.110	893.083
270.439	22.878	1159.265	892.716
271.453	22.801	1158.284	891.493
272.468	22.508	1157.388	889.244
273.482	22.451	1156.552	888.236
274.497	22.623	1155.846	888.484
275.512	22.679	1155.200	888.187
276.526	22.543	1154.635	886.993
277.541	22.600	1154.039	886.742
278.555	22.574	1153.769	886.326
279.570	23.026	1152.923	887.868
280.585	23.170	1152.624	888.280
281.599	23.094	1151.332	886.825
282.614	22.898	1150.178	884.879
283.628	22.664	1149.347	882.986
284.643	22.640	1147.955	881.721
285.657	22.646	1147.556	881.365
286.672	22.671	1146.279	880.433
287.687	22.683	1145.462	879.786
288.701	22.763	1144.983	879.738
289.716	22.613	1144.110	878.242
290.730	22.783	1143.279	878.375
291.745	22.790	1142.638	877.841
292.760	22.769	1142.468	877.524
293.774	22.836	1141.974	877.401
294.789	23.017	1141.517	877.870
295.803	23.020	1140.746	877.218
296.818	22.825	1139.725	875.385
297.833	22.780	1139.055	874.572
298.847	22.679	1138.150	873.298
299.862	22.688	1137.572	872.823
300.876	22.760	1136.970	872.638
301.891	22.834	1136.117	872.275
302.906	23.003	1136.151	873.057
303.920	23.240	1135.450	873.611
304.935	23.510	1134.594	874.208
305.949	23.516	1134.128	873.801
306.964	23.543	1133.654	873.488
307.979	23.372	1132.564	871.734
308.993	23.214	1131.639	870.165
310.008	23.231	1131.092	869.753
311.022	23.244	1130.717	869.452
312.037	23.331	1129.698	869.017
313.052	23.124	1128.898	867.309
314.066	22.946	1127.003	864.908
315.081	22.658	1126.114	862.740
316.095	22.506	1125.502	861.449
317.110	22.561	1124.443	860.833
318.125	22.524	1123.875	860.142
319.139	22.646	1123.105	860.069
320.154	22.568	1122.737	859.332
321.168	22.658	1122.087	859.195
322.183	22.722	1121.039	858.629
323.197	22.635	1121.010	858.106
324.212	22.806	1120.182	858.231
325.227	22.762	1119.824	857.663
326.241	22.776	1119.783	857.625
327.256	22.736	1118.337	856.249
328.270	22.698	1117.860	855.624
329.285	22.621	1116.641	854.240
330.300	22.704	1115.516	853.707
331.314	22.630	1114.953	852.844
332.329	22.665	1113.801	852.056
333.343	22.718	1113.209	851.785
334.358	22.989	1112.561	852.518
335.373	23.086	1112.422	852.805
336.387	23.093	1111.666	852.186
337.402	23.271	1110.740	852.256
338.416	23.323	1110.150	851.979
339.431	23.483	1109.723	852.342
340.446	23.515	1109.261	852.067
341.460	23.653	1109.023	852.469
342.475	23.822	1108.323	852.667
343.489	23.942	1107.195	852.303
344.504	23.959	1106.695	851.923
345.519	23.973	1106.019	851.392
346.533	24.132	1105.232	851.472
347.548	24.152	1104.287	850.766
348.562	23.943	1104.154	849.588
349.577	23.599	1102.848	846.865
350.592	23.210	1101.500	843.902
351.606	23.129	1100.561	842.724
352.621	22.987	1099.602	841.239
353.635	22.937	1098.932	840.412
354.650	22.996	1098.240	840.091
355.665	23.127	1097.585	840.138
356.679	23.268	1096.934	840.234
357.694	23.444	1096.668	840.791
358.708	23.494	1095.926	840.385
359.723	23.390	1095.933	839.820
360.738	23.421	1094.961	839.151
361.752	23.397	1094.798	838.836
362.767	23.393	1093.928	838.075
363.781	23.450	1093.208	837.719
364.796	23.800	1092.825	839.007
365.810	23.972	1092.543	839.529
366.825	24.050	1092.065	839.451
367.840	24.185	1091.996	839.962
368.854	24.343	1091.248	840.056
369.869	24.287	1090.270	838.967
370.883	24.147	1089.281	837.474
371.898	23.911	1088.609	835.773
372.913	23.899	1087.938	835.126
373.927	23.927	1087.744	835.037
374.942	24.106	1087.109	835.315
375.956	24.148	1086.521	834.985
376.971	23.995	1086.008	833.801
377.986	24.025	1085.524	833.497
379.000	24.271	1085.320	834.417
380.015	24.536	1084.543	834.983
381.029	24.344	1084.398	833.902
382.044	24.371	1083.726	833.438
383.059	24.307	1082.599	832.198
384.073	24.181	1081.757	830.889
385.088	24.396	1080.699	831.008
386.102	24.406	1079.604	830.138
387.117	24.056	1078.604	827.665
388.132	23.733	1077.576	825.304
389.146	23.726	1076.760	824.571
390.161	23.648	1075.988	823.549
391.175	23.777	1075.070	823.372
392.190	23.935	1074.616	823.680
393.205	24.251	1074.860	825.257
394.219	24.144	1073.796	823.873
395.234	23.946	1072.540	821.925
396.248	23.726	1071.467	820.013
397.263	23.777	1070.474	819.416
398.278	23.725	1069.738	818.539
399.292	23.752	1068.495	817.641
400.307	23.583	1068.178	816.547
401.321	23.597	1067.192	815.787
402.336	23.405	1066.742	814.486
403.350	23.386	1066.081	813.821
404.365	23.607	1065.405	814.250
405.380	23.715	1064.957	814.330
406.394	23.919	1064.061	814.506
407.409	24.186	1063.747	815.417
408.423	24.352	1063.459	815.885
409.438	24.304	1062.913	815.171
410.453	24.300	1062.419	814.701
411.467	24.451	1061.587	814.681
412.482	24.503	1061.143	814.509
413.496	24.612	1060.622	814.533
414.511	24.757	1060.080	814.706
415.526	24.824	1059.681	814.630
416.540	24.955	1059.459	814.986
417.555	24.820	1058.523	813.576
418.569	24.634	1057.942	812.215
419.584	24.683	1057.330	811.894
420.599	24.616	1056.869	811.165
421.613	156.528	1403.399	1796.474
422.628	143.820	1453.876	1796.563
