DTS Sentinel unit serial number:	SN413079Multiplexer serial number:	ORYXHardware model number:	OX4-SRSoftware version number:	ORYX F/W v4.00 Oryx Data Collector v3.7.2.0data status	okinstallation	princeton_trtdifferential loss correction	single-endedforward channel	channel 2reverse channel	N/Adate	2019/09/12time	18:51:49forward acquisition time	15.00reverse acquisition time	0.00gamma	496.2192k internal	0.2325k external	0.2325temperature offset calibration	1.0135default loss term (dB/km)	0.3790temperature slope calibration	1.0000multiplexer offset coefficient	1.0000multiplexer slope coefficient	1.0000fibre end	0.00T internal ref (°C)	32.94T ext. ref 1 (°C)	2.98T ext. ref 2 (°C)	27.40length (m)	temperature (°C)	Stokes	anti-Stokes-747.200	-1.218	0.340	0.243
-746.185	-42.734	-0.180	-0.092
-745.171	-200.000	0.027	-0.519
-744.156	327.840	-0.174	0.337
-743.142	-200.000	-0.003	0.140
-742.127	55.991	-0.578	0.566
-741.112	63.610	-0.439	0.445
-740.098	-6.366	-0.244	0.168
-739.083	-107.625	-0.410	0.090
-738.069	-81.704	0.775	-0.257
-737.054	-38.284	0.432	-0.231
-736.039	41.196	0.119	0.109
-735.025	73.541	-0.293	-0.310
-734.010	-200.000	0.037	0.166
-732.996	800.000	-0.256	0.730
-731.981	-125.205	0.643	0.099
-730.966	-73.174	0.227	0.084
-729.952	282.288	-0.094	0.170
-728.937	-200.000	-0.069	0.475
-727.923	800.000	0.246	-0.720
-726.908	-38.188	-0.380	0.203
-725.894	217.077	-0.501	-0.804
-724.879	15.316	-0.385	0.305
-723.864	800.000	-0.072	0.239
-722.850	71.061	0.451	0.471
-721.835	-200.000	0.051	0.403
-720.821	-34.799	0.958	0.528
-719.806	587.838	-0.415	1.030
-718.791	-200.000	0.061	0.720
-717.777	-103.856	0.825	-0.194
-716.762	626.426	0.149	0.380
-715.748	-45.772	0.412	0.205
-714.733	-90.645	0.920	0.268
-713.718	-62.643	0.286	0.120
-712.704	-110.751	-0.351	0.073
-711.689	-33.138	-0.509	-0.284
-710.675	-200.000	0.038	-0.409
-709.660	-81.176	0.511	0.170
-708.645	34.854	0.390	0.344
-707.631	-64.773	-0.134	0.055
-706.616	-98.687	0.401	0.103
-705.602	-86.127	-0.476	0.148
-704.587	-130.626	0.109	-0.015
-703.572	647.594	-0.227	-0.585
-702.558	213.613	0.452	-0.720
-701.543	-33.391	-0.530	-0.295
-700.529	-200.000	0.043	0.640
-699.514	-200.000	0.071	0.589
-698.499	800.000	0.146	-0.409
-697.485	104.535	-0.349	-0.414
-696.470	-136.105	0.695	-0.082
-695.456	-200.000	0.006	-0.479
-694.441	42.586	-0.611	-0.560
-693.426	-200.000	0.072	-0.483
-692.412	-24.073	-1.083	-0.652
-691.397	-5.867	0.308	-0.212
-690.383	800.000	-0.221	-0.614
-689.368	133.813	0.382	-0.498
-688.354	-200.000	0.027	-0.219
-687.339	-13.452	-0.921	0.601
-686.324	-200.000	-0.022	0.233
-685.310	579.500	-0.295	0.728
-684.295	37.490	-0.671	0.599
-683.281	-200.000	-0.645	0.003
-682.266	-161.129	0.129	0.007
-681.251	8.390	-0.318	0.241
-680.237	800.000	-0.179	0.545
-679.222	797.185	-0.091	0.251
-678.208	239.702	-0.232	-0.389
-677.193	147.704	0.301	-0.408
-676.178	-36.308	-0.919	0.499
-675.164	385.189	0.024	-0.051
-674.149	-65.564	0.377	0.152
-673.135	-29.116	-0.136	-0.078
-672.120	-164.626	-0.818	0.037
-671.105	-62.427	0.626	0.262
-670.091	-31.116	-0.624	-0.354
-669.076	-82.657	-0.306	0.100
-668.062	-53.900	0.696	0.319
-667.047	-200.000	0.036	-0.556
-666.032	515.570	-0.389	-0.914
-665.018	-4.957	0.061	-0.042
-664.003	-42.806	-0.855	0.437
-662.989	-69.302	0.500	-0.193
-661.974	-0.416	0.656	0.469
-660.959	576.219	0.186	0.458
-659.945	800.000	0.134	-0.579
-658.930	-105.366	-0.499	0.114
-657.916	-200.000	-0.042	0.456
-656.901	-200.000	0.044	-0.313
-655.886	162.593	-0.045	-0.064
-654.872	263.358	-0.260	-0.454
-653.857	-19.484	-0.746	0.465
-652.843	-96.135	0.246	0.066
-651.828	-200.000	-0.097	-0.678
-650.814	-200.000	-0.129	-0.785
-649.799	-85.622	-1.096	0.343
-648.784	-20.190	-0.417	-0.258
-647.770	800.000	0.134	-0.473
-646.755	-165.981	0.467	-0.020
-645.741	-18.249	-0.392	-0.247
-644.726	-96.687	0.327	-0.086
-643.711	16.405	-0.282	0.223
-642.697	-156.594	-0.078	0.005
-641.682	150.575	0.728	0.993
-640.668	800.000	-0.223	0.665
-639.653	-65.537	-0.914	0.369
-638.638	50.228	0.047	-0.045
-637.624	59.715	-0.534	-0.530
-636.609	800.000	-0.088	0.263
-635.595	-146.148	0.518	0.046
-634.580	42.143	0.382	-0.348
-633.565	800.000	0.205	-0.732
-632.551	-35.365	0.170	-0.093
-631.536	45.634	-0.403	0.374
-630.522	-200.000	-0.041	0.404
-629.507	-65.566	-0.437	-0.176
-628.492	-200.000	0.133	-1.078
-627.478	-200.000	0.006	0.183
-626.463	55.100	0.511	-0.496
-625.449	-124.365	0.735	0.115
-624.434	-200.000	-0.158	1.041
-623.419	397.272	0.120	0.252
-622.405	800.000	-0.183	-0.563
-621.390	131.882	-0.155	-0.200
-620.376	-199.623	0.484	0.002
-619.361	209.827	0.618	-0.973
-618.346	-61.260	0.924	-0.391
-617.332	-77.143	0.431	-0.151
-616.317	-200.000	-0.037	0.255
-615.303	-33.552	0.272	0.151
-614.288	383.214	0.403	-0.833
-613.273	44.451	0.472	-0.435
-612.259	-27.625	0.286	0.167
-611.244	440.709	-0.292	-0.640
-610.230	-15.722	0.222	-0.142
-609.215	360.491	-0.237	-0.476
-608.201	27.951	0.399	0.338
-607.186	275.674	-0.463	0.824
-606.171	-121.367	-0.410	-0.069
-605.157	54.149	-0.322	-0.311
-604.142	220.832	0.167	0.270
-603.128	-152.825	0.789	-0.056
-602.113	337.198	0.359	-0.700
-601.098	244.087	-0.669	-1.128
-600.084	-200.000	0.060	0.551
-599.069	68.618	-0.260	0.267
-598.055	56.507	-0.706	0.689
-597.040	-55.493	0.441	-0.198
-596.025	800.000	-0.212	-0.768
-595.011	43.620	0.271	-0.248
-593.996	178.822	-0.356	-0.522
-592.982	800.000	0.077	0.231
-591.967	800.000	0.142	-0.543
-590.952	-108.009	-0.269	0.059
-589.938	613.343	-0.101	0.254
-588.923	-135.655	-0.215	-0.026
-587.909	14.342	-0.583	-0.456
-586.894	-83.635	0.291	0.093
-585.879	135.641	-0.324	0.423
-584.865	-36.435	-0.336	0.181
-583.850	471.341	0.148	-0.335
-582.836	229.787	0.210	-0.343
-581.821	9.739	-0.436	-0.332
-580.806	-106.790	0.436	-0.097
-579.792	-84.610	-0.450	-0.142
-578.777	800.000	0.241	-0.779
-577.763	-17.055	0.379	-0.240
-576.748	109.549	0.464	0.558
-575.733	-11.094	-0.612	0.405
-574.719	114.922	0.326	-0.399
-573.704	-200.000	-0.105	0.857
-572.690	12.535	-0.178	0.137
-571.675	-68.363	-0.555	0.216
-570.661	53.182	0.577	0.554
-569.646	-200.000	-0.060	0.875
-568.631	-52.290	0.731	0.340
-567.617	798.682	-0.226	0.625
-566.602	-54.080	0.187	0.085
-565.588	-156.499	-0.700	0.044
-564.573	-119.175	0.275	0.048
-563.558	133.418	0.437	0.566
-562.544	-5.707	-0.774	-0.532
-561.529	800.000	0.057	0.233
-560.515	639.911	0.221	0.563
-559.500	-192.072	-0.619	0.006
-558.485	297.709	-0.405	0.745
-557.471	373.382	-0.218	-0.444
-556.456	240.717	0.320	0.535
-555.442	-42.171	0.131	0.067
-554.427	26.037	-0.739	0.618
-553.412	800.000	0.198	-0.660
-552.398	-188.323	0.757	0.010
-551.383	55.636	0.549	-0.532
-550.369	800.000	0.028	0.102
-549.354	-8.402	-0.460	-0.310
-548.339	800.000	-0.081	-0.294
-547.325	-140.414	0.566	-0.059
-546.310	-121.148	0.615	-0.103
-545.296	-200.000	0.082	-0.804
-544.281	396.385	0.245	-0.513
-543.266	800.000	-0.089	-0.324
-542.252	-83.683	0.430	-0.138
-541.237	-137.623	0.925	0.104
-540.223	-111.871	-0.725	-0.147
-539.208	52.165	0.315	-0.301
-538.193	-200.000	0.157	0.746
-537.179	-37.328	0.518	-0.277
-536.164	19.109	0.518	0.416
-535.150	-145.795	-0.327	-0.029
-534.135	-200.000	-0.074	-1.029
-533.121	-112.657	-0.595	0.118
-532.106	-101.304	-0.244	-0.060
-531.091	800.000	-0.186	0.697
-530.077	-60.922	-0.618	0.262
-529.062	-200.000	0.057	0.568
-528.048	111.026	0.350	-0.422
-527.033	-138.412	-0.709	-0.078
-526.018	-200.000	0.102	-0.626
-525.004	-81.828	0.419	-0.137
-523.989	-200.000	0.002	-0.046
-522.975	-6.903	-0.755	0.513
-521.960	-49.149	0.499	0.239
-520.945	-83.573	0.148	-0.047
-519.931	25.138	-0.307	-0.255
-518.916	-132.723	0.339	0.043
-517.902	-72.670	0.239	0.088
-516.887	423.867	0.346	-0.745
-515.872	-56.323	-0.370	-0.165
-514.858	-200.000	-0.019	-0.184
-513.843	800.000	-0.021	0.081
-512.829	-38.599	0.678	0.358
-511.814	-200.000	0.054	-0.380
-510.799	-17.887	-0.201	-0.126
-509.785	-67.416	0.376	-0.148
-508.770	-200.000	-0.026	0.426
-507.756	44.241	0.724	-0.664
-506.741	593.375	0.185	-0.457
-505.726	-60.781	1.041	0.441
-504.712	84.618	-0.456	-0.499
-503.697	-200.000	-0.007	0.583
-502.683	-200.000	-0.004	-0.258
-501.668	800.000	-0.311	-1.080
-500.653	-2.749	0.263	0.184
-499.639	-28.319	0.816	-0.471
-498.624	57.206	0.122	0.119
-497.610	-45.464	0.054	-0.027
-496.595	-30.626	0.437	0.247
-495.581	-60.329	-0.869	-0.370
-494.566	-200.000	-0.178	-0.960
-493.551	800.000	0.178	-0.644
-492.537	73.235	-0.673	-0.703
-491.522	295.451	-0.120	0.219
-490.508	-200.000	0.107	-0.473
-489.493	-93.096	-0.453	-0.126
-488.478	91.644	0.200	0.225
-487.464	94.645	-0.282	0.320
-486.449	-102.926	-0.440	0.104
-485.435	137.258	0.246	0.322
-484.420	-10.469	-0.502	0.332
-483.405	599.471	0.265	0.658
-482.391	-200.000	0.011	-0.200
-481.376	468.967	-0.261	0.585
-480.362	103.525	-0.086	-0.101
-479.347	-200.000	0.085	0.685
-478.332	47.488	-0.328	0.305
-477.318	104.733	-0.126	-0.149
-476.303	492.897	-0.488	1.116
-475.289	-200.000	0.054	-0.637
-474.274	0.025	-0.707	-0.503
-473.259	-121.449	0.312	0.052
-472.245	-117.544	0.276	0.050
-471.230	6.045	-1.256	-0.929
-470.216	3.523	0.714	-0.520
-469.201	74.323	-0.182	-0.191
-468.186	-11.062	-0.564	-0.371
-467.172	102.346	0.040	-0.047
-466.157	-200.000	0.003	0.215
-465.143	459.991	0.155	-0.346
-464.128	-200.000	0.002	0.088
-463.113	132.238	0.666	-0.857
-462.099	16.193	-0.092	0.072
-461.084	604.439	0.293	0.727
-460.070	-146.661	0.417	-0.036
-459.055	-200.000	0.029	0.130
-458.040	-88.054	-0.705	-0.211
-457.026	65.244	-0.293	-0.296
-456.011	-47.711	-0.721	-0.349
-454.997	-50.898	-0.771	-0.362
-453.982	402.425	0.228	-0.479
-452.968	-20.119	0.253	0.156
-451.953	-47.168	0.734	0.357
-450.938	553.444	0.308	0.740
-449.924	21.653	-0.210	-0.171
-448.909	-28.178	-0.421	0.243
-447.895	-48.753	0.063	-0.030
-446.880	-200.000	-0.051	-0.231
-445.865	-62.846	-0.341	-0.141
-444.851	-67.861	0.495	0.193
-443.836	28.549	-0.483	-0.408
-442.822	-200.000	0.003	0.304
-441.807	-188.381	0.432	0.005
-440.792	-200.000	0.029	0.165
-439.778	404.699	0.262	-0.551
-438.763	27.598	-0.387	-0.325
-437.749	-200.000	-0.075	0.437
-436.734	800.000	-0.110	0.427
-435.719	-200.000	0.045	-0.232
-434.705	800.000	0.130	-0.488
-433.690	-200.000	0.026	0.815
-432.676	-200.000	0.258	1.198
-431.661	-120.224	0.163	-0.028
-430.646	-168.957	-0.333	-0.012
-429.632	-200.000	-0.011	0.412
-428.617	-79.721	-0.295	0.099
-427.603	324.229	-0.404	-0.770
-426.588	800.000	-0.078	0.309
-425.573	-9.448	-0.389	0.259
-424.559	-16.727	-0.196	0.124
-423.544	366.675	0.616	1.238
-422.530	-13.954	0.468	-0.301
-421.515	-14.829	-0.383	-0.245
-420.500	161.064	-0.204	0.283
-419.486	233.554	0.722	1.183
-418.471	-22.202	0.581	0.351
-417.457	135.756	0.212	-0.275
-416.442	-139.833	0.712	0.075
-415.428	-53.017	1.037	0.475
-414.413	800.000	0.224	0.740
-413.398	-16.532	0.339	0.214
-412.384	-35.388	0.492	0.266
-411.369	-7.828	0.911	0.613
-410.355	-104.458	0.649	-0.149
-409.340	-133.136	0.273	-0.034
-408.325	624.800	-0.093	0.232
-407.311	-35.893	-0.568	-0.306
-406.296	83.353	-0.486	-0.527
-405.282	-136.968	0.679	0.078
-404.267	-200.000	0.007	0.222
-403.252	-112.912	0.077	-0.015
-402.238	-46.007	-0.892	-0.438
-401.223	-36.320	-0.741	0.398
-400.209	-87.515	0.171	0.052
-399.194	800.000	-0.049	-0.196
-398.179	-30.593	0.976	0.551
-397.165	-130.095	-1.289	0.175
-396.150	61.105	-0.287	-0.284
-395.136	800.000	-0.088	0.264
-394.121	60.045	0.481	0.473
-393.106	-87.903	0.670	-0.201
-392.092	-194.964	-0.855	0.007
-391.077	12.895	-0.439	-0.338
-390.063	-200.000	0.009	-0.334
-389.048	-170.491	0.351	-0.012
-388.033	49.306	-0.625	0.585
-387.019	64.386	-0.154	0.155
-386.004	26.310	-0.315	0.262
-384.990	-83.012	-0.281	0.090
-383.975	-106.228	0.454	0.101
-382.960	128.390	0.386	0.489
-381.946	-55.596	-0.820	0.366
-380.931	686.377	-0.043	0.112
-379.917	91.711	-0.227	0.254
-378.902	-200.000	-0.107	-0.615
-377.888	-44.030	0.410	0.205
-376.873	-200.000	0.084	0.522
-375.858	-87.144	0.295	-0.089
-374.844	-14.483	-0.577	0.369
-373.829	148.880	0.293	0.393
-372.815	800.000	-0.200	-0.581
-371.800	-99.425	-0.172	0.043
-370.785	722.949	0.115	-0.305
-369.771	193.410	-0.271	0.407
-368.756	-62.906	-0.622	-0.256
-367.742	-150.125	0.043	-0.003
-366.727	-76.554	0.118	-0.041
-365.712	-200.000	-0.012	-0.239
-364.698	-144.914	-0.226	0.021
-363.683	151.080	-0.215	-0.290
-362.669	45.343	-0.179	-0.164
-361.654	665.918	-0.319	-0.821
-360.639	56.014	-0.121	-0.117
-359.625	800.000	-0.185	0.791
-358.610	89.137	0.733	0.811
-357.596	800.000	0.184	-0.602
-356.581	800.000	-0.202	-0.840
-355.566	-200.000	-0.137	0.792
-354.552	-27.045	-0.375	0.217
-353.537	39.458	0.502	-0.447
-352.523	-126.208	0.675	0.100
-351.508	-200.000	0.066	0.343
-350.493	81.537	-0.322	-0.346
-349.479	-96.477	-0.660	0.173
-348.464	-182.011	-0.187	0.004
-347.450	-78.306	0.741	-0.253
-346.435	39.488	-0.354	-0.315
-345.420	-200.000	0.060	0.324
-344.406	-180.100	0.404	-0.008
-343.391	800.000	-0.235	0.708
-342.377	-200.000	0.031	0.462
-341.362	40.973	-0.222	-0.199
-340.348	-16.353	-0.680	-0.429
-339.333	-104.421	0.614	0.141
-338.318	-38.289	0.562	0.296
-337.304	166.836	-0.161	-0.227
-336.289	-48.326	-0.347	0.166
-335.275	292.214	-0.273	-0.493
-334.260	45.155	-0.505	0.462
-333.245	800.000	0.057	-0.192
-332.231	12.410	0.607	-0.464
-331.216	-200.000	-0.005	-0.078
-330.202	152.046	0.343	-0.465
-329.187	52.268	0.271	-0.257
-328.172	800.000	-0.111	0.346
-327.158	800.000	-0.087	0.238
-326.143	-200.000	-0.118	-0.793
-325.129	325.192	-0.199	0.378
-324.114	-3.407	0.489	-0.338
-323.099	-5.908	-0.239	0.162
-322.085	33.612	-0.205	0.177
-321.070	33.605	0.503	0.434
-320.056	158.211	-0.334	0.459
-319.041	97.059	-0.767	-0.874
-318.026	-7.504	-0.215	-0.144
-317.012	-49.388	-0.694	-0.329
-315.997	407.707	0.132	-0.277
-314.983	32.708	0.439	0.377
-313.968	-82.018	0.482	-0.156
-312.953	-79.543	0.316	0.106
-311.939	800.000	-0.191	0.606
-310.924	-200.000	0.050	0.638
-309.910	-200.000	-0.095	-0.442
-308.895	4.600	-0.367	0.267
-307.880	70.798	-0.382	0.392
-306.866	310.111	-0.545	-1.011
-305.851	36.952	0.066	-0.058
-304.837	305.960	0.213	0.393
-303.822	182.767	-0.437	0.640
-302.807	-2.815	0.153	0.106
-301.793	-150.080	-0.232	-0.018
-300.778	1.695	-0.111	0.079
-299.764	124.549	-0.247	-0.308
-298.749	-150.677	0.677	0.051
-297.735	-200.000	0.001	-0.520
-296.720	-200.000	-0.001	0.043
-295.705	64.857	0.698	0.699
-294.691	-52.221	-0.174	-0.080
-293.676	41.654	-0.309	-0.277
-292.662	341.430	0.190	0.368
-291.647	-200.000	0.050	-0.335
-290.632	8.865	-0.190	0.142
-289.618	-22.784	-0.114	0.068
-288.603	406.413	-0.280	0.586
-287.589	-200.000	0.008	0.125
-286.574	-200.000	-0.091	0.946
-285.559	-51.491	0.015	0.007
-284.545	25.839	0.257	0.212
-283.530	-44.946	-0.251	-0.124
-282.516	-42.703	0.356	0.179
-281.501	-200.000	-0.034	0.875
-280.486	-38.936	-0.105	-0.055
-279.472	-200.000	0.042	0.191
-278.457	-200.000	-0.013	0.475
-277.443	-57.966	1.001	0.433
-276.428	-200.000	-0.008	0.221
-275.413	-6.700	0.668	0.451
-274.399	336.939	-0.102	-0.197
-273.384	-166.767	-0.232	-0.010
-272.370	508.973	0.248	-0.570
-271.355	800.000	-0.204	-0.600
-270.340	-94.929	0.613	0.164
-269.326	-103.226	-1.018	0.238
-268.311	350.405	0.546	-1.070
-267.297	-200.000	-0.106	0.545
-266.282	363.908	0.296	-0.590
-265.267	-200.000	-0.001	-0.092
-264.253	-200.000	-0.002	-0.311
-263.238	-61.704	0.422	0.175
-262.224	800.000	-0.172	-0.588
-261.209	548.764	-0.106	0.251
-260.195	800.000	0.039	0.145
-259.180	281.611	-0.237	-0.420
-258.165	800.000	-0.100	0.390
-257.151	-160.093	-0.689	-0.037
-256.136	-200.000	-0.101	-1.292
-255.122	-200.000	0.064	-0.405
-254.107	-39.679	-0.888	-0.460
-253.092	800.000	-0.300	-1.075
-252.078	10.967	0.327	0.247
-251.063	-60.417	0.391	0.165
-250.049	53.790	-0.568	-0.540
-249.034	3.513	-0.704	0.508
-248.019	-200.000	-0.166	-1.102
-247.005	498.682	-0.270	-0.616
-245.990	108.031	-0.311	0.367
-244.976	185.994	-0.554	0.815
-243.961	-121.637	0.948	-0.155
-242.946	-92.902	-0.717	0.198
-241.932	-173.345	0.824	-0.025
-240.917	800.000	-0.181	-0.513
-239.903	7.491	-0.715	-0.529
-238.888	-4.565	-0.423	0.289
-237.873	-7.562	-0.254	0.170
-236.859	-100.551	0.849	-0.208
-235.844	284.466	-0.256	-0.455
-234.830	-36.329	0.348	0.185
-233.815	66.539	-0.252	0.254
-232.800	-89.251	-0.265	0.077
-231.786	234.332	0.369	-0.601
-230.771	143.126	0.670	-0.881
-229.757	19.240	-0.582	-0.462
-228.742	-184.401	0.144	-0.002
-227.727	800.000	-0.153	-0.639
-226.713	106.178	0.065	0.076
-225.698	729.069	-0.135	-0.356
-224.684	-84.518	-0.540	0.168
-223.669	-74.811	-0.103	0.037
-222.655	-68.143	0.363	-0.140
-221.640	800.000	0.147	0.578
-220.625	112.721	0.306	0.367
-219.611	133.083	-0.469	0.599
-218.596	77.609	0.384	0.404
-217.582	-200.000	-0.050	-0.309
-216.567	800.000	-0.017	0.076
-215.552	-200.000	-0.021	0.348
-214.538	38.030	0.823	-0.724
-213.523	800.000	-0.107	-0.393
-212.509	586.091	0.249	-0.605
-211.494	143.990	0.280	-0.369
-210.479	477.993	-0.217	0.486
-209.465	532.066	0.258	-0.602
-208.450	-0.588	0.840	-0.589
-207.436	800.000	-0.128	0.371
-206.421	59.320	-0.340	0.331
-205.406	-190.320	0.241	0.003
-204.392	-152.275	-0.265	-0.019
-203.377	-69.470	0.562	-0.213
-202.363	-11.384	0.600	-0.390
-201.348	622.562	0.145	-0.362
-200.333	-200.000	-0.064	1.206
-199.319	221.312	0.324	0.514
-198.304	13.589	-0.581	-0.446
-197.290	32.320	-0.308	0.263
-196.275	800.000	0.077	0.211
-195.260	15.384	-0.190	-0.147
-194.246	-61.946	0.232	-0.096
-193.231	-167.372	-0.402	0.016
-192.217	-141.567	-0.710	-0.071
-191.202	800.000	0.079	-0.297
-190.187	-119.337	0.309	0.053
-189.173	40.400	-0.375	-0.334
-188.158	800.000	0.044	0.165
-187.144	376.618	-0.115	-0.232
-186.129	-200.000	0.028	0.539
-185.114	-184.138	-0.904	0.015
-184.100	-76.138	-0.554	0.193
-183.085	-25.189	0.312	0.183
-182.071	9.218	-0.232	0.173
-181.056	105.466	-0.387	-0.451
-180.042	22.086	0.148	0.119
-179.027	183.044	-0.564	-0.822
-178.012	-93.329	-0.668	-0.183
-176.998	195.192	0.318	0.477
-175.983	-92.277	0.725	-0.202
-174.969	800.000	0.205	0.830
-173.954	-69.419	1.141	0.432
-172.939	-47.926	0.149	-0.071
-171.925	-130.692	0.652	0.087
-170.910	800.000	-0.310	0.997
-169.896	19.430	0.311	0.246
-168.881	800.000	-0.018	0.052
-167.866	-120.362	0.169	-0.028
-166.852	44.135	-0.536	0.485
-165.837	-149.369	0.610	-0.048
-164.823	800.000	0.136	0.484
-163.808	-200.000	-0.022	-0.226
-162.793	263.599	-0.213	0.366
-161.779	-77.351	-0.177	0.061
-160.764	-117.959	0.651	0.115
-159.750	187.570	0.428	-0.630
-158.735	-190.827	1.230	0.013
-157.720	562.747	-0.559	1.335
-156.706	41.725	-1.215	1.086
-155.691	-78.838	0.312	0.105
-154.677	66.609	-0.635	0.637
-153.662	-131.805	0.445	0.057
-152.647	800.000	-0.103	-0.416
-151.633	800.000	0.180	-0.524
-150.618	-37.151	-0.685	-0.362
-149.604	-76.689	0.692	-0.239
-148.589	49.824	0.509	-0.473
-147.574	-36.067	-0.212	0.113
-146.560	67.440	0.079	0.080
-145.545	-155.002	0.978	-0.063
-144.531	-119.625	-0.376	-0.064
-143.516	93.414	-1.018	-1.136
-142.502	-200.000	-0.047	-0.830
-141.487	-67.937	0.756	-0.291
-140.472	-97.855	-1.154	0.294
-139.458	-139.850	-1.226	0.128
-138.443	800.000	-0.128	-0.427
-137.429	-24.267	0.572	0.336
-136.414	-38.580	0.655	-0.341
-135.399	-200.000	-0.063	0.786
-134.385	800.000	-0.040	-0.165
-133.370	-64.985	-0.751	-0.299
-132.356	-43.699	-0.388	0.193
-131.341	348.106	-0.158	0.307
-130.326	38.198	0.085	0.075
-129.312	-200.000	0.066	0.344
-128.297	-35.433	0.262	0.140
-127.283	-52.785	-0.305	-0.139
-126.268	-200.000	0.004	0.389
-125.253	-123.286	-1.147	0.181
-124.239	-200.000	-0.182	-0.905
-123.224	402.655	-0.283	-0.586
-122.210	-195.860	0.516	0.004
-121.195	797.491	-0.094	-0.256
-120.180	17.207	-0.169	0.132
-119.166	237.971	0.080	0.131
-118.151	223.689	-0.217	-0.345
-117.137	-200.000	-0.032	0.383
-116.122	176.951	-0.238	-0.342
-115.107	-18.802	-0.537	-0.329
-114.093	130.538	0.552	0.697
-113.078	429.645	-0.191	-0.406
-112.064	-126.751	-0.115	0.017
-111.049	413.401	-0.164	0.344
-110.034	-98.166	-0.424	-0.107
-109.020	-200.000	-0.071	0.493
-108.005	-86.115	0.538	0.163
-106.991	14.200	-0.601	-0.461
-105.976	-77.497	0.171	0.058
-104.962	209.280	-0.131	0.203
-103.947	-110.985	-0.216	-0.044
-102.932	-102.805	0.283	-0.066
-101.918	-200.000	-0.035	-0.310
-100.903	37.528	0.591	0.516
-99.889	-168.800	0.900	-0.033
-98.874	143.529	0.326	-0.427
-97.859	-200.000	-0.015	-0.250
-96.845	380.419	-0.246	-0.496
-95.830	196.417	0.224	0.335
-94.816	16.451	0.700	-0.544
-93.801	-200.000	-0.006	0.289
-92.786	-14.502	0.187	-0.119
-91.772	-119.089	-0.675	-0.116
-90.757	-135.820	-0.908	0.105
-89.743	-125.412	-0.141	0.021
-88.728	-24.814	-0.556	0.325
-87.713	139.239	0.510	-0.660
-86.699	111.727	0.279	0.332
-85.684	391.113	-0.299	-0.611
-84.670	-84.879	0.428	-0.132
-83.655	-126.509	-0.731	0.107
-82.640	-33.724	-0.719	0.390
-81.626	-72.203	-0.274	-0.100
-80.611	-15.769	-0.468	0.293
-79.597	800.000	0.127	-0.380
-78.582	-69.927	0.348	0.130
-77.567	-69.277	-0.349	-0.132
-76.553	44.144	-0.358	0.323
-75.538	-20.159	0.170	0.103
-74.524	-200.000	-0.006	0.074
-73.509	340.031	0.256	-0.491
-72.494	-68.077	0.596	-0.228
-71.480	-102.339	0.180	-0.042
-70.465	-126.681	0.692	0.101
-69.451	268.543	0.226	0.390
-68.436	-200.000	0.211	-1.018
-67.422	366.401	0.186	0.368
-66.407	-31.107	0.915	-0.507
-65.392	23.098	0.134	0.108
-64.378	-120.040	-0.273	-0.046
-63.363	-76.276	-0.164	0.057
-62.349	7.304	0.350	0.257
-61.334	-53.189	-0.728	-0.328
-60.319	27.495	0.408	0.337
-59.305	376.571	-0.547	-1.097
-58.290	-99.665	0.477	0.117
-57.276	456.786	0.653	1.424
-56.261	-200.000	96.211	581.236
-55.246	664.680	1363.028	3456.420
-54.232	202.314	2532.732	3839.134
-53.217	112.542	2249.462	2674.284
-52.203	42.403	1880.817	1679.824
-51.188	36.404	1673.228	1449.501
-50.173	33.415	1630.444	1390.483
-49.159	51.768	1680.965	1570.751
-48.144	52.788	1694.899	1591.299
-47.130	35.769	1656.555	1430.112
-46.115	33.242	1641.013	1397.996
-45.100	32.904	1636.350	1391.479
-44.086	32.885	1633.117	1388.534
-43.071	33.045	1630.141	1387.124
-42.057	32.991	1627.954	1384.809
-41.042	32.780	1626.219	1381.731
-40.027	32.847	1624.835	1380.996
-39.013	32.872	1622.617	1379.234
-37.998	32.757	1622.187	1377.974
-36.984	32.803	1620.481	1376.806
-35.969	32.868	1618.707	1375.716
-34.954	33.169	1615.765	1375.352
-33.940	32.840	1614.792	1372.075
-32.925	32.904	1613.806	1371.651
-31.911	33.089	1610.614	1370.227
-30.896	32.908	1609.668	1368.057
-29.881	32.905	1608.112	1366.655
-28.867	33.018	1606.302	1365.885
-27.852	32.978	1604.725	1364.199
-26.838	32.932	1604.330	1363.477
-25.823	32.735	1602.372	1360.337
-24.809	32.784	1601.487	1359.882
-23.794	32.869	1599.308	1358.594
-22.779	32.927	1598.154	1357.973
-21.765	32.841	1596.583	1355.968
-20.750	32.880	1595.622	1355.378
-19.736	32.850	1594.082	1353.799
-18.721	33.074	1591.669	1353.305
-17.706	33.114	1590.322	1352.391
-16.692	33.134	1589.082	1351.428
-15.677	32.866	1588.137	1348.649
-14.663	32.988	1586.337	1347.943
-13.648	32.986	1584.490	1346.303
-12.633	32.916	1583.961	1345.304
-11.619	32.987	1581.170	1343.383
-10.604	32.989	1580.784	1343.018
-9.590	33.007	1578.889	1341.481
-8.575	32.875	1577.475	1339.293
-7.560	33.238	1575.474	1340.107
-6.546	32.791	1575.554	1336.955
-5.531	33.221	1572.948	1337.736
-4.517	32.853	1572.945	1335.077
-3.502	32.809	1572.595	1334.415
-2.487	32.977	1570.380	1333.667
-1.473	32.725	1558.284	1321.575
-0.458	29.886	1538.136	1284.760
0.556	27.333	1538.662	1252.437
1.571	24.748	1561.902	1253.156
2.586	24.260	1573.335	1258.768
3.600	21.259	1522.682	1197.598
4.615	12.582	1412.298	1055.261
5.629	4.730	1346.974	958.167
6.644	3.047	1339.337	942.340
7.659	2.937	1339.416	941.639
8.673	2.884	1338.186	940.369
9.688	3.053	1335.345	939.318
10.702	2.832	1332.381	935.803
11.717	6.505	1339.179	962.968
12.731	15.741	1356.749	1032.457
13.746	23.374	1369.347	1089.059
14.761	24.983	1370.610	1099.853
15.775	25.213	1369.347	1100.152
16.790	24.933	1368.940	1098.010
17.804	24.718	1369.867	1097.337
18.819	25.231	1368.750	1099.490
19.834	25.161	1367.685	1098.113
20.848	25.172	1366.758	1097.338
21.863	25.205	1366.517	1097.247
22.877	25.297	1365.413	1096.824
23.892	25.185	1364.635	1095.418
24.907	25.183	1364.158	1094.932
25.921	25.380	1362.912	1095.034
26.936	25.323	1362.478	1094.239
27.950	25.092	1360.972	1091.528
28.965	25.348	1359.675	1091.947
29.980	25.268	1358.672	1090.559
30.994	25.357	1357.508	1090.067
32.009	25.358	1357.201	1089.732
33.023	25.309	1355.583	1088.041
34.038	25.417	1354.383	1087.634
35.053	25.401	1353.783	1086.962
36.067	25.304	1352.676	1085.389
37.082	25.469	1351.329	1085.206
38.096	25.436	1350.871	1084.546
39.111	25.611	1349.405	1084.328
40.126	25.336	1349.376	1082.547
41.140	25.394	1348.733	1082.285
42.155	25.147	1348.208	1080.285
43.169	25.222	1348.961	1081.240
44.184	25.398	1347.675	1081.176
45.199	25.405	1347.003	1080.584
46.213	24.977	1348.478	1079.095
47.228	25.080	1347.387	1078.745
48.242	25.223	1344.972	1077.574
49.257	25.269	1344.666	1077.510
50.271	25.230	1343.547	1076.281
51.286	25.423	1341.705	1075.871
52.301	25.275	1340.552	1073.961
53.315	25.300	1340.808	1074.221
54.330	25.215	1339.917	1072.906
55.344	25.201	1338.388	1071.504
56.359	25.232	1337.260	1070.692
57.374	25.170	1336.308	1069.461
58.388	25.404	1336.171	1070.652
59.403	25.490	1335.507	1070.541
60.417	25.448	1333.935	1068.934
61.432	25.304	1333.943	1067.991
62.447	25.163	1333.010	1066.313
63.461	25.339	1331.017	1065.668
64.476	25.216	1330.908	1064.753
65.490	25.094	1329.754	1063.014
66.505	25.134	1328.547	1062.191
67.520	25.394	1326.418	1061.935
68.534	25.253	1325.903	1060.593
69.549	25.534	1325.330	1061.701
70.563	25.123	1324.931	1058.860
71.578	25.455	1323.658	1059.709
72.593	25.430	1322.666	1058.676
73.607	25.382	1321.539	1057.395
74.622	25.503	1321.502	1057.981
75.636	25.249	1320.951	1055.953
76.651	25.257	1320.213	1055.318
77.666	25.228	1320.177	1055.025
78.680	25.772	1318.303	1056.627
79.695	25.111	1318.888	1053.121
80.709	25.281	1317.384	1052.826
81.724	25.520	1316.317	1053.277
82.739	25.550	1314.877	1052.212
83.753	25.892	1313.851	1053.294
84.768	25.348	1314.508	1050.547
85.782	25.652	1312.174	1050.365
86.797	25.668	1310.868	1049.318
87.812	25.558	1310.785	1048.516
88.826	25.349	1309.344	1046.056
89.841	25.562	1307.239	1045.521
90.855	25.626	1307.446	1045.964
91.870	25.490	1306.639	1044.438
92.884	25.486	1306.985	1044.597
93.899	25.448	1306.431	1043.839
94.914	25.436	1304.594	1042.212
95.928	25.816	1303.452	1043.408
96.943	25.384	1303.614	1040.943
97.957	25.594	1302.505	1041.181
98.972	25.511	1301.733	1039.989
99.987	25.062	1303.041	1038.342
101.001	25.449	1300.119	1038.160
102.016	25.527	1298.701	1037.388
103.030	25.642	1297.547	1037.032
104.045	25.455	1297.614	1035.916
105.060	25.645	1295.965	1035.606
106.074	25.538	1294.958	1034.091
107.089	25.498	1293.806	1032.852
108.103	25.394	1292.825	1031.379
109.118	25.333	1290.786	1029.310
110.133	25.523	1289.961	1029.653
111.147	25.477	1288.913	1028.462
112.162	25.449	1287.956	1027.443
113.176	25.621	1287.233	1027.758
114.191	25.512	1285.611	1025.751
115.206	25.298	1284.969	1023.928
116.220	25.814	1283.025	1025.225
117.235	25.499	1282.840	1023.194
118.249	25.001	1282.278	1019.820
119.264	25.131	1282.178	1020.391
120.279	25.456	1281.249	1021.412
121.293	25.640	1279.727	1021.153
122.308	25.493	1278.698	1019.406
123.322	25.595	1278.453	1019.701
124.337	25.195	1278.280	1017.206
125.352	25.511	1275.242	1016.484
126.366	25.711	1275.281	1017.553
127.381	25.759	1274.242	1016.907
128.395	25.276	1275.128	1014.795
129.410	25.429	1273.568	1014.330
130.424	25.440	1273.016	1013.857
131.439	25.237	1271.301	1011.260
132.454	25.367	1271.070	1011.717
133.468	25.494	1269.444	1011.048
134.483	25.564	1270.447	1012.151
135.497	25.483	1268.918	1010.389
136.512	25.722	1267.289	1010.343
137.527	25.383	1267.448	1008.482
138.541	25.730	1265.475	1008.766
139.556	25.450	1264.295	1006.168
140.570	25.423	1264.530	1006.113
141.585	25.445	1263.869	1005.620
142.600	25.634	1262.237	1005.290
143.614	25.624	1260.853	1004.045
144.629	25.819	1259.795	1004.202
145.643	25.619	1258.956	1002.331
146.658	25.592	1257.230	1000.714
147.673	25.617	1256.926	1000.523
148.687	25.655	1255.660	999.639
149.702	25.830	1253.907	999.124
150.716	24.991	1252.423	993.202
151.731	25.132	1252.192	993.715
152.746	25.280	1251.016	993.512
153.760	25.716	1250.056	995.072
154.775	25.820	1250.028	995.541
155.789	25.768	1249.107	994.429
156.804	25.813	1246.668	992.646
157.819	25.153	1247.026	989.207
158.833	25.228	1245.943	988.674
159.848	25.518	1246.470	990.604
160.862	25.489	1245.605	989.668
161.877	25.588	1243.973	988.827
162.892	25.541	1243.348	987.986
163.906	25.578	1242.528	987.448
164.921	25.525	1240.729	985.641
165.935	25.419	1241.468	985.562
166.950	25.698	1239.922	985.776
167.964	25.634	1239.801	985.240
168.979	25.687	1239.968	985.575
169.994	25.847	1237.340	984.271
171.008	25.406	1237.864	982.192
172.023	25.734	1235.544	982.054
173.037	25.760	1235.806	982.319
174.052	25.557	1235.447	980.836
175.067	25.475	1234.885	979.856
176.081	25.564	1233.094	978.835
177.096	25.437	1233.097	978.062
178.110	25.845	1231.350	978.805
179.125	25.459	1230.517	975.960
180.140	25.514	1230.017	975.775
181.154	25.457	1228.342	974.049
182.169	25.407	1228.324	973.681
183.183	25.526	1226.085	972.460
184.198	25.610	1226.159	972.886
185.213	25.653	1225.238	972.304
186.227	25.563	1224.674	971.286
187.242	25.645	1223.691	970.861
188.256	25.696	1222.271	969.926
189.271	25.595	1221.591	968.757
190.286	25.630	1220.892	968.303
191.300	25.313	1219.394	965.324
192.315	25.201	1219.847	964.994
193.329	25.645	1220.019	967.432
194.344	25.707	1218.521	966.496
195.359	25.712	1217.268	965.440
196.373	25.401	1216.289	962.914
197.388	25.261	1216.277	962.066
198.402	25.475	1216.220	963.082
199.417	25.526	1216.117	963.188
200.432	25.650	1215.726	963.459
201.446	25.577	1215.046	962.446
202.461	25.808	1213.555	962.412
203.475	25.463	1213.434	960.387
204.490	25.286	1211.993	958.217
205.504	25.202	1210.776	956.724
206.519	25.214	1210.348	956.362
207.534	25.023	1209.558	954.636
208.548	25.303	1208.317	955.064
209.563	25.340	1206.567	953.795
210.577	25.389	1205.249	952.925
211.592	25.351	1205.261	952.651
212.607	25.567	1205.145	953.620
213.621	25.549	1204.264	952.743
214.636	25.400	1202.915	950.804
215.650	25.328	1201.893	949.531
216.665	25.451	1201.457	949.750
217.680	25.582	1200.984	949.987
218.694	25.602	1200.432	949.571
219.709	25.467	1199.533	948.063
220.723	25.790	1198.608	948.951
221.738	25.523	1197.005	946.192
222.753	25.294	1197.440	945.249
223.767	25.492	1196.792	945.692
224.782	25.216	1196.240	943.723
225.796	25.597	1195.863	945.345
226.811	25.568	1195.872	945.117
227.826	25.493	1194.292	943.388
228.840	25.401	1193.769	942.408
229.855	25.654	1192.444	942.608
230.869	25.605	1192.926	942.648
231.884	25.545	1192.225	941.697
232.899	25.208	1189.704	937.859
233.913	25.452	1189.495	938.885
234.928	25.363	1189.350	938.222
235.942	25.525	1188.471	938.295
236.957	25.412	1186.995	936.456
237.972	25.140	1187.057	935.003
238.986	25.258	1187.113	935.580
240.001	25.283	1186.774	935.361
241.015	25.330	1185.293	934.357
242.030	25.644	1184.369	935.178
243.045	25.436	1183.885	933.630
244.059	25.791	1183.100	934.773
245.074	25.800	1180.969	933.052
246.088	25.779	1181.394	933.197
247.103	25.705	1181.018	932.432
248.117	25.709	1180.361	931.852
249.132	25.929	1179.501	932.228
250.147	26.146	1178.644	932.593
251.161	26.182	1178.037	932.217
252.176	25.980	1177.314	930.519
253.190	26.127	1177.428	931.282
254.205	26.434	1175.511	931.267
255.220	25.989	1176.629	929.775
256.234	26.280	1175.353	930.186
257.249	26.151	1174.086	928.437
258.263	26.029	1174.298	927.893
259.278	26.272	1172.325	927.499
260.293	25.927	1172.649	925.903
261.307	26.088	1172.118	926.227
262.322	26.234	1171.998	926.799
263.336	25.787	1171.561	924.079
264.351	26.188	1170.318	925.073
265.366	26.162	1169.641	924.323
266.380	26.075	1169.410	923.614
267.395	26.082	1168.291	922.682
268.409	25.923	1167.489	921.154
269.424	25.806	1167.532	920.511
270.439	25.936	1166.898	920.594
271.453	26.165	1165.992	920.961
272.468	25.823	1163.881	917.472
273.482	25.816	1163.961	917.420
274.497	25.879	1163.099	916.977
275.512	25.939	1162.129	916.440
276.526	25.940	1162.423	916.593
277.541	25.856	1161.279	915.183
278.555	25.763	1161.103	914.492
279.570	26.074	1160.937	915.861
280.585	26.041	1160.163	915.002
281.599	26.166	1158.832	914.504
282.614	26.012	1158.062	913.034
283.628	25.937	1156.211	911.117
284.643	25.831	1156.305	910.573
285.657	25.834	1156.316	910.516
286.672	25.743	1155.455	909.296
287.687	26.032	1154.223	909.707
288.701	25.832	1153.544	908.082
289.716	26.016	1152.595	908.180
290.730	26.469	1151.109	909.209
291.745	26.213	1150.356	907.248
292.760	25.629	1151.032	904.761
293.774	26.059	1150.271	906.245
294.789	26.025	1150.355	906.061
295.803	25.986	1148.996	904.717
296.818	25.974	1148.349	904.066
297.833	26.030	1147.161	903.329
298.847	25.943	1146.552	902.335
299.862	26.016	1145.891	902.103
300.876	26.041	1144.962	901.415
301.891	26.124	1145.446	902.129
302.906	26.329	1143.980	901.918
303.920	26.145	1143.957	900.904
304.935	26.082	1143.122	899.852
305.949	26.135	1142.470	899.522
306.964	26.183	1141.832	899.183
307.979	26.397	1140.267	898.931
308.993	25.999	1140.453	897.019
310.008	26.332	1139.234	897.638
311.022	25.964	1140.006	896.333
312.037	26.263	1138.544	896.590
313.052	26.164	1137.031	894.830
314.066	26.238	1136.471	894.678
315.081	25.914	1135.091	891.909
316.095	25.718	1134.803	890.633
317.110	25.853	1134.866	891.272
318.125	25.935	1133.576	890.584
319.139	25.855	1133.248	889.851
320.154	25.997	1131.609	889.189
321.168	25.957	1131.694	888.977
322.183	25.673	1130.869	886.854
323.197	26.101	1129.036	887.441
324.212	26.115	1129.767	888.004
325.227	26.341	1129.151	888.553
326.241	26.264	1129.321	888.232
327.256	25.812	1128.557	885.333
328.270	25.838	1128.056	884.987
329.285	26.018	1125.875	884.081
330.300	26.035	1124.765	883.215
331.314	25.969	1124.747	882.796
332.329	26.032	1123.173	881.792
333.343	26.173	1123.251	882.465
334.358	26.394	1121.287	881.922
335.373	26.296	1121.420	881.470
336.387	26.572	1120.779	882.232
337.402	26.401	1119.966	880.684
338.416	26.072	1120.586	879.488
339.431	26.257	1118.927	879.010
340.446	26.309	1118.865	879.137
341.460	26.490	1117.949	879.218
342.475	26.531	1116.638	878.308
343.489	26.622	1115.710	877.940
344.504	26.506	1115.488	877.126
345.519	26.488	1114.569	876.238
346.533	26.579	1113.983	876.140
347.548	26.946	1112.683	876.816
348.562	26.580	1111.849	874.314
349.577	26.252	1111.408	872.307
350.592	26.224	1110.770	871.592
351.606	26.286	1109.248	870.619
352.621	26.299	1109.260	870.615
353.635	25.975	1109.392	869.079
354.650	26.095	1107.924	868.429
355.665	26.121	1107.145	867.867
356.679	26.219	1107.092	868.220
357.694	26.137	1106.132	866.996
358.708	26.572	1104.902	868.045
359.723	26.540	1104.818	867.747
360.738	26.389	1104.321	866.558
361.752	26.218	1103.447	864.976
362.767	26.374	1102.783	865.126
363.781	26.338	1101.884	864.173
364.796	26.151	1102.099	863.368
365.810	26.639	1102.222	865.722
366.825	26.717	1100.913	864.991
367.840	26.570	1100.206	863.654
368.854	26.699	1100.363	864.319
369.869	26.674	1099.336	863.316
370.883	26.420	1097.460	860.558
371.898	26.519	1097.487	860.973
372.913	26.505	1097.038	860.479
373.927	26.714	1096.955	861.330
374.942	26.748	1095.714	860.441
375.956	26.771	1095.387	860.217
376.971	26.586	1094.605	858.652
377.986	26.621	1094.187	858.413
379.000	26.782	1093.286	858.394
380.015	26.677	1093.483	857.976
381.029	27.007	1092.569	858.741
382.044	26.503	1092.843	856.496
383.059	26.720	1091.146	856.116
384.073	26.773	1089.490	854.991
385.088	26.622	1090.155	854.726
386.102	26.561	1089.801	854.084
387.117	26.518	1088.253	852.593
388.132	26.222	1086.629	849.851
389.146	26.235	1086.434	849.686
390.161	26.418	1085.293	849.577
391.175	26.569	1084.621	849.686
392.190	26.387	1084.379	848.564
393.205	26.422	1083.526	847.990
394.219	26.692	1083.062	848.817
395.234	26.491	1082.491	847.349
396.248	26.419	1081.162	845.900
397.263	26.409	1080.253	845.067
398.278	26.427	1079.812	844.731
399.292	26.399	1080.241	844.860
400.307	26.474	1078.803	844.012
401.321	26.496	1078.004	843.415
402.336	26.502	1076.614	842.279
403.350	26.094	1076.252	840.021
404.365	26.550	1075.647	841.598
405.380	26.593	1075.252	841.415
406.394	26.291	1075.334	840.001
407.409	26.520	1073.849	839.830
408.423	26.692	1073.067	839.940
409.438	26.827	1071.752	839.463
410.453	26.952	1071.469	839.744
411.467	26.973	1071.025	839.419
412.482	26.632	1070.043	836.997
413.496	26.819	1070.039	837.785
414.511	27.016	1069.147	837.922
415.526	26.726	1069.962	837.146
416.540	26.808	1069.109	836.782
417.555	26.727	1068.708	836.022
418.569	26.725	1067.431	834.940
419.584	26.718	1067.013	834.507
420.599	26.846	1066.478	834.603
421.613	152.718	1405.008	1792.634
422.628	140.514	1454.321	1792.693
