DTS Sentinel unit serial number:	SN413079Multiplexer serial number:	ORYXHardware model number:	OX4-SRSoftware version number:	ORYX F/W v4.00 Oryx Data Collector v3.7.2.0data status	okinstallation	princeton_trtdifferential loss correction	single-endedforward channel	channel 2reverse channel	N/Adate	2019/09/10time	22:45:11forward acquisition time	60.00reverse acquisition time	0.00gamma	496.2192k internal	0.2329k external	0.2329temperature offset calibration	0.9945default loss term (dB/km)	0.3790temperature slope calibration	1.0000multiplexer offset coefficient	1.0000multiplexer slope coefficient	1.0000fibre end	0.00T internal ref (°C)	30.19T ext. ref 1 (°C)	-0.31T ext. ref 2 (°C)	23.60length (m)	temperature (°C)	Stokes	anti-Stokes-747.200	-128.488	0.208	-0.030
-746.185	-172.578	-0.150	0.005
-745.171	800.000	0.039	-0.108
-744.156	800.000	0.076	0.248
-743.142	720.227	0.126	0.337
-742.127	130.156	-0.077	0.099
-741.112	-24.066	-0.148	-0.089
-740.098	-91.249	-0.407	0.117
-739.083	-200.000	-0.008	-0.295
-738.069	-130.691	0.203	0.027
-737.054	800.000	0.099	-0.316
-736.039	800.000	-0.030	-0.103
-735.025	-19.730	-0.069	-0.043
-734.010	192.969	-0.036	-0.055
-732.996	340.618	0.137	0.268
-731.981	-192.044	-0.260	0.003
-730.966	220.924	-0.063	-0.101
-729.952	800.000	-0.212	0.604
-728.937	-16.127	-0.280	0.179
-727.923	-34.365	-0.167	0.092
-726.908	-143.091	0.174	0.017
-725.894	295.600	-0.059	-0.108
-724.879	-99.285	-0.152	-0.039
-723.864	800.000	0.072	-0.282
-722.850	100.984	0.088	0.103
-721.835	203.155	-0.063	0.098
-720.821	-200.000	0.018	0.386
-719.806	296.577	-0.115	0.213
-718.791	-62.463	0.427	-0.179
-717.777	800.000	0.015	0.051
-716.762	103.108	0.032	0.037
-715.748	-81.401	-0.195	0.065
-714.733	49.759	0.349	-0.331
-713.718	445.688	0.068	-0.151
-712.704	90.201	-0.306	-0.345
-711.689	182.282	-0.216	0.320
-710.675	-110.005	0.173	0.037
-709.660	-107.530	0.203	0.045
-708.645	800.000	0.052	0.146
-707.631	101.490	-0.221	0.259
-706.616	44.948	0.196	0.182
-705.602	-200.000	-0.001	0.022
-704.587	-23.958	0.207	-0.125
-703.572	10.040	0.076	-0.058
-702.558	692.629	-0.110	0.289
-701.543	73.274	-0.024	0.026
-700.529	-59.094	-0.140	-0.061
-699.514	364.763	0.050	-0.101
-698.499	-200.000	-0.058	-0.282
-697.485	69.597	0.244	-0.252
-696.470	-175.355	-0.005	-0.000
-695.456	800.000	-0.016	0.064
-694.441	113.087	-0.119	0.145
-693.426	800.000	0.034	-0.116
-692.412	-187.604	-0.134	0.002
-691.397	-74.136	-0.086	-0.031
-690.383	-172.942	-0.248	-0.008
-689.368	187.795	0.161	0.241
-688.354	-200.000	-0.014	0.128
-687.339	107.534	0.042	0.050
-686.324	-27.607	-0.289	0.169
-685.310	740.972	0.085	0.230
-684.295	-73.913	0.112	0.041
-683.281	139.936	0.150	-0.198
-682.266	302.516	0.091	0.168
-681.251	59.853	-0.141	0.140
-680.237	65.804	-0.015	-0.015
-679.222	1.472	0.116	0.084
-678.208	0.777	0.045	0.033
-677.193	69.306	-0.175	0.180
-676.178	-102.832	-0.207	0.050
-675.164	-200.000	-0.013	-0.230
-674.149	-200.000	-0.062	-0.373
-673.135	31.211	-0.061	0.052
-672.120	-27.537	0.233	0.136
-671.105	1.362	0.288	-0.208
-670.091	-51.069	0.095	0.045
-669.076	-61.718	-0.244	-0.103
-668.062	-59.559	-0.219	-0.094
-667.047	149.731	0.281	0.383
-666.032	-130.143	-0.295	-0.040
-665.018	-200.000	0.021	-0.232
-664.003	68.585	0.298	-0.307
-662.989	163.065	-0.300	-0.423
-661.974	-200.000	-0.076	0.397
-660.959	800.000	-0.084	0.295
-659.945	646.877	-0.106	0.271
-658.930	800.000	-0.086	-0.372
-657.916	-43.707	-0.136	-0.069
-656.901	-200.000	0.002	0.119
-655.886	185.061	-0.235	-0.351
-654.872	32.498	0.155	0.134
-653.857	265.751	-0.055	0.096
-652.843	785.037	-0.056	-0.154
-651.828	800.000	-0.027	-0.099
-650.814	-101.525	0.103	0.025
-649.799	-200.000	-0.055	-0.374
-648.784	-102.135	-0.081	0.020
-647.770	293.476	0.130	0.238
-646.755	-169.624	0.183	0.007
-645.741	135.663	0.041	0.053
-644.726	-200.000	-0.010	0.143
-643.711	-62.683	-0.214	-0.089
-642.697	-0.408	-0.206	0.147
-641.682	477.259	0.265	0.601
-640.668	459.178	0.178	-0.397
-639.653	-200.000	-0.007	-0.299
-638.638	-200.000	-0.085	0.541
-637.624	32.006	-0.165	0.143
-636.609	723.061	0.078	0.209
-635.595	133.680	0.232	-0.301
-634.580	438.378	0.062	0.135
-633.565	290.668	-0.067	0.122
-632.551	-51.438	-0.255	0.119
-631.536	520.445	-0.060	0.141
-630.522	-200.000	0.053	-0.306
-629.507	472.132	0.036	-0.081
-628.492	141.805	0.238	0.316
-627.478	14.592	-0.117	-0.092
-626.463	219.646	-0.041	-0.065
-625.449	800.000	-0.060	-0.262
-624.434	37.821	-0.135	-0.120
-623.419	-97.915	-0.221	0.057
-622.405	-200.000	0.038	-0.205
-621.390	218.161	-0.203	-0.325
-620.376	197.366	-0.280	0.428
-619.361	-79.286	-0.108	-0.037
-618.346	-49.290	0.199	-0.095
-617.332	800.000	-0.115	-0.389
-616.317	78.991	0.166	-0.178
-615.303	-194.530	-0.148	-0.001
-614.288	-200.000	-0.001	-0.031
-613.273	-55.125	-0.408	0.184
-612.259	20.037	-0.153	-0.123
-611.244	-102.851	-0.225	-0.054
-610.230	270.695	-0.130	-0.230
-609.215	-41.775	0.411	0.211
-608.201	-82.570	-0.073	-0.024
-607.186	-19.670	0.118	-0.073
-606.171	-143.607	-0.120	0.011
-605.157	-138.993	-0.313	-0.034
-604.142	800.000	0.072	-0.275
-603.128	800.000	-0.052	0.195
-602.113	-200.000	0.021	0.256
-601.098	-149.901	0.299	-0.023
-600.084	4.283	-0.204	-0.150
-599.069	-124.629	0.244	0.038
-598.055	800.000	-0.090	-0.256
-597.040	-57.195	0.159	0.070
-596.025	9.211	-0.299	0.227
-595.011	792.740	-0.049	-0.135
-593.996	141.789	0.030	-0.040
-592.982	164.241	0.111	0.157
-591.967	129.782	-0.126	-0.162
-590.952	-38.252	0.661	-0.351
-589.938	-50.879	-0.198	-0.093
-588.923	-171.222	0.171	-0.006
-587.909	-123.112	0.149	0.024
-586.894	-104.359	0.183	-0.042
-585.879	4.767	-0.071	0.052
-584.865	126.452	0.156	-0.197
-583.850	33.787	0.276	-0.241
-582.836	346.071	-0.060	0.119
-581.821	76.566	-0.130	0.138
-580.806	78.761	-0.158	0.169
-579.792	800.000	0.095	0.279
-578.777	170.787	-0.107	0.153
-577.763	368.652	-0.087	0.176
-576.748	-200.000	0.024	-0.110
-575.733	180.080	-0.044	-0.065
-574.719	160.225	-0.151	-0.211
-573.704	800.000	0.068	-0.236
-572.690	354.092	0.115	0.229
-571.675	-200.000	-0.013	0.237
-570.661	-200.000	0.095	-0.530
-569.646	197.545	-0.264	0.403
-568.631	-33.626	0.320	0.177
-567.617	-200.000	-0.071	-0.435
-566.602	-67.915	-0.398	-0.156
-565.588	-25.646	-0.345	-0.204
-564.573	362.809	-0.050	-0.100
-563.558	800.000	0.024	-0.068
-562.544	-42.769	0.151	0.077
-561.529	-154.793	-0.200	0.013
-560.515	-92.712	0.066	0.018
-559.500	136.617	-0.085	0.111
-558.485	116.367	0.118	-0.145
-557.471	-43.908	0.139	-0.070
-556.456	8.848	0.372	-0.280
-555.442	-200.000	0.012	-0.240
-554.427	572.515	-0.012	0.029
-553.412	69.388	-0.167	-0.171
-552.398	-200.000	0.022	-0.108
-551.383	101.735	-0.107	0.125
-550.369	800.000	-0.033	-0.123
-549.354	800.000	0.059	-0.203
-548.339	-69.754	0.381	0.145
-547.325	420.442	-0.213	-0.456
-546.310	-200.000	-0.014	-0.244
-545.296	-48.530	-0.118	0.057
-544.281	406.570	-0.173	-0.366
-543.266	82.946	0.151	-0.164
-542.252	142.134	-0.191	0.254
-541.237	324.218	-0.114	0.218
-540.223	5.310	0.081	0.059
-539.208	64.055	-0.073	0.073
-538.193	63.883	-0.065	-0.065
-537.179	800.000	0.058	-0.163
-536.164	39.869	-0.068	0.061
-535.150	151.101	-0.186	0.253
-534.135	107.524	0.230	0.273
-533.121	311.733	-0.105	0.196
-532.106	-155.869	-0.205	-0.013
-531.091	-66.595	-0.206	0.082
-530.077	-48.380	0.079	-0.038
-529.062	186.345	0.067	-0.100
-528.048	304.763	0.126	0.234
-527.033	-84.565	0.368	0.116
-526.018	708.284	-0.107	0.282
-525.004	-86.553	-0.315	0.097
-523.989	-95.371	-0.106	-0.028
-522.975	-146.678	0.329	-0.028
-521.960	31.109	-0.238	0.204
-520.945	22.080	-0.457	-0.372
-519.931	27.121	-0.060	-0.050
-518.916	-200.000	-0.024	0.471
-517.902	276.376	0.030	0.053
-516.887	0.732	-0.096	-0.069
-515.872	141.983	-0.196	-0.259
-514.858	100.583	0.117	0.135
-513.843	8.685	-0.086	-0.064
-512.829	217.562	0.213	-0.339
-511.814	-4.751	-0.031	-0.021
-510.799	-180.066	0.280	-0.006
-509.785	-35.161	-0.330	-0.179
-508.770	-200.000	-0.045	-0.355
-507.756	216.136	-0.147	0.233
-506.741	-200.000	0.036	-0.192
-505.726	-200.000	-0.017	-0.138
-504.712	-58.050	-0.297	0.129
-503.697	-113.747	0.041	0.008
-502.683	255.447	0.119	0.203
-501.668	800.000	-0.050	-0.146
-500.653	-200.000	-0.005	-0.191
-499.639	800.000	-0.106	-0.379
-498.624	28.516	0.451	-0.380
-497.610	-200.000	-0.482	0.001
-496.595	416.965	-0.062	0.132
-495.581	97.630	-0.078	0.089
-494.566	744.928	0.082	-0.219
-493.551	138.394	-0.028	0.037
-492.537	-94.592	-0.405	-0.110
-491.522	614.185	-0.085	0.213
-490.508	178.874	0.101	-0.147
-489.493	-104.561	0.117	-0.027
-488.478	-45.730	0.247	-0.122
-487.464	-200.000	-0.019	-0.282
-486.449	661.402	0.107	-0.275
-485.435	49.363	-0.113	-0.106
-484.420	131.830	0.255	0.327
-483.405	67.868	-0.145	0.147
-482.391	-53.843	-0.076	0.035
-481.376	-200.000	-0.036	0.456
-480.362	158.016	-0.022	0.031
-479.347	-200.000	0.014	0.169
-478.332	-150.954	0.134	0.010
-477.318	127.291	0.213	0.269
-476.303	103.460	0.120	-0.141
-475.289	-17.052	0.519	-0.326
-474.274	230.345	-0.270	0.440
-473.259	51.917	-0.125	0.118
-472.245	-164.994	-0.257	0.011
-471.230	-138.601	0.200	-0.022
-470.216	31.840	0.123	0.105
-469.201	-154.033	0.219	0.015
-468.186	-147.279	-0.352	-0.030
-467.172	-156.897	-0.041	0.003
-466.157	-115.373	-0.192	-0.036
-465.143	-157.495	0.216	0.013
-464.128	-161.593	0.122	0.006
-463.113	-10.737	0.107	-0.070
-462.099	-46.931	-0.149	0.072
-461.084	-154.447	0.258	-0.017
-460.070	-139.602	0.204	0.022
-459.055	97.735	0.195	-0.224
-458.040	192.542	-0.111	0.167
-457.026	237.422	-0.074	0.122
-456.011	-129.716	0.283	0.039
-454.997	-200.000	-0.017	0.157
-453.982	29.281	-0.204	0.172
-452.968	303.662	-0.059	-0.109
-451.953	-135.323	-0.285	0.034
-450.938	65.078	-0.119	-0.120
-449.924	441.224	0.116	0.252
-448.909	24.806	0.105	0.087
-447.895	-200.000	-0.028	-0.406
-446.880	-200.000	-0.028	0.138
-445.865	-200.000	-0.002	0.058
-444.851	184.620	-0.052	0.076
-443.836	-49.305	-0.071	-0.034
-442.822	-30.289	0.167	0.095
-441.807	-142.674	-0.247	-0.024
-440.792	-200.000	0.073	-0.363
-439.778	560.366	-0.043	0.104
-438.763	15.683	-0.025	-0.019
-437.749	155.733	0.130	0.178
-436.734	-48.821	-0.269	0.128
-435.719	-29.308	0.103	0.058
-434.705	-70.313	0.125	0.047
-433.690	-50.288	0.147	0.069
-432.676	-100.741	-0.249	-0.061
-431.661	-100.827	0.319	0.078
-430.646	14.796	-0.056	-0.044
-429.632	69.973	-0.272	-0.279
-428.617	70.213	-0.113	0.117
-427.603	-200.000	0.010	0.151
-426.588	-107.399	-0.152	0.033
-425.573	-200.000	-0.024	0.160
-424.559	572.862	0.047	-0.114
-423.544	-200.000	0.080	0.397
-422.530	800.000	0.052	-0.172
-421.515	-109.169	-0.246	0.052
-420.500	-66.166	0.124	-0.049
-419.486	800.000	0.053	-0.146
-418.471	276.498	0.054	-0.095
-417.457	-81.997	0.363	0.118
-416.442	-4.436	0.196	-0.134
-415.428	429.781	-0.029	-0.063
-414.413	34.736	-0.198	-0.172
-413.398	-171.020	-0.101	0.003
-412.384	800.000	0.036	0.108
-411.369	-71.014	-0.213	0.080
-410.355	75.079	-0.242	-0.254
-409.340	-8.303	-0.108	-0.072
-408.325	-200.000	-0.001	-0.046
-407.311	377.078	0.093	0.188
-406.296	375.782	0.066	0.134
-405.282	-161.501	0.229	-0.012
-404.267	154.088	-0.127	-0.173
-403.252	-97.938	0.371	-0.095
-402.238	507.280	-0.077	-0.177
-401.223	-38.810	-0.302	-0.158
-400.209	-87.260	0.152	-0.046
-399.194	66.223	0.273	0.275
-398.179	181.372	0.049	0.072
-397.165	228.997	-0.142	-0.230
-396.150	-10.147	-0.068	-0.045
-395.136	86.615	-0.237	0.260
-394.121	227.089	0.178	-0.287
-393.106	800.000	0.088	0.249
-392.092	-200.000	-0.010	-0.178
-391.077	-200.000	-0.013	0.298
-390.063	218.457	-0.204	0.323
-389.048	-200.000	0.019	0.143
-388.033	-2.155	-0.069	-0.048
-387.019	206.579	0.110	0.170
-386.004	-15.049	0.236	0.150
-384.990	-200.000	-0.011	-0.083
-383.975	-124.115	0.366	-0.057
-382.960	800.000	0.037	-0.104
-381.946	800.000	-0.093	-0.258
-380.931	-200.000	0.025	0.237
-379.917	-200.000	-0.006	0.169
-378.902	122.950	0.104	-0.129
-377.888	113.796	0.009	-0.011
-376.873	-101.581	-0.138	-0.033
-375.858	-200.000	-0.000	-0.122
-374.844	305.065	0.041	-0.075
-373.829	-180.540	0.080	0.002
-372.815	-81.012	-0.264	-0.087
-371.800	-200.000	0.017	0.078
-370.785	800.000	-0.064	-0.219
-369.771	-200.000	0.032	0.144
-368.756	-73.472	-0.294	-0.107
-367.742	205.412	0.151	0.233
-366.727	-200.000	-0.046	0.374
-365.712	72.479	-0.235	-0.243
-364.698	-124.070	0.374	0.058
-363.683	-61.493	-0.548	-0.229
-362.669	437.876	-0.148	-0.320
-361.654	704.115	-0.022	0.058
-360.639	-58.366	-0.153	0.066
-359.625	170.033	-0.033	-0.047
-358.610	9.222	-0.263	0.197
-357.596	-121.093	-0.120	0.020
-356.581	-89.439	0.347	-0.101
-355.566	-42.514	0.136	0.069
-354.552	-200.000	-0.028	0.372
-353.537	94.615	-0.086	0.097
-352.523	422.629	-0.030	-0.063
-351.508	-200.000	-0.030	0.174
-350.493	154.568	0.136	0.185
-349.479	-55.214	0.171	0.076
-348.464	735.585	-0.161	-0.427
-347.450	-50.147	-0.311	0.146
-346.435	-200.000	-0.034	-0.225
-345.420	-110.235	-0.238	0.049
-344.406	-92.448	0.052	0.015
-343.391	800.000	0.077	0.221
-342.377	-82.019	0.154	0.050
-341.362	-25.944	0.222	-0.129
-340.348	10.314	-0.227	-0.171
-339.333	12.428	0.417	0.318
-338.318	800.000	-0.063	-0.233
-337.304	-170.252	0.085	0.003
-336.289	18.997	0.271	0.215
-335.275	-103.298	-0.108	0.025
-334.260	-17.507	0.401	-0.250
-333.245	-150.879	0.295	-0.022
-332.231	-79.341	0.362	0.122
-331.216	29.380	-0.333	0.280
-330.202	543.756	0.092	-0.217
-329.187	800.000	-0.064	0.275
-328.172	0.285	0.232	0.164
-327.158	-119.610	-0.546	0.094
-326.143	-30.949	-0.054	-0.030
-325.129	-30.314	0.171	0.096
-324.114	280.837	0.082	0.145
-323.099	-67.173	-0.117	-0.046
-322.085	325.590	0.127	-0.241
-321.070	236.202	0.161	0.264
-320.056	26.911	0.267	0.221
-319.041	98.656	-0.229	-0.261
-318.026	656.643	0.121	0.307
-317.012	127.168	0.026	0.033
-315.997	-29.804	0.294	0.166
-314.983	-67.009	-0.184	-0.072
-313.968	323.693	0.046	0.086
-312.953	-52.466	-0.131	-0.060
-311.939	-87.379	-0.315	0.095
-310.924	6.379	0.286	0.210
-309.910	113.688	-0.046	-0.056
-308.895	229.910	0.110	0.178
-307.880	107.257	0.244	-0.287
-306.866	-5.104	0.324	-0.221
-305.851	26.617	-0.127	-0.105
-304.837	-142.271	0.338	0.033
-303.822	-83.379	0.160	-0.051
-302.807	-200.000	-0.016	0.257
-301.793	-94.641	-0.135	-0.036
-300.778	-189.211	-0.077	0.001
-299.764	164.964	-0.133	0.186
-298.749	-200.000	0.019	-0.086
-297.735	59.821	-0.244	0.238
-296.720	252.196	-0.046	-0.078
-295.705	-200.000	-0.013	0.152
-294.691	-200.000	-0.008	0.224
-293.676	-48.654	0.150	0.071
-292.662	-33.452	-0.135	-0.074
-291.647	-15.933	-0.105	0.066
-290.632	-101.977	-0.160	-0.038
-289.618	-114.846	-0.169	-0.032
-288.603	-43.382	0.098	0.049
-287.589	24.528	0.238	-0.195
-286.574	455.033	0.021	0.046
-285.559	114.103	0.218	0.262
-284.545	-27.680	-0.244	-0.140
-283.530	-132.024	0.144	-0.019
-282.516	-30.689	0.412	0.230
-281.501	-147.003	-0.210	-0.018
-280.486	-71.258	-0.178	-0.066
-279.472	-57.000	-0.300	-0.131
-278.457	800.000	0.072	0.239
-277.443	-105.185	-0.383	0.087
-276.428	-8.271	0.235	-0.156
-275.413	-126.318	-0.256	-0.038
-274.399	-139.270	-0.333	0.035
-273.384	-29.996	-0.311	-0.175
-272.370	-57.489	0.254	-0.110
-271.355	90.479	-0.059	-0.065
-270.340	110.126	0.187	-0.221
-269.326	800.000	0.100	0.303
-268.311	-14.029	-0.176	-0.113
-267.297	-122.400	0.415	0.067
-266.282	-15.711	-0.180	-0.113
-265.267	-166.259	0.121	-0.005
-264.253	-57.274	-0.106	-0.046
-263.238	-50.697	0.196	0.091
-262.224	21.010	0.018	-0.014
-261.209	-200.000	0.020	-0.133
-260.195	103.162	0.173	-0.201
-259.180	-128.379	-0.341	-0.048
-258.165	-200.000	0.080	0.366
-257.151	800.000	-0.036	-0.132
-256.136	53.977	-0.009	0.008
-255.122	-70.772	-0.306	-0.114
-254.107	-200.000	0.012	-0.136
-253.092	-93.332	-0.053	0.015
-252.078	27.595	0.252	0.209
-251.063	-49.458	-0.139	0.066
-250.049	684.934	0.062	0.159
-249.034	-56.522	-0.119	-0.052
-248.019	-148.012	0.251	-0.021
-247.005	291.230	-0.132	-0.237
-245.990	-20.568	0.002	0.001
-244.976	-31.223	0.279	-0.155
-243.961	193.606	0.083	-0.124
-242.946	375.961	0.071	0.142
-241.932	-84.189	-0.153	-0.048
-240.917	393.917	0.139	-0.286
-239.903	-101.202	-0.173	0.042
-238.888	-200.000	0.011	0.130
-237.873	800.000	0.063	-0.247
-236.859	362.232	-0.080	-0.159
-235.844	-33.286	0.234	0.128
-234.830	-200.000	0.040	0.191
-233.815	66.368	-0.095	0.095
-232.800	4.929	-0.445	-0.323
-231.786	562.226	-0.119	-0.285
-230.771	34.041	-0.309	-0.266
-229.757	800.000	0.092	-0.299
-228.742	-76.056	0.225	0.079
-227.727	-58.362	0.056	0.024
-226.713	-83.940	-0.153	0.048
-225.698	-154.485	0.337	0.022
-224.684	244.742	0.238	-0.394
-223.669	800.000	-0.029	-0.105
-222.655	-99.079	0.403	0.101
-221.640	68.068	-0.268	0.271
-220.625	-147.986	-0.197	0.016
-219.611	-200.000	-0.025	-0.151
-218.596	-73.017	-0.216	0.078
-217.582	-73.392	0.264	0.095
-216.567	21.305	0.176	-0.141
-215.552	800.000	-0.026	0.107
-214.538	35.235	-0.093	-0.080
-213.523	149.204	0.100	0.133
-212.509	-11.538	-0.224	0.146
-211.494	-200.000	0.023	-0.174
-210.479	800.000	-0.009	-0.030
-209.465	-112.359	0.249	0.049
-208.450	795.247	0.139	0.378
-207.436	79.539	-0.137	-0.145
-206.421	-200.000	0.038	-0.226
-205.406	225.649	0.097	-0.155
-204.392	249.456	0.062	-0.104
-203.377	179.803	0.024	0.034
-202.363	-200.000	-0.026	-0.328
-201.348	-200.000	0.047	-0.285
-200.333	-16.391	-0.136	-0.085
-199.319	-73.608	0.035	0.012
-198.304	199.575	0.235	0.355
-197.290	117.307	0.048	0.059
-196.275	-71.051	0.297	-0.110
-195.260	-92.339	-0.218	-0.061
-194.246	196.223	0.175	-0.263
-193.231	-116.008	-0.232	0.043
-192.217	-134.200	0.557	0.068
-191.202	-200.000	-0.041	0.342
-190.187	124.894	0.097	-0.121
-189.173	-11.334	-0.282	0.183
-188.158	-112.959	0.086	-0.017
-187.144	20.128	-0.208	-0.165
-186.129	17.031	0.316	0.247
-185.114	86.479	-0.098	0.106
-184.100	-3.937	0.411	0.281
-183.085	116.341	-0.056	-0.067
-182.071	216.293	-0.142	0.223
-181.056	-200.000	0.018	-0.127
-180.042	800.000	0.074	-0.226
-179.027	-200.000	0.046	0.357
-178.012	-118.770	0.173	-0.030
-176.998	-20.144	-0.243	0.148
-175.983	-85.359	-0.335	-0.103
-174.969	159.991	0.169	0.232
-173.954	-119.070	0.407	0.070
-172.939	508.186	0.050	-0.114
-171.925	-200.000	-0.025	-0.370
-170.910	-200.000	0.011	0.245
-169.896	48.435	-0.163	0.151
-168.881	-52.028	0.204	-0.093
-167.866	-200.000	0.040	0.363
-166.852	-200.000	-0.005	0.145
-165.837	-83.688	0.218	-0.069
-164.823	-36.435	-0.152	0.081
-163.808	170.478	0.064	0.090
-162.793	24.531	0.209	0.170
-161.779	8.116	-0.229	-0.169
-160.764	-57.535	-0.176	-0.076
-159.750	-120.819	0.280	-0.046
-158.735	-85.564	-0.299	0.091
-157.720	-67.800	-0.256	-0.098
-156.706	747.964	0.030	0.079
-155.691	-4.410	0.068	0.046
-154.677	-78.287	0.204	-0.069
-153.662	141.724	0.207	0.270
-152.647	-57.261	-0.255	0.110
-151.633	800.000	0.029	0.098
-150.618	-200.000	-0.012	0.279
-149.604	-200.000	0.033	-0.206
-148.589	-128.971	0.177	0.024
-147.574	-200.000	-0.006	-0.294
-146.560	-58.980	0.085	0.036
-145.545	-131.487	0.194	-0.025
-144.531	188.124	0.141	0.207
-143.516	-59.228	0.223	0.095
-142.502	111.458	0.078	-0.093
-141.487	74.620	-0.079	0.082
-140.472	-200.000	-0.015	0.108
-139.458	-79.804	0.247	0.082
-138.443	125.701	0.070	-0.087
-137.429	61.252	-0.043	0.042
-136.414	-48.458	0.347	0.164
-135.399	800.000	-0.071	-0.218
-134.385	34.431	-0.046	0.040
-133.370	-37.238	-0.079	-0.041
-132.356	-52.806	-0.351	-0.159
-131.341	170.321	-0.167	-0.235
-130.326	72.765	0.231	0.237
-129.312	297.166	-0.087	-0.157
-128.297	-64.264	-0.245	0.098
-127.283	800.000	-0.056	0.223
-126.268	-65.392	0.086	0.034
-125.253	452.457	0.122	-0.265
-124.239	-137.958	0.062	0.007
-123.224	458.136	-0.002	0.003
-122.210	-200.000	-0.051	0.269
-121.195	-74.900	-0.229	0.081
-120.180	795.829	0.062	-0.169
-119.166	-70.777	-0.282	0.105
-118.151	-121.547	0.216	0.035
-117.137	685.752	0.104	-0.268
-116.122	214.179	0.164	0.254
-115.107	800.000	0.036	0.147
-114.093	-117.057	0.080	0.014
-113.078	-88.861	0.176	-0.051
-112.064	-54.111	-0.236	0.105
-111.049	-9.841	-0.327	-0.214
-110.034	-200.000	-0.006	-0.036
-109.020	79.345	0.054	-0.057
-108.005	-133.262	-0.250	0.031
-106.991	302.447	-0.081	-0.147
-105.976	-131.406	-0.378	-0.049
-104.962	177.850	-0.154	0.221
-103.947	800.000	-0.033	0.114
-102.932	-190.897	0.187	-0.002
-101.918	-200.000	-0.016	-0.265
-100.903	-164.462	-0.222	0.010
-99.889	225.713	0.092	0.146
-98.874	380.304	-0.043	-0.086
-97.859	-82.033	0.071	-0.023
-96.845	-94.831	-0.173	0.046
-95.830	151.235	-0.395	-0.528
-94.816	-200.000	-0.028	-0.219
-93.801	800.000	0.043	0.185
-92.786	76.292	-0.136	-0.141
-91.772	-88.008	0.227	0.067
-90.757	357.591	-0.148	-0.290
-89.743	-161.489	0.059	0.003
-88.728	-74.269	0.199	0.071
-87.713	-107.643	-0.246	-0.053
-86.699	-127.008	0.134	-0.019
-85.684	-83.022	0.204	-0.064
-84.670	800.000	0.024	-0.089
-83.655	-100.376	-0.110	0.027
-82.640	-200.000	-0.039	-0.192
-81.626	-25.332	0.163	0.095
-80.611	-1.090	0.174	0.121
-79.597	249.503	0.070	-0.116
-78.582	128.981	-0.171	0.214
-77.567	-112.167	0.364	-0.072
-76.553	80.745	0.163	0.172
-75.538	-97.613	0.114	-0.029
-74.524	88.926	-0.424	-0.463
-73.509	392.967	-0.072	0.147
-72.494	-67.205	0.093	0.036
-71.480	-162.570	-0.169	-0.008
-70.465	-200.000	-0.007	-0.160
-69.451	139.035	-0.080	0.104
-68.436	-21.427	0.183	-0.110
-67.422	72.695	-0.132	0.135
-66.407	778.525	0.076	-0.203
-65.392	-66.882	0.143	0.056
-64.378	-81.871	-0.244	-0.078
-63.363	-183.399	0.121	-0.002
-62.349	18.066	-0.197	0.154
-61.334	22.152	-1.192	-0.954
-60.319	79.836	0.512	0.540
-59.305	429.300	-0.476	-1.009
-58.290	568.139	0.447	1.064
-57.276	800.000	0.438	1.580
-56.261	-200.000	103.680	615.254
-55.246	523.506	1478.598	3407.159
-54.232	179.412	2680.345	3846.256
-53.217	107.496	2286.489	2667.059
-52.203	39.473	1895.758	1665.101
-51.188	33.376	1683.794	1432.907
-50.173	30.780	1640.324	1376.692
-49.159	49.151	1693.634	1560.003
-48.144	50.008	1708.945	1580.482
-47.130	32.922	1666.830	1414.842
-46.115	30.284	1652.406	1382.915
-45.100	30.096	1647.680	1377.505
-44.086	30.058	1644.739	1374.710
-43.071	30.017	1642.582	1372.548
-42.057	30.078	1639.862	1370.671
-41.042	30.145	1637.593	1369.216
-40.027	30.126	1635.730	1367.467
-39.013	30.108	1634.202	1366.001
-37.998	29.979	1632.814	1363.837
-36.984	30.183	1630.796	1363.595
-35.969	30.215	1629.637	1362.812
-34.954	30.199	1628.119	1361.365
-33.940	30.140	1626.397	1359.444
-32.925	30.112	1625.200	1358.185
-31.911	30.146	1623.030	1356.566
-30.896	30.115	1621.540	1355.038
-29.881	30.144	1619.591	1353.568
-28.867	30.236	1617.635	1352.547
-27.852	30.170	1616.470	1351.038
-26.838	30.171	1614.387	1349.255
-25.823	30.136	1613.794	1348.451
-24.809	30.238	1611.873	1347.532
-23.794	30.278	1610.562	1346.673
-22.779	30.148	1609.611	1344.884
-21.765	30.166	1607.637	1343.305
-20.750	30.147	1605.815	1341.593
-19.736	30.236	1604.231	1340.859
-18.721	30.253	1602.965	1339.871
-17.706	30.202	1601.375	1338.126
-16.692	30.266	1599.732	1337.161
-15.677	30.151	1599.090	1335.738
-14.663	30.226	1597.713	1335.078
-13.648	30.250	1596.647	1334.309
-12.633	30.198	1594.929	1332.443
-11.619	30.206	1593.427	1331.193
-10.604	30.277	1591.441	1329.991
-9.590	30.271	1590.668	1329.248
-8.575	30.329	1588.864	1328.101
-7.560	30.229	1588.648	1327.153
-6.546	30.232	1587.372	1326.055
-5.531	30.255	1586.234	1325.219
-4.517	30.119	1585.417	1323.514
-3.502	30.250	1583.590	1322.869
-2.487	30.188	1582.643	1321.583
-1.473	29.885	1570.059	1308.884
-0.458	26.985	1550.858	1272.527
0.556	21.159	1551.992	1241.076
1.571	18.847	1576.715	1244.018
2.586	18.644	1589.680	1252.655
3.600	16.801	1537.332	1198.274
4.615	8.984	1427.760	1061.239
5.629	1.275	1364.122	964.970
6.644	-0.192	1355.889	949.786
7.659	-0.339	1354.157	947.558
8.673	-0.322	1353.076	946.825
9.688	-0.396	1351.351	945.069
10.702	-0.539	1348.396	942.022
11.717	2.477	1354.195	965.017
12.731	11.516	1371.631	1034.857
13.746	18.973	1383.641	1091.324
14.761	20.485	1385.976	1102.670
15.775	20.754	1385.879	1104.204
16.790	20.934	1384.644	1104.261
17.804	20.995	1384.110	1104.122
18.819	21.034	1384.426	1104.526
19.834	21.208	1383.805	1105.033
20.848	21.195	1383.004	1104.211
21.863	21.162	1382.096	1103.180
22.877	21.274	1380.396	1102.432
23.892	21.158	1380.596	1101.766
24.907	21.229	1379.271	1101.055
25.921	21.252	1378.596	1100.568
26.936	21.201	1377.457	1099.241
27.950	21.145	1376.559	1098.072
28.965	21.170	1375.421	1097.226
29.980	21.326	1373.482	1096.561
30.994	21.202	1372.602	1094.979
32.009	21.237	1371.736	1094.415
33.023	21.231	1370.465	1093.268
34.038	21.145	1369.684	1092.004
35.053	21.178	1368.711	1091.339
36.067	21.265	1367.418	1090.757
37.082	21.199	1366.497	1089.513
38.096	21.081	1365.919	1088.219
39.111	21.130	1365.224	1087.877
40.126	21.175	1364.067	1087.138
41.140	21.233	1363.313	1086.799
42.155	21.139	1363.616	1086.364
43.169	21.125	1363.236	1085.877
44.184	21.219	1362.797	1086.016
45.199	21.185	1362.245	1085.266
46.213	21.223	1361.622	1084.910
47.228	21.294	1360.546	1084.400
48.242	21.157	1360.075	1083.079
49.257	21.227	1358.337	1082.032
50.271	21.126	1356.949	1080.204
51.286	21.138	1355.898	1079.348
52.301	21.234	1354.257	1078.538
53.315	21.145	1353.409	1077.220
54.330	21.200	1352.653	1076.858
55.344	21.176	1351.693	1075.850
56.359	21.164	1350.392	1074.646
57.374	21.216	1349.813	1074.410
58.388	21.223	1349.194	1073.868
59.403	21.178	1348.777	1073.166
60.417	21.176	1347.910	1072.366
61.432	21.131	1347.521	1071.688
62.447	21.111	1346.714	1070.825
63.461	21.359	1344.433	1070.437
64.476	21.231	1344.314	1069.464
65.490	21.209	1342.890	1068.102
66.505	21.141	1340.938	1066.038
67.520	21.265	1339.941	1065.911
68.534	21.259	1339.069	1065.086
69.549	21.225	1338.013	1063.941
70.563	21.235	1337.242	1063.296
71.578	21.241	1336.077	1062.314
72.593	21.193	1335.253	1061.270
73.607	21.223	1334.763	1060.970
74.622	21.150	1334.142	1059.941
75.636	21.246	1333.189	1059.671
76.651	21.249	1332.347	1058.928
77.666	21.218	1331.692	1058.124
78.680	21.298	1331.023	1057.987
79.695	21.177	1330.212	1056.515
80.709	21.259	1329.865	1056.639
81.724	21.245	1328.734	1055.562
82.739	21.271	1327.599	1054.726
83.753	21.262	1326.882	1054.009
84.768	21.204	1325.727	1052.651
85.782	21.258	1324.704	1052.066
86.797	21.235	1323.517	1050.891
87.812	21.217	1322.459	1049.854
88.826	21.209	1321.503	1048.953
89.841	21.303	1320.134	1048.337
90.855	21.277	1319.208	1047.352
91.870	21.291	1318.408	1046.709
92.884	21.208	1317.792	1045.634
93.899	21.233	1317.043	1045.092
94.914	21.318	1316.147	1044.801
95.928	21.310	1315.485	1044.133
96.943	21.328	1314.684	1043.512
97.957	21.349	1313.838	1042.873
98.972	21.320	1312.498	1041.546
99.987	21.350	1312.020	1041.255
101.001	21.297	1310.765	1039.847
102.016	21.301	1309.612	1038.863
103.030	21.272	1308.774	1037.935
104.045	21.288	1308.111	1037.414
105.060	21.291	1307.110	1036.544
106.074	21.389	1306.138	1036.264
107.089	21.277	1304.951	1034.568
108.103	21.402	1303.648	1034.186
109.118	21.352	1302.872	1033.181
110.133	21.431	1301.484	1032.455
111.147	21.434	1300.541	1031.634
112.162	21.345	1299.548	1030.232
113.176	21.410	1298.288	1029.525
114.191	21.368	1297.374	1028.461
115.206	21.363	1296.321	1027.503
116.220	21.374	1295.033	1026.456
117.235	21.316	1293.985	1025.197
118.249	21.330	1293.381	1024.710
119.264	21.542	1291.835	1024.633
120.279	21.395	1291.591	1023.489
121.293	21.422	1290.283	1022.521
122.308	21.396	1289.724	1021.835
123.322	21.312	1288.775	1020.504
124.337	21.366	1287.480	1019.703
125.352	21.425	1286.743	1019.372
126.366	21.503	1285.486	1018.737
127.381	21.471	1284.909	1018.006
128.395	21.354	1283.737	1016.305
129.410	21.307	1283.303	1015.600
130.424	21.366	1282.066	1014.873
131.439	21.441	1281.059	1014.420
132.454	21.444	1280.418	1013.842
133.468	21.351	1279.779	1012.707
134.483	21.272	1279.658	1012.066
135.497	21.321	1278.712	1011.508
136.512	21.480	1276.843	1010.862
137.527	21.413	1276.081	1009.784
138.541	21.404	1274.873	1008.684
139.556	21.370	1273.566	1007.367
140.570	21.395	1272.418	1006.515
141.585	21.338	1271.429	1005.310
142.600	21.417	1270.178	1004.691
143.614	21.444	1269.254	1004.026
144.629	21.417	1268.113	1002.878
145.643	21.304	1267.531	1001.682
146.658	21.346	1265.943	1000.577
147.673	21.420	1265.352	1000.447
148.687	21.453	1264.310	999.721
149.702	21.319	1263.401	998.146
150.716	21.400	1262.140	997.529
151.731	21.363	1261.205	996.488
152.746	21.476	1259.742	995.887
153.760	21.346	1259.087	994.541
154.775	21.534	1257.572	994.325
155.789	21.572	1256.962	993.969
156.804	21.464	1256.107	992.597
157.819	21.495	1255.221	991.983
158.833	21.441	1254.881	991.322
159.848	21.475	1253.812	990.578
160.862	21.546	1252.690	990.005
161.877	21.546	1252.078	989.438
162.892	21.552	1251.269	988.744
163.906	21.484	1250.681	987.807
164.921	21.510	1249.641	987.046
165.935	21.399	1249.690	986.372
166.950	21.478	1248.756	985.989
167.964	21.480	1247.784	985.151
168.979	21.483	1247.722	985.027
169.994	21.470	1246.902	984.223
171.008	21.509	1245.665	983.377
172.023	21.663	1244.865	983.524
173.037	21.614	1244.168	982.608
174.052	21.663	1243.309	982.122
175.067	21.652	1242.431	981.278
176.081	21.577	1241.692	980.185
177.096	21.490	1241.236	979.252
178.110	21.547	1240.204	978.671
179.125	21.522	1239.355	977.776
180.140	21.660	1238.196	977.542
181.154	21.566	1236.821	975.851
182.169	21.540	1235.892	974.882
183.183	21.515	1235.266	974.164
184.198	21.631	1233.863	973.616
185.213	21.536	1232.979	972.306
186.227	21.615	1232.164	972.014
187.242	21.652	1231.273	971.432
188.256	21.749	1230.468	971.251
189.271	21.665	1229.727	970.114
190.286	21.642	1228.818	969.183
191.300	21.553	1228.925	968.688
192.315	21.585	1227.594	967.730
193.329	21.561	1227.600	967.517
194.344	21.612	1226.867	967.136
195.359	21.651	1226.326	966.840
196.373	21.594	1225.873	966.082
197.388	21.525	1225.240	965.116
198.402	21.498	1225.253	964.894
199.417	21.601	1224.615	964.873
200.432	21.587	1224.315	964.474
201.446	21.634	1223.758	964.206
202.461	21.601	1222.985	963.332
203.475	21.671	1221.433	962.409
204.490	21.563	1220.752	961.195
205.504	21.589	1220.091	960.732
206.519	21.752	1218.748	960.483
207.534	21.745	1217.878	959.674
208.548	21.736	1216.995	958.841
209.563	21.568	1216.702	957.608
210.577	21.623	1215.497	956.874
211.592	21.700	1214.991	956.812
212.607	21.742	1213.739	955.969
213.621	21.802	1213.009	955.640
214.636	21.765	1212.852	955.228
215.650	21.829	1211.492	954.425
216.665	21.701	1210.425	952.803
217.680	21.716	1209.695	952.222
218.694	21.790	1209.063	952.046
219.709	21.758	1208.217	951.119
220.723	21.808	1207.564	950.792
221.738	21.667	1207.054	949.542
222.753	21.617	1206.598	948.828
223.767	21.681	1205.864	948.516
224.782	21.791	1205.277	948.565
225.796	21.931	1204.184	948.377
226.811	21.792	1203.843	947.273
227.826	21.823	1203.151	946.814
228.840	21.823	1202.695	946.371
229.855	21.689	1202.102	945.098
230.869	21.878	1201.122	945.261
231.884	21.868	1200.360	944.523
232.899	21.933	1199.516	944.126
233.913	21.882	1199.078	943.424
234.928	22.031	1198.248	943.489
235.942	21.938	1198.369	942.999
236.957	21.946	1197.383	942.182
237.972	21.957	1196.544	941.497
238.986	21.964	1195.860	940.915
240.001	21.962	1195.465	940.508
241.015	21.945	1194.782	939.797
242.030	22.037	1193.722	939.373
243.045	22.013	1192.994	938.588
244.059	21.981	1192.198	937.707
245.074	22.005	1191.379	937.109
246.088	21.954	1191.096	936.533
247.103	21.963	1190.077	935.698
248.117	22.021	1189.265	935.284
249.132	22.007	1188.549	934.565
250.147	22.062	1187.657	934.072
251.161	22.104	1186.511	933.310
252.176	22.106	1185.799	932.678
253.190	22.196	1185.565	932.891
254.205	22.051	1185.149	931.713
255.220	22.004	1184.724	931.046
256.234	22.106	1183.978	930.915
257.249	22.155	1183.365	930.613
258.263	22.048	1182.954	929.640
259.278	22.122	1182.128	929.301
260.293	22.113	1182.032	929.093
261.307	22.141	1181.010	928.357
262.322	22.257	1180.103	928.176
263.336	22.122	1180.003	927.299
264.351	22.162	1179.148	926.758
265.366	22.068	1178.767	925.881
266.380	22.121	1177.880	925.381
267.395	22.148	1177.377	925.048
268.409	22.010	1176.686	923.698
269.424	22.223	1175.843	924.071
270.439	22.191	1175.718	923.724
271.453	22.145	1175.271	923.048
272.468	22.061	1174.115	921.617
273.482	22.074	1173.593	921.197
274.497	22.214	1173.030	921.408
275.512	22.170	1172.588	920.747
276.526	22.234	1171.749	920.342
277.541	22.212	1171.151	919.676
278.555	22.190	1170.983	919.348
279.570	22.305	1169.380	918.606
280.585	22.338	1168.601	918.088
281.599	22.299	1167.739	917.127
282.614	22.330	1166.763	916.438
283.628	22.330	1165.833	915.630
284.643	22.364	1165.293	915.300
285.657	22.407	1164.370	914.715
286.672	22.296	1163.939	913.721
287.687	22.348	1162.944	913.129
288.701	22.364	1162.273	912.603
289.716	22.389	1161.456	912.011
290.730	22.404	1161.451	912.002
291.745	22.358	1160.503	910.939
292.760	22.454	1159.419	910.505
293.774	22.411	1159.388	910.177
294.789	22.365	1158.957	909.520
295.803	22.501	1157.998	909.390
296.818	22.526	1157.090	908.726
297.833	22.527	1156.597	908.267
298.847	22.328	1156.169	906.820
299.862	22.573	1154.825	906.949
300.876	22.471	1154.939	906.433
301.891	22.536	1154.085	906.017
302.906	22.406	1153.483	904.795
303.920	22.481	1152.862	904.615
304.935	22.548	1151.962	904.171
305.949	22.571	1151.098	903.532
306.964	22.464	1151.115	902.918
307.979	22.644	1150.102	902.964
308.993	22.589	1149.360	902.021
310.008	22.700	1148.431	901.780
311.022	22.665	1147.742	900.976
312.037	22.585	1147.407	900.225
313.052	22.620	1146.467	899.587
314.066	22.546	1145.977	898.746
315.081	22.549	1144.962	897.885
316.095	22.625	1144.636	897.940
317.110	22.606	1143.944	897.219
318.125	22.670	1142.616	896.426
319.139	22.646	1142.165	895.871
320.154	22.650	1141.802	895.526
321.168	22.706	1141.195	895.253
322.183	22.647	1140.637	894.440
323.197	22.689	1139.881	893.981
324.212	22.664	1139.464	893.448
325.227	22.606	1139.366	892.994
326.241	22.742	1138.408	892.857
327.256	22.784	1137.538	892.305
328.270	22.672	1137.159	891.365
329.285	22.705	1136.098	890.618
330.300	22.635	1135.277	889.546
331.314	22.678	1134.439	889.028
332.329	22.704	1133.627	888.441
333.343	22.813	1133.140	888.529
334.358	22.791	1132.058	887.494
335.373	22.840	1131.612	887.312
336.387	22.758	1131.153	886.459
337.402	22.909	1129.938	886.186
338.416	22.989	1129.140	885.882
339.431	22.948	1128.701	885.254
340.446	22.954	1127.937	884.611
341.460	22.937	1127.615	884.191
342.475	22.901	1127.098	883.529
343.489	22.989	1125.791	882.866
344.504	22.863	1125.168	881.671
345.519	22.897	1124.177	880.985
346.533	23.049	1123.172	880.879
347.548	23.032	1122.530	880.210
348.562	23.023	1121.734	879.466
349.577	23.038	1121.197	879.039
350.592	22.847	1120.638	877.575
351.606	22.883	1119.984	877.162
352.621	22.970	1119.479	877.120
353.635	22.965	1119.007	876.650
354.650	22.978	1118.163	875.975
355.665	23.063	1117.235	875.592
356.679	22.931	1117.102	874.754
357.694	23.151	1116.198	875.059
358.708	23.033	1115.502	873.855
359.723	23.076	1114.720	873.374
360.738	23.130	1114.200	873.156
361.752	23.042	1114.077	872.550
362.767	23.129	1113.391	872.365
363.781	23.117	1112.815	871.776
364.796	23.076	1112.166	870.990
365.810	23.203	1111.602	871.097
366.825	23.258	1111.141	870.925
367.840	23.283	1110.265	870.285
368.854	23.201	1110.093	869.673
369.869	23.244	1109.332	869.209
370.883	23.229	1108.702	868.566
371.898	23.264	1107.569	867.772
372.913	23.288	1107.136	867.476
373.927	23.265	1106.977	867.158
374.942	23.309	1106.233	866.715
375.956	23.259	1105.776	866.036
376.971	23.203	1105.367	865.365
377.986	23.335	1104.605	865.338
379.000	23.279	1104.412	864.837
380.015	23.346	1103.631	864.477
381.029	23.361	1102.513	863.593
382.044	23.347	1102.316	863.296
383.059	23.342	1101.130	862.266
384.073	23.424	1100.387	862.011
385.088	23.391	1099.940	861.419
386.102	23.377	1099.362	860.823
387.117	23.373	1098.426	859.994
388.132	23.364	1097.452	859.116
389.146	23.376	1096.630	858.455
390.161	23.443	1096.212	858.374
391.175	23.380	1095.622	857.529
392.190	23.485	1094.573	857.139
393.205	23.332	1094.331	856.137
394.219	23.424	1093.251	855.660
395.234	23.479	1092.710	855.426
396.248	23.494	1091.443	854.431
397.263	23.609	1090.103	853.861
398.278	23.482	1090.615	853.576
399.292	23.659	1089.604	853.559
400.307	23.562	1088.910	852.476
401.321	23.536	1088.708	852.114
402.336	23.583	1087.762	851.526
403.350	23.543	1087.012	850.672
404.365	23.609	1086.422	850.452
405.380	23.645	1085.727	850.003
406.394	23.633	1085.066	849.351
407.409	23.692	1084.240	848.911
408.423	23.678	1083.721	848.362
409.438	23.721	1083.014	847.940
410.453	23.822	1082.085	847.621
411.467	23.798	1081.328	846.837
412.482	23.735	1080.800	846.048
413.496	23.664	1080.104	845.093
414.511	23.811	1079.459	845.213
415.526	23.700	1079.291	844.476
416.540	23.821	1078.382	844.268
417.555	23.788	1077.891	843.650
418.569	23.807	1077.479	843.344
419.584	23.822	1077.028	842.988
420.599	23.777	1077.027	842.700
421.613	149.173	1400.219	1799.296
422.628	137.673	1447.237	1799.384
