DTS Sentinel unit serial number:	SN413079Multiplexer serial number:	ORYXHardware model number:	OX4-SRSoftware version number:	ORYX F/W v4.00 Oryx Data Collector v3.7.2.0data status	okinstallation	princeton_trtdifferential loss correction	single-endedforward channel	channel 2reverse channel	N/Adate	2019/09/17time	08:27:35forward acquisition time	60.00reverse acquisition time	0.00gamma	496.2192k internal	0.2332k external	0.2332temperature offset calibration	0.9978default loss term (dB/km)	0.3790temperature slope calibration	1.0000multiplexer offset coefficient	1.0000multiplexer slope coefficient	1.0000fibre end	0.00T internal ref (°C)	27.52T ext. ref 1 (°C)	0.13T ext. ref 2 (°C)	22.93length (m)	temperature (°C)	Stokes	anti-Stokes-747.200	43.218	0.295	0.271
-746.185	-200.000	-0.024	0.140
-745.171	-200.000	-0.014	0.116
-744.156	239.762	-0.120	0.200
-743.142	-110.382	0.425	-0.089
-742.127	800.000	-0.178	0.537
-741.112	-200.000	0.005	-0.147
-740.098	-200.000	-0.006	0.320
-739.083	-25.861	-0.130	-0.077
-738.069	-103.882	0.225	-0.053
-737.054	680.668	-0.095	-0.248
-736.039	-151.444	-0.090	0.007
-735.025	-132.832	0.242	-0.031
-734.010	85.521	-0.363	-0.401
-732.996	800.000	-0.046	-0.188
-731.981	-46.396	0.011	-0.005
-730.966	-4.788	-0.177	-0.123
-729.952	68.589	0.073	-0.076
-728.937	3.100	-0.386	-0.282
-727.923	-162.288	0.261	0.013
-726.908	204.195	0.156	-0.242
-725.894	-57.575	-0.147	-0.065
-724.879	29.523	-0.262	0.224
-723.864	-133.948	-0.272	0.034
-722.850	-103.009	-0.302	-0.072
-721.835	-200.000	-0.013	0.211
-720.821	410.135	-0.085	-0.181
-719.806	602.544	-0.100	0.250
-718.791	379.402	-0.170	-0.349
-717.777	-38.849	0.263	-0.139
-716.762	-129.624	-0.045	0.006
-715.748	113.051	0.124	-0.151
-714.733	-16.138	0.245	0.156
-713.718	-64.816	0.249	0.101
-712.704	-107.980	-0.225	-0.049
-711.689	-16.024	-0.028	0.018
-710.675	266.182	-0.249	-0.436
-709.660	-93.725	-0.271	0.075
-708.645	128.831	-0.183	-0.234
-707.631	-75.626	-0.131	0.047
-706.616	744.401	0.037	0.099
-705.602	-52.250	-0.035	-0.016
-704.587	-79.468	-0.302	0.103
-703.572	-21.655	0.173	-0.106
-702.558	-7.203	-0.318	-0.217
-701.543	-67.874	0.340	-0.133
-700.529	-200.000	-0.056	0.258
-699.514	-144.267	-0.433	0.041
-698.499	800.000	-0.078	0.238
-697.485	27.675	-0.186	0.158
-696.470	-116.689	0.197	-0.036
-695.456	-54.523	0.021	-0.010
-694.441	800.000	-0.020	-0.087
-693.426	-200.000	-0.001	-0.191
-692.412	-3.298	0.167	0.117
-691.397	23.128	-0.256	0.211
-690.383	-200.000	-0.041	-0.401
-689.368	-92.970	-0.360	-0.101
-688.354	-59.168	0.191	0.083
-687.339	-13.584	0.094	0.061
-686.324	-31.684	0.134	-0.075
-685.310	-37.693	0.269	-0.144
-684.295	-11.369	0.044	-0.029
-683.281	416.294	0.054	-0.115
-682.266	-101.049	-0.201	0.049
-681.251	-200.000	-0.045	-0.199
-680.237	-200.000	0.023	0.110
-679.222	800.000	-0.128	0.382
-678.208	262.990	-0.103	0.179
-677.193	-181.499	-0.442	0.009
-676.178	-112.348	0.212	-0.043
-675.164	-200.000	-0.027	-0.162
-674.149	-200.000	0.055	-0.290
-673.135	-28.692	-0.163	0.094
-672.120	0.629	-0.138	-0.099
-671.105	-200.000	0.004	0.078
-670.091	306.629	-0.146	0.273
-669.076	-122.660	0.210	-0.034
-668.062	-200.000	0.059	-0.335
-667.047	365.827	0.138	0.280
-666.032	710.949	-0.102	0.271
-665.018	93.887	-0.157	0.178
-664.003	-28.620	0.290	-0.167
-662.989	-0.663	-0.192	-0.137
-661.974	-86.178	-0.205	0.063
-660.959	80.315	-0.158	0.171
-659.945	34.917	0.113	-0.099
-658.930	-4.646	0.108	-0.075
-657.916	781.379	0.122	-0.335
-656.901	-51.466	0.229	-0.107
-655.886	237.606	-0.089	0.148
-654.872	-115.106	0.435	0.083
-653.857	800.000	-0.032	-0.089
-652.843	14.017	0.064	-0.050
-651.828	476.833	0.088	-0.200
-650.814	800.000	-0.015	-0.056
-649.799	330.396	0.141	0.272
-648.784	339.579	0.282	0.552
-647.770	218.747	-0.172	0.275
-646.755	57.593	-0.154	0.151
-645.741	-181.730	0.105	0.002
-644.726	-49.758	-0.235	-0.112
-643.711	-43.823	-0.159	-0.080
-642.697	-169.964	0.094	-0.003
-641.682	545.853	0.071	0.171
-640.668	800.000	0.025	0.096
-639.653	-200.000	-0.019	-0.256
-638.638	-26.616	-0.297	0.174
-637.624	-33.988	-0.175	0.097
-636.609	-120.246	-0.133	0.023
-635.595	-172.235	-0.071	-0.002
-634.580	-115.249	0.180	-0.034
-633.565	9.680	0.158	-0.120
-632.551	-68.122	0.081	0.031
-631.536	-40.115	0.170	-0.089
-630.522	-89.310	0.122	-0.036
-629.507	-200.000	-0.007	-0.037
-628.492	-200.000	0.052	-0.248
-627.478	52.857	-0.348	0.333
-626.463	-74.457	0.274	0.099
-625.449	412.718	-0.107	0.227
-624.434	-40.863	0.137	0.071
-623.419	228.886	-0.028	-0.046
-622.405	415.977	-0.206	-0.439
-621.390	-171.949	0.043	-0.001
-620.376	432.214	-0.067	0.145
-619.361	192.853	-0.059	-0.089
-618.346	4.070	0.112	0.082
-617.332	-100.047	-0.123	0.031
-616.317	-15.176	-0.029	0.019
-615.303	774.287	0.126	0.343
-614.288	-144.833	-0.277	0.025
-613.273	-146.708	-0.281	-0.024
-612.259	-0.334	-0.327	-0.232
-611.244	800.000	0.026	0.104
-610.230	711.177	0.079	0.208
-609.215	73.868	-0.214	-0.224
-608.201	91.958	0.076	-0.085
-607.186	-95.404	0.015	-0.004
-606.171	96.242	-0.087	-0.100
-605.157	-41.039	0.141	-0.073
-604.142	436.881	0.035	0.075
-603.128	-200.000	0.016	-0.545
-602.113	-200.000	-0.005	-0.137
-601.098	-39.913	-0.179	-0.093
-600.084	225.563	-0.197	-0.320
-599.069	-200.000	0.007	0.167
-598.055	119.408	-0.093	-0.115
-597.040	315.616	0.129	-0.244
-596.025	-87.998	0.244	-0.073
-595.011	70.190	0.066	-0.069
-593.996	671.219	0.132	0.341
-592.982	93.373	0.206	0.234
-591.967	95.576	-0.300	0.342
-590.952	395.965	-0.114	-0.237
-589.938	-56.799	0.089	-0.040
-588.923	-3.593	0.183	0.127
-587.909	800.000	-0.031	-0.088
-586.894	-0.227	0.144	-0.103
-585.879	788.281	0.082	-0.226
-584.865	71.275	0.063	-0.065
-583.850	800.000	-0.059	0.187
-582.836	-129.454	0.046	-0.006
-581.821	800.000	0.080	0.255
-580.806	-141.591	-0.212	-0.021
-579.792	800.000	0.040	0.132
-578.777	183.546	-0.264	0.391
-577.763	-75.890	0.211	-0.075
-576.748	393.609	-0.020	-0.041
-575.733	-200.000	0.051	0.261
-574.719	-200.000	-0.272	0.000
-573.704	-200.000	0.289	-0.000
-572.690	232.796	-0.174	0.286
-571.675	-78.914	0.372	-0.126
-570.661	189.482	-0.104	-0.156
-569.646	91.819	0.088	-0.099
-568.631	545.363	0.110	0.263
-567.617	8.425	-0.097	-0.073
-566.602	-42.491	-0.186	0.095
-565.588	800.000	0.058	0.161
-564.573	800.000	0.025	0.085
-563.558	8.488	0.071	-0.054
-562.544	80.169	0.221	-0.237
-561.529	495.562	-0.145	-0.333
-560.515	-102.173	0.319	0.077
-559.500	41.317	0.156	0.141
-558.485	800.000	-0.014	-0.052
-557.471	40.695	-0.073	-0.066
-556.456	-42.047	0.098	0.050
-555.442	659.472	-0.034	-0.086
-554.427	-200.000	0.065	-0.367
-553.412	-38.398	-0.310	-0.164
-552.398	-179.186	0.331	0.007
-551.383	6.906	0.156	0.116
-550.369	291.085	0.091	0.166
-549.354	-200.000	-0.018	-0.090
-548.339	27.155	0.183	-0.154
-547.325	-200.000	-0.039	-0.172
-546.310	32.607	0.209	0.180
-545.296	-42.588	0.173	0.088
-544.281	-97.687	-0.394	-0.102
-543.266	65.274	-0.160	-0.161
-542.252	-110.071	0.286	0.060
-541.237	-157.397	-0.248	-0.015
-540.223	-77.442	-0.309	-0.107
-539.208	323.646	-0.143	-0.272
-538.193	-35.392	0.037	-0.020
-537.179	-15.141	0.122	-0.078
-536.164	130.608	-0.173	0.222
-535.150	132.314	0.062	0.080
-534.135	49.203	-0.235	0.220
-533.121	-125.384	0.163	-0.025
-532.106	70.706	0.168	-0.173
-531.091	404.590	0.026	-0.056
-530.077	-200.000	0.111	0.000
-529.062	-200.000	-0.002	-0.193
-528.048	800.000	-0.061	0.204
-527.033	2.020	-0.069	0.050
-526.018	293.739	-0.156	-0.284
-525.004	-200.000	0.006	0.169
-523.989	15.229	0.205	-0.160
-522.975	-114.313	0.222	0.043
-521.960	-125.187	-0.245	0.037
-520.945	-120.256	0.189	-0.032
-519.931	-200.000	0.012	-0.177
-518.916	50.363	0.104	-0.098
-517.902	98.485	0.107	-0.123
-516.887	-200.000	0.008	-0.054
-515.872	-113.336	-0.217	-0.042
-514.858	185.853	0.115	0.170
-513.843	-40.693	0.205	-0.106
-512.829	177.260	-0.101	-0.146
-511.814	228.108	0.088	0.142
-510.799	617.894	0.183	-0.457
-509.785	-18.528	0.328	0.204
-508.770	655.314	0.061	0.155
-507.756	-103.053	-0.064	-0.015
-506.741	-91.661	0.310	-0.088
-505.726	-43.944	-0.093	-0.046
-504.712	17.843	0.156	0.124
-503.697	87.537	-0.272	-0.300
-502.683	-200.000	0.020	0.156
-501.668	-200.000	-0.033	0.188
-500.653	-18.812	-0.144	0.089
-499.639	-200.000	-0.023	-0.229
-498.624	-200.000	-0.057	-0.293
-497.610	-32.949	-0.105	0.058
-496.595	615.063	-0.088	0.221
-495.581	-200.000	-0.016	0.232
-494.566	-200.000	-0.032	0.319
-493.551	-82.707	0.336	0.108
-492.537	5.784	-0.102	-0.075
-491.522	800.000	0.068	0.285
-490.508	-200.000	0.003	-0.337
-489.493	-110.432	0.240	0.050
-488.478	-17.207	0.046	-0.029
-487.464	800.000	-0.103	0.369
-486.449	-35.049	0.090	-0.049
-485.435	800.000	-0.031	-0.101
-484.420	-2.892	-0.211	-0.147
-483.405	-121.638	0.344	-0.057
-482.391	800.000	0.039	0.121
-481.376	6.214	0.177	0.131
-480.362	339.658	-0.051	0.098
-479.347	663.886	-0.053	0.135
-478.332	-126.770	0.093	-0.014
-477.318	0.974	-0.167	0.119
-476.303	-86.643	0.148	-0.045
-475.289	202.102	-0.052	-0.080
-474.274	800.000	0.151	0.491
-473.259	-30.508	-0.322	-0.181
-472.245	-200.000	-0.012	-0.082
-471.230	5.276	-0.163	-0.120
-470.216	181.968	0.137	-0.200
-469.201	8.482	0.241	0.180
-468.186	-4.353	-0.086	0.059
-467.172	-89.682	0.269	0.078
-466.157	-63.617	0.304	-0.124
-465.143	-102.808	-0.151	-0.036
-464.128	29.815	-0.188	0.159
-463.113	-114.740	0.202	0.038
-462.099	278.105	-0.062	-0.109
-461.084	71.076	-0.157	-0.162
-460.070	66.825	-0.206	0.208
-459.055	119.699	0.160	0.197
-458.040	-6.645	-0.243	0.164
-457.026	-97.830	0.144	-0.037
-456.011	800.000	-0.068	-0.216
-454.997	162.184	0.162	-0.225
-453.982	-162.468	-0.088	0.004
-452.968	-38.994	0.385	-0.202
-451.953	-42.682	-0.366	-0.185
-450.938	354.561	0.055	0.108
-449.924	324.215	-0.111	0.211
-448.909	427.300	-0.042	0.090
-447.895	-37.829	0.098	-0.052
-446.880	19.005	-0.201	0.161
-445.865	-99.604	-0.262	0.065
-444.851	83.051	0.147	0.159
-443.836	-110.519	-0.234	-0.048
-442.822	800.000	-0.026	-0.101
-441.807	166.186	0.232	-0.326
-440.792	-200.000	-0.004	-0.420
-439.778	800.000	-0.055	0.151
-438.763	0.258	0.142	-0.101
-437.749	84.626	-0.159	0.173
-436.734	118.178	0.187	-0.229
-435.719	800.000	0.019	-0.058
-434.705	-31.588	0.252	-0.141
-433.690	1.489	-0.239	0.171
-432.676	-42.638	0.114	-0.058
-431.661	125.649	0.215	-0.269
-430.646	91.929	0.241	0.269
-429.632	-200.000	-0.024	-0.144
-428.617	103.822	-0.037	0.043
-427.603	-46.416	-0.223	-0.109
-426.588	-116.890	-0.247	-0.045
-425.573	-47.983	-0.331	0.159
-424.559	800.000	0.062	-0.218
-423.544	-129.365	0.022	0.003
-422.530	800.000	0.063	-0.208
-421.515	100.615	0.034	-0.039
-420.500	21.965	-0.118	-0.095
-419.486	-1.072	-0.286	-0.201
-418.471	-163.507	0.260	0.012
-417.457	-95.842	-0.087	-0.023
-416.442	-131.399	0.100	-0.013
-415.428	-44.263	-0.206	0.103
-414.413	-179.700	0.154	-0.003
-413.398	-138.753	-0.333	-0.036
-412.384	2.283	-0.092	0.066
-411.369	320.343	-0.272	0.513
-410.355	-200.000	0.080	0.359
-409.340	-93.189	0.226	0.062
-408.325	-200.000	0.059	-0.278
-407.311	-200.000	0.058	-0.386
-406.296	-91.982	-0.205	-0.058
-405.282	309.891	-0.158	0.293
-404.267	-131.091	0.168	0.022
-403.252	145.859	-0.037	0.049
-402.238	-200.000	0.015	0.197
-401.223	719.097	0.024	-0.063
-400.209	-75.913	0.319	0.112
-399.194	800.000	0.076	-0.256
-398.179	-42.180	-0.244	0.124
-397.165	614.697	0.098	-0.243
-396.150	434.078	-0.051	-0.110
-395.136	-200.000	-0.009	-0.125
-394.121	211.018	-0.194	-0.302
-393.106	210.238	0.156	-0.243
-392.092	-16.036	-0.234	0.148
-391.077	200.116	0.151	0.231
-390.063	31.424	-0.090	-0.077
-389.048	-74.493	-0.384	0.137
-388.033	151.173	-0.084	-0.113
-387.019	-84.198	0.276	0.087
-386.004	171.681	-0.116	-0.165
-384.990	-200.000	-0.029	0.172
-383.975	-33.323	-0.100	0.055
-382.960	-187.996	0.066	-0.001
-381.946	183.244	0.084	0.123
-380.931	193.848	-0.054	-0.081
-379.917	137.944	0.046	-0.060
-378.902	-70.299	-0.088	0.033
-377.888	800.000	-0.084	-0.309
-376.873	-124.116	-0.233	-0.036
-375.858	-27.110	-0.117	-0.068
-374.844	12.913	-0.041	-0.032
-373.829	56.598	0.198	-0.191
-372.815	-71.377	-0.332	-0.123
-371.800	-200.000	0.078	0.359
-370.785	800.000	-0.098	-0.324
-369.771	176.166	0.128	0.185
-368.756	-200.000	0.015	0.147
-367.742	-91.468	-0.187	0.053
-366.727	-200.000	0.054	0.265
-365.712	800.000	-0.114	0.366
-364.698	41.955	0.223	0.201
-363.683	-200.000	-0.008	0.082
-362.669	-111.331	0.210	-0.043
-361.654	24.583	0.201	-0.165
-360.639	-33.199	0.168	-0.092
-359.625	127.050	0.321	0.404
-358.610	148.763	-0.059	-0.080
-357.596	-168.553	-0.352	0.013
-356.581	609.290	-0.054	0.134
-355.566	101.471	-0.098	0.114
-354.552	68.598	-0.253	0.257
-353.537	687.292	0.067	-0.173
-352.523	54.793	-0.102	0.098
-351.508	-32.996	0.117	0.064
-350.493	-200.000	-0.055	-0.298
-349.479	800.000	0.031	0.086
-348.464	-25.321	-0.166	0.097
-347.450	-37.195	-0.446	-0.236
-346.435	-130.100	-0.275	0.037
-345.420	153.047	0.167	-0.226
-344.406	350.716	-0.089	-0.174
-343.391	282.992	-0.016	-0.029
-342.377	-0.551	0.180	0.127
-341.362	-200.000	0.040	-0.308
-340.348	-57.456	0.274	0.119
-339.333	-53.527	-0.160	-0.073
-338.318	-123.698	-0.427	-0.067
-337.304	246.177	0.187	-0.311
-336.289	79.985	0.070	-0.075
-335.275	800.000	-0.055	-0.198
-334.260	-56.402	0.107	-0.047
-333.245	-138.808	-0.192	0.021
-332.231	192.052	0.234	-0.349
-331.216	-103.527	-0.192	-0.045
-330.202	-32.229	0.355	-0.196
-329.187	606.772	-0.054	-0.134
-328.172	-140.289	-0.489	0.051
-327.158	-200.000	0.068	-0.366
-326.143	800.000	0.085	-0.321
-325.129	-172.708	0.250	-0.008
-324.114	260.266	0.128	0.219
-323.099	-96.011	-0.408	0.107
-322.085	604.139	-0.111	0.272
-321.070	450.065	-0.139	-0.304
-320.056	-53.142	-0.299	0.136
-319.041	-114.015	-0.104	0.020
-318.026	254.729	-0.088	-0.150
-317.012	704.093	0.030	-0.079
-315.997	800.000	0.017	0.050
-314.983	69.892	0.022	0.022
-313.968	-98.052	0.300	-0.076
-312.953	-52.851	0.324	-0.148
-311.939	163.978	-0.043	-0.060
-310.924	800.000	-0.100	-0.336
-309.910	-84.733	0.186	0.058
-308.895	6.555	0.279	-0.205
-307.880	26.099	0.263	-0.217
-306.866	-7.797	-0.201	-0.134
-305.851	624.811	0.129	-0.322
-304.837	58.871	0.095	0.093
-303.822	-200.000	-0.045	0.409
-302.807	800.000	0.086	0.255
-301.793	151.018	0.096	-0.129
-300.778	800.000	0.050	-0.193
-299.764	-157.589	0.353	-0.021
-298.749	282.742	0.082	0.145
-297.735	-96.763	0.438	0.114
-296.720	-72.002	-0.210	-0.077
-295.705	800.000	-0.048	-0.194
-294.691	260.355	0.040	-0.068
-293.676	-200.000	-0.045	0.224
-292.662	60.304	-0.140	-0.137
-291.647	-200.000	-0.025	0.457
-290.632	-70.987	-0.320	0.119
-289.618	47.033	-0.148	0.136
-288.603	-200.000	0.002	-0.013
-287.589	383.855	0.146	0.297
-286.574	-24.158	-0.260	-0.154
-285.559	171.710	0.161	0.229
-284.545	-14.677	-0.156	-0.099
-283.530	48.468	0.189	0.174
-282.516	-96.328	-0.293	0.077
-281.501	127.907	0.167	0.210
-280.486	-176.961	-0.342	-0.009
-279.472	-69.001	0.230	-0.088
-278.457	-73.279	0.254	-0.092
-277.443	-14.753	0.255	-0.162
-276.428	143.550	-0.111	0.146
-275.413	800.000	-0.027	-0.110
-274.399	104.925	0.341	0.398
-273.384	-65.627	-0.223	0.088
-272.370	-200.000	0.017	-0.146
-271.355	-74.940	-0.135	-0.048
-270.340	627.867	-0.134	0.334
-269.326	-78.028	-0.169	0.057
-268.311	463.096	0.107	0.237
-267.297	144.318	0.016	-0.021
-266.282	577.882	0.076	0.183
-265.267	355.940	0.104	0.205
-264.253	51.809	0.259	0.244
-263.238	800.000	-0.017	0.061
-262.224	141.804	-0.293	-0.383
-261.209	148.843	0.132	0.176
-260.195	-12.027	0.203	-0.131
-259.180	23.312	0.217	0.176
-258.165	-19.229	-0.259	0.158
-257.151	-62.880	0.339	0.138
-256.136	-200.000	0.053	0.237
-255.122	193.492	0.107	0.160
-254.107	52.527	-0.210	-0.198
-253.092	-82.606	-0.360	0.115
-252.078	800.000	0.016	0.053
-251.063	-200.000	-0.006	-0.180
-250.049	-166.478	0.329	0.014
-249.034	20.371	0.184	0.147
-248.019	27.728	0.073	0.060
-247.005	-142.342	0.183	0.018
-245.990	-87.056	0.127	-0.038
-244.976	-200.000	0.008	0.259
-243.961	-92.811	-0.325	0.090
-242.946	-149.405	0.442	0.035
-241.932	-113.759	0.185	-0.035
-240.917	-36.735	0.077	-0.041
-239.903	19.666	0.197	-0.157
-238.888	567.106	0.067	0.160
-237.873	-36.690	-0.085	-0.045
-236.859	6.419	0.168	-0.123
-235.844	231.094	0.058	-0.093
-234.830	131.962	0.064	-0.081
-233.815	171.968	0.095	0.135
-232.800	-149.945	-0.236	-0.018
-231.786	-23.587	-0.169	0.100
-230.771	-103.408	-0.204	-0.047
-229.757	-60.397	0.154	0.064
-228.742	-200.000	0.032	-0.184
-227.727	151.724	0.125	-0.167
-226.713	126.566	-0.175	-0.218
-225.698	-171.173	-0.360	0.012
-224.684	-20.271	0.178	-0.108
-223.669	166.004	-0.113	-0.157
-222.655	211.233	-0.164	-0.254
-221.640	-91.089	-0.359	0.102
-220.625	-134.876	-0.021	-0.002
-219.611	-79.479	-0.243	-0.081
-218.596	127.147	-0.257	0.322
-217.582	504.530	0.051	0.116
-216.567	-200.000	-0.025	0.170
-215.552	-18.923	0.157	0.096
-214.538	800.000	0.036	0.128
-213.523	282.183	-0.226	-0.399
-212.509	-154.448	-0.225	0.015
-211.494	402.326	0.219	0.454
-210.479	-118.602	-0.024	0.004
-209.465	-200.000	-0.421	0.000
-208.450	-191.666	-0.278	0.003
-207.436	-72.773	0.211	0.076
-206.421	47.363	-0.241	-0.222
-205.406	65.616	-0.153	0.152
-204.392	62.437	-0.245	-0.241
-203.377	-115.692	-0.272	-0.050
-202.363	90.985	0.309	-0.341
-201.348	191.839	-0.095	-0.141
-200.333	800.000	0.037	-0.150
-199.319	60.763	0.125	0.122
-198.304	-116.623	0.109	-0.020
-197.290	198.661	0.132	-0.200
-196.275	-124.030	-0.213	-0.033
-195.260	551.420	-0.058	0.136
-194.246	-200.000	-0.014	-0.133
-193.231	-93.004	-0.112	-0.031
-192.217	509.948	-0.102	-0.234
-191.202	-112.207	0.271	-0.054
-190.187	-112.386	-0.116	0.023
-189.173	279.130	0.024	0.041
-188.158	-200.000	-0.015	-0.084
-187.144	-200.000	-0.041	0.315
-186.129	390.023	0.118	-0.240
-185.114	239.866	-0.189	0.310
-184.100	-200.000	-0.034	0.193
-183.085	98.924	0.226	-0.257
-182.071	-200.000	0.072	-0.395
-181.056	32.317	0.196	0.166
-180.042	-22.709	-0.051	0.030
-179.027	292.999	0.045	-0.082
-178.012	18.187	-0.309	-0.243
-176.998	151.909	0.112	-0.151
-175.983	119.619	-0.027	-0.033
-174.969	-109.256	-0.052	-0.011
-173.954	92.020	0.158	-0.175
-172.939	-200.000	0.005	0.152
-171.925	764.906	0.062	0.166
-170.910	-4.057	-0.261	0.178
-169.896	-26.893	0.262	0.151
-168.881	-51.252	0.411	-0.189
-167.866	6.438	0.120	-0.087
-166.852	-200.000	-0.030	0.156
-165.837	83.919	-0.263	0.283
-164.823	29.300	0.124	0.104
-163.808	20.200	-0.278	-0.221
-162.793	-134.720	0.139	-0.017
-161.779	-120.389	0.407	-0.068
-160.764	110.193	-0.026	-0.031
-159.750	-93.375	-0.060	0.016
-158.735	-200.000	-0.011	-0.148
-157.720	-120.040	0.261	-0.044
-156.706	57.458	0.164	0.157
-155.691	-200.000	-0.007	0.504
-154.677	800.000	-0.074	0.301
-153.662	737.274	-0.094	0.247
-152.647	310.584	-0.067	0.123
-151.633	-200.000	0.011	0.148
-150.618	800.000	0.020	-0.079
-149.604	-194.833	-0.201	0.002
-148.589	132.406	0.167	0.211
-147.574	136.313	-0.266	0.341
-146.560	-199.887	-0.261	0.001
-145.545	91.251	0.178	0.197
-144.531	800.000	0.075	-0.212
-143.516	-150.879	0.148	0.011
-142.502	-200.000	-0.037	-0.285
-141.487	-200.000	0.053	0.355
-140.472	-100.439	0.238	0.058
-139.458	331.655	0.078	0.148
-138.443	39.325	0.120	-0.105
-137.429	304.987	-0.119	-0.217
-136.414	457.854	-0.141	-0.307
-135.399	-35.413	-0.278	-0.148
-134.385	90.146	-0.054	-0.060
-133.370	-95.210	0.153	-0.040
-132.356	60.536	-0.020	0.019
-131.341	-148.344	-0.337	0.027
-130.326	-77.089	-0.362	-0.124
-129.312	436.407	-0.034	0.073
-128.297	-200.000	-0.014	-0.089
-127.283	276.027	0.177	0.308
-126.268	610.942	0.117	0.287
-125.253	-200.000	0.039	0.171
-124.239	18.592	0.194	-0.152
-123.224	18.436	0.127	0.099
-122.210	800.000	0.070	0.235
-121.195	64.467	0.178	0.176
-120.180	96.802	0.065	0.074
-119.166	-200.000	-0.029	-0.247
-118.151	-21.459	-0.119	0.071
-117.137	13.248	-0.356	0.270
-116.122	-81.961	-0.200	0.064
-115.107	-200.000	0.048	0.225
-114.093	157.028	-0.242	-0.328
-113.078	159.032	-0.197	-0.268
-112.064	-76.977	0.393	0.135
-111.049	41.078	-0.239	0.212
-110.034	786.241	0.115	-0.309
-109.020	-136.756	-0.422	-0.048
-108.005	-127.678	0.052	-0.007
-106.991	312.753	0.048	0.089
-105.976	800.000	-0.024	0.094
-104.962	-74.299	-0.115	0.041
-103.947	-81.898	0.071	-0.023
-102.932	729.825	-0.069	0.180
-101.918	800.000	-0.046	0.192
-100.903	-58.193	-0.154	-0.066
-99.889	-64.876	0.219	0.087
-98.874	800.000	-0.034	-0.142
-97.859	-168.809	-0.102	-0.004
-96.845	-200.000	-0.000	0.068
-95.830	86.060	0.071	0.076
-94.816	186.968	0.202	0.295
-93.801	47.704	-0.178	0.162
-92.786	389.410	0.177	0.360
-91.772	800.000	0.039	-0.161
-90.757	800.000	0.016	-0.051
-89.743	114.337	0.026	-0.031
-88.728	-200.000	0.043	0.570
-87.713	-200.000	-0.011	-0.170
-86.699	800.000	0.135	-0.371
-85.684	-120.606	-0.295	-0.049
-84.670	-8.740	0.046	-0.030
-83.655	-200.000	0.029	0.176
-82.640	-152.154	0.154	-0.011
-81.626	800.000	0.087	-0.347
-80.611	-102.629	-0.261	-0.061
-79.597	10.854	0.316	0.236
-78.582	-97.589	0.228	-0.058
-77.567	-122.214	-0.177	0.028
-76.553	-2.397	0.094	-0.065
-75.538	117.310	-0.167	-0.202
-74.524	610.104	0.166	0.407
-73.509	638.456	-0.041	-0.101
-72.494	-115.341	0.132	0.024
-71.480	-145.763	-0.283	-0.025
-70.465	-200.000	0.087	0.384
-69.451	383.921	-0.041	-0.082
-68.436	-15.436	-0.208	-0.130
-67.422	-200.000	0.021	0.382
-66.407	-106.421	0.514	0.112
-65.392	-200.000	0.079	0.387
-64.378	289.106	0.063	0.112
-63.363	-51.926	0.086	0.039
-62.349	237.933	-0.051	-0.083
-61.334	98.161	-0.970	-1.094
-60.319	236.671	0.447	0.724
-59.305	592.425	-0.448	-1.084
-58.290	326.028	0.622	1.167
-57.276	800.000	0.533	1.475
-56.261	-200.000	112.397	633.696
-55.246	466.669	1505.511	3302.683
-54.232	146.930	2677.833	3525.600
-53.217	97.101	2290.009	2571.745
-52.203	36.591	1900.108	1642.269
-51.188	30.703	1689.579	1415.618
-50.173	28.240	1647.687	1362.163
-49.159	49.945	1702.489	1572.011
-48.144	48.879	1716.599	1576.938
-47.130	30.315	1675.086	1400.322
-46.115	27.572	1660.648	1367.648
-45.100	27.435	1655.843	1362.606
-44.086	27.431	1653.250	1360.388
-43.071	27.354	1650.666	1357.634
-42.057	27.340	1648.625	1355.796
-41.042	27.425	1645.643	1353.927
-40.027	27.366	1643.923	1352.016
-39.013	27.344	1642.263	1350.438
-37.998	27.292	1640.926	1348.894
-36.984	27.316	1639.493	1347.847
-35.969	27.530	1637.505	1347.738
-34.954	27.562	1635.973	1346.665
-33.940	27.539	1634.083	1344.884
-32.925	27.455	1632.727	1343.093
-31.911	27.525	1630.862	1342.026
-30.896	27.518	1628.931	1340.326
-29.881	27.460	1628.026	1339.104
-28.867	27.520	1625.669	1337.555
-27.852	27.524	1623.689	1335.901
-26.838	27.413	1622.927	1334.408
-25.823	27.458	1621.478	1333.492
-24.809	27.597	1619.879	1333.143
-23.794	27.618	1618.535	1332.136
-22.779	27.547	1617.288	1330.535
-21.765	27.489	1615.621	1328.691
-20.750	27.544	1613.881	1327.608
-19.736	27.639	1612.602	1327.197
-18.721	27.601	1610.916	1325.474
-17.706	27.584	1609.868	1324.435
-16.692	27.620	1608.223	1323.296
-15.677	27.435	1607.221	1321.076
-14.663	27.699	1605.152	1321.235
-13.648	27.590	1604.429	1319.800
-12.633	27.515	1603.024	1318.044
-11.619	27.519	1601.499	1316.766
-10.604	27.562	1599.612	1315.473
-9.590	27.507	1598.875	1314.418
-8.575	27.546	1597.215	1313.288
-7.560	27.572	1596.384	1312.739
-6.546	27.585	1595.050	1311.678
-5.531	27.551	1593.986	1310.513
-4.517	27.567	1592.446	1309.306
-3.502	27.631	1591.569	1308.996
-2.487	27.755	1589.745	1308.330
-1.473	27.377	1578.585	1296.405
-0.458	24.778	1560.089	1262.844
0.556	19.651	1561.464	1232.115
1.571	17.403	1584.927	1234.230
2.586	16.998	1597.664	1241.078
3.600	15.566	1544.590	1189.609
4.615	8.748	1435.553	1060.516
5.629	1.645	1373.422	969.398
6.644	0.179	1365.263	954.273
7.659	0.115	1364.472	953.227
8.673	0.106	1362.705	951.854
9.688	0.109	1361.014	950.607
10.702	-0.027	1358.494	947.902
11.717	3.356	1363.142	972.441
12.731	11.422	1375.592	1032.436
13.746	16.603	1382.738	1070.572
14.761	17.154	1382.217	1073.559
15.775	16.301	1379.490	1065.965
16.790	15.285	1377.085	1057.608
17.804	14.504	1375.067	1051.041
18.819	14.140	1373.538	1047.491
19.834	13.862	1372.498	1044.852
20.848	13.571	1371.288	1042.011
21.863	13.206	1370.145	1038.755
22.877	13.087	1368.647	1036.782
23.892	13.238	1367.353	1036.652
24.907	13.190	1366.678	1035.748
25.921	13.241	1366.000	1035.466
26.936	13.283	1364.897	1034.798
27.950	13.288	1363.925	1034.002
28.965	13.338	1362.682	1033.280
29.980	13.363	1362.530	1033.230
30.994	13.397	1361.545	1032.607
32.009	13.512	1359.882	1031.970
33.023	13.403	1359.323	1030.774
34.038	13.423	1358.067	1029.857
35.053	13.324	1357.256	1028.532
36.067	13.402	1355.779	1027.807
37.082	13.327	1355.244	1026.843
38.096	13.435	1353.753	1026.292
39.111	13.429	1353.020	1025.612
40.126	13.292	1352.458	1024.248
41.140	13.294	1351.417	1023.380
42.155	13.184	1350.810	1022.149
43.169	13.192	1351.142	1022.356
44.184	13.153	1350.794	1021.766
45.199	13.127	1350.285	1021.126
46.213	13.174	1349.514	1020.744
47.228	13.172	1349.354	1020.519
48.242	13.285	1347.362	1019.621
49.257	13.382	1345.713	1018.881
50.271	13.378	1344.413	1017.779
51.286	13.293	1343.256	1016.291
52.301	13.324	1342.202	1015.598
53.315	13.288	1340.720	1014.161
54.330	13.250	1339.958	1013.264
55.344	13.238	1338.729	1012.174
56.359	13.266	1338.133	1011.804
57.374	13.294	1336.614	1010.738
58.388	13.233	1336.089	1009.879
59.403	13.133	1335.905	1009.035
60.417	13.131	1335.069	1008.304
61.432	13.079	1334.141	1007.198
62.447	13.115	1332.879	1006.376
63.461	13.080	1331.500	1005.031
64.476	13.066	1330.664	1004.225
65.490	13.091	1329.548	1003.448
66.505	13.083	1327.883	1002.054
67.520	13.103	1326.742	1001.224
68.534	13.301	1325.410	1001.331
69.549	13.036	1325.122	999.419
70.563	13.131	1324.077	999.118
71.578	13.139	1322.470	997.866
72.593	12.959	1321.931	996.284
73.607	13.110	1320.834	996.280
74.622	13.033	1320.455	995.441
75.636	12.959	1319.859	994.459
76.651	13.149	1318.466	994.463
77.666	13.064	1318.408	993.821
78.680	13.108	1317.769	993.513
79.695	13.066	1316.705	992.375
80.709	13.208	1315.901	992.530
81.724	13.224	1315.055	991.904
82.739	13.127	1314.353	990.706
83.753	13.252	1313.300	990.572
84.768	13.280	1312.425	989.994
85.782	13.382	1311.333	989.690
86.797	13.338	1310.069	988.386
87.812	13.211	1308.971	986.710
88.826	13.197	1307.868	985.709
89.841	13.312	1306.715	985.437
90.855	13.311	1305.723	984.597
91.870	13.317	1304.972	983.979
92.884	13.277	1304.481	983.285
93.899	13.352	1303.431	982.853
94.914	13.478	1302.360	982.707
95.928	13.422	1301.845	981.895
96.943	13.498	1300.785	981.461
97.957	13.310	1300.148	979.781
98.972	13.367	1298.842	979.043
99.987	13.323	1298.147	978.175
101.001	13.346	1296.991	977.353
102.016	13.419	1295.799	976.800
103.030	13.361	1295.293	975.991
104.045	13.337	1294.064	974.838
105.060	13.321	1292.699	973.625
106.074	13.291	1291.570	972.515
107.089	13.190	1290.434	970.979
108.103	13.195	1288.730	969.641
109.118	13.225	1287.505	968.807
110.133	13.117	1286.784	967.549
111.147	13.292	1285.203	967.300
112.162	13.321	1283.623	966.191
113.176	13.306	1282.966	965.526
114.191	13.262	1282.097	964.531
115.206	13.349	1280.366	963.651
116.220	13.300	1279.266	962.448
117.235	13.349	1278.057	961.742
118.249	13.285	1277.265	960.688
119.264	13.237	1276.103	959.452
120.279	13.279	1275.152	958.891
121.293	13.173	1274.347	957.586
122.308	13.121	1273.596	956.641
123.322	13.185	1272.252	955.912
124.337	13.235	1271.404	955.479
125.352	13.195	1270.755	954.681
126.366	13.115	1269.133	952.914
127.381	13.193	1268.319	952.666
128.395	13.139	1266.968	951.257
129.410	13.157	1265.863	950.446
130.424	13.152	1265.858	950.329
131.439	13.255	1264.462	949.791
132.454	13.318	1263.097	949.045
133.468	13.306	1262.480	948.427
134.483	13.316	1262.095	948.111
135.497	13.324	1260.494	946.872
136.512	13.252	1259.116	945.340
137.527	13.358	1257.841	944.902
138.541	13.210	1256.984	943.334
139.556	13.251	1255.249	942.177
140.570	13.360	1254.283	941.995
141.585	13.395	1253.158	941.264
142.600	13.416	1251.826	940.300
143.614	13.519	1250.751	939.993
144.629	13.494	1249.714	938.987
145.643	13.490	1248.619	938.062
146.658	13.413	1247.332	936.575
147.673	13.408	1246.072	935.519
148.687	13.339	1245.041	934.272
149.702	13.389	1244.200	933.837
150.716	13.432	1242.491	932.716
151.731	13.444	1241.203	931.736
152.746	13.402	1240.384	930.799
153.760	13.379	1239.361	929.822
154.775	13.535	1237.757	929.410
155.789	13.490	1236.437	928.085
156.804	13.536	1235.464	927.533
157.819	13.578	1234.310	926.818
158.833	13.607	1233.749	926.478
159.848	13.582	1232.882	925.606
160.862	13.534	1231.929	924.535
161.877	13.542	1230.677	923.563
162.892	13.570	1229.303	922.606
163.906	13.549	1228.314	921.663
164.921	13.443	1227.952	920.723
165.935	13.429	1227.130	919.944
166.950	13.590	1226.498	920.284
167.964	13.617	1225.597	919.678
168.979	13.607	1224.964	919.065
169.994	13.656	1224.029	918.556
171.008	13.631	1223.043	917.597
172.023	13.738	1222.269	917.527
173.037	13.721	1221.741	916.951
174.052	13.703	1220.715	916.005
175.067	13.686	1219.498	914.912
176.081	13.662	1218.456	913.920
177.096	13.691	1217.595	913.353
178.110	13.663	1216.553	912.338
179.125	13.700	1215.108	911.377
180.140	13.667	1214.227	910.452
181.154	13.625	1213.255	909.410
182.169	13.835	1211.643	909.274
183.183	13.808	1209.967	907.786
184.198	13.841	1209.042	907.192
185.213	13.924	1207.932	906.734
186.227	13.844	1207.016	905.533
187.242	13.794	1206.274	904.619
188.256	13.861	1205.459	904.292
189.271	13.977	1204.068	903.801
190.286	13.765	1202.941	901.722
191.300	13.660	1202.416	900.683
192.315	13.649	1201.732	900.029
193.329	13.663	1201.090	899.545
194.344	13.636	1200.579	898.934
195.359	13.802	1200.214	899.481
196.373	13.876	1199.279	899.105
197.388	13.883	1198.880	898.764
198.402	14.041	1198.444	899.208
199.417	13.995	1197.422	898.115
200.432	14.014	1196.724	897.615
201.446	14.090	1195.406	896.955
202.461	14.120	1194.801	896.585
203.475	14.059	1193.815	895.439
204.490	14.011	1192.862	894.385
205.504	14.232	1191.332	894.345
206.519	14.182	1189.928	892.945
207.534	14.129	1189.070	891.940
208.548	14.083	1188.082	890.872
209.563	14.074	1187.771	890.514
210.577	14.070	1186.671	889.589
211.592	14.234	1185.716	889.667
212.607	14.284	1184.997	889.319
213.621	14.105	1184.303	887.764
214.636	14.143	1183.217	887.072
215.650	14.204	1182.432	886.731
216.665	14.376	1180.870	886.393
217.680	14.287	1180.556	885.607
218.694	14.279	1179.396	884.617
219.709	14.227	1178.852	883.853
220.723	14.272	1178.122	883.466
221.738	14.214	1177.761	882.811
222.753	14.323	1176.979	882.726
223.767	14.353	1175.947	882.033
224.782	14.366	1175.286	881.527
225.796	14.499	1175.016	881.948
226.811	14.438	1174.411	881.095
227.826	14.416	1173.450	880.180
228.840	14.361	1172.609	879.184
229.855	14.476	1172.032	879.278
230.869	14.442	1171.131	878.342
231.884	14.357	1170.551	877.384
232.899	14.290	1169.594	876.239
233.913	14.303	1169.018	875.795
234.928	14.398	1168.231	875.629
235.942	14.399	1167.208	874.791
236.957	14.407	1166.519	874.235
237.972	14.377	1165.926	873.559
238.986	14.218	1165.429	872.278
240.001	14.489	1164.404	872.851
241.015	14.471	1163.587	872.066
242.030	14.479	1163.046	871.623
243.045	14.516	1162.324	871.202
244.059	14.552	1161.296	870.540
245.074	14.567	1160.348	869.830
246.088	14.591	1159.353	869.132
247.103	14.588	1158.877	868.682
248.117	14.665	1158.049	868.389
249.132	14.790	1157.236	868.352
250.147	14.661	1157.170	867.556
251.161	14.864	1155.533	867.301
252.176	14.751	1155.681	866.752
253.190	14.825	1154.719	866.333
254.205	14.924	1154.125	866.324
255.220	14.895	1153.311	865.488
256.234	14.957	1152.916	865.439
257.249	14.934	1152.136	864.654
258.263	14.966	1151.373	864.170
259.278	14.999	1151.207	864.139
260.293	15.046	1150.246	863.585
261.307	15.013	1149.914	863.089
262.322	15.063	1149.054	862.626
263.336	15.145	1148.163	862.301
264.351	15.167	1147.869	862.118
265.366	15.111	1147.206	861.255
266.380	15.076	1146.520	860.486
267.395	14.996	1145.742	859.414
268.409	15.028	1144.995	858.940
269.424	15.043	1144.439	858.526
270.439	15.161	1143.555	858.390
271.453	15.143	1143.110	857.887
272.468	15.106	1141.930	856.739
273.482	15.096	1141.107	855.994
274.497	15.157	1140.802	856.003
275.512	15.098	1140.342	855.279
276.526	15.223	1139.281	855.045
277.541	15.176	1138.615	854.228
278.555	15.205	1137.761	853.661
279.570	15.218	1137.429	853.402
280.585	15.204	1136.869	852.836
281.599	15.221	1135.424	851.762
282.614	15.335	1134.479	851.559
283.628	15.181	1133.431	849.915
284.643	15.169	1133.014	849.468
285.657	15.288	1131.438	848.810
286.672	15.392	1131.000	848.934
287.687	15.348	1129.913	847.820
288.701	15.363	1129.589	847.577
289.716	15.287	1128.819	846.541
290.730	15.358	1127.963	846.183
291.745	15.240	1127.306	845.023
292.760	15.307	1127.193	845.197
293.774	15.481	1126.183	845.242
294.789	15.572	1124.891	844.657
295.803	15.415	1124.894	843.795
296.818	15.526	1123.837	843.487
297.833	15.571	1123.095	843.081
298.847	15.428	1122.468	841.816
299.862	15.409	1121.466	840.894
300.876	15.410	1121.636	840.955
301.891	15.640	1120.277	841.012
302.906	15.552	1119.552	839.955
303.920	15.586	1119.106	839.714
304.935	15.701	1118.330	839.632
305.949	15.700	1117.703	839.079
306.964	15.718	1117.154	838.684
307.979	15.631	1116.109	837.393
308.993	15.665	1115.360	836.924
310.008	15.798	1114.476	836.852
311.022	15.793	1113.550	836.057
312.037	15.762	1112.731	835.215
313.052	15.715	1112.048	834.393
314.066	15.800	1110.519	833.593
315.081	15.693	1110.375	832.883
316.095	15.809	1109.308	832.579
317.110	15.700	1108.703	831.515
318.125	15.687	1108.320	831.089
319.139	15.686	1107.303	830.246
320.154	15.765	1106.863	830.233
321.168	15.631	1106.157	828.971
322.183	15.817	1105.340	829.200
323.197	15.725	1104.997	828.420
324.212	15.798	1104.199	828.104
325.227	15.777	1103.741	827.587
326.241	15.807	1103.729	827.653
327.256	15.863	1102.530	826.951
328.270	15.865	1100.977	825.727
329.285	15.735	1100.622	824.748
330.300	15.873	1099.511	824.518
331.314	15.883	1098.511	823.746
332.329	15.815	1097.597	822.655
333.343	15.775	1096.883	821.852
334.358	15.962	1095.778	821.863
335.373	15.987	1095.357	821.597
336.387	15.932	1094.830	820.862
337.402	15.906	1094.199	820.190
338.416	16.005	1092.945	819.657
339.431	16.123	1092.422	819.765
340.446	16.088	1092.283	819.418
341.460	16.110	1091.476	818.847
342.475	16.193	1090.844	818.705
343.489	16.195	1089.599	817.706
344.504	16.253	1088.733	817.267
345.519	16.340	1087.794	816.908
346.533	16.305	1087.032	816.096
347.548	16.300	1086.233	815.399
348.562	16.382	1085.595	815.246
349.577	16.325	1084.642	814.181
350.592	16.260	1084.301	813.541
351.606	16.298	1083.252	812.864
352.621	16.188	1082.809	811.931
353.635	16.167	1082.364	811.423
354.650	16.227	1081.453	810.959
355.665	16.320	1080.638	810.719
356.679	16.312	1080.093	810.203
357.694	16.309	1079.916	809.982
358.708	16.339	1078.929	809.317
359.723	16.377	1078.029	808.748
360.738	16.322	1077.766	808.217
361.752	16.383	1077.067	807.913
362.767	16.340	1076.555	807.251
363.781	16.405	1075.912	807.012
364.796	16.483	1075.362	806.897
365.810	16.487	1074.767	806.397
366.825	16.486	1073.938	805.702
367.840	16.695	1073.393	806.219
368.854	16.720	1072.647	805.703
369.869	16.740	1072.012	805.250
370.883	16.563	1071.376	803.863
371.898	16.607	1070.545	803.375
372.913	16.734	1069.671	803.249
373.927	16.667	1069.879	803.020
374.942	16.639	1069.086	802.219
375.956	16.678	1068.619	801.984
376.971	16.606	1068.246	801.291
377.986	16.642	1067.761	801.023
379.000	16.712	1066.863	800.614
380.015	16.911	1065.947	800.794
381.029	16.934	1065.561	800.544
382.044	16.852	1064.893	799.580
383.059	16.920	1064.129	799.260
384.073	16.811	1063.495	798.198
385.088	17.039	1062.317	798.315
386.102	16.923	1061.273	796.917
387.117	16.842	1060.873	796.166
388.132	16.871	1059.897	795.497
389.146	16.834	1058.776	794.413
390.161	16.842	1058.293	794.017
391.175	16.778	1057.888	793.342
392.190	17.019	1056.534	793.383
393.205	16.891	1056.013	792.327
394.219	16.985	1055.282	792.144
395.234	16.873	1054.531	790.988
396.248	16.972	1053.230	790.407
397.263	16.948	1052.500	789.673
398.278	16.872	1052.152	788.988
399.292	16.896	1051.252	788.356
400.307	16.869	1050.513	787.606
401.321	16.914	1050.017	787.374
402.336	16.904	1049.259	786.691
403.350	16.975	1048.414	786.315
404.365	16.929	1047.912	785.658
405.380	17.257	1046.689	786.187
406.394	17.088	1046.327	785.066
407.409	17.056	1045.433	784.177
408.423	17.071	1045.176	783.986
409.438	17.106	1044.413	783.502
410.453	17.279	1043.240	783.351
411.467	17.215	1042.843	782.692
412.482	17.208	1042.354	782.223
413.496	17.194	1041.850	781.710
414.511	17.260	1040.934	781.258
415.526	17.432	1040.560	781.699
416.540	17.376	1040.232	781.124
417.555	17.330	1039.805	780.526
418.569	17.244	1039.124	779.547
419.584	17.292	1038.676	779.366
420.599	17.377	1038.185	779.315
421.613	105.245	1324.259	1477.823
422.628	96.558	1365.915	1477.924
