DTS Sentinel unit serial number:	SN413079Multiplexer serial number:	ORYXHardware model number:	OX4-SRSoftware version number:	ORYX F/W v4.00 Oryx Data Collector v3.7.2.0data status	okinstallation	princeton_trtdifferential loss correction	single-endedforward channel	channel 2reverse channel	N/Adate	2019/09/14time	03:35:34forward acquisition time	60.00reverse acquisition time	0.00gamma	496.2192k internal	0.2336k external	0.2336temperature offset calibration	1.0129default loss term (dB/km)	0.3790temperature slope calibration	1.0000multiplexer offset coefficient	1.0000multiplexer slope coefficient	1.0000fibre end	0.00T internal ref (°C)	26.62T ext. ref 1 (°C)	3.29T ext. ref 2 (°C)	21.58length (m)	temperature (°C)	Stokes	anti-Stokes-747.200	-5.320	-0.211	0.145
-746.185	-180.412	-0.224	0.005
-745.171	-55.239	-0.133	0.060
-744.156	11.971	-0.213	0.165
-743.142	800.000	-0.079	0.235
-742.127	-105.405	0.121	0.028
-741.112	800.000	0.080	0.317
-740.098	2.003	-0.238	0.173
-739.083	-39.531	-0.341	-0.179
-738.069	102.628	-0.093	0.109
-737.054	-105.631	0.138	-0.031
-736.039	-150.828	-0.276	0.021
-735.025	-200.000	-0.031	0.233
-734.010	85.849	0.006	0.006
-732.996	-97.558	-0.301	0.079
-731.981	151.193	0.134	-0.183
-730.966	-200.000	-0.013	0.075
-729.952	-96.406	-0.341	-0.091
-728.937	237.803	-0.245	-0.408
-727.923	-200.000	-0.070	-0.318
-726.908	-200.000	0.001	-0.083
-725.894	133.700	0.052	0.067
-724.879	88.658	-0.141	-0.157
-723.864	-27.092	-0.186	0.109
-722.850	-72.349	-0.140	0.052
-721.835	541.143	-0.127	0.304
-720.821	63.707	0.226	-0.228
-719.806	131.401	-0.049	-0.063
-718.791	1.360	-0.234	0.169
-717.777	-154.188	-0.360	-0.024
-716.762	323.187	-0.138	0.264
-715.748	504.527	-0.079	0.182
-714.733	-124.674	-0.165	-0.026
-713.718	-127.253	-0.158	-0.023
-712.704	-101.605	0.237	0.058
-711.689	-68.831	0.379	-0.147
-710.675	23.602	-0.152	0.126
-709.660	-19.080	0.032	-0.020
-708.645	99.563	-0.198	-0.230
-707.631	43.943	0.239	0.220
-706.616	493.802	-0.054	0.123
-705.602	-85.682	0.164	0.051
-704.587	-54.659	-0.086	0.039
-703.572	-200.000	-0.004	-0.120
-702.558	-200.000	0.029	-0.280
-701.543	-10.973	-0.126	-0.084
-700.529	800.000	-0.052	-0.151
-699.514	800.000	-0.134	0.416
-698.499	-49.341	-0.072	0.034
-697.485	5.011	-0.231	0.171
-696.470	215.653	0.099	0.158
-695.456	-31.159	-0.051	-0.029
-694.441	-200.000	0.023	0.146
-693.426	362.478	0.085	-0.171
-692.412	447.773	-0.011	-0.025
-691.397	770.742	0.133	0.362
-690.383	-94.278	-0.384	-0.105
-689.368	-200.000	-0.010	0.163
-688.354	-109.915	0.179	0.038
-687.339	-200.000	-0.017	-0.199
-686.324	-200.000	0.001	-0.118
-685.310	-200.000	-0.012	0.085
-684.295	-8.879	-0.143	-0.096
-683.281	164.120	0.142	0.201
-682.266	658.827	0.011	0.028
-681.251	28.023	-0.088	0.074
-680.237	667.654	-0.084	-0.218
-679.222	-97.351	0.277	0.072
-678.208	-200.000	-0.223	-0.001
-677.193	-200.000	-0.022	0.301
-676.178	199.019	0.063	0.097
-675.164	164.708	-0.271	0.383
-674.149	-200.000	-0.012	0.206
-673.135	380.215	0.016	-0.032
-672.120	-72.859	-0.220	-0.081
-671.105	41.205	0.097	0.088
-670.091	-53.932	-0.130	-0.059
-669.076	549.432	0.114	-0.274
-668.062	29.140	0.105	-0.089
-667.047	800.000	-0.116	-0.445
-666.032	-67.481	0.152	0.060
-665.018	96.272	0.292	0.334
-664.003	426.036	0.052	-0.113
-662.989	83.182	0.161	-0.175
-661.974	343.507	-0.075	0.147
-660.959	-200.000	-0.017	0.091
-659.945	-150.775	0.389	0.030
-658.930	-148.187	0.098	-0.008
-657.916	244.740	0.021	0.036
-656.901	40.759	-0.058	-0.052
-655.886	485.266	-0.019	-0.043
-654.872	-200.000	0.008	-0.260
-653.857	-200.000	0.025	0.119
-652.843	717.449	0.025	-0.068
-651.828	-200.000	0.027	-0.285
-650.814	-75.933	0.100	-0.036
-649.799	-200.000	0.038	0.241
-648.784	-200.000	0.020	-0.124
-647.770	-8.688	-0.198	-0.133
-646.755	351.707	0.050	-0.099
-645.741	-97.242	0.468	-0.122
-644.726	-200.000	-0.029	0.131
-643.711	-144.989	0.098	0.009
-642.697	-200.000	-0.002	0.287
-641.682	-200.000	-0.015	-0.242
-640.668	-89.303	0.268	0.079
-639.653	668.230	0.029	0.076
-638.638	-49.955	0.345	-0.164
-637.624	-133.253	-0.197	-0.025
-636.609	2.294	-0.219	-0.158
-635.595	156.609	-0.098	0.136
-634.580	-200.000	0.024	0.288
-633.565	226.479	-0.003	0.005
-632.551	69.367	0.087	0.090
-631.536	-200.000	0.013	0.319
-630.522	-134.997	0.185	-0.022
-629.507	-200.000	-0.025	-0.151
-628.492	-104.062	-0.139	0.032
-627.478	-132.688	0.155	0.020
-626.463	-126.125	-0.197	-0.030
-625.449	-10.351	0.323	-0.214
-624.434	355.471	-0.112	-0.223
-623.419	-144.343	-0.274	-0.025
-622.405	800.000	-0.015	0.050
-621.390	69.228	-0.200	-0.206
-620.376	-185.553	-0.318	-0.005
-619.361	323.094	0.080	0.153
-618.346	38.172	0.112	-0.100
-617.332	-200.000	0.002	0.108
-616.317	800.000	-0.084	-0.241
-615.303	234.115	0.153	-0.252
-614.288	43.880	0.223	-0.204
-613.273	-200.000	0.016	-0.114
-612.259	29.307	-0.256	0.217
-611.244	-200.000	-0.002	-0.143
-610.230	199.639	-0.038	0.058
-609.215	-29.713	-0.141	-0.080
-608.201	34.858	-0.145	0.126
-607.186	40.471	0.017	-0.015
-606.171	409.063	0.089	-0.188
-605.157	352.663	-0.086	-0.171
-604.142	-92.792	-0.186	0.052
-603.128	-144.151	0.121	-0.011
-602.113	696.844	0.039	-0.102
-601.098	15.341	-0.226	0.177
-600.084	60.282	-0.134	0.132
-599.069	800.000	0.051	-0.139
-598.055	-107.609	0.149	-0.033
-597.040	-31.397	0.377	0.212
-596.025	-200.000	0.002	0.141
-595.011	71.117	0.040	-0.042
-593.996	33.896	-0.237	0.206
-592.982	-105.433	-0.172	0.039
-591.967	-175.406	-0.090	0.002
-590.952	73.625	-0.167	-0.175
-589.938	-128.308	-0.159	-0.023
-588.923	-1.357	-0.201	-0.141
-587.909	679.200	0.065	-0.170
-586.894	82.424	0.103	0.111
-585.879	281.227	-0.139	-0.248
-584.865	512.299	-0.117	-0.271
-583.850	90.603	0.188	-0.210
-582.836	244.029	-0.152	0.255
-581.821	-154.686	0.041	-0.003
-580.806	-96.009	-0.194	0.051
-579.792	-200.000	0.008	-0.260
-578.777	-82.032	-0.155	0.051
-577.763	241.183	0.091	-0.152
-576.748	-200.000	-0.030	-0.189
-575.733	-200.000	-0.014	0.143
-574.719	121.726	-0.220	0.274
-573.704	19.672	0.125	0.100
-572.690	165.647	-0.212	-0.299
-571.675	-200.000	0.021	0.117
-570.661	-191.615	0.202	-0.002
-569.646	92.798	-0.321	-0.362
-568.631	8.809	-0.159	0.119
-567.617	-26.297	-0.079	0.046
-566.602	104.821	0.059	0.069
-565.588	-71.940	-0.218	-0.081
-564.573	800.000	-0.102	0.287
-563.558	-200.000	-0.054	-0.267
-562.544	-172.246	-0.132	-0.004
-561.529	258.837	-0.236	-0.406
-560.515	-200.000	-0.036	-0.202
-559.500	439.955	-0.178	-0.387
-558.485	800.000	-0.067	0.232
-557.471	99.192	0.158	0.182
-556.456	300.037	0.042	0.076
-555.442	298.963	0.060	-0.109
-554.427	800.000	-0.007	-0.022
-553.412	-31.272	0.148	0.083
-552.398	-127.888	-0.392	0.056
-551.383	800.000	-0.079	-0.239
-550.369	-155.449	-0.252	0.016
-549.354	-200.000	-0.019	-0.130
-548.339	800.000	-0.043	0.173
-547.325	800.000	-0.113	0.361
-546.310	111.428	-0.134	-0.161
-545.296	-55.055	-0.301	0.135
-544.281	18.317	0.148	0.118
-543.266	-15.631	0.228	-0.145
-542.252	-12.773	0.303	0.197
-541.237	-123.139	0.233	-0.037
-540.223	-29.012	0.096	-0.055
-539.208	349.498	0.142	-0.279
-538.193	-200.000	-0.085	0.493
-537.179	-105.006	-0.274	-0.063
-536.164	19.136	-0.147	0.117
-535.150	269.603	0.049	-0.085
-534.135	-200.000	0.012	-0.199
-533.121	570.179	0.102	-0.247
-532.106	138.005	0.229	0.299
-531.091	175.311	-0.046	-0.067
-530.077	-167.562	0.211	0.008
-529.062	71.533	0.017	0.018
-528.048	-154.819	0.213	0.014
-527.033	10.376	0.407	0.309
-526.018	71.706	-0.306	0.316
-525.004	-66.861	-0.336	0.132
-523.989	800.000	0.052	-0.179
-522.975	-73.862	-0.115	0.042
-521.960	-0.181	0.089	0.063
-520.945	800.000	-0.055	0.154
-519.931	-182.315	-0.213	-0.004
-518.916	288.075	0.159	-0.286
-517.902	480.451	-0.074	-0.167
-516.887	-119.757	0.071	0.012
-515.872	301.098	0.173	0.318
-514.858	533.801	-0.028	0.066
-513.843	-180.798	-0.121	-0.002
-512.829	282.415	0.107	0.191
-511.814	-17.987	0.183	0.114
-510.799	48.350	-0.084	0.079
-509.785	-98.057	-0.285	0.073
-508.770	124.756	0.162	0.203
-507.756	-200.000	0.044	-0.215
-506.741	-15.191	-0.231	0.147
-505.726	538.733	-0.056	-0.132
-504.712	8.209	-0.205	0.153
-503.697	-200.000	0.047	0.215
-502.683	336.336	0.065	-0.126
-501.668	758.444	-0.138	0.372
-500.653	-200.000	0.005	0.072
-499.639	-39.577	0.093	0.048
-498.624	192.590	0.079	-0.119
-497.610	405.615	0.060	-0.126
-496.595	-44.958	-0.116	-0.058
-495.581	-200.000	0.009	0.077
-494.566	-200.000	0.005	0.067
-493.551	151.201	0.347	0.470
-492.537	-200.000	0.033	-0.188
-491.522	243.812	0.051	-0.085
-490.508	-113.018	-0.092	-0.018
-489.493	-200.000	0.026	0.201
-488.478	43.410	-0.067	0.060
-487.464	428.543	-0.114	-0.245
-486.449	-200.000	0.057	-0.442
-485.435	-67.135	-0.242	0.095
-484.420	20.991	0.150	0.121
-483.405	78.510	0.059	-0.062
-482.391	-157.880	-0.226	0.013
-481.376	-79.749	-0.162	-0.054
-480.362	-200.000	-0.019	-0.129
-479.347	-200.000	-0.273	-0.001
-478.332	-175.981	-0.104	0.003
-477.318	19.857	0.029	0.024
-476.303	800.000	-0.069	-0.271
-475.289	-200.000	-0.016	-0.351
-474.274	-200.000	-0.017	0.136
-473.259	-70.525	0.178	-0.067
-472.245	-69.541	0.077	-0.029
-471.230	-19.250	0.064	-0.039
-470.216	-200.000	-0.003	-0.038
-469.201	-60.571	-0.027	0.011
-468.186	-113.775	-0.069	0.013
-467.172	-77.364	0.375	-0.129
-466.157	27.286	-0.139	0.116
-465.143	-85.332	0.100	-0.031
-464.128	-148.858	0.298	0.024
-463.113	169.981	-0.017	-0.024
-462.099	-68.121	0.269	-0.104
-461.084	-48.962	-0.140	-0.067
-460.070	147.414	-0.030	0.040
-459.055	-71.369	-0.424	0.158
-458.040	227.844	0.076	0.123
-457.026	-123.935	0.345	-0.054
-456.011	56.658	0.057	0.055
-454.997	-200.000	0.025	-0.145
-453.982	800.000	-0.021	-0.065
-452.968	46.653	-0.084	0.078
-451.953	-59.557	-0.362	0.154
-450.938	-139.917	-0.249	-0.026
-449.924	-116.380	-0.099	-0.018
-448.909	-99.052	-0.244	-0.061
-447.895	8.541	0.057	0.042
-446.880	34.805	0.210	0.182
-445.865	446.627	0.113	-0.246
-444.851	-165.605	-0.074	-0.003
-443.836	-168.472	0.092	-0.003
-442.822	113.601	0.200	0.242
-441.807	89.151	-0.158	0.174
-440.792	800.000	-0.057	-0.211
-439.778	-144.293	0.015	0.001
-438.763	-76.378	0.142	0.050
-437.749	357.027	0.145	-0.286
-436.734	-200.000	0.062	-0.330
-435.719	108.439	0.114	0.134
-434.705	800.000	0.041	-0.159
-433.690	153.295	0.133	0.181
-432.676	347.444	0.062	0.122
-431.661	-0.014	-0.109	-0.077
-430.646	-56.957	-0.235	0.103
-429.632	-177.879	-0.252	0.006
-428.617	-34.262	0.282	0.154
-427.603	52.124	-0.108	-0.102
-426.588	166.402	0.084	-0.118
-425.573	384.434	0.005	0.011
-424.559	-16.743	0.063	0.040
-423.544	-122.482	-0.260	-0.042
-422.530	696.669	-0.116	0.302
-421.515	-200.000	0.037	-0.263
-420.500	-200.000	0.007	0.069
-419.486	526.687	-0.125	0.292
-418.471	-200.000	-0.007	0.258
-417.457	-200.000	0.038	-0.176
-416.442	-37.068	-0.161	-0.085
-415.428	11.894	0.094	-0.072
-414.413	726.649	0.123	-0.325
-413.398	-16.987	-0.023	0.014
-412.384	620.714	-0.115	-0.286
-411.369	-120.221	0.120	-0.020
-410.355	-56.915	0.081	-0.035
-409.340	239.302	-0.095	0.157
-408.325	149.491	-0.063	0.085
-407.311	110.511	-0.103	-0.123
-406.296	-57.090	-0.156	0.068
-405.282	-113.928	-0.151	-0.029
-404.267	47.159	-0.121	0.112
-403.252	800.000	-0.136	-0.467
-402.238	-121.505	-0.182	0.030
-401.223	800.000	0.110	0.315
-400.209	57.997	0.146	-0.142
-399.194	532.656	0.117	-0.274
-398.179	800.000	-0.100	-0.304
-397.165	-29.042	0.375	0.213
-396.150	84.749	0.109	-0.119
-395.136	184.658	0.271	0.398
-394.121	-200.000	-0.062	-0.330
-393.106	197.332	0.087	0.132
-392.092	-63.876	0.266	-0.108
-391.077	800.000	0.078	0.334
-390.063	-68.447	-0.050	-0.019
-389.048	12.278	0.176	0.134
-388.033	-42.602	0.141	-0.071
-387.019	20.920	0.200	-0.160
-386.004	17.164	0.212	0.167
-384.990	-98.705	-0.298	-0.075
-383.975	-17.135	-0.077	-0.048
-382.960	-104.658	0.077	-0.018
-381.946	82.892	-0.181	-0.195
-380.931	536.184	-0.051	0.120
-379.917	-200.000	-0.014	-0.105
-378.902	171.092	0.070	0.100
-377.888	-200.000	-0.029	-0.385
-376.873	172.708	0.063	0.089
-375.858	-67.853	0.035	0.013
-374.844	278.272	-0.138	-0.243
-373.829	-200.000	0.008	0.065
-372.815	800.000	-0.009	0.025
-371.800	9.368	-0.085	-0.064
-370.785	-183.947	0.272	-0.005
-369.771	-39.661	0.189	-0.098
-368.756	800.000	0.048	-0.204
-367.742	-43.012	0.314	0.158
-366.727	56.271	0.137	-0.132
-365.712	547.684	-0.060	-0.142
-364.698	562.636	-0.045	0.107
-363.683	159.953	0.253	-0.349
-362.669	455.702	-0.103	0.227
-361.654	10.749	0.302	-0.228
-360.639	285.382	0.160	-0.285
-359.625	-200.000	-0.054	0.275
-358.610	-38.208	-0.440	0.231
-357.596	180.036	0.146	-0.212
-356.581	-106.128	0.168	-0.037
-355.566	550.689	-0.145	-0.344
-354.552	7.867	-0.138	0.102
-353.537	76.753	-0.179	0.188
-352.523	-200.000	0.052	0.278
-351.508	800.000	-0.068	0.215
-350.493	-200.000	-0.003	-0.276
-349.479	-200.000	-0.001	-0.046
-348.464	-72.821	-0.099	-0.036
-347.450	106.151	-0.110	0.128
-346.435	-8.549	0.121	-0.080
-345.420	44.661	0.165	0.150
-344.406	-29.527	0.469	0.265
-343.391	45.324	-0.083	0.076
-342.377	-37.868	-0.294	-0.155
-341.362	180.118	0.117	0.169
-340.348	-104.424	-0.288	-0.066
-339.333	163.463	0.007	-0.009
-338.318	155.721	0.292	-0.398
-337.304	54.779	-0.196	-0.187
-336.289	-42.180	-0.308	-0.156
-335.275	-200.000	0.031	-0.214
-334.260	-88.604	0.116	-0.034
-333.245	-200.000	-0.038	-0.281
-332.231	146.892	-0.118	-0.157
-331.216	-76.424	0.236	-0.082
-330.202	-200.000	0.050	-0.395
-329.187	89.243	0.198	-0.218
-328.172	455.277	-0.017	0.037
-327.158	80.054	0.159	0.169
-326.143	-25.868	-0.239	-0.139
-325.129	295.369	0.071	0.129
-324.114	194.863	0.263	-0.394
-323.099	253.160	-0.019	-0.032
-322.085	683.364	0.096	0.248
-321.070	-200.000	-0.035	-0.162
-320.056	-47.645	-0.230	-0.110
-319.041	11.868	-0.055	-0.042
-318.026	-24.854	-0.105	-0.062
-317.012	-8.129	-0.127	0.084
-315.997	-200.000	-0.012	0.267
-314.983	55.923	-0.100	0.096
-313.968	-130.411	0.326	0.044
-312.953	-89.287	-0.180	0.052
-311.939	-200.000	0.011	-0.071
-310.924	92.423	-0.107	-0.119
-309.910	-156.188	0.244	0.015
-308.895	800.000	0.098	0.417
-307.880	-67.167	0.168	-0.065
-306.866	-166.360	0.098	-0.004
-305.851	-200.000	0.008	0.054
-304.837	800.000	-0.025	-0.083
-303.822	403.864	0.146	0.303
-302.807	139.112	-0.251	0.325
-301.793	1.984	0.105	0.075
-300.778	-80.881	-0.236	-0.077
-299.764	-26.166	0.323	0.187
-298.749	257.196	0.071	0.120
-297.735	-200.000	0.003	0.282
-296.720	-200.000	0.010	-0.096
-295.705	-156.643	0.365	0.022
-294.691	-30.839	-0.109	0.061
-293.676	800.000	-0.020	0.078
-292.662	27.831	0.226	0.188
-291.647	-15.683	-0.211	-0.133
-290.632	470.674	0.073	0.162
-289.618	10.244	0.189	-0.142
-288.603	10.996	0.157	-0.119
-287.589	-200.000	0.016	0.170
-286.574	257.085	-0.143	0.242
-285.559	-105.293	0.211	-0.047
-284.545	-200.000	-0.020	-0.117
-283.530	15.837	-0.083	-0.065
-282.516	-200.000	0.000	-0.478
-281.501	-200.000	0.044	0.276
-280.486	-143.374	-0.408	0.038
-279.472	-69.502	0.457	-0.173
-278.457	-34.885	0.184	0.099
-277.443	16.663	-0.138	0.108
-276.428	204.026	0.113	-0.172
-275.413	-73.338	-0.233	0.084
-274.399	-14.006	0.398	0.253
-273.384	18.092	0.210	0.165
-272.370	256.220	0.138	0.233
-271.355	-144.826	0.304	0.028
-270.340	-12.602	0.342	-0.220
-269.326	-81.344	-0.277	0.090
-268.311	-200.000	0.003	-0.036
-267.297	49.946	-0.291	-0.270
-266.282	355.189	0.196	0.384
-265.267	800.000	-0.080	0.259
-264.253	140.259	-0.106	-0.138
-263.238	-149.324	0.352	0.028
-262.224	-102.328	0.297	-0.070
-261.209	800.000	0.024	0.071
-260.195	-146.836	0.148	-0.013
-259.180	85.347	0.151	-0.163
-258.165	165.241	-0.187	-0.260
-257.151	-75.119	-0.083	0.029
-256.136	62.018	0.170	0.167
-255.122	763.158	0.085	0.229
-254.107	37.772	-0.033	-0.029
-253.092	-75.400	-0.224	-0.079
-252.078	-76.753	-0.176	-0.061
-251.063	-24.220	-0.118	-0.069
-250.049	48.784	-0.245	-0.226
-249.034	-42.852	0.112	0.056
-248.019	-40.713	0.187	0.095
-247.005	52.277	-0.195	-0.183
-245.990	-200.000	0.009	0.121
-244.976	40.478	0.085	-0.075
-243.961	-69.657	-0.114	0.043
-242.946	220.897	0.134	0.211
-241.932	-155.240	-0.108	-0.007
-240.917	-48.982	0.066	-0.031
-239.903	237.414	0.019	-0.031
-238.888	57.616	-0.169	0.163
-237.873	23.090	0.126	0.102
-236.859	-200.000	-0.012	0.250
-235.844	-200.000	0.007	-0.120
-234.830	-95.911	-0.016	0.004
-233.815	-157.797	0.227	0.013
-232.800	-200.000	-0.097	-0.540
-231.786	-200.000	-0.042	-0.297
-230.771	38.523	0.225	0.198
-229.757	-200.000	-0.030	-0.201
-228.742	110.085	0.157	0.186
-227.727	-74.595	-0.342	0.121
-226.713	-200.000	0.025	0.260
-225.698	-84.259	0.487	0.152
-224.684	-46.281	-0.144	-0.070
-223.669	84.439	-0.324	0.348
-222.655	-31.898	0.212	-0.117
-221.640	-159.852	0.309	0.017
-220.625	-200.000	0.003	0.451
-219.611	16.245	0.219	-0.170
-218.596	-100.337	0.072	0.018
-217.582	347.397	0.171	-0.332
-216.567	-143.495	-0.415	0.039
-215.552	-11.052	0.208	-0.135
-214.538	540.497	0.060	-0.140
-213.523	14.730	0.193	0.149
-212.509	220.422	0.121	-0.191
-211.494	-200.000	-0.022	-0.280
-210.479	-200.000	-0.059	0.319
-209.465	104.048	0.215	-0.249
-208.450	-165.902	0.065	-0.003
-207.436	-84.366	-0.063	0.020
-206.421	174.331	-0.054	-0.077
-205.406	300.166	0.151	0.274
-204.392	-56.198	0.134	-0.059
-203.377	-51.963	-0.112	-0.051
-202.363	792.668	-0.055	-0.148
-201.348	-65.009	-0.145	0.058
-200.333	330.477	-0.163	0.309
-199.319	-37.494	0.125	0.065
-198.304	784.839	-0.054	0.145
-197.290	-81.251	-0.219	-0.071
-196.275	800.000	-0.104	0.289
-195.260	-47.344	-0.130	0.062
-194.246	-111.457	0.233	0.047
-193.231	-200.000	-0.015	0.196
-192.217	-200.000	-0.024	0.129
-191.202	-200.000	0.021	0.198
-190.187	-93.567	0.191	-0.052
-189.173	-7.177	0.081	-0.054
-188.158	-200.000	-0.070	-0.422
-187.144	800.000	0.081	0.308
-186.129	39.794	-0.301	0.265
-185.114	-10.403	-0.376	0.245
-184.100	159.113	-0.091	-0.124
-183.085	504.397	0.174	-0.396
-182.071	800.000	0.059	0.240
-181.056	324.312	0.122	0.229
-180.042	4.319	0.234	0.169
-179.027	-192.769	-0.157	-0.001
-178.012	103.323	-0.076	0.088
-176.998	10.356	-0.138	0.103
-175.983	-131.812	0.185	0.024
-174.969	-122.366	-0.288	0.046
-173.954	800.000	-0.127	0.357
-172.939	715.764	-0.031	0.081
-171.925	78.560	-0.129	-0.135
-170.910	-200.000	0.017	0.121
-169.896	-113.054	-0.417	-0.081
-168.881	-200.000	-0.007	0.056
-167.866	-100.442	-0.040	-0.010
-166.852	66.435	0.030	-0.030
-165.837	346.665	-0.172	-0.333
-164.823	125.520	-0.180	-0.223
-163.808	175.317	-0.062	0.088
-162.793	-181.564	0.214	-0.004
-161.779	-200.000	-0.028	-0.226
-160.764	-10.539	-0.025	-0.016
-159.750	-82.620	0.206	0.066
-158.735	521.954	0.057	0.132
-157.720	-97.987	-0.386	0.098
-156.706	-65.006	-0.418	-0.166
-155.691	-77.033	0.353	0.121
-154.677	12.015	0.050	-0.038
-153.662	-138.164	-0.193	0.021
-152.647	197.020	-0.141	0.212
-151.633	800.000	-0.080	0.240
-150.618	800.000	-0.047	-0.141
-149.604	37.081	0.146	-0.127
-148.589	42.121	0.086	0.077
-147.574	228.758	-0.177	-0.284
-146.560	-200.000	0.012	-0.084
-145.545	-200.000	-0.002	0.058
-144.531	800.000	-0.014	-0.041
-143.516	-133.634	-0.161	0.020
-142.502	24.144	0.241	-0.195
-141.487	401.829	-0.119	-0.246
-140.472	-56.917	0.083	0.036
-139.458	-132.448	0.164	-0.021
-138.443	-76.599	0.241	-0.083
-137.429	800.000	-0.048	-0.169
-136.414	56.633	-0.212	-0.202
-135.399	-157.110	0.267	0.016
-134.385	680.873	-0.106	-0.271
-133.370	107.067	-0.038	0.044
-132.356	-182.724	-0.179	-0.003
-131.341	109.319	0.277	0.325
-130.326	12.236	0.138	0.104
-129.312	17.405	0.143	-0.111
-128.297	21.863	-0.247	0.198
-127.283	-105.618	-0.211	-0.047
-126.268	105.098	-0.089	-0.102
-125.253	74.548	-0.305	-0.314
-124.239	130.573	0.101	-0.127
-123.224	-127.906	-0.155	-0.022
-122.210	-102.020	0.220	0.052
-121.195	209.027	0.099	-0.152
-120.180	29.909	0.244	0.204
-119.166	-200.000	0.000	-0.106
-118.151	-41.504	0.423	-0.213
-117.137	800.000	-0.056	0.152
-116.122	281.389	-0.108	0.189
-115.107	800.000	0.076	0.288
-114.093	31.063	-0.168	0.141
-113.078	-200.000	0.015	0.225
-112.064	64.713	-0.132	-0.130
-111.049	-17.625	-0.175	0.108
-110.034	266.148	0.100	0.170
-109.020	262.374	-0.043	-0.072
-108.005	1.192	0.150	-0.105
-106.991	13.474	-0.281	-0.213
-105.976	-79.993	0.351	-0.115
-104.962	800.000	0.025	-0.090
-103.947	-22.403	-0.113	-0.067
-102.932	-25.576	0.243	0.141
-101.918	4.322	-0.140	-0.101
-100.903	12.991	0.207	0.157
-99.889	-32.226	0.207	0.113
-98.874	-122.454	-0.124	0.020
-97.859	-142.810	0.202	0.019
-96.845	-200.000	-0.042	0.284
-95.830	-200.000	0.021	0.223
-94.816	27.343	-0.133	-0.109
-93.801	-36.882	-0.062	-0.033
-92.786	-65.021	0.235	-0.093
-91.772	-76.521	0.064	0.022
-90.757	295.845	0.116	-0.209
-89.743	494.144	0.074	-0.167
-88.728	186.265	0.139	-0.203
-87.713	8.809	0.189	0.139
-86.699	-200.000	0.047	-0.250
-85.684	-200.000	-0.013	0.152
-84.670	-200.000	0.039	0.321
-83.655	800.000	0.124	-0.418
-82.640	800.000	-0.068	0.208
-81.626	-130.582	-0.145	0.019
-80.611	-76.207	-0.245	-0.084
-79.597	271.652	-0.067	-0.116
-78.582	-200.000	-0.019	-0.140
-77.567	800.000	-0.047	-0.149
-76.553	596.155	-0.081	-0.197
-75.538	-25.844	0.168	-0.097
-74.524	-30.462	0.154	0.085
-73.509	-200.000	0.031	-0.235
-72.494	44.101	-0.188	0.169
-71.480	317.538	0.179	-0.332
-70.465	-200.000	0.028	0.139
-69.451	413.024	-0.141	0.294
-68.436	-200.000	0.024	-0.386
-67.422	-112.672	0.351	0.068
-66.407	-73.958	0.145	0.051
-65.392	-90.441	-0.342	-0.097
-64.378	-75.548	0.227	-0.079
-63.363	-80.715	-0.122	-0.040
-62.349	111.981	-0.090	-0.106
-61.334	76.919	-0.973	-1.010
-60.319	77.246	0.618	0.642
-59.305	-200.000	-0.134	-1.379
-58.290	511.858	0.585	1.331
-57.276	468.096	0.735	1.611
-56.261	-200.000	115.852	647.286
-55.246	514.328	1536.708	3504.620
-54.232	174.343	2719.751	3842.754
-53.217	100.183	2300.647	2607.859
-52.203	35.755	1906.416	1637.713
-51.188	29.722	1697.166	1411.986
-50.173	27.259	1655.514	1358.903
-49.159	48.061	1711.732	1563.625
-48.144	46.710	1725.011	1565.443
-47.130	29.300	1682.923	1396.717
-46.115	26.717	1668.485	1365.248
-45.100	26.574	1663.688	1360.198
-44.086	26.521	1661.154	1357.673
-43.071	26.553	1658.048	1355.318
-42.057	26.493	1655.915	1353.072
-41.042	26.495	1654.405	1351.800
-40.027	26.500	1652.102	1349.907
-39.013	26.459	1650.160	1347.957
-37.998	26.403	1648.602	1346.214
-36.984	26.497	1647.462	1345.930
-35.969	26.596	1645.945	1345.374
-34.954	26.610	1644.205	1343.999
-33.940	26.548	1642.763	1342.312
-32.925	26.604	1640.576	1340.884
-31.911	26.597	1639.231	1339.681
-30.896	26.579	1637.196	1337.828
-29.881	26.648	1635.728	1337.088
-28.867	26.553	1634.833	1335.602
-27.852	26.561	1633.286	1334.343
-26.838	26.720	1630.786	1333.420
-25.823	26.691	1629.367	1331.994
-24.809	26.747	1627.874	1331.130
-23.794	26.658	1627.558	1330.166
-22.779	26.637	1625.722	1328.458
-21.765	26.607	1623.931	1326.719
-20.750	26.616	1622.249	1325.363
-19.736	26.596	1620.610	1323.824
-18.721	26.676	1619.594	1323.522
-17.706	26.690	1618.134	1322.379
-16.692	26.618	1616.804	1320.720
-15.677	26.645	1615.643	1319.915
-14.663	26.695	1614.250	1319.086
-13.648	26.580	1613.125	1317.279
-12.633	26.713	1610.990	1316.447
-11.619	26.730	1609.123	1314.993
-10.604	26.793	1607.484	1314.062
-9.590	26.695	1606.116	1312.182
-8.575	26.672	1605.297	1311.288
-7.560	26.710	1604.114	1310.547
-6.546	26.753	1602.425	1309.428
-5.531	26.603	1601.644	1307.652
-4.517	26.633	1600.700	1307.048
-3.502	26.533	1599.976	1305.679
-2.487	26.735	1597.565	1305.118
-1.473	26.373	1586.412	1293.367
-0.458	23.648	1566.695	1257.958
0.556	21.124	1569.018	1227.886
1.571	18.918	1593.229	1230.943
2.586	18.478	1606.611	1237.993
3.600	16.426	1550.911	1180.650
4.615	9.720	1442.919	1054.615
5.629	4.223	1383.515	976.558
6.644	3.328	1377.235	966.429
7.659	3.296	1375.388	964.847
8.673	3.322	1374.609	964.375
9.688	3.224	1373.077	962.605
10.702	3.338	1369.828	960.953
11.717	5.762	1374.373	979.212
12.731	13.002	1387.737	1034.165
13.746	18.957	1397.474	1078.797
14.761	20.291	1398.729	1088.047
15.775	19.699	1396.693	1082.653
16.790	18.666	1394.089	1074.083
17.804	17.958	1391.931	1067.898
18.819	17.613	1390.272	1064.378
19.834	17.368	1389.657	1062.282
20.848	17.193	1388.401	1060.136
21.863	17.007	1387.372	1058.092
22.877	16.886	1385.998	1056.201
23.892	16.953	1384.631	1055.483
24.907	16.871	1383.818	1054.260
25.921	16.859	1382.763	1053.284
26.936	16.896	1382.144	1052.949
27.950	16.893	1380.984	1051.959
28.965	17.122	1380.094	1052.604
29.980	17.203	1378.757	1051.993
30.994	17.189	1377.857	1051.125
32.009	17.261	1376.779	1050.656
33.023	17.219	1375.805	1049.563
34.038	17.171	1374.674	1048.308
35.053	17.018	1373.267	1046.200
36.067	17.004	1372.474	1045.418
37.082	16.969	1370.970	1043.964
38.096	17.074	1370.416	1044.098
39.111	17.116	1369.753	1043.756
40.126	16.945	1368.905	1041.966
41.140	16.868	1366.964	1039.926
42.155	16.780	1367.097	1039.392
43.169	16.631	1367.038	1038.344
44.184	16.717	1366.324	1038.238
45.199	16.766	1365.442	1037.773
46.213	16.788	1365.249	1037.669
47.228	16.822	1365.074	1037.651
48.242	16.983	1363.559	1037.392
49.257	16.980	1361.733	1035.898
50.271	16.942	1360.632	1034.735
51.286	16.973	1358.678	1033.345
52.301	17.025	1357.617	1032.765
53.315	16.922	1356.799	1031.424
54.330	16.808	1355.492	1029.646
55.344	16.795	1354.127	1028.441
56.359	16.721	1353.388	1027.339
57.374	16.817	1352.303	1027.008
58.388	16.719	1351.353	1025.600
59.403	16.724	1350.999	1025.273
60.417	16.624	1350.156	1023.935
61.432	16.612	1349.559	1023.320
62.447	16.537	1348.704	1022.129
63.461	16.542	1347.081	1020.836
64.476	16.539	1345.804	1019.763
65.490	16.504	1344.588	1018.538
66.505	16.539	1343.026	1017.477
67.520	16.541	1342.036	1016.649
68.534	16.605	1341.206	1016.317
69.549	16.587	1340.033	1015.228
70.563	16.520	1339.024	1013.970
71.578	16.443	1337.743	1012.449
72.593	16.346	1336.869	1011.117
73.607	16.352	1336.579	1010.843
74.622	16.372	1335.523	1010.079
75.636	16.492	1334.527	1009.952
76.651	16.374	1334.347	1009.023
77.666	16.555	1333.403	1009.298
78.680	16.499	1333.455	1008.915
79.695	16.613	1332.573	1008.835
80.709	16.628	1331.642	1008.133
81.724	16.703	1330.938	1007.954
82.739	16.815	1330.036	1007.850
83.753	16.931	1329.367	1007.942
84.768	16.978	1328.305	1007.328
85.782	17.112	1327.473	1007.402
86.797	17.028	1326.251	1005.890
87.812	16.930	1324.913	1004.205
88.826	16.917	1324.035	1003.377
89.841	17.034	1322.347	1002.700
90.855	17.165	1321.478	1002.722
91.870	17.081	1321.175	1001.906
92.884	17.160	1319.865	1001.294
93.899	17.134	1319.376	1000.680
94.914	17.209	1318.248	1000.176
95.928	17.129	1317.917	999.369
96.943	17.010	1317.103	997.963
97.957	17.077	1315.966	997.403
98.972	17.039	1314.853	996.252
99.987	17.008	1313.786	995.171
101.001	17.110	1312.918	995.022
102.016	17.106	1311.806	994.072
103.030	17.126	1310.634	993.208
104.045	17.162	1309.768	992.677
105.060	16.961	1308.590	990.523
106.074	16.838	1306.983	988.503
107.089	16.579	1305.695	985.929
108.103	16.574	1304.597	984.984
109.118	16.594	1303.238	983.988
110.133	16.613	1301.850	982.965
111.147	16.575	1300.609	981.720
112.162	16.823	1298.829	981.725
113.176	16.793	1297.821	980.705
114.191	16.805	1297.156	980.182
115.206	16.747	1296.334	979.141
116.220	16.654	1295.037	977.538
117.235	16.719	1293.852	976.933
118.249	16.641	1292.862	975.644
119.264	16.612	1291.455	974.333
120.279	16.434	1290.761	972.698
121.293	16.634	1288.798	972.283
122.308	16.582	1287.974	971.277
123.322	16.609	1286.613	970.318
124.337	16.469	1286.313	969.201
125.352	16.391	1285.079	967.741
126.366	16.452	1283.955	967.155
127.381	16.387	1283.074	966.036
128.395	16.398	1282.201	965.356
129.410	16.647	1281.006	965.793
130.424	16.584	1280.508	964.972
131.439	16.731	1279.160	964.712
132.454	16.729	1278.314	963.973
133.468	16.730	1277.901	963.583
134.483	16.673	1276.935	962.443
135.497	16.773	1276.178	962.359
136.512	16.745	1274.927	961.172
137.527	16.849	1272.954	960.187
138.541	16.815	1271.901	959.116
139.556	16.870	1270.550	958.322
140.570	16.945	1269.752	958.060
141.585	16.975	1269.109	957.661
142.600	17.010	1267.743	956.744
143.614	17.102	1267.060	956.661
144.629	17.084	1265.944	955.629
145.643	17.119	1264.524	954.670
146.658	17.065	1262.914	953.070
147.673	16.928	1261.728	951.323
148.687	16.853	1260.602	949.969
149.702	16.813	1259.642	948.938
150.716	16.747	1258.048	947.280
151.731	16.782	1257.144	946.713
152.746	16.888	1255.761	946.179
153.760	16.847	1254.894	945.212
154.775	16.949	1253.878	944.935
155.789	16.988	1252.310	943.887
156.804	16.972	1251.649	943.214
157.819	17.036	1251.006	943.000
158.833	17.138	1249.951	942.687
159.848	17.215	1248.906	942.242
160.862	17.304	1247.950	941.932
161.877	16.956	1246.690	938.973
162.892	16.896	1245.933	937.989
163.906	16.802	1244.742	936.490
164.921	16.817	1244.278	936.141
165.935	17.029	1243.550	936.680
166.950	17.030	1242.776	936.019
167.964	17.087	1241.705	935.442
168.979	17.027	1240.991	934.490
169.994	17.018	1240.280	933.826
171.008	16.958	1239.680	932.962
172.023	17.111	1239.092	933.277
173.037	17.183	1237.786	932.606
174.052	17.236	1236.805	932.076
175.067	16.963	1235.891	929.805
176.081	16.975	1234.936	929.069
177.096	16.969	1233.769	928.081
178.110	17.007	1232.744	927.433
179.125	17.028	1231.678	926.662
180.140	17.075	1230.233	925.752
181.154	17.124	1229.078	925.066
182.169	17.230	1228.106	924.831
183.183	17.299	1226.954	924.256
184.198	17.300	1225.994	923.459
185.213	17.289	1224.309	922.044
186.227	17.355	1223.849	921.976
187.242	17.328	1222.854	920.999
188.256	17.515	1221.433	920.857
189.271	17.443	1220.914	919.999
190.286	17.326	1219.651	918.331
191.300	17.049	1218.361	915.784
192.315	16.918	1217.989	914.716
193.329	16.902	1217.302	914.035
194.344	17.046	1216.592	914.196
195.359	17.263	1215.531	914.485
196.373	17.218	1215.885	914.429
197.388	17.459	1214.898	914.902
198.402	17.530	1214.772	915.108
199.417	17.546	1214.172	914.660
200.432	17.692	1213.254	914.673
201.446	17.728	1212.897	914.512
202.461	17.704	1211.806	913.480
203.475	17.733	1210.872	912.853
204.490	17.530	1209.190	910.418
205.504	17.486	1208.377	909.492
206.519	17.455	1207.100	908.286
207.534	17.556	1205.311	907.394
208.548	17.457	1204.816	906.417
209.563	17.528	1204.013	906.107
210.577	17.541	1202.847	905.222
211.592	17.587	1202.464	905.097
212.607	17.665	1201.472	904.682
213.621	17.678	1200.241	903.743
214.636	17.729	1199.332	903.253
215.650	17.608	1198.762	902.101
216.665	17.751	1197.866	902.102
217.680	17.758	1197.197	901.554
218.694	17.889	1195.830	901.140
219.709	17.920	1195.430	900.920
220.723	17.736	1194.946	899.508
221.738	17.784	1193.854	898.859
222.753	17.817	1193.165	898.434
223.767	17.792	1192.377	897.629
224.782	17.890	1191.881	897.692
225.796	17.894	1191.915	897.660
226.811	17.936	1190.919	897.050
227.826	17.894	1189.586	895.746
228.840	17.714	1189.062	894.329
229.855	17.781	1188.496	894.173
230.869	17.712	1187.937	893.315
231.884	17.832	1186.309	892.638
232.899	17.750	1185.512	891.530
233.913	17.697	1184.922	890.734
234.928	17.589	1184.398	889.693
235.942	17.657	1183.590	889.363
236.957	17.609	1182.835	888.466
237.972	17.545	1182.207	887.584
238.986	17.662	1181.259	887.401
240.001	17.691	1180.940	887.233
241.015	17.693	1180.040	886.492
242.030	17.924	1178.641	886.560
243.045	17.779	1178.511	885.632
244.059	17.804	1177.357	884.818
245.074	17.982	1176.663	885.138
246.088	17.906	1175.840	884.048
247.103	17.999	1175.263	884.018
248.117	18.135	1174.700	884.221
249.132	18.262	1173.904	884.197
250.147	18.369	1173.614	884.452
251.161	18.456	1172.671	884.111
252.176	18.561	1171.823	883.936
253.190	18.545	1171.347	883.419
254.205	18.624	1170.820	883.349
255.220	18.590	1170.170	882.606
256.234	18.578	1169.645	882.068
257.249	18.583	1168.834	881.404
258.263	18.683	1167.747	881.023
259.278	18.579	1167.559	880.266
260.293	18.573	1167.065	879.788
261.307	18.768	1166.547	880.317
262.322	18.705	1165.873	879.409
263.336	18.776	1164.885	878.950
264.351	18.677	1164.676	878.206
265.366	18.711	1164.086	877.856
266.380	18.742	1163.256	877.312
267.395	18.570	1162.386	875.700
268.409	18.574	1161.306	874.830
269.424	18.547	1160.861	874.278
270.439	18.533	1160.440	873.815
271.453	18.569	1159.353	873.102
272.468	18.467	1158.437	871.817
273.482	18.495	1157.988	871.545
274.497	18.526	1157.194	871.025
275.512	18.503	1156.512	870.321
276.526	18.579	1156.004	870.246
277.541	18.583	1154.958	869.399
278.555	18.695	1154.018	869.185
279.570	18.772	1153.225	868.900
280.585	18.810	1152.605	868.545
281.599	18.802	1151.986	867.965
282.614	18.713	1151.051	866.731
283.628	18.688	1149.639	865.469
284.643	18.752	1148.768	865.058
285.657	18.722	1148.329	864.501
286.672	18.575	1147.673	863.189
287.687	18.756	1146.080	862.824
288.701	18.806	1145.134	862.284
289.716	18.845	1144.755	862.120
290.730	18.705	1144.402	861.073
291.745	18.815	1143.311	860.730
292.760	18.827	1142.829	860.350
293.774	18.830	1142.532	860.066
294.789	18.971	1142.111	860.377
295.803	18.963	1141.013	859.434
296.818	18.838	1140.365	858.249
297.833	18.911	1139.575	857.942
298.847	18.884	1137.887	856.458
299.862	18.926	1137.390	856.218
300.876	18.950	1137.085	856.033
301.891	18.893	1136.796	855.457
302.906	19.031	1136.086	855.534
303.920	19.135	1135.135	855.255
304.935	19.195	1134.690	855.146
305.949	19.233	1134.205	854.891
306.964	19.282	1133.375	854.433
307.979	19.197	1132.281	853.113
308.993	19.176	1131.699	852.496
310.008	19.229	1130.818	852.016
311.022	19.240	1130.391	851.673
312.037	19.302	1129.179	850.993
313.052	19.112	1128.216	849.251
314.066	19.034	1127.560	848.301
315.081	18.956	1126.548	847.077
316.095	19.022	1125.697	846.690
317.110	18.935	1124.786	845.500
318.125	19.049	1124.270	845.597
319.139	19.004	1123.591	844.793
320.154	19.018	1122.517	843.981
321.168	19.037	1122.434	843.933
322.183	18.996	1121.499	842.956
323.197	19.093	1120.720	842.772
324.212	19.178	1120.047	842.605
325.227	19.098	1119.754	841.920
326.241	19.094	1119.081	841.320
327.256	19.129	1118.002	840.606
328.270	19.178	1116.675	839.770
329.285	19.012	1116.079	838.441
330.300	19.119	1115.487	838.444
331.314	19.112	1114.153	837.333
332.329	19.171	1112.977	836.661
333.343	19.182	1112.868	836.557
334.358	19.295	1111.829	836.253
335.373	19.404	1111.114	836.168
336.387	19.357	1110.483	835.389
337.402	19.263	1109.816	834.360
338.416	19.454	1108.992	834.593
339.431	19.473	1108.289	834.081
340.446	19.628	1107.863	834.432
341.460	19.615	1107.176	833.780
342.475	19.720	1106.477	833.687
343.489	19.622	1105.822	832.649
344.504	19.821	1104.469	832.515
345.519	19.707	1104.246	831.721
346.533	19.846	1102.985	831.368
347.548	19.961	1102.592	831.549
348.562	19.989	1101.513	830.795
349.577	19.728	1100.515	828.717
350.592	19.568	1100.158	827.611
351.606	19.506	1099.299	826.595
352.621	19.423	1098.667	825.648
353.635	19.385	1097.801	824.742
354.650	19.418	1097.060	824.270
355.665	19.554	1096.810	824.662
356.679	19.551	1095.655	823.706
357.694	19.694	1095.133	823.920
358.708	19.678	1094.573	823.350
359.723	19.782	1093.886	823.255
360.738	19.644	1093.548	822.273
361.752	19.675	1092.906	821.861
362.767	19.750	1092.253	821.657
363.781	19.745	1091.862	821.265
364.796	19.940	1091.208	821.626
365.810	19.912	1090.824	821.133
366.825	19.989	1090.398	821.102
367.840	20.181	1089.590	821.330
368.854	20.203	1088.874	820.825
369.869	20.230	1088.300	820.448
370.883	20.016	1087.655	818.876
371.898	20.006	1086.788	818.104
372.913	20.046	1085.813	817.486
373.927	20.117	1085.581	817.573
374.942	20.202	1084.946	817.425
375.956	20.117	1084.365	816.514
376.971	20.111	1083.648	815.870
377.986	20.144	1083.270	815.671
379.000	20.269	1082.484	815.597
380.015	20.353	1082.228	815.725
381.029	20.386	1081.565	815.309
382.044	20.370	1080.880	814.646
383.059	20.375	1079.680	813.690
384.073	20.271	1079.216	812.782
385.088	20.422	1078.076	812.560
386.102	20.302	1077.510	811.499
387.117	20.321	1075.989	810.370
388.132	20.104	1075.579	808.978
389.146	20.114	1074.308	807.997
390.161	20.066	1073.808	807.323
391.175	20.217	1072.602	807.051
392.190	20.267	1072.207	806.911
393.205	20.416	1071.796	807.226
394.219	20.325	1070.831	806.002
395.234	20.321	1070.080	805.349
396.248	20.348	1068.870	804.492
397.263	20.212	1067.591	802.831
398.278	20.199	1067.039	802.285
399.292	20.088	1066.584	801.358
400.307	20.065	1065.595	800.438
401.321	20.003	1065.399	799.934
402.336	20.194	1064.488	800.056
403.350	20.117	1063.770	799.094
404.365	20.132	1063.346	798.774
405.380	20.255	1062.332	798.506
406.394	20.236	1061.608	797.803
407.409	20.385	1060.851	797.851
408.423	20.582	1060.155	798.161
409.438	20.501	1060.125	797.696
410.453	20.614	1059.244	797.480
411.467	20.599	1058.352	796.669
412.482	20.729	1057.679	796.685
413.496	20.762	1057.098	796.328
414.511	20.738	1056.729	795.873
415.526	20.898	1056.200	796.133
416.540	20.977	1055.991	796.266
417.555	20.884	1055.112	795.107
418.569	20.891	1054.460	794.581
419.584	20.674	1054.522	793.567
420.599	20.745	1053.913	793.362
421.613	155.279	1404.962	1797.015
422.628	142.507	1456.074	1797.116
