DTS Sentinel unit serial number:	SN413079Multiplexer serial number:	ORYXHardware model number:	OX4-SRSoftware version number:	ORYX F/W v4.00 Oryx Data Collector v3.7.2.0data status	okinstallation	princeton_trtdifferential loss correction	single-endedforward channel	channel 2reverse channel	N/Adate	2019/09/13time	07:43:34forward acquisition time	60.00reverse acquisition time	0.00gamma	496.2192k internal	0.2336k external	0.2336temperature offset calibration	1.0196default loss term (dB/km)	0.3790temperature slope calibration	1.0000multiplexer offset coefficient	1.0000multiplexer slope coefficient	1.0000fibre end	0.00T internal ref (°C)	26.44T ext. ref 1 (°C)	4.22T ext. ref 2 (°C)	22.67length (m)	temperature (°C)	Stokes	anti-Stokes-747.200	88.064	0.193	-0.215
-746.185	19.105	-0.057	0.046
-745.171	800.000	0.024	0.096
-744.156	475.975	-0.017	0.038
-743.142	800.000	-0.038	0.113
-742.127	-122.926	-0.169	-0.027
-741.112	247.838	-0.162	0.276
-740.098	800.000	0.049	-0.156
-739.083	-79.012	-0.065	0.022
-738.069	278.981	-0.035	-0.063
-737.054	462.508	-0.068	0.152
-736.039	105.212	-0.166	-0.196
-735.025	93.563	0.046	-0.052
-734.010	-200.000	-0.005	0.040
-732.996	-200.000	-0.030	-0.365
-731.981	-66.595	-0.229	-0.091
-730.966	-155.924	-0.176	0.011
-729.952	-97.288	0.311	-0.081
-728.937	-200.000	-0.059	0.303
-727.923	-164.308	-0.330	0.015
-726.908	-48.077	-0.355	-0.172
-725.894	-118.543	0.142	-0.025
-724.879	800.000	-0.025	-0.106
-723.864	113.211	-0.155	-0.189
-722.850	233.182	-0.177	-0.292
-721.835	-23.138	-0.063	-0.038
-720.821	-90.721	0.069	-0.020
-719.806	360.402	-0.268	-0.539
-718.791	117.451	0.063	0.078
-717.777	-107.436	0.266	-0.059
-716.762	-41.318	0.090	0.047
-715.748	-11.771	0.143	0.094
-714.733	74.431	0.275	-0.290
-713.718	131.971	-0.101	-0.131
-712.704	-158.844	-0.285	-0.016
-711.689	-200.000	0.026	-0.158
-710.675	-200.000	0.098	-0.486
-709.660	164.660	0.186	-0.263
-708.645	95.374	-0.231	-0.264
-707.631	31.812	-0.200	-0.173
-706.616	-39.281	0.308	-0.162
-705.602	132.450	0.167	-0.215
-704.587	524.298	0.115	-0.272
-703.572	-62.636	-0.399	0.166
-702.558	-200.000	0.012	0.059
-701.543	-148.364	-0.053	-0.004
-700.529	39.864	0.164	0.147
-699.514	-161.219	0.337	0.018
-698.499	-114.697	-0.432	-0.083
-697.485	405.558	-0.112	0.236
-696.470	100.187	0.101	-0.118
-695.456	127.841	0.082	0.104
-694.441	655.057	-0.059	-0.152
-693.426	165.755	0.055	-0.079
-692.412	684.505	0.171	-0.448
-691.397	147.772	0.214	-0.289
-690.383	125.308	-0.086	-0.109
-689.368	-108.652	-0.133	0.029
-688.354	800.000	0.015	-0.053
-687.339	800.000	-0.060	0.185
-686.324	705.205	0.053	-0.141
-685.310	-131.494	-0.192	-0.025
-684.295	74.063	0.121	-0.127
-683.281	-200.000	-0.023	0.142
-682.266	-52.634	-0.335	-0.155
-681.251	-137.450	-0.150	-0.017
-680.237	-137.570	0.211	0.024
-679.222	-39.742	0.023	0.012
-678.208	-63.684	0.323	-0.133
-677.193	-151.535	-0.455	0.034
-676.178	645.499	-0.039	-0.101
-675.164	-59.998	-0.271	0.116
-674.149	-145.167	-0.199	0.018
-673.135	-121.586	-0.250	-0.042
-672.120	800.000	0.127	0.416
-671.105	-51.279	0.142	0.066
-670.091	-200.000	0.002	0.130
-669.076	-69.621	-0.162	0.062
-668.062	141.031	0.092	-0.121
-667.047	-200.000	-0.006	-0.138
-666.032	-120.844	0.273	0.046
-665.018	-117.184	-0.339	-0.062
-664.003	320.660	-0.100	-0.190
-662.989	-106.913	-0.339	-0.075
-661.974	-200.000	-0.023	0.114
-660.959	-101.372	-0.206	0.050
-659.945	-200.000	0.049	-0.282
-658.930	50.227	0.297	-0.281
-657.916	4.181	0.170	-0.125
-656.901	41.418	-0.260	-0.235
-655.886	-4.375	0.174	-0.121
-654.872	35.011	0.035	0.030
-653.857	-200.000	0.017	0.151
-652.843	60.779	-0.174	-0.173
-651.828	-8.574	-0.061	0.041
-650.814	-146.262	0.124	-0.011
-649.799	-200.000	0.015	-0.335
-648.784	800.000	-0.083	-0.312
-647.770	-140.055	0.149	-0.016
-646.755	-78.939	0.163	0.055
-645.741	-200.000	0.052	0.277
-644.726	-49.262	-0.317	-0.151
-643.711	800.000	0.101	-0.322
-642.697	-8.021	0.449	0.303
-641.682	40.494	-0.051	0.046
-640.668	-79.233	0.069	-0.023
-639.653	-11.143	-0.290	-0.191
-638.638	-71.134	0.142	0.053
-637.624	-79.488	-0.131	-0.044
-636.609	-169.776	0.072	-0.003
-635.595	-1.055	-0.110	0.078
-634.580	-157.149	-0.016	-0.001
-633.565	86.503	0.183	0.202
-632.551	-65.481	-0.209	0.084
-631.536	-39.939	0.407	-0.213
-630.522	18.646	0.012	-0.009
-629.507	-129.306	-0.131	-0.018
-628.492	-119.586	-0.199	-0.034
-627.478	-24.945	0.075	0.045
-626.463	52.409	-0.116	-0.111
-625.449	-56.142	-0.231	-0.103
-624.434	-200.000	0.031	-0.275
-623.419	-68.429	0.071	0.028
-622.405	34.826	0.200	-0.174
-621.390	800.000	-0.014	0.044
-620.376	8.168	0.224	0.168
-619.361	-69.708	0.264	0.101
-618.346	349.178	0.052	0.102
-617.332	159.442	0.118	0.165
-616.317	-31.963	0.138	-0.077
-615.303	-87.512	-0.092	-0.028
-614.288	800.000	-0.060	-0.167
-613.273	-53.501	0.245	-0.112
-612.259	-132.117	-0.174	0.023
-611.244	-115.119	-0.422	-0.080
-610.230	146.884	-0.295	-0.396
-609.215	655.398	0.092	-0.235
-608.201	-200.000	0.062	-0.295
-607.186	800.000	0.084	-0.286
-606.171	505.669	0.116	0.269
-605.157	-200.000	0.004	-0.035
-604.142	-180.150	0.355	0.007
-603.128	-200.000	-0.062	-0.469
-602.113	-200.000	-0.022	0.182
-601.098	-9.168	0.159	-0.106
-600.084	-115.592	0.153	-0.029
-599.069	-200.000	0.035	0.417
-598.055	-27.492	0.200	-0.116
-597.040	32.289	0.207	-0.179
-596.025	-7.777	-0.047	-0.032
-595.011	-91.959	-0.166	-0.047
-593.996	579.815	0.091	-0.223
-592.982	-19.441	-0.149	-0.092
-591.967	94.277	-0.291	0.330
-590.952	-200.000	-0.071	0.505
-589.938	-104.281	0.077	-0.018
-588.923	-80.807	-0.179	-0.059
-587.909	425.988	0.079	0.170
-586.894	-200.000	0.022	-0.123
-585.879	80.822	-0.141	0.152
-584.865	-44.722	0.097	0.048
-583.850	66.322	0.150	-0.152
-582.836	-62.189	-0.537	-0.223
-581.821	800.000	-0.062	0.173
-580.806	-111.521	0.123	0.025
-579.792	449.185	0.060	-0.132
-578.777	396.271	0.191	0.398
-577.763	-200.000	-0.001	-0.025
-576.748	-7.054	-0.206	0.140
-575.733	-105.356	0.134	0.030
-574.719	436.744	-0.190	-0.413
-573.704	-23.450	-0.159	-0.095
-572.690	-200.000	0.022	0.175
-571.675	-200.000	-0.008	0.149
-570.661	115.681	0.188	0.229
-569.646	29.758	0.143	-0.121
-568.631	-6.646	0.248	0.169
-567.617	-49.865	0.049	-0.023
-566.602	-85.903	-0.200	-0.062
-565.588	800.000	0.048	-0.209
-564.573	-200.000	0.063	-0.313
-563.558	195.675	0.220	-0.334
-562.544	-200.000	0.030	0.310
-561.529	427.867	-0.132	-0.285
-560.515	800.000	0.059	0.205
-559.500	-31.560	0.100	-0.056
-558.485	-200.000	0.046	-0.363
-557.471	-5.384	-0.277	-0.189
-556.456	-131.029	0.281	0.037
-555.442	-138.418	-0.088	-0.010
-554.427	-200.000	0.022	0.125
-553.412	-200.000	0.018	0.081
-552.398	-163.999	0.086	0.004
-551.383	-161.173	0.161	0.008
-550.369	48.190	-0.125	-0.116
-549.354	145.999	-0.139	0.186
-548.339	71.640	0.092	-0.095
-547.325	547.579	0.073	0.174
-546.310	56.556	-0.087	-0.084
-545.296	-200.000	0.092	0.408
-544.281	-9.486	-0.125	0.083
-543.266	-140.941	-0.370	-0.038
-542.252	-117.710	-0.446	-0.080
-541.237	-65.505	0.071	0.028
-540.223	88.004	-0.181	0.200
-539.208	32.203	0.213	-0.183
-538.193	752.710	-0.068	-0.182
-537.179	-200.000	-0.015	0.119
-536.164	-111.780	0.228	-0.046
-535.150	800.000	0.020	0.073
-534.135	-129.598	-0.110	-0.015
-533.121	-200.000	0.014	-0.120
-532.106	16.173	0.107	-0.084
-531.091	-170.552	-0.212	-0.007
-530.077	-33.528	0.051	0.028
-529.062	76.072	0.135	0.142
-528.048	-200.000	-0.011	-0.226
-527.033	800.000	0.026	-0.075
-526.018	-168.543	0.612	0.023
-525.004	25.573	0.118	-0.098
-523.989	800.000	0.066	-0.249
-522.975	-200.000	0.014	-0.109
-521.960	-7.893	0.123	-0.083
-520.945	160.605	-0.077	0.107
-519.931	-200.000	0.011	0.291
-518.916	14.249	-0.077	-0.060
-517.902	738.853	0.051	0.137
-516.887	57.247	-0.115	0.112
-515.872	-66.434	0.043	-0.017
-514.858	191.550	-0.077	-0.115
-513.843	-200.000	0.030	-0.255
-512.829	20.244	0.143	-0.115
-511.814	-200.000	-0.014	0.235
-510.799	247.383	0.180	-0.303
-509.785	-200.000	0.035	-0.250
-508.770	686.528	0.027	-0.071
-507.756	-131.184	0.218	0.029
-506.741	-118.246	0.230	0.041
-505.726	800.000	-0.021	-0.073
-504.712	-200.000	0.088	0.481
-503.697	43.350	-0.316	0.288
-502.683	-96.283	0.298	-0.079
-501.668	121.120	0.127	-0.157
-500.653	54.424	0.131	-0.126
-499.639	-200.000	-0.042	0.226
-498.624	-200.000	0.037	-0.320
-497.610	-6.227	-0.156	-0.106
-496.595	12.046	0.150	-0.114
-495.581	-200.000	-0.018	0.137
-494.566	-200.000	-0.030	0.174
-493.551	67.088	0.185	-0.187
-492.537	643.818	-0.095	-0.242
-491.522	-192.769	-0.247	-0.002
-490.508	-46.944	0.123	-0.060
-489.493	-200.000	0.011	0.254
-488.478	-154.758	0.111	0.007
-487.464	302.740	-0.117	0.216
-486.449	48.222	0.100	0.093
-485.435	104.941	-0.054	-0.064
-484.420	-1.109	-0.026	-0.019
-483.405	139.594	0.093	0.122
-482.391	-39.206	-0.064	0.034
-481.376	-151.982	-0.214	0.016
-480.362	47.569	0.197	0.183
-479.347	54.733	0.123	-0.118
-478.332	-81.463	0.328	-0.107
-477.318	-167.676	0.500	0.020
-476.303	-200.000	0.003	0.022
-475.289	-77.999	0.184	-0.063
-474.274	112.186	-0.058	0.070
-473.259	176.107	-0.128	0.184
-472.245	149.213	-0.043	0.058
-471.230	-200.000	-0.050	-0.307
-470.216	76.155	0.117	0.123
-469.201	800.000	0.108	-0.390
-468.186	-200.000	0.010	0.321
-467.172	28.602	0.121	-0.102
-466.157	342.078	-0.112	0.217
-465.143	156.966	-0.048	-0.066
-464.128	800.000	0.021	-0.067
-463.113	-60.238	-0.247	-0.105
-462.099	-200.000	-0.048	-0.487
-461.084	-200.000	-0.035	0.234
-460.070	-180.145	-0.280	-0.006
-459.055	-67.462	0.164	-0.064
-458.040	43.619	0.367	0.333
-457.026	138.197	-0.069	0.090
-456.011	4.256	0.121	0.088
-454.997	800.000	0.145	-0.463
-453.982	-157.057	0.168	-0.010
-452.968	-99.811	-0.211	-0.052
-451.953	79.609	0.104	0.111
-450.938	-134.360	-0.170	0.021
-449.924	90.045	-0.146	0.162
-448.909	162.834	0.353	0.493
-447.895	273.634	0.121	0.212
-446.880	448.930	0.061	0.132
-445.865	244.141	0.079	0.132
-444.851	-79.623	-0.014	-0.005
-443.836	193.568	-0.249	0.374
-442.822	-25.008	0.115	-0.068
-441.807	756.575	-0.079	-0.211
-440.792	437.822	0.076	0.164
-439.778	-175.335	-0.291	0.008
-438.763	-200.000	0.005	0.083
-437.749	-80.509	-0.286	0.095
-436.734	1.628	-0.307	-0.219
-435.719	-71.529	-0.170	0.063
-434.705	105.388	0.252	-0.296
-433.690	-68.598	-0.306	-0.118
-432.676	-200.000	-0.024	0.167
-431.661	-127.061	-0.083	0.012
-430.646	135.658	-0.080	0.104
-429.632	482.569	-0.198	-0.446
-428.617	57.627	0.236	-0.228
-427.603	-200.000	-0.045	-0.265
-426.588	94.968	0.240	-0.271
-425.573	36.815	-0.400	-0.350
-424.559	-177.690	-0.234	0.006
-423.544	-171.280	-0.332	-0.011
-422.530	52.109	-0.143	-0.135
-421.515	-96.312	0.192	-0.051
-420.500	90.728	0.024	0.026
-419.486	126.568	0.108	0.135
-418.471	-96.617	-0.054	-0.014
-417.457	490.481	0.057	0.130
-416.442	-109.541	0.237	-0.050
-415.428	-54.110	-0.175	0.079
-414.413	20.722	-0.132	0.106
-413.398	-82.868	0.139	0.045
-412.384	800.000	-0.032	0.116
-411.369	-46.424	0.058	-0.028
-410.355	800.000	-0.032	0.120
-409.340	410.485	0.063	0.133
-408.325	-77.292	0.236	0.081
-407.311	56.902	0.065	-0.062
-406.296	-70.602	0.258	0.097
-405.282	800.000	-0.131	0.461
-404.267	-108.304	-0.102	0.022
-403.252	30.911	-0.182	0.155
-402.238	-99.300	0.137	0.034
-401.223	-142.300	0.239	0.023
-400.209	222.476	-0.098	-0.157
-399.194	-189.101	-0.406	0.005
-398.179	-149.334	-0.272	0.021
-397.165	9.373	0.051	0.038
-396.150	378.409	-0.143	-0.290
-395.136	-51.130	0.176	-0.082
-394.121	108.268	-0.249	0.294
-393.106	8.176	-0.102	-0.076
-392.092	-30.469	-0.221	0.124
-391.077	-200.000	0.035	-0.211
-390.063	370.831	-0.121	0.242
-389.048	-121.491	0.722	-0.119
-388.033	164.960	-0.123	-0.172
-387.019	800.000	0.095	0.358
-386.004	-7.322	0.173	0.116
-384.990	453.565	-0.053	-0.116
-383.975	-200.000	-0.012	0.297
-382.960	65.283	0.210	-0.210
-381.946	17.950	0.232	0.183
-380.931	96.657	0.052	-0.059
-379.917	800.000	0.040	-0.159
-378.902	-200.000	-0.004	0.221
-377.888	-100.981	-0.241	-0.059
-376.873	-112.185	-0.149	-0.030
-375.858	-128.126	-0.199	-0.028
-374.844	9.268	0.138	0.103
-373.829	314.019	-0.078	0.145
-372.815	98.195	-0.182	0.208
-371.800	50.678	-0.054	0.051
-370.785	503.582	0.114	-0.260
-369.771	-200.000	-0.026	-0.215
-368.756	47.660	-0.341	0.315
-367.742	157.906	-0.125	0.172
-366.727	-117.278	-0.206	-0.037
-365.712	-36.781	0.344	0.183
-364.698	800.000	-0.074	0.228
-363.683	-80.323	0.313	0.104
-362.669	-21.531	-0.119	0.072
-361.654	-200.000	-0.022	0.180
-360.639	571.451	0.082	-0.197
-359.625	-54.017	-0.062	0.028
-358.610	-3.782	0.347	-0.238
-357.596	577.641	-0.063	0.153
-356.581	-200.000	0.070	-0.349
-355.566	-141.222	0.244	-0.025
-354.552	162.265	-0.239	0.331
-353.537	-200.000	-0.030	-0.344
-352.523	95.643	-0.123	-0.139
-351.508	800.000	0.074	0.228
-350.493	-124.351	-0.300	-0.046
-349.479	74.815	-0.242	-0.252
-348.464	-200.000	0.099	0.478
-347.450	253.741	-0.160	-0.271
-346.435	-200.000	-0.030	-0.144
-345.420	-27.616	0.171	-0.098
-344.406	52.149	-0.274	0.258
-343.391	-88.911	-0.329	-0.096
-342.377	-124.602	0.348	-0.053
-341.362	-87.917	-0.256	-0.076
-340.348	800.000	-0.062	-0.180
-339.333	33.514	-0.161	-0.138
-338.318	-88.302	-0.097	-0.029
-337.304	-200.000	0.003	0.165
-336.289	-95.264	0.385	-0.102
-335.275	174.319	0.221	0.315
-334.260	4.219	-0.264	-0.191
-333.245	178.719	0.114	0.164
-332.231	-17.742	0.175	-0.109
-331.216	18.635	0.113	0.090
-330.202	-49.419	0.220	-0.104
-329.187	-200.000	0.025	-0.110
-328.172	-144.346	-0.301	-0.028
-327.158	-142.415	0.284	-0.028
-326.143	800.000	0.025	0.102
-325.129	-200.000	0.036	0.183
-324.114	-48.969	-0.096	-0.045
-323.099	-200.000	0.010	-0.465
-322.085	-115.393	-0.234	-0.044
-321.070	-200.000	0.021	0.191
-320.056	-200.000	0.025	-0.160
-319.041	-70.145	-0.211	-0.079
-318.026	291.245	0.092	-0.166
-317.012	97.957	0.055	0.063
-315.997	-32.299	-0.293	0.162
-314.983	-52.815	0.154	0.070
-313.968	-200.000	-0.012	0.164
-312.953	-200.000	-0.028	-0.158
-311.939	-142.910	0.245	0.023
-310.924	-82.570	-0.111	-0.036
-309.910	-56.232	-0.137	-0.060
-308.895	-134.435	-0.196	-0.024
-307.880	-112.699	0.241	-0.047
-306.866	-57.505	-0.195	0.084
-305.851	-200.000	0.009	-0.200
-304.837	-168.246	0.257	-0.010
-303.822	102.111	-0.142	-0.163
-302.807	118.455	-0.172	-0.210
-301.793	-63.758	-0.332	-0.134
-300.778	-30.845	0.092	0.051
-299.764	84.505	-0.209	0.226
-298.749	73.373	-0.166	0.172
-297.735	36.133	-0.244	-0.212
-296.720	-200.000	0.046	0.270
-295.705	70.100	0.284	0.289
-294.691	225.252	0.136	-0.217
-293.676	-90.271	-0.197	-0.057
-292.662	13.883	0.147	-0.113
-291.647	-122.577	0.212	0.034
-290.632	-33.823	0.221	-0.120
-289.618	-89.553	0.146	-0.042
-288.603	-200.000	-0.051	0.322
-287.589	-69.235	-0.111	-0.042
-286.574	-130.351	-0.151	-0.020
-285.559	-200.000	-0.024	-0.152
-284.545	-76.806	-0.268	0.093
-283.530	800.000	-0.030	0.130
-282.516	-200.000	-0.026	-0.250
-281.501	-145.089	-0.255	-0.023
-280.486	-200.000	-0.065	0.481
-279.472	-3.930	-0.131	-0.090
-278.457	7.151	-0.256	0.188
-277.443	100.266	0.183	0.209
-276.428	800.000	0.067	0.231
-275.413	-69.122	-0.253	0.096
-274.399	27.732	-0.043	-0.035
-273.384	-146.762	-0.363	-0.031
-272.370	34.673	-0.131	-0.113
-271.355	345.553	0.095	-0.185
-270.340	7.648	-0.213	0.157
-269.326	246.847	-0.170	0.284
-268.311	302.527	-0.101	-0.184
-267.297	227.490	-0.047	-0.075
-266.282	215.190	-0.136	0.213
-265.267	-51.531	-0.210	0.097
-264.253	-68.085	0.212	-0.082
-263.238	-91.053	0.037	0.011
-262.224	452.330	0.118	0.257
-261.209	-200.000	-0.003	-0.024
-260.195	9.799	-0.320	-0.239
-259.180	168.413	-0.067	0.094
-258.165	92.533	-0.105	0.117
-257.151	-93.242	0.148	-0.040
-256.136	-34.464	-0.008	-0.004
-255.122	-127.689	0.198	-0.028
-254.107	439.096	0.118	0.255
-253.092	27.597	0.306	0.253
-252.078	-82.723	-0.168	-0.054
-251.063	-200.000	-0.041	-0.312
-250.049	679.888	-0.116	-0.299
-249.034	-70.963	0.204	-0.076
-248.019	-200.000	0.058	-0.432
-247.005	-200.000	-0.002	0.123
-245.990	800.000	0.110	0.344
-244.976	111.504	-0.099	0.118
-243.961	-19.644	0.207	0.126
-242.946	-89.592	0.221	-0.064
-241.932	800.000	-0.080	0.332
-240.917	-89.214	0.128	-0.037
-239.903	-192.679	-0.215	-0.002
-238.888	343.239	0.041	0.078
-237.873	285.286	-0.116	-0.205
-236.859	186.608	-0.107	0.157
-235.844	25.952	0.233	0.191
-234.830	71.879	-0.179	-0.183
-233.815	800.000	0.023	0.075
-232.800	115.573	-0.148	0.178
-231.786	-200.000	0.023	-0.249
-230.771	-200.000	0.017	-0.084
-229.757	-200.000	0.037	0.220
-228.742	-91.570	0.301	0.084
-227.727	-76.282	-0.108	-0.037
-226.713	-112.955	0.032	-0.006
-225.698	-50.980	0.123	-0.057
-224.684	-101.430	-0.208	-0.050
-223.669	457.429	0.186	-0.407
-222.655	43.238	-0.143	-0.129
-221.640	541.658	-0.173	-0.406
-220.625	-12.273	-0.067	-0.043
-219.611	204.970	-0.211	-0.322
-218.596	-59.142	0.209	-0.089
-217.582	-0.161	-0.353	0.247
-216.567	291.995	-0.052	-0.093
-215.552	-200.000	0.022	-0.095
-214.538	394.928	0.138	-0.284
-213.523	17.882	0.245	0.192
-212.509	-58.788	-0.164	0.070
-211.494	-200.000	0.048	0.349
-210.479	-200.000	-0.013	0.202
-209.465	12.253	0.105	0.080
-208.450	-92.749	-0.048	-0.013
-207.436	151.890	0.163	-0.218
-206.421	157.084	0.194	0.264
-205.406	44.086	0.158	-0.143
-204.392	-161.030	0.321	-0.017
-203.377	16.710	0.119	0.093
-202.363	-200.000	0.088	0.500
-201.348	622.903	-0.135	0.335
-200.333	-41.602	0.230	-0.116
-199.319	-100.502	-0.283	0.069
-198.304	194.155	-0.129	0.192
-197.290	-48.116	-0.264	0.125
-196.275	621.454	0.028	-0.070
-195.260	800.000	0.024	-0.078
-194.246	271.486	-0.105	0.182
-193.231	-85.097	-0.140	-0.043
-192.217	-82.658	-0.386	0.123
-191.202	-27.267	0.163	-0.093
-190.187	85.271	-0.092	-0.100
-189.173	-200.000	-0.022	-0.255
-188.158	69.887	-0.174	-0.176
-187.144	266.564	-0.080	-0.137
-186.129	20.483	-0.080	-0.064
-185.114	-28.069	0.286	-0.163
-184.100	800.000	-0.081	0.254
-183.085	-200.000	-0.060	0.383
-182.071	-200.000	0.031	0.146
-181.056	-127.072	0.220	0.032
-180.042	98.565	0.188	-0.212
-179.027	-133.619	0.332	-0.041
-178.012	75.425	-0.104	0.108
-176.998	-27.788	-0.162	0.092
-175.983	58.594	-0.301	-0.290
-174.969	195.164	0.086	0.128
-173.954	800.000	0.083	0.306
-172.939	87.943	0.195	0.212
-171.925	38.641	0.310	0.272
-170.910	52.071	-0.124	-0.116
-169.896	-111.234	0.188	-0.038
-168.881	-200.000	0.059	-0.303
-167.866	13.699	0.082	0.063
-166.852	40.887	0.244	-0.216
-165.837	-40.224	-0.070	-0.036
-164.823	800.000	-0.014	0.039
-163.808	-115.314	0.023	0.004
-162.793	800.000	-0.032	-0.098
-161.779	-94.052	-0.176	0.048
-160.764	800.000	0.044	0.172
-159.750	-17.021	-0.300	-0.186
-158.735	568.768	0.049	0.117
-157.720	800.000	0.114	0.328
-156.706	-56.695	-0.314	0.136
-155.691	-58.948	0.306	-0.130
-154.677	-160.157	0.172	0.009
-153.662	198.783	0.185	-0.278
-152.647	157.127	-0.070	0.095
-151.633	-164.836	-0.183	0.008
-150.618	37.233	-0.296	-0.257
-149.604	157.654	0.076	0.104
-148.589	-91.203	-0.342	-0.096
-147.574	-25.348	-0.160	0.093
-146.560	-183.069	-0.229	0.004
-145.545	49.722	-0.142	0.131
-144.531	-136.344	0.267	-0.031
-143.516	-110.857	0.119	-0.024
-142.502	-46.126	0.182	0.088
-141.487	-69.200	-0.339	-0.128
-140.472	-60.199	0.112	0.047
-139.458	-165.375	-0.426	-0.018
-138.443	800.000	-0.056	0.161
-137.429	68.570	-0.049	-0.049
-136.414	5.244	0.129	0.093
-135.399	197.285	0.206	0.309
-134.385	-45.489	-0.344	0.167
-133.370	3.075	0.368	0.262
-132.356	432.916	0.148	0.315
-131.341	-117.646	-0.349	0.062
-130.326	-111.757	0.375	-0.074
-129.312	-200.000	-0.030	0.222
-128.297	-32.944	0.156	-0.085
-127.283	800.000	0.111	0.378
-126.268	-200.000	-0.044	0.418
-125.253	-93.758	0.126	-0.034
-124.239	201.460	-0.097	0.146
-123.224	106.923	0.075	-0.087
-122.210	147.315	-0.325	0.429
-121.195	100.845	0.289	-0.329
-120.180	9.974	-0.219	-0.163
-119.166	423.005	-0.057	-0.119
-118.151	-104.342	-0.218	0.050
-117.137	90.315	-0.025	-0.027
-116.122	-200.000	-0.025	-0.194
-115.107	-83.916	-0.199	0.062
-114.093	-84.906	-0.249	0.077
-113.078	-200.000	-0.008	0.184
-112.064	277.925	0.043	-0.075
-111.049	-151.566	0.287	0.021
-110.034	-74.141	0.125	-0.045
-109.020	212.229	-0.182	0.281
-108.005	-93.214	0.094	-0.026
-106.991	190.887	-0.273	0.402
-105.976	-1.606	-0.199	-0.137
-104.962	81.710	-0.189	0.201
-103.947	383.670	0.106	0.214
-102.932	-200.000	-0.025	0.519
-101.918	236.368	-0.226	0.366
-100.903	305.383	0.042	-0.077
-99.889	86.385	0.155	-0.167
-98.874	-76.123	-0.250	-0.087
-97.859	-31.130	0.366	0.202
-96.845	7.511	-0.190	-0.139
-95.830	800.000	0.090	0.302
-94.816	-200.000	0.003	-0.318
-93.801	800.000	0.086	0.253
-92.786	-200.000	0.065	0.290
-91.772	-200.000	0.025	-0.129
-90.757	-71.765	0.166	-0.060
-89.743	-200.000	0.003	0.215
-88.728	131.812	-0.147	-0.185
-87.713	360.426	-0.070	0.138
-86.699	77.729	-0.190	0.198
-85.684	-134.540	-0.106	-0.013
-84.670	-77.777	0.062	-0.021
-83.655	37.776	0.134	0.117
-82.640	-200.000	-0.086	0.389
-81.626	-200.000	-0.003	0.150
-80.611	21.236	0.200	0.159
-79.597	195.224	0.170	-0.252
-78.582	-146.524	-0.180	0.015
-77.567	-200.000	-0.017	0.159
-76.553	-91.153	-0.220	0.062
-75.538	-200.000	0.045	-0.224
-74.524	189.214	0.252	-0.370
-73.509	183.265	-0.149	0.216
-72.494	529.656	0.164	0.378
-71.480	-200.000	0.004	0.097
-70.465	-56.306	0.094	-0.041
-69.451	2.937	0.223	-0.158
-68.436	84.356	-0.057	0.061
-67.422	259.215	0.028	-0.048
-66.407	550.031	-0.075	-0.177
-65.392	166.431	0.106	0.147
-64.378	186.378	0.173	0.251
-63.363	800.000	0.030	0.125
-62.349	145.368	-0.183	0.240
-61.334	104.609	-0.962	-1.108
-60.319	55.954	0.566	0.537
-59.305	766.619	-0.370	-0.982
-58.290	684.915	0.575	1.467
-57.276	332.129	0.712	1.344
-56.261	-200.000	116.698	656.865
-55.246	521.205	1540.632	3533.902
-54.232	173.339	2725.200	3842.079
-53.217	100.286	2301.649	2610.771
-52.203	35.582	1904.441	1635.059
-51.188	29.525	1693.785	1408.119
-50.173	27.103	1651.664	1355.009
-49.159	48.919	1708.236	1567.361
-48.144	47.335	1721.801	1567.755
-47.130	29.158	1679.252	1393.038
-46.115	26.458	1664.900	1360.797
-45.100	26.348	1659.938	1355.862
-44.086	26.327	1657.351	1353.540
-43.071	26.343	1654.683	1351.424
-42.057	26.240	1652.598	1348.902
-41.042	26.259	1650.750	1347.478
-40.027	26.222	1648.636	1345.429
-39.013	26.376	1645.846	1344.240
-37.998	26.312	1644.618	1342.712
-36.984	26.308	1643.161	1341.433
-35.969	26.426	1641.895	1341.228
-34.954	26.501	1640.309	1340.434
-33.940	26.426	1638.390	1338.254
-32.925	26.415	1636.889	1336.892
-31.911	26.385	1635.145	1335.194
-30.896	26.465	1632.905	1333.902
-29.881	26.442	1631.571	1332.594
-28.867	26.367	1630.654	1331.238
-27.852	26.389	1629.315	1330.255
-26.838	26.412	1627.548	1328.928
-25.823	26.392	1626.215	1327.638
-24.809	26.383	1625.111	1326.617
-23.794	26.541	1623.043	1326.039
-22.779	26.488	1621.886	1324.651
-21.765	26.384	1620.352	1322.587
-20.750	26.391	1618.151	1320.789
-19.736	26.438	1617.204	1320.305
-18.721	26.548	1615.400	1319.582
-17.706	26.423	1614.578	1317.944
-16.692	26.528	1612.559	1317.013
-15.677	26.512	1611.189	1315.723
-14.663	26.424	1610.093	1314.137
-13.648	26.498	1608.607	1313.409
-12.633	26.491	1607.264	1312.207
-11.619	26.502	1605.419	1310.730
-10.604	26.550	1603.269	1309.269
-9.590	26.496	1602.216	1307.969
-8.575	26.454	1601.721	1307.210
-7.560	26.504	1599.857	1305.998
-6.546	26.473	1598.611	1304.702
-5.531	26.456	1597.641	1303.739
-4.517	26.416	1596.952	1302.835
-3.502	26.510	1595.313	1302.124
-2.487	26.508	1593.793	1300.814
-1.473	26.360	1582.143	1290.203
-0.458	23.744	1563.655	1256.595
0.556	22.678	1565.752	1228.525
1.571	20.452	1590.454	1232.025
2.586	20.075	1603.213	1239.101
3.600	17.934	1548.602	1181.986
4.615	11.175	1442.050	1056.854
5.629	5.184	1382.068	975.460
6.644	4.079	1374.313	963.033
7.659	4.177	1373.237	962.805
8.673	4.303	1372.582	963.039
9.688	4.312	1370.276	961.392
10.702	4.226	1367.748	959.004
11.717	7.071	1373.070	980.294
12.731	14.639	1386.632	1037.075
13.746	20.924	1396.726	1083.741
14.761	22.622	1398.812	1095.831
15.775	22.150	1396.540	1091.025
16.790	21.034	1394.704	1082.567
17.804	20.388	1392.291	1076.598
18.819	19.991	1390.787	1072.883
19.834	19.896	1389.846	1071.473
20.848	20.005	1388.575	1071.073
21.863	19.763	1387.737	1068.835
22.877	19.596	1386.940	1067.095
23.892	19.554	1385.961	1065.988
24.907	19.557	1384.986	1065.157
25.921	19.501	1384.321	1064.208
26.936	19.552	1382.814	1063.271
27.950	19.610	1382.038	1062.937
28.965	19.800	1381.284	1063.433
29.980	19.922	1380.336	1063.357
30.994	19.961	1379.518	1062.872
32.009	20.005	1378.406	1062.189
33.023	20.031	1376.824	1061.036
34.038	19.915	1375.375	1059.119
35.053	19.710	1374.868	1057.378
36.067	19.756	1373.325	1056.379
37.082	19.736	1372.389	1055.445
38.096	19.836	1371.659	1055.397
39.111	19.910	1370.735	1055.049
40.126	19.615	1370.221	1052.760
41.140	19.496	1368.449	1050.580
42.155	19.306	1368.059	1049.030
43.169	19.237	1367.754	1048.284
44.184	19.235	1367.671	1048.115
45.199	19.234	1367.373	1047.788
46.213	19.414	1367.177	1048.639
47.228	19.604	1366.587	1049.250
48.242	19.767	1364.987	1048.917
49.257	19.606	1363.747	1046.896
50.271	19.639	1362.236	1045.844
51.286	19.735	1360.683	1045.139
52.301	19.564	1359.489	1043.095
53.315	19.507	1358.300	1041.746
54.330	19.244	1357.567	1039.506
55.344	19.362	1355.735	1038.724
56.359	19.349	1354.996	1037.986
57.374	19.266	1354.092	1036.702
58.388	19.252	1353.596	1036.147
59.403	19.207	1352.970	1035.308
60.417	19.164	1351.976	1034.195
61.432	19.086	1350.824	1032.755
62.447	19.043	1350.035	1031.804
63.461	18.951	1349.059	1030.411
64.476	18.911	1347.970	1029.254
65.490	18.845	1346.955	1027.992
66.505	18.928	1345.107	1026.987
67.520	18.998	1343.961	1026.440
68.534	19.006	1342.744	1025.465
69.549	19.085	1341.545	1024.931
70.563	19.021	1340.349	1023.543
71.578	18.886	1339.979	1022.367
72.593	18.780	1338.949	1020.860
73.607	18.698	1337.826	1019.426
74.622	18.683	1337.583	1019.065
75.636	18.760	1336.498	1018.602
76.651	18.829	1336.503	1018.924
77.666	18.888	1335.776	1018.630
78.680	19.013	1335.521	1019.089
79.695	18.949	1334.903	1018.146
80.709	19.041	1334.174	1018.046
81.724	19.273	1332.955	1018.395
82.739	19.338	1332.484	1018.327
83.753	19.552	1331.945	1019.092
84.768	19.795	1331.134	1019.814
85.782	19.913	1329.507	1019.169
86.797	19.804	1329.033	1018.075
87.812	19.611	1327.338	1015.555
88.826	19.671	1326.320	1015.040
89.841	19.709	1325.154	1014.276
90.855	19.741	1324.696	1014.025
91.870	19.795	1324.125	1013.813
92.884	19.892	1322.770	1013.258
93.899	19.883	1322.321	1012.768
94.914	19.981	1321.419	1012.562
95.928	19.929	1320.795	1011.688
96.943	19.847	1319.244	1009.934
97.957	19.756	1318.697	1008.895
98.972	19.889	1317.531	1008.691
99.987	19.893	1316.458	1007.799
101.001	19.830	1315.249	1006.419
102.016	19.893	1314.565	1006.177
103.030	19.819	1313.894	1005.140
104.045	19.942	1312.588	1004.766
105.060	19.620	1311.874	1002.266
106.074	19.413	1309.616	999.252
107.089	19.139	1307.871	996.244
108.103	18.956	1306.748	994.248
109.118	19.074	1305.429	993.837
110.133	19.018	1304.226	992.509
111.147	19.136	1302.712	991.950
112.162	19.132	1301.900	991.218
113.176	19.128	1300.691	990.190
114.191	19.125	1300.568	989.989
115.206	19.132	1299.372	989.033
116.220	19.189	1298.051	988.267
117.235	19.161	1296.891	987.134
118.249	19.068	1295.658	985.578
119.264	19.062	1294.124	984.288
120.279	19.052	1292.967	983.265
121.293	18.920	1292.143	981.794
122.308	18.865	1291.329	980.777
123.322	18.706	1290.323	979.020
124.337	18.736	1289.172	978.233
125.352	18.685	1288.085	977.028
126.366	18.763	1286.675	976.316
127.381	18.799	1285.740	975.722
128.395	18.708	1284.862	974.456
129.410	18.875	1284.118	974.751
130.424	18.915	1283.764	974.626
131.439	18.978	1282.857	974.205
132.454	19.130	1281.822	974.195
133.468	19.167	1280.795	973.538
134.483	19.167	1280.419	973.167
135.497	19.186	1279.428	972.431
136.512	19.209	1278.629	971.872
137.527	19.175	1277.196	970.501
138.541	19.192	1275.502	969.226
139.556	19.383	1274.703	969.604
140.570	19.421	1273.608	968.901
141.585	19.483	1272.562	968.366
142.600	19.627	1271.947	968.622
143.614	19.755	1270.536	968.178
144.629	19.793	1270.026	967.915
145.643	19.743	1268.437	966.341
146.658	19.531	1267.452	964.317
147.673	19.427	1266.074	962.606
148.687	19.241	1264.654	960.404
149.702	19.221	1263.208	959.113
150.716	19.140	1261.816	957.521
151.731	19.207	1260.524	956.823
152.746	19.297	1259.294	956.308
153.760	19.211	1258.654	955.257
154.775	19.397	1257.408	955.257
155.789	19.441	1256.526	954.750
156.804	19.504	1255.789	954.454
157.819	19.596	1254.652	954.010
158.833	19.698	1254.528	954.397
159.848	19.940	1252.801	954.333
160.862	19.773	1252.067	952.770
161.877	19.439	1250.805	949.887
162.892	19.269	1249.474	947.852
163.906	19.270	1248.201	946.812
164.921	19.267	1247.358	946.071
165.935	19.319	1246.833	945.877
166.950	19.550	1245.873	946.329
167.964	19.392	1245.174	944.849
168.979	19.359	1245.070	944.504
169.994	19.341	1243.909	943.442
171.008	19.390	1243.104	943.020
172.023	19.540	1242.314	943.154
173.037	19.682	1241.885	943.519
174.052	19.626	1240.751	942.268
175.067	19.408	1239.427	939.995
176.081	19.183	1238.730	938.156
177.096	19.321	1237.027	937.535
178.110	19.266	1236.476	936.731
179.125	19.295	1235.479	936.052
180.140	19.216	1234.372	934.703
181.154	19.591	1233.367	935.890
182.169	19.704	1232.406	935.690
183.183	19.730	1231.102	934.757
184.198	19.849	1230.032	934.504
185.213	19.774	1229.020	933.248
186.227	19.819	1228.140	932.742
187.242	19.991	1227.130	932.818
188.256	20.032	1226.208	932.257
189.271	19.971	1225.200	931.081
190.286	19.692	1224.562	929.014
191.300	19.283	1222.924	925.492
192.315	19.213	1222.139	924.439
193.329	19.300	1221.606	924.421
194.344	19.340	1221.330	924.344
195.359	19.471	1220.496	924.333
196.373	19.545	1220.363	924.549
197.388	19.648	1220.069	924.798
198.402	19.850	1219.702	925.518
199.417	20.123	1218.682	926.121
200.432	20.182	1218.638	926.318
201.446	20.309	1217.888	926.345
202.461	20.402	1216.767	925.906
203.475	20.248	1216.254	924.612
204.490	20.078	1214.215	922.078
205.504	19.880	1213.082	920.084
206.519	19.858	1211.504	918.685
207.534	19.733	1210.780	917.394
208.548	19.727	1210.043	916.721
209.563	19.875	1208.895	916.556
210.577	19.770	1208.561	915.666
211.592	19.835	1207.643	915.231
212.607	20.102	1206.950	916.037
213.621	20.199	1205.940	915.701
214.636	19.942	1205.033	913.574
215.650	20.044	1204.073	913.303
216.665	20.273	1203.287	913.836
217.680	20.381	1202.687	913.867
218.694	20.312	1202.101	912.979
219.709	20.299	1201.446	912.332
220.723	20.185	1200.680	911.067
221.738	20.251	1199.583	910.502
222.753	20.176	1198.758	909.403
223.767	20.275	1198.034	909.294
224.782	20.502	1197.573	910.053
225.796	20.550	1197.259	909.984
226.811	20.577	1196.308	909.319
227.826	20.241	1195.541	906.901
228.840	20.165	1194.790	905.856
229.855	20.188	1194.053	905.336
230.869	20.107	1193.358	904.303
231.884	20.063	1192.006	902.973
232.899	19.940	1191.645	901.975
233.913	19.935	1190.493	900.997
234.928	19.825	1189.427	899.540
235.942	19.757	1189.140	898.892
236.957	19.823	1188.470	898.648
237.972	19.996	1187.320	898.595
238.986	19.868	1186.695	897.382
240.001	19.913	1186.055	897.052
241.015	19.942	1184.932	896.274
242.030	20.067	1184.431	896.459
243.045	20.145	1183.674	896.214
244.059	20.219	1182.823	895.868
245.074	20.182	1182.194	895.122
246.088	20.427	1181.450	895.746
247.103	20.406	1181.108	895.298
248.117	20.471	1180.525	895.113
249.132	20.767	1179.908	896.086
250.147	20.939	1179.708	896.740
251.161	21.035	1179.219	896.787
252.176	21.068	1178.653	896.445
253.190	21.218	1177.683	896.395
254.205	21.326	1177.256	896.549
255.220	21.152	1176.981	895.367
256.234	21.200	1175.900	894.712
257.249	21.296	1174.663	894.179
258.263	21.199	1174.001	893.102
259.278	21.056	1173.633	892.012
260.293	21.232	1173.215	892.512
261.307	21.221	1172.862	892.108
262.322	21.300	1172.079	891.841
263.336	21.362	1171.165	891.380
264.351	21.245	1171.104	890.658
265.366	21.251	1170.221	889.940
266.380	21.425	1169.123	889.912
267.395	21.331	1167.844	888.382
268.409	21.190	1167.417	887.263
269.424	21.095	1166.507	886.009
270.439	21.081	1166.457	885.824
271.453	21.084	1164.916	884.586
272.468	20.942	1163.805	882.948
273.482	20.957	1163.232	882.511
274.497	20.902	1162.790	881.819
275.512	20.963	1162.276	881.659
276.526	20.917	1161.512	880.770
277.541	20.904	1160.444	879.816
278.555	21.027	1159.942	879.978
279.570	21.178	1159.670	880.456
280.585	21.348	1159.005	880.730
281.599	21.378	1157.781	879.873
282.614	21.084	1156.635	877.443
283.628	21.182	1155.014	876.629
284.643	21.007	1154.835	875.537
285.657	21.112	1153.915	875.289
286.672	21.130	1152.933	874.556
287.687	21.032	1151.872	873.184
288.701	21.145	1151.252	873.202
289.716	21.132	1150.465	872.463
290.730	21.254	1149.554	872.304
291.745	21.167	1149.105	871.454
292.760	21.233	1148.485	871.234
293.774	21.403	1148.221	871.802
294.789	21.436	1147.547	871.381
295.803	21.398	1146.982	870.684
296.818	21.307	1145.957	869.379
297.833	21.221	1144.879	868.053
298.847	21.092	1144.477	867.032
299.862	21.060	1144.145	866.543
300.876	21.185	1143.200	866.374
301.891	21.448	1142.293	866.911
302.906	21.447	1141.901	866.531
303.920	21.589	1141.356	866.749
304.935	21.692	1140.755	866.722
305.949	21.816	1140.531	867.091
306.964	21.728	1139.857	866.066
307.979	21.642	1138.742	864.718
308.993	21.602	1137.736	863.677
310.008	21.666	1137.003	863.360
311.022	21.784	1136.566	863.536
312.037	21.761	1135.320	862.399
313.052	21.505	1134.239	860.241
314.066	21.305	1133.586	858.687
315.081	21.180	1132.344	857.057
316.095	21.193	1131.211	856.188
317.110	21.187	1131.095	855.996
318.125	21.096	1130.596	855.096
319.139	21.138	1129.193	854.166
320.154	21.231	1128.448	853.981
321.168	21.227	1127.939	853.502
322.183	21.205	1127.509	852.993
323.197	21.277	1126.840	852.759
324.212	21.329	1126.157	852.421
325.227	21.324	1125.966	852.177
326.241	21.387	1125.345	851.941
327.256	21.388	1124.427	851.173
328.270	21.281	1123.683	850.014
329.285	21.317	1122.348	849.106
330.300	21.301	1121.301	848.160
331.314	21.356	1120.406	847.674
332.329	21.280	1119.721	846.713
333.343	21.341	1118.919	846.330
334.358	21.500	1118.166	846.455
335.373	21.696	1117.432	846.769
336.387	21.699	1116.958	846.348
337.402	21.618	1116.464	845.511
338.416	21.721	1115.611	845.284
339.431	21.811	1115.280	845.394
340.446	21.882	1114.760	845.267
341.460	21.959	1114.206	845.142
342.475	22.145	1113.335	845.302
343.489	22.192	1112.683	844.958
344.504	22.267	1111.420	844.283
345.519	22.277	1110.456	843.525
346.533	22.361	1110.101	843.584
347.548	22.428	1109.228	843.166
348.562	22.445	1108.200	842.394
349.577	22.067	1107.366	839.877
350.592	21.788	1106.680	837.947
351.606	21.636	1105.727	836.426
352.621	21.594	1105.142	835.710
353.635	21.598	1104.549	835.205
354.650	21.696	1103.568	834.859
355.665	21.712	1102.863	834.327
356.679	21.820	1102.438	834.447
357.694	21.728	1102.349	833.867
358.708	21.981	1101.318	834.214
359.723	21.998	1100.727	833.774
360.738	22.012	1099.990	833.209
361.752	21.960	1099.312	832.376
362.767	22.106	1098.401	832.306
363.781	22.102	1097.829	831.779
364.796	22.285	1097.479	832.307
365.810	22.428	1097.229	832.716
366.825	22.408	1097.323	832.621
367.840	22.612	1096.685	833.028
368.854	22.702	1096.263	833.058
369.869	22.686	1095.214	832.112
370.883	22.476	1094.167	830.253
371.898	22.321	1092.999	828.564
372.913	22.409	1092.412	828.461
373.927	22.410	1092.427	828.403
374.942	22.621	1092.033	829.021
375.956	22.505	1091.346	827.882
376.971	22.534	1090.046	826.961
377.986	22.652	1090.043	827.436
379.000	22.701	1089.636	827.282
380.015	22.835	1089.241	827.541
381.029	22.775	1088.581	826.684
382.044	22.869	1087.760	826.425
383.059	22.727	1086.977	825.094
384.073	22.770	1085.972	824.461
385.088	22.740	1085.221	823.679
386.102	22.706	1084.554	822.938
387.117	22.528	1083.018	820.870
388.132	22.398	1082.075	819.480
389.146	22.355	1081.377	818.678
390.161	22.352	1080.438	817.882
391.175	22.360	1079.865	817.413
392.190	22.379	1079.375	817.058
393.205	22.649	1079.056	817.994
394.219	22.699	1077.787	817.192
395.234	22.476	1076.809	815.347
396.248	22.524	1075.440	814.458
397.263	22.415	1074.600	813.248
398.278	22.407	1074.221	812.853
399.292	22.217	1072.927	810.926
400.307	22.189	1072.345	810.287
401.321	22.109	1071.752	809.395
402.336	22.184	1071.309	809.337
403.350	22.221	1070.170	808.574
404.365	22.274	1069.917	808.552
405.380	22.449	1069.410	808.906
406.394	22.479	1068.932	808.609
407.409	22.722	1068.209	809.105
408.423	22.718	1067.551	808.516
409.438	22.894	1066.862	808.729
410.453	23.017	1066.435	808.898
411.467	22.964	1065.604	807.953
412.482	23.077	1065.043	807.973
413.496	23.050	1064.734	807.543
414.511	23.219	1064.037	807.714
415.526	23.290	1063.558	807.602
416.540	23.359	1063.438	807.755
417.555	23.262	1062.661	806.650
418.569	23.143	1062.124	805.631
419.584	23.130	1061.444	804.983
420.599	23.198	1061.070	804.938
421.613	157.909	1403.214	1796.235
422.628	145.285	1453.020	1796.347
