DTS Sentinel unit serial number:	SN413079Multiplexer serial number:	ORYXHardware model number:	OX4-SRSoftware version number:	ORYX F/W v4.00 Oryx Data Collector v3.7.2.0data status	okinstallation	princeton_trtdifferential loss correction	single-endedforward channel	channel 2reverse channel	N/Adate	2019/09/13time	23:31:35forward acquisition time	60.00reverse acquisition time	0.00gamma	496.2192k internal	0.2337k external	0.2337temperature offset calibration	1.0130default loss term (dB/km)	0.3790temperature slope calibration	1.0000multiplexer offset coefficient	1.0000multiplexer slope coefficient	1.0000fibre end	0.00T internal ref (°C)	26.81T ext. ref 1 (°C)	3.18T ext. ref 2 (°C)	20.99length (m)	temperature (°C)	Stokes	anti-Stokes-747.200	41.507	-0.152	0.138
-746.185	-63.231	-0.092	-0.038
-745.171	-17.970	0.063	0.040
-744.156	-200.000	0.060	0.431
-743.142	27.716	0.119	0.101
-742.127	-200.000	0.048	0.478
-741.112	72.820	-0.140	-0.147
-740.098	800.000	-0.048	0.188
-739.083	27.104	0.081	0.068
-738.069	553.245	-0.134	0.323
-737.054	-200.000	0.010	0.052
-736.039	-129.181	-0.338	0.047
-735.025	68.239	-0.098	-0.101
-734.010	33.898	-0.188	0.164
-732.996	-200.000	-0.008	-0.428
-731.981	311.442	-0.101	-0.191
-730.966	-53.689	0.156	-0.072
-729.952	-106.494	-0.087	-0.019
-728.937	-27.655	-0.308	0.179
-727.923	126.620	-0.128	0.163
-726.908	-200.000	0.012	-0.090
-725.894	800.000	-0.060	0.237
-724.879	-84.719	-0.080	-0.025
-723.864	800.000	-0.128	-0.466
-722.850	67.753	-0.120	-0.123
-721.835	-81.907	-0.218	0.072
-720.821	-11.557	-0.122	-0.080
-719.806	155.318	-0.030	-0.041
-718.791	80.621	0.332	0.359
-717.777	159.418	-0.262	0.365
-716.762	-79.569	0.130	0.044
-715.748	-200.000	0.082	0.378
-714.733	64.438	-0.180	-0.182
-713.718	267.284	0.174	-0.305
-712.704	-174.281	0.210	-0.006
-711.689	-69.947	-0.274	0.105
-710.675	-94.640	-0.109	-0.030
-709.660	293.374	0.111	0.203
-708.645	800.000	0.082	-0.257
-707.631	-200.000	0.060	-0.305
-706.616	-179.849	0.249	-0.005
-705.602	-200.000	-0.084	-0.406
-704.587	800.000	-0.013	-0.036
-703.572	221.650	0.078	0.126
-702.558	-44.064	0.221	-0.111
-701.543	68.445	-0.092	0.094
-700.529	214.828	-0.156	0.248
-699.514	-99.118	0.072	-0.018
-698.499	800.000	-0.130	-0.421
-697.485	755.708	0.055	-0.148
-696.470	-76.089	0.076	0.027
-695.456	-32.364	0.363	-0.203
-694.441	392.494	-0.101	-0.211
-693.426	-153.799	-0.382	-0.026
-692.412	106.180	0.145	-0.172
-691.397	129.169	-0.208	-0.266
-690.383	-200.000	0.040	-0.358
-689.368	-125.162	-0.087	-0.013
-688.354	-70.843	-0.031	-0.012
-687.339	-10.314	-0.324	-0.215
-686.324	-88.042	-0.454	0.136
-685.310	-81.426	0.361	-0.119
-684.295	-200.000	0.061	-0.000
-683.281	-31.540	-0.239	0.134
-682.266	-134.175	0.107	0.013
-681.251	387.960	0.048	-0.100
-680.237	38.073	0.102	0.091
-679.222	25.381	-0.332	-0.276
-678.208	555.425	-0.051	-0.123
-677.193	-200.000	0.019	0.130
-676.178	-156.315	0.059	0.004
-675.164	103.470	-0.271	-0.318
-674.149	-120.009	-0.141	0.024
-673.135	-27.383	0.122	0.071
-672.120	29.773	-0.173	0.147
-671.105	-200.000	-0.006	-0.246
-670.091	599.034	0.103	-0.257
-669.076	-94.518	-0.103	-0.028
-668.062	800.000	-0.024	0.090
-667.047	-14.072	0.320	0.207
-666.032	-153.301	0.455	0.032
-665.018	-72.844	0.193	0.071
-664.003	426.538	0.089	-0.192
-662.989	44.588	-0.089	0.082
-661.974	-200.000	0.067	-0.460
-660.959	-142.625	-0.027	0.003
-659.945	14.240	-0.159	0.124
-658.930	-61.113	-0.024	0.010
-657.916	-178.812	-0.261	-0.006
-656.901	7.361	0.048	0.036
-655.886	17.783	0.128	0.102
-654.872	800.000	-0.043	-0.164
-653.857	800.000	-0.037	0.141
-652.843	36.722	0.239	-0.211
-651.828	260.149	-0.202	0.348
-650.814	-2.579	0.125	0.087
-649.799	158.640	-0.121	0.168
-648.784	-93.514	-0.300	0.083
-647.770	95.242	-0.080	0.091
-646.755	-105.794	0.063	-0.014
-645.741	-112.741	-0.291	0.058
-644.726	-8.849	-0.163	-0.109
-643.711	-200.000	0.016	0.115
-642.697	-200.000	-0.004	0.372
-641.682	72.648	0.250	0.261
-640.668	800.000	0.035	-0.122
-639.653	-54.001	0.333	0.151
-638.638	-98.083	-0.379	0.098
-637.624	244.909	-0.122	-0.206
-636.609	-54.825	0.199	-0.090
-635.595	-200.000	-0.091	0.000
-634.580	794.710	0.057	-0.157
-633.565	-20.571	-0.197	-0.121
-632.551	-173.522	-0.143	-0.004
-631.536	-5.108	-0.075	-0.051
-630.522	164.106	-0.032	0.044
-629.507	800.000	0.026	0.104
-628.492	-175.900	-0.462	-0.012
-627.478	668.797	-0.126	0.327
-626.463	-85.737	0.460	-0.143
-625.449	34.249	-0.145	-0.126
-624.434	3.817	-0.125	-0.091
-623.419	-200.000	0.025	-0.192
-622.405	-45.088	0.260	-0.129
-621.390	-10.168	0.166	-0.110
-620.376	-50.164	-0.292	0.138
-619.361	-70.883	-0.210	-0.079
-618.346	-47.947	0.514	-0.248
-617.332	-61.871	-0.033	0.014
-616.317	-200.000	0.001	0.183
-615.303	-149.113	-0.309	-0.025
-614.288	113.248	0.149	0.181
-613.273	-200.000	0.001	-0.188
-612.259	113.638	0.082	0.100
-611.244	-76.769	0.091	-0.032
-610.230	-94.040	0.282	-0.077
-609.215	78.194	-0.166	-0.177
-608.201	-200.000	-0.004	0.021
-607.186	561.042	0.138	0.333
-606.171	-11.456	0.333	0.219
-605.157	719.235	-0.142	0.377
-604.142	-200.000	0.043	-0.206
-603.128	180.944	-0.089	0.131
-602.113	-36.420	0.047	-0.026
-601.098	-9.285	0.112	-0.075
-600.084	135.117	-0.110	0.142
-599.069	-200.000	0.027	0.167
-598.055	38.090	-0.110	-0.098
-597.040	70.263	-0.241	-0.249
-596.025	111.299	0.032	0.039
-595.011	144.786	0.127	-0.169
-593.996	225.245	-0.114	-0.184
-592.982	-167.668	-0.213	0.008
-591.967	649.479	0.020	-0.052
-590.952	163.671	0.115	0.161
-589.938	-111.866	0.243	-0.049
-588.923	-14.751	0.199	0.128
-587.909	216.702	0.190	-0.301
-586.894	526.102	-0.092	-0.217
-585.879	-146.461	0.094	-0.008
-584.865	15.678	-0.328	-0.257
-583.850	410.534	0.127	-0.268
-582.836	73.916	0.259	0.271
-581.821	725.988	-0.128	-0.340
-580.806	252.334	0.039	-0.066
-579.792	-38.818	0.150	-0.079
-578.777	-35.632	0.080	-0.043
-577.763	-69.793	0.157	-0.060
-576.748	-128.287	0.175	0.025
-575.733	-135.391	-0.042	-0.005
-574.719	73.840	0.179	-0.187
-573.704	-200.000	0.014	-0.171
-572.690	-96.956	0.272	0.071
-571.675	-160.865	0.110	0.006
-570.661	-33.984	-0.277	-0.152
-569.646	93.643	0.207	0.234
-568.631	-144.384	-0.194	0.018
-567.617	-200.000	-0.010	-0.200
-566.602	2.618	-0.080	-0.058
-565.588	-200.000	-0.016	-0.088
-564.573	120.067	0.125	-0.155
-563.558	200.336	0.138	-0.212
-562.544	800.000	0.138	-0.407
-561.529	-200.000	-0.034	-0.267
-560.515	-139.388	0.203	-0.022
-559.500	-200.000	-0.007	-0.042
-558.485	-200.000	0.023	-0.128
-557.471	-200.000	-0.033	0.202
-556.456	-15.417	0.259	-0.165
-555.442	-200.000	0.077	-0.382
-554.427	-54.791	0.194	0.087
-553.412	-200.000	-0.051	0.331
-552.398	58.401	0.099	-0.097
-551.383	423.844	-0.132	0.284
-550.369	646.020	-0.018	-0.045
-549.354	-178.764	-0.215	-0.005
-548.339	-108.217	0.076	0.016
-547.325	-5.305	0.296	0.203
-546.310	348.302	-0.129	-0.254
-545.296	800.000	0.014	0.050
-544.281	-200.000	-0.087	0.482
-543.266	-28.666	0.077	0.044
-542.252	79.095	-0.212	0.226
-541.237	-82.048	0.206	-0.067
-540.223	-162.080	-0.196	-0.010
-539.208	-37.966	0.087	-0.046
-538.193	199.402	0.233	-0.355
-537.179	-2.550	0.302	-0.210
-536.164	800.000	0.058	-0.249
-535.150	-200.000	0.021	-0.183
-534.135	101.234	-0.147	-0.170
-533.121	8.788	-0.125	-0.094
-532.106	-200.000	0.018	-0.150
-531.091	532.536	-0.188	-0.442
-530.077	-86.244	0.441	-0.135
-529.062	-43.734	-0.197	0.099
-528.048	737.066	0.031	-0.082
-527.033	25.657	0.202	-0.167
-526.018	326.515	-0.278	0.529
-525.004	-135.044	-0.330	-0.040
-523.989	-150.934	0.227	-0.017
-522.975	-189.848	-0.184	-0.002
-521.960	-152.199	-0.171	-0.012
-520.945	-12.894	-0.121	0.078
-519.931	223.288	-0.168	0.269
-518.916	225.982	0.008	0.012
-517.902	256.551	-0.151	-0.258
-516.887	-200.000	0.055	-0.328
-515.872	105.303	0.066	-0.078
-514.858	800.000	0.042	-0.156
-513.843	77.385	0.081	0.085
-512.829	800.000	-0.091	0.301
-511.814	-200.000	-0.026	0.336
-510.799	-46.270	0.408	0.200
-509.785	719.403	0.047	0.125
-508.770	-28.777	0.201	-0.115
-507.756	43.781	-0.274	-0.250
-506.741	1.520	0.077	-0.055
-505.726	-145.022	0.244	0.022
-504.712	-200.000	-0.017	0.323
-503.697	-50.607	-0.326	0.153
-502.683	800.000	-0.059	-0.171
-501.668	42.451	-0.186	0.168
-500.653	-147.707	-0.279	-0.023
-499.639	-100.539	0.262	0.064
-498.624	261.723	-0.085	0.147
-497.610	329.385	0.060	-0.114
-496.595	-52.079	0.222	-0.102
-495.581	-200.000	0.017	0.194
-494.566	-173.816	-0.569	0.017
-493.551	-200.000	0.025	-0.198
-492.537	-200.000	0.002	-0.228
-491.522	182.215	-0.082	0.121
-490.508	-46.566	-0.212	-0.104
-489.493	571.687	0.061	-0.147
-488.478	275.527	0.147	-0.260
-487.464	126.262	-0.121	0.152
-486.449	58.347	0.366	0.356
-485.435	45.851	0.162	0.149
-484.420	-21.944	-0.248	0.150
-483.405	239.736	-0.117	0.194
-482.391	105.526	0.143	0.168
-481.376	-100.163	0.026	-0.006
-480.362	479.680	0.052	0.117
-479.347	-200.000	-0.026	0.183
-478.332	292.638	0.241	-0.437
-477.318	-53.350	-0.121	0.055
-476.303	800.000	0.072	0.310
-475.289	-181.300	-0.031	-0.001
-474.274	216.679	-0.116	-0.183
-473.259	69.197	-0.211	-0.215
-472.245	496.619	0.045	-0.103
-471.230	127.634	0.187	0.236
-470.216	800.000	-0.076	-0.226
-469.201	240.366	0.155	-0.257
-468.186	-89.483	-0.115	-0.034
-467.172	350.497	-0.119	-0.234
-466.157	96.521	0.149	0.169
-465.143	-23.896	0.210	0.125
-464.128	-42.143	0.156	0.079
-463.113	40.200	-0.354	0.316
-462.099	9.946	-0.054	-0.040
-461.084	388.105	0.057	-0.116
-460.070	-159.292	0.112	0.006
-459.055	595.952	0.030	0.074
-458.040	591.062	0.214	0.523
-457.026	-129.131	0.237	0.033
-456.011	300.834	0.110	0.202
-454.997	82.026	0.160	0.173
-453.982	152.298	-0.141	0.191
-452.968	583.630	-0.095	0.230
-451.953	132.052	0.031	0.039
-450.938	800.000	0.031	-0.088
-449.924	-200.000	0.363	0.001
-448.909	-178.702	0.072	-0.002
-447.895	-68.850	0.070	0.027
-446.880	-20.405	-0.081	-0.049
-445.865	-100.702	-0.319	-0.078
-444.851	-15.706	-0.039	0.024
-443.836	-200.000	0.032	0.194
-442.822	205.517	-0.135	0.209
-441.807	800.000	0.071	-0.238
-440.792	-182.063	-0.689	0.013
-439.778	-56.102	0.242	0.107
-438.763	-200.000	0.043	-0.249
-437.749	-47.947	-0.155	-0.075
-436.734	140.113	-0.145	-0.190
-435.719	800.000	-0.039	-0.145
-434.705	-24.773	-0.200	-0.118
-433.690	-15.407	-0.077	-0.049
-432.676	144.227	0.308	-0.407
-431.661	-200.000	0.041	-0.302
-430.646	495.219	-0.092	0.209
-429.632	701.666	0.037	0.097
-428.617	-75.127	0.334	-0.118
-427.603	-130.716	-0.343	-0.046
-426.588	-7.423	0.198	0.133
-425.573	-143.576	-0.131	0.012
-424.559	-74.301	-0.149	0.054
-423.544	67.244	0.070	0.071
-422.530	670.611	0.120	0.308
-421.515	-5.403	-0.183	-0.125
-420.500	-96.972	0.162	0.042
-419.486	275.921	0.058	-0.101
-418.471	800.000	0.159	-0.530
-417.457	-200.000	0.005	-0.181
-416.442	44.493	0.077	0.070
-415.428	87.406	-0.054	-0.059
-414.413	-200.000	-0.028	-0.179
-413.398	9.910	0.390	0.293
-412.384	-200.000	-0.005	0.269
-411.369	800.000	0.117	-0.330
-410.355	229.952	-0.157	0.255
-409.340	45.175	0.065	0.059
-408.325	-92.641	-0.357	-0.099
-407.311	-200.000	0.016	-0.176
-406.296	-200.000	0.044	0.191
-405.282	-22.101	-0.176	0.106
-404.267	-141.670	0.185	-0.018
-403.252	-74.798	0.242	-0.086
-402.238	218.769	0.338	0.534
-401.223	800.000	-0.062	-0.232
-400.209	-80.856	0.106	-0.035
-399.194	-200.000	0.000	0.040
-398.179	104.308	-0.067	0.078
-397.165	800.000	0.112	0.311
-396.150	-49.590	0.132	-0.062
-395.136	35.098	0.234	-0.203
-394.121	35.519	-0.089	0.078
-393.106	-128.224	0.093	0.013
-392.092	136.989	-0.108	-0.140
-391.077	-60.143	-0.304	0.128
-390.063	-140.155	0.143	0.015
-389.048	-200.000	0.011	0.261
-388.033	272.238	-0.062	0.108
-387.019	-4.545	-0.298	0.204
-386.004	-200.000	0.027	0.137
-384.990	-103.710	-0.252	0.058
-383.975	-29.811	-0.067	0.038
-382.960	-200.000	0.000	-0.200
-381.946	-32.963	0.147	0.081
-380.931	57.843	-0.188	0.182
-379.917	-25.988	-0.254	0.148
-378.902	-200.000	0.013	0.138
-377.888	-94.884	0.074	-0.020
-376.873	374.567	-0.193	0.389
-375.858	145.304	-0.081	-0.107
-374.844	82.096	-0.059	-0.063
-373.829	800.000	0.084	-0.281
-372.815	419.047	0.069	-0.146
-371.800	-145.509	-0.039	-0.003
-370.785	-115.262	0.128	-0.024
-369.771	-200.000	0.034	0.233
-368.756	178.403	-0.050	0.072
-367.742	-200.000	0.017	0.075
-366.727	-60.743	-0.217	-0.091
-365.712	146.153	-0.040	0.054
-364.698	-93.429	-0.187	-0.051
-363.683	178.424	0.075	0.109
-362.669	-200.000	0.067	0.336
-361.654	-93.988	0.213	-0.058
-360.639	155.864	0.093	-0.127
-359.625	-42.528	-0.119	0.060
-358.610	521.966	0.100	-0.233
-357.596	61.757	-0.198	-0.195
-356.581	391.062	-0.045	0.092
-355.566	-67.520	0.112	-0.044
-354.552	800.000	-0.013	-0.043
-353.537	77.205	0.157	-0.165
-352.523	422.824	-0.113	-0.240
-351.508	-111.005	-0.137	0.028
-350.493	-200.000	0.054	-0.290
-349.479	-200.000	-0.010	-0.099
-348.464	-9.975	0.103	-0.068
-347.450	-10.242	-0.102	-0.067
-346.435	-200.000	-0.043	-0.203
-345.420	800.000	-0.079	0.219
-344.406	-181.467	-0.046	-0.001
-343.391	-200.000	-0.022	0.132
-342.377	-102.495	-0.191	0.045
-341.362	-127.855	0.255	-0.036
-340.348	-123.802	-0.022	-0.003
-339.333	-142.701	-0.306	-0.030
-338.318	28.288	-0.331	-0.276
-337.304	-15.959	0.188	-0.118
-336.289	8.682	-0.309	-0.230
-335.275	666.419	0.059	-0.151
-334.260	-200.000	-0.001	0.007
-333.245	-200.000	0.029	-0.381
-332.231	-46.929	-0.044	-0.021
-331.216	-200.000	0.016	0.077
-330.202	-79.749	-0.210	0.070
-329.187	-42.300	-0.197	-0.099
-328.172	442.282	-0.107	0.232
-327.158	-108.212	0.212	-0.045
-326.143	256.036	-0.101	-0.172
-325.129	-121.763	-0.263	-0.043
-324.114	-117.927	-0.334	-0.059
-323.099	121.640	-0.084	0.103
-322.085	290.961	-0.068	-0.122
-321.070	-20.176	0.172	-0.104
-320.056	114.194	0.122	-0.146
-319.041	-154.541	-0.146	0.010
-318.026	-112.674	-0.189	0.037
-317.012	-28.849	-0.071	0.040
-315.997	-200.000	-0.063	0.347
-314.983	-114.866	-0.043	-0.008
-313.968	-96.681	-0.297	0.077
-312.953	-128.753	-0.236	-0.033
-311.939	390.126	-0.124	0.253
-310.924	-200.000	0.041	0.269
-309.910	800.000	-0.016	-0.067
-308.895	-200.000	-0.004	0.375
-307.880	-90.452	0.286	-0.082
-306.866	170.011	0.042	0.060
-305.851	90.044	0.041	-0.045
-304.837	-200.000	0.013	-0.278
-303.822	156.909	0.078	0.106
-302.807	281.303	0.151	0.268
-301.793	206.045	0.108	0.166
-300.778	230.122	-0.063	0.102
-299.764	-200.000	-0.021	0.193
-298.749	-200.000	0.070	0.486
-297.735	-200.000	0.003	0.147
-296.720	-64.280	-0.161	0.064
-295.705	82.741	0.147	-0.157
-294.691	800.000	0.053	-0.153
-293.676	176.007	0.147	0.210
-292.662	800.000	0.004	-0.018
-291.647	-22.897	0.234	0.139
-290.632	-128.703	0.149	0.021
-289.618	-75.702	-0.195	-0.068
-288.603	20.627	-0.207	-0.166
-287.589	-76.809	-0.531	0.183
-286.574	-73.756	0.242	-0.087
-285.559	-44.525	0.413	-0.203
-284.545	-90.667	0.157	-0.045
-283.530	800.000	0.012	-0.051
-282.516	12.309	-0.140	0.106
-281.501	-155.696	-0.181	0.011
-280.486	83.417	0.200	-0.215
-279.472	667.749	0.051	0.131
-278.457	6.349	0.277	0.203
-277.443	-26.685	-0.163	0.094
-276.428	-30.578	-0.176	0.098
-275.413	622.171	-0.254	0.630
-274.399	235.078	-0.362	0.588
-273.384	636.085	-0.092	-0.231
-272.370	-200.000	0.040	-0.209
-271.355	16.272	-0.071	0.055
-270.340	252.251	-0.113	0.190
-269.326	142.256	0.113	-0.148
-268.311	-134.661	-0.067	-0.008
-267.297	-110.815	0.320	-0.065
-266.282	-2.407	-0.080	-0.055
-265.267	-75.504	0.244	-0.086
-264.253	-145.446	-0.293	0.026
-263.238	-47.500	0.295	0.141
-262.224	169.193	0.139	-0.195
-261.209	-200.000	-0.023	0.384
-260.195	250.938	0.161	-0.269
-259.180	-75.345	-0.121	-0.043
-258.165	-200.000	0.015	0.086
-257.151	-97.757	0.094	0.024
-256.136	800.000	-0.059	-0.199
-255.122	-200.000	-0.024	0.263
-254.107	-40.312	0.232	-0.119
-253.092	-133.359	0.109	-0.013
-252.078	-89.886	0.126	0.036
-251.063	90.149	-0.322	0.355
-250.049	193.569	0.094	0.140
-249.034	102.314	0.093	0.107
-248.019	-141.829	-0.146	-0.014
-247.005	800.000	0.032	0.111
-245.990	-120.824	0.131	0.022
-244.976	-134.537	-0.169	-0.020
-243.961	31.662	0.216	0.183
-242.946	-18.026	0.266	0.164
-241.932	65.295	0.138	0.138
-240.917	-200.000	-0.012	-0.216
-239.903	10.684	0.262	-0.197
-238.888	-126.089	0.295	-0.044
-237.873	3.873	0.199	0.143
-236.859	93.755	-0.064	-0.072
-235.844	-73.319	-0.304	-0.109
-234.830	-1.104	0.140	-0.097
-233.815	-93.079	-0.247	0.068
-232.800	-19.149	0.089	-0.054
-231.786	-200.000	-0.027	-0.152
-230.771	-200.000	-0.001	-0.267
-229.757	45.845	0.099	-0.090
-228.742	29.184	0.305	0.255
-227.727	53.866	0.384	-0.363
-226.713	45.987	-0.217	0.197
-225.698	172.304	-0.166	0.235
-224.684	800.000	-0.031	-0.129
-223.669	209.632	-0.360	-0.555
-222.655	-67.703	0.104	-0.040
-221.640	-52.586	-0.125	0.057
-220.625	800.000	-0.091	-0.341
-219.611	-200.000	-0.024	0.185
-218.596	-200.000	-0.015	0.114
-217.582	342.286	0.042	-0.080
-216.567	-56.214	-0.174	0.076
-215.552	-94.799	0.272	0.073
-214.538	398.215	-0.051	-0.105
-213.523	693.602	-0.056	-0.145
-212.509	208.068	-0.048	-0.074
-211.494	-60.627	0.283	-0.118
-210.479	-71.141	0.076	0.028
-209.465	122.092	0.117	0.143
-208.450	160.401	0.092	0.127
-207.436	-65.420	-0.188	-0.074
-206.421	-113.663	0.238	0.046
-205.406	387.517	-0.021	-0.043
-204.392	511.194	-0.070	-0.160
-203.377	800.000	0.022	-0.085
-202.363	-60.717	-0.223	0.093
-201.348	-200.000	0.031	-0.272
-200.333	-200.000	-0.024	0.407
-199.319	-8.000	0.226	0.150
-198.304	-85.774	-0.123	0.037
-197.290	23.906	0.072	-0.058
-196.275	-170.575	-0.239	-0.008
-195.260	-153.998	0.171	0.011
-194.246	125.770	0.098	-0.122
-193.231	95.681	-0.256	0.287
-192.217	218.489	-0.120	0.189
-191.202	405.629	-0.073	0.151
-190.187	-6.241	0.119	0.080
-189.173	128.840	-0.172	0.215
-188.158	-168.216	-0.386	0.015
-187.144	-200.000	-0.035	-0.454
-186.129	-76.352	-0.100	0.034
-185.114	800.000	-0.016	-0.057
-184.100	325.097	-0.174	0.327
-183.085	104.820	-0.185	0.214
-182.071	800.000	-0.103	-0.302
-181.056	-200.000	0.013	-0.155
-180.042	199.960	0.016	0.023
-179.027	104.260	-0.102	0.118
-178.012	-54.070	-0.222	0.099
-176.998	37.213	0.266	-0.231
-175.983	800.000	0.031	0.088
-174.969	-35.499	-0.245	-0.131
-173.954	-52.599	0.136	0.062
-172.939	-78.504	0.218	-0.073
-171.925	143.900	0.105	-0.137
-170.910	-48.396	0.175	-0.083
-169.896	188.125	-0.099	-0.145
-168.881	364.206	0.118	0.233
-167.866	-48.274	0.333	-0.158
-166.852	-200.000	0.073	-0.345
-165.837	800.000	-0.075	-0.210
-164.823	749.786	-0.040	0.107
-163.808	-200.000	0.020	0.098
-162.793	-200.000	0.003	-0.023
-161.779	233.761	0.102	0.165
-160.764	-200.000	0.024	-0.190
-159.750	-112.653	-0.102	-0.020
-158.735	800.000	-0.076	-0.253
-157.720	136.260	0.230	0.294
-156.706	290.474	0.083	-0.147
-155.691	800.000	-0.086	0.287
-154.677	221.830	-0.076	-0.120
-153.662	275.366	0.136	0.237
-152.647	371.892	-0.178	0.354
-151.633	707.775	0.172	-0.446
-150.618	476.008	0.103	0.229
-149.604	-92.330	-0.133	0.037
-148.589	361.912	-0.042	-0.083
-147.574	9.493	0.273	-0.203
-146.560	32.616	-0.232	-0.196
-145.545	204.725	0.199	-0.303
-144.531	374.655	-0.124	-0.247
-143.516	-15.412	0.099	0.062
-142.502	-123.522	0.036	-0.006
-141.487	115.612	0.237	0.284
-140.472	175.300	-0.023	-0.033
-139.458	-98.453	0.268	-0.067
-138.443	-13.121	-0.038	0.024
-137.429	-90.001	-0.082	0.024
-136.414	-56.495	0.191	-0.083
-135.399	317.042	0.098	-0.182
-134.385	-187.345	-0.326	-0.004
-133.370	112.901	0.244	-0.289
-132.356	0.724	0.201	0.141
-131.341	405.615	-0.019	0.040
-130.326	-200.000	0.010	-0.114
-129.312	-200.000	-0.057	0.476
-128.297	45.701	-0.066	0.059
-127.283	-75.877	0.220	-0.077
-126.268	-88.042	0.219	0.064
-125.253	-76.730	0.215	-0.074
-124.239	-1.168	0.239	-0.166
-123.224	361.825	-0.220	0.433
-122.210	-135.061	0.157	0.019
-121.195	124.893	-0.107	0.132
-120.180	269.955	-0.029	0.050
-119.166	106.168	0.182	-0.211
-118.151	800.000	0.062	-0.255
-117.137	-54.167	0.463	-0.206
-116.122	-67.038	0.063	0.024
-115.107	-121.277	-0.270	-0.044
-114.093	417.288	0.116	-0.243
-113.078	-200.000	0.003	0.323
-112.064	800.000	-0.123	-0.418
-111.049	175.504	-0.083	0.118
-110.034	-200.000	-0.062	-0.297
-109.020	-153.366	0.226	0.015
-108.005	-200.000	-0.051	-0.226
-106.991	-200.000	0.008	0.040
-105.976	6.153	0.171	-0.124
-104.962	20.975	0.298	-0.237
-103.947	-184.190	-0.193	-0.003
-102.932	-77.546	-0.107	0.036
-101.918	-107.173	0.458	0.099
-100.903	-199.199	-0.283	-0.001
-99.889	113.315	-0.218	-0.259
-98.874	800.000	0.065	-0.194
-97.859	246.023	-0.065	-0.108
-96.845	800.000	0.091	0.284
-95.830	-13.534	0.253	0.160
-94.816	-144.428	0.286	0.026
-93.801	800.000	0.034	-0.093
-92.786	-200.000	0.014	0.065
-91.772	550.468	0.182	-0.427
-90.757	27.962	0.380	0.314
-89.743	-144.396	-0.247	-0.022
-88.728	28.043	0.165	-0.136
-87.713	-163.943	0.186	-0.008
-86.699	-55.978	-0.164	0.072
-85.684	800.000	0.064	0.248
-84.670	-19.815	-0.003	-0.002
-83.655	-1.712	-0.191	-0.132
-82.640	-46.920	0.141	0.067
-81.626	330.140	0.162	-0.306
-80.611	95.232	-0.098	0.110
-79.597	-200.000	0.118	-0.533
-78.582	-80.087	-0.075	-0.024
-77.567	266.745	-0.125	0.213
-76.553	-49.531	0.132	0.061
-75.538	15.112	0.119	0.091
-74.524	-36.428	0.026	0.013
-73.509	-81.208	0.183	0.059
-72.494	-200.000	-0.001	-0.256
-71.480	56.412	0.114	-0.109
-70.465	42.337	-0.129	0.115
-69.451	680.137	0.073	0.186
-68.436	-200.000	0.052	0.303
-67.422	-11.231	0.156	-0.101
-66.407	-200.000	-0.005	-0.325
-65.392	-59.609	0.257	0.108
-64.378	-138.551	0.282	-0.030
-63.363	1.755	-0.143	-0.101
-62.349	-200.000	0.037	-0.336
-61.334	66.022	-1.105	-1.095
-60.319	-1.132	0.691	0.478
-59.305	420.514	-0.502	-1.051
-58.290	435.941	0.513	1.092
-57.276	251.371	0.847	1.407
-56.261	-200.000	115.592	646.274
-55.246	515.493	1527.632	3485.885
-54.232	176.458	2705.047	3840.562
-53.217	99.772	2285.036	2585.417
-52.203	35.800	1894.410	1627.187
-51.188	29.813	1688.798	1405.200
-50.173	27.529	1647.309	1353.674
-49.159	47.579	1703.714	1552.119
-48.144	46.423	1717.501	1555.883
-47.130	29.429	1675.507	1391.023
-46.115	26.908	1660.978	1360.040
-45.100	26.709	1656.459	1354.799
-44.086	26.722	1653.736	1352.617
-43.071	26.791	1650.694	1350.584
-42.057	26.703	1648.632	1348.192
-41.042	26.663	1647.025	1346.527
-40.027	26.685	1644.962	1344.949
-39.013	26.716	1642.690	1343.270
-37.998	26.617	1641.542	1341.540
-36.984	26.680	1640.200	1340.859
-35.969	26.716	1638.981	1340.075
-34.954	26.768	1637.023	1338.810
-33.940	26.776	1635.020	1337.170
-32.925	26.778	1633.230	1335.671
-31.911	26.824	1631.956	1334.915
-30.896	26.846	1629.623	1333.118
-29.881	26.787	1628.802	1331.958
-28.867	26.881	1626.820	1330.970
-27.852	26.873	1625.218	1329.555
-26.838	26.768	1624.313	1327.987
-25.823	26.841	1622.465	1326.962
-24.809	26.865	1621.507	1326.296
-23.794	26.829	1620.045	1324.785
-22.779	26.840	1618.732	1323.743
-21.765	26.832	1616.986	1322.205
-20.750	26.876	1614.658	1320.566
-19.736	26.762	1614.524	1319.577
-18.721	26.811	1612.914	1318.562
-17.706	26.848	1611.232	1317.402
-16.692	26.799	1609.828	1315.847
-15.677	26.865	1607.907	1314.708
-14.663	26.942	1606.946	1314.422
-13.648	26.838	1605.419	1312.374
-12.633	26.816	1604.289	1311.239
-11.619	26.776	1602.536	1309.460
-10.604	26.880	1600.466	1308.470
-9.590	26.914	1599.327	1307.732
-8.575	26.916	1597.907	1306.534
-7.560	26.916	1596.526	1305.353
-6.546	26.834	1595.548	1303.914
-5.531	26.825	1595.009	1303.357
-4.517	26.904	1593.307	1302.478
-3.502	26.835	1592.462	1301.242
-2.487	26.891	1590.879	1300.298
-1.473	26.449	1579.200	1287.553
-0.458	23.492	1559.002	1250.223
0.556	20.676	1561.017	1217.933
1.571	18.344	1585.084	1220.006
2.586	18.070	1596.961	1227.074
3.600	15.769	1542.323	1169.015
4.615	9.305	1435.971	1046.362
5.629	4.098	1376.866	970.643
6.644	3.283	1369.976	960.617
7.659	3.193	1368.928	959.236
8.673	3.118	1368.239	958.203
9.688	3.136	1366.281	956.854
10.702	3.211	1362.838	954.829
11.717	5.661	1367.500	973.240
12.731	12.910	1380.644	1027.837
13.746	19.002	1391.230	1073.773
14.761	20.500	1392.139	1083.728
15.775	19.900	1390.062	1078.282
16.790	18.873	1387.828	1070.056
17.804	18.053	1385.662	1063.194
18.819	17.694	1384.302	1059.829
19.834	17.515	1383.333	1057.881
20.848	17.434	1381.921	1056.203
21.863	17.261	1380.832	1054.200
22.877	17.191	1379.757	1052.856
23.892	17.082	1378.840	1051.386
24.907	17.044	1378.160	1050.543
25.921	17.129	1376.737	1049.885
26.936	17.108	1375.887	1049.019
27.950	17.188	1374.914	1048.676
28.965	17.256	1374.027	1048.326
29.980	17.332	1372.912	1047.852
30.994	17.459	1371.633	1047.564
32.009	17.515	1370.908	1047.265
33.023	17.415	1369.720	1045.646
34.038	17.330	1368.291	1043.943
35.053	17.288	1367.032	1042.634
36.067	17.196	1365.701	1040.962
37.082	17.271	1364.662	1040.536
38.096	17.432	1363.667	1040.671
39.111	17.423	1362.790	1039.853
40.126	17.224	1362.038	1037.971
41.140	17.042	1361.104	1036.056
42.155	16.931	1360.439	1034.784
43.169	16.858	1360.597	1034.364
44.184	16.844	1360.327	1033.986
45.199	17.020	1359.383	1034.248
46.213	16.934	1359.213	1033.505
47.228	17.123	1358.617	1034.112
48.242	17.215	1356.969	1033.321
49.257	17.157	1355.474	1031.741
50.271	17.182	1354.157	1030.797
51.286	17.246	1352.846	1030.099
52.301	17.216	1351.876	1029.085
53.315	17.162	1350.440	1027.577
54.330	17.035	1349.439	1025.954
55.344	16.936	1348.921	1024.872
56.359	16.917	1347.658	1023.705
57.374	16.962	1346.556	1023.050
58.388	16.844	1345.524	1021.463
59.403	16.822	1345.237	1021.022
60.417	16.747	1344.234	1019.722
61.432	16.846	1343.376	1019.577
62.447	16.693	1342.534	1017.926
63.461	16.759	1341.241	1017.254
64.476	16.670	1339.983	1015.673
65.490	16.617	1338.921	1014.462
66.505	16.673	1337.389	1013.546
67.520	16.808	1336.203	1013.367
68.534	16.793	1334.580	1011.958
69.549	16.681	1334.503	1011.137
70.563	16.760	1332.781	1010.216
71.578	16.654	1331.618	1008.612
72.593	16.495	1330.775	1006.942
73.607	16.564	1330.064	1006.725
74.622	16.567	1329.278	1006.058
75.636	16.608	1328.580	1005.683
76.651	16.666	1327.965	1005.474
77.666	16.656	1327.623	1005.068
78.680	16.713	1327.079	1004.905
79.695	16.737	1326.306	1004.372
80.709	16.871	1325.922	1004.783
81.724	16.849	1325.264	1004.065
82.739	16.927	1324.204	1003.640
83.753	17.022	1323.991	1003.951
84.768	17.276	1322.603	1004.306
85.782	17.251	1320.953	1002.817
86.797	17.250	1320.177	1002.133
87.812	17.154	1318.675	1000.342
88.826	17.170	1317.731	999.629
89.841	17.234	1316.270	998.813
90.855	17.290	1315.856	998.737
91.870	17.327	1314.936	998.168
92.884	17.363	1313.949	997.544
93.899	17.404	1313.218	997.139
94.914	17.388	1312.689	996.556
95.928	17.415	1311.599	995.797
96.943	17.251	1310.992	994.291
97.957	17.286	1309.897	993.577
98.972	17.246	1308.918	992.508
99.987	17.273	1307.844	991.767
101.001	17.262	1306.716	990.757
102.016	17.213	1305.915	989.776
103.030	17.368	1305.455	990.243
104.045	17.211	1304.224	988.310
105.060	17.188	1302.510	986.788
106.074	16.960	1301.003	984.236
107.089	16.863	1299.263	982.270
108.103	16.770	1298.338	980.948
109.118	16.710	1297.220	979.669
110.133	16.748	1296.279	979.091
111.147	16.889	1294.364	978.373
112.162	16.887	1293.312	977.478
113.176	16.948	1292.176	976.888
114.191	16.976	1291.154	976.188
115.206	16.867	1290.553	975.020
116.220	16.966	1288.794	974.172
117.235	16.793	1287.803	972.345
118.249	16.796	1286.702	971.447
119.264	16.798	1285.382	970.372
120.279	16.756	1284.216	969.171
121.293	16.653	1283.416	967.890
122.308	16.688	1282.018	966.949
123.322	16.674	1280.822	965.884
124.337	16.535	1280.035	964.413
125.352	16.639	1278.729	963.936
126.366	16.668	1277.343	962.967
127.381	16.591	1276.965	962.161
128.395	16.690	1275.813	961.773
129.410	16.745	1274.671	961.138
130.424	16.843	1273.725	960.893
131.439	16.842	1273.099	960.330
132.454	16.813	1272.159	959.371
133.468	16.800	1271.545	958.748
134.483	17.016	1270.480	959.085
135.497	16.879	1270.056	957.903
136.512	16.929	1268.500	956.931
137.527	16.933	1267.488	956.105
138.541	16.959	1266.020	955.057
139.556	17.057	1264.518	954.394
140.570	17.121	1263.871	954.179
141.585	17.109	1262.722	953.158
142.600	17.289	1261.167	952.910
143.614	17.298	1260.760	952.570
144.629	17.479	1259.086	952.230
145.643	17.231	1258.891	950.615
146.658	17.156	1257.377	948.964
147.673	17.097	1255.642	947.243
148.687	16.981	1254.691	945.799
149.702	16.895	1253.405	944.263
150.716	16.864	1252.109	943.034
151.731	16.900	1251.251	942.503
152.746	16.927	1249.772	941.455
153.760	17.092	1248.315	941.186
154.775	17.179	1247.544	941.003
155.789	17.214	1246.536	940.356
156.804	17.194	1245.738	939.558
157.819	17.133	1244.858	938.476
158.833	17.328	1244.276	939.030
159.848	17.480	1243.033	938.849
160.862	17.516	1241.509	937.814
161.877	17.123	1240.709	934.964
162.892	17.062	1239.503	933.634
163.906	17.068	1238.508	932.836
164.921	17.060	1237.726	932.123
165.935	17.091	1236.853	931.550
166.950	17.031	1236.904	931.177
167.964	17.097	1235.958	930.742
168.979	17.163	1235.008	930.309
169.994	17.178	1234.021	929.566
171.008	17.189	1233.582	929.211
172.023	17.296	1232.610	928.981
173.037	17.312	1232.194	928.673
174.052	17.372	1230.742	927.822
175.067	17.222	1229.484	925.977
176.081	17.041	1228.251	923.983
177.096	17.080	1227.510	923.554
178.110	17.102	1226.760	923.028
179.125	17.166	1225.221	922.138
180.140	17.201	1224.323	921.571
181.154	17.287	1222.901	920.881
182.169	17.447	1221.646	920.723
183.183	17.444	1220.840	920.018
184.198	17.495	1219.696	919.349
185.213	17.559	1218.533	918.737
186.227	17.529	1217.674	917.845
187.242	17.542	1217.093	917.396
188.256	17.688	1215.690	917.043
189.271	17.686	1214.509	916.060
190.286	17.518	1213.283	914.153
191.300	17.053	1212.582	911.046
192.315	17.173	1211.566	910.847
193.329	17.079	1211.073	909.892
194.344	17.100	1210.769	909.694
195.359	17.228	1210.669	910.227
196.373	17.358	1209.895	910.260
197.388	17.507	1209.850	910.944
198.402	17.634	1209.169	911.029
199.417	17.673	1208.807	910.885
200.432	17.775	1208.090	910.806
201.446	17.822	1207.282	910.366
202.461	17.992	1206.244	910.411
203.475	17.970	1205.318	909.515
204.490	17.751	1203.519	906.910
205.504	17.605	1202.725	905.459
206.519	17.595	1201.594	904.474
207.534	17.676	1199.805	903.477
208.548	17.712	1199.242	903.164
209.563	17.694	1198.630	902.524
210.577	17.597	1197.657	901.201
211.592	17.635	1196.640	900.554
212.607	17.876	1195.804	901.120
213.621	17.831	1195.640	900.676
214.636	17.744	1194.415	899.219
215.650	17.921	1193.229	899.178
216.665	17.940	1192.415	898.586
217.680	18.127	1191.827	899.045
218.694	18.161	1190.675	898.273
219.709	18.052	1189.851	897.001
220.723	17.996	1189.183	896.125
221.738	17.935	1188.576	895.270
222.753	17.962	1187.587	894.587
223.767	17.902	1187.575	894.185
224.782	18.058	1186.660	894.230
225.796	18.217	1185.991	894.482
226.811	18.145	1185.181	893.414
227.826	18.015	1184.285	891.981
228.840	17.904	1184.003	891.109
229.855	17.966	1183.474	890.954
230.869	17.926	1182.196	889.708
231.884	17.908	1181.422	888.951
232.899	17.904	1180.445	888.117
233.913	17.753	1179.986	886.906
234.928	17.828	1178.911	886.412
235.942	17.841	1177.789	885.559
236.957	17.750	1177.618	884.878
237.972	17.805	1176.510	884.252
238.986	17.768	1176.287	883.815
240.001	17.739	1175.680	883.128
241.015	17.862	1174.342	882.682
242.030	18.005	1173.664	882.832
243.045	18.057	1172.829	882.395
244.059	18.056	1172.416	882.001
245.074	17.997	1171.811	881.165
246.088	18.146	1171.174	881.377
247.103	18.199	1170.055	880.727
248.117	18.262	1169.436	880.510
249.132	18.372	1168.929	880.615
250.147	18.541	1168.411	881.016
251.161	18.751	1167.243	881.135
252.176	18.659	1166.773	880.231
253.190	18.729	1166.200	880.080
254.205	18.747	1165.889	879.859
255.220	18.704	1165.054	878.932
256.234	18.778	1164.346	878.695
257.249	18.715	1163.560	877.702
258.263	18.718	1162.872	877.120
259.278	18.749	1162.141	876.650
260.293	18.747	1161.701	876.231
261.307	18.866	1160.858	876.125
262.322	18.911	1160.202	875.783
263.336	18.896	1159.733	875.272
264.351	18.942	1159.119	874.969
265.366	19.048	1158.435	874.913
266.380	18.927	1157.741	873.695
267.395	18.743	1157.078	872.185
268.409	18.863	1156.003	871.907
269.424	18.647	1155.795	870.577
270.439	18.720	1154.977	870.250
271.453	18.777	1154.024	869.745
272.468	18.595	1153.241	868.157
273.482	18.607	1152.244	867.391
274.497	18.647	1152.072	867.388
275.512	18.788	1150.973	867.194
276.526	18.679	1150.169	865.961
277.541	18.704	1149.349	865.396
278.555	18.771	1148.754	865.207
279.570	18.842	1148.721	865.463
280.585	18.954	1147.802	865.261
281.599	18.949	1146.898	864.475
282.614	18.835	1145.810	863.007
283.628	18.749	1144.146	861.243
284.643	18.790	1143.328	860.760
285.657	18.968	1142.067	860.624
286.672	18.907	1141.252	859.628
287.687	18.796	1140.681	858.570
288.701	18.934	1139.843	858.551
289.716	18.834	1139.472	857.698
290.730	18.914	1138.348	857.171
291.745	18.928	1138.073	856.959
292.760	18.949	1137.199	856.333
293.774	19.071	1136.463	856.309
294.789	19.113	1136.263	856.290
295.803	19.255	1135.329	856.216
296.818	19.009	1134.388	854.210
297.833	18.988	1133.788	853.579
298.847	18.971	1132.806	852.676
299.862	18.955	1132.165	852.042
300.876	19.056	1131.490	851.956
301.891	19.098	1130.844	851.604
302.906	19.237	1130.225	851.749
303.920	19.208	1129.875	851.266
304.935	19.270	1129.581	851.274
305.949	19.342	1128.880	851.031
306.964	19.424	1127.670	850.446
307.979	19.246	1127.251	849.176
308.993	19.294	1125.999	848.395
310.008	19.342	1125.528	848.202
311.022	19.331	1124.861	847.571
312.037	19.366	1123.543	846.674
313.052	19.258	1122.442	845.239
314.066	19.173	1122.062	844.459
315.081	19.072	1120.670	842.845
316.095	19.034	1120.212	842.239
317.110	19.025	1119.437	841.538
318.125	19.177	1118.470	841.480
319.139	19.077	1118.055	840.604
320.154	19.092	1117.890	840.480
321.168	19.094	1116.722	839.534
322.183	19.208	1116.124	839.568
323.197	19.144	1116.218	839.252
324.212	19.253	1115.294	839.016
325.227	19.248	1114.582	838.378
326.241	19.212	1114.157	837.811
327.256	19.247	1113.266	837.237
328.270	19.178	1112.095	835.946
329.285	19.165	1111.103	835.066
330.300	19.302	1110.173	834.958
331.314	19.360	1109.025	834.298
332.329	19.216	1108.577	833.194
333.343	19.257	1107.648	832.617
334.358	19.489	1106.794	833.021
335.373	19.516	1106.610	832.940
336.387	19.463	1105.700	831.924
337.402	19.520	1104.803	831.451
338.416	19.533	1104.287	831.054
339.431	19.648	1103.756	831.133
340.446	19.675	1103.264	830.820
341.460	19.742	1102.854	830.758
342.475	19.883	1101.602	830.419
343.489	19.880	1100.495	829.495
344.504	20.043	1099.464	829.426
345.519	19.971	1098.659	828.401
346.533	19.984	1098.144	828.000
347.548	20.092	1097.520	827.972
348.562	20.079	1096.891	827.364
349.577	19.752	1096.104	825.138
350.592	19.593	1095.196	823.623
351.606	19.528	1094.448	822.677
352.621	19.592	1093.694	822.340
353.635	19.695	1092.858	822.133
354.650	19.548	1092.322	820.955
355.665	19.612	1091.603	820.647
356.679	19.798	1091.090	821.069
357.694	19.744	1090.817	820.536
358.708	19.799	1089.961	820.081
359.723	19.808	1089.122	819.418
360.738	19.888	1088.486	819.249
361.752	19.860	1087.968	818.655
362.767	19.932	1087.767	818.768
363.781	19.894	1086.619	817.655
364.796	20.078	1086.200	818.134
365.810	20.115	1085.828	817.956
366.825	20.205	1085.449	818.026
367.840	20.483	1084.705	818.702
368.854	20.361	1084.413	817.834
369.869	20.293	1083.258	816.569
370.883	20.305	1082.423	815.922
371.898	20.080	1081.898	814.398
372.913	20.085	1081.463	814.022
373.927	20.256	1080.443	813.986
374.942	20.321	1080.525	814.279
375.956	20.268	1079.690	813.333
376.971	20.322	1079.261	813.190
377.986	20.282	1078.293	812.200
379.000	20.431	1077.652	812.341
380.015	20.653	1077.357	813.084
381.029	20.628	1076.876	812.533
382.044	20.412	1076.417	811.106
383.059	20.439	1075.522	810.486
384.073	20.402	1074.719	809.639
385.088	20.481	1073.572	809.068
386.102	20.524	1072.820	808.634
387.117	20.365	1071.873	807.105
388.132	20.199	1070.813	805.468
389.146	20.216	1069.803	804.716
390.161	20.230	1069.167	804.230
391.175	20.290	1068.444	803.894
392.190	20.464	1067.755	804.109
393.205	20.589	1066.997	804.044
394.219	20.508	1066.315	803.084
395.234	20.429	1065.373	801.940
396.248	20.403	1064.111	800.799
397.263	20.428	1063.297	800.231
398.278	20.344	1062.621	799.264
399.292	20.164	1062.362	798.173
400.307	20.197	1061.132	797.328
401.321	20.173	1060.533	796.696
402.336	20.291	1059.784	796.604
403.350	20.402	1059.024	796.471
404.365	20.350	1058.416	795.708
405.380	20.465	1057.553	795.515
406.394	20.495	1057.091	795.234
407.409	20.591	1056.550	795.196
408.423	20.645	1055.860	794.854
409.438	20.660	1055.231	794.375
410.453	20.784	1054.664	794.446
411.467	20.779	1053.932	793.803
412.482	20.764	1053.284	793.176
413.496	20.867	1052.223	792.776
414.511	20.981	1052.086	793.118
415.526	20.977	1051.946	792.925
416.540	20.924	1051.477	792.260
417.555	20.934	1050.761	791.699
418.569	20.934	1050.123	791.148
419.584	21.007	1049.800	791.164
420.599	20.906	1049.353	790.299
421.613	155.121	1404.843	1795.278
422.628	142.199	1456.598	1795.358
