DTS Sentinel unit serial number:	SN413079Multiplexer serial number:	ORYXHardware model number:	OX4-SRSoftware version number:	ORYX F/W v4.00 Oryx Data Collector v3.7.2.0data status	okinstallation	princeton_trtdifferential loss correction	single-endedforward channel	channel 2reverse channel	N/Adate	2019/09/10time	20:49:10forward acquisition time	60.00reverse acquisition time	0.00gamma	496.2192k internal	0.2330k external	0.2330temperature offset calibration	0.9946default loss term (dB/km)	0.3790temperature slope calibration	1.0000multiplexer offset coefficient	1.0000multiplexer slope coefficient	1.0000fibre end	0.00T internal ref (°C)	31.75T ext. ref 1 (°C)	-0.31T ext. ref 2 (°C)	25.34length (m)	temperature (°C)	Stokes	anti-Stokes-747.200	-1.976	-0.066	0.047
-746.185	-200.000	-0.011	0.163
-745.171	317.575	0.170	0.324
-744.156	-85.993	0.297	0.092
-743.142	-200.000	0.064	0.436
-742.127	-76.108	0.180	0.064
-741.112	-86.369	-0.329	-0.102
-740.098	124.849	0.172	0.218
-739.083	254.382	-0.116	-0.200
-738.069	136.609	-0.237	0.311
-737.054	-154.518	0.233	0.016
-736.039	212.308	-0.264	0.419
-735.025	602.785	0.146	0.364
-734.010	339.720	-0.076	0.149
-732.996	-38.650	-0.149	0.079
-731.981	-183.874	0.222	-0.004
-730.966	-200.000	-0.017	0.103
-729.952	-200.000	0.068	-0.329
-728.937	234.716	-0.123	0.204
-727.923	254.613	0.178	-0.306
-726.908	187.975	0.095	-0.143
-725.894	-53.706	-0.055	-0.025
-724.879	-127.153	-0.427	-0.063
-723.864	-163.381	0.193	-0.009
-722.850	12.939	0.136	-0.106
-721.835	-34.491	0.142	0.078
-720.821	-90.112	-0.176	-0.052
-719.806	32.361	-0.225	-0.196
-718.791	148.436	0.168	0.229
-717.777	-140.643	-0.244	0.025
-716.762	87.167	0.050	0.056
-715.748	259.265	-0.083	0.144
-714.733	-200.000	-0.003	-0.424
-713.718	-121.886	0.121	-0.020
-712.704	-35.902	-0.078	0.042
-711.689	592.837	0.134	0.333
-710.675	-20.021	-0.126	0.078
-709.660	-117.375	-0.053	0.010
-708.645	429.081	0.193	-0.419
-707.631	-4.824	-0.293	0.203
-706.616	32.791	0.359	-0.313
-705.602	333.178	-0.072	-0.139
-704.587	-200.000	-0.027	0.254
-703.572	413.637	0.072	0.154
-702.558	-157.819	0.285	0.017
-701.543	191.376	0.163	-0.247
-700.529	158.728	0.136	0.190
-699.514	18.923	-0.058	-0.046
-698.499	102.013	0.135	0.158
-697.485	800.000	-0.011	-0.033
-696.470	-200.000	-0.047	-0.309
-695.456	-200.000	0.004	0.125
-694.441	726.208	-0.042	0.114
-693.426	-103.673	-0.217	-0.051
-692.412	472.771	-0.073	0.165
-691.397	-200.000	0.026	0.181
-690.383	-10.369	0.082	-0.055
-689.368	800.000	-0.035	-0.137
-688.354	245.332	-0.161	0.272
-687.339	-111.006	-0.328	0.068
-686.324	26.375	-0.339	-0.285
-685.310	-129.475	0.291	-0.041
-684.295	38.073	-0.063	0.057
-683.281	318.839	-0.090	-0.171
-682.266	53.914	0.176	0.170
-681.251	-200.000	0.089	-0.450
-680.237	583.479	-0.177	-0.436
-679.222	-65.208	-0.328	0.133
-678.208	-63.911	0.200	0.082
-677.193	-144.740	-0.094	-0.009
-676.178	-200.000	-0.014	-0.146
-675.164	497.923	-0.039	-0.091
-674.149	-0.578	0.216	-0.154
-673.135	184.291	0.114	0.170
-672.120	-19.902	-0.038	0.024
-671.105	-132.653	-0.184	-0.024
-670.091	-7.829	0.093	0.063
-669.076	800.000	-0.050	0.212
-668.062	-85.893	-0.322	-0.100
-667.047	-73.061	0.063	0.023
-666.032	800.000	-0.066	-0.251
-665.018	-169.400	0.292	0.011
-664.003	298.143	-0.082	0.151
-662.989	-200.000	-0.015	-0.406
-661.974	-25.429	-0.205	-0.122
-660.959	-36.244	0.361	-0.196
-659.945	-194.445	0.173	-0.001
-658.930	-152.334	-0.103	-0.007
-657.916	54.542	-0.128	0.124
-656.901	-186.008	-0.236	0.003
-655.886	800.000	0.037	0.155
-654.872	442.491	-0.103	0.225
-653.857	-99.269	-0.382	-0.097
-652.843	-129.335	0.159	-0.022
-651.828	8.966	-0.247	0.187
-650.814	-59.060	0.218	0.094
-649.799	-75.459	0.027	0.010
-648.784	800.000	-0.109	0.374
-647.770	800.000	0.042	-0.125
-646.755	65.621	-0.202	-0.205
-645.741	479.173	0.018	-0.041
-644.726	-19.195	-0.093	-0.058
-643.711	150.672	0.098	0.133
-642.697	-200.000	0.021	0.431
-641.682	-123.157	-0.170	-0.027
-640.668	32.040	0.386	-0.333
-639.653	-103.625	0.261	0.061
-638.638	800.000	0.058	-0.172
-637.624	-200.000	0.033	-0.295
-636.609	-200.000	-0.003	-0.088
-635.595	-200.000	0.031	-0.339
-634.580	-200.000	0.015	-0.222
-633.565	-98.532	0.051	0.013
-632.551	27.959	0.194	0.164
-631.536	148.925	-0.120	-0.162
-630.522	9.605	-0.183	-0.139
-629.507	-39.655	0.330	-0.173
-628.492	800.000	-0.077	-0.323
-627.478	-200.000	-0.114	0.000
-626.463	-109.576	0.181	0.038
-625.449	-200.000	0.002	0.052
-624.434	-128.413	0.469	-0.067
-623.419	19.109	-0.211	-0.170
-622.405	-88.573	0.474	-0.142
-621.390	-42.257	-0.251	0.128
-620.376	0.081	-0.067	0.048
-619.361	536.532	-0.095	0.227
-618.346	-55.176	-0.294	-0.133
-617.332	596.189	-0.106	-0.262
-616.317	-94.722	-0.046	0.013
-615.303	-48.922	-0.340	-0.163
-614.288	800.000	0.029	-0.092
-613.273	-44.786	-0.427	0.213
-612.259	12.355	0.222	0.171
-611.244	-93.846	-0.076	0.021
-610.230	-27.648	-0.167	-0.097
-609.215	-31.182	0.231	0.131
-608.201	-200.000	-0.005	0.110
-607.186	-200.000	-0.033	-0.181
-606.171	-155.773	-0.103	-0.007
-605.157	209.698	-0.147	-0.230
-604.142	-179.948	-0.176	-0.004
-603.128	-79.958	-0.151	-0.051
-602.113	-200.000	-0.010	-0.230
-601.098	800.000	0.037	0.118
-600.084	-97.418	0.164	-0.043
-599.069	116.395	-0.132	0.161
-598.055	774.830	0.119	0.326
-597.040	706.816	-0.074	0.196
-596.025	-102.741	-0.176	0.042
-595.011	800.000	-0.100	-0.330
-593.996	-89.234	0.205	0.060
-592.982	-73.761	0.268	0.098
-591.967	158.869	-0.146	-0.202
-590.952	-34.974	0.133	-0.073
-589.938	85.500	-0.080	-0.088
-588.923	-109.244	0.287	0.061
-587.909	-21.762	0.221	-0.134
-586.894	-175.440	-0.371	-0.010
-585.879	-35.284	0.051	-0.028
-584.865	-200.000	-0.010	-0.149
-583.850	-47.818	0.327	-0.158
-582.836	26.665	-0.108	-0.090
-581.821	-78.521	0.296	0.102
-580.806	-166.405	0.105	0.004
-579.792	-168.664	0.330	-0.013
-578.777	186.346	0.056	0.083
-577.763	40.510	0.089	0.080
-576.748	-47.726	0.236	0.115
-575.733	65.340	-0.046	0.047
-574.719	-200.000	-0.023	0.196
-573.704	553.702	-0.099	-0.239
-572.690	-54.338	0.162	-0.074
-571.675	322.651	-0.035	0.066
-570.661	-105.105	0.197	-0.045
-569.646	-200.000	-0.006	0.180
-568.631	118.323	0.108	-0.134
-567.617	-53.537	-0.102	0.047
-566.602	224.438	0.043	-0.069
-565.588	229.626	0.117	0.190
-564.573	-200.000	0.065	0.354
-563.558	800.000	-0.119	0.330
-562.544	41.576	0.165	0.149
-561.529	402.144	-0.089	0.188
-560.515	-200.000	0.019	0.157
-559.500	-89.233	-0.228	0.067
-558.485	134.581	0.329	-0.427
-557.471	11.400	0.155	0.119
-556.456	27.309	-0.159	0.133
-555.442	-200.000	0.082	-0.378
-554.427	2.883	-0.309	-0.224
-553.412	49.699	0.156	0.147
-552.398	61.374	-0.061	-0.060
-551.383	180.506	-0.057	-0.084
-550.369	467.105	0.101	-0.227
-549.354	110.660	0.043	-0.052
-548.339	-200.000	-0.001	0.175
-547.325	6.633	0.168	-0.125
-546.310	170.860	-0.123	-0.177
-545.296	-56.628	-0.166	0.073
-544.281	-77.896	0.482	-0.166
-543.266	-4.481	-0.410	-0.283
-542.252	398.915	-0.070	-0.146
-541.237	-101.620	0.112	-0.027
-540.223	-35.079	0.112	-0.061
-539.208	205.029	-0.141	-0.219
-538.193	-172.678	-0.134	-0.004
-537.179	1.644	-0.118	0.085
-536.164	-3.132	-0.025	-0.017
-535.150	-16.537	-0.078	-0.049
-534.135	16.341	0.227	0.179
-533.121	-42.924	0.171	0.087
-532.106	-29.847	0.051	0.029
-531.091	-90.559	-0.188	-0.054
-530.077	-88.754	-0.320	0.095
-529.062	186.578	0.050	0.075
-528.048	-150.821	-0.365	-0.028
-527.033	345.900	-0.159	0.312
-526.018	-136.796	-0.282	-0.032
-525.004	-200.000	0.001	0.255
-523.989	-33.684	0.196	-0.108
-522.975	-94.532	0.153	0.042
-521.960	147.094	0.146	0.196
-520.945	-200.000	-0.061	0.404
-519.931	-46.020	0.081	0.040
-518.916	317.847	-0.208	-0.393
-517.902	173.512	0.063	-0.091
-516.887	-200.000	0.020	0.347
-515.872	-174.908	-0.304	-0.009
-514.858	-125.008	-0.070	-0.011
-513.843	45.224	0.246	-0.226
-512.829	-200.000	0.005	-0.050
-511.814	-116.958	-0.070	0.013
-510.799	7.044	0.314	-0.234
-509.785	-200.000	-0.029	0.202
-508.770	-200.000	-0.016	0.237
-507.756	-200.000	0.054	-0.272
-506.741	-190.470	0.200	0.002
-505.726	137.697	-0.227	0.296
-504.712	729.337	-0.102	-0.272
-503.697	-9.476	0.174	-0.116
-502.683	-21.560	-0.289	-0.176
-501.668	348.147	0.168	0.330
-500.653	800.000	0.092	-0.267
-499.639	-107.445	0.162	0.035
-498.624	486.408	0.080	-0.181
-497.610	-23.038	-0.200	0.120
-496.595	800.000	-0.053	-0.192
-495.581	-57.345	0.302	-0.132
-494.566	-84.232	-0.248	0.078
-493.551	51.767	-0.068	0.064
-492.537	444.324	0.110	-0.241
-491.522	-7.502	0.237	-0.160
-490.508	138.615	0.097	0.127
-489.493	-200.000	0.025	-0.230
-488.478	-200.000	-0.002	0.094
-487.464	-45.605	-0.076	0.037
-486.449	188.005	0.078	-0.116
-485.435	-110.814	0.061	0.013
-484.420	-146.151	-0.430	0.038
-483.405	-200.000	-0.014	-0.088
-482.391	74.777	-0.178	0.186
-481.376	-135.841	-0.233	0.027
-480.362	108.425	0.221	-0.263
-479.347	-89.958	-0.432	-0.126
-478.332	43.815	0.213	0.194
-477.318	-200.000	-0.003	-0.090
-476.303	-185.672	-0.124	0.002
-475.289	-120.108	0.303	0.052
-474.274	82.312	0.184	0.199
-473.259	292.169	0.126	-0.229
-472.245	-200.000	0.031	-0.192
-471.230	67.009	0.114	-0.115
-470.216	800.000	-0.063	0.210
-469.201	-200.000	0.019	0.133
-468.186	800.000	-0.036	-0.111
-467.172	303.697	-0.097	0.179
-466.157	-120.565	0.388	0.065
-465.143	-200.000	0.038	-0.185
-464.128	-200.000	-0.001	0.010
-463.113	377.626	-0.080	-0.163
-462.099	79.922	0.102	0.110
-461.084	-200.000	-0.018	0.272
-460.070	800.000	-0.047	-0.201
-459.055	141.378	0.112	0.147
-458.040	76.032	-0.169	0.178
-457.026	-200.000	-0.004	0.189
-456.011	-147.289	-0.116	-0.010
-454.997	-21.856	-0.296	0.179
-453.982	-200.000	-0.028	-0.180
-452.968	107.555	0.117	0.139
-451.953	-96.128	-0.223	-0.059
-450.938	-40.192	-0.125	-0.065
-449.924	-51.416	0.205	0.095
-448.909	11.472	0.210	-0.160
-447.895	800.000	-0.016	0.066
-446.880	-200.000	0.007	0.253
-445.865	-112.981	0.037	-0.007
-444.851	-166.955	0.202	0.008
-443.836	88.985	-0.184	-0.204
-442.822	45.148	0.209	-0.191
-441.807	82.928	0.189	0.204
-440.792	-123.043	-0.409	0.065
-439.778	-114.333	0.057	-0.011
-438.763	716.136	0.064	0.169
-437.749	800.000	-0.069	0.273
-436.734	15.690	0.321	0.251
-435.719	-200.000	0.038	0.183
-434.705	-200.000	-0.011	-0.122
-433.690	178.750	-0.115	-0.167
-432.676	800.000	-0.146	-0.438
-431.661	3.160	0.295	0.213
-430.646	-174.213	0.275	0.008
-429.632	28.651	-0.263	0.221
-428.617	759.162	-0.098	-0.265
-427.603	-157.846	-0.193	0.011
-426.588	476.048	-0.105	0.237
-425.573	363.986	-0.106	0.212
-424.559	605.368	-0.067	0.166
-423.544	-155.106	-0.167	-0.011
-422.530	-58.309	0.008	0.004
-421.515	198.734	-0.085	0.130
-420.500	-98.858	-0.142	-0.036
-419.486	-51.064	-0.168	-0.078
-418.471	-19.138	-0.265	-0.163
-417.457	-107.851	0.176	0.038
-416.442	-151.854	0.310	-0.023
-415.428	-200.000	0.027	0.186
-414.413	1.934	-0.204	-0.146
-413.398	-164.809	-0.430	0.019
-412.384	83.206	0.174	-0.189
-411.369	6.123	-0.215	-0.158
-410.355	159.655	-0.113	0.156
-409.340	-200.000	-0.031	0.354
-408.325	-200.000	0.053	0.459
-407.311	34.024	0.014	0.012
-406.296	433.489	-0.054	-0.116
-405.282	800.000	0.002	0.007
-404.267	800.000	-0.084	0.283
-403.252	17.105	0.097	0.077
-402.238	-200.000	-0.019	-0.241
-401.223	-14.927	-0.113	-0.072
-400.209	568.465	-0.058	-0.140
-399.194	-86.800	0.097	0.029
-398.179	425.572	-0.085	0.181
-397.165	-114.309	0.336	0.064
-396.150	243.961	-0.074	0.123
-395.136	-127.318	-0.108	0.016
-394.121	204.302	0.121	-0.186
-393.106	-82.008	0.035	0.012
-392.092	-53.990	-0.338	0.153
-391.077	65.362	0.204	-0.205
-390.063	356.891	0.069	-0.136
-389.048	-52.346	-0.230	0.106
-388.033	-14.501	0.090	0.058
-387.019	102.331	0.107	0.124
-386.004	-33.144	-0.257	0.141
-384.990	37.774	0.305	-0.269
-383.975	-167.653	0.145	0.006
-382.960	-200.000	0.000	0.231
-381.946	800.000	-0.023	0.071
-380.931	118.642	0.032	-0.039
-379.917	-200.000	0.005	0.108
-378.902	95.198	-0.098	-0.111
-377.888	321.189	-0.040	0.076
-376.873	97.766	0.216	-0.246
-375.858	-52.490	-0.244	-0.112
-374.844	-135.157	0.386	-0.046
-373.829	-200.000	0.041	-0.193
-372.815	-200.000	-0.007	0.172
-371.800	331.992	-0.116	-0.223
-370.785	-114.928	0.361	-0.068
-369.771	-136.265	0.047	-0.005
-368.756	276.931	0.144	0.253
-367.742	-72.119	-0.170	-0.062
-366.727	743.464	0.147	-0.391
-365.712	46.143	0.200	-0.184
-364.698	410.683	-0.194	0.408
-363.683	-200.000	0.041	0.347
-362.669	-130.098	0.441	0.060
-361.654	800.000	0.019	0.061
-360.639	240.932	-0.128	-0.212
-359.625	800.000	-0.044	-0.158
-358.610	-96.330	0.199	-0.052
-357.596	487.241	-0.012	0.026
-356.581	153.611	-0.047	0.064
-355.566	-200.000	0.075	0.405
-354.552	31.991	0.260	-0.222
-353.537	-200.000	0.000	-0.243
-352.523	9.191	0.146	-0.109
-351.508	-144.918	-0.212	0.019
-350.493	800.000	0.073	0.258
-349.479	790.133	-0.046	-0.126
-348.464	-17.789	-0.291	-0.181
-347.450	134.547	0.324	-0.417
-346.435	-167.866	0.227	0.009
-345.420	-200.000	0.002	0.136
-344.406	-128.114	-0.259	0.037
-343.391	-28.507	0.102	0.058
-342.377	276.945	-0.050	-0.088
-341.362	-56.233	-0.196	-0.086
-340.348	601.769	-0.118	0.292
-339.333	11.205	0.168	0.127
-338.318	15.533	-0.170	-0.132
-337.304	800.000	0.042	-0.122
-336.289	-59.751	-0.080	0.034
-335.275	800.000	-0.066	-0.226
-334.260	-62.399	-0.178	0.073
-333.245	104.982	-0.016	0.019
-332.231	564.738	-0.112	-0.270
-331.216	-49.384	-0.100	0.047
-330.202	-20.999	-0.212	0.128
-329.187	-103.139	0.020	0.005
-328.172	143.336	-0.160	0.212
-327.158	-54.912	-0.370	0.165
-326.143	-200.000	0.015	0.232
-325.129	189.407	0.130	-0.193
-324.114	-98.606	-0.414	0.105
-323.099	265.283	-0.165	0.285
-322.085	-200.000	0.020	0.277
-321.070	167.593	0.163	0.230
-320.056	-200.000	0.015	0.176
-319.041	181.769	-0.184	0.268
-318.026	800.000	0.091	-0.356
-317.012	2.319	0.119	0.085
-315.997	-200.000	0.038	0.186
-314.983	-119.281	0.118	0.020
-313.968	800.000	-0.128	-0.505
-312.953	-26.698	0.073	-0.042
-311.939	80.079	-0.144	0.153
-310.924	-11.735	0.074	0.048
-309.910	319.829	0.186	-0.350
-308.895	-168.366	-0.154	0.006
-307.880	13.240	0.065	-0.050
-306.866	55.064	0.160	0.153
-305.851	-200.000	0.018	-0.321
-304.837	89.384	-0.183	-0.202
-303.822	-46.193	-0.367	-0.179
-302.807	-75.161	-0.233	0.082
-301.793	-200.000	0.019	0.197
-300.778	74.870	0.228	-0.237
-299.764	752.740	-0.118	-0.314
-298.749	-101.171	0.217	0.053
-297.735	506.467	0.065	-0.148
-296.720	200.148	0.063	0.095
-295.705	-200.000	0.003	0.057
-294.691	85.712	0.097	-0.106
-293.676	91.326	0.188	-0.208
-292.662	-200.000	0.012	-0.081
-291.647	-98.239	-0.128	-0.032
-290.632	-200.000	-0.014	-0.062
-289.618	-115.646	0.227	0.042
-288.603	-89.157	-0.073	0.021
-287.589	489.421	-0.039	0.087
-286.574	564.610	-0.043	-0.102
-285.559	-125.899	-0.124	0.018
-284.545	255.955	0.049	-0.083
-283.530	35.888	-0.126	-0.110
-282.516	-57.965	0.319	0.138
-281.501	-200.000	-0.013	-0.237
-280.486	-19.445	-0.281	0.172
-279.472	235.325	-0.007	0.011
-278.457	145.789	0.152	0.201
-277.443	-134.759	0.240	-0.029
-276.428	-56.952	0.113	-0.049
-275.413	-200.000	0.041	0.223
-274.399	-64.477	-0.264	0.106
-273.384	-85.810	-0.297	0.091
-272.370	-57.071	-0.249	-0.108
-271.355	-200.000	0.045	0.000
-270.340	348.753	-0.032	-0.062
-269.326	-103.297	-0.479	0.112
-268.311	194.632	-0.119	-0.178
-267.297	64.339	0.084	-0.084
-266.282	-200.000	-0.039	0.224
-265.267	-105.280	-0.075	-0.017
-264.253	530.118	-0.116	0.271
-263.238	-168.674	0.318	-0.012
-262.224	-44.275	-0.036	-0.018
-261.209	-67.980	0.166	-0.064
-260.195	800.000	0.049	0.161
-259.180	-200.000	0.013	-0.101
-258.165	145.964	0.081	0.107
-257.151	348.364	0.090	0.176
-256.136	-31.876	0.220	-0.122
-255.122	199.203	-0.157	-0.237
-254.107	418.615	-0.099	-0.210
-253.092	-200.000	0.011	0.192
-252.078	272.490	0.059	-0.102
-251.063	-114.465	-0.226	0.043
-250.049	631.332	0.046	-0.115
-249.034	255.137	0.077	-0.131
-248.019	-36.670	0.061	0.032
-247.005	800.000	0.047	-0.131
-245.990	-2.487	0.052	-0.036
-244.976	-200.000	0.014	0.083
-243.961	122.669	0.028	0.034
-242.946	800.000	0.044	0.137
-241.932	-75.594	-0.407	0.143
-240.917	51.918	-0.238	-0.224
-239.903	-94.190	0.365	0.099
-238.888	-200.000	0.041	0.177
-237.873	-182.118	0.373	0.007
-236.859	-18.980	0.142	0.087
-235.844	255.242	-0.207	0.350
-234.830	-89.296	0.226	-0.066
-233.815	218.741	-0.126	-0.198
-232.800	368.533	0.094	-0.187
-231.786	6.380	-0.137	0.100
-230.771	111.606	-0.024	0.028
-229.757	296.967	0.169	0.307
-228.742	-196.231	-0.118	-0.001
-227.727	353.308	-0.073	-0.144
-226.713	41.941	0.029	-0.026
-225.698	581.947	0.044	-0.107
-224.684	-200.000	0.046	-0.238
-223.669	-192.641	-0.206	0.002
-222.655	-179.285	-0.194	0.004
-221.640	800.000	0.091	-0.267
-220.625	-200.000	0.032	0.182
-219.611	-200.000	0.014	0.134
-218.596	-128.092	-0.171	0.024
-217.582	-86.192	0.210	0.064
-216.567	149.661	0.054	0.072
-215.552	-130.850	0.374	-0.049
-214.538	-138.866	-0.283	0.030
-213.523	-116.749	-0.150	-0.027
-212.509	40.924	-0.169	0.150
-211.494	135.823	0.109	0.141
-210.479	134.035	-0.171	-0.219
-209.465	-161.791	0.119	-0.006
-208.450	-22.704	0.056	-0.034
-207.436	18.134	0.191	0.150
-206.421	174.313	0.154	0.219
-205.406	-200.000	-0.110	0.600
-204.392	162.309	-0.141	-0.196
-203.377	-137.434	0.051	-0.006
-202.363	197.003	-0.276	-0.415
-201.348	-166.892	-0.335	-0.014
-200.333	800.000	-0.014	-0.038
-199.319	-200.000	0.003	-0.096
-198.304	488.435	0.071	-0.160
-197.290	-2.193	0.122	-0.085
-196.275	-200.000	0.024	0.386
-195.260	342.402	-0.084	0.162
-194.246	-115.186	0.264	-0.049
-193.231	-18.654	0.167	0.103
-192.217	10.431	-0.089	-0.067
-191.202	144.596	0.092	0.121
-190.187	353.677	0.205	0.401
-189.173	800.000	-0.013	-0.038
-188.158	-3.828	0.104	-0.071
-187.144	-11.539	-0.141	-0.091
-186.129	405.262	0.151	0.313
-185.114	-200.000	0.033	-0.212
-184.100	49.958	0.207	-0.192
-183.085	-131.309	-0.211	-0.027
-182.071	27.005	0.301	-0.249
-181.056	723.102	0.005	0.014
-180.042	133.511	-0.153	0.194
-179.027	-104.677	0.179	0.041
-178.012	-129.413	-0.284	0.039
-176.998	-31.709	-0.098	0.054
-175.983	800.000	-0.057	0.223
-174.969	231.520	-0.044	0.070
-173.954	-200.000	0.004	-0.120
-172.939	-106.684	-0.168	0.037
-171.925	800.000	-0.095	0.259
-170.910	39.104	-0.474	-0.417
-169.896	-200.000	-0.047	-0.469
-168.881	43.554	0.068	-0.061
-167.866	352.977	-0.095	0.185
-166.852	-200.000	0.012	0.106
-165.837	198.333	0.091	0.138
-164.823	358.227	0.104	0.204
-163.808	236.260	-0.097	-0.157
-162.793	235.370	-0.014	0.022
-161.779	32.128	0.221	0.188
-160.764	-54.430	0.209	-0.093
-159.750	-200.000	-0.038	-0.243
-158.735	-200.000	0.049	-0.436
-157.720	214.579	0.050	0.078
-156.706	310.424	0.068	0.125
-155.691	-107.604	0.244	0.052
-154.677	-122.884	0.374	0.059
-153.662	687.483	-0.148	0.381
-152.647	-130.757	-0.031	0.004
-151.633	-139.014	-0.211	-0.022
-150.618	253.733	0.127	0.213
-149.604	-124.385	-0.247	0.038
-148.589	623.275	-0.111	0.275
-147.574	136.053	-0.044	0.056
-146.560	-72.167	-0.101	0.037
-145.545	54.455	0.120	0.114
-144.531	84.097	-0.063	0.068
-143.516	-96.484	0.052	-0.013
-142.502	134.797	-0.157	-0.200
-141.487	-200.000	-0.027	0.183
-140.472	305.892	-0.231	0.422
-139.458	-200.000	-0.001	-0.272
-138.443	144.893	-0.072	-0.094
-137.429	-200.000	0.011	-0.153
-136.414	-200.000	0.007	-0.123
-135.399	-99.628	0.155	-0.038
-134.385	-76.919	0.222	0.076
-133.370	-2.767	-0.126	0.087
-132.356	-200.000	0.009	-0.091
-131.341	274.320	-0.151	-0.263
-130.326	134.823	0.121	-0.154
-129.312	-10.101	0.224	-0.146
-128.297	-59.072	-0.126	-0.054
-127.283	800.000	-0.126	0.421
-126.268	362.757	-0.109	0.215
-125.253	-78.240	0.123	0.041
-124.239	-200.000	-0.019	0.114
-123.224	59.558	-0.146	-0.141
-122.210	141.329	-0.268	0.349
-121.195	105.627	0.114	-0.132
-120.180	60.015	-0.216	0.210
-119.166	800.000	0.063	0.256
-118.151	-86.785	-0.223	0.067
-117.137	-63.203	-0.284	0.115
-116.122	-200.000	-0.042	-0.440
-115.107	-108.532	0.330	-0.070
-114.093	-21.156	-0.104	-0.062
-113.078	-76.460	-0.172	0.060
-112.064	34.321	0.166	0.142
-111.049	48.843	0.149	0.137
-110.034	800.000	-0.125	-0.384
-109.020	-114.437	-0.140	0.026
-108.005	-23.775	-0.102	0.060
-106.991	-97.988	-0.322	-0.081
-105.976	29.001	0.244	-0.204
-104.962	-94.120	0.128	0.034
-103.947	-132.003	-0.247	-0.032
-102.932	-200.000	0.041	-0.206
-101.918	-49.123	0.171	-0.080
-100.903	93.411	0.154	0.171
-99.889	-200.000	-0.048	-0.327
-98.874	-200.000	-0.001	-0.376
-97.859	-102.193	-0.079	-0.019
-96.845	-200.000	-0.045	0.350
-95.830	39.498	-0.182	-0.160
-94.816	166.083	0.193	-0.268
-93.801	-200.000	0.000	-0.009
-92.786	545.281	-0.069	-0.162
-91.772	800.000	0.113	-0.479
-90.757	212.124	-0.115	0.178
-89.743	-91.771	-0.125	0.035
-88.728	83.547	0.256	0.274
-87.713	-23.855	-0.209	0.123
-86.699	-39.728	-0.160	0.082
-85.684	214.678	-0.245	0.381
-84.670	-102.813	0.174	-0.041
-83.655	800.000	-0.037	-0.150
-82.640	800.000	-0.067	-0.201
-81.626	167.285	-0.114	-0.158
-80.611	105.646	0.062	-0.072
-79.597	800.000	0.042	0.148
-78.582	20.087	0.146	0.116
-77.567	180.196	-0.078	0.113
-76.553	-40.863	0.333	0.169
-75.538	800.000	-0.074	0.297
-74.524	-37.767	-0.129	0.067
-73.509	-200.000	-0.060	-0.413
-72.494	800.000	-0.050	0.185
-71.480	-1.851	0.223	-0.154
-70.465	800.000	0.094	0.322
-69.451	800.000	0.042	0.177
-68.436	-131.280	-0.068	-0.009
-67.422	-107.241	0.325	-0.070
-66.407	800.000	0.113	-0.348
-65.392	-25.086	0.227	-0.132
-64.378	-78.409	0.264	0.089
-63.363	-145.676	0.098	0.009
-62.349	121.907	-0.123	-0.151
-61.334	64.021	-1.052	-1.037
-60.319	24.408	0.423	0.343
-59.305	292.534	-0.413	-0.738
-58.290	244.734	0.673	1.109
-57.276	800.000	0.475	1.774
-56.261	-200.000	97.176	605.770
-55.246	618.994	1396.255	3438.037
-54.232	192.934	2595.564	3843.654
-53.217	111.831	2274.821	2691.759
-52.203	41.422	1894.780	1680.104
-51.188	35.078	1683.238	1444.792
-50.173	32.336	1639.571	1387.067
-49.159	49.915	1686.951	1558.973
-48.144	51.490	1703.470	1585.948
-47.130	34.603	1663.400	1423.996
-46.115	31.883	1648.837	1391.326
-45.100	31.684	1643.960	1385.685
-44.086	31.672	1641.270	1383.274
-43.071	31.662	1638.626	1380.911
-42.057	31.600	1636.569	1378.669
-41.042	31.587	1635.167	1377.340
-40.027	31.635	1632.788	1375.633
-39.013	31.666	1630.716	1374.060
-37.998	31.590	1629.287	1372.241
-36.984	31.600	1627.812	1371.019
-35.969	31.730	1626.321	1370.660
-34.954	31.754	1624.649	1369.376
-33.940	31.777	1622.702	1367.843
-32.925	31.718	1621.227	1366.117
-31.911	31.704	1619.311	1364.350
-30.896	31.646	1617.664	1362.481
-29.881	31.785	1615.731	1361.814
-28.867	31.764	1614.014	1360.159
-27.852	31.715	1612.566	1358.531
-26.838	31.774	1611.459	1357.971
-25.823	31.778	1609.761	1356.511
-24.809	31.740	1609.238	1355.743
-23.794	31.741	1607.362	1354.116
-22.779	31.733	1605.853	1352.732
-21.765	31.817	1604.020	1351.742
-20.750	31.715	1602.600	1349.761
-19.736	31.727	1601.254	1348.660
-18.721	31.823	1600.027	1348.262
-17.706	31.827	1597.892	1346.439
-16.692	31.772	1597.113	1345.329
-15.677	31.842	1595.509	1344.427
-14.663	31.844	1593.815	1342.963
-13.648	31.792	1592.870	1341.742
-12.633	31.732	1590.979	1339.662
-11.619	31.777	1589.748	1338.900
-10.604	31.808	1588.185	1337.752
-9.590	31.829	1587.053	1336.890
-8.575	31.824	1585.534	1335.522
-7.560	31.795	1584.911	1334.741
-6.546	31.826	1583.350	1333.597
-5.531	31.792	1582.179	1332.312
-4.517	31.738	1581.076	1330.948
-3.502	31.854	1579.496	1330.390
-2.487	31.923	1577.898	1329.481
-1.473	31.498	1566.222	1316.599
-0.458	28.564	1546.098	1279.207
0.556	22.629	1546.131	1246.292
1.571	20.239	1570.576	1248.703
2.586	19.788	1584.154	1256.112
3.600	17.926	1532.173	1201.692
4.615	9.489	1422.732	1060.400
5.629	1.381	1357.514	960.579
6.644	-0.227	1349.230	944.520
7.659	-0.335	1347.868	942.809
8.673	-0.335	1346.427	941.714
9.688	-0.322	1344.546	940.396
10.702	-0.636	1341.604	936.291
11.717	2.422	1347.719	959.674
12.731	11.459	1365.445	1029.420
13.746	18.460	1376.353	1081.902
14.761	19.843	1377.412	1091.371
15.775	19.952	1377.298	1091.872
16.790	19.987	1376.956	1091.722
17.804	20.074	1376.040	1091.447
18.819	20.366	1376.152	1093.281
19.834	20.318	1375.824	1092.617
20.848	20.329	1374.455	1091.503
21.863	20.374	1373.573	1090.992
22.877	20.363	1372.492	1089.966
23.892	20.409	1371.533	1089.397
24.907	20.337	1370.957	1088.392
25.921	20.351	1370.191	1087.773
26.936	20.338	1369.228	1086.836
27.950	20.392	1367.939	1086.054
28.965	20.227	1367.202	1084.341
29.980	20.387	1365.087	1083.566
30.994	20.396	1364.552	1083.100
32.009	20.246	1363.458	1081.200
33.023	20.291	1361.982	1080.213
34.038	20.309	1360.829	1079.313
35.053	20.381	1359.989	1079.002
36.067	20.355	1359.034	1077.986
37.082	20.401	1357.896	1077.277
38.096	20.353	1356.964	1076.140
39.111	20.269	1356.674	1075.295
40.126	20.295	1355.621	1074.526
41.140	20.334	1354.702	1073.945
42.155	20.303	1354.914	1073.824
43.169	20.342	1354.418	1073.582
44.184	20.396	1353.981	1073.472
45.199	20.312	1353.830	1072.738
46.213	20.371	1353.124	1072.445
47.228	20.361	1352.678	1071.938
48.242	20.322	1351.178	1070.416
49.257	20.366	1349.963	1069.630
50.271	20.431	1347.816	1068.231
51.286	20.366	1346.819	1066.950
52.301	20.334	1345.867	1065.903
53.315	20.297	1344.983	1064.884
54.330	20.378	1344.166	1064.634
55.344	20.331	1342.776	1063.155
56.359	20.356	1341.620	1062.296
57.374	20.427	1340.532	1061.777
58.388	20.343	1340.318	1060.997
59.403	20.410	1339.554	1060.710
60.417	20.268	1339.264	1059.522
61.432	20.347	1338.498	1059.302
62.447	20.358	1337.268	1058.301
63.461	20.336	1336.195	1057.222
64.476	20.366	1335.163	1056.495
65.490	20.393	1334.032	1055.671
66.505	20.457	1332.275	1054.575
67.520	20.437	1331.204	1053.515
68.534	20.354	1330.089	1052.034
69.549	20.327	1329.341	1051.190
70.563	20.430	1328.407	1050.980
71.578	20.458	1327.150	1050.064
72.593	20.424	1326.465	1049.224
73.607	20.407	1325.604	1048.346
74.622	20.294	1325.261	1047.302
75.636	20.432	1324.183	1047.189
76.651	20.498	1323.604	1047.033
77.666	20.301	1323.196	1045.430
78.680	20.457	1322.364	1045.623
79.695	20.465	1321.368	1044.790
80.709	20.550	1320.362	1044.412
81.724	20.400	1319.966	1043.106
82.739	20.416	1318.976	1042.329
83.753	20.372	1317.781	1041.024
84.768	20.428	1316.299	1040.098
85.782	20.351	1315.630	1039.020
86.797	20.423	1314.387	1038.376
87.812	20.414	1313.554	1037.571
88.826	20.391	1312.459	1036.479
89.841	20.367	1311.233	1035.271
90.855	20.442	1309.977	1034.639
91.870	20.398	1309.173	1033.649
92.884	20.400	1308.754	1033.239
93.899	20.408	1308.007	1032.604
94.914	20.589	1306.223	1032.176
95.928	20.347	1306.023	1030.494
96.943	20.479	1305.193	1030.528
97.957	20.427	1304.589	1029.653
98.972	20.517	1303.431	1029.183
99.987	20.419	1302.729	1027.957
101.001	20.441	1301.418	1026.964
102.016	20.418	1300.595	1026.086
103.030	20.497	1299.427	1025.538
104.045	20.476	1298.770	1024.803
105.060	20.515	1297.857	1024.222
106.074	20.468	1296.443	1022.741
107.089	20.550	1295.456	1022.355
108.103	20.543	1293.854	1020.959
109.118	20.449	1293.159	1019.767
110.133	20.467	1292.130	1018.973
111.147	20.522	1290.842	1018.188
112.162	20.404	1290.123	1016.842
113.176	20.477	1288.542	1015.931
114.191	20.495	1287.675	1015.262
115.206	20.501	1286.468	1014.258
116.220	20.426	1285.355	1012.852
117.235	20.546	1284.614	1012.878
118.249	20.539	1283.399	1011.791
119.264	20.510	1282.295	1010.660
120.279	20.556	1281.751	1010.413
121.293	20.515	1280.892	1009.405
122.308	20.609	1279.458	1008.729
123.322	20.515	1278.669	1007.473
124.337	20.660	1277.301	1007.150
125.352	20.595	1276.869	1006.344
126.366	20.539	1275.768	1005.061
127.381	20.576	1274.684	1004.334
128.395	20.537	1273.714	1003.257
129.410	20.664	1272.744	1003.135
130.424	20.570	1272.266	1002.128
131.439	20.679	1270.660	1001.400
132.454	20.571	1269.807	1000.015
133.468	20.561	1269.228	999.418
134.483	20.611	1268.698	999.197
135.497	20.534	1267.904	998.040
136.512	20.432	1267.067	996.707
137.527	20.612	1265.436	996.366
138.541	20.595	1264.065	995.102
139.556	20.564	1262.581	993.673
140.570	20.673	1261.622	993.449
141.585	20.498	1260.851	991.755
142.600	20.449	1259.424	990.267
143.614	20.579	1258.948	990.544
144.629	20.451	1257.593	988.664
145.643	20.497	1256.206	987.747
146.658	20.517	1255.355	987.102
147.673	20.441	1254.524	985.935
148.687	20.483	1253.907	985.598
149.702	20.404	1252.674	984.096
150.716	20.564	1251.049	983.639
151.731	20.579	1249.855	982.698
152.746	20.477	1249.199	981.514
153.760	20.650	1248.091	981.535
154.775	20.575	1247.440	980.516
155.789	20.601	1246.229	979.619
156.804	20.658	1245.233	979.071
157.819	20.583	1244.423	977.929
158.833	20.511	1244.070	977.156
159.848	20.631	1243.009	976.913
160.862	20.557	1242.293	975.850
161.877	20.618	1241.221	975.264
162.892	20.527	1240.428	974.043
163.906	20.575	1239.780	973.716
164.921	20.650	1239.090	973.510
165.935	20.698	1238.059	972.883
166.950	20.704	1237.456	972.353
167.964	20.669	1236.731	971.506
168.979	20.711	1235.905	971.002
169.994	20.687	1235.926	970.799
171.008	20.658	1235.209	969.987
172.023	20.688	1234.089	969.188
173.037	20.628	1233.580	968.373
174.052	20.708	1232.920	968.210
175.067	20.578	1232.277	966.898
176.081	20.588	1231.555	966.304
177.096	20.580	1230.803	965.582
178.110	20.782	1229.344	965.475
179.125	20.673	1228.459	964.086
180.140	20.612	1227.809	963.156
181.154	20.591	1226.519	961.944
182.169	20.585	1225.410	960.956
183.183	20.617	1224.592	960.405
184.198	20.700	1223.339	959.794
185.213	20.735	1222.685	959.388
186.227	20.776	1221.285	958.432
187.242	20.699	1220.441	957.259
188.256	20.898	1219.151	957.256
189.271	20.733	1218.847	956.026
190.286	20.853	1218.041	955.970
191.300	20.637	1217.776	954.494
192.315	20.772	1217.164	954.667
193.329	20.699	1216.666	953.794
194.344	20.856	1215.678	953.793
195.359	20.791	1215.339	953.085
196.373	20.778	1215.178	952.804
197.388	20.691	1214.573	951.770
198.402	20.665	1214.509	951.492
199.417	20.798	1213.604	951.427
200.432	20.751	1212.916	950.547
201.446	20.773	1212.352	950.140
202.461	20.725	1211.437	949.077
203.475	20.794	1210.778	948.857
204.490	20.707	1209.459	947.264
205.504	20.836	1208.395	947.049
206.519	20.803	1208.168	946.606
207.534	20.820	1206.940	945.651
208.548	20.837	1206.093	945.000
209.563	20.686	1205.307	943.480
210.577	20.805	1204.391	943.326
211.592	20.853	1203.479	942.786
212.607	20.876	1202.704	942.221
213.621	20.904	1201.966	941.708
214.636	20.926	1200.940	940.940
215.650	20.926	1200.154	940.244
216.665	20.880	1199.461	939.366
217.680	20.793	1198.578	938.124
218.694	20.831	1197.445	937.359
219.709	20.869	1197.160	937.260
220.723	20.925	1196.327	936.824
221.738	20.854	1195.522	935.731
222.753	20.860	1195.132	935.374
223.767	20.769	1194.613	934.395
224.782	20.927	1194.416	935.005
225.796	20.929	1193.174	933.962
226.811	20.871	1192.976	933.415
227.826	20.990	1191.756	933.014
228.840	20.996	1191.259	932.573
229.855	21.009	1190.767	932.176
230.869	20.953	1189.823	931.058
231.884	20.898	1189.439	930.381
232.899	20.977	1188.689	930.131
233.913	21.040	1188.275	930.063
234.928	21.015	1187.655	929.362
235.942	21.107	1186.503	928.868
236.957	21.091	1185.629	928.017
237.972	21.050	1185.257	927.426
238.986	20.986	1185.011	926.809
240.001	21.022	1184.312	926.373
241.015	21.140	1183.192	926.041
242.030	21.148	1182.511	925.464
243.045	21.176	1181.762	924.945
244.059	21.206	1180.741	924.227
245.074	21.103	1180.262	923.225
246.088	21.199	1179.420	922.992
247.103	21.115	1179.086	922.205
248.117	21.224	1178.245	922.039
249.132	21.188	1177.268	921.006
250.147	21.180	1176.668	920.413
251.161	21.180	1176.048	919.844
252.176	21.181	1175.493	919.336
253.190	21.271	1174.710	919.112
254.205	21.148	1174.150	917.946
255.220	21.146	1173.571	917.402
256.234	21.134	1173.301	917.046
257.249	21.299	1172.130	916.916
258.263	21.186	1171.854	916.030
259.278	21.363	1170.940	916.161
260.293	21.256	1170.899	915.483
261.307	21.274	1170.202	914.956
262.322	21.242	1169.976	914.530
263.336	21.226	1168.970	913.578
264.351	21.295	1168.462	913.459
265.366	21.210	1167.919	912.509
266.380	21.234	1166.969	911.816
267.395	21.071	1166.762	910.722
268.409	21.243	1165.743	910.739
269.424	21.277	1164.972	910.237
270.439	21.305	1164.867	910.217
271.453	21.378	1163.768	909.662
272.468	21.310	1163.117	908.716
273.482	21.313	1162.386	908.079
274.497	21.244	1161.985	907.328
275.512	21.304	1161.292	907.018
276.526	21.399	1160.663	906.940
277.541	21.377	1159.890	906.140
278.555	21.408	1159.079	905.587
279.570	21.405	1158.906	905.360
280.585	21.304	1158.113	904.136
281.599	21.388	1157.066	903.673
282.614	21.407	1156.048	902.897
283.628	21.510	1155.285	902.750
284.643	21.431	1154.535	901.677
285.657	21.542	1153.575	901.418
286.672	21.424	1152.671	900.028
287.687	21.493	1151.673	899.523
288.701	21.584	1151.332	899.642
289.716	21.503	1150.525	898.518
290.730	21.491	1149.960	897.938
291.745	21.528	1148.994	897.290
292.760	21.523	1148.862	897.085
293.774	21.458	1148.720	896.560
294.789	21.592	1147.599	896.292
295.803	21.483	1147.355	895.465
296.818	21.597	1146.472	895.277
297.833	21.689	1145.795	895.143
298.847	21.591	1144.904	893.867
299.862	21.590	1144.392	893.379
300.876	21.501	1144.059	892.586
301.891	21.569	1143.465	892.394
302.906	21.660	1142.520	892.038
303.920	21.642	1142.145	891.576
304.935	21.792	1141.135	891.473
305.949	21.754	1140.433	890.650
306.964	21.550	1140.177	889.338
307.979	21.629	1139.533	889.154
308.993	21.690	1138.662	888.707
310.008	21.790	1137.811	888.470
311.022	21.794	1136.613	887.478
312.037	21.743	1136.594	887.128
313.052	21.580	1135.960	885.725
314.066	21.693	1134.642	885.196
315.081	21.612	1134.082	884.271
316.095	21.610	1133.923	884.056
317.110	21.711	1133.289	883.994
318.125	21.770	1131.953	883.168
319.139	21.719	1131.872	882.772
320.154	21.777	1131.287	882.528
321.168	21.742	1131.089	882.121
322.183	21.843	1129.990	881.693
323.197	21.805	1129.396	880.963
324.212	21.778	1128.943	880.393
325.227	21.815	1128.406	880.084
326.241	21.816	1127.760	879.506
327.256	21.957	1126.391	879.068
328.270	21.966	1125.317	878.196
329.285	21.782	1125.506	877.343
330.300	21.819	1124.460	876.635
331.314	21.900	1123.684	876.358
332.329	21.982	1122.707	875.929
333.343	21.920	1122.076	875.051
334.358	22.061	1121.175	874.974
335.373	22.023	1120.572	874.235
336.387	21.990	1120.084	873.615
337.402	21.964	1119.677	873.090
338.416	22.018	1118.959	872.720
339.431	21.926	1118.178	871.579
340.446	22.019	1117.289	871.268
341.460	22.100	1116.767	871.184
342.475	21.924	1116.021	869.654
343.489	22.134	1114.814	869.676
344.504	22.047	1114.253	868.730
345.519	22.094	1113.416	868.237
346.533	21.977	1112.894	867.171
347.548	21.995	1112.297	866.718
348.562	22.117	1111.197	866.387
349.577	22.163	1110.581	866.059
350.592	22.013	1110.060	864.838
351.606	21.931	1109.758	864.120
352.621	22.102	1109.041	864.326
353.635	22.165	1108.058	863.795
354.650	22.193	1107.378	863.327
355.665	22.247	1106.664	862.959
356.679	22.306	1106.196	862.804
357.694	22.199	1105.665	861.788
358.708	22.186	1104.990	861.124
359.723	22.181	1104.200	860.410
360.738	22.126	1103.590	859.585
361.752	22.245	1103.036	859.661
362.767	22.230	1102.901	859.408
363.781	22.130	1102.653	858.647
364.796	22.311	1101.673	858.693
365.810	22.268	1101.048	857.920
366.825	22.221	1100.899	857.500
367.840	22.311	1100.620	857.646
368.854	22.390	1099.602	857.160
369.869	22.370	1098.500	856.126
370.883	22.418	1097.886	855.807
371.898	22.393	1097.269	855.131
372.913	22.513	1096.059	854.692
373.927	22.395	1096.059	854.042
374.942	22.438	1095.678	853.881
375.956	22.273	1095.564	852.917
376.971	22.298	1094.872	852.422
377.986	22.455	1093.894	852.345
379.000	22.535	1093.045	851.994
380.015	22.425	1092.955	851.319
381.029	22.446	1092.101	850.681
382.044	22.499	1091.497	850.390
383.059	22.494	1090.653	849.631
384.073	22.413	1090.273	848.870
385.088	22.469	1089.540	848.495
386.102	22.489	1088.423	847.645
387.117	22.503	1087.661	847.046
388.132	22.593	1086.873	846.788
389.146	22.571	1085.707	845.700
390.161	22.501	1085.391	845.045
391.175	22.665	1084.589	845.129
392.190	22.554	1083.949	844.026
393.205	22.533	1083.677	843.637
394.219	22.521	1083.047	843.014
395.234	22.653	1081.645	842.480
396.248	22.571	1081.118	841.602
397.263	22.494	1080.503	840.682
398.278	22.740	1079.518	841.012
399.292	22.695	1079.142	840.434
400.307	22.668	1078.506	839.734
401.321	22.755	1077.491	839.285
402.336	22.569	1077.280	838.161
403.350	22.702	1076.374	838.012
404.365	22.767	1075.867	837.852
405.380	22.744	1075.327	837.251
406.394	22.787	1074.571	836.790
407.409	22.730	1073.456	835.581
408.423	22.770	1073.223	835.513
409.438	22.787	1072.009	834.573
410.453	22.923	1071.068	834.408
411.467	22.872	1070.827	833.908
412.482	22.782	1070.108	832.850
413.496	22.683	1070.106	832.306
414.511	22.890	1069.094	832.423
415.526	22.929	1068.693	832.218
416.540	22.939	1068.087	831.720
417.555	22.785	1067.593	830.538
418.569	22.943	1067.175	830.883
419.584	22.920	1066.756	830.376
420.599	22.935	1066.452	830.133
421.613	149.500	1397.371	1796.549
422.628	137.680	1445.573	1796.635
