DTS Sentinel unit serial number:	SN413079Multiplexer serial number:	ORYXHardware model number:	OX4-SRSoftware version number:	ORYX F/W v4.00 Oryx Data Collector v3.7.2.0data status	okinstallation	princeton_trtdifferential loss correction	single-endedforward channel	channel 2reverse channel	N/Adate	2019/09/18time	19:47:35forward acquisition time	60.00reverse acquisition time	0.00gamma	496.2192k internal	0.2331k external	0.2331temperature offset calibration	1.0026default loss term (dB/km)	0.3790temperature slope calibration	1.0000multiplexer offset coefficient	1.0000multiplexer slope coefficient	1.0000fibre end	0.00T internal ref (°C)	31.36T ext. ref 1 (°C)	1.00T ext. ref 2 (°C)	22.12length (m)	temperature (°C)	Stokes	anti-Stokes-747.200	557.400	-0.055	-0.134
-746.185	-96.350	0.351	-0.093
-745.171	-12.158	-0.252	-0.166
-744.156	-128.534	-0.286	0.041
-743.142	64.515	0.176	-0.178
-742.127	800.000	-0.093	0.328
-741.112	20.463	0.207	-0.168
-740.098	-200.000	0.031	0.457
-739.083	-57.740	0.385	-0.170
-738.069	-45.430	-0.147	-0.073
-737.054	204.946	-0.116	0.181
-736.039	87.165	-0.172	0.191
-735.025	-34.058	0.160	-0.088
-734.010	-102.889	-0.183	0.044
-732.996	21.715	-0.173	0.142
-731.981	-200.000	-0.028	-0.197
-730.966	-200.000	-0.001	-0.050
-729.952	-58.750	-0.250	0.109
-728.937	-83.517	0.215	0.069
-727.923	-52.407	-0.025	0.012
-726.908	-139.370	0.321	-0.035
-725.894	-50.383	-0.283	0.135
-724.879	-200.000	0.004	-0.449
-723.864	65.473	-0.065	0.066
-722.850	-200.000	-0.030	0.370
-721.835	-178.313	0.336	-0.008
-720.821	-164.267	-0.416	-0.019
-719.806	94.514	-0.200	0.228
-718.791	-73.231	-0.241	0.089
-717.777	159.147	0.066	-0.093
-716.762	-200.000	0.026	0.207
-715.748	-200.000	0.032	0.218
-714.733	-110.542	-0.302	-0.063
-713.718	88.207	0.129	-0.143
-712.704	95.827	0.375	-0.430
-711.689	-140.562	0.194	0.020
-710.675	619.525	0.048	0.122
-709.660	-200.000	-0.020	-0.464
-708.645	454.360	-0.191	0.424
-707.631	800.000	0.134	-0.403
-706.616	800.000	-0.040	0.116
-705.602	20.012	-0.322	-0.261
-704.587	800.000	-0.093	-0.375
-703.572	-200.000	-0.010	-0.125
-702.558	536.535	-0.092	-0.219
-701.543	186.673	0.055	0.083
-700.529	800.000	-0.103	-0.302
-699.514	-200.000	-0.024	0.146
-698.499	-16.575	-0.187	-0.119
-697.485	-113.233	0.226	0.045
-696.470	-200.000	0.040	-0.391
-695.456	273.040	-0.048	-0.086
-694.441	-200.000	-0.032	-0.419
-693.426	237.611	0.022	-0.037
-692.412	210.527	-0.175	-0.276
-691.397	608.121	0.079	-0.197
-690.383	-39.662	-0.135	-0.071
-689.368	-105.244	0.217	0.050
-688.354	230.513	0.161	0.265
-687.339	138.896	-0.247	-0.326
-686.324	-200.000	-0.181	-0.001
-685.310	93.024	-0.055	-0.063
-684.295	-200.000	-0.013	0.147
-683.281	30.829	-0.129	-0.111
-682.266	-200.000	0.009	-0.262
-681.251	-113.135	0.080	-0.016
-680.237	-106.898	-0.157	0.035
-679.222	-58.261	-0.192	0.084
-678.208	4.677	-0.073	-0.053
-677.193	-89.899	0.187	0.055
-676.178	-200.000	-0.044	0.378
-675.164	-200.000	0.043	0.239
-674.149	66.249	-0.228	-0.232
-673.135	432.471	-0.019	-0.041
-672.120	-139.943	-0.256	-0.027
-671.105	-79.459	-0.150	-0.051
-670.091	31.521	0.125	-0.108
-669.076	116.615	0.272	-0.335
-668.062	36.691	-0.062	-0.055
-667.047	130.291	-0.150	0.193
-666.032	-56.782	0.061	-0.027
-665.018	147.893	-0.138	0.187
-664.003	7.367	0.084	0.063
-662.989	-121.498	0.070	0.012
-661.974	-130.619	-0.069	0.009
-660.959	-30.715	0.203	0.115
-659.945	-97.683	-0.189	-0.049
-658.930	145.257	-0.192	0.257
-657.916	-24.986	-0.258	0.153
-656.901	-200.000	-0.001	-0.030
-655.886	549.655	0.182	0.438
-654.872	-200.000	-0.008	-0.093
-653.857	-118.688	0.044	0.008
-652.843	-200.000	-0.006	0.211
-651.828	800.000	0.087	-0.304
-650.814	165.282	0.137	-0.194
-649.799	4.827	-0.101	-0.074
-648.784	103.759	0.118	-0.139
-647.770	373.157	0.153	0.312
-646.755	800.000	0.096	-0.285
-645.741	-116.563	-0.145	0.027
-644.726	290.955	0.126	-0.230
-643.711	-169.076	0.452	-0.017
-642.697	800.000	-0.045	0.139
-641.682	515.183	0.054	-0.127
-640.668	-200.000	0.012	-0.274
-639.653	-148.865	0.059	0.005
-638.638	-57.089	0.485	0.214
-637.624	-200.000	0.023	0.263
-636.609	-71.488	-0.269	0.101
-635.595	-26.771	0.143	0.084
-634.580	226.122	0.157	-0.255
-633.565	-178.216	0.256	-0.006
-632.551	4.147	-0.024	-0.017
-631.536	35.759	0.223	-0.196
-630.522	-180.398	-0.123	-0.003
-629.507	-123.694	0.086	0.014
-628.492	-13.802	0.240	-0.155
-627.478	44.814	0.048	-0.044
-626.463	737.431	-0.072	0.193
-625.449	800.000	-0.027	-0.106
-624.434	800.000	-0.083	-0.259
-623.419	-17.099	-0.450	-0.284
-622.405	269.094	-0.062	-0.109
-621.390	-38.509	0.228	0.121
-620.376	86.280	0.019	-0.021
-619.361	-175.111	0.297	-0.008
-618.346	-155.814	-0.084	-0.005
-617.332	21.640	0.019	-0.015
-616.317	-200.000	-0.008	0.037
-615.303	-126.669	-0.294	0.044
-614.288	-200.000	0.008	0.258
-613.273	-200.000	-0.004	0.274
-612.259	217.432	0.058	0.093
-611.244	-187.339	-0.267	0.004
-610.230	78.137	0.048	-0.052
-609.215	21.021	-0.205	-0.166
-608.201	800.000	-0.022	-0.074
-607.186	-200.000	0.013	-0.133
-606.171	40.419	0.329	0.297
-605.157	748.312	0.034	0.093
-604.142	173.367	-0.184	-0.265
-603.128	-18.514	0.083	0.052
-602.113	340.088	0.051	0.100
-601.098	-122.815	0.371	0.060
-600.084	-36.070	0.141	0.076
-599.069	85.750	-0.149	-0.164
-598.055	-9.156	0.301	-0.201
-597.040	26.966	-0.178	-0.150
-596.025	1.585	0.134	0.096
-595.011	-92.211	-0.036	-0.010
-593.996	-40.862	0.040	-0.021
-592.982	-4.269	0.018	-0.013
-591.967	-200.000	-0.013	-0.066
-590.952	800.000	0.048	0.197
-589.938	-200.000	0.022	-0.107
-588.923	197.836	-0.083	-0.127
-587.909	-15.445	-0.152	-0.097
-586.894	552.118	-0.064	0.154
-585.879	-57.089	-0.204	0.090
-584.865	81.786	-0.074	0.080
-583.850	-18.538	-0.173	0.108
-582.836	-75.820	0.380	0.135
-581.821	557.492	-0.079	0.189
-580.806	800.000	0.062	-0.215
-579.792	-150.646	0.089	0.007
-578.777	70.295	0.112	-0.116
-577.763	12.054	0.181	-0.139
-576.748	-48.941	-0.250	0.120
-575.733	531.401	-0.054	0.127
-574.719	-200.000	0.025	-0.388
-573.704	11.661	-0.259	-0.199
-572.690	-80.502	-0.312	-0.104
-571.675	-39.233	-0.250	0.131
-570.661	33.674	0.220	0.191
-569.646	-86.472	0.238	0.073
-568.631	73.484	-0.262	0.274
-567.617	-105.601	0.120	-0.027
-566.602	-200.000	0.088	-0.406
-565.588	208.408	-0.102	-0.159
-564.573	-82.864	-0.220	0.071
-563.558	-126.637	0.280	0.041
-562.544	586.758	-0.172	-0.423
-561.529	-200.000	0.014	-0.323
-560.515	-2.106	0.266	-0.186
-559.500	-200.000	-0.003	0.015
-558.485	-108.552	-0.151	-0.032
-557.471	125.833	0.095	-0.119
-556.456	-93.487	-0.110	-0.030
-555.442	-169.760	-0.153	-0.006
-554.427	-140.145	0.058	-0.006
-553.412	332.140	-0.079	0.152
-552.398	8.389	-0.204	-0.153
-551.383	8.151	-0.397	-0.297
-550.369	-160.214	-0.037	0.002
-549.354	-200.000	0.007	-0.255
-548.339	57.426	0.320	-0.312
-547.325	268.972	0.143	-0.250
-546.310	-152.336	0.295	0.021
-545.296	-93.593	-0.270	-0.075
-544.281	-200.000	0.021	0.000
-543.266	-119.309	-0.079	-0.014
-542.252	-11.377	-0.197	0.129
-541.237	800.000	-0.117	0.326
-540.223	-200.000	0.002	-0.165
-539.208	-54.067	-0.237	0.108
-538.193	45.729	0.210	0.194
-537.179	-200.000	0.018	-0.105
-536.164	800.000	-0.095	-0.392
-535.150	-57.115	0.163	-0.072
-534.135	-200.000	-0.081	-0.417
-533.121	-70.842	0.127	-0.048
-532.106	-200.000	0.026	-0.168
-531.091	-147.984	0.197	-0.016
-530.077	800.000	0.054	0.175
-529.062	110.090	-0.087	-0.104
-528.048	622.894	0.083	0.210
-527.033	236.003	0.192	0.317
-526.018	47.497	0.313	-0.291
-525.004	-200.000	0.028	0.179
-523.989	0.842	-0.100	0.072
-522.975	439.003	0.227	-0.494
-521.960	-11.803	-0.229	-0.150
-520.945	-128.491	-0.446	-0.063
-519.931	110.989	-0.185	-0.222
-518.916	480.630	0.159	-0.360
-517.902	-143.307	0.254	-0.024
-516.887	137.032	-0.028	0.036
-515.872	-23.829	-0.143	-0.086
-514.858	-43.672	0.199	-0.100
-513.843	-139.342	0.398	0.043
-512.829	-21.942	-0.320	-0.194
-511.814	-154.481	0.315	-0.021
-510.799	-107.872	-0.290	-0.063
-509.785	-200.000	-0.035	0.304
-508.770	580.332	-0.031	-0.076
-507.756	-88.716	-0.227	0.067
-506.741	800.000	-0.074	0.240
-505.726	21.879	0.210	0.171
-504.712	-200.000	0.058	0.544
-503.697	800.000	-0.028	-0.077
-502.683	-115.595	-0.297	-0.056
-501.668	-73.723	-0.263	-0.095
-500.653	-136.592	0.063	0.007
-499.639	508.361	0.059	-0.137
-498.624	-200.000	0.041	-0.233
-497.610	344.991	-0.072	-0.140
-496.595	5.969	0.100	-0.073
-495.581	-73.285	-0.261	0.095
-494.566	-200.000	-0.015	0.262
-493.551	-113.929	-0.090	-0.017
-492.537	549.604	-0.034	-0.081
-491.522	-200.000	-0.007	0.065
-490.508	643.216	-0.051	0.129
-489.493	800.000	-0.004	-0.013
-488.478	-104.192	0.169	0.039
-487.464	-133.436	-0.319	-0.040
-486.449	-16.245	-0.043	0.027
-485.435	-138.379	0.440	-0.048
-484.420	-143.341	-0.078	-0.007
-483.405	215.712	-0.110	0.173
-482.391	-200.000	0.008	0.057
-481.376	-169.317	0.096	-0.004
-480.362	10.469	-0.187	0.142
-479.347	290.287	0.098	-0.178
-478.332	177.726	0.098	-0.142
-477.318	194.827	0.020	-0.031
-476.303	286.503	-0.116	-0.209
-475.289	-126.257	-0.405	-0.060
-474.274	83.205	0.335	-0.364
-473.259	800.000	0.081	0.223
-472.245	463.375	-0.069	0.153
-471.230	568.579	-0.149	-0.361
-470.216	31.509	-0.185	-0.158
-469.201	-112.011	0.138	0.028
-468.186	1.577	0.234	0.167
-467.172	-200.000	0.055	-0.000
-466.157	800.000	0.065	0.274
-465.143	800.000	-0.083	-0.310
-464.128	96.117	-0.234	0.267
-463.113	0.532	-0.270	0.192
-462.099	800.000	-0.052	0.144
-461.084	91.221	0.015	-0.017
-460.070	-116.861	-0.362	0.066
-459.055	-67.264	-0.191	-0.075
-458.040	117.439	0.082	-0.100
-457.026	407.086	-0.019	0.039
-456.011	49.470	-0.267	0.250
-454.997	57.697	0.041	0.040
-453.982	60.828	0.172	0.170
-452.968	-200.000	0.047	-0.236
-451.953	-139.678	-0.187	-0.020
-450.938	800.000	0.038	-0.159
-449.924	-130.128	-0.177	-0.024
-448.909	34.298	0.269	0.233
-447.895	16.996	-0.249	-0.196
-446.880	-63.288	-0.321	-0.131
-445.865	800.000	0.053	-0.148
-444.851	70.237	-0.049	0.050
-443.836	22.282	0.005	-0.004
-442.822	-200.000	0.011	-0.288
-441.807	-150.930	-0.253	-0.019
-440.792	48.015	-0.120	0.111
-439.778	-200.000	-0.014	0.193
-438.763	-41.217	0.286	0.147
-437.749	185.119	0.108	-0.159
-436.734	77.726	0.198	-0.209
-435.719	-3.181	0.323	-0.224
-434.705	-149.800	-0.125	-0.010
-433.690	-63.581	-0.112	-0.046
-432.676	800.000	-0.053	0.224
-431.661	800.000	0.054	-0.151
-430.646	-3.202	-0.121	-0.084
-429.632	-200.000	0.018	-0.189
-428.617	73.572	-0.159	0.166
-427.603	-90.903	0.201	0.057
-426.588	-196.028	0.028	0.000
-425.573	800.000	-0.028	0.107
-424.559	6.830	0.169	-0.125
-423.544	146.927	0.142	0.189
-422.530	-85.456	-0.333	-0.103
-421.515	-23.187	0.073	-0.044
-420.500	-27.410	0.212	-0.122
-419.486	-115.926	-0.337	-0.062
-418.471	86.191	-0.124	0.136
-417.457	43.395	0.119	-0.108
-416.442	800.000	-0.055	0.198
-415.428	8.779	-0.034	0.026
-414.413	572.116	-0.055	0.134
-413.398	109.980	0.209	-0.249
-412.384	-200.000	0.006	-0.279
-411.369	65.472	0.128	0.129
-410.355	742.389	0.158	0.421
-409.340	-104.960	-0.272	-0.062
-408.325	800.000	0.056	0.211
-407.311	800.000	0.048	-0.138
-406.296	731.219	-0.047	-0.125
-405.282	529.031	-0.030	0.070
-404.267	89.456	0.201	-0.223
-403.252	800.000	-0.110	-0.328
-402.238	483.931	0.071	0.160
-401.223	800.000	0.058	-0.165
-400.209	282.444	-0.092	-0.164
-399.194	337.904	0.067	-0.129
-398.179	-17.253	0.283	-0.177
-397.165	-200.000	0.037	0.224
-396.150	412.257	-0.057	-0.121
-395.136	-90.919	-0.462	-0.132
-394.121	-33.453	-0.131	-0.072
-393.106	11.202	0.233	-0.177
-392.092	4.298	-0.252	0.183
-391.077	-200.000	-0.082	-0.458
-390.063	-200.000	-0.061	-0.362
-389.048	-200.000	-0.026	-0.115
-388.033	-200.000	-0.000	-0.197
-387.019	-99.872	-0.288	-0.072
-386.004	82.777	-0.061	0.065
-384.990	336.560	-0.205	0.395
-383.975	-200.000	0.008	-0.212
-382.960	373.024	-0.119	0.240
-381.946	171.346	-0.329	-0.468
-380.931	-98.407	0.398	0.101
-379.917	-104.419	0.239	0.055
-378.902	-148.411	-0.251	0.020
-377.888	36.654	0.467	0.409
-376.873	234.228	-0.152	-0.249
-375.858	800.000	0.033	-0.120
-374.844	47.879	-0.217	-0.201
-373.829	-83.571	-0.206	-0.065
-372.815	-190.961	-0.296	0.003
-371.800	-108.604	0.253	-0.054
-370.785	800.000	-0.048	-0.144
-369.771	-102.414	-0.067	-0.016
-368.756	-48.686	0.250	0.119
-367.742	9.353	0.203	0.152
-366.727	-120.392	-0.046	-0.008
-365.712	77.559	0.130	0.137
-364.698	800.000	-0.037	-0.137
-363.683	133.228	0.009	-0.012
-362.669	-200.000	-0.010	-0.105
-361.654	-134.235	-0.300	0.037
-360.639	-100.365	-0.211	-0.052
-359.625	-62.068	0.333	0.138
-358.610	149.479	0.122	0.164
-357.596	257.964	0.043	0.073
-356.581	-108.485	-0.353	-0.075
-355.566	557.765	-0.062	0.148
-354.552	-33.929	0.194	-0.106
-353.537	670.318	0.071	0.183
-352.523	-200.000	-0.001	0.330
-351.508	-200.000	-0.012	0.124
-350.493	-102.113	0.203	0.048
-349.479	-138.333	-0.212	0.023
-348.464	-88.283	0.264	0.078
-347.450	93.039	-0.096	-0.107
-346.435	-1.803	0.169	0.118
-345.420	64.258	0.064	-0.064
-344.406	9.828	-0.326	0.245
-343.391	-200.000	0.027	-0.261
-342.377	-56.228	-0.279	-0.123
-341.362	-71.376	0.118	-0.044
-340.348	247.593	0.193	0.323
-339.333	-200.000	-0.054	-0.243
-338.318	-33.353	-0.307	-0.168
-337.304	-101.854	-0.142	0.034
-336.289	248.093	0.064	0.107
-335.275	60.397	0.139	0.136
-334.260	226.531	-0.075	-0.121
-333.245	168.209	-0.127	-0.179
-332.231	-11.033	0.222	-0.145
-331.216	-143.576	0.161	0.015
-330.202	761.832	0.138	0.370
-329.187	800.000	-0.098	0.307
-328.172	800.000	0.061	-0.213
-327.158	-200.000	0.035	0.208
-326.143	171.557	-0.051	0.073
-325.129	800.000	-0.049	0.173
-324.114	-35.826	-0.120	0.064
-323.099	34.662	0.049	0.042
-322.085	-93.525	-0.109	0.030
-321.070	182.099	0.172	-0.251
-320.056	-200.000	0.002	-0.039
-319.041	-74.413	0.059	-0.021
-318.026	-80.022	0.243	0.081
-317.012	192.633	0.327	0.489
-315.997	184.023	-0.055	0.081
-314.983	497.959	-0.046	0.104
-313.968	532.145	0.028	0.067
-312.953	169.991	-0.112	-0.158
-311.939	-24.767	0.141	0.083
-310.924	-122.789	-0.284	-0.045
-309.910	800.000	-0.011	-0.030
-308.895	-15.596	-0.170	0.107
-307.880	95.365	0.321	-0.362
-306.866	-93.639	-0.021	0.006
-305.851	-26.322	-0.336	0.195
-304.837	-200.000	-0.004	0.130
-303.822	305.239	-0.175	-0.322
-302.807	-71.205	-0.455	0.169
-301.793	44.758	0.077	-0.070
-300.778	-134.917	0.215	-0.026
-299.764	800.000	0.069	0.208
-298.749	334.522	0.243	0.466
-297.735	-185.478	0.308	-0.005
-296.720	-200.000	-0.024	0.195
-295.705	166.647	-0.113	0.159
-294.691	800.000	-0.144	0.567
-293.676	-132.026	-0.325	-0.042
-292.662	23.990	-0.008	-0.007
-291.647	367.349	0.059	0.117
-290.632	-61.396	-0.151	0.063
-289.618	-120.803	0.034	0.006
-288.603	143.631	-0.254	-0.335
-287.589	-200.000	0.013	0.151
-286.574	60.352	0.123	-0.120
-285.559	-0.325	0.146	0.102
-284.545	800.000	0.075	0.265
-283.530	-200.000	0.073	0.323
-282.516	-86.439	0.314	0.095
-281.501	69.796	0.310	0.316
-280.486	-110.421	0.078	-0.016
-279.472	-200.000	-0.031	-0.232
-278.457	800.000	-0.041	0.113
-277.443	-6.291	0.211	0.142
-276.428	-200.000	0.047	-0.427
-275.413	72.502	0.192	-0.198
-274.399	-36.032	-0.166	0.089
-273.384	-82.851	0.369	-0.118
-272.370	-200.000	-0.022	-0.124
-271.355	-64.727	0.135	0.054
-270.340	-54.950	0.160	0.071
-269.326	-134.426	0.520	-0.063
-268.311	140.076	-0.231	0.301
-267.297	83.225	-0.201	-0.216
-266.282	-200.000	-0.005	-0.135
-265.267	-26.717	0.405	0.234
-264.253	169.885	-0.086	-0.122
-263.238	-200.000	0.058	0.354
-262.224	-200.000	0.030	0.142
-261.209	41.833	0.150	-0.134
-260.195	46.256	0.076	0.069
-259.180	-18.133	0.278	0.172
-258.165	-55.380	-0.086	-0.038
-257.151	-124.670	0.221	-0.034
-256.136	105.800	0.303	0.354
-255.122	-200.000	-0.017	-0.159
-254.107	-70.854	0.105	0.039
-253.092	-45.918	-0.078	0.038
-252.078	-115.028	-0.205	-0.038
-251.063	-74.119	-0.174	-0.062
-250.049	-8.957	-0.139	0.092
-249.034	682.289	-0.041	0.106
-248.019	-124.787	-0.084	-0.013
-247.005	527.288	-0.174	-0.404
-245.990	800.000	0.008	-0.028
-244.976	-200.000	0.010	0.049
-243.961	-200.000	-0.008	-0.052
-242.946	394.445	0.086	0.177
-241.932	-107.266	-0.289	-0.063
-240.917	-23.097	-0.403	-0.240
-239.903	800.000	-0.104	-0.289
-238.888	615.092	0.117	0.290
-237.873	800.000	0.044	-0.138
-236.859	800.000	-0.127	0.365
-235.844	147.009	0.232	-0.308
-234.830	27.137	-0.187	0.154
-233.815	719.919	0.093	0.244
-232.800	-121.543	0.195	0.032
-231.786	-200.000	-0.033	0.153
-230.771	-145.904	0.392	-0.034
-229.757	-200.000	0.010	-0.124
-228.742	-184.376	-0.475	0.008
-227.727	372.968	0.085	0.171
-226.713	3.137	0.258	-0.185
-225.698	41.401	-0.153	0.136
-224.684	-200.000	-0.015	-0.128
-223.669	-54.610	0.179	-0.080
-222.655	-36.330	-0.227	-0.121
-221.640	800.000	0.143	0.413
-220.625	227.803	-0.141	0.226
-219.611	-200.000	-0.057	0.397
-218.596	-200.000	0.002	0.184
-217.582	800.000	0.076	0.273
-216.567	191.198	0.072	0.106
-215.552	798.054	-0.030	-0.082
-214.538	104.049	-0.171	0.199
-213.523	-110.879	-0.115	0.023
-212.509	-14.927	-0.166	-0.105
-211.494	36.876	0.040	-0.035
-210.479	-84.213	-0.236	0.074
-209.465	-200.000	-0.055	-0.337
-208.450	-166.155	-0.183	0.008
-207.436	95.800	-0.087	0.097
-206.421	-95.579	-0.412	0.109
-205.406	-200.000	-0.008	0.181
-204.392	-132.931	0.208	0.026
-203.377	487.750	0.132	0.296
-202.363	-163.378	0.217	0.010
-201.348	-127.864	-0.328	-0.047
-200.333	8.592	0.177	0.131
-199.319	-15.797	0.032	0.020
-198.304	230.374	-0.109	0.176
-197.290	-200.000	-0.001	-0.033
-196.275	800.000	0.012	-0.043
-195.260	40.603	0.214	-0.190
-194.246	-200.000	0.117	-0.000
-193.231	647.864	-0.043	0.108
-192.217	-167.388	0.215	-0.008
-191.202	209.814	0.133	-0.206
-190.187	-200.000	0.002	0.112
-189.173	-200.000	-0.086	0.378
-188.158	800.000	-0.031	-0.092
-187.144	-14.207	0.080	0.051
-186.129	84.116	0.144	0.155
-185.114	13.891	-0.128	0.098
-184.100	520.236	-0.046	-0.107
-183.085	0.466	-0.100	0.070
-182.071	-72.806	0.298	0.108
-181.056	800.000	0.056	-0.170
-180.042	129.990	0.152	0.191
-179.027	-149.938	-0.446	0.034
-178.012	56.214	-0.117	-0.112
-176.998	30.567	-0.096	-0.081
-175.983	141.126	0.132	-0.172
-174.969	800.000	-0.038	-0.124
-173.954	-129.184	-0.026	-0.004
-172.939	1.900	0.158	-0.113
-171.925	-110.895	0.169	-0.034
-170.910	-99.799	0.347	0.085
-169.896	24.756	-0.178	0.145
-168.881	-200.000	0.062	0.485
-167.866	-200.000	-0.081	0.381
-166.852	-127.002	0.293	0.042
-165.837	-200.000	-0.023	0.186
-164.823	-103.337	-0.271	-0.063
-163.808	-87.456	0.105	-0.031
-162.793	-54.989	0.147	0.065
-161.779	800.000	-0.008	0.034
-160.764	-40.958	-0.029	0.015
-159.750	154.491	0.196	-0.265
-158.735	800.000	0.031	-0.111
-157.720	37.846	0.085	0.074
-156.706	-200.000	0.067	-0.321
-155.691	-88.205	-0.225	0.066
-154.677	-200.000	-0.001	0.021
-153.662	308.258	-0.019	-0.034
-152.647	-140.689	-0.189	0.019
-151.633	-19.350	-0.089	0.055
-150.618	-101.202	0.126	0.030
-149.604	408.218	0.069	-0.144
-148.589	69.934	0.131	0.133
-147.574	117.220	0.188	0.227
-146.560	-116.205	-0.216	0.039
-145.545	-200.000	0.080	-0.391
-144.531	48.595	-0.182	-0.168
-143.516	-43.727	-0.179	-0.088
-142.502	-106.261	0.341	-0.075
-141.487	-49.449	-0.082	0.038
-140.472	-29.680	0.351	0.197
-139.458	-174.365	0.164	-0.005
-138.443	199.948	-0.151	-0.228
-137.429	-136.302	-0.373	-0.043
-136.414	-88.271	0.182	0.054
-135.399	-162.320	-0.083	-0.004
-134.385	-200.000	0.012	-0.061
-133.370	-17.751	-0.152	-0.094
-132.356	-123.348	-0.071	0.011
-131.341	-200.000	-0.008	-0.160
-130.326	-149.777	-0.267	-0.021
-129.312	-81.859	0.249	0.080
-128.297	-143.258	-0.114	-0.011
-127.283	412.407	0.197	0.410
-126.268	800.000	-0.116	-0.318
-125.253	-200.000	-0.055	-0.342
-124.239	-84.830	0.449	-0.138
-123.224	-200.000	0.031	-0.193
-122.210	-200.000	-0.018	-0.225
-121.195	19.255	0.066	-0.052
-120.180	-200.000	0.054	0.247
-119.166	210.149	0.069	0.106
-118.151	151.224	0.238	0.318
-117.137	-200.000	-0.046	-0.330
-116.122	-18.327	0.080	-0.049
-115.107	713.472	0.106	-0.277
-114.093	-198.782	0.363	0.002
-113.078	-200.000	-0.230	0.000
-112.064	395.140	0.122	0.249
-111.049	-31.832	0.314	0.173
-110.034	-66.080	0.160	0.062
-109.020	444.502	0.053	0.115
-108.005	46.574	0.209	0.191
-106.991	-120.505	-0.102	-0.017
-105.976	-200.000	0.063	-0.294
-104.962	-73.629	0.437	-0.156
-103.947	126.762	0.108	-0.135
-102.932	249.295	-0.166	-0.277
-101.918	25.192	0.098	-0.080
-100.903	-200.000	-0.014	-0.121
-99.889	614.532	0.051	-0.125
-98.874	75.973	-0.179	0.186
-97.859	-145.081	-0.097	0.009
-96.845	434.002	0.071	-0.152
-95.830	-37.852	0.122	0.064
-94.816	800.000	-0.016	0.060
-93.801	800.000	0.049	0.167
-92.786	-149.661	-0.065	0.005
-91.772	-136.971	-0.210	0.024
-90.757	-14.332	0.049	-0.031
-89.743	40.030	-0.206	-0.181
-88.728	-200.000	-0.024	0.219
-87.713	108.769	0.162	-0.190
-86.699	-200.000	0.042	0.318
-85.684	-200.000	0.093	0.404
-84.670	-119.013	0.090	-0.015
-83.655	-53.243	0.199	0.089
-82.640	-172.274	0.206	0.006
-81.626	64.251	0.210	-0.207
-80.611	800.000	0.087	0.270
-79.597	-63.409	0.125	-0.051
-78.582	800.000	0.036	-0.133
-77.567	55.304	0.135	-0.128
-76.553	504.553	0.092	-0.209
-75.538	-200.000	0.052	-0.240
-74.524	-113.764	-0.133	0.025
-73.509	-200.000	-0.274	0.000
-72.494	0.319	0.025	-0.018
-71.480	19.301	0.080	0.063
-70.465	800.000	-0.067	0.206
-69.451	97.888	-0.180	-0.203
-68.436	404.328	-0.127	-0.263
-67.422	112.515	-0.226	-0.268
-66.407	87.535	-0.229	-0.249
-65.392	800.000	0.031	0.124
-64.378	800.000	-0.063	-0.247
-63.363	-58.559	0.197	-0.084
-62.349	-74.947	0.371	-0.130
-61.334	-2.232	-1.130	-0.777
-60.319	10.360	0.958	0.715
-59.305	-200.000	-0.032	-1.030
-58.290	800.000	0.429	1.352
-57.276	800.000	0.534	1.818
-56.261	-200.000	106.777	612.658
-55.246	475.595	1471.956	3256.627
-54.232	148.333	2659.084	3516.476
-53.217	104.606	2285.777	2637.582
-52.203	40.772	1903.797	1681.788
-51.188	34.764	1696.039	1452.692
-50.173	31.968	1653.967	1395.835
-49.159	50.995	1705.595	1583.527
-48.144	52.305	1721.144	1607.776
-47.130	34.262	1679.239	1434.293
-46.115	31.503	1665.252	1401.654
-45.100	31.282	1660.553	1395.991
-44.086	31.264	1657.976	1393.632
-43.071	31.290	1655.079	1391.340
-42.057	31.219	1653.252	1389.216
-41.042	31.240	1650.844	1387.297
-40.027	31.391	1648.607	1386.479
-39.013	31.230	1647.059	1383.934
-37.998	31.140	1645.956	1382.284
-36.984	31.169	1644.888	1381.546
-35.969	31.352	1642.772	1381.066
-34.954	31.485	1640.990	1380.499
-33.940	31.394	1639.159	1378.228
-32.925	31.357	1637.463	1376.472
-31.911	31.269	1636.410	1374.891
-30.896	31.367	1634.543	1373.987
-29.881	31.300	1633.351	1372.439
-28.867	31.401	1630.915	1371.077
-27.852	31.349	1629.789	1369.694
-26.838	31.350	1628.474	1368.541
-25.823	31.334	1627.044	1367.173
-24.809	31.323	1625.975	1366.135
-23.794	31.361	1624.718	1365.302
-22.779	31.368	1622.440	1363.389
-21.765	31.325	1621.088	1361.880
-20.750	31.428	1619.472	1361.222
-19.736	31.338	1618.207	1359.445
-18.721	31.462	1616.557	1358.909
-17.706	31.382	1615.216	1357.145
-16.692	31.435	1613.298	1355.867
-15.677	31.344	1612.246	1354.271
-14.663	31.464	1610.727	1353.809
-13.648	31.439	1609.406	1352.466
-12.633	31.370	1608.048	1350.769
-11.619	31.307	1606.681	1349.113
-10.604	31.397	1604.747	1348.084
-9.590	31.475	1603.283	1347.360
-8.575	31.411	1602.406	1346.114
-7.560	31.456	1601.122	1345.305
-6.546	31.457	1600.223	1344.500
-5.531	31.430	1599.003	1343.228
-4.517	31.419	1597.764	1342.055
-3.502	31.315	1597.204	1340.788
-2.487	31.450	1594.981	1339.832
-1.473	30.633	1582.505	1323.490
-0.458	26.585	1560.063	1276.201
0.556	20.516	1558.214	1230.407
1.571	17.279	1579.423	1223.780
2.586	16.412	1592.209	1227.285
3.600	15.198	1540.076	1178.458
4.615	8.984	1434.324	1056.623
5.629	2.436	1371.816	969.133
6.644	1.093	1363.568	954.761
7.659	0.930	1362.416	952.845
8.673	0.991	1361.451	952.469
9.688	0.966	1359.564	950.908
10.702	0.782	1356.107	947.252
11.717	3.670	1361.027	968.739
12.731	11.063	1371.469	1022.680
13.746	16.490	1379.013	1062.404
14.761	17.613	1379.499	1069.743
15.775	16.920	1377.873	1064.038
16.790	16.021	1374.903	1056.018
17.804	15.164	1372.892	1049.016
18.819	14.745	1371.596	1045.315
19.834	14.497	1370.122	1042.548
20.848	14.190	1369.088	1039.752
21.863	13.967	1367.845	1037.321
22.877	13.828	1366.399	1035.268
23.892	13.698	1365.893	1033.982
24.907	13.757	1364.801	1033.428
25.921	13.718	1364.014	1032.500
26.936	13.889	1362.586	1032.388
27.950	13.944	1361.683	1031.955
28.965	13.870	1360.942	1030.843
29.980	13.930	1360.193	1030.560
30.994	13.987	1359.339	1030.176
32.009	14.114	1358.114	1029.943
33.023	14.094	1357.247	1029.067
34.038	13.903	1356.353	1027.119
35.053	13.993	1354.795	1026.402
36.067	13.942	1353.582	1025.079
37.082	13.919	1353.319	1024.646
38.096	14.011	1351.854	1024.013
39.111	14.069	1351.172	1023.763
40.126	13.901	1350.616	1022.216
41.140	13.813	1349.492	1020.739
42.155	13.794	1349.238	1020.336
43.169	13.825	1348.733	1020.055
44.184	13.818	1348.739	1019.929
45.199	13.773	1348.217	1019.163
46.213	13.792	1347.816	1018.890
47.228	13.949	1346.587	1018.830
48.242	13.796	1345.754	1017.171
49.257	13.932	1343.639	1016.316
50.271	13.913	1342.669	1015.379
51.286	13.917	1341.052	1014.091
52.301	13.872	1339.909	1012.861
53.315	13.806	1339.197	1011.829
54.330	13.880	1337.771	1011.114
55.344	13.841	1336.733	1010.001
56.359	13.772	1335.891	1008.856
57.374	13.801	1335.217	1008.439
58.388	13.736	1334.335	1007.285
59.403	13.767	1333.440	1006.709
60.417	13.815	1332.524	1006.222
61.432	13.808	1331.645	1005.423
62.447	13.777	1330.695	1004.434
63.461	13.700	1330.228	1003.525
64.476	13.711	1328.987	1002.563
65.490	13.773	1327.020	1001.368
66.505	13.724	1326.243	1000.397
67.520	13.677	1325.024	999.102
68.534	13.704	1323.984	998.395
69.549	13.760	1322.908	997.834
70.563	13.782	1321.674	996.947
71.578	13.747	1320.697	995.909
72.593	13.682	1319.439	994.483
73.607	13.654	1319.050	993.934
74.622	13.661	1318.315	993.332
75.636	13.704	1317.638	992.992
76.651	13.599	1316.936	991.745
77.666	13.668	1316.818	991.987
78.680	13.618	1315.925	990.924
79.695	13.672	1314.600	990.160
80.709	13.770	1314.069	990.260
81.724	13.773	1313.285	989.599
82.739	13.879	1312.225	989.343
83.753	13.940	1310.677	988.451
84.768	13.978	1309.997	988.079
85.782	13.994	1308.816	987.197
86.797	13.900	1307.720	985.721
87.812	13.814	1306.797	984.432
88.826	13.833	1305.428	983.427
89.841	13.851	1304.406	982.674
90.855	13.766	1304.260	981.976
91.870	13.964	1302.666	981.855
92.884	13.906	1301.795	980.770
93.899	13.918	1301.166	980.279
94.914	13.938	1300.455	979.779
95.928	14.005	1299.207	979.146
96.943	14.010	1298.581	978.617
97.957	13.950	1297.388	977.275
98.972	13.915	1296.364	976.215
99.987	13.897	1295.506	975.377
101.001	13.803	1294.313	973.841
102.016	13.911	1293.602	973.854
103.030	14.002	1292.330	973.340
104.045	13.906	1291.580	972.131
105.060	13.953	1289.982	971.113
106.074	13.846	1289.075	969.719
107.089	13.785	1287.826	968.342
108.103	13.775	1287.027	967.592
109.118	13.826	1285.124	966.375
110.133	13.767	1284.067	965.150
111.147	13.832	1282.682	964.402
112.162	13.807	1281.340	963.164
113.176	13.879	1280.316	962.725
114.191	13.960	1279.418	962.437
115.206	13.938	1278.000	961.154
116.220	13.912	1277.133	960.266
117.235	13.895	1276.109	959.316
118.249	13.907	1275.131	958.567
119.264	13.763	1274.302	957.027
120.279	13.842	1273.257	956.611
121.293	13.816	1272.230	955.607
122.308	13.846	1270.983	954.755
123.322	13.846	1269.852	953.826
124.337	13.853	1268.624	952.859
125.352	13.958	1267.308	952.387
126.366	13.813	1266.547	950.900
127.381	13.836	1265.354	950.053
128.395	13.833	1264.574	949.365
129.410	13.918	1263.160	948.703
130.424	13.805	1262.398	947.401
131.439	14.051	1260.789	947.511
132.454	13.979	1260.541	946.834
133.468	13.951	1259.789	946.028
134.483	13.848	1259.579	945.197
135.497	13.952	1257.938	944.471
136.512	13.906	1256.805	943.277
137.527	13.836	1255.856	942.087
138.541	13.946	1254.057	941.274
139.556	13.978	1252.877	940.489
140.570	13.902	1252.081	939.378
141.585	13.986	1250.655	938.700
142.600	14.024	1249.399	937.886
143.614	13.961	1248.679	936.909
144.629	14.068	1247.240	936.348
145.643	14.061	1246.033	935.319
146.658	14.012	1245.163	934.310
147.673	14.079	1243.449	933.319
148.687	13.942	1242.672	931.881
149.702	14.038	1240.615	930.797
150.716	13.876	1239.977	929.325
151.731	13.963	1238.538	928.651
152.746	14.067	1237.272	928.200
153.760	14.064	1236.244	927.332
154.775	14.123	1235.158	926.764
155.789	14.084	1233.872	925.497
156.804	14.056	1233.197	924.755
157.819	14.030	1232.226	923.804
158.833	14.236	1231.182	924.082
159.848	14.176	1230.242	922.962
160.862	14.193	1229.419	922.358
161.877	14.222	1227.743	921.179
162.892	14.141	1226.999	920.090
163.906	14.098	1226.467	919.374
164.921	14.131	1225.565	918.797
165.935	14.230	1224.562	918.512
166.950	14.150	1223.947	917.524
167.964	14.205	1223.150	917.150
168.979	14.169	1222.317	916.246
169.994	14.164	1221.886	915.814
171.008	14.139	1221.030	914.954
172.023	14.195	1220.106	914.492
173.037	14.366	1218.909	914.448
174.052	14.354	1217.721	913.412
175.067	14.216	1216.949	911.996
176.081	14.281	1215.962	911.529
177.096	14.197	1215.350	910.533
178.110	14.251	1213.998	909.734
179.125	14.303	1213.014	909.202
180.140	14.262	1212.059	908.179
181.154	14.304	1210.579	907.222
182.169	14.441	1209.161	906.821
183.183	14.376	1208.074	905.573
184.198	14.409	1206.839	904.744
185.213	14.369	1206.266	904.021
186.227	14.493	1204.498	903.288
187.242	14.517	1203.585	902.655
188.256	14.429	1202.897	901.581
189.271	14.442	1202.093	900.970
190.286	14.345	1201.273	899.751
191.300	14.336	1200.133	898.767
192.315	14.265	1199.630	897.930
193.329	14.320	1198.770	897.504
194.344	14.341	1198.274	897.167
195.359	14.390	1197.794	896.992
196.373	14.540	1196.729	896.919
197.388	14.555	1196.236	896.553
198.402	14.632	1195.561	896.378
199.417	14.642	1195.329	896.178
200.432	14.687	1194.155	895.460
201.446	14.596	1193.716	894.568
202.461	14.685	1192.675	894.182
203.475	14.601	1191.893	893.068
204.490	14.680	1190.379	892.276
205.504	14.597	1189.162	890.845
206.519	14.716	1187.523	890.169
207.534	14.639	1186.692	889.056
208.548	14.605	1186.069	888.331
209.563	14.594	1185.250	887.581
210.577	14.714	1184.652	887.692
211.592	14.727	1183.284	886.657
212.607	14.687	1182.759	885.975
213.621	14.779	1181.896	885.738
214.636	14.775	1180.819	884.830
215.650	14.944	1179.951	884.998
216.665	14.894	1178.911	883.871
217.680	14.849	1178.091	882.942
218.694	14.959	1177.030	882.652
219.709	14.931	1176.438	881.982
220.723	14.819	1175.874	880.889
221.738	14.902	1174.871	880.498
222.753	14.939	1174.291	880.180
223.767	14.905	1173.688	879.469
224.782	15.030	1172.840	879.415
225.796	14.963	1172.529	878.751
226.811	14.987	1171.809	878.261
227.826	14.954	1170.971	877.380
228.840	15.039	1170.317	877.261
229.855	15.091	1169.243	876.646
230.869	15.068	1168.154	875.631
231.884	15.073	1167.836	875.344
232.899	15.081	1166.870	874.587
233.913	14.929	1166.420	873.376
234.928	14.948	1165.839	872.962
235.942	14.958	1164.957	872.275
236.957	15.021	1163.945	871.772
237.972	15.028	1163.274	871.228
238.986	15.006	1162.829	870.701
240.001	15.094	1161.918	870.398
241.015	15.003	1160.870	869.065
242.030	15.096	1160.272	869.025
243.045	15.129	1159.565	868.587
244.059	15.188	1158.718	868.181
245.074	15.131	1158.119	867.363
246.088	15.236	1157.290	867.206
247.103	15.225	1156.444	866.439
248.117	15.174	1155.397	865.315
249.132	15.269	1155.338	865.687
250.147	15.446	1154.182	865.657
251.161	15.452	1153.578	865.157
252.176	15.403	1152.911	864.326
253.190	15.495	1152.071	864.096
254.205	15.461	1151.812	863.650
255.220	15.547	1151.106	863.487
256.234	15.514	1150.240	862.591
257.249	15.513	1149.715	862.114
258.263	15.504	1149.387	861.745
259.278	15.678	1148.342	861.778
260.293	15.525	1148.052	860.702
261.307	15.577	1147.675	860.609
262.322	15.632	1146.950	860.273
263.336	15.637	1145.957	859.478
264.351	15.630	1145.483	859.011
265.366	15.615	1144.752	858.306
266.380	15.665	1143.912	857.857
267.395	15.654	1143.231	857.214
268.409	15.646	1142.315	856.412
269.424	15.616	1141.898	855.869
270.439	15.622	1141.598	855.600
271.453	15.657	1140.686	855.019
272.468	15.658	1139.602	854.134
273.482	15.689	1138.899	853.688
274.497	15.616	1138.664	853.066
275.512	15.704	1137.395	852.488
276.526	15.687	1136.810	851.889
277.541	15.782	1136.175	851.816
278.555	15.809	1135.678	851.505
279.570	15.761	1134.651	850.420
280.585	15.832	1133.783	850.051
281.599	15.915	1132.921	849.749
282.614	15.823	1131.758	848.338
283.628	15.845	1130.675	847.562
284.643	15.930	1129.628	847.130
285.657	15.987	1129.048	846.906
286.672	15.944	1128.212	845.988
287.687	15.902	1127.335	845.043
288.701	15.929	1126.858	844.745
289.716	15.993	1125.918	844.287
290.730	15.948	1125.302	843.526
291.745	15.970	1124.725	843.131
292.760	15.988	1123.957	842.567
293.774	16.083	1123.015	842.265
294.789	16.179	1122.907	842.586
295.803	16.161	1122.172	841.869
296.818	15.978	1121.479	840.362
297.833	16.070	1120.348	839.900
298.847	16.202	1119.262	839.668
299.862	16.130	1118.523	838.680
300.876	16.150	1118.106	838.395
301.891	16.133	1117.597	837.857
302.906	16.170	1117.377	837.799
303.920	16.243	1116.025	837.074
304.935	16.232	1115.625	836.644
305.949	16.340	1114.649	836.374
306.964	16.431	1114.407	836.568
307.979	16.220	1113.728	834.944
308.993	16.235	1112.834	834.272
310.008	16.330	1111.790	833.885
311.022	16.345	1111.470	833.644
312.037	16.378	1110.446	832.966
313.052	16.363	1109.564	832.157
314.066	16.355	1108.700	831.393
315.081	16.333	1107.506	830.318
316.095	16.310	1107.386	830.039
317.110	16.291	1106.340	829.091
318.125	16.356	1105.665	828.830
319.139	16.326	1105.487	828.476
320.154	16.270	1104.556	827.430
321.168	16.289	1104.105	827.111
322.183	16.436	1103.250	827.119
323.197	16.435	1102.443	826.437
324.212	16.428	1101.692	825.765
325.227	16.450	1101.597	825.730
326.241	16.506	1100.677	825.240
327.256	16.476	1100.005	824.515
328.270	16.435	1098.964	823.464
329.285	16.403	1098.269	822.711
330.300	16.485	1097.170	822.217
331.314	16.579	1096.537	822.126
332.329	16.529	1095.456	820.999
333.343	16.482	1094.419	819.924
334.358	16.558	1093.776	819.735
335.373	16.552	1093.380	819.337
336.387	16.580	1092.481	818.728
337.402	16.615	1091.925	818.409
338.416	16.502	1091.465	817.443
339.431	16.615	1090.482	817.184
340.446	16.730	1089.552	816.968
341.460	16.790	1089.106	816.849
342.475	16.774	1087.936	815.822
343.489	16.699	1087.211	814.848
344.504	16.809	1086.597	814.842
345.519	16.836	1085.647	814.188
346.533	16.817	1084.675	813.295
347.548	16.848	1083.960	812.835
348.562	16.836	1083.331	812.237
349.577	16.810	1082.934	811.740
350.592	16.773	1082.499	811.168
351.606	16.848	1081.263	810.528
352.621	16.807	1080.455	809.653
353.635	16.825	1079.888	809.244
354.650	16.809	1079.143	808.537
355.665	16.916	1078.235	808.296
356.679	16.949	1077.756	808.023
357.694	16.962	1076.817	807.308
358.708	16.948	1076.712	807.090
359.723	16.984	1075.931	806.603
360.738	16.973	1075.436	806.111
361.752	16.893	1074.817	805.194
362.767	16.985	1074.144	805.056
363.781	16.959	1073.838	804.634
364.796	17.114	1073.109	804.751
365.810	17.142	1072.245	804.162
366.825	17.135	1071.609	803.581
367.840	17.175	1071.269	803.443
368.854	17.195	1070.871	803.168
369.869	17.248	1070.029	802.719
370.883	17.214	1069.118	801.803
371.898	17.030	1068.568	800.454
372.913	17.153	1067.741	800.341
373.927	17.252	1067.153	800.293
374.942	17.250	1066.604	799.806
375.956	17.382	1065.495	799.522
376.971	17.270	1065.411	798.859
377.986	17.262	1065.210	798.602
379.000	17.384	1064.463	798.545
380.015	17.341	1063.841	797.804
381.029	17.421	1063.156	797.595
382.044	17.425	1062.589	797.118
383.059	17.427	1061.848	796.502
384.073	17.431	1060.963	795.785
385.088	17.438	1060.282	795.239
386.102	17.448	1059.746	794.815
387.117	17.494	1058.314	793.883
388.132	17.565	1057.434	793.481
389.146	17.531	1056.392	792.471
390.161	17.352	1056.032	791.299
391.175	17.478	1055.590	791.486
392.190	17.450	1054.608	790.547
393.205	17.568	1053.740	790.376
394.219	17.553	1052.837	789.559
395.234	17.602	1051.752	788.903
396.248	17.579	1050.987	788.151
397.263	17.538	1049.920	787.094
398.278	17.558	1049.443	786.759
399.292	17.576	1049.112	786.525
400.307	17.652	1048.176	786.103
401.321	17.644	1047.573	785.546
402.336	17.632	1046.906	784.919
403.350	17.595	1046.017	784.013
404.365	17.530	1045.995	783.626
405.380	17.628	1044.812	783.124
406.394	17.669	1044.091	782.699
407.409	17.686	1043.360	782.161
408.423	17.701	1042.729	781.689
409.438	17.807	1041.690	781.327
410.453	17.884	1041.286	781.305
411.467	17.976	1040.502	781.069
412.482	17.804	1040.244	780.018
413.496	17.897	1039.210	779.599
414.511	17.863	1039.091	779.286
415.526	17.909	1038.362	778.883
416.540	18.013	1037.973	778.994
417.555	17.942	1037.545	778.280
418.569	17.989	1036.882	777.927
419.584	18.160	1036.195	778.124
420.599	18.064	1035.889	777.387
421.613	105.029	1322.563	1468.505
422.628	96.322	1364.300	1468.592
