DTS Sentinel unit serial number:	SN413079Multiplexer serial number:	ORYXHardware model number:	OX4-SRSoftware version number:	ORYX F/W v4.00 Oryx Data Collector v3.7.2.0data status	okinstallation	princeton_trtdifferential loss correction	single-endedforward channel	channel 2reverse channel	N/Adate	2019/09/10time	21:05:11forward acquisition time	60.00reverse acquisition time	0.00gamma	496.2192k internal	0.2330k external	0.2330temperature offset calibration	0.9946default loss term (dB/km)	0.3790temperature slope calibration	1.0000multiplexer offset coefficient	1.0000multiplexer slope coefficient	1.0000fibre end	0.00T internal ref (°C)	31.52T ext. ref 1 (°C)	-0.30T ext. ref 2 (°C)	24.63length (m)	temperature (°C)	Stokes	anti-Stokes-747.200	-27.387	0.112	-0.065
-746.185	800.000	0.026	0.090
-745.171	-21.425	0.371	0.228
-744.156	-200.000	0.012	0.253
-743.142	-200.000	0.029	0.210
-742.127	-200.000	0.000	-0.013
-741.112	-42.130	-0.241	-0.124
-740.098	-200.000	0.045	0.410
-739.083	-67.911	-0.064	0.025
-738.069	131.171	0.085	0.109
-737.054	566.805	-0.033	0.081
-736.039	566.710	0.049	0.119
-735.025	800.000	-0.080	-0.321
-734.010	-121.540	-0.065	-0.011
-732.996	-200.000	0.010	-0.366
-731.981	-58.211	-0.113	0.049
-730.966	249.154	0.067	-0.114
-729.952	120.405	-0.173	0.216
-728.937	-147.190	-0.262	-0.022
-727.923	-200.000	0.051	0.276
-726.908	-20.424	-0.191	-0.118
-725.894	-200.000	-0.028	-0.178
-724.879	-61.896	-0.047	-0.020
-723.864	-96.985	0.152	0.040
-722.850	800.000	-0.076	-0.332
-721.835	-200.000	0.052	0.255
-720.821	800.000	-0.021	0.070
-719.806	-25.608	0.244	-0.145
-718.791	463.720	-0.136	-0.305
-717.777	-116.700	0.267	0.049
-716.762	6.982	-0.186	-0.139
-715.748	188.333	-0.052	-0.078
-714.733	61.411	0.085	-0.085
-713.718	-111.497	-0.162	-0.033
-712.704	800.000	-0.099	-0.388
-711.689	-142.307	0.323	0.032
-710.675	185.679	-0.114	0.170
-709.660	-200.000	0.010	0.136
-708.645	-84.727	-0.452	0.143
-707.631	-143.615	-0.340	0.032
-706.616	-42.805	0.175	0.089
-705.602	-9.689	0.231	-0.155
-704.587	34.543	0.181	-0.159
-703.572	156.975	0.187	0.260
-702.558	156.798	-0.309	-0.430
-701.543	-78.141	0.143	0.049
-700.529	358.753	-0.028	0.056
-699.514	-55.877	-0.095	-0.043
-698.499	-200.000	0.024	-0.218
-697.485	-200.000	-0.017	-0.147
-696.470	661.901	-0.065	0.168
-695.456	128.955	0.040	0.051
-694.441	-35.678	-0.168	-0.091
-693.426	-200.000	-0.045	0.373
-692.412	109.596	-0.107	-0.128
-691.397	166.873	-0.273	-0.389
-690.383	271.650	-0.075	-0.134
-689.368	-200.000	0.027	-0.294
-688.354	84.179	-0.042	-0.046
-687.339	11.411	0.178	0.137
-686.324	106.990	0.119	0.142
-685.310	474.647	0.090	-0.204
-684.295	590.247	0.065	0.161
-683.281	76.262	-0.269	0.286
-682.266	-40.226	-0.263	0.137
-681.251	171.296	0.199	0.286
-680.237	317.006	-0.095	0.181
-679.222	-22.419	0.193	0.117
-678.208	114.694	-0.255	0.312
-677.193	641.196	0.109	0.280
-676.178	526.764	-0.023	-0.055
-675.164	-33.579	0.370	-0.205
-674.149	-69.981	-0.299	0.114
-673.135	-200.000	-0.015	-0.259
-672.120	97.229	-0.208	-0.240
-671.105	339.024	-0.133	-0.260
-670.091	-8.014	-0.431	-0.292
-669.076	-122.090	0.153	-0.025
-668.062	-92.840	-0.264	0.074
-667.047	-200.000	-0.014	0.587
-666.032	800.000	0.059	-0.219
-665.018	-200.000	0.017	0.098
-664.003	43.701	-0.188	-0.172
-662.989	800.000	-0.031	-0.094
-661.974	-115.125	0.243	-0.046
-660.959	-30.190	-0.188	0.107
-659.945	623.683	0.117	0.296
-658.930	-200.000	0.006	-0.176
-657.916	57.082	-0.233	0.228
-656.901	-156.749	-0.216	-0.013
-655.886	-200.000	0.089	0.407
-654.872	-148.412	-0.105	0.009
-653.857	10.666	0.155	-0.118
-652.843	-104.213	-0.292	-0.068
-651.828	-7.686	-0.473	-0.321
-650.814	-200.000	-0.019	0.288
-649.799	272.539	0.205	0.363
-648.784	755.836	0.108	-0.294
-647.770	160.745	-0.207	-0.290
-646.755	620.929	-0.038	-0.097
-645.741	162.101	-0.067	-0.095
-644.726	800.000	0.018	0.056
-643.711	-200.000	0.024	0.105
-642.697	-80.025	0.170	0.057
-641.682	-200.000	-0.002	0.254
-640.668	511.298	-0.011	-0.025
-639.653	-70.254	-0.207	-0.079
-638.638	-119.530	-0.265	-0.046
-637.624	-122.130	0.194	-0.032
-636.609	-200.000	-0.006	0.204
-635.595	-67.595	-0.223	0.087
-634.580	-89.615	0.110	-0.032
-633.565	-51.161	0.307	0.144
-632.551	800.000	0.079	0.250
-631.536	-138.462	-0.267	0.029
-630.522	-14.830	-0.166	-0.107
-629.507	152.122	-0.104	0.142
-628.492	351.079	-0.086	0.170
-627.478	-200.000	0.044	0.262
-626.463	81.570	-0.231	-0.251
-625.449	-200.000	0.009	0.386
-624.434	-107.364	-0.193	-0.043
-623.419	-200.000	-0.017	-0.079
-622.405	-96.421	-0.217	-0.057
-621.390	-106.874	0.314	-0.070
-620.376	-200.000	-0.041	-0.277
-619.361	-39.887	-0.118	0.062
-618.346	-46.999	-0.061	-0.030
-617.332	41.877	0.131	-0.119
-616.317	-200.000	0.039	-0.252
-615.303	-100.025	-0.194	-0.049
-614.288	-111.165	0.296	0.061
-613.273	377.830	-0.094	-0.192
-612.259	597.490	-0.009	-0.022
-611.244	-31.280	-0.221	0.125
-610.230	92.993	-0.280	0.316
-609.215	-200.000	-0.001	-0.272
-608.201	800.000	0.111	-0.329
-607.186	-200.000	-0.024	-0.241
-606.171	112.762	-0.185	-0.224
-605.157	800.000	-0.050	-0.164
-604.142	-200.000	-0.023	-0.247
-603.128	-14.676	0.108	0.069
-602.113	215.139	0.130	0.207
-601.098	800.000	-0.102	-0.392
-600.084	-122.244	-0.449	-0.074
-599.069	-200.000	-0.030	-0.204
-598.055	189.411	-0.102	0.153
-597.040	-200.000	-0.016	-0.225
-596.025	-56.274	-0.332	-0.148
-595.011	-35.850	0.160	-0.087
-593.996	-135.487	0.341	0.041
-592.982	-200.000	-0.028	-0.196
-591.967	-200.000	0.006	-0.118
-590.952	99.520	-0.110	-0.127
-589.938	122.551	0.123	-0.154
-588.923	-200.000	-0.003	0.017
-587.909	-60.280	-0.247	0.105
-586.894	-70.760	0.192	0.073
-585.879	-200.000	-0.010	-0.075
-584.865	-91.488	0.208	-0.059
-583.850	328.655	0.067	-0.129
-582.836	70.030	0.118	-0.122
-581.821	16.187	-0.310	-0.244
-580.806	-158.196	0.364	0.021
-579.792	53.401	-0.057	-0.055
-578.777	-137.785	0.143	-0.016
-577.763	-200.000	0.035	-0.168
-576.748	-158.866	0.238	-0.014
-575.733	-102.988	0.129	-0.031
-574.719	134.219	-0.082	0.106
-573.704	163.423	-0.182	0.256
-572.690	255.884	-0.027	-0.046
-571.675	-80.915	0.147	-0.049
-570.661	-200.000	0.014	-0.268
-569.646	-200.000	0.001	-0.113
-568.631	800.000	-0.044	0.163
-567.617	-121.336	-0.378	-0.063
-566.602	267.042	0.214	-0.373
-565.588	800.000	0.121	-0.356
-564.573	-128.964	0.025	0.004
-563.558	800.000	0.104	-0.312
-562.544	321.610	-0.034	0.064
-561.529	-132.046	-0.245	-0.032
-560.515	-14.097	-0.251	0.162
-559.500	-137.915	-0.154	-0.017
-558.485	55.586	-0.227	0.219
-557.471	-80.432	-0.256	-0.085
-556.456	51.477	-0.283	-0.269
-555.442	-200.000	0.007	-0.216
-554.427	-200.000	0.001	-0.050
-553.412	-129.162	-0.107	-0.015
-552.398	-200.000	-0.022	0.228
-551.383	381.446	0.143	-0.293
-550.369	-43.699	0.151	-0.076
-549.354	67.990	-0.061	0.063
-548.339	146.484	-0.080	0.107
-547.325	800.000	0.006	-0.026
-546.310	-7.439	0.062	-0.042
-545.296	-200.000	0.003	-0.146
-544.281	112.457	0.159	0.192
-543.266	213.555	0.026	0.041
-542.252	-102.652	0.178	0.042
-541.237	-140.042	-0.094	0.010
-540.223	-18.130	-0.093	0.058
-539.208	-37.204	-0.126	0.067
-538.193	34.938	-0.191	0.167
-537.179	-71.666	-0.173	-0.065
-536.164	16.089	0.018	-0.014
-535.150	-182.378	-0.200	-0.004
-534.135	800.000	-0.071	-0.288
-533.121	207.185	-0.066	0.102
-532.106	-200.000	0.088	-0.532
-531.091	198.393	-0.137	0.209
-530.077	-200.000	0.018	0.300
-529.062	-65.842	-0.176	-0.070
-528.048	-200.000	-0.028	0.144
-527.033	-32.585	-0.186	-0.103
-526.018	131.474	0.379	-0.486
-525.004	734.214	-0.129	0.346
-523.989	-53.611	-0.184	-0.084
-522.975	-200.000	-0.008	-0.145
-521.960	395.915	0.137	0.285
-520.945	4.225	0.036	-0.026
-519.931	-1.954	0.248	-0.174
-518.916	-1.046	0.202	-0.143
-517.902	-146.988	-0.302	0.026
-516.887	-200.000	-0.001	-0.067
-515.872	-141.943	0.316	-0.031
-514.858	90.623	-0.163	-0.182
-513.843	75.202	-0.059	-0.062
-512.829	-138.296	0.226	0.025
-511.814	800.000	0.057	-0.193
-510.799	3.712	-0.082	0.060
-509.785	-32.239	0.334	0.186
-508.770	800.000	0.044	0.189
-507.756	-39.633	-0.159	-0.083
-506.741	-12.071	-0.213	0.139
-505.726	-200.000	-0.002	0.162
-504.712	-200.000	0.017	-0.293
-503.697	-12.510	0.063	-0.041
-502.683	-100.560	0.319	0.079
-501.668	-65.140	-0.123	0.049
-500.653	800.000	-0.117	0.488
-499.639	800.000	-0.085	-0.271
-498.624	194.194	-0.064	0.097
-497.610	-73.645	-0.313	0.114
-496.595	75.342	-0.149	-0.157
-495.581	158.767	-0.117	0.162
-494.566	-115.555	-0.274	-0.051
-493.551	-57.743	0.093	-0.041
-492.537	524.702	-0.141	0.332
-491.522	-200.000	-0.019	0.124
-490.508	561.639	0.098	-0.237
-489.493	372.785	-0.175	0.354
-488.478	130.102	0.096	-0.123
-487.464	55.964	-0.257	-0.248
-486.449	21.659	0.072	0.058
-485.435	167.260	0.112	0.159
-484.420	-200.000	-0.025	0.171
-483.405	-78.071	-0.124	-0.043
-482.391	237.910	-0.080	0.133
-481.376	-200.000	-0.096	0.450
-480.362	-200.000	-0.039	0.363
-479.347	-123.564	-0.239	-0.038
-478.332	60.390	0.216	-0.213
-477.318	328.327	-0.095	0.181
-476.303	800.000	0.041	-0.121
-475.289	800.000	0.057	-0.163
-474.274	-86.693	0.420	0.128
-473.259	-139.446	-0.276	0.029
-472.245	-17.250	-0.245	-0.154
-471.230	-27.487	0.197	-0.114
-470.216	-69.738	-0.078	-0.030
-469.201	149.881	0.036	-0.048
-468.186	273.557	0.144	-0.254
-467.172	-68.542	-0.134	0.052
-466.157	213.111	0.225	0.353
-465.143	175.211	-0.122	-0.175
-464.128	82.479	-0.143	0.155
-463.113	3.761	0.089	-0.064
-462.099	-200.000	0.021	0.123
-461.084	-127.745	0.259	-0.037
-460.070	78.775	0.175	-0.186
-459.055	-48.773	0.156	-0.075
-458.040	-49.319	0.162	-0.077
-457.026	500.527	0.106	-0.244
-456.011	-21.707	0.156	-0.094
-454.997	-200.000	-0.017	-0.273
-453.982	-66.056	-0.188	0.075
-452.968	-50.078	-0.207	0.098
-451.953	-4.690	0.114	-0.078
-450.938	-101.190	-0.028	0.007
-449.924	19.032	0.248	-0.198
-448.909	-55.994	-0.093	-0.041
-447.895	-0.716	-0.027	-0.019
-446.880	179.092	-0.107	0.156
-445.865	-96.088	-0.024	0.006
-444.851	-0.842	-0.159	-0.112
-443.836	-200.000	0.015	0.285
-442.822	84.979	-0.038	0.041
-441.807	-200.000	0.038	-0.334
-440.792	-53.611	-0.260	-0.118
-439.778	169.766	0.238	-0.338
-438.763	-111.424	-0.322	-0.065
-437.749	-200.000	-0.024	-0.139
-436.734	27.170	0.325	-0.271
-435.719	-200.000	-0.017	-0.160
-434.705	389.173	-0.042	-0.088
-433.690	-20.572	-0.184	-0.112
-432.676	212.814	-0.007	0.011
-431.661	141.253	-0.140	0.184
-430.646	38.253	0.147	0.131
-429.632	-65.326	-0.197	-0.079
-428.617	-99.040	-0.418	0.105
-427.603	-144.926	0.046	0.004
-426.588	310.952	0.067	-0.124
-425.573	-94.788	0.047	0.013
-424.559	-107.778	0.113	0.024
-423.544	112.282	0.262	0.315
-422.530	720.776	-0.042	-0.112
-421.515	12.912	0.114	0.088
-420.500	-77.405	0.210	-0.073
-419.486	-14.918	-0.229	0.146
-418.471	-81.903	0.173	-0.056
-417.457	-137.995	0.266	0.030
-416.442	499.932	-0.065	0.148
-415.428	226.376	-0.103	-0.166
-414.413	46.422	-0.178	-0.165
-413.398	800.000	0.075	0.233
-412.384	-9.014	-0.195	0.130
-411.369	-200.000	-0.027	-0.145
-410.355	-48.905	0.373	0.178
-409.340	652.186	0.103	-0.263
-408.325	-144.193	0.241	0.022
-407.311	5.151	-0.311	0.228
-406.296	-61.670	0.207	0.086
-405.282	261.640	0.146	0.251
-404.267	-107.134	0.071	0.016
-403.252	89.284	-0.209	0.232
-402.238	-63.005	-0.136	-0.056
-401.223	261.910	-0.071	0.122
-400.209	35.025	0.076	0.066
-399.194	-29.179	0.141	-0.080
-398.179	40.739	0.107	-0.096
-397.165	-72.875	0.076	-0.028
-396.150	733.082	-0.068	0.181
-395.136	468.565	-0.075	0.167
-394.121	486.031	-0.027	-0.060
-393.106	37.233	-0.161	-0.142
-392.092	56.044	-0.066	-0.064
-391.077	800.000	0.020	-0.069
-390.063	-80.767	-0.225	0.074
-389.048	-200.000	-0.021	0.135
-388.033	-200.000	0.005	-0.092
-387.019	78.058	0.140	-0.149
-386.004	89.496	-0.051	-0.056
-384.990	560.196	0.015	0.036
-383.975	-200.000	-0.074	-0.498
-382.960	-109.902	0.441	0.092
-381.946	-171.412	0.209	0.007
-380.931	19.271	-0.082	-0.065
-379.917	617.586	-0.103	-0.257
-378.902	-70.776	0.293	0.110
-377.888	321.866	0.119	0.225
-376.873	-27.942	0.092	0.053
-375.858	-37.203	0.075	-0.040
-374.844	-200.000	0.023	-0.229
-373.829	800.000	-0.094	-0.269
-372.815	47.816	-0.117	-0.108
-371.800	592.041	0.042	-0.104
-370.785	-21.671	0.277	0.167
-369.771	-200.000	-0.007	0.162
-368.756	-32.988	0.070	-0.039
-367.742	187.733	0.052	0.076
-366.727	404.401	0.094	-0.196
-365.712	-189.183	-0.234	0.003
-364.698	-1.883	0.079	0.055
-363.683	-5.984	-0.223	0.151
-362.669	450.013	0.030	0.065
-361.654	800.000	-0.046	0.130
-360.639	-200.000	-0.037	-0.278
-359.625	-200.000	-0.074	-0.322
-358.610	-21.749	0.238	0.144
-357.596	-100.614	0.224	0.055
-356.581	63.281	-0.122	-0.121
-355.566	54.481	0.136	0.130
-354.552	-42.555	0.186	0.094
-353.537	563.423	0.059	-0.143
-352.523	-108.912	-0.114	-0.024
-351.508	34.872	0.213	-0.185
-350.493	269.713	0.334	0.582
-349.479	800.000	0.101	-0.361
-348.464	-122.843	-0.495	0.079
-347.450	-200.000	0.064	-0.335
-346.435	47.672	0.127	0.117
-345.420	-177.514	-0.235	-0.006
-344.406	-10.739	-0.170	-0.112
-343.391	-133.332	-0.211	-0.026
-342.377	-24.284	-0.219	0.130
-341.362	-97.165	0.229	-0.059
-340.348	-33.497	0.143	-0.078
-339.333	-40.851	0.028	0.014
-338.318	-63.844	0.222	0.090
-337.304	-27.429	0.295	0.170
-336.289	-97.102	0.312	-0.081
-335.275	-92.843	-0.170	-0.047
-334.260	-200.000	-0.033	0.257
-333.245	491.887	0.154	0.349
-332.231	54.374	0.343	-0.327
-331.216	-19.475	-0.327	-0.201
-330.202	-200.000	-0.053	-0.264
-329.187	-99.138	-0.281	-0.070
-328.172	-200.000	0.005	0.095
-327.158	671.833	-0.099	0.254
-326.143	203.432	0.285	-0.437
-325.129	-200.000	0.034	0.187
-324.114	-24.253	0.236	-0.140
-323.099	800.000	0.049	-0.160
-322.085	40.972	-0.338	0.303
-321.070	116.549	-0.160	0.194
-320.056	-45.412	-0.172	-0.084
-319.041	-56.063	0.225	0.099
-318.026	379.624	0.055	0.112
-317.012	215.625	0.080	-0.126
-315.997	310.400	-0.087	0.161
-314.983	489.840	0.117	-0.264
-313.968	-52.713	-0.049	0.023
-312.953	12.075	-0.221	-0.169
-311.939	-200.000	0.015	0.307
-310.924	8.082	0.124	0.092
-309.910	-200.000	-0.009	-0.181
-308.895	80.333	-0.127	-0.135
-307.880	28.699	0.087	0.073
-306.866	582.444	0.110	0.268
-305.851	0.046	0.209	0.147
-304.837	-109.595	-0.076	-0.016
-303.822	276.381	0.067	-0.118
-302.807	-131.125	-0.188	-0.025
-301.793	108.452	0.114	-0.134
-300.778	-200.000	-0.059	0.643
-299.764	-124.940	-0.518	-0.079
-298.749	-148.108	0.062	-0.005
-297.735	133.774	0.125	-0.160
-296.720	-200.000	0.001	-0.381
-295.705	-174.554	0.315	0.009
-294.691	121.409	0.048	0.059
-293.676	-24.162	0.040	0.024
-292.662	800.000	0.027	0.082
-291.647	800.000	0.034	0.126
-290.632	-87.854	-0.245	0.073
-289.618	-200.000	0.033	0.217
-288.603	11.001	-0.018	-0.014
-287.589	101.234	0.142	-0.163
-286.574	-200.000	-0.052	0.275
-285.559	521.298	0.147	-0.341
-284.545	-165.071	-0.227	-0.010
-283.530	-131.160	-0.168	-0.022
-282.516	-200.000	0.037	0.226
-281.501	-9.320	0.203	0.134
-280.486	32.426	-0.287	-0.245
-279.472	800.000	-0.067	0.232
-278.457	800.000	-0.045	0.144
-277.443	-193.881	0.233	-0.002
-276.428	-126.723	0.434	0.063
-275.413	-36.500	0.268	-0.143
-274.399	800.000	0.053	0.182
-273.384	-200.000	-0.061	0.303
-272.370	52.330	0.057	-0.054
-271.355	185.450	-0.159	0.234
-270.340	800.000	-0.006	-0.026
-269.326	27.600	0.131	-0.109
-268.311	194.564	0.125	0.188
-267.297	-81.688	-0.293	0.095
-266.282	-108.102	0.228	0.049
-265.267	-39.511	0.176	0.091
-264.253	155.446	0.204	0.278
-263.238	-94.141	-0.097	0.026
-262.224	-200.000	0.053	0.252
-261.209	-85.316	0.093	0.029
-260.195	254.809	0.133	-0.225
-259.180	-22.665	0.203	0.121
-258.165	108.091	0.073	0.086
-257.151	-61.309	-0.099	0.041
-256.136	-118.497	0.050	-0.009
-255.122	-98.406	-0.242	-0.061
-254.107	-33.196	-0.191	0.105
-253.092	576.353	-0.037	0.089
-252.078	696.824	-0.100	0.260
-251.063	162.645	-0.091	0.126
-250.049	-200.000	0.014	0.290
-249.034	76.991	-0.070	-0.074
-248.019	-104.936	-0.518	0.117
-247.005	-200.000	-0.008	0.087
-245.990	117.720	0.184	-0.223
-244.976	-200.000	-0.020	-0.194
-243.961	216.585	0.032	-0.050
-242.946	445.851	-0.093	-0.202
-241.932	48.083	0.113	0.104
-240.917	303.683	0.034	0.063
-239.903	368.671	0.144	-0.287
-238.888	-200.000	-0.040	0.467
-237.873	-200.000	-0.042	0.223
-236.859	-12.101	0.100	-0.065
-235.844	537.796	0.053	-0.125
-234.830	-155.566	0.299	0.019
-233.815	382.129	-0.008	0.017
-232.800	-139.425	-0.206	-0.022
-231.786	-200.000	0.007	0.219
-230.771	555.465	-0.069	0.164
-229.757	48.787	-0.281	0.260
-228.742	-12.669	0.105	-0.067
-227.727	57.013	0.065	0.063
-226.713	-106.869	0.066	-0.015
-225.698	377.983	-0.079	-0.160
-224.684	800.000	-0.040	-0.162
-223.669	199.603	0.028	0.042
-222.655	-200.000	-0.007	0.248
-221.640	-1.812	0.074	0.051
-220.625	-73.366	0.060	0.022
-219.611	211.808	-0.063	-0.097
-218.596	35.090	-0.109	0.094
-217.582	-200.000	-0.032	0.411
-216.567	-200.000	-0.006	0.205
-215.552	-200.000	-0.033	-0.311
-214.538	-108.234	0.056	-0.012
-213.523	800.000	-0.039	0.109
-212.509	-104.696	0.204	-0.046
-211.494	151.698	-0.072	-0.097
-210.479	-200.000	0.102	0.460
-209.465	-200.000	0.042	0.255
-208.450	-200.000	-0.068	0.393
-207.436	171.172	0.065	-0.092
-206.421	141.299	-0.073	0.095
-205.406	97.588	-0.132	0.149
-204.392	800.000	-0.034	-0.140
-203.377	800.000	-0.030	0.128
-202.363	789.451	0.164	0.445
-201.348	-32.367	0.105	0.058
-200.333	-115.165	-0.201	0.038
-199.319	800.000	0.089	0.312
-198.304	-151.815	-0.269	0.019
-197.290	101.996	0.107	-0.124
-196.275	-200.000	-0.011	0.087
-195.260	-143.812	0.120	-0.011
-194.246	39.925	-0.192	-0.170
-193.231	-36.572	-0.098	0.052
-192.217	8.462	-0.230	0.170
-191.202	88.139	0.194	-0.212
-190.187	291.747	0.132	0.236
-189.173	338.878	-0.070	0.135
-188.158	800.000	0.031	-0.098
-187.144	-129.843	-0.082	0.011
-186.129	137.703	0.259	-0.334
-185.114	-200.000	0.009	0.174
-184.100	-200.000	-0.056	0.287
-183.085	-200.000	-0.010	0.073
-182.071	-16.111	0.513	-0.321
-181.056	800.000	0.016	-0.064
-180.042	-200.000	0.002	-0.191
-179.027	18.363	0.440	-0.346
-178.012	-155.897	-0.059	-0.004
-176.998	-75.695	-0.392	-0.137
-175.983	-55.533	-0.259	0.114
-174.969	-91.187	-0.262	-0.074
-173.954	88.195	0.176	-0.192
-172.939	-152.127	-0.485	0.035
-171.925	-200.000	0.005	-0.096
-170.910	-172.757	0.258	0.008
-169.896	135.676	-0.095	0.122
-168.881	-153.699	0.321	0.022
-167.866	-97.165	0.139	0.036
-166.852	-200.000	0.012	-0.500
-165.837	326.106	0.136	0.257
-164.823	139.011	0.119	0.154
-163.808	-89.703	0.267	-0.077
-162.793	-58.050	0.408	0.175
-161.779	-200.000	-0.033	-0.309
-160.764	70.530	0.119	0.121
-159.750	-44.972	-0.102	0.050
-158.735	-39.552	0.154	0.079
-157.720	54.181	-0.270	-0.255
-156.706	480.787	0.177	0.396
-155.691	-15.556	-0.264	0.166
-154.677	-200.000	0.001	-0.132
-153.662	179.464	0.116	-0.167
-152.647	5.959	-0.179	-0.131
-151.633	800.000	0.056	0.204
-150.618	-74.333	-0.129	0.046
-149.604	230.046	0.057	0.091
-148.589	79.973	-0.051	-0.054
-147.574	-200.000	0.070	0.448
-146.560	-180.577	-0.237	-0.005
-145.545	176.639	-0.130	-0.187
-144.531	-102.205	-0.194	0.046
-143.516	-123.323	-0.015	-0.002
-142.502	112.562	0.038	0.046
-141.487	-83.030	-0.173	-0.055
-140.472	380.032	0.045	0.091
-139.458	130.759	-0.140	0.176
-138.443	-200.000	-0.027	0.203
-137.429	-14.025	0.219	-0.139
-136.414	-184.950	0.252	-0.004
-135.399	-8.111	0.154	0.102
-134.385	196.181	0.105	0.157
-133.370	-138.688	0.152	0.016
-132.356	800.000	-0.065	0.181
-131.341	192.734	-0.141	-0.210
-130.326	-130.682	-0.098	-0.013
-129.312	121.390	0.101	-0.124
-128.297	-76.018	0.195	-0.068
-127.283	185.908	0.242	0.354
-126.268	800.000	-0.055	0.195
-125.253	-25.093	-0.202	-0.118
-124.239	-200.000	-0.007	-0.054
-123.224	340.996	0.133	0.255
-122.210	-14.009	-0.222	-0.141
-121.195	570.359	0.047	-0.113
-120.180	38.524	0.103	0.090
-119.166	296.321	0.155	-0.280
-118.151	-200.000	-0.051	-0.347
-117.137	235.873	0.069	-0.112
-116.122	174.771	0.162	0.230
-115.107	283.688	0.165	0.291
-114.093	-46.843	-0.243	0.117
-113.078	536.347	0.110	0.256
-112.064	171.393	0.100	0.141
-111.049	-38.721	0.032	-0.016
-110.034	-111.571	-0.290	0.058
-109.020	436.588	0.038	-0.082
-108.005	-200.000	0.015	-0.084
-106.991	-1.291	0.180	0.125
-105.976	-102.603	-0.351	0.082
-104.962	747.852	0.144	0.381
-103.947	15.411	-0.037	0.029
-102.932	62.730	0.050	0.050
-101.918	-200.000	-0.037	-0.268
-100.903	-31.830	-0.139	0.076
-99.889	539.630	0.017	-0.039
-98.874	-14.262	0.143	0.090
-97.859	649.033	0.062	-0.155
-96.845	64.603	-0.316	-0.312
-95.830	-102.338	-0.281	-0.066
-94.816	69.327	-0.182	-0.184
-93.801	24.332	-0.183	-0.149
-92.786	158.798	-0.103	-0.141
-91.772	-200.000	0.007	-0.181
-90.757	-68.216	-0.467	-0.178
-89.743	85.872	-0.214	-0.231
-88.728	-200.000	0.003	-0.137
-87.713	83.286	0.099	-0.106
-86.699	800.000	0.072	-0.270
-85.684	-39.124	0.202	-0.104
-84.670	-141.762	0.276	0.027
-83.655	-129.197	0.234	0.032
-82.640	-82.002	0.148	0.047
-81.626	408.182	0.086	-0.178
-80.611	-47.861	0.125	0.059
-79.597	-17.100	-0.270	-0.167
-78.582	480.161	0.078	0.175
-77.567	-35.834	-0.162	0.086
-76.553	-200.000	-0.016	-0.147
-75.538	3.304	0.180	-0.128
-74.524	131.971	-0.127	-0.160
-73.509	-115.474	-0.216	0.040
-72.494	800.000	-0.015	0.052
-71.480	800.000	0.018	-0.051
-70.465	-117.840	-0.468	-0.082
-69.451	800.000	-0.067	-0.230
-68.436	-69.349	-0.071	-0.027
-67.422	-69.175	0.431	0.163
-66.407	-200.000	-0.004	0.238
-65.392	487.403	0.120	-0.268
-64.378	243.652	-0.130	-0.213
-63.363	-200.000	-0.026	-0.241
-62.349	133.125	0.148	0.187
-61.334	86.687	-0.926	-1.002
-60.319	38.634	0.403	0.353
-59.305	733.815	-0.361	-0.946
-58.290	696.505	0.549	1.412
-57.276	-200.000	0.371	1.716
-56.261	-200.000	97.768	605.725
-55.246	604.137	1398.517	3411.034
-54.232	192.274	2599.136	3842.821
-53.217	110.650	2274.358	2680.327
-52.203	40.997	1893.860	1675.570
-51.188	34.856	1682.061	1441.990
-50.173	32.087	1638.843	1384.499
-49.159	49.491	1686.510	1555.296
-48.144	51.171	1702.404	1582.446
-47.130	34.353	1662.385	1421.148
-46.115	31.648	1648.138	1388.878
-45.100	31.449	1643.680	1383.591
-44.086	31.364	1641.061	1380.704
-43.071	31.516	1638.040	1379.225
-42.057	31.404	1635.802	1376.468
-41.042	31.331	1634.835	1375.062
-40.027	31.350	1632.235	1372.954
-39.013	31.448	1629.854	1371.621
-37.998	31.341	1628.928	1370.001
-36.984	31.451	1626.753	1368.922
-35.969	31.429	1625.950	1368.028
-34.954	31.492	1624.152	1366.922
-33.940	31.533	1622.272	1365.590
-32.925	31.386	1620.960	1363.358
-31.911	31.540	1618.566	1362.412
-30.896	31.528	1617.317	1361.217
-29.881	31.480	1615.645	1359.408
-28.867	31.467	1613.675	1357.600
-27.852	31.580	1612.055	1357.003
-26.838	31.474	1610.639	1354.990
-25.823	31.508	1609.094	1353.881
-24.809	31.558	1607.805	1353.110
-23.794	31.508	1606.495	1351.590
-22.779	31.568	1605.188	1350.867
-21.765	31.479	1603.496	1348.750
-20.750	31.546	1601.863	1347.806
-19.736	31.556	1600.261	1346.474
-18.721	31.625	1598.832	1345.714
-17.706	31.499	1597.164	1343.351
-16.692	31.532	1596.145	1342.681
-15.677	31.616	1594.442	1341.794
-14.663	31.587	1593.031	1340.350
-13.648	31.546	1591.983	1339.119
-12.633	31.652	1590.095	1338.238
-11.619	31.546	1588.991	1336.497
-10.604	31.542	1587.669	1335.304
-9.590	31.517	1586.153	1333.799
-8.575	31.626	1584.883	1333.456
-7.560	31.542	1584.086	1332.130
-6.546	31.495	1582.765	1330.636
-5.531	31.586	1581.475	1330.142
-4.517	31.523	1580.254	1328.615
-3.502	31.585	1579.083	1328.017
-2.487	31.584	1577.401	1326.544
-1.473	31.278	1565.322	1314.178
-0.458	28.224	1545.644	1276.350
0.556	22.245	1545.957	1243.384
1.571	19.747	1569.255	1244.057
2.586	19.440	1582.129	1251.929
3.600	17.516	1530.704	1197.606
4.615	9.426	1421.457	1058.993
5.629	1.317	1356.789	959.622
6.644	-0.240	1348.797	944.094
7.659	-0.254	1347.201	942.810
8.673	-0.305	1346.436	941.871
9.688	-0.391	1344.423	939.836
10.702	-0.538	1341.070	936.490
11.717	2.381	1347.075	958.917
12.731	11.353	1363.988	1027.609
13.746	18.451	1376.018	1081.533
14.761	20.001	1377.194	1092.143
15.775	20.150	1377.137	1092.945
16.790	20.062	1377.312	1092.427
17.804	20.128	1376.590	1092.175
18.819	20.328	1375.930	1092.817
19.834	20.482	1374.902	1092.871
20.848	20.488	1374.087	1092.163
21.863	20.429	1373.611	1091.320
22.877	20.452	1372.909	1090.804
23.892	20.443	1371.866	1089.827
24.907	20.484	1371.088	1089.371
25.921	20.411	1370.324	1088.210
26.936	20.489	1369.208	1087.713
27.950	20.444	1368.370	1086.669
28.965	20.507	1366.802	1085.720
29.980	20.472	1365.500	1084.376
30.994	20.529	1364.290	1083.673
32.009	20.420	1363.211	1082.040
33.023	20.425	1361.932	1080.960
34.038	20.481	1360.664	1080.209
35.053	20.480	1359.627	1079.280
36.067	20.547	1358.694	1078.863
37.082	20.436	1358.407	1077.850
38.096	20.476	1356.706	1076.650
39.111	20.527	1355.572	1075.975
40.126	20.523	1355.308	1075.641
41.140	20.380	1355.362	1074.704
42.155	20.517	1354.366	1074.670
43.169	20.515	1354.793	1074.898
44.184	20.445	1354.463	1074.110
45.199	20.443	1354.028	1073.656
46.213	20.487	1353.694	1073.569
47.228	20.430	1352.553	1072.220
48.242	20.488	1350.945	1071.208
49.257	20.496	1349.720	1070.186
50.271	20.487	1347.886	1068.585
51.286	20.409	1346.896	1067.226
52.301	20.495	1345.428	1066.494
53.315	20.464	1344.834	1065.742
54.330	20.424	1344.343	1065.010
55.344	20.440	1343.321	1064.204
56.359	20.445	1341.815	1062.950
57.374	20.476	1340.883	1062.305
58.388	20.499	1340.503	1062.054
59.403	20.498	1340.116	1061.646
60.417	20.382	1339.526	1060.376
61.432	20.483	1338.366	1059.979
62.447	20.565	1337.586	1059.767
63.461	20.500	1336.175	1058.163
64.476	20.530	1335.876	1058.011
65.490	20.519	1334.396	1056.683
66.505	20.400	1332.848	1054.639
67.520	20.478	1331.688	1054.103
68.534	20.587	1330.697	1053.885
69.549	20.509	1329.122	1052.070
70.563	20.572	1328.544	1051.899
71.578	20.541	1327.693	1050.947
72.593	20.558	1326.847	1050.288
73.607	20.499	1326.221	1049.346
74.622	20.486	1325.501	1048.601
75.636	20.580	1324.663	1048.412
76.651	20.502	1323.700	1047.086
77.666	20.473	1323.489	1046.655
78.680	20.457	1323.555	1046.515
79.695	20.429	1322.659	1045.546
80.709	20.421	1321.653	1044.609
81.724	20.627	1320.326	1044.705
82.739	20.482	1320.092	1043.559
83.753	20.557	1318.498	1042.657
84.768	20.543	1317.218	1041.469
85.782	20.606	1316.459	1041.153
86.797	20.576	1314.956	1039.695
87.812	20.504	1314.344	1038.688
88.826	20.622	1312.690	1037.995
89.841	20.637	1311.632	1037.155
90.855	20.608	1310.666	1036.124
91.870	20.573	1310.366	1035.589
92.884	20.624	1309.192	1034.874
93.899	20.493	1308.617	1033.543
94.914	20.527	1307.385	1032.685
95.928	20.630	1306.970	1032.874
96.943	20.607	1306.068	1031.936
97.957	20.514	1305.489	1030.838
98.972	20.706	1303.947	1030.665
99.987	20.616	1303.244	1029.487
101.001	20.601	1301.922	1028.259
102.016	20.601	1301.193	1027.591
103.030	20.624	1300.422	1027.027
104.045	20.528	1300.024	1026.055
105.060	20.645	1298.322	1025.314
106.074	20.513	1297.744	1023.986
107.089	20.655	1296.263	1023.567
108.103	20.606	1295.322	1022.441
109.118	20.580	1294.407	1021.475
110.133	20.707	1292.758	1020.833
111.147	20.759	1291.287	1019.884
112.162	20.595	1290.475	1018.192
113.176	20.615	1289.974	1017.821
114.191	20.645	1289.145	1017.256
115.206	20.701	1287.560	1016.243
116.220	20.662	1286.123	1014.792
117.235	20.704	1285.224	1014.236
118.249	20.645	1284.231	1013.016
119.264	20.698	1283.510	1012.668
120.279	20.724	1283.159	1012.452
121.293	20.695	1281.545	1010.922
122.308	20.635	1280.727	1009.839
123.322	20.762	1279.260	1009.331
124.337	20.701	1278.725	1008.462
125.352	20.730	1278.017	1007.986
126.366	20.737	1276.719	1006.913
127.381	20.755	1275.832	1006.229
128.395	20.734	1274.761	1005.173
129.410	20.644	1274.229	1004.142
130.424	20.623	1273.588	1003.431
131.439	20.799	1272.477	1003.482
132.454	20.675	1271.719	1002.077
133.468	20.670	1271.200	1001.554
134.483	20.702	1270.303	1000.941
135.497	20.699	1269.325	1000.061
136.512	20.763	1267.924	999.240
137.527	20.702	1267.078	998.134
138.541	20.626	1265.421	996.306
139.556	20.666	1264.032	995.351
140.570	20.654	1263.235	994.570
141.585	20.628	1262.256	993.559
142.600	20.627	1261.301	992.714
143.614	20.666	1260.137	991.935
144.629	20.628	1259.127	990.835
145.643	20.539	1258.152	989.471
146.658	20.637	1256.490	988.638
147.673	20.705	1256.030	988.575
148.687	20.617	1255.129	987.277
149.702	20.569	1253.741	985.826
150.716	20.569	1252.657	984.884
151.731	20.612	1251.488	984.121
152.746	20.667	1250.213	983.344
153.760	20.691	1249.315	982.689
154.775	20.745	1248.614	982.351
155.789	20.701	1247.444	981.097
156.804	20.606	1246.974	980.104
157.819	20.648	1246.000	979.492
158.833	20.678	1244.737	978.577
159.848	20.703	1243.866	977.950
160.862	20.861	1242.965	978.039
161.877	20.786	1242.292	977.004
162.892	20.722	1241.366	975.831
163.906	20.805	1240.604	975.608
164.921	20.857	1239.872	975.239
165.935	20.757	1238.916	973.840
166.950	20.834	1238.498	973.854
167.964	20.752	1237.983	972.909
168.979	20.754	1237.670	972.588
169.994	20.867	1236.622	972.305
171.008	20.743	1236.533	971.460
172.023	20.819	1235.259	970.794
173.037	20.813	1234.589	970.152
174.052	20.852	1233.879	969.725
175.067	20.948	1232.565	969.136
176.081	21.031	1231.646	968.794
177.096	20.825	1231.337	967.322
178.110	20.784	1230.373	966.246
179.125	20.755	1229.503	965.322
180.140	20.934	1228.227	965.226
181.154	20.846	1227.066	963.739
182.169	20.877	1226.307	963.229
183.183	20.896	1225.229	962.403
184.198	20.879	1223.905	961.184
185.213	20.827	1223.512	960.504
186.227	20.964	1222.154	960.105
187.242	20.924	1221.511	959.294
188.256	20.939	1220.553	958.543
189.271	20.922	1219.788	957.763
190.286	20.875	1219.335	957.063
191.300	20.857	1218.524	956.243
192.315	20.902	1218.187	956.139
193.329	20.878	1217.699	955.541
194.344	20.988	1216.731	955.302
195.359	20.808	1216.936	954.389
196.373	20.942	1215.949	954.267
197.388	20.851	1216.003	953.724
198.402	20.834	1215.718	953.323
199.417	20.897	1214.974	953.001
200.432	20.932	1214.144	952.455
201.446	20.926	1213.573	951.893
202.461	20.895	1212.686	950.943
203.475	20.892	1211.719	950.083
204.490	20.868	1211.248	949.498
205.504	20.948	1210.045	948.911
206.519	21.053	1208.652	948.304
207.534	21.043	1207.869	947.552
208.548	20.987	1207.164	946.610
209.563	20.972	1206.506	945.930
210.577	20.927	1205.771	945.023
211.592	21.106	1204.431	944.862
212.607	21.052	1203.843	944.024
213.621	21.077	1202.929	943.357
214.636	21.074	1202.871	943.214
215.650	21.035	1201.720	942.018
216.665	20.992	1200.891	941.050
217.680	21.005	1200.299	940.576
218.694	21.154	1198.828	940.138
219.709	21.089	1198.588	939.522
220.723	21.140	1197.773	939.070
221.738	20.984	1196.875	937.446
222.753	20.969	1196.525	937.010
223.767	20.999	1196.025	936.696
224.782	21.087	1195.084	936.349
225.796	21.132	1194.698	936.205
226.811	21.153	1193.823	935.547
227.826	21.131	1193.544	935.126
228.840	21.114	1192.604	934.215
229.855	21.046	1192.216	933.464
230.869	21.086	1191.446	932.994
231.884	21.127	1190.553	932.435
232.899	21.166	1189.791	931.961
233.913	21.127	1189.512	931.455
234.928	21.093	1189.650	931.295
235.942	21.180	1188.272	930.598
236.957	21.218	1187.539	930.146
237.972	21.087	1187.190	929.094
238.986	21.150	1186.204	928.571
240.001	21.175	1185.796	928.306
241.015	21.268	1184.665	927.830
242.030	21.291	1183.914	927.283
243.045	21.235	1183.498	926.578
244.059	21.336	1182.484	926.238
245.074	21.284	1181.643	925.220
246.088	21.295	1180.937	924.647
247.103	21.262	1180.216	923.826
248.117	21.383	1179.083	923.494
249.132	21.308	1178.694	922.710
250.147	21.303	1177.983	922.050
251.161	21.336	1177.213	921.537
252.176	21.326	1176.767	921.054
253.190	21.380	1176.117	920.745
254.205	21.343	1175.574	920.048
255.220	21.349	1174.888	919.458
256.234	21.370	1174.681	919.328
257.249	21.394	1173.878	918.741
258.263	21.313	1173.555	917.982
259.278	21.482	1172.472	917.941
260.293	21.504	1172.083	917.675
261.307	21.401	1171.676	916.734
262.322	21.406	1170.819	916.008
263.336	21.490	1170.094	915.798
264.351	21.421	1169.637	914.997
265.366	21.464	1168.979	914.629
266.380	21.416	1168.582	913.986
267.395	21.437	1167.578	913.226
268.409	21.436	1167.181	912.833
269.424	21.437	1166.805	912.464
270.439	21.525	1166.024	912.230
271.453	21.546	1165.265	911.664
272.468	21.604	1164.546	911.321
273.482	21.360	1164.074	909.605
274.497	21.404	1163.758	909.504
275.512	21.535	1162.807	909.360
276.526	21.610	1161.925	908.980
277.541	21.553	1161.205	908.040
278.555	21.589	1160.528	907.617
279.570	21.511	1159.926	906.665
280.585	21.489	1159.161	905.871
281.599	21.564	1158.330	905.532
282.614	21.505	1157.560	904.541
283.628	21.501	1156.621	903.708
284.643	21.570	1156.091	903.571
285.657	21.601	1155.067	902.849
286.672	21.509	1154.593	901.926
287.687	21.573	1153.452	901.284
288.701	21.640	1152.912	901.129
289.716	21.730	1152.009	900.804
290.730	21.692	1151.523	900.148
291.745	21.637	1150.946	899.338
292.760	21.703	1150.122	898.951
293.774	21.609	1150.001	898.295
294.789	21.629	1149.411	897.857
295.803	21.753	1148.511	897.711
296.818	21.725	1147.936	897.035
297.833	21.788	1147.092	896.619
298.847	21.806	1146.380	896.078
299.862	21.716	1146.225	895.415
300.876	21.774	1145.239	894.864
301.891	21.810	1144.990	894.774
302.906	21.857	1143.949	894.120
303.920	21.805	1143.229	893.213
304.935	21.792	1142.582	892.562
305.949	21.803	1142.180	892.227
306.964	21.762	1141.642	891.520
307.979	21.879	1140.521	891.155
308.993	21.789	1140.453	890.571
310.008	21.854	1139.446	890.035
311.022	21.925	1138.482	889.563
312.037	21.949	1137.801	889.074
313.052	21.849	1136.831	887.729
314.066	21.850	1136.295	887.236
315.081	21.856	1135.605	886.650
316.095	21.783	1135.174	885.868
317.110	21.845	1134.569	885.628
318.125	21.989	1133.363	885.338
319.139	21.951	1133.121	884.877
320.154	21.966	1132.486	884.380
321.168	22.016	1131.751	883.976
322.183	21.962	1131.105	883.121
323.197	21.883	1130.746	882.370
324.212	21.852	1130.363	881.835
325.227	21.882	1129.600	881.311
326.241	22.055	1128.869	881.534
327.256	22.054	1128.368	881.056
328.270	21.975	1127.634	880.009
329.285	22.004	1126.356	879.080
330.300	22.009	1125.897	878.669
331.314	22.001	1125.095	877.925
332.329	22.154	1123.712	877.533
333.343	22.229	1123.159	877.400
334.358	22.001	1122.554	875.710
335.373	22.067	1122.271	875.740
336.387	22.153	1121.336	875.362
337.402	22.210	1120.487	874.906
338.416	22.024	1120.420	873.853
339.431	22.071	1119.661	873.416
340.446	22.216	1119.042	873.578
341.460	22.205	1118.372	872.920
342.475	22.235	1117.340	872.185
343.489	22.243	1116.440	871.447
344.504	22.139	1115.601	870.201
345.519	22.149	1114.970	869.679
346.533	22.251	1114.367	869.636
347.548	22.294	1113.369	868.994
348.562	22.251	1112.462	867.998
349.577	22.275	1111.918	867.612
350.592	22.135	1111.458	866.490
351.606	22.173	1111.000	866.242
352.621	22.275	1110.099	865.963
353.635	22.343	1109.601	865.833
354.650	22.352	1108.741	865.132
355.665	22.373	1108.297	864.811
356.679	22.394	1107.689	864.365
357.694	22.353	1106.884	863.455
358.708	22.317	1106.395	862.823
359.723	22.367	1105.615	862.382
360.738	22.318	1105.061	861.636
361.752	22.440	1104.308	861.568
362.767	22.513	1103.672	861.352
363.781	22.308	1103.559	860.186
364.796	22.384	1102.811	859.896
365.810	22.299	1102.268	858.982
366.825	22.497	1101.840	859.541
367.840	22.595	1100.921	859.226
368.854	22.448	1100.612	858.193
369.869	22.414	1100.157	857.594
370.883	22.424	1099.384	856.965
371.898	22.446	1098.887	856.607
372.913	22.443	1098.305	856.067
373.927	22.500	1097.737	855.826
374.942	22.483	1097.465	855.452
375.956	22.540	1096.846	855.172
376.971	22.665	1095.773	854.867
377.986	22.555	1095.152	853.771
379.000	22.669	1094.994	854.127
380.015	22.650	1094.179	853.322
381.029	22.438	1093.892	851.999
382.044	22.576	1093.012	851.905
383.059	22.744	1092.148	851.967
384.073	22.635	1091.762	851.064
385.088	22.599	1090.785	850.054
386.102	22.644	1089.877	849.488
387.117	22.651	1088.840	848.636
388.132	22.605	1088.285	847.911
389.146	22.794	1087.271	847.951
390.161	22.789	1086.756	847.450
391.175	22.775	1086.173	846.856
392.190	22.724	1085.919	846.339
393.205	22.693	1085.021	845.411
394.219	22.727	1084.215	844.876
395.234	22.760	1083.607	844.484
396.248	22.816	1082.533	843.841
397.263	22.767	1081.461	842.697
398.278	22.774	1081.174	842.429
399.292	22.819	1080.383	841.953
400.307	22.819	1079.630	841.294
401.321	22.887	1078.896	840.972
402.336	22.756	1078.471	839.940
403.350	22.904	1077.963	840.175
404.365	22.883	1077.204	839.410
405.380	22.909	1076.482	838.894
406.394	22.947	1075.792	838.465
407.409	22.977	1075.027	837.937
408.423	22.958	1074.547	837.398
409.438	22.988	1073.714	836.816
410.453	22.976	1073.027	836.149
411.467	23.024	1072.353	835.778
412.482	22.952	1071.581	834.763
413.496	22.953	1071.192	834.389
414.511	22.921	1070.623	833.722
415.526	22.972	1069.758	833.214
416.540	22.929	1069.578	832.799
417.555	23.020	1068.856	832.591
418.569	23.061	1068.481	832.419
419.584	23.071	1068.422	832.347
420.599	23.173	1067.640	832.142
421.613	149.053	1398.622	1795.847
422.628	137.269	1446.853	1795.969
