DTS Sentinel unit serial number:	SN413079Multiplexer serial number:	ORYXHardware model number:	OX4-SRSoftware version number:	ORYX F/W v4.00 Oryx Data Collector v3.7.2.0data status	okinstallation	princeton_trtdifferential loss correction	single-endedforward channel	channel 2reverse channel	N/Adate	2019/09/15time	00:27:35forward acquisition time	60.00reverse acquisition time	0.00gamma	496.2192k internal	0.2324k external	0.2324temperature offset calibration	1.0044default loss term (dB/km)	0.3790temperature slope calibration	1.0000multiplexer offset coefficient	1.0000multiplexer slope coefficient	1.0000fibre end	0.00T internal ref (°C)	32.12T ext. ref 1 (°C)	4.58T ext. ref 2 (°C)	27.18length (m)	temperature (°C)	Stokes	anti-Stokes-747.200	-149.405	-0.053	0.004
-746.185	-122.953	-0.353	0.057
-745.171	57.665	-0.103	-0.102
-744.156	214.470	0.092	0.147
-743.142	-125.310	0.063	-0.010
-742.127	-77.879	0.170	0.059
-741.112	-35.517	0.178	0.098
-740.098	291.858	-0.209	0.383
-739.083	404.530	0.222	0.472
-738.069	-92.688	-0.485	0.137
-737.054	130.760	-0.189	-0.245
-736.039	-200.000	0.034	-0.171
-735.025	-134.155	0.412	-0.051
-734.010	-157.002	-0.423	-0.026
-732.996	800.000	-0.035	0.116
-731.981	64.291	-0.140	0.142
-730.966	-200.000	-0.002	0.030
-729.952	-141.560	-0.345	-0.035
-728.937	-200.000	0.049	0.230
-727.923	38.739	-0.138	-0.124
-726.908	766.606	0.121	-0.331
-725.894	800.000	-0.145	0.459
-724.879	-106.856	0.252	0.056
-723.864	50.118	-0.175	-0.167
-722.850	-100.010	0.014	-0.004
-721.835	63.364	0.113	-0.114
-720.821	158.744	-0.215	-0.301
-719.806	252.624	0.023	-0.039
-718.791	-117.124	0.141	0.026
-717.777	800.000	0.022	0.096
-716.762	324.633	-0.087	0.167
-715.748	-162.922	-0.366	-0.018
-714.733	-93.381	-0.131	0.037
-713.718	47.925	0.263	0.248
-712.704	-169.428	-0.023	0.001
-711.689	-8.474	0.069	-0.047
-710.675	-5.878	0.155	-0.107
-709.660	-200.000	-0.006	-0.381
-708.645	-105.489	0.320	-0.073
-707.631	3.518	-0.234	-0.172
-706.616	99.619	-0.117	-0.136
-705.602	-200.000	0.059	-0.273
-704.587	-52.626	-0.349	-0.163
-703.572	133.762	-0.153	0.199
-702.558	261.992	0.173	0.303
-701.543	477.447	0.135	-0.308
-700.529	100.581	-0.175	0.205
-699.514	643.171	0.083	-0.214
-698.499	-175.600	-0.401	0.011
-697.485	-200.000	-0.006	0.154
-696.470	1.042	0.409	0.295
-695.456	-27.535	0.047	-0.028
-694.441	-149.860	-0.351	0.028
-693.426	-9.159	0.068	0.046
-692.412	-48.929	0.179	0.086
-691.397	-200.000	0.001	-0.250
-690.383	35.587	-0.207	-0.184
-689.368	-156.844	0.493	-0.031
-688.354	-102.595	-0.256	-0.062
-687.339	-95.632	-0.196	0.053
-686.324	-197.989	-0.091	0.001
-685.310	-2.888	-0.312	0.220
-684.295	-77.237	-0.347	0.122
-683.281	-189.809	0.250	0.003
-682.266	0.133	-0.249	0.179
-681.251	-200.000	-0.035	-0.204
-680.237	325.109	-0.098	-0.188
-679.222	247.928	-0.180	0.306
-678.208	-48.658	-0.251	-0.121
-677.193	514.021	-0.052	0.121
-676.178	-65.138	0.331	0.135
-675.164	-130.057	0.208	-0.029
-674.149	-73.918	-0.144	0.053
-673.135	-99.780	-0.212	-0.054
-672.120	658.469	-0.083	-0.215
-671.105	92.235	-0.265	-0.300
-670.091	-200.000	-0.026	-0.231
-669.076	-143.806	-0.179	-0.017
-668.062	111.317	-0.107	-0.130
-667.047	-200.000	-0.006	-0.059
-666.032	-51.017	-0.175	0.082
-665.018	55.504	0.091	0.089
-664.003	-200.000	-0.003	-0.104
-662.989	800.000	-0.094	0.300
-661.974	-200.000	0.022	-0.333
-660.959	-116.240	-0.463	0.086
-659.945	115.301	0.183	-0.225
-658.930	-22.619	0.363	-0.221
-657.916	214.691	-0.151	0.240
-656.901	260.512	-0.049	-0.085
-655.886	-38.673	0.004	0.002
-654.872	-200.000	0.026	0.142
-653.857	-200.000	-0.035	0.234
-652.843	43.557	-0.131	0.121
-651.828	-127.925	-0.323	-0.047
-650.814	150.037	0.078	0.106
-649.799	-27.880	0.295	-0.172
-648.784	49.448	0.152	0.144
-647.770	114.105	-0.138	-0.169
-646.755	-48.712	0.080	-0.039
-645.741	406.656	-0.091	-0.193
-644.726	-200.000	-0.015	0.259
-643.711	77.998	-0.097	0.104
-642.697	-143.923	0.246	-0.023
-641.682	216.155	-0.057	-0.090
-640.668	143.038	-0.206	0.276
-639.653	-200.000	-0.023	0.178
-638.638	31.064	-0.096	-0.083
-637.624	319.450	-0.188	-0.359
-636.609	-200.000	0.060	-0.318
-635.595	800.000	-0.010	-0.030
-634.580	-116.934	-0.159	0.029
-633.565	-144.411	-0.160	-0.015
-632.551	13.220	0.244	-0.190
-631.536	800.000	0.057	-0.206
-630.522	-200.000	0.014	-0.314
-629.507	800.000	-0.131	-0.571
-628.492	88.217	0.083	0.092
-627.478	23.987	0.247	-0.205
-626.463	-13.532	-0.327	0.213
-625.449	270.220	0.096	-0.170
-624.434	800.000	-0.026	-0.078
-623.419	40.287	-0.129	0.117
-622.405	97.496	0.082	-0.094
-621.390	-200.000	-0.037	-0.164
-620.376	62.832	-0.204	0.205
-619.361	113.822	0.229	-0.280
-618.346	-200.000	0.017	0.186
-617.332	-200.000	0.001	-0.084
-616.317	-65.456	-0.107	0.043
-615.303	-1.133	0.248	-0.176
-614.288	120.257	0.100	0.125
-613.273	-71.313	0.392	0.148
-612.259	-88.738	-0.441	-0.132
-611.244	-72.899	0.267	-0.099
-610.230	-68.245	0.319	0.125
-609.215	177.215	0.192	0.280
-608.201	-90.410	0.371	0.108
-607.186	-136.305	0.171	0.020
-606.171	-200.000	-0.015	0.160
-605.157	192.333	-0.100	0.152
-604.142	-200.000	-0.001	0.032
-603.128	-24.192	-0.251	0.150
-602.113	-200.000	-0.013	-0.328
-601.098	-124.154	0.074	-0.012
-600.084	-16.480	0.128	0.081
-599.069	800.000	0.067	0.248
-598.055	-200.000	0.015	0.066
-597.040	324.471	0.107	0.206
-596.025	86.159	0.115	0.127
-595.011	-82.338	0.250	-0.082
-593.996	59.323	0.029	-0.028
-592.982	-200.000	-0.041	-0.332
-591.967	-128.656	-0.305	-0.043
-590.952	-125.946	0.284	0.043
-589.938	800.000	0.059	0.203
-588.923	-78.707	0.055	-0.019
-587.909	358.297	-0.162	0.325
-586.894	220.665	-0.160	-0.257
-585.879	-98.899	-0.205	0.052
-584.865	644.416	-0.094	0.241
-583.850	-71.551	-0.297	-0.111
-582.836	52.773	0.152	0.146
-581.821	501.698	0.043	-0.100
-580.806	-83.159	0.017	-0.006
-579.792	156.876	-0.134	-0.185
-578.777	14.188	-0.200	0.156
-577.763	-91.237	-0.294	0.084
-576.748	-200.000	-0.042	0.189
-575.733	-90.859	-0.128	-0.037
-574.719	642.403	-0.044	-0.113
-573.704	-168.397	0.269	-0.010
-572.690	27.853	-0.272	-0.230
-571.675	-104.412	-0.247	0.057
-570.661	800.000	0.066	0.228
-569.646	-188.751	-0.045	-0.001
-568.631	-190.929	-0.273	-0.003
-567.617	267.145	0.109	-0.190
-566.602	-91.927	0.084	-0.024
-565.588	709.484	-0.078	-0.206
-564.573	-200.000	0.021	-0.106
-563.558	221.376	-0.076	0.123
-562.544	800.000	-0.093	-0.312
-561.529	-200.000	-0.049	-0.419
-560.515	800.000	0.074	0.304
-559.500	-43.565	-0.095	0.048
-558.485	-38.855	0.188	0.099
-557.471	36.436	0.229	0.202
-556.456	-82.936	0.073	0.024
-555.442	448.159	0.027	-0.060
-554.427	-30.102	-0.338	0.193
-553.412	-102.869	0.340	0.081
-552.398	-120.455	-0.080	0.014
-551.383	510.687	-0.109	0.253
-550.369	252.121	0.075	0.129
-549.354	-123.081	0.027	-0.004
-548.339	-200.000	0.008	-0.117
-547.325	355.867	0.085	-0.169
-546.310	-112.956	-0.127	-0.025
-545.296	-200.000	-0.042	0.195
-544.281	71.622	0.175	0.182
-543.266	501.342	0.145	-0.335
-542.252	-46.663	-0.016	0.008
-541.237	-101.534	0.305	0.074
-540.223	-180.678	0.089	-0.002
-539.208	-129.383	0.145	-0.020
-538.193	-91.230	-0.242	0.069
-537.179	-200.000	-0.025	0.190
-536.164	183.913	0.080	0.119
-535.150	-103.044	0.050	0.012
-534.135	-83.035	-0.153	-0.049
-533.121	800.000	-0.053	0.177
-532.106	-200.000	-0.018	-0.257
-531.091	-200.000	0.009	-0.372
-530.077	279.141	-0.007	0.012
-529.062	800.000	0.063	-0.176
-528.048	-44.261	-0.214	-0.108
-527.033	152.732	-0.034	0.046
-526.018	62.633	-0.242	-0.242
-525.004	800.000	0.060	0.174
-523.989	-28.267	-0.185	-0.107
-522.975	-28.905	-0.308	0.177
-521.960	-146.324	0.081	0.007
-520.945	42.120	-0.187	0.170
-519.931	140.428	-0.297	-0.393
-518.916	-141.381	-0.350	0.036
-517.902	-106.044	-0.217	-0.049
-516.887	800.000	0.048	0.148
-515.872	-86.429	0.156	-0.048
-514.858	-146.658	-0.356	0.031
-513.843	-200.000	-0.045	0.253
-512.829	800.000	-0.096	0.271
-511.814	-68.494	-0.241	0.093
-510.799	-62.188	-0.043	-0.018
-509.785	62.586	0.048	0.048
-508.770	-75.417	0.224	-0.080
-507.756	231.308	0.058	0.096
-506.741	-53.395	0.081	0.037
-505.726	-200.000	0.056	0.332
-504.712	78.058	0.113	-0.120
-503.697	-101.231	-0.245	0.060
-502.683	-105.133	0.246	-0.056
-501.668	363.870	0.099	0.200
-500.653	104.347	-0.218	0.257
-499.639	211.761	-0.074	0.116
-498.624	10.249	0.495	0.377
-497.610	-112.820	-0.290	0.058
-496.595	-23.178	0.236	0.142
-495.581	-6.100	0.088	0.060
-494.566	304.276	-0.117	0.216
-493.551	-65.242	-0.184	0.074
-492.537	-200.000	-0.096	0.426
-491.522	335.544	-0.078	-0.151
-490.508	67.776	0.210	-0.214
-489.493	70.217	-0.184	-0.190
-488.478	105.906	-0.204	0.241
-487.464	-200.000	0.015	0.177
-486.449	-105.447	-0.278	-0.063
-485.435	800.000	-0.060	0.227
-484.420	-36.586	0.197	0.106
-483.405	-99.893	0.160	0.040
-482.391	-143.681	-0.353	0.033
-481.376	-93.032	0.404	-0.113
-480.362	35.920	-0.152	0.134
-479.347	124.674	0.063	0.079
-478.332	-178.820	-0.416	-0.009
-477.318	-28.535	0.218	0.126
-476.303	498.701	-0.064	-0.148
-475.289	-200.000	0.005	0.066
-474.274	-36.412	-0.147	0.079
-473.259	373.720	-0.183	0.372
-472.245	-200.000	-0.002	0.281
-471.230	-200.000	-0.009	-0.048
-470.216	-200.000	0.006	0.299
-469.201	-135.670	-0.195	-0.023
-468.186	-200.000	0.015	0.147
-467.172	-8.199	-0.257	-0.173
-466.157	-89.433	-0.241	0.071
-465.143	-167.103	0.298	0.012
-464.128	-69.100	0.038	0.014
-463.113	-74.060	-0.168	0.061
-462.099	-39.014	-0.109	-0.057
-461.084	303.596	0.133	0.246
-460.070	-119.429	0.186	0.032
-459.055	61.653	-0.227	0.226
-458.040	368.663	-0.106	-0.214
-457.026	403.092	-0.169	-0.355
-456.011	261.672	-0.075	-0.130
-454.997	-84.418	0.219	0.069
-453.982	-200.000	-0.009	-0.255
-452.968	-125.086	0.053	0.008
-451.953	800.000	0.077	-0.293
-450.938	-173.332	0.080	-0.002
-449.924	238.749	-0.108	-0.179
-448.909	-162.758	-0.123	-0.006
-447.895	-200.000	0.001	-0.364
-446.880	-30.173	0.207	-0.118
-445.865	-42.096	0.209	0.106
-444.851	266.228	0.116	-0.203
-443.836	-29.643	0.233	-0.133
-442.822	-200.000	0.008	-0.138
-441.807	497.789	0.165	0.378
-440.792	800.000	0.035	0.135
-439.778	133.663	0.167	0.215
-438.763	-200.000	-0.010	-0.134
-437.749	-15.382	-0.185	-0.118
-436.734	61.806	-0.198	0.196
-435.719	800.000	-0.086	-0.242
-434.705	-200.000	0.060	0.379
-433.690	-169.102	0.123	-0.005
-432.676	355.376	0.087	-0.172
-431.661	-200.000	-0.116	0.000
-430.646	344.822	-0.123	-0.242
-429.632	354.062	0.199	0.393
-428.617	-66.404	0.225	-0.089
-427.603	-200.000	-0.006	0.139
-426.588	148.484	0.030	0.040
-425.573	-200.000	-0.018	0.090
-424.559	-200.000	0.030	0.391
-423.544	-64.548	-0.118	0.048
-422.530	-32.604	0.112	0.062
-421.515	38.698	-0.116	0.103
-420.500	-92.985	-0.109	-0.030
-419.486	800.000	0.117	-0.408
-418.471	-28.218	0.326	0.188
-417.457	-22.999	-0.112	0.067
-416.442	-200.000	0.033	-0.184
-415.428	256.217	-0.060	0.103
-414.413	-59.553	0.015	0.006
-413.398	-80.708	-0.223	-0.074
-412.384	-12.977	-0.202	-0.131
-411.369	45.933	-0.121	-0.111
-410.355	-148.955	-0.389	-0.031
-409.340	-200.000	-0.003	0.097
-408.325	0.942	0.379	-0.271
-407.311	-143.925	0.170	0.016
-406.296	580.350	-0.122	0.298
-405.282	-200.000	-0.100	0.590
-404.267	800.000	-0.019	-0.073
-403.252	15.277	0.132	-0.103
-402.238	165.776	0.116	0.164
-401.223	-48.642	0.162	-0.077
-400.209	-2.276	0.070	-0.049
-399.194	416.447	-0.056	-0.120
-398.179	324.342	-0.132	0.251
-397.165	-109.841	0.147	-0.031
-396.150	279.625	0.131	-0.234
-395.136	129.901	0.133	0.170
-394.121	-159.848	0.026	0.001
-393.106	-167.802	-0.122	0.005
-392.092	-156.553	0.183	-0.011
-391.077	-25.468	0.188	-0.110
-390.063	-61.217	-0.294	-0.124
-389.048	47.393	-0.031	-0.029
-388.033	-21.181	0.454	0.277
-387.019	-23.378	0.062	0.037
-386.004	-126.594	-0.369	0.054
-384.990	137.487	0.208	-0.271
-383.975	26.917	0.066	0.055
-382.960	-200.000	0.006	-0.200
-381.946	-200.000	-0.081	-0.519
-380.931	5.324	-0.289	-0.212
-379.917	-200.000	-0.016	0.116
-378.902	250.991	-0.037	-0.062
-377.888	210.534	0.271	0.424
-376.873	-11.314	0.307	0.201
-375.858	46.812	0.099	0.091
-374.844	-22.625	-0.235	-0.141
-373.829	220.260	0.096	0.152
-372.815	31.164	0.110	0.094
-371.800	800.000	-0.049	0.145
-370.785	-130.466	0.193	0.026
-369.771	113.958	-0.088	-0.106
-368.756	39.420	-0.101	0.090
-367.742	-200.000	0.002	0.013
-366.727	-200.000	-0.039	-0.238
-365.712	34.369	0.281	-0.244
-364.698	-34.897	0.205	0.111
-363.683	-96.948	-0.269	-0.070
-362.669	-11.931	0.017	0.011
-361.654	29.618	0.276	0.234
-360.639	-119.228	-0.461	-0.080
-359.625	-60.855	0.125	0.053
-358.610	251.006	0.157	-0.266
-357.596	30.785	-0.280	0.239
-356.581	-56.552	-0.125	-0.055
-355.566	42.726	0.288	-0.261
-354.552	-199.708	0.051	-0.000
-353.537	-162.662	0.212	0.010
-352.523	431.544	-0.129	-0.279
-351.508	-200.000	0.042	-0.261
-350.493	-200.000	-0.047	0.227
-349.479	-65.565	0.364	-0.145
-348.464	-183.183	0.222	0.004
-347.450	50.346	0.123	0.115
-346.435	-200.000	0.023	-0.172
-345.420	578.993	-0.102	-0.249
-344.406	9.577	0.268	-0.202
-343.391	-109.808	-0.100	-0.021
-342.377	-200.000	-0.051	-0.284
-341.362	-71.025	0.075	-0.028
-340.348	59.329	0.206	-0.201
-339.333	-45.438	0.115	0.057
-338.318	30.489	-0.184	0.156
-337.304	-166.811	0.179	-0.007
-336.289	800.000	-0.043	-0.168
-335.275	800.000	0.049	-0.181
-334.260	800.000	-0.016	-0.056
-333.245	-161.559	0.145	0.007
-332.231	-105.508	0.135	0.030
-331.216	-200.000	-0.001	-0.067
-330.202	-200.000	-0.021	-0.136
-329.187	-167.081	0.219	0.009
-328.172	173.522	-0.082	0.117
-327.158	800.000	-0.109	0.335
-326.143	-200.000	0.017	-0.126
-325.129	-200.000	-0.018	0.104
-324.114	-53.382	-0.052	-0.024
-323.099	-58.194	-0.279	0.120
-322.085	60.247	0.181	0.178
-321.070	32.009	-0.281	-0.241
-320.056	800.000	-0.031	-0.092
-319.041	301.038	0.072	0.132
-318.026	-200.000	-0.012	-0.286
-317.012	-9.821	0.055	-0.037
-315.997	-128.423	0.443	0.063
-314.983	-7.095	-0.038	-0.026
-313.968	509.098	-0.085	0.196
-312.953	60.439	0.310	0.305
-311.939	-200.000	0.021	0.224
-310.924	443.091	-0.128	-0.279
-309.910	-157.283	0.189	0.011
-308.895	13.753	0.067	0.052
-307.880	800.000	0.019	0.053
-306.866	-200.000	-0.021	0.112
-305.851	-200.000	0.001	-0.098
-304.837	-62.202	-0.170	0.070
-303.822	194.741	0.247	-0.371
-302.807	-39.181	0.244	0.127
-301.793	-120.556	-0.100	0.017
-300.778	-200.000	-0.036	-0.351
-299.764	49.920	0.163	0.153
-298.749	-78.515	0.112	-0.038
-297.735	296.718	-0.085	0.154
-296.720	-200.000	-0.003	-0.050
-295.705	-4.727	0.067	0.046
-294.691	195.783	-0.099	0.149
-293.676	-200.000	-0.021	0.169
-292.662	295.738	0.078	0.141
-291.647	-97.092	-0.204	-0.053
-290.632	-200.000	-0.039	0.450
-289.618	-148.876	-0.195	0.016
-288.603	108.551	-0.146	0.173
-287.589	280.546	-0.094	0.167
-286.574	800.000	-0.124	-0.407
-285.559	800.000	0.077	-0.240
-284.545	212.442	-0.098	0.154
-283.530	800.000	-0.051	-0.212
-282.516	800.000	0.030	-0.085
-281.501	-200.000	-0.001	-0.084
-280.486	-30.781	0.078	0.044
-279.472	-200.000	0.023	-0.110
-278.457	800.000	-0.038	-0.135
-277.443	-21.975	0.156	0.094
-276.428	-90.269	-0.071	-0.021
-275.413	-200.000	-0.021	0.124
-274.399	78.810	0.243	0.258
-273.384	-36.641	-0.146	-0.078
-272.370	-200.000	-0.000	0.039
-271.355	-200.000	0.024	-0.285
-270.340	800.000	0.030	-0.097
-269.326	-19.562	0.433	0.266
-268.311	-14.016	0.250	0.160
-267.297	-70.461	0.111	-0.042
-266.282	59.232	-0.250	-0.244
-265.267	-105.305	-0.058	-0.013
-264.253	-164.274	-0.105	-0.005
-263.238	800.000	-0.051	-0.202
-262.224	117.305	-0.143	0.174
-261.209	-200.000	-0.027	0.286
-260.195	368.741	-0.125	0.251
-259.180	-95.972	0.173	-0.046
-258.165	-15.731	-0.064	-0.040
-257.151	-80.725	-0.450	-0.148
-256.136	-118.565	0.631	-0.110
-255.122	-200.000	0.019	0.389
-254.107	721.564	-0.095	-0.249
-253.092	92.290	0.062	0.069
-252.078	800.000	-0.122	-0.374
-251.063	38.685	-0.188	-0.166
-250.049	326.640	-0.220	-0.417
-249.034	238.938	-0.102	0.167
-248.019	18.132	-0.109	-0.086
-247.005	-200.000	0.019	-0.234
-245.990	800.000	-0.016	0.063
-244.976	-145.243	-0.135	-0.012
-243.961	56.887	-0.132	0.128
-242.946	-200.000	0.025	-0.478
-241.932	210.840	0.130	0.203
-240.917	800.000	0.110	0.305
-239.903	-11.313	-0.173	0.112
-238.888	-125.033	-0.343	-0.052
-237.873	289.446	-0.177	0.317
-236.859	-96.488	-0.071	-0.019
-235.844	-156.353	-0.200	-0.012
-234.830	-66.530	0.185	-0.073
-233.815	-200.000	-0.004	-0.107
-232.800	285.109	-0.073	-0.131
-231.786	-57.458	0.020	0.009
-230.771	-133.484	0.135	-0.017
-229.757	184.809	0.344	-0.505
-228.742	-200.000	0.048	-0.503
-227.727	47.008	-0.198	0.183
-226.713	75.868	0.209	-0.219
-225.698	92.051	0.229	-0.255
-224.684	19.335	0.146	0.116
-223.669	-24.492	-0.274	0.161
-222.655	-76.412	-0.249	0.087
-221.640	317.409	0.082	-0.153
-220.625	121.970	0.247	-0.305
-219.611	224.548	0.068	-0.108
-218.596	205.134	-0.082	-0.126
-217.582	-200.000	0.025	0.351
-216.567	-106.335	-0.155	0.034
-215.552	173.728	0.260	-0.372
-214.538	800.000	-0.102	-0.342
-213.523	48.811	-0.098	-0.091
-212.509	-3.729	-0.098	-0.068
-211.494	-154.591	0.089	-0.006
-210.479	-200.000	0.040	-0.510
-209.465	23.883	0.055	-0.045
-208.450	193.495	0.076	0.113
-207.436	303.018	-0.068	0.125
-206.421	-45.465	0.343	-0.168
-205.406	110.243	-0.297	-0.353
-204.392	297.451	0.121	-0.220
-203.377	186.882	0.252	-0.372
-202.363	-200.000	0.011	-0.170
-201.348	800.000	-0.033	-0.116
-200.333	-200.000	-0.066	0.358
-199.319	-35.297	0.378	0.203
-198.304	53.670	0.193	0.183
-197.290	43.589	-0.376	0.340
-196.275	496.211	0.045	-0.103
-195.260	81.718	0.085	0.091
-194.246	164.645	0.009	-0.012
-193.231	7.867	0.176	-0.130
-192.217	-47.117	-0.249	-0.120
-191.202	800.000	-0.100	-0.403
-190.187	-165.630	-0.134	-0.006
-189.173	800.000	-0.046	-0.181
-188.158	-66.957	-0.219	0.085
-187.144	385.278	-0.212	0.433
-186.129	374.513	-0.090	0.182
-185.114	-54.205	0.184	0.083
-184.100	38.480	0.157	-0.138
-183.085	-200.000	-0.031	0.443
-182.071	403.058	0.081	0.169
-181.056	-117.710	0.251	-0.045
-180.042	253.819	-0.127	0.214
-179.027	-88.343	-0.124	0.036
-178.012	-128.278	-0.174	-0.024
-176.998	100.951	-0.193	0.222
-175.983	-91.137	0.358	0.101
-174.969	229.706	-0.146	-0.236
-173.954	-4.645	0.296	0.202
-172.939	-200.000	-0.016	0.079
-171.925	-65.356	-0.223	-0.088
-170.910	-26.080	0.184	0.107
-169.896	-200.000	-0.054	-0.389
-168.881	-8.884	-0.091	0.061
-167.866	126.226	0.190	0.237
-166.852	21.497	0.091	0.073
-165.837	-41.622	-0.056	-0.028
-164.823	-148.978	-0.289	0.023
-163.808	-90.611	0.166	0.047
-162.793	-12.422	-0.474	-0.306
-161.779	-22.123	0.186	0.112
-160.764	-122.563	-0.132	-0.021
-159.750	800.000	-0.065	0.252
-158.735	-121.485	0.222	0.036
-157.720	195.995	-0.133	0.200
-156.706	-85.454	0.112	0.034
-155.691	-172.314	0.343	-0.011
-154.677	-32.267	-0.371	0.205
-153.662	419.555	-0.152	0.320
-152.647	-66.814	0.175	-0.068
-151.633	-152.732	-0.288	0.020
-150.618	-72.280	0.102	-0.037
-149.604	404.069	-0.029	0.060
-148.589	176.221	0.119	-0.171
-147.574	-148.484	0.061	0.005
-146.560	244.670	0.074	0.122
-145.545	360.396	-0.084	-0.165
-144.531	-200.000	0.107	-0.467
-143.516	448.990	0.161	0.350
-142.502	-51.000	-0.076	0.035
-141.487	800.000	-0.069	-0.287
-140.472	800.000	0.076	0.247
-139.458	208.157	0.005	-0.008
-138.443	91.952	0.053	0.058
-137.429	-200.000	0.051	0.241
-136.414	-107.840	-0.220	0.047
-135.399	82.099	-0.140	-0.150
-134.385	-200.000	-0.019	0.193
-133.370	30.272	-0.210	-0.177
-132.356	-200.000	-0.014	-0.120
-131.341	-7.871	-0.209	-0.139
-130.326	-0.652	-0.086	-0.060
-129.312	800.000	0.059	0.220
-128.297	-104.453	0.128	0.029
-127.283	250.011	0.186	0.311
-126.268	483.634	0.025	0.057
-125.253	-147.578	-0.152	-0.013
-124.239	224.949	0.045	0.072
-123.224	69.421	0.243	0.246
-122.210	-127.351	-0.176	-0.025
-121.195	112.683	-0.097	-0.115
-120.180	-6.594	0.225	0.151
-119.166	-85.239	-0.400	0.123
-118.151	793.446	0.050	0.134
-117.137	394.681	0.075	-0.154
-116.122	-200.000	-0.013	0.104
-115.107	-200.000	-0.057	0.381
-114.093	548.141	0.058	-0.138
-113.078	33.090	0.141	-0.121
-112.064	-49.706	0.153	-0.071
-111.049	-16.943	-0.093	-0.058
-110.034	-56.560	0.236	0.103
-109.020	800.000	-0.057	0.211
-108.005	-7.518	-0.082	0.054
-106.991	283.761	0.064	0.113
-105.976	-200.000	-0.002	-0.158
-104.962	-46.895	-0.141	0.068
-103.947	100.600	-0.192	0.219
-102.932	-123.446	0.257	0.040
-101.918	148.633	-0.210	-0.280
-100.903	43.374	0.149	0.134
-99.889	187.601	0.135	0.198
-98.874	356.198	-0.118	-0.232
-97.859	132.407	0.184	-0.234
-96.845	-200.000	-0.031	-0.235
-95.830	586.151	0.038	0.092
-94.816	-87.730	0.132	-0.039
-93.801	768.180	-0.052	-0.140
-92.786	697.535	0.012	-0.031
-91.772	-200.000	-0.075	-0.372
-90.757	57.082	0.216	0.207
-89.743	-72.783	-0.243	-0.088
-88.728	244.294	0.220	-0.363
-87.713	-200.000	-0.031	0.156
-86.699	254.787	0.038	-0.064
-85.684	-119.376	0.216	-0.037
-84.670	32.102	0.357	-0.302
-83.655	-5.346	0.218	0.148
-82.640	179.953	-0.135	-0.195
-81.626	-116.200	0.094	-0.017
-80.611	-66.522	0.176	0.069
-79.597	125.855	-0.159	-0.198
-78.582	10.966	-0.067	0.050
-77.567	-34.953	-0.208	0.112
-76.553	-200.000	0.059	0.255
-75.538	33.600	0.163	0.139
-74.524	-200.000	-0.016	0.129
-73.509	-22.355	-0.138	0.082
-72.494	-200.000	0.023	0.379
-71.480	-51.040	0.160	0.074
-70.465	-130.210	-0.105	0.014
-69.451	-55.836	0.423	0.186
-68.436	-162.838	-0.476	-0.023
-67.422	-51.552	0.136	0.063
-66.407	-106.546	-0.131	-0.029
-65.392	565.881	0.006	-0.014
-64.378	800.000	0.018	-0.078
-63.363	796.856	-0.100	-0.272
-62.349	-121.485	0.315	0.051
-61.334	274.612	-0.609	-1.060
-60.319	-31.320	0.518	0.287
-59.305	-200.000	-0.185	-0.810
-58.290	292.904	0.705	1.263
-57.276	380.578	0.751	1.514
-56.261	-200.000	95.216	592.032
-55.246	664.123	1366.692	3465.952
-54.232	199.640	2548.487	3841.748
-53.217	114.412	2266.518	2712.386
-52.203	41.735	1896.424	1688.765
-51.188	35.385	1686.178	1453.568
-50.173	32.765	1642.145	1396.188
-49.159	50.241	1688.257	1566.829
-48.144	51.780	1704.819	1593.679
-47.130	34.994	1666.255	1433.240
-46.115	32.387	1651.427	1401.039
-45.100	32.166	1646.208	1394.921
-44.086	32.031	1644.474	1392.389
-43.071	32.016	1641.441	1389.655
-42.057	32.007	1639.158	1387.606
-41.042	32.024	1637.217	1386.032
-40.027	32.058	1635.361	1384.652
-39.013	32.027	1633.369	1382.686
-37.998	31.964	1631.879	1380.906
-36.984	31.979	1631.028	1380.238
-35.969	32.116	1629.066	1379.532
-34.954	32.165	1627.280	1378.327
-33.940	32.113	1625.558	1376.430
-32.925	32.117	1623.660	1374.797
-31.911	32.096	1622.285	1373.428
-30.896	32.117	1620.366	1371.903
-29.881	32.019	1618.903	1369.889
-28.867	32.046	1617.412	1368.774
-27.852	32.180	1615.748	1368.289
-26.838	32.161	1613.935	1366.559
-25.823	32.172	1612.560	1365.417
-24.809	32.182	1611.032	1364.146
-23.794	32.210	1609.390	1362.904
-22.779	32.132	1608.370	1361.419
-21.765	32.127	1606.899	1360.082
-20.750	32.116	1605.077	1358.410
-19.736	32.165	1603.759	1357.596
-18.721	32.233	1602.811	1357.228
-17.706	32.189	1601.081	1355.391
-16.692	32.194	1599.699	1354.202
-15.677	32.067	1598.580	1352.286
-14.663	32.215	1596.665	1351.683
-13.648	32.231	1595.138	1350.446
-12.633	32.199	1593.534	1348.808
-11.619	32.198	1592.331	1347.726
-10.604	32.164	1590.948	1346.257
-9.590	32.091	1589.551	1344.504
-8.575	32.089	1588.746	1343.751
-7.560	32.176	1587.237	1343.042
-6.546	32.117	1586.158	1341.659
-5.531	32.137	1585.007	1340.775
-4.517	32.115	1583.544	1339.324
-3.502	32.201	1582.196	1338.742
-2.487	32.180	1580.880	1337.432
-1.473	31.837	1569.585	1325.394
-0.458	29.167	1549.647	1289.843
0.556	25.303	1549.918	1259.357
1.571	22.835	1573.678	1260.942
2.586	22.368	1585.929	1267.286
3.600	19.823	1533.008	1207.156
4.615	11.958	1425.405	1071.093
5.629	5.657	1362.973	984.589
6.644	4.656	1355.523	972.859
7.659	4.573	1353.923	971.109
8.673	4.536	1353.063	970.173
9.688	4.545	1351.615	969.103
10.702	4.443	1348.768	966.345
11.717	7.394	1353.951	988.380
12.731	14.732	1367.220	1044.003
13.746	19.337	1373.944	1077.906
14.761	19.019	1372.701	1074.850
15.775	17.999	1369.587	1065.953
16.790	16.817	1367.635	1056.968
17.804	15.989	1365.659	1050.192
18.819	15.816	1363.426	1047.301
19.834	15.523	1362.410	1044.608
20.848	15.339	1360.965	1042.267
21.863	15.020	1360.003	1039.455
22.877	14.937	1358.787	1037.917
23.892	14.841	1357.946	1036.590
24.907	14.852	1356.898	1035.764
25.921	14.816	1356.268	1034.968
26.936	14.963	1355.008	1034.827
27.950	14.870	1354.519	1033.788
28.965	15.053	1353.556	1034.092
29.980	15.023	1352.609	1033.088
30.994	15.149	1351.507	1032.934
32.009	15.210	1350.080	1032.127
33.023	15.217	1348.321	1030.737
34.038	15.091	1347.649	1029.356
35.053	15.101	1346.083	1028.131
36.067	15.008	1345.308	1026.878
37.082	15.041	1344.713	1026.534
38.096	15.067	1343.332	1025.548
39.111	15.113	1342.355	1024.992
40.126	14.997	1341.451	1023.504
41.140	14.801	1340.774	1021.695
42.155	14.756	1340.236	1020.922
43.169	14.747	1340.088	1020.664
44.184	14.783	1339.669	1020.472
45.199	14.703	1339.463	1019.735
46.213	15.011	1338.534	1020.823
47.228	14.995	1337.616	1019.934
48.242	14.982	1336.646	1019.023
49.257	15.011	1335.054	1017.895
50.271	14.947	1333.969	1016.591
51.286	15.051	1332.320	1015.871
52.301	15.011	1330.975	1014.514
53.315	14.958	1329.697	1013.131
54.330	14.883	1328.950	1012.019
55.344	14.862	1327.505	1010.704
56.359	14.851	1326.912	1010.093
57.374	14.889	1325.882	1009.452
58.388	14.672	1325.093	1007.452
59.403	14.779	1324.816	1007.793
60.417	14.646	1323.677	1006.037
61.432	14.535	1323.401	1005.073
62.447	14.715	1321.289	1004.459
63.461	14.628	1321.082	1003.694
64.476	14.715	1319.718	1003.092
65.490	14.599	1318.524	1001.398
66.505	14.736	1316.797	1000.814
67.520	14.715	1316.073	1000.056
68.534	14.769	1314.640	999.199
69.549	14.776	1313.551	998.326
70.563	14.666	1312.717	996.944
71.578	14.564	1311.802	995.555
72.593	14.537	1310.547	994.353
73.607	14.516	1309.510	993.355
74.622	14.674	1308.672	993.570
75.636	14.615	1308.452	992.965
76.651	14.659	1307.474	992.397
77.666	14.574	1307.430	991.768
78.680	14.592	1306.817	991.322
79.695	14.694	1305.835	991.093
80.709	14.702	1305.272	990.625
81.724	14.726	1304.626	990.191
82.739	14.834	1303.978	990.251
83.753	14.883	1302.773	989.539
84.768	15.045	1301.332	989.317
85.782	15.092	1300.256	988.686
86.797	14.937	1299.567	987.163
87.812	14.963	1298.340	986.293
88.826	14.884	1297.386	985.017
89.841	14.951	1296.290	984.493
90.855	14.962	1295.393	983.788
91.870	15.045	1294.676	983.647
92.884	15.084	1293.400	982.820
93.899	15.164	1292.904	982.824
94.914	15.188	1292.001	982.191
95.928	15.102	1291.420	981.156
96.943	15.032	1290.243	979.766
97.957	15.064	1289.334	979.179
98.972	15.087	1288.130	978.310
99.987	15.017	1287.019	976.974
101.001	15.081	1286.124	976.577
102.016	15.120	1285.192	976.010
103.030	15.072	1284.495	975.118
104.045	14.973	1284.068	974.132
105.060	15.002	1282.420	972.962
106.074	14.870	1280.791	970.877
107.089	14.666	1279.780	968.839
108.103	14.724	1278.399	968.044
109.118	14.705	1277.028	966.809
110.133	14.747	1275.502	965.813
111.147	14.690	1274.155	964.374
112.162	14.789	1273.035	964.017
113.176	14.843	1271.919	963.395
114.191	14.824	1271.211	962.662
115.206	14.818	1269.790	961.470
116.220	14.785	1268.478	960.203
117.235	14.721	1267.945	959.346
118.249	14.796	1266.453	958.562
119.264	14.782	1265.191	957.441
120.279	14.790	1264.157	956.620
121.293	14.737	1263.088	955.421
122.308	14.706	1262.184	954.477
123.322	14.608	1261.010	952.946
124.337	14.655	1260.076	952.423
125.352	14.679	1258.941	951.616
126.366	14.757	1257.653	951.007
127.381	14.660	1257.044	949.906
128.395	14.661	1256.305	949.273
129.410	14.855	1255.338	949.557
130.424	14.784	1254.546	948.471
131.439	14.776	1253.488	947.545
132.454	14.740	1252.949	946.847
133.468	14.837	1251.737	946.398
134.483	14.809	1251.030	945.620
135.497	14.973	1249.490	945.298
136.512	14.806	1248.667	943.653
137.527	14.803	1247.371	942.570
138.541	14.863	1246.304	942.018
139.556	14.849	1245.127	940.968
140.570	15.028	1243.891	940.956
141.585	15.013	1242.756	939.929
142.600	15.055	1241.534	939.157
143.614	15.044	1241.197	938.759
144.629	15.089	1239.900	937.947
145.643	15.075	1238.449	936.689
146.658	15.072	1237.033	935.520
147.673	15.058	1235.718	934.364
148.687	14.950	1234.315	932.616
149.702	14.948	1233.410	931.837
150.716	14.837	1232.479	930.436
151.731	14.855	1231.073	929.392
152.746	14.857	1230.031	928.536
153.760	14.912	1228.898	927.900
154.775	14.978	1227.888	927.423
155.789	15.170	1226.705	927.514
156.804	15.064	1225.961	926.279
157.819	15.089	1224.776	925.441
158.833	15.101	1224.277	925.049
159.848	15.191	1222.924	924.440
160.862	15.198	1222.302	923.925
161.877	15.031	1221.257	922.135
162.892	15.061	1219.885	921.186
163.906	14.963	1219.203	920.050
164.921	14.991	1217.999	919.212
165.935	15.090	1217.365	919.193
166.950	15.057	1216.558	918.323
167.964	15.081	1216.046	917.988
168.979	15.117	1215.138	917.419
169.994	15.066	1214.527	916.594
171.008	15.160	1213.447	916.215
172.023	15.238	1212.666	915.972
173.037	15.301	1211.978	915.712
174.052	15.236	1211.335	914.790
175.067	15.143	1210.075	913.253
176.081	15.064	1208.949	911.890
177.096	15.080	1208.285	911.397
178.110	15.210	1207.405	911.360
179.125	15.213	1205.714	910.020
180.140	15.180	1204.398	908.764
181.154	15.299	1203.381	908.562
182.169	15.242	1202.521	907.524
183.183	15.287	1201.429	906.862
184.198	15.378	1200.482	906.562
185.213	15.353	1199.255	905.419
186.227	15.435	1198.008	904.841
187.242	15.433	1196.876	903.895
188.256	15.442	1196.232	903.375
189.271	15.443	1195.602	902.823
190.286	15.330	1194.175	901.059
191.300	15.149	1193.097	899.194
192.315	15.161	1192.071	898.410
193.329	15.135	1191.450	897.719
194.344	15.102	1191.214	897.285
195.359	15.242	1190.498	897.420
196.373	15.425	1190.094	898.011
197.388	15.489	1189.252	897.639
198.402	15.562	1189.073	897.818
199.417	15.601	1188.511	897.521
200.432	15.764	1187.411	897.480
201.446	15.704	1187.111	896.853
202.461	15.813	1185.742	896.319
203.475	15.767	1185.097	895.511
204.490	15.699	1183.744	894.047
205.504	15.635	1182.349	892.572
206.519	15.497	1181.097	890.817
207.534	15.540	1180.389	890.433
208.548	15.574	1179.423	889.808
209.563	15.695	1178.244	889.476
210.577	15.517	1177.666	888.022
211.592	15.731	1176.422	888.136
212.607	15.691	1176.319	887.769
213.621	15.911	1174.732	887.652
214.636	15.836	1174.482	886.989
215.650	15.766	1173.426	885.746
216.665	15.733	1172.532	884.818
217.680	15.862	1171.810	884.870
218.694	15.847	1171.212	884.261
219.709	15.819	1170.516	883.514
220.723	15.904	1169.363	883.010
221.738	15.911	1169.007	882.700
222.753	15.907	1168.030	881.862
223.767	15.951	1167.676	881.748
224.782	16.002	1167.030	881.447
225.796	15.935	1166.710	880.779
226.811	15.975	1165.669	880.123
227.826	15.940	1164.756	879.175
228.840	15.966	1163.675	878.415
229.855	15.856	1163.286	877.469
230.869	15.964	1162.440	877.318
231.884	15.994	1161.458	876.656
232.899	15.904	1160.954	875.731
233.913	15.887	1159.851	874.730
234.928	15.832	1159.216	873.889
235.942	15.809	1158.254	872.969
236.957	15.859	1157.298	872.426
237.972	15.882	1157.011	872.256
238.986	15.879	1156.334	871.651
240.001	15.876	1155.916	871.243
241.015	15.894	1154.811	870.428
242.030	15.944	1154.158	870.117
243.045	15.985	1153.532	869.779
244.059	15.939	1152.516	868.696
245.074	16.114	1151.635	868.858
246.088	16.166	1150.915	868.504
247.103	16.075	1150.417	867.584
248.117	16.122	1149.295	866.904
249.132	16.390	1148.699	867.753
250.147	16.406	1148.232	867.406
251.161	16.567	1146.900	867.149
252.176	16.434	1147.150	866.581
253.190	16.509	1146.284	866.234
254.205	16.601	1145.808	866.268
255.220	16.654	1144.781	865.686
256.234	16.541	1144.643	864.927
257.249	16.537	1143.531	863.989
258.263	16.651	1142.681	863.853
259.278	16.644	1142.489	863.595
260.293	16.602	1141.653	862.673
261.307	16.671	1141.570	862.888
262.322	16.708	1140.610	862.272
263.336	16.739	1139.712	861.673
264.351	16.647	1139.472	860.952
265.366	16.665	1138.931	860.557
266.380	16.773	1138.047	860.362
267.395	16.698	1137.106	859.195
268.409	16.648	1136.261	858.225
269.424	16.710	1135.665	858.013
270.439	16.776	1135.346	858.031
271.453	16.609	1134.682	856.608
272.468	16.592	1133.389	855.470
273.482	16.475	1132.669	854.256
274.497	16.502	1132.461	854.163
275.512	16.570	1131.973	854.063
276.526	16.660	1130.770	853.531
277.541	16.692	1130.138	853.139
278.555	16.781	1129.534	853.059
279.570	16.828	1128.910	852.746
280.585	16.978	1127.900	852.666
281.599	16.998	1126.957	851.976
282.614	16.869	1125.769	850.357
283.628	16.669	1125.091	848.764
284.643	16.668	1123.889	847.780
285.657	16.712	1123.420	847.568
286.672	16.885	1122.136	847.390
287.687	17.047	1121.180	847.404
288.701	16.871	1120.762	846.134
289.716	16.976	1119.732	845.806
290.730	16.894	1119.010	844.777
291.745	16.917	1118.162	844.178
292.760	16.927	1117.962	844.000
293.774	16.932	1117.612	843.687
294.789	17.093	1116.918	843.888
295.803	17.005	1116.254	842.873
296.818	16.921	1115.387	841.729
297.833	16.944	1114.601	841.173
298.847	17.023	1113.957	841.006
299.862	16.922	1113.217	839.871
300.876	17.028	1112.638	839.885
301.891	17.082	1112.165	839.721
302.906	17.081	1111.211	838.921
303.920	17.208	1110.442	838.894
304.935	17.356	1110.252	839.409
305.949	17.332	1109.440	838.599
306.964	17.380	1108.190	837.817
307.979	17.150	1108.073	836.521
308.993	17.243	1107.315	836.333
310.008	17.259	1106.001	835.345
311.022	17.401	1105.560	835.637
312.037	17.220	1105.212	834.408
313.052	17.126	1104.112	833.045
314.066	17.135	1102.952	832.139
315.081	17.195	1101.864	831.538
316.095	17.212	1101.107	830.980
317.110	17.173	1100.586	830.320
318.125	17.192	1099.838	829.774
319.139	17.148	1098.928	828.801
320.154	17.178	1098.826	828.796
321.168	17.130	1098.655	828.360
322.183	17.215	1097.525	827.849
323.197	17.218	1097.075	827.449
324.212	17.355	1096.157	827.351
325.227	17.289	1095.858	826.734
326.241	17.377	1094.983	826.428
327.256	17.261	1094.282	825.261
328.270	17.270	1093.400	824.567
329.285	17.307	1091.991	823.610
330.300	17.271	1091.069	822.666
331.314	17.321	1090.449	822.371
332.329	17.367	1089.526	821.824
333.343	17.373	1088.604	821.083
334.358	17.341	1088.328	820.651
335.373	17.510	1087.415	820.702
336.387	17.502	1086.470	819.877
337.402	17.514	1085.828	819.379
338.416	17.485	1084.936	818.492
339.431	17.561	1084.609	818.540
340.446	17.572	1084.179	818.194
341.460	17.608	1083.362	817.677
342.475	17.788	1082.739	817.998
343.489	17.822	1081.730	817.328
344.504	17.848	1080.965	816.803
345.519	17.824	1080.064	815.932
346.533	17.832	1079.575	815.529
347.548	17.986	1078.510	815.391
348.562	17.857	1077.763	814.138
349.577	17.750	1076.767	812.802
350.592	17.756	1076.351	812.446
351.606	17.588	1075.666	811.056
352.621	17.629	1074.643	810.407
353.635	17.736	1074.068	810.410
354.650	17.652	1073.686	809.652
355.665	17.707	1072.880	809.236
356.679	17.824	1071.977	809.036
357.694	17.883	1071.519	808.899
358.708	17.857	1071.172	808.442
359.723	17.782	1070.397	807.431
360.738	17.938	1069.621	807.513
361.752	17.892	1069.506	807.135
362.767	17.866	1068.542	806.214
363.781	17.915	1068.367	806.242
364.796	17.981	1067.726	806.001
365.810	17.996	1066.959	805.420
366.825	18.195	1066.232	805.737
367.840	18.114	1066.146	805.219
368.854	18.287	1065.293	805.319
369.869	18.284	1064.320	804.498
370.883	18.206	1063.730	803.614
371.898	18.073	1062.628	802.084
372.913	18.196	1062.425	802.438
373.927	18.131	1061.817	801.603
374.942	18.190	1061.699	801.722
375.956	18.310	1060.993	801.676
376.971	18.236	1060.232	800.683
377.986	18.356	1059.514	800.631
379.000	18.371	1059.523	800.640
380.015	18.403	1058.465	799.920
381.029	18.397	1058.074	799.522
382.044	18.443	1057.257	799.051
383.059	18.437	1056.778	798.592
384.073	18.478	1055.699	797.896
385.088	18.479	1055.093	797.371
386.102	18.427	1054.292	796.454
387.117	18.322	1053.061	794.967
388.132	18.307	1052.162	794.146
389.146	18.270	1051.307	793.259
390.161	18.240	1050.630	792.542
391.175	18.337	1050.038	792.473
392.190	18.477	1049.154	792.382
393.205	18.531	1048.317	791.931
394.219	18.423	1047.752	790.935
395.234	18.582	1046.526	790.672
396.248	18.467	1045.327	789.164
397.263	18.406	1044.363	788.087
398.278	18.296	1044.276	787.446
399.292	18.333	1043.425	786.904
400.307	18.304	1042.666	786.131
401.321	18.303	1042.006	785.558
402.336	18.347	1041.389	785.227
403.350	18.257	1041.206	784.605
404.365	18.359	1039.663	783.842
405.380	18.619	1038.989	784.452
406.394	18.456	1038.785	783.485
407.409	18.659	1037.777	783.579
408.423	18.731	1036.980	783.237
409.438	18.676	1036.862	782.827
410.453	18.866	1035.848	782.860
411.467	18.835	1035.102	782.084
412.482	18.821	1034.735	781.676
413.496	18.788	1033.946	780.860
414.511	18.800	1033.642	780.617
415.526	18.905	1033.253	780.731
416.540	18.926	1032.822	780.432
417.555	19.058	1031.799	780.185
418.569	18.903	1031.784	779.402
419.584	18.854	1031.123	778.614
420.599	18.989	1030.327	778.554
421.613	150.608	1401.220	1794.342
422.628	137.403	1455.236	1794.469
