DTS Sentinel unit serial number:	SN413079Multiplexer serial number:	ORYXHardware model number:	OX4-SRSoftware version number:	ORYX F/W v4.00 Oryx Data Collector v3.7.2.0data status	okinstallation	princeton_trtdifferential loss correction	single-endedforward channel	channel 2reverse channel	N/Adate	2019/09/13time	17:55:35forward acquisition time	60.00reverse acquisition time	0.00gamma	496.2192k internal	0.2317k external	0.2317temperature offset calibration	1.0215default loss term (dB/km)	0.3790temperature slope calibration	1.0000multiplexer offset coefficient	1.0000multiplexer slope coefficient	1.0000fibre end	0.00T internal ref (°C)	35.25T ext. ref 1 (°C)	4.87T ext. ref 2 (°C)	28.16length (m)	temperature (°C)	Stokes	anti-Stokes-747.200	-200.000	0.010	0.290
-746.185	100.773	0.252	0.297
-745.171	269.375	0.113	-0.201
-744.156	-200.000	0.009	-0.122
-743.142	-200.000	-0.026	0.297
-742.127	-26.376	-0.098	-0.058
-741.112	421.693	0.066	-0.143
-740.098	-112.077	0.460	0.094
-739.083	-41.376	-0.470	0.245
-738.069	-31.902	-0.052	-0.030
-737.054	800.000	0.096	0.378
-736.039	800.000	-0.058	0.236
-735.025	219.197	-0.114	-0.185
-734.010	-4.422	-0.235	-0.164
-732.996	-107.847	-0.315	-0.069
-731.981	52.630	-0.383	-0.370
-730.966	125.752	-0.214	-0.274
-729.952	-168.505	-0.194	-0.007
-728.937	-95.514	-0.253	-0.069
-727.923	-60.345	-0.247	0.107
-726.908	-8.879	0.213	-0.144
-725.894	-33.233	-0.281	0.158
-724.879	-78.900	0.047	0.016
-723.864	18.309	-0.128	-0.104
-722.850	800.000	0.026	0.099
-721.835	355.911	0.158	-0.319
-720.821	61.148	-0.236	-0.237
-719.806	381.090	0.050	-0.105
-718.791	-200.000	0.021	-0.111
-717.777	800.000	-0.039	-0.127
-716.762	800.000	-0.059	0.229
-715.748	-200.000	0.031	-0.217
-714.733	40.030	0.112	0.102
-713.718	-146.981	0.172	0.015
-712.704	12.213	-0.465	0.362
-711.689	162.786	0.158	0.225
-710.675	564.487	0.118	0.289
-709.660	-104.640	0.409	0.095
-708.645	-200.000	-0.016	0.111
-707.631	2.633	0.223	0.164
-706.616	11.699	-0.183	-0.142
-705.602	167.759	0.079	0.114
-704.587	-89.520	0.223	-0.066
-703.572	-117.997	0.392	-0.071
-702.558	715.107	-0.072	0.192
-701.543	83.160	-0.133	0.147
-700.529	165.872	0.043	0.062
-699.514	226.652	-0.073	-0.120
-698.499	800.000	-0.049	-0.163
-697.485	-200.000	0.010	-0.297
-696.470	51.443	-0.245	0.235
-695.456	2.783	0.215	-0.158
-694.441	-138.726	-0.090	-0.010
-693.426	560.277	0.164	-0.401
-692.412	12.993	0.056	-0.044
-691.397	-100.617	-0.243	0.061
-690.383	391.514	0.095	0.200
-689.368	101.299	-0.100	0.118
-688.354	-96.245	-0.222	-0.059
-687.339	-63.809	0.209	-0.086
-686.324	-64.299	-0.217	-0.089
-685.310	-81.461	0.159	0.053
-684.295	-146.863	-0.150	0.013
-683.281	800.000	0.083	-0.297
-682.266	-200.000	-0.062	-0.513
-681.251	-13.612	-0.154	0.101
-680.237	65.664	0.021	-0.021
-679.222	800.000	-0.069	0.241
-678.208	175.404	-0.114	-0.167
-677.193	-150.460	-0.101	0.008
-676.178	158.159	0.092	-0.128
-675.164	39.331	0.201	-0.181
-674.149	84.414	0.114	0.126
-673.135	466.909	-0.125	0.283
-672.120	76.342	0.223	-0.239
-671.105	-0.980	0.351	-0.251
-670.091	652.633	0.059	0.154
-669.076	382.357	-0.082	-0.171
-668.062	-57.877	0.299	-0.132
-667.047	-200.000	-0.025	0.305
-666.032	132.842	0.115	-0.150
-665.018	375.062	-0.027	-0.055
-664.003	-200.000	0.011	-0.048
-662.989	-78.425	-0.071	0.025
-661.974	-131.646	-0.044	0.006
-660.959	705.626	0.009	0.024
-659.945	5.746	0.089	-0.066
-658.930	54.773	-0.124	-0.121
-657.916	-2.746	-0.035	0.025
-656.901	52.097	-0.193	-0.185
-655.886	-111.185	-0.263	-0.054
-654.872	333.628	0.168	0.328
-653.857	-46.243	0.102	0.050
-652.843	191.642	-0.012	-0.018
-651.828	800.000	-0.045	0.134
-650.814	56.514	-0.165	0.162
-649.799	-126.667	-0.167	0.025
-648.784	-12.428	-0.206	0.136
-647.770	-122.860	-0.239	-0.039
-646.755	-121.119	-0.253	0.043
-645.741	42.631	-0.107	-0.098
-644.726	604.288	0.030	0.075
-643.711	-5.832	-0.078	-0.054
-642.697	-83.013	-0.355	-0.115
-641.682	294.832	-0.223	-0.411
-640.668	124.819	-0.111	-0.141
-639.653	-197.575	0.021	0.000
-638.638	-200.000	0.058	0.356
-637.624	-51.853	0.117	-0.055
-636.609	249.083	0.065	-0.111
-635.595	-200.000	0.022	-0.098
-634.580	171.151	0.208	-0.301
-633.565	4.538	0.262	-0.194
-632.551	82.606	-0.108	0.118
-631.536	800.000	0.080	0.238
-630.522	800.000	0.045	0.149
-629.507	-71.549	-0.210	-0.079
-628.492	-123.932	-0.259	0.041
-627.478	-43.654	-0.322	-0.164
-626.463	-15.865	-0.237	0.152
-625.449	209.854	-0.227	0.358
-624.434	243.009	0.109	-0.184
-623.419	-33.226	0.378	-0.211
-622.405	182.798	0.136	-0.202
-621.390	800.000	-0.028	-0.116
-620.376	438.164	0.054	0.119
-619.361	-13.771	-0.156	0.102
-618.346	17.289	-0.309	-0.247
-617.332	-4.561	0.034	0.023
-616.317	-117.995	0.251	-0.045
-615.303	-14.657	0.166	0.108
-614.288	-200.000	-0.020	0.205
-613.273	-200.000	0.014	0.175
-612.259	-200.000	0.000	0.028
-611.244	800.000	-0.137	-0.404
-610.230	40.599	0.167	0.151
-609.215	-77.354	0.126	-0.044
-608.201	25.691	-0.204	-0.171
-607.186	-39.023	0.087	0.046
-606.171	38.965	0.225	-0.203
-605.157	-98.064	0.099	-0.026
-604.142	-93.404	0.127	0.036
-603.128	220.924	-0.063	0.102
-602.113	-200.000	-0.039	0.338
-601.098	8.232	-0.394	0.298
-600.084	-200.000	0.000	0.177
-599.069	800.000	-0.040	0.158
-598.055	-200.000	0.057	-0.284
-597.040	-4.799	-0.208	-0.144
-596.025	19.374	0.093	0.075
-595.011	193.335	0.211	0.322
-593.996	-37.268	0.196	-0.106
-592.982	-200.000	0.012	0.280
-591.967	273.729	0.173	-0.308
-590.952	-158.652	-0.149	-0.009
-589.938	-27.526	-0.246	0.144
-588.923	-177.974	0.247	0.006
-587.909	65.019	-0.081	0.082
-586.894	27.494	0.125	-0.106
-585.879	-200.000	0.001	0.193
-584.865	41.836	-0.212	0.193
-583.850	251.110	-0.164	0.280
-582.836	-58.652	-0.118	-0.052
-581.821	-146.247	-0.152	-0.013
-580.806	-21.640	0.159	-0.098
-579.792	-37.286	-0.082	-0.044
-578.777	-83.316	-0.134	0.043
-577.763	502.061	-0.119	0.277
-576.748	78.815	0.143	-0.154
-575.733	660.654	0.099	-0.256
-574.719	226.084	-0.145	-0.237
-573.704	800.000	0.067	-0.256
-572.690	-100.817	-0.112	0.028
-571.675	-65.042	-0.350	0.142
-570.661	-189.553	-0.394	0.005
-569.646	76.829	0.133	-0.142
-568.631	2.417	0.271	-0.197
-567.617	-127.057	-0.291	0.043
-566.602	-200.000	-0.021	0.176
-565.588	34.907	-0.342	0.301
-564.573	-178.799	-0.228	-0.005
-563.558	800.000	0.059	-0.198
-562.544	-86.319	0.092	-0.028
-561.529	754.953	0.096	-0.260
-560.515	-79.476	-0.281	-0.095
-559.500	-142.765	0.334	0.033
-558.485	-200.000	0.078	-0.612
-557.471	-119.319	-0.250	0.044
-556.456	800.000	0.037	0.161
-555.442	-70.525	0.096	-0.036
-554.427	-114.894	0.109	0.021
-553.412	113.299	-0.141	0.172
-552.398	800.000	-0.030	-0.093
-551.383	-49.387	0.191	0.092
-550.369	-200.000	0.046	0.268
-549.354	-200.000	-0.009	-0.265
-548.339	126.752	-0.132	0.168
-547.325	-69.292	-0.381	-0.147
-546.310	-85.459	-0.447	0.140
-545.296	-200.000	0.044	-0.202
-544.281	664.105	0.038	-0.098
-543.266	5.368	0.124	-0.092
-542.252	176.951	0.096	0.140
-541.237	-200.000	0.042	0.256
-540.223	360.248	0.116	0.233
-539.208	-114.042	-0.050	-0.010
-538.193	-200.000	-0.037	-0.358
-537.179	146.133	0.152	-0.205
-536.164	182.916	0.144	-0.213
-535.150	800.000	0.064	0.263
-534.135	433.202	-0.113	-0.247
-533.121	457.819	0.065	0.144
-532.106	-110.047	-0.222	0.047
-531.091	-80.324	-0.222	-0.074
-530.077	152.395	0.075	-0.103
-529.062	99.837	0.050	0.058
-528.048	-88.563	-0.146	-0.044
-527.033	-200.000	0.004	0.156
-526.018	800.000	-0.078	-0.285
-525.004	-200.000	0.051	-0.387
-523.989	-158.374	0.438	-0.026
-522.975	519.511	0.204	0.480
-521.960	-143.736	-0.206	-0.020
-520.945	-59.901	-0.172	-0.074
-519.931	304.044	-0.082	-0.153
-518.916	-151.385	-0.237	-0.018
-517.902	91.796	0.146	0.165
-516.887	199.363	0.213	0.328
-515.872	0.881	0.145	-0.104
-514.858	-200.000	-0.035	-0.240
-513.843	-200.000	0.017	0.176
-512.829	-91.639	0.392	0.112
-511.814	190.790	0.262	-0.395
-510.799	-200.000	-0.002	0.101
-509.785	-105.797	0.495	-0.112
-508.770	31.642	-0.175	-0.151
-507.756	41.471	0.275	-0.250
-506.741	136.896	-0.066	-0.087
-505.726	36.137	0.141	0.125
-504.712	-106.055	0.279	0.063
-503.697	800.000	0.049	0.165
-502.683	-96.505	0.130	0.034
-501.668	-67.029	0.167	0.066
-500.653	42.993	0.241	0.220
-499.639	-200.000	-0.053	-0.247
-498.624	114.586	0.149	-0.182
-497.610	35.829	0.200	0.176
-496.595	-101.924	0.177	0.043
-495.581	-142.484	0.062	0.006
-494.566	1.430	0.291	0.210
-493.551	-134.500	-0.292	0.036
-492.537	73.790	-0.263	-0.276
-491.522	-200.000	0.022	-0.261
-490.508	800.000	0.061	-0.211
-489.493	-200.000	-0.008	-0.052
-488.478	800.000	-0.021	0.087
-487.464	115.690	-0.061	0.075
-486.449	-200.000	0.027	0.169
-485.435	167.782	0.227	0.323
-484.420	-85.237	0.411	-0.129
-483.405	-41.186	0.124	-0.064
-482.391	-105.602	-0.017	-0.004
-481.376	323.936	-0.068	0.131
-480.362	-72.367	-0.309	0.115
-479.347	6.201	-0.314	0.233
-478.332	800.000	-0.112	0.317
-477.318	306.039	0.152	0.284
-476.303	600.131	-0.039	-0.098
-475.289	800.000	0.126	-0.429
-474.274	86.913	-0.169	-0.187
-473.259	-135.298	-0.173	-0.021
-472.245	732.831	-0.141	-0.377
-471.230	-200.000	-0.041	-0.366
-470.216	-113.612	-0.130	0.025
-469.201	800.000	-0.028	0.090
-468.186	-122.600	0.180	0.029
-467.172	-44.561	-0.202	0.101
-466.157	90.988	0.103	0.115
-465.143	231.411	0.216	0.354
-464.128	-200.000	-0.006	0.164
-463.113	45.359	0.115	0.106
-462.099	537.979	0.031	0.073
-461.084	-93.992	0.355	0.098
-460.070	-191.812	-0.264	0.003
-459.055	671.478	0.041	-0.106
-458.040	84.750	0.146	-0.161
-457.026	96.823	-0.132	0.151
-456.011	340.646	0.075	0.147
-454.997	-52.351	0.082	0.038
-453.982	-152.832	-0.062	-0.004
-452.968	-88.393	0.343	-0.103
-451.953	-200.000	0.022	-0.214
-450.938	800.000	0.029	0.123
-449.924	-27.727	0.185	-0.107
-448.909	-100.436	-0.114	0.028
-447.895	-93.899	-0.173	0.048
-446.880	487.799	-0.082	0.188
-445.865	435.433	0.064	-0.140
-444.851	-2.584	-0.195	0.137
-443.836	621.142	0.009	0.022
-442.822	-187.385	0.398	-0.005
-441.807	800.000	-0.024	-0.087
-440.792	45.254	-0.205	0.190
-439.778	-200.000	0.013	0.133
-438.763	553.651	0.034	-0.081
-437.749	-0.267	0.137	-0.098
-436.734	-195.637	0.099	0.001
-435.719	31.273	-0.242	0.207
-434.705	-200.000	-0.060	0.363
-433.690	-109.189	0.290	-0.062
-432.676	-200.000	-0.090	-0.416
-431.661	800.000	-0.043	-0.173
-430.646	233.030	0.096	-0.158
-429.632	-77.437	0.198	0.069
-428.617	143.126	-0.059	0.078
-427.603	171.493	0.114	0.163
-426.588	-200.000	0.006	0.048
-425.573	-16.145	0.170	-0.108
-424.559	-28.709	-0.324	-0.187
-423.544	-200.000	-0.009	0.102
-422.530	-110.484	0.208	0.043
-421.515	141.344	-0.143	0.189
-420.500	203.042	-0.054	-0.084
-419.486	-62.148	-0.211	0.088
-418.471	8.365	0.095	0.071
-417.457	59.481	0.059	-0.059
-416.442	132.453	-0.209	0.270
-415.428	800.000	-0.025	0.109
-414.413	40.098	0.210	-0.188
-413.398	93.472	0.136	-0.154
-412.384	-50.391	0.403	0.190
-411.369	62.191	-0.294	0.294
-410.355	593.481	0.042	-0.104
-409.340	31.993	-0.091	-0.078
-408.325	107.336	0.042	-0.050
-407.311	-49.046	0.274	0.131
-406.296	-146.263	-0.327	-0.029
-405.282	-200.000	0.008	-0.080
-404.267	99.268	0.081	-0.093
-403.252	-41.423	-0.440	0.226
-402.238	-67.965	0.304	-0.118
-401.223	-123.874	-0.421	-0.066
-400.209	-89.923	-0.169	0.049
-399.194	29.748	-0.094	0.080
-398.179	373.807	-0.054	0.109
-397.165	207.078	0.065	0.101
-396.150	31.385	0.145	0.125
-395.136	395.335	0.057	-0.118
-394.121	800.000	-0.106	0.294
-393.106	-94.495	-0.162	-0.044
-392.092	-142.876	-0.389	-0.038
-391.077	-140.432	-0.219	0.023
-390.063	58.244	0.105	0.103
-389.048	800.000	0.098	0.325
-388.033	-78.894	-0.240	0.082
-387.019	-200.000	-0.025	0.396
-386.004	-31.786	-0.122	0.069
-384.990	263.029	0.155	0.269
-383.975	121.333	0.082	0.102
-382.960	20.403	-0.129	-0.104
-381.946	-87.532	0.272	0.082
-380.931	-36.574	-0.160	0.086
-379.917	162.439	0.095	0.134
-378.902	245.040	-0.256	-0.430
-377.888	-200.000	-0.043	0.418
-376.873	76.366	0.034	0.036
-375.858	-200.000	-0.013	-0.358
-374.844	-15.776	0.205	-0.130
-373.829	103.567	-0.155	-0.182
-372.815	456.001	-0.190	0.421
-371.800	-9.841	-0.218	0.144
-370.785	-72.532	-0.139	-0.051
-369.771	800.000	0.021	0.071
-368.756	172.529	0.151	-0.217
-367.742	-164.532	0.302	-0.014
-366.727	-33.268	0.140	-0.077
-365.712	-200.000	0.007	0.157
-364.698	-200.000	-0.004	-0.194
-363.683	-109.488	-0.234	-0.049
-362.669	31.673	0.199	0.170
-361.654	-0.540	-0.150	0.106
-360.639	42.917	-0.304	-0.276
-359.625	-59.580	-0.171	0.073
-358.610	-106.827	0.240	-0.053
-357.596	-200.000	-0.028	-0.314
-356.581	348.432	-0.171	-0.336
-355.566	475.802	-0.125	0.282
-354.552	800.000	0.069	0.197
-353.537	425.093	0.169	-0.362
-352.523	-80.201	0.262	0.088
-351.508	-182.819	-0.437	0.008
-350.493	-48.465	0.282	-0.135
-349.479	-18.682	-0.080	-0.049
-348.464	-200.000	-0.035	-0.230
-347.450	-200.000	0.025	0.378
-346.435	76.478	-0.023	-0.025
-345.420	-4.600	0.239	0.164
-344.406	-125.988	0.188	0.028
-343.391	-80.710	0.358	0.119
-342.377	72.511	0.031	-0.032
-341.362	-140.531	-0.349	-0.036
-340.348	655.977	0.083	-0.214
-339.333	46.525	0.223	0.206
-338.318	517.437	0.098	0.228
-337.304	-171.852	-0.160	-0.005
-336.289	-121.791	0.027	0.004
-335.275	-102.311	-0.165	-0.040
-334.260	-41.583	0.255	0.131
-333.245	-200.000	-0.031	0.254
-332.231	440.836	-0.026	0.057
-331.216	-200.000	-0.002	0.129
-330.202	800.000	-0.060	0.209
-329.187	-89.990	0.308	-0.089
-328.172	82.516	-0.164	-0.177
-327.158	106.844	0.065	-0.077
-326.143	-200.000	-0.036	-0.233
-325.129	-200.000	-0.005	-0.252
-324.114	-88.938	0.169	0.050
-323.099	-200.000	-0.012	0.057
-322.085	630.262	-0.097	-0.244
-321.070	300.703	0.246	-0.453
-320.056	77.263	0.183	0.193
-319.041	-46.061	0.353	-0.173
-318.026	152.506	0.212	0.289
-317.012	-46.884	-0.412	-0.201
-315.997	107.929	-0.057	-0.067
-314.983	-48.544	0.257	0.123
-313.968	226.192	0.135	0.217
-312.953	-19.052	0.085	0.053
-311.939	-200.000	0.026	-0.127
-310.924	-86.719	0.219	0.067
-309.910	800.000	0.109	-0.334
-308.895	800.000	0.052	0.173
-307.880	-1.785	0.133	0.093
-306.866	-200.000	-0.014	-0.302
-305.851	8.909	-0.170	0.128
-304.837	-98.355	0.365	0.093
-303.822	121.845	-0.228	-0.282
-302.807	-103.930	0.356	-0.083
-301.793	-200.000	0.034	-0.243
-300.778	-76.029	-0.257	0.091
-299.764	-37.399	0.142	-0.075
-298.749	82.193	0.212	-0.228
-297.735	-1.551	0.079	-0.056
-296.720	384.093	0.053	-0.108
-295.705	603.514	0.062	0.152
-294.691	14.250	-0.292	-0.226
-293.676	561.896	-0.106	-0.256
-292.662	-33.679	0.169	0.093
-291.647	-200.000	0.021	-0.337
-290.632	238.455	-0.139	-0.230
-289.618	-117.212	0.263	-0.048
-288.603	318.434	0.070	-0.131
-287.589	-181.039	-0.168	0.003
-286.574	278.879	-0.078	0.137
-285.559	-62.030	0.110	0.046
-284.545	-200.000	-0.006	0.204
-283.530	800.000	0.028	0.105
-282.516	483.155	-0.085	-0.192
-281.501	56.157	-0.347	0.335
-280.486	-100.034	0.269	0.067
-279.472	-96.041	-0.421	-0.111
-278.457	-200.000	0.034	0.374
-277.443	95.649	-0.086	0.098
-276.428	-29.762	0.146	0.083
-275.413	-200.000	-0.038	-0.191
-274.399	-83.052	-0.423	-0.135
-273.384	-42.323	-0.175	0.089
-272.370	-2.866	0.393	-0.273
-271.355	-200.000	0.001	-0.113
-270.340	-145.479	-0.150	-0.013
-269.326	-131.772	-0.156	0.020
-268.311	224.940	0.186	-0.299
-267.297	-97.020	0.053	0.014
-266.282	4.365	-0.201	0.147
-265.267	309.616	-0.130	0.242
-264.253	-200.000	0.013	-0.118
-263.238	-110.324	-0.036	0.007
-262.224	68.896	-0.176	-0.179
-261.209	-135.433	0.317	0.038
-260.195	-200.000	-0.020	0.146
-259.180	-43.932	-0.096	-0.048
-258.165	149.883	0.117	-0.158
-257.151	-200.000	-0.025	0.197
-256.136	800.000	-0.031	-0.097
-255.122	800.000	-0.087	-0.242
-254.107	215.843	0.168	-0.266
-253.092	13.145	0.319	-0.245
-252.078	-88.266	-0.396	-0.118
-251.063	-52.805	0.464	-0.212
-250.049	-52.219	-0.201	0.093
-249.034	-35.397	0.179	0.097
-248.019	-90.021	-0.363	-0.105
-247.005	310.897	-0.142	-0.264
-245.990	-200.000	-0.011	-0.146
-244.976	-200.000	0.011	-0.262
-243.961	100.730	-0.186	-0.214
-242.946	563.625	-0.149	-0.358
-241.932	-22.664	0.022	-0.013
-240.917	-71.052	0.243	0.091
-239.903	134.600	-0.228	0.294
-238.888	-179.357	0.146	-0.003
-237.873	-138.513	-0.286	0.031
-236.859	800.000	0.057	0.239
-235.844	-21.491	-0.303	-0.184
-234.830	235.833	0.061	0.100
-233.815	39.649	-0.239	-0.212
-232.800	38.602	-0.054	-0.048
-231.786	147.429	-0.162	0.216
-230.771	285.846	0.133	-0.238
-229.757	-200.000	-0.006	0.243
-228.742	17.866	0.198	0.156
-227.727	544.747	0.057	0.136
-226.713	800.000	0.074	0.264
-225.698	-92.612	0.102	0.028
-224.684	82.374	-0.134	-0.144
-223.669	110.073	0.158	-0.188
-222.655	36.672	-0.030	-0.026
-221.640	-155.741	-0.258	-0.016
-220.625	-86.017	0.125	0.038
-219.611	-45.461	0.216	-0.106
-218.596	124.273	-0.113	0.141
-217.582	-200.000	-0.018	0.319
-216.567	-176.206	-0.140	-0.004
-215.552	255.417	-0.068	-0.116
-214.538	87.567	-0.118	0.130
-213.523	73.982	0.133	0.138
-212.509	327.472	0.077	0.147
-211.494	-99.004	0.120	-0.030
-210.479	152.813	-0.200	-0.271
-209.465	167.798	0.131	0.184
-208.450	-40.011	0.374	0.193
-207.436	-5.485	-0.078	0.053
-206.421	-53.441	0.223	-0.101
-205.406	-200.000	-0.001	-0.364
-204.392	-200.000	-0.014	-0.262
-203.377	-125.873	-0.026	0.004
-202.363	66.581	0.133	-0.134
-201.348	-129.639	0.503	0.069
-200.333	-190.259	0.510	0.006
-199.319	125.957	0.077	0.096
-198.304	488.367	0.035	0.080
-197.290	48.364	-0.140	0.130
-196.275	-200.000	0.021	0.169
-195.260	170.375	-0.055	-0.079
-194.246	800.000	-0.033	0.137
-193.231	-159.064	0.040	-0.002
-192.217	354.707	0.113	0.223
-191.202	800.000	0.069	0.236
-190.187	-59.732	-0.281	-0.119
-189.173	-200.000	0.012	-0.340
-188.158	539.468	-0.112	-0.265
-187.144	-200.000	-0.007	0.049
-186.129	-200.000	0.008	-0.066
-185.114	533.952	0.134	0.316
-184.100	800.000	-0.151	0.469
-183.085	-107.802	0.285	-0.061
-182.071	382.574	-0.088	0.179
-181.056	-159.498	-0.247	0.014
-180.042	8.432	-0.191	0.142
-179.027	800.000	-0.127	0.445
-178.012	362.835	0.068	-0.135
-176.998	56.663	-0.241	-0.232
-175.983	433.824	-0.057	0.122
-174.969	9.097	0.185	0.139
-173.954	623.601	0.014	-0.034
-172.939	800.000	-0.040	-0.132
-171.925	-200.000	-0.015	0.175
-170.910	80.510	0.137	-0.146
-169.896	-200.000	0.016	-0.266
-168.881	-7.243	-0.448	0.301
-167.866	-35.540	-0.120	0.065
-166.852	20.830	0.161	-0.129
-165.837	203.971	-0.173	0.265
-164.823	-87.331	0.325	-0.097
-163.808	-77.867	-0.238	-0.081
-162.793	-200.000	0.013	0.074
-161.779	-145.187	0.089	0.008
-160.764	-89.845	0.053	-0.015
-159.750	6.830	-0.122	0.090
-158.735	41.457	-0.281	0.252
-157.720	176.482	-0.086	-0.123
-156.706	-40.955	0.254	-0.130
-155.691	-134.966	-0.337	-0.040
-154.677	-46.187	0.069	0.034
-153.662	-200.000	0.000	-0.065
-152.647	-200.000	0.046	0.352
-151.633	5.491	0.181	-0.132
-150.618	800.000	0.029	0.113
-149.604	-200.000	-0.002	0.290
-148.589	-42.801	0.232	-0.117
-147.574	-200.000	-0.010	-0.180
-146.560	-200.000	0.012	0.138
-145.545	20.903	0.133	-0.107
-144.531	800.000	0.132	0.394
-143.516	-14.864	0.281	0.179
-142.502	-33.218	0.109	0.060
-141.487	-141.922	0.274	0.027
-140.472	70.574	0.342	-0.350
-139.458	-94.074	-0.013	-0.003
-138.443	-56.094	0.157	0.069
-137.429	800.000	0.074	0.205
-136.414	-84.211	0.301	-0.094
-135.399	-46.663	0.068	0.033
-134.385	125.355	0.201	-0.251
-133.370	-200.000	-0.028	-0.176
-132.356	-200.000	-0.011	0.404
-131.341	189.568	0.165	0.244
-130.326	142.600	0.306	-0.401
-129.312	-123.300	-0.052	0.008
-128.297	-191.593	-0.243	-0.002
-127.283	14.634	0.021	-0.017
-126.268	54.643	0.186	0.177
-125.253	13.079	-0.056	-0.043
-124.239	663.842	-0.110	0.281
-123.224	-167.774	-0.386	0.015
-122.210	800.000	0.054	0.188
-121.195	-29.888	-0.177	0.100
-120.180	-159.945	0.220	-0.012
-119.166	-63.583	0.365	0.148
-118.151	107.781	-0.096	-0.113
-117.137	147.037	-0.148	0.197
-116.122	201.074	-0.111	-0.169
-115.107	-200.000	-0.023	0.123
-114.093	162.739	0.301	0.417
-113.078	-97.268	0.233	0.060
-112.064	96.218	0.184	0.208
-111.049	59.901	0.071	0.070
-110.034	-200.000	-0.013	0.237
-109.020	-200.000	-0.116	0.750
-108.005	419.692	-0.023	0.049
-106.991	146.077	-0.146	0.194
-105.976	-153.107	-0.208	-0.014
-104.962	-124.399	0.249	0.038
-103.947	-137.943	0.177	-0.019
-102.932	-103.203	-0.199	0.047
-101.918	275.066	0.088	0.153
-100.903	159.997	-0.158	-0.217
-99.889	286.369	-0.022	0.039
-98.874	49.763	0.179	0.166
-97.859	-200.000	-0.012	-0.057
-96.845	-169.295	0.080	0.003
-95.830	-200.000	-0.006	0.113
-94.816	800.000	-0.029	0.087
-93.801	347.975	0.042	-0.083
-92.786	-18.426	0.220	0.135
-91.772	292.972	-0.133	-0.239
-90.757	-160.169	-0.193	-0.010
-89.743	625.582	-0.097	-0.242
-88.728	305.030	0.141	-0.259
-87.713	-17.287	0.196	-0.122
-86.699	112.124	-0.039	0.047
-85.684	144.729	0.117	-0.154
-84.670	800.000	0.108	-0.304
-83.655	65.344	-0.156	0.156
-82.640	-116.498	0.239	0.043
-81.626	-200.000	0.026	-0.315
-80.611	215.485	-0.197	-0.309
-79.597	-3.279	-0.229	-0.157
-78.582	-84.781	0.160	-0.050
-77.567	-200.000	0.025	-0.161
-76.553	-200.000	-0.015	0.109
-75.538	-131.205	-0.323	-0.042
-74.524	32.641	-0.161	-0.138
-73.509	-132.527	-0.312	-0.040
-72.494	-67.833	0.219	-0.084
-71.480	314.325	0.030	-0.055
-70.465	126.658	0.153	0.192
-69.451	49.802	0.160	0.149
-68.436	-200.000	-0.047	0.351
-67.422	-113.413	-0.061	0.012
-66.407	-200.000	-0.036	-0.306
-65.392	800.000	-0.069	0.196
-64.378	64.226	0.094	0.093
-63.363	45.830	0.122	-0.111
-62.349	-120.361	0.394	0.066
-61.334	89.267	-0.826	-0.907
-60.319	51.492	0.416	0.390
-59.305	800.000	-0.220	-0.777
-58.290	75.758	0.960	0.999
-57.276	229.662	1.032	1.661
-56.261	-200.000	97.170	584.842
-55.246	661.331	1390.547	3530.428
-54.232	187.575	2608.073	3835.363
-53.217	118.116	2302.953	2797.161
-52.203	45.183	1916.681	1740.903
-51.188	38.603	1703.606	1497.226
-50.173	35.729	1658.919	1436.461
-49.159	53.020	1707.258	1609.671
-48.144	56.910	1725.182	1655.933
-47.130	38.297	1680.857	1474.689
-46.115	35.343	1665.808	1439.301
-45.100	35.248	1660.717	1434.137
-44.086	35.171	1657.982	1431.141
-43.071	35.078	1656.059	1428.730
-42.057	35.085	1653.111	1426.186
-41.042	35.091	1651.592	1424.862
-40.027	35.084	1649.477	1422.931
-39.013	35.077	1647.146	1420.809
-37.998	35.162	1645.560	1420.012
-36.984	35.182	1644.090	1418.837
-35.969	35.210	1643.275	1418.287
-34.954	35.242	1641.067	1416.562
-33.940	35.214	1639.065	1414.570
-32.925	35.290	1637.706	1413.899
-31.911	35.266	1635.698	1411.934
-30.896	35.140	1634.428	1409.858
-29.881	35.288	1632.573	1409.286
-28.867	35.277	1630.939	1407.742
-27.852	35.241	1629.754	1406.394
-26.838	35.270	1627.741	1404.815
-25.823	35.263	1626.451	1403.594
-24.809	35.310	1624.926	1402.569
-23.794	35.172	1623.859	1400.585
-22.779	35.226	1622.345	1399.614
-21.765	35.231	1620.390	1397.910
-20.750	35.203	1618.367	1395.908
-19.736	35.327	1617.175	1395.727
-18.721	35.435	1615.180	1394.733
-17.706	35.309	1614.596	1393.257
-16.692	35.373	1612.200	1391.598
-15.677	35.251	1611.632	1390.167
-14.663	35.245	1610.436	1389.034
-13.648	35.200	1608.904	1387.334
-12.633	35.230	1607.229	1386.050
-11.619	35.296	1605.733	1385.183
-10.604	35.271	1604.301	1383.713
-9.590	35.310	1602.815	1382.657
-8.575	35.384	1601.163	1381.715
-7.560	35.304	1599.863	1379.957
-6.546	35.319	1598.755	1379.054
-5.531	35.242	1598.157	1377.931
-4.517	35.297	1597.020	1377.291
-3.502	35.322	1595.704	1376.281
-2.487	35.358	1593.927	1374.956
-1.473	34.846	1582.292	1361.220
-0.458	31.180	1561.345	1317.327
0.556	28.835	1558.672	1273.162
1.571	25.578	1580.276	1267.776
2.586	24.266	1592.778	1268.365
3.600	20.982	1537.601	1201.721
4.615	12.720	1429.077	1063.660
5.629	6.042	1366.400	975.561
6.644	4.857	1358.081	962.219
7.659	4.747	1356.909	960.621
8.673	4.835	1355.976	960.422
9.688	5.051	1354.063	960.310
10.702	4.971	1351.524	957.931
11.717	7.615	1356.590	977.727
12.731	15.350	1370.924	1035.915
13.746	21.525	1380.455	1081.306
14.761	22.322	1381.286	1086.786
15.775	21.630	1378.607	1080.314
16.790	20.617	1375.995	1071.929
17.804	19.903	1373.738	1065.683
18.819	19.445	1372.577	1061.867
19.834	19.320	1371.437	1060.128
20.848	19.172	1370.501	1058.399
21.863	18.893	1369.345	1055.699
22.877	18.902	1367.855	1054.510
23.892	18.804	1367.061	1053.206
24.907	18.755	1366.330	1052.247
25.921	18.801	1365.410	1051.728
26.936	18.783	1364.247	1050.628
27.950	18.817	1363.338	1050.044
28.965	18.954	1362.688	1050.286
29.980	18.988	1361.502	1049.485
30.994	19.108	1360.220	1049.137
32.009	19.244	1359.158	1049.054
33.023	19.242	1358.119	1048.148
34.038	19.113	1356.800	1046.255
35.053	19.114	1354.731	1044.569
36.067	18.981	1354.235	1043.288
37.082	18.963	1353.270	1042.343
38.096	19.049	1352.609	1042.264
39.111	19.134	1351.416	1041.769
40.126	19.032	1351.069	1040.789
41.140	18.760	1349.832	1038.103
42.155	18.636	1349.190	1036.769
43.169	18.630	1348.727	1036.284
44.184	18.590	1348.837	1036.033
45.199	18.600	1348.125	1035.454
46.213	18.770	1347.608	1035.992
47.228	18.843	1347.240	1036.060
48.242	18.935	1346.158	1035.686
49.257	18.876	1344.483	1033.956
50.271	18.842	1343.196	1032.669
51.286	18.913	1341.878	1031.992
52.301	18.992	1340.262	1031.126
53.315	18.854	1339.250	1029.435
54.330	18.696	1338.298	1027.666
55.344	18.694	1336.390	1026.096
56.359	18.648	1336.036	1025.459
57.374	18.553	1335.389	1024.305
58.388	18.504	1333.986	1022.844
59.403	18.442	1333.857	1022.283
60.417	18.479	1333.127	1021.853
61.432	18.464	1332.014	1020.821
62.447	18.410	1331.060	1019.679
63.461	18.443	1329.368	1018.491
64.476	18.351	1328.560	1017.232
65.490	18.320	1327.476	1016.128
66.505	18.370	1325.896	1015.127
67.520	18.304	1324.806	1013.812
68.534	18.509	1323.760	1014.133
69.549	18.446	1322.793	1012.934
70.563	18.347	1321.502	1011.270
71.578	18.249	1320.752	1010.025
72.593	18.172	1319.792	1008.750
73.607	18.201	1319.082	1008.291
74.622	18.351	1317.579	1007.937
75.636	18.205	1317.811	1007.160
76.651	18.337	1317.008	1007.239
77.666	18.250	1316.568	1006.299
78.680	18.380	1315.961	1006.508
79.695	18.387	1315.331	1005.981
80.709	18.514	1314.719	1006.169
81.724	18.503	1314.291	1005.688
82.739	18.714	1312.926	1005.789
83.753	18.756	1312.293	1005.460
84.768	18.870	1311.368	1005.332
85.782	18.931	1310.666	1005.059
86.797	19.035	1308.964	1004.276
87.812	18.963	1308.053	1003.063
88.826	18.886	1306.984	1001.708
89.841	19.013	1305.365	1001.116
90.855	18.971	1304.756	1000.319
91.870	19.007	1304.217	1000.024
92.884	19.092	1303.145	999.611
93.899	19.147	1302.266	999.168
94.914	19.194	1301.649	998.879
95.928	19.061	1300.882	997.431
96.943	19.045	1299.746	996.380
97.957	19.011	1299.353	995.789
98.972	18.985	1298.089	994.586
99.987	19.037	1297.311	994.199
101.001	19.040	1295.994	993.122
102.016	19.032	1294.964	992.197
103.030	19.001	1294.557	991.619
104.045	19.080	1293.197	990.943
105.060	18.931	1292.031	989.106
106.074	18.691	1290.301	986.313
107.089	18.390	1289.063	983.554
108.103	18.377	1287.723	982.368
109.118	18.453	1286.264	981.606
110.133	18.497	1285.136	980.908
111.147	18.473	1283.727	979.610
112.162	18.522	1282.483	978.853
113.176	18.591	1281.383	978.319
114.191	18.555	1280.923	977.676
115.206	18.594	1279.248	976.535
116.220	18.695	1278.045	976.102
117.235	18.581	1276.974	974.554
118.249	18.468	1276.164	973.205
119.264	18.375	1275.119	971.797
120.279	18.484	1273.887	971.390
121.293	18.429	1272.753	970.129
122.308	18.321	1271.941	968.810
123.322	18.327	1271.151	968.158
124.337	18.287	1269.685	966.726
125.352	18.235	1268.923	965.770
126.366	18.241	1267.738	964.816
127.381	18.270	1266.699	964.104
128.395	18.299	1265.707	963.430
129.410	18.340	1265.044	963.068
130.424	18.469	1263.598	962.607
131.439	18.508	1262.861	962.180
132.454	18.504	1262.563	961.845
133.468	18.571	1261.756	961.519
134.483	18.512	1261.036	960.555
135.497	18.582	1259.820	959.938
136.512	18.528	1258.832	958.793
137.527	18.656	1256.915	957.968
138.541	18.624	1255.987	956.996
139.556	18.671	1254.613	956.128
140.570	18.809	1253.545	955.992
141.585	18.880	1252.178	955.263
142.600	18.945	1251.504	955.023
143.614	19.071	1250.484	954.862
144.629	19.115	1249.615	954.355
145.643	19.054	1248.633	953.185
146.658	18.994	1246.987	951.512
147.673	18.800	1245.615	949.308
148.687	18.688	1244.875	948.045
149.702	18.620	1242.811	946.009
150.716	18.596	1241.755	944.992
151.731	18.563	1240.889	944.070
152.746	18.566	1239.787	943.164
153.760	18.720	1238.367	942.842
154.775	18.747	1237.184	942.010
155.789	18.865	1236.098	941.745
156.804	18.862	1235.505	941.195
157.819	18.869	1235.086	940.831
158.833	18.993	1233.716	940.383
159.848	19.033	1233.168	940.096
160.862	19.007	1231.756	938.796
161.877	18.855	1230.198	936.700
162.892	18.531	1229.777	934.528
163.906	18.686	1228.043	933.973
164.921	18.653	1227.603	933.373
165.935	18.768	1226.719	933.246
166.950	18.817	1225.972	932.861
167.964	18.852	1224.991	932.221
168.979	18.707	1224.689	931.124
169.994	18.823	1223.460	930.732
171.008	18.816	1222.930	930.210
172.023	18.911	1222.263	930.135
173.037	18.984	1221.748	930.058
174.052	18.897	1220.508	928.560
175.067	18.935	1219.082	927.597
176.081	18.673	1218.330	925.531
177.096	18.650	1217.187	924.454
178.110	18.739	1216.316	924.190
179.125	18.809	1214.991	923.478
180.140	18.893	1213.604	922.797
181.154	18.913	1212.687	922.125
182.169	18.981	1211.856	921.775
183.183	19.064	1210.787	921.326
184.198	19.222	1209.452	921.070
185.213	19.139	1208.178	919.574
186.227	19.168	1207.328	919.003
187.242	19.276	1206.693	919.012
188.256	19.293	1205.944	918.456
189.271	19.296	1205.019	917.685
190.286	19.225	1203.455	916.036
191.300	18.884	1202.071	913.088
192.315	18.575	1201.806	911.167
193.329	18.743	1200.925	911.309
194.344	18.833	1200.485	911.369
195.359	18.743	1200.405	910.752
196.373	19.001	1199.695	911.499
197.388	19.121	1199.679	912.043
198.402	19.243	1199.375	912.375
199.417	19.463	1198.322	912.659
200.432	19.471	1197.911	912.310
201.446	19.564	1197.350	912.289
202.461	19.687	1196.250	912.024
203.475	19.608	1195.316	910.813
204.490	19.266	1194.470	908.283
205.504	19.407	1192.140	907.171
206.519	19.286	1191.185	905.729
207.534	19.218	1190.742	904.957
208.548	19.138	1189.665	903.638
209.563	19.378	1188.579	903.990
210.577	19.211	1187.715	902.379
211.592	19.384	1186.990	902.654
212.607	19.568	1186.208	902.945
213.621	19.473	1185.407	901.757
214.636	19.476	1184.933	901.333
215.650	19.461	1183.661	900.209
216.665	19.626	1182.592	900.175
217.680	19.735	1182.124	900.308
218.694	19.712	1181.430	899.576
219.709	19.622	1180.497	898.317
220.723	19.661	1179.629	897.781
221.738	19.551	1179.386	896.948
222.753	19.577	1178.313	896.185
223.767	19.729	1177.244	896.082
224.782	19.790	1176.824	895.997
225.796	19.879	1176.342	896.016
226.811	19.822	1175.453	894.965
227.826	19.707	1174.732	893.738
228.840	19.733	1173.986	893.227
229.855	19.667	1172.913	891.991
230.869	19.647	1172.546	891.531
231.884	19.648	1171.242	890.462
232.899	19.589	1170.543	889.550
233.913	19.481	1170.062	888.548
234.928	19.376	1169.360	887.400
235.942	19.456	1168.724	887.248
236.957	19.365	1168.091	886.219
237.972	19.368	1167.207	885.486
238.986	19.291	1166.640	884.582
240.001	19.377	1166.160	884.585
241.015	19.438	1164.777	883.769
242.030	19.642	1163.895	884.066
243.045	19.687	1163.304	883.768
244.059	19.605	1162.942	882.995
245.074	19.678	1162.116	882.664
246.088	19.759	1161.145	882.260
247.103	19.783	1160.688	881.960
248.117	19.947	1160.032	882.219
249.132	20.035	1159.821	882.427
250.147	20.182	1159.358	882.746
251.161	20.333	1158.503	882.784
252.176	20.338	1157.795	882.193
253.190	20.475	1157.148	882.317
254.205	20.410	1157.021	881.814
255.220	20.574	1156.029	881.811
256.234	20.478	1155.266	880.662
257.249	20.466	1154.604	880.021
258.263	20.503	1153.786	879.506
259.278	20.455	1153.438	878.920
260.293	20.426	1152.937	878.311
261.307	20.564	1152.331	878.471
262.322	20.607	1151.413	877.913
263.336	20.669	1150.942	877.788
264.351	20.546	1150.531	876.775
265.366	20.537	1149.787	876.085
266.380	20.636	1148.720	875.691
267.395	20.446	1148.318	874.351
268.409	20.510	1147.579	874.033
269.424	20.445	1146.626	872.907
270.439	20.472	1145.980	872.474
271.453	20.433	1145.050	871.488
272.468	20.345	1143.977	870.156
273.482	20.245	1143.393	869.133
274.497	20.329	1143.078	869.236
275.512	20.354	1142.178	868.602
276.526	20.346	1141.454	867.935
277.541	20.428	1140.430	867.489
278.555	20.422	1140.132	867.154
279.570	20.569	1139.780	867.543
280.585	20.644	1139.067	867.300
281.599	20.761	1137.601	866.686
282.614	20.569	1136.513	864.827
283.628	20.565	1135.537	863.988
284.643	20.486	1134.736	862.910
285.657	20.535	1134.078	862.578
286.672	20.487	1132.958	861.410
287.687	20.500	1131.985	860.659
288.701	20.544	1131.136	860.156
289.716	20.560	1130.335	859.550
290.730	20.547	1130.032	859.181
291.745	20.546	1129.526	858.713
292.760	20.709	1128.596	858.734
293.774	20.703	1127.987	858.166
294.789	20.844	1127.788	858.634
295.803	20.869	1127.013	858.089
296.818	20.716	1125.840	856.366
297.833	20.710	1125.411	855.936
298.847	20.580	1124.887	854.822
299.862	20.606	1123.952	854.164
300.876	20.682	1123.456	854.083
301.891	20.816	1122.831	854.190
302.906	20.897	1122.150	853.994
303.920	20.917	1121.711	853.685
304.935	21.104	1120.630	853.701
305.949	21.195	1120.512	853.980
306.964	21.076	1119.521	852.569
307.979	20.954	1118.955	851.465
308.993	20.906	1118.424	850.752
310.008	21.064	1117.494	850.737
311.022	21.224	1116.052	850.348
312.037	21.044	1115.752	849.168
313.052	20.960	1114.874	848.015
314.066	20.864	1113.854	846.695
315.081	20.826	1112.675	845.539
316.095	20.728	1111.961	844.447
317.110	20.811	1110.985	844.036
318.125	20.728	1110.695	843.336
319.139	20.647	1109.596	842.034
320.154	20.806	1108.867	842.176
321.168	20.790	1108.612	841.831
322.183	20.851	1107.950	841.550
323.197	20.743	1107.807	840.846
324.212	20.965	1106.665	840.976
325.227	20.851	1106.539	840.256
326.241	20.849	1105.803	839.609
327.256	20.864	1105.190	839.144
328.270	20.772	1104.208	837.883
329.285	20.746	1103.235	836.946
330.300	20.918	1102.053	836.798
331.314	20.758	1101.467	835.510
332.329	20.896	1100.437	835.316
333.343	20.924	1099.555	834.708
334.358	21.037	1098.862	834.652
335.373	20.999	1098.175	833.871
336.387	21.076	1097.592	833.724
337.402	21.050	1096.835	832.953
338.416	21.260	1096.308	833.481
339.431	21.387	1095.308	833.251
340.446	21.314	1095.180	832.731
341.460	21.501	1094.531	833.056
342.475	21.555	1093.729	832.628
343.489	21.583	1092.837	832.009
344.504	21.576	1091.802	831.112
345.519	21.647	1091.171	830.898
346.533	21.677	1090.094	830.144
347.548	21.772	1089.641	830.179
348.562	21.823	1088.502	829.479
349.577	21.530	1087.926	827.581
350.592	21.407	1086.861	826.112
351.606	21.252	1086.359	824.929
352.621	21.290	1084.997	824.000
353.635	21.140	1084.868	823.120
354.650	21.152	1084.359	822.720
355.665	21.267	1083.723	822.706
356.679	21.325	1082.728	822.148
357.694	21.375	1082.133	821.863
358.708	21.445	1081.701	821.788
359.723	21.520	1081.312	821.772
360.738	21.450	1080.634	820.857
361.752	21.618	1079.693	820.856
362.767	21.524	1079.232	819.991
363.781	21.502	1078.960	819.612
364.796	21.606	1078.569	819.729
365.810	21.815	1077.774	820.030
366.825	21.887	1077.510	820.094
367.840	21.888	1076.910	819.565
368.854	22.158	1076.293	820.286
369.869	22.013	1075.470	818.909
370.883	22.028	1074.315	818.029
371.898	21.745	1073.946	816.357
372.913	21.792	1073.246	815.973
373.927	21.859	1073.121	816.115
374.942	21.971	1072.503	816.095
375.956	21.940	1071.779	815.325
376.971	22.089	1070.919	815.294
377.986	22.015	1070.733	814.733
379.000	22.154	1069.983	814.737
380.015	22.184	1069.521	814.450
381.029	22.233	1069.007	814.213
382.044	22.194	1068.436	813.528
383.059	22.237	1067.579	813.002
384.073	22.183	1066.590	811.928
385.088	22.176	1065.743	811.177
386.102	22.039	1064.992	809.905
387.117	21.963	1063.665	808.472
388.132	21.869	1063.135	807.563
389.146	21.818	1061.962	806.370
390.161	21.928	1061.374	806.356
391.175	21.805	1060.845	805.319
392.190	22.043	1059.848	805.584
393.205	22.109	1059.413	805.483
394.219	22.053	1058.671	804.591
395.234	22.138	1057.317	803.879
396.248	22.064	1056.480	802.831
397.263	21.912	1055.442	801.281
398.278	22.000	1054.600	800.972
399.292	21.845	1054.019	799.753
400.307	21.873	1053.064	799.082
401.321	21.867	1052.395	798.476
402.336	21.824	1051.871	797.814
403.350	21.742	1051.572	797.144
404.365	21.873	1051.001	797.237
405.380	22.057	1050.014	797.253
406.394	22.109	1049.476	797.011
407.409	22.160	1048.892	796.727
408.423	22.262	1048.034	796.466
409.438	22.384	1047.099	796.237
410.453	22.405	1046.850	796.070
411.467	22.446	1046.020	795.555
412.482	22.478	1045.404	795.160
413.496	22.424	1045.244	794.727
414.511	22.540	1044.698	794.764
415.526	22.643	1044.397	794.926
416.540	22.900	1043.577	795.391
417.555	22.663	1043.169	793.941
418.569	22.579	1042.686	793.129
419.584	22.568	1042.183	792.623
420.599	22.701	1041.648	792.747
421.613	154.710	1400.163	1787.705
422.628	141.667	1452.376	1787.811
