DTS Sentinel unit serial number:	SN413079Multiplexer serial number:	ORYXHardware model number:	OX4-SRSoftware version number:	ORYX F/W v4.00 Oryx Data Collector v3.7.2.0data status	okinstallation	princeton_trtdifferential loss correction	single-endedforward channel	channel 2reverse channel	N/Adate	2019/09/14time	01:27:35forward acquisition time	60.00reverse acquisition time	0.00gamma	496.2192k internal	0.2338k external	0.2338temperature offset calibration	1.0123default loss term (dB/km)	0.3790temperature slope calibration	1.0000multiplexer offset coefficient	1.0000multiplexer slope coefficient	1.0000fibre end	0.00T internal ref (°C)	26.44T ext. ref 1 (°C)	3.18T ext. ref 2 (°C)	21.44length (m)	temperature (°C)	Stokes	anti-Stokes-747.200	-200.000	-0.046	-0.319
-746.185	124.408	-0.025	0.031
-745.171	693.328	0.095	0.250
-744.156	-200.000	0.008	-0.229
-743.142	89.547	0.159	0.178
-742.127	-200.000	-0.008	-0.115
-741.112	800.000	-0.174	-0.541
-740.098	800.000	-0.055	0.242
-739.083	800.000	-0.118	0.366
-738.069	-161.242	-0.252	0.013
-737.054	-161.531	-0.123	-0.006
-736.039	-200.000	-0.017	0.149
-735.025	-44.442	0.192	-0.096
-734.010	73.979	-0.213	-0.224
-732.996	800.000	-0.086	0.349
-731.981	296.627	0.057	0.105
-730.966	-86.582	0.199	-0.061
-729.952	60.617	0.066	-0.066
-728.937	-136.691	-0.196	0.023
-727.923	-68.939	-0.386	-0.149
-726.908	-200.000	-0.010	0.053
-725.894	-10.857	0.113	-0.075
-724.879	-79.064	0.318	-0.108
-723.864	800.000	-0.041	-0.120
-722.850	-168.424	0.219	-0.008
-721.835	-15.308	-0.316	-0.203
-720.821	800.000	-0.134	-0.470
-719.806	165.194	-0.074	-0.104
-718.791	-70.863	-0.135	0.051
-717.777	-36.580	0.331	0.178
-716.762	146.535	0.149	-0.201
-715.748	264.667	0.184	-0.321
-714.733	259.998	0.148	0.256
-713.718	224.988	-0.081	-0.132
-712.704	172.866	0.158	-0.228
-711.689	6.570	0.156	0.116
-710.675	-19.959	0.231	0.143
-709.660	-63.502	-0.123	-0.051
-708.645	235.212	0.163	0.270
-707.631	10.704	-0.196	-0.150
-706.616	77.685	-0.112	-0.119
-705.602	165.706	0.074	0.106
-704.587	800.000	-0.057	0.243
-703.572	-67.562	0.258	0.101
-702.558	48.152	-0.102	-0.096
-701.543	96.723	0.129	-0.148
-700.529	-200.000	0.019	-0.186
-699.514	158.902	0.038	-0.052
-698.499	-0.527	-0.179	0.127
-697.485	-167.054	-0.128	-0.005
-696.470	-167.665	-0.300	0.012
-695.456	-200.000	-0.001	0.098
-694.441	6.631	0.245	0.183
-693.426	-41.131	0.075	0.039
-692.412	178.610	0.156	-0.228
-691.397	-80.766	-0.248	-0.083
-690.383	167.995	0.108	0.154
-689.368	-122.544	0.150	-0.024
-688.354	186.130	0.101	0.151
-687.339	-18.520	0.151	-0.094
-686.324	-75.826	-0.181	0.064
-685.310	-200.000	0.003	-0.103
-684.295	-200.000	0.066	0.387
-683.281	-28.280	-0.112	-0.065
-682.266	-136.461	-0.050	0.006
-681.251	2.605	0.174	-0.126
-680.237	366.288	-0.050	0.101
-679.222	683.722	0.106	0.278
-678.208	440.348	0.080	-0.176
-677.193	800.000	-0.025	0.103
-676.178	-57.032	0.133	0.059
-675.164	800.000	0.091	-0.262
-674.149	389.595	-0.107	0.221
-673.135	9.035	-0.132	0.100
-672.120	362.393	0.116	-0.232
-671.105	-155.082	0.182	-0.012
-670.091	134.888	-0.127	0.166
-669.076	-200.000	0.011	0.394
-668.062	-200.000	-0.045	-0.257
-667.047	-200.000	0.006	0.537
-666.032	-200.000	-0.054	0.291
-665.018	800.000	0.093	-0.384
-664.003	-149.033	-0.110	-0.009
-662.989	173.650	-0.133	-0.192
-661.974	610.206	0.054	0.135
-660.959	-34.984	0.169	0.092
-659.945	-123.339	-0.100	0.016
-658.930	132.204	-0.168	0.217
-657.916	-150.462	-0.229	0.018
-656.901	477.406	-0.122	-0.277
-655.886	800.000	0.018	-0.052
-654.872	-77.292	-0.365	-0.127
-653.857	-200.000	-0.044	0.257
-652.843	-200.000	-0.026	0.229
-651.828	4.830	-0.193	-0.142
-650.814	-73.441	-0.418	-0.152
-649.799	96.906	0.085	0.097
-648.784	-55.166	0.342	0.154
-647.770	-200.000	-0.030	0.237
-646.755	214.350	0.113	0.178
-645.741	-83.082	0.250	-0.080
-644.726	-69.551	0.086	-0.033
-643.711	232.075	0.052	-0.086
-642.697	31.273	0.254	0.218
-641.682	60.227	-0.134	-0.133
-640.668	271.355	-0.039	-0.068
-639.653	-44.034	0.263	0.132
-638.638	529.884	-0.092	0.216
-637.624	243.133	0.048	0.080
-636.609	41.768	0.334	-0.302
-635.595	-185.535	0.046	-0.001
-634.580	191.521	0.117	0.177
-633.565	-200.000	-0.014	-0.333
-632.551	-200.000	0.001	0.042
-631.536	-104.044	-0.309	0.072
-630.522	-66.238	0.230	-0.092
-629.507	-40.291	-0.122	-0.063
-628.492	-64.726	0.126	-0.051
-627.478	800.000	-0.077	0.279
-626.463	-146.208	0.359	-0.031
-625.449	37.753	-0.075	-0.067
-624.434	-81.858	0.056	0.018
-623.419	54.429	-0.135	-0.130
-622.405	-37.567	0.174	-0.093
-621.390	-34.969	-0.129	-0.071
-620.376	-102.083	-0.152	-0.037
-619.361	327.449	-0.150	0.288
-618.346	275.769	0.202	-0.357
-617.332	83.741	-0.208	0.226
-616.317	-16.313	0.181	0.115
-615.303	129.506	0.230	0.293
-614.288	-200.000	-0.006	-0.071
-613.273	-200.000	-0.048	-0.296
-612.259	-5.330	0.143	-0.098
-611.244	33.543	0.150	0.130
-610.230	-200.000	0.019	-0.181
-609.215	-26.020	0.008	0.005
-608.201	5.167	-0.033	0.024
-607.186	-166.495	0.040	0.002
-606.171	-98.187	0.189	-0.048
-605.157	122.339	0.050	0.062
-604.142	268.360	0.149	0.261
-603.128	-200.000	0.028	0.159
-602.113	-44.285	0.081	0.040
-601.098	-200.000	0.060	-0.329
-600.084	73.873	0.211	-0.221
-599.069	-86.829	0.189	-0.058
-598.055	-71.483	0.289	0.108
-597.040	56.078	-0.164	0.158
-596.025	723.076	-0.136	-0.362
-595.011	800.000	-0.046	-0.156
-593.996	-200.000	0.030	0.509
-592.982	134.018	-0.107	0.139
-591.967	91.209	0.091	-0.101
-590.952	91.467	0.052	0.058
-589.938	800.000	0.016	-0.068
-588.923	23.156	0.204	-0.167
-587.909	-200.000	-0.001	-0.254
-586.894	-200.000	-0.033	0.235
-585.879	5.938	-0.104	-0.077
-584.865	-200.000	0.016	0.117
-583.850	-100.391	0.487	-0.120
-582.836	-153.295	0.016	0.001
-581.821	-8.758	-0.251	0.168
-580.806	-200.000	-0.056	0.270
-579.792	-19.235	-0.077	-0.047
-578.777	-1.046	0.061	0.043
-577.763	381.133	-0.139	-0.285
-576.748	-103.712	-0.428	-0.100
-575.733	-122.014	-0.218	0.036
-574.719	12.040	0.292	0.224
-573.704	463.337	-0.207	0.461
-572.690	-17.081	-0.075	0.047
-571.675	800.000	0.057	0.180
-570.661	800.000	-0.041	0.146
-569.646	-17.426	-0.125	0.079
-568.631	148.232	-0.145	0.195
-567.617	-200.000	0.407	0.000
-566.602	425.881	0.157	-0.337
-565.588	13.452	0.263	-0.204
-564.573	-76.318	0.213	0.075
-563.558	-200.000	-0.000	-0.096
-562.544	-200.000	-0.473	-0.001
-561.529	-200.000	0.006	-0.319
-560.515	-150.000	-0.173	-0.013
-559.500	-69.074	-0.415	-0.159
-558.485	-200.000	0.004	0.138
-557.471	22.942	0.146	-0.119
-556.456	-101.769	-0.048	-0.012
-555.442	-200.000	-0.003	0.115
-554.427	-119.068	-0.161	0.028
-553.412	-8.699	0.250	0.167
-552.398	-29.120	-0.106	0.060
-551.383	-200.000	-0.015	-0.208
-550.369	-200.000	-0.024	-0.169
-549.354	91.512	-0.063	0.071
-548.339	-6.685	-0.187	-0.126
-547.325	-200.000	-0.002	0.010
-546.310	709.886	0.088	-0.231
-545.296	800.000	-0.099	-0.361
-544.281	9.080	0.070	-0.052
-543.266	-200.000	0.001	-0.048
-542.252	-20.156	-0.034	0.021
-541.237	800.000	-0.042	0.157
-540.223	151.915	0.109	-0.147
-539.208	-82.227	-0.273	0.089
-538.193	800.000	-0.072	0.236
-537.179	-138.706	-0.454	-0.049
-536.164	63.342	0.140	0.140
-535.150	356.160	-0.063	-0.125
-534.135	377.048	0.150	-0.306
-533.121	-93.577	0.194	-0.053
-532.106	-136.572	-0.003	0.000
-531.091	71.255	0.117	0.121
-530.077	752.726	-0.084	0.226
-529.062	83.844	0.247	-0.268
-528.048	-200.000	0.009	-0.149
-527.033	120.729	-0.079	0.098
-526.018	14.200	-0.195	0.151
-525.004	-132.918	-0.263	-0.033
-523.989	-39.163	-0.109	0.057
-522.975	-47.617	-0.292	-0.141
-521.960	-200.000	0.109	0.507
-520.945	737.990	-0.049	0.130
-519.931	-147.935	-0.273	-0.023
-518.916	168.732	0.058	-0.082
-517.902	-200.000	-0.002	-0.121
-516.887	81.388	0.067	-0.073
-515.872	-12.815	-0.517	-0.335
-514.858	37.853	-0.137	-0.121
-513.843	-24.301	0.055	0.033
-512.829	-93.129	0.289	-0.080
-511.814	334.899	-0.071	-0.138
-510.799	275.089	0.044	0.078
-509.785	-117.641	-0.222	0.040
-508.770	2.262	-0.162	-0.116
-507.756	388.874	-0.095	-0.195
-506.741	-126.286	-0.082	0.012
-505.726	-200.000	0.277	0.001
-504.712	148.544	-0.216	0.291
-503.697	-114.523	0.127	-0.024
-502.683	665.654	-0.093	0.239
-501.668	-200.000	0.002	-0.142
-500.653	-93.330	0.241	0.066
-499.639	23.599	-0.086	-0.070
-498.624	-58.504	-0.261	-0.113
-497.610	-29.788	-0.134	0.076
-496.595	-53.594	0.376	-0.171
-495.581	-125.595	0.279	-0.042
-494.566	63.008	0.013	0.013
-493.551	-17.429	-0.143	-0.089
-492.537	346.913	0.114	-0.223
-491.522	-200.000	-0.056	0.354
-490.508	189.228	0.129	-0.192
-489.493	-55.259	0.178	-0.080
-488.478	-16.583	-0.302	0.190
-487.464	-200.000	-0.051	-0.306
-486.449	800.000	0.017	-0.060
-485.435	46.441	-0.142	-0.131
-484.420	54.004	-0.088	-0.084
-483.405	5.448	-0.133	-0.098
-482.391	800.000	-0.085	0.367
-481.376	15.226	0.068	-0.053
-480.362	-149.153	-0.213	-0.017
-479.347	-9.352	0.240	-0.159
-478.332	104.610	-0.174	0.204
-477.318	228.176	-0.172	-0.278
-476.303	800.000	-0.062	0.172
-475.289	-29.781	0.240	0.136
-474.274	-200.000	0.035	-0.250
-473.259	100.604	-0.114	0.132
-472.245	381.127	-0.057	-0.116
-471.230	27.074	-0.325	-0.271
-470.216	-127.571	0.159	-0.023
-469.201	-200.000	-0.008	0.066
-468.186	-143.403	-0.424	0.040
-467.172	800.000	0.054	0.192
-466.157	64.137	-0.031	0.031
-465.143	-76.914	-0.331	-0.115
-464.128	-200.000	-0.008	0.355
-463.113	-200.000	0.020	-0.142
-462.099	-72.390	-0.130	0.048
-461.084	-67.393	0.019	-0.008
-460.070	139.718	-0.231	0.303
-459.055	-200.000	0.045	-0.196
-458.040	-200.000	-0.034	-0.364
-457.026	-78.967	0.205	-0.069
-456.011	10.816	-0.107	-0.081
-454.997	-140.046	-0.124	-0.013
-453.982	-48.533	0.286	-0.137
-452.968	176.479	0.029	0.041
-451.953	-153.705	0.075	0.005
-450.938	-200.000	0.007	-0.228
-449.924	39.606	-0.183	-0.163
-448.909	109.832	-0.237	-0.282
-447.895	-65.141	-0.285	0.114
-446.880	75.893	0.280	0.294
-445.865	-61.739	-0.597	0.248
-444.851	149.385	-0.143	-0.193
-443.836	-74.943	0.223	-0.079
-442.822	349.662	0.097	0.190
-441.807	-86.626	-0.198	-0.060
-440.792	800.000	0.134	-0.436
-439.778	-86.222	-0.100	-0.030
-438.763	-131.648	-0.288	-0.037
-437.749	800.000	0.027	0.110
-436.734	89.159	0.151	-0.167
-435.719	1.537	0.218	0.156
-434.705	-200.000	-0.069	0.307
-433.690	761.819	0.073	0.197
-432.676	-200.000	0.017	-0.125
-431.661	-200.000	-0.025	-0.193
-430.646	270.978	-0.013	0.023
-429.632	160.435	0.089	-0.123
-428.617	413.088	-0.113	-0.237
-427.603	-200.000	0.060	-0.349
-426.588	-128.620	-0.158	0.022
-425.573	-200.000	-0.024	0.121
-424.559	-200.000	-0.022	-0.174
-423.544	-200.000	0.007	-0.120
-422.530	-160.533	-0.050	-0.003
-421.515	-123.045	0.363	-0.058
-420.500	-136.481	-0.165	-0.019
-419.486	113.605	0.117	-0.140
-418.471	-200.000	0.031	0.213
-417.457	228.984	-0.063	0.102
-416.442	82.551	-0.087	-0.094
-415.428	-200.000	0.001	0.124
-414.413	16.347	0.178	-0.140
-413.398	-180.990	-0.154	0.003
-412.384	120.390	0.236	-0.290
-411.369	-79.923	0.215	0.071
-410.355	-200.000	-0.002	-0.183
-409.340	-3.255	-0.183	0.126
-408.325	436.197	0.122	-0.263
-407.311	-200.000	-0.017	0.084
-406.296	-147.425	-0.169	0.014
-405.282	-200.000	0.005	0.057
-404.267	-135.827	-0.075	0.009
-403.252	137.175	-0.230	0.298
-402.238	-88.161	-0.289	0.086
-401.223	142.034	0.145	-0.191
-400.209	-200.000	0.013	0.206
-399.194	-200.000	-0.028	0.248
-398.179	103.108	-0.016	0.019
-397.165	60.891	0.136	0.134
-396.150	-47.879	0.156	-0.075
-395.136	-200.000	-0.042	-0.268
-394.121	-85.048	0.279	-0.087
-393.106	576.362	0.039	-0.094
-392.092	177.589	-0.167	0.240
-391.077	57.916	-0.184	-0.178
-390.063	-200.000	-0.054	-0.300
-389.048	417.116	-0.083	-0.176
-388.033	-40.883	0.089	-0.045
-387.019	-69.436	-0.060	0.023
-386.004	-200.000	-0.001	-0.037
-384.990	-45.541	0.101	-0.049
-383.975	57.460	-0.096	0.093
-382.960	189.904	-0.059	-0.087
-381.946	-200.000	0.063	0.342
-380.931	-154.908	0.145	0.009
-379.917	-79.413	-0.360	0.121
-378.902	-120.028	0.008	0.001
-377.888	15.646	0.386	0.300
-376.873	5.204	-0.156	0.113
-375.858	185.720	0.065	0.096
-374.844	-66.091	0.074	-0.029
-373.829	206.121	-0.118	-0.182
-372.815	-77.991	0.078	0.026
-371.800	-73.701	0.268	-0.097
-370.785	-50.173	0.097	0.045
-369.771	-200.000	-0.063	0.353
-368.756	-157.062	0.171	0.010
-367.742	402.048	0.067	0.140
-366.727	-156.615	0.057	0.004
-365.712	-84.832	0.348	0.108
-364.698	-200.000	0.440	0.000
-363.683	-69.375	0.197	0.075
-362.669	-139.470	0.241	0.025
-361.654	-37.321	-0.032	-0.017
-360.639	51.055	0.154	-0.144
-359.625	800.000	-0.088	0.262
-358.610	-62.424	0.275	0.113
-357.596	-142.410	-0.217	-0.021
-356.581	-50.089	-0.253	-0.118
-355.566	800.000	0.019	-0.071
-354.552	-200.000	-0.000	0.151
-353.537	-106.768	0.179	0.039
-352.523	-95.600	-0.246	-0.065
-351.508	-200.000	-0.016	-0.163
-350.493	-200.000	0.052	0.506
-349.479	-200.000	0.023	0.169
-348.464	-200.000	0.034	-0.193
-347.450	86.715	0.079	0.086
-346.435	87.442	0.139	0.152
-345.420	-119.755	0.179	-0.031
-344.406	-148.953	-0.164	-0.013
-343.391	-60.947	0.095	0.040
-342.377	-72.699	0.026	0.009
-341.362	-79.384	-0.096	0.032
-340.348	80.019	0.020	0.022
-339.333	-29.756	0.155	0.087
-338.318	-133.420	0.166	-0.021
-337.304	-200.000	-0.039	-0.294
-336.289	-46.033	-0.229	0.111
-335.275	-50.442	-0.253	0.118
-334.260	-163.226	-0.126	-0.006
-333.245	85.315	0.181	0.196
-332.231	-21.340	-0.077	-0.046
-331.216	-106.284	-0.396	-0.088
-330.202	257.344	0.037	0.063
-329.187	-93.407	-0.069	-0.019
-328.172	74.093	-0.236	0.244
-327.158	-200.000	-0.001	0.028
-326.143	800.000	-0.046	0.150
-325.129	-173.807	0.098	0.003
-324.114	-75.146	-0.255	-0.090
-323.099	464.346	0.081	-0.178
-322.085	159.430	0.250	0.344
-321.070	-157.712	-0.132	0.008
-320.056	305.663	0.093	-0.171
-319.041	-84.246	-0.091	-0.028
-318.026	29.240	0.117	-0.098
-317.012	276.904	-0.225	0.395
-315.997	621.145	-0.107	-0.266
-314.983	800.000	-0.053	-0.180
-313.968	43.989	-0.249	0.225
-312.953	-200.000	0.006	0.208
-311.939	11.326	-0.251	0.189
-310.924	266.393	0.149	0.258
-309.910	-3.610	-0.167	0.115
-308.895	-80.676	-0.047	-0.016
-307.880	676.398	-0.020	0.051
-306.866	220.108	-0.032	-0.050
-305.851	118.314	-0.270	-0.328
-304.837	85.474	0.030	-0.032
-303.822	-105.721	0.338	-0.075
-302.807	216.723	0.157	0.247
-301.793	-71.601	-0.354	0.131
-300.778	67.126	0.184	-0.185
-299.764	505.292	0.203	0.465
-298.749	-152.596	0.058	-0.004
-297.735	268.284	0.051	0.088
-296.720	-150.154	-0.150	0.011
-295.705	558.566	0.119	0.284
-294.691	-200.000	-0.019	-0.217
-293.676	344.783	-0.111	0.214
-292.662	-52.135	0.135	0.062
-291.647	-200.000	0.022	0.139
-290.632	-31.168	0.194	0.108
-289.618	-106.478	0.130	-0.029
-288.603	22.630	0.206	0.167
-287.589	-63.736	0.287	-0.116
-286.574	-160.369	-0.273	-0.014
-285.559	726.814	0.191	-0.501
-284.545	-110.508	0.243	0.050
-283.530	784.824	-0.112	0.302
-282.516	76.685	-0.038	-0.040
-281.501	44.913	-0.252	-0.229
-280.486	-36.761	0.159	0.084
-279.472	-24.707	-0.280	0.164
-278.457	-200.000	-0.031	0.259
-277.443	-32.456	-0.174	-0.095
-276.428	-37.127	-0.160	-0.085
-275.413	-69.750	-0.088	-0.033
-274.399	228.971	0.133	-0.213
-273.384	507.808	0.047	-0.107
-272.370	-25.984	-0.127	0.074
-271.355	800.000	-0.050	-0.168
-270.340	-28.472	0.412	0.234
-269.326	129.750	-0.111	-0.140
-268.311	800.000	0.042	-0.134
-267.297	194.583	-0.037	-0.056
-266.282	-200.000	-0.017	0.107
-265.267	-116.697	0.285	0.052
-264.253	-18.321	0.226	0.139
-263.238	371.072	0.116	-0.231
-262.224	-200.000	0.093	-0.517
-261.209	800.000	-0.053	-0.154
-260.195	17.537	0.109	0.085
-259.180	601.235	-0.022	0.054
-258.165	800.000	-0.026	0.074
-257.151	800.000	-0.111	0.388
-256.136	-106.575	0.180	0.039
-255.122	329.727	-0.065	0.122
-254.107	22.474	0.192	0.155
-253.092	-30.446	0.202	0.113
-252.078	800.000	0.014	0.051
-251.063	-57.501	0.083	0.036
-250.049	385.734	-0.218	-0.443
-249.034	62.092	0.095	-0.093
-248.019	-200.000	-0.013	-0.105
-247.005	-144.940	-0.171	0.015
-245.990	74.555	0.240	-0.249
-244.976	304.278	-0.067	-0.122
-243.961	72.903	-0.121	-0.124
-242.946	-20.918	-0.591	-0.356
-241.932	77.996	0.199	0.209
-240.917	-106.378	-0.326	-0.072
-239.903	-153.558	0.215	-0.015
-238.888	49.486	0.322	0.298
-237.873	800.000	0.098	0.277
-236.859	-200.000	0.012	-0.138
-235.844	-11.267	-0.125	0.081
-234.830	-99.388	0.168	0.042
-233.815	-200.000	-0.020	0.158
-232.800	-200.000	-0.005	0.068
-231.786	-53.472	0.128	-0.057
-230.771	13.260	0.160	0.122
-229.757	19.514	0.128	0.101
-228.742	74.635	-0.290	0.300
-227.727	-103.295	0.163	0.038
-226.713	168.428	0.214	0.299
-225.698	-72.883	0.052	0.019
-224.684	1.121	0.090	-0.063
-223.669	295.316	-0.157	0.282
-222.655	-200.000	-0.001	-0.218
-221.640	800.000	0.057	-0.158
-220.625	72.342	-0.150	0.153
-219.611	166.595	0.061	-0.084
-218.596	-200.000	0.001	-0.172
-217.582	137.129	-0.138	-0.177
-216.567	52.529	0.337	0.317
-215.552	-200.000	0.028	0.230
-214.538	110.794	0.211	0.249
-213.523	-76.375	-0.208	0.072
-212.509	-98.975	-0.337	-0.084
-211.494	-36.352	0.178	-0.094
-210.479	44.688	-0.253	0.229
-209.465	337.888	0.083	0.160
-208.450	670.814	0.127	-0.323
-207.436	-30.379	-0.242	-0.135
-206.421	800.000	0.012	0.041
-205.406	-124.770	0.215	0.033
-204.392	9.829	-0.119	-0.089
-203.377	-200.000	-0.033	-0.230
-202.363	-200.000	0.030	0.204
-201.348	800.000	0.064	0.194
-200.333	127.474	0.238	-0.297
-199.319	-99.970	0.192	0.047
-198.304	-200.000	0.019	-0.323
-197.290	-35.546	-0.144	-0.077
-196.275	305.386	-0.237	-0.432
-195.260	-111.119	-0.195	0.039
-194.246	38.094	-0.126	-0.111
-193.231	-75.488	-0.179	0.063
-192.217	123.254	0.392	0.483
-191.202	-200.000	0.036	-0.188
-190.187	342.980	-0.167	-0.321
-189.173	-118.043	0.139	0.024
-188.158	399.290	-0.066	-0.136
-187.144	331.584	0.118	-0.223
-186.129	-65.792	0.190	-0.074
-185.114	54.692	0.114	0.108
-184.100	324.258	-0.082	0.153
-183.085	626.471	0.039	-0.097
-182.071	134.612	0.148	0.188
-181.056	800.000	-0.057	0.182
-180.042	-200.000	0.055	-0.267
-179.027	-21.427	0.080	-0.048
-178.012	-152.032	-0.240	0.017
-176.998	40.145	0.265	0.233
-175.983	-80.347	-0.173	0.057
-174.969	-59.232	-0.222	0.094
-173.954	29.759	-0.140	-0.117
-172.939	546.184	-0.023	-0.053
-171.925	-108.154	-0.498	-0.106
-170.910	-72.549	0.303	-0.110
-169.896	-36.382	0.253	0.134
-168.881	4.662	-0.328	-0.236
-167.866	-109.231	-0.124	-0.026
-166.852	-200.000	0.011	0.059
-165.837	361.183	0.083	-0.163
-164.823	-200.000	0.035	-0.356
-163.808	-72.537	-0.218	0.079
-162.793	-123.008	-0.120	0.019
-161.779	766.383	0.053	-0.140
-160.764	-91.880	-0.187	-0.052
-159.750	793.965	0.027	-0.073
-158.735	282.041	0.116	-0.203
-157.720	694.276	-0.080	0.206
-156.706	168.955	-0.088	-0.123
-155.691	45.096	0.470	0.425
-154.677	800.000	-0.107	0.332
-153.662	-64.360	0.056	0.022
-152.647	7.931	-0.075	0.055
-151.633	-200.000	0.041	-0.221
-150.618	300.159	0.075	-0.136
-149.604	-102.170	-0.135	-0.032
-148.589	-200.000	0.005	0.242
-147.574	81.963	0.311	0.331
-146.560	-191.076	0.092	0.001
-145.545	507.787	0.178	-0.406
-144.531	-118.137	0.165	0.029
-143.516	-65.397	0.116	0.046
-142.502	58.940	0.163	0.157
-141.487	-130.344	-0.483	-0.064
-140.472	161.514	0.185	0.253
-139.458	-7.253	-0.127	-0.084
-138.443	-19.118	-0.085	-0.052
-137.429	63.746	0.071	0.070
-136.414	-200.000	-0.070	-0.321
-135.399	523.692	-0.092	0.211
-134.385	215.125	0.205	0.319
-133.370	-46.045	0.141	-0.068
-132.356	-160.253	-0.138	0.007
-131.341	800.000	-0.120	0.365
-130.326	-176.549	0.257	-0.006
-129.312	-200.000	0.043	-0.227
-128.297	647.317	-0.105	-0.262
-127.283	-200.000	-0.025	-0.152
-126.268	-89.794	-0.042	-0.012
-125.253	-200.000	0.012	0.184
-124.239	72.627	0.052	-0.053
-123.224	114.186	0.114	-0.136
-122.210	-148.420	0.443	-0.036
-121.195	-45.110	-0.209	0.102
-120.180	413.053	0.134	0.279
-119.166	-149.488	0.229	0.018
-118.151	213.973	-0.082	-0.127
-117.137	-200.000	0.001	-0.129
-116.122	18.988	0.149	0.117
-115.107	-200.000	-0.342	-0.001
-114.093	-200.000	0.001	0.130
-113.078	76.174	-0.056	0.058
-112.064	-113.784	-0.346	0.066
-111.049	-200.000	-0.038	-0.210
-110.034	-200.000	-0.004	-0.244
-109.020	800.000	0.036	0.146
-108.005	-52.028	-0.206	0.093
-106.991	507.920	-0.050	-0.115
-105.976	-157.345	0.371	-0.022
-104.962	142.497	0.114	-0.148
-103.947	-174.406	0.228	0.006
-102.932	-195.706	-0.238	-0.002
-101.918	-13.252	0.141	-0.090
-100.903	28.712	-0.081	0.067
-99.889	436.921	0.083	-0.177
-98.874	-9.694	-0.137	0.090
-97.859	206.287	0.184	-0.281
-96.845	-57.403	0.271	0.117
-95.830	-200.000	0.003	-0.188
-94.816	26.673	0.298	0.244
-93.801	85.441	-0.258	0.277
-92.786	-71.503	0.088	0.032
-91.772	-200.000	-0.043	-0.319
-90.757	146.090	0.102	0.134
-89.743	57.205	-0.295	0.282
-88.728	-85.650	-0.257	0.078
-87.713	-200.000	0.029	0.343
-86.699	-163.773	0.241	0.011
-85.684	-4.023	-0.082	0.056
-84.670	138.301	-0.099	-0.127
-83.655	191.976	-0.022	-0.033
-82.640	-25.063	-0.148	-0.086
-81.626	-40.265	0.407	-0.207
-80.611	-85.685	0.073	-0.022
-79.597	-163.439	-0.093	0.004
-78.582	46.898	-0.115	-0.104
-77.567	-16.340	-0.108	0.067
-76.553	-94.107	0.327	-0.088
-75.538	76.928	-0.161	0.167
-74.524	-200.000	-0.020	-0.292
-73.509	145.104	0.167	-0.218
-72.494	134.179	0.262	-0.332
-71.480	-131.351	0.472	0.061
-70.465	169.364	0.254	-0.354
-69.451	73.159	0.025	-0.025
-68.436	-200.000	-0.016	0.159
-67.422	178.065	0.057	-0.081
-66.407	-200.000	0.016	-0.188
-65.392	132.079	0.217	-0.273
-64.378	264.626	0.098	0.166
-63.363	-69.416	-0.064	0.024
-62.349	800.000	0.062	-0.178
-61.334	132.848	-0.994	-1.254
-60.319	374.883	0.459	0.913
-59.305	800.000	-0.262	-0.948
-58.290	331.578	0.881	1.660
-57.276	387.838	0.728	1.471
-56.261	-200.000	115.721	642.902
-55.246	501.011	1540.038	3472.546
-54.232	174.169	2721.245	3841.213
-53.217	98.301	2295.319	2583.012
-52.203	35.459	1902.467	1630.956
-51.188	29.601	1696.060	1409.410
-50.173	27.153	1654.658	1356.705
-49.159	47.212	1712.584	1557.203
-48.144	45.853	1725.359	1558.436
-47.130	29.034	1683.048	1394.081
-46.115	26.523	1668.639	1363.204
-45.100	26.369	1663.838	1358.077
-44.086	26.435	1660.993	1356.190
-43.071	26.391	1658.846	1354.056
-42.057	26.268	1656.386	1351.072
-41.042	26.282	1654.192	1349.336
-40.027	26.263	1652.722	1347.939
-39.013	26.269	1650.255	1345.921
-37.998	26.240	1649.021	1344.647
-36.984	26.313	1647.744	1344.092
-35.969	26.348	1646.437	1343.235
-34.954	26.564	1644.065	1342.849
-33.940	26.519	1642.772	1341.402
-32.925	26.454	1640.929	1339.368
-31.911	26.376	1639.624	1337.668
-30.896	26.425	1637.608	1336.337
-29.881	26.385	1636.176	1334.818
-28.867	26.467	1634.626	1334.106
-27.852	26.386	1633.368	1332.427
-26.838	26.405	1632.238	1331.595
-25.823	26.441	1630.448	1330.344
-24.809	26.518	1628.690	1329.422
-23.794	26.456	1627.701	1328.111
-22.779	26.474	1626.096	1326.880
-21.765	26.482	1623.837	1325.040
-20.750	26.420	1622.606	1323.533
-19.736	26.481	1621.513	1323.030
-18.721	26.512	1620.128	1322.079
-17.706	26.461	1618.681	1320.470
-16.692	26.500	1616.546	1318.964
-15.677	26.456	1615.668	1317.869
-14.663	26.492	1613.985	1316.708
-13.648	26.464	1613.132	1315.759
-12.633	26.394	1611.768	1314.081
-11.619	26.482	1609.219	1312.593
-10.604	26.408	1608.406	1311.339
-9.590	26.543	1606.440	1310.659
-8.575	26.493	1605.453	1309.447
-7.560	26.514	1604.054	1308.400
-6.546	26.454	1603.277	1307.280
-5.531	26.509	1601.763	1306.390
-4.517	26.379	1601.264	1304.997
-3.502	26.416	1600.019	1304.196
-2.487	26.633	1597.502	1303.656
-1.473	26.168	1586.405	1291.226
-0.458	23.506	1567.240	1256.742
0.556	20.882	1569.262	1226.548
1.571	18.660	1593.172	1229.225
2.586	18.249	1605.496	1235.661
3.600	16.052	1550.189	1177.651
4.615	9.465	1442.201	1052.571
5.629	4.052	1383.722	975.766
6.644	3.327	1376.029	965.710
7.659	3.155	1375.162	963.944
8.673	3.077	1374.241	962.721
9.688	3.171	1372.385	961.927
10.702	3.144	1368.982	959.287
11.717	5.735	1373.853	978.811
12.731	12.937	1386.932	1033.304
13.746	18.926	1397.381	1078.687
14.761	20.292	1398.524	1088.047
15.775	19.634	1396.892	1082.559
16.790	18.595	1394.429	1074.049
17.804	17.900	1391.807	1067.592
18.819	17.602	1390.171	1064.381
19.834	17.390	1389.452	1062.409
20.848	17.198	1388.191	1060.155
21.863	17.021	1386.846	1057.934
22.877	16.865	1385.687	1055.982
23.892	16.873	1385.085	1055.479
24.907	16.877	1384.102	1054.663
25.921	16.754	1383.561	1053.389
26.936	16.959	1382.237	1053.562
27.950	16.983	1381.419	1052.994
28.965	16.960	1380.562	1052.106
29.980	17.076	1379.399	1051.848
30.994	17.183	1378.254	1051.542
32.009	17.232	1377.087	1050.863
33.023	17.207	1375.632	1049.506
34.038	17.131	1374.946	1048.421
35.053	17.029	1373.025	1046.233
36.067	17.045	1372.478	1045.824
37.082	17.131	1371.161	1045.255
38.096	17.127	1370.084	1044.315
39.111	17.124	1369.589	1043.830
40.126	17.002	1368.926	1042.482
41.140	16.837	1367.507	1040.297
42.155	16.754	1366.956	1039.274
43.169	16.696	1366.679	1038.615
44.184	16.645	1366.346	1037.962
45.199	16.729	1365.806	1037.972
46.213	16.857	1365.799	1038.659
47.228	16.941	1364.994	1038.471
48.242	16.939	1363.728	1037.405
49.257	17.101	1361.547	1036.638
50.271	16.971	1360.336	1034.836
51.286	16.944	1359.172	1033.693
52.301	16.855	1357.626	1031.882
53.315	16.886	1356.703	1031.276
54.330	16.906	1355.855	1030.663
55.344	16.758	1354.315	1028.506
56.359	16.831	1353.105	1027.938
57.374	16.714	1352.597	1026.748
58.388	16.685	1352.152	1026.144
59.403	16.617	1351.181	1024.904
60.417	16.604	1350.883	1024.511
61.432	16.549	1349.938	1023.371
62.447	16.548	1348.445	1022.141
63.461	16.490	1347.270	1020.808
64.476	16.550	1346.332	1020.370
65.490	16.516	1344.765	1018.891
66.505	16.497	1343.423	1017.668
67.520	16.589	1342.028	1017.077
68.534	16.589	1341.231	1016.381
69.549	16.606	1339.869	1015.361
70.563	16.417	1339.150	1013.594
71.578	16.469	1337.726	1012.737
72.593	16.368	1337.151	1011.607
73.607	16.347	1336.300	1010.746
74.622	16.326	1335.775	1010.133
75.636	16.360	1334.945	1009.621
76.651	16.334	1334.268	1008.864
77.666	16.418	1333.889	1008.991
78.680	16.566	1332.778	1008.943
79.695	16.533	1332.297	1008.295
80.709	16.591	1332.341	1008.584
81.724	16.653	1331.068	1007.898
82.739	16.695	1330.187	1007.396
83.753	16.888	1329.362	1007.829
84.768	17.004	1328.661	1007.897
85.782	17.134	1327.314	1007.555
86.797	17.093	1325.930	1006.174
87.812	16.943	1324.921	1004.429
88.826	16.895	1324.073	1003.415
89.841	17.042	1322.417	1002.942
90.855	17.041	1321.706	1002.304
91.870	17.156	1320.850	1002.248
92.884	17.093	1320.241	1001.325
93.899	17.133	1319.551	1000.945
94.914	17.256	1318.429	1000.731
95.928	17.226	1317.542	999.794
96.943	17.143	1316.699	998.580
97.957	17.015	1315.845	997.090
98.972	17.052	1314.401	996.125
99.987	17.062	1313.542	995.446
101.001	17.054	1312.491	994.515
102.016	17.052	1311.764	993.865
103.030	17.140	1310.822	993.578
104.045	17.072	1309.872	992.372
105.060	16.948	1308.666	990.647
106.074	16.689	1307.490	988.157
107.089	16.608	1305.505	986.097
108.103	16.552	1304.173	984.677
109.118	16.562	1302.894	983.679
110.133	16.646	1301.170	982.780
111.147	16.706	1299.981	982.143
112.162	16.608	1298.942	980.703
113.176	16.730	1298.206	980.770
114.191	16.667	1297.213	979.566
115.206	16.636	1295.738	978.189
116.220	16.733	1294.343	977.610
117.235	16.766	1293.511	977.084
118.249	16.704	1292.251	975.685
119.264	16.683	1291.100	974.613
120.279	16.660	1290.037	973.590
121.293	16.556	1289.114	972.209
122.308	16.535	1287.937	971.117
123.322	16.383	1287.026	969.469
124.337	16.452	1286.025	969.029
125.352	16.382	1284.999	967.766
126.366	16.526	1283.522	967.393
127.381	16.442	1282.626	966.149
128.395	16.474	1281.742	965.585
129.410	16.556	1280.548	965.067
130.424	16.586	1280.335	964.989
131.439	16.577	1279.508	964.231
132.454	16.726	1278.334	964.109
133.468	16.619	1278.176	963.296
134.483	16.719	1276.825	962.759
135.497	16.712	1276.158	962.133
136.512	16.550	1274.928	960.200
137.527	16.691	1272.675	959.220
138.541	16.725	1271.847	958.699
139.556	16.767	1270.914	958.153
140.570	16.873	1270.075	958.032
141.585	16.920	1268.782	957.237
142.600	17.017	1267.533	956.761
143.614	16.994	1266.960	956.110
144.629	17.243	1265.213	956.112
145.643	17.171	1264.319	954.944
146.658	16.983	1263.201	952.959
147.673	16.905	1261.650	951.269
148.687	16.761	1261.082	949.947
149.702	16.778	1259.422	948.709
150.716	16.742	1258.235	947.530
151.731	16.800	1256.694	946.610
152.746	16.781	1255.715	945.682
153.760	16.843	1254.841	945.283
154.775	17.020	1253.346	945.060
155.789	16.920	1252.936	944.110
156.804	16.967	1252.024	943.600
157.819	17.176	1250.180	943.293
158.833	17.085	1249.747	942.375
159.848	17.205	1249.098	942.470
160.862	17.182	1248.029	941.451
161.877	17.010	1246.426	939.205
162.892	16.924	1245.385	937.863
163.906	16.836	1244.705	936.782
164.921	16.834	1243.976	936.140
165.935	16.860	1243.016	935.480
166.950	16.931	1242.386	935.309
167.964	16.933	1241.784	934.784
168.979	16.967	1240.933	934.251
169.994	16.804	1240.194	932.712
171.008	16.992	1239.382	933.055
172.023	17.092	1238.729	933.031
173.037	17.307	1237.566	933.252
174.052	17.174	1236.516	931.648
175.067	16.966	1235.732	929.833
176.081	16.894	1234.691	928.573
177.096	16.957	1233.334	927.817
178.110	17.001	1232.578	927.408
179.125	17.049	1231.063	926.450
180.140	17.056	1230.276	925.811
181.154	17.162	1228.943	925.303
182.169	17.054	1228.268	924.127
183.183	17.285	1226.914	924.283
184.198	17.219	1225.501	922.778
185.213	17.336	1224.724	922.746
186.227	17.314	1223.571	921.677
187.242	17.296	1222.803	920.920
188.256	17.361	1221.945	920.540
189.271	17.424	1221.012	920.100
190.286	17.171	1219.813	917.749
191.300	16.903	1218.640	915.337
192.315	16.838	1218.006	914.426
193.329	16.773	1217.637	913.721
194.344	16.986	1217.008	914.315
195.359	17.026	1216.269	913.892
196.373	17.254	1215.539	914.493
197.388	17.216	1215.419	914.115
198.402	17.411	1215.225	914.937
199.417	17.500	1214.277	914.622
200.432	17.596	1213.623	914.563
201.446	17.722	1212.563	914.361
202.461	17.780	1211.890	914.083
203.475	17.587	1211.182	912.435
204.490	17.596	1209.308	910.989
205.504	17.485	1207.958	909.301
206.519	17.482	1206.733	908.279
207.534	17.416	1205.973	907.274
208.548	17.301	1205.280	906.059
209.563	17.457	1204.289	906.066
210.577	17.350	1203.645	904.931
211.592	17.550	1202.490	905.046
212.607	17.521	1202.061	904.492
213.621	17.577	1201.335	904.161
214.636	17.600	1200.084	903.262
215.650	17.595	1199.194	902.486
216.665	17.661	1198.215	902.016
217.680	17.928	1196.879	902.346
218.694	17.758	1196.463	901.052
219.709	17.762	1195.684	900.405
220.723	17.869	1194.992	900.373
221.738	17.622	1194.234	898.419
222.753	17.696	1193.502	898.178
223.767	17.736	1192.677	897.686
224.782	17.982	1191.920	898.330
225.796	17.942	1191.553	897.767
226.811	17.923	1190.486	896.782
227.826	17.783	1190.029	895.627
228.840	17.718	1189.473	894.783
229.855	17.769	1188.521	894.259
230.869	17.749	1187.723	893.474
231.884	17.789	1186.755	892.876
232.899	17.657	1186.138	891.643
233.913	17.595	1185.512	890.769
234.928	17.650	1184.482	890.201
235.942	17.577	1183.530	889.027
236.957	17.623	1183.164	888.914
237.972	17.580	1182.216	887.900
238.986	17.654	1181.542	887.699
240.001	17.622	1180.728	886.842
241.015	17.675	1179.703	886.269
242.030	17.687	1179.350	885.990
243.045	17.737	1178.507	885.538
244.059	17.787	1177.536	884.988
245.074	17.811	1176.932	884.578
246.088	17.910	1176.167	884.439
247.103	18.030	1175.199	884.252
248.117	18.092	1174.562	884.018
249.132	18.207	1174.283	884.325
250.147	18.436	1173.049	884.501
251.161	18.496	1172.766	884.519
252.176	18.413	1172.552	883.851
253.190	18.506	1171.953	883.797
254.205	18.615	1171.145	883.671
255.220	18.511	1170.786	882.787
256.234	18.528	1169.953	882.167
257.249	18.581	1169.192	881.788
258.263	18.556	1168.314	880.920
259.278	18.559	1167.653	880.361
260.293	18.485	1167.553	879.826
261.307	18.609	1166.878	879.878
262.322	18.672	1166.247	879.648
263.336	18.620	1165.439	878.691
264.351	18.691	1164.919	878.585
265.366	18.591	1164.503	877.682
266.380	18.614	1163.520	876.984
267.395	18.612	1162.700	876.279
268.409	18.485	1161.689	874.788
269.424	18.580	1161.017	874.689
270.439	18.493	1160.598	873.855
271.453	18.586	1159.602	873.502
272.468	18.468	1158.930	872.317
273.482	18.368	1157.860	870.925
274.497	18.514	1157.136	871.045
275.512	18.496	1156.582	870.458
276.526	18.517	1156.136	870.153
277.541	18.526	1155.035	869.293
278.555	18.582	1154.563	869.143
279.570	18.672	1154.090	869.167
280.585	18.739	1153.206	868.763
281.599	18.835	1152.106	868.343
282.614	18.570	1151.467	866.446
283.628	18.542	1150.242	865.304
284.643	18.618	1148.994	864.674
285.657	18.638	1148.100	864.028
286.672	18.579	1147.426	863.146
287.687	18.765	1145.960	862.902
288.701	18.644	1146.305	862.474
289.716	18.732	1144.852	861.748
290.730	18.654	1144.477	860.999
291.745	18.749	1143.834	860.917
292.760	18.855	1143.045	860.778
293.774	18.843	1142.638	860.332
294.789	18.881	1142.177	860.101
295.803	18.963	1141.573	859.978
296.818	18.771	1140.385	858.048
297.833	18.743	1139.629	857.262
298.847	18.773	1138.847	856.750
299.862	18.775	1138.051	856.083
300.876	18.890	1137.182	855.930
301.891	18.994	1136.403	855.786
302.906	18.938	1136.438	855.454
303.920	18.955	1136.214	855.294
304.935	19.124	1134.804	855.000
305.949	19.332	1134.176	855.483
306.964	19.265	1133.673	854.692
307.979	18.999	1132.846	852.675
308.993	19.109	1132.218	852.674
310.008	19.117	1131.601	852.175
311.022	19.159	1130.533	851.502
312.037	19.148	1129.762	850.791
313.052	19.098	1128.341	849.399
314.066	19.032	1127.285	848.204
315.081	18.888	1126.565	846.875
316.095	18.882	1125.917	846.286
317.110	18.997	1124.921	846.029
318.125	18.940	1124.487	845.348
319.139	18.953	1123.792	844.810
320.154	19.044	1122.905	844.519
321.168	18.934	1122.629	843.695
322.183	18.913	1122.310	843.277
323.197	19.110	1121.654	843.678
324.212	18.926	1120.946	842.166
325.227	19.076	1120.047	842.153
326.241	19.077	1119.555	841.711
327.256	19.093	1118.505	840.927
328.270	19.037	1117.718	839.985
329.285	19.131	1116.563	839.503
330.300	18.955	1115.520	837.789
331.314	18.924	1115.148	837.281
332.329	19.050	1114.261	837.157
333.343	19.106	1112.890	836.322
334.358	19.216	1112.564	836.540
335.373	19.256	1111.924	836.176
336.387	19.337	1110.869	835.702
337.402	19.289	1110.127	834.841
338.416	19.270	1109.745	834.386
339.431	19.307	1108.998	833.931
340.446	19.435	1108.703	834.254
341.460	19.526	1107.942	834.045
342.475	19.626	1106.769	833.574
343.489	19.561	1106.056	832.647
344.504	19.761	1105.213	832.900
345.519	19.788	1104.338	832.298
346.533	19.883	1103.011	831.684
347.548	19.790	1102.952	831.119
348.562	19.738	1102.130	830.177
349.577	19.590	1101.215	828.700
350.592	19.579	1100.202	827.814
351.606	19.473	1099.475	826.685
352.621	19.361	1098.696	825.490
353.635	19.422	1097.942	825.144
354.650	19.532	1096.985	824.878
355.665	19.547	1096.620	824.600
356.679	19.481	1096.249	823.936
357.694	19.630	1095.738	824.185
358.708	19.603	1095.423	823.747
359.723	19.646	1094.361	823.084
360.738	19.665	1093.636	822.554
361.752	19.609	1093.125	821.831
362.767	19.541	1092.969	821.317
363.781	19.718	1092.222	821.526
364.796	19.882	1091.429	821.633
365.810	19.921	1090.919	821.364
366.825	20.016	1090.526	821.445
367.840	20.093	1090.159	821.462
368.854	20.055	1089.654	820.830
369.869	20.091	1088.662	820.179
370.883	20.024	1087.433	818.861
371.898	19.986	1086.776	818.116
372.913	19.955	1086.104	817.392
373.927	20.015	1085.562	817.196
374.942	20.091	1085.257	817.253
375.956	20.129	1084.847	817.047
376.971	19.941	1084.369	815.731
377.986	20.033	1083.709	815.596
379.000	20.081	1083.330	815.465
380.015	20.233	1082.677	815.616
381.029	20.373	1081.967	815.664
382.044	20.416	1081.056	815.107
383.059	20.267	1080.156	813.661
384.073	20.227	1079.675	813.038
385.088	20.439	1078.286	812.913
386.102	20.303	1077.778	811.819
387.117	20.175	1076.747	810.374
388.132	19.984	1075.681	808.608
389.146	20.090	1074.848	808.406
390.161	20.074	1074.448	807.956
391.175	20.035	1073.485	806.981
392.190	20.285	1072.665	807.454
393.205	20.362	1072.181	807.376
394.219	20.169	1071.467	805.871
395.234	20.204	1070.569	805.289
396.248	20.025	1069.861	803.854
397.263	20.079	1068.587	803.075
398.278	20.052	1067.483	802.050
399.292	20.024	1066.996	801.482
400.307	20.063	1066.043	800.877
401.321	20.034	1065.502	800.264
402.336	19.998	1065.198	799.801
403.350	20.074	1064.316	799.417
404.365	20.211	1063.403	799.293
405.380	20.213	1063.061	798.972
406.394	20.242	1062.057	798.285
407.409	20.355	1061.510	798.319
408.423	20.523	1060.689	798.405
409.438	20.559	1059.815	797.839
410.453	20.491	1059.548	797.255
411.467	20.499	1059.242	796.994
412.482	20.605	1058.487	796.841
413.496	20.644	1057.941	796.539
414.511	20.800	1057.053	796.510
415.526	20.721	1056.895	795.961
416.540	20.932	1055.949	796.143
417.555	20.785	1055.843	795.319
418.569	20.719	1055.111	794.396
419.584	20.668	1054.554	793.674
420.599	20.838	1054.064	794.010
421.613	155.036	1404.951	1796.079
422.628	142.281	1456.036	1796.162
