DTS Sentinel unit serial number:	SN413079Multiplexer serial number:	ORYXHardware model number:	OX4-SRSoftware version number:	ORYX F/W v4.00 Oryx Data Collector v3.7.2.0data status	okinstallation	princeton_trtdifferential loss correction	single-endedforward channel	channel 2reverse channel	N/Adate	2019/09/13time	08:23:35forward acquisition time	60.00reverse acquisition time	0.00gamma	496.2192k internal	0.2333k external	0.2333temperature offset calibration	1.0191default loss term (dB/km)	0.3790temperature slope calibration	1.0000multiplexer offset coefficient	1.0000multiplexer slope coefficient	1.0000fibre end	0.00T internal ref (°C)	27.31T ext. ref 1 (°C)	4.27T ext. ref 2 (°C)	23.64length (m)	temperature (°C)	Stokes	anti-Stokes-747.200	-200.000	-0.128	0.637
-746.185	154.874	-0.078	-0.108
-745.171	627.576	-0.102	0.260
-744.156	-200.000	0.036	0.182
-743.142	167.045	-0.225	-0.320
-742.127	316.435	-0.131	0.249
-741.112	390.147	-0.123	0.257
-740.098	39.347	0.109	0.098
-739.083	-22.158	0.196	0.120
-738.069	-100.914	-0.160	-0.040
-737.054	34.942	-0.250	-0.220
-736.039	-42.422	-0.148	-0.076
-735.025	592.065	-0.066	-0.163
-734.010	197.868	-0.124	0.191
-732.996	3.152	0.156	0.114
-731.981	-95.311	-0.487	0.132
-730.966	-200.000	0.016	-0.198
-729.952	-55.440	0.133	-0.060
-728.937	-200.000	-0.047	-0.314
-727.923	625.884	0.039	-0.098
-726.908	57.919	-0.292	-0.287
-725.894	37.131	-0.355	-0.316
-724.879	-200.000	-0.027	-0.262
-723.864	46.221	-0.095	-0.088
-722.850	132.055	-0.135	-0.175
-721.835	-200.000	0.262	-0.001
-720.821	-121.252	0.254	0.043
-719.806	-162.981	0.151	0.007
-718.791	-200.000	-0.009	-0.200
-717.777	36.638	0.025	0.022
-716.762	86.350	-0.071	-0.078
-715.748	235.490	0.076	0.126
-714.733	200.774	0.081	0.126
-713.718	-200.000	0.005	0.191
-712.704	-108.839	-0.081	0.017
-711.689	94.579	-0.258	-0.295
-710.675	30.434	-0.133	-0.114
-709.660	-200.000	-0.082	0.466
-708.645	-44.274	-0.235	-0.118
-707.631	-82.658	0.149	-0.048
-706.616	614.068	-0.007	-0.017
-705.602	540.455	0.094	-0.224
-704.587	800.000	-0.079	-0.228
-703.572	224.785	0.088	0.142
-702.558	-54.264	-0.127	-0.058
-701.543	151.880	0.019	0.025
-700.529	-105.138	0.322	0.074
-699.514	132.091	0.117	-0.151
-698.499	-200.000	0.017	-0.124
-697.485	-137.909	-0.288	0.032
-696.470	48.841	-0.277	0.261
-695.456	-24.791	0.264	-0.158
-694.441	800.000	0.051	-0.167
-693.426	245.658	-0.114	0.192
-692.412	-133.599	0.181	0.023
-691.397	-47.875	0.252	-0.123
-690.383	-126.008	-0.304	0.046
-689.368	-50.588	0.096	-0.045
-688.354	36.454	-0.284	0.252
-687.339	95.670	-0.108	-0.123
-686.324	-84.839	-0.097	-0.031
-685.310	-46.317	0.173	-0.085
-684.295	800.000	-0.047	0.200
-683.281	-200.000	-0.011	-0.330
-682.266	341.710	-0.122	-0.240
-681.251	-75.994	0.218	0.077
-680.237	25.486	-0.028	0.024
-679.222	-40.445	-0.481	-0.251
-678.208	76.186	0.072	0.077
-677.193	58.600	-0.154	0.151
-676.178	-94.316	-0.321	0.088
-675.164	457.417	0.287	0.639
-674.149	139.593	0.147	0.195
-673.135	-200.000	-0.001	-0.491
-672.120	-200.000	0.047	0.241
-671.105	9.843	0.066	0.051
-670.091	-84.001	-0.342	-0.109
-669.076	-200.000	0.038	-0.224
-668.062	-44.960	0.077	0.038
-667.047	800.000	-0.103	-0.346
-666.032	-152.856	0.234	-0.017
-665.018	-154.542	-0.268	0.018
-664.003	-112.300	0.237	0.048
-662.989	-55.870	-0.258	0.115
-661.974	-200.000	0.101	0.535
-660.959	-101.701	0.349	0.085
-659.945	800.000	-0.033	-0.145
-658.930	-53.756	0.118	0.054
-657.916	-33.430	-0.251	-0.139
-656.901	800.000	-0.066	-0.184
-655.886	-189.825	0.107	0.001
-654.872	315.933	0.061	0.115
-653.857	-3.001	-0.220	0.154
-652.843	-200.000	-0.027	0.141
-651.828	21.412	0.269	0.219
-650.814	103.893	-0.132	0.155
-649.799	189.477	0.079	-0.118
-648.784	274.702	0.087	0.155
-647.770	-200.000	-0.245	0.001
-646.755	-130.861	-0.462	-0.062
-645.741	48.554	0.274	0.257
-644.726	499.882	0.057	0.131
-643.711	-78.340	-0.047	0.016
-642.697	-52.167	0.295	0.137
-641.682	-63.205	-0.229	0.094
-640.668	-139.486	0.368	0.039
-639.653	428.311	-0.179	0.387
-638.638	-200.000	-0.059	0.277
-637.624	-72.700	0.228	-0.084
-636.609	136.122	-0.108	-0.141
-635.595	-200.000	-0.005	0.069
-634.580	-170.996	0.273	0.009
-633.565	310.735	0.064	-0.120
-632.551	-3.303	-0.172	-0.120
-631.536	-52.234	0.144	-0.067
-630.522	-55.966	-0.118	-0.052
-629.507	628.347	-0.046	0.115
-628.492	16.094	-0.378	-0.298
-627.478	800.000	-0.116	-0.497
-626.463	118.715	-0.052	-0.065
-625.449	-136.882	-0.283	0.033
-624.434	63.204	-0.060	0.061
-623.419	-132.792	0.354	-0.045
-622.405	-101.169	0.196	-0.048
-621.390	56.795	-0.086	0.083
-620.376	187.012	-0.144	-0.215
-619.361	23.404	-0.308	-0.253
-618.346	-164.274	0.228	0.010
-617.332	800.000	0.077	-0.233
-616.317	135.306	-0.159	0.207
-615.303	-32.345	-0.427	0.238
-614.288	131.490	-0.318	-0.409
-613.273	-200.000	-0.032	-0.161
-612.259	1.418	0.131	-0.095
-611.244	10.511	-0.056	-0.043
-610.230	-200.000	-0.046	0.291
-609.215	-200.000	-0.033	0.152
-608.201	-92.196	0.204	0.058
-607.186	74.821	-0.179	-0.189
-606.171	-63.949	-0.125	0.051
-605.157	107.185	-0.042	0.050
-604.142	-50.366	-0.231	-0.109
-603.128	-200.000	-0.018	-0.089
-602.113	-133.796	-0.237	-0.029
-601.098	-123.713	0.094	-0.015
-600.084	-139.183	0.093	0.010
-599.069	-52.428	-0.206	0.095
-598.055	-200.000	0.074	0.537
-597.040	800.000	-0.037	-0.135
-596.025	3.721	-0.205	-0.150
-595.011	252.473	-0.146	-0.249
-593.996	-200.000	-0.015	0.246
-592.982	68.563	0.086	-0.088
-591.967	82.570	-0.190	0.206
-590.952	-39.829	-0.116	0.060
-589.938	776.385	0.080	-0.218
-588.923	28.638	-0.249	0.211
-587.909	-44.439	-0.139	-0.070
-586.894	-200.000	-0.006	-0.131
-585.879	87.804	-0.115	0.127
-584.865	76.736	0.144	-0.153
-583.850	-64.082	0.134	0.055
-582.836	-32.080	-0.216	-0.121
-581.821	-42.604	0.077	-0.039
-580.806	-66.820	0.206	0.081
-579.792	-39.041	0.025	0.013
-578.777	-200.000	-0.009	0.274
-577.763	-200.000	0.012	-0.130
-576.748	800.000	0.012	0.046
-575.733	27.205	0.076	-0.064
-574.719	375.369	0.026	-0.053
-573.704	721.615	-0.072	-0.191
-572.690	109.016	-0.192	-0.230
-571.675	-4.948	0.164	-0.113
-570.661	800.000	-0.041	-0.128
-569.646	414.218	0.126	0.269
-568.631	55.228	0.227	-0.219
-567.617	-140.960	0.162	0.017
-566.602	800.000	-0.068	-0.198
-565.588	95.292	-0.136	-0.154
-564.573	-147.810	0.233	-0.019
-563.558	163.063	0.070	-0.098
-562.544	-146.052	-0.245	0.022
-561.529	259.275	0.192	0.331
-560.515	418.835	0.044	0.093
-559.500	107.812	-0.185	0.220
-558.485	-182.477	0.317	0.006
-557.471	-19.942	0.082	0.051
-556.456	-147.991	0.107	-0.009
-555.442	164.282	0.050	-0.071
-554.427	-98.587	0.365	-0.093
-553.412	24.755	-0.362	-0.299
-552.398	742.287	0.062	0.167
-551.383	39.843	0.179	-0.160
-550.369	3.716	-0.122	0.089
-549.354	27.545	-0.073	-0.061
-548.339	368.645	0.097	0.196
-547.325	42.219	-0.079	0.072
-546.310	-200.000	0.006	0.085
-545.296	100.365	-0.237	-0.274
-544.281	-146.467	0.396	0.034
-543.266	800.000	-0.024	0.068
-542.252	-37.606	0.132	-0.070
-541.237	-70.311	0.113	0.043
-540.223	0.786	-0.055	-0.039
-539.208	-11.641	-0.306	-0.201
-538.193	-20.286	0.072	-0.044
-537.179	186.163	-0.217	-0.322
-536.164	-200.000	-0.038	-0.244
-535.150	97.381	0.074	-0.085
-534.135	-3.552	0.222	-0.154
-533.121	-200.000	0.030	0.197
-532.106	186.096	-0.067	0.099
-531.091	75.913	-0.210	0.222
-530.077	-106.429	0.085	0.019
-529.062	-35.564	-0.189	0.102
-528.048	-78.882	0.336	-0.114
-527.033	-200.000	-0.001	0.104
-526.018	-97.988	-0.285	-0.073
-525.004	48.710	0.295	-0.276
-523.989	800.000	-0.067	-0.289
-522.975	-175.954	0.204	-0.005
-521.960	4.835	-0.193	0.141
-520.945	-103.599	-0.088	-0.021
-519.931	313.163	0.024	0.044
-518.916	21.207	0.326	0.264
-517.902	25.353	-0.305	0.253
-516.887	-154.437	0.301	0.020
-515.872	-200.000	0.001	-0.134
-514.858	-9.495	-0.261	0.174
-513.843	-138.771	-0.385	-0.042
-512.829	800.000	0.040	-0.130
-511.814	351.255	0.111	-0.218
-510.799	-200.000	-0.039	-0.232
-509.785	-200.000	-0.005	-0.256
-508.770	-112.996	-0.222	-0.044
-507.756	-28.629	0.416	-0.239
-506.741	-200.000	0.059	0.424
-505.726	-112.460	0.214	0.043
-504.712	-187.647	-0.219	-0.003
-503.697	-45.631	-0.162	0.080
-502.683	-88.999	0.091	-0.027
-501.668	76.269	0.173	0.183
-500.653	410.266	-0.026	0.056
-499.639	-27.866	-0.210	0.121
-498.624	-200.000	0.232	0.001
-497.610	118.868	-0.100	-0.124
-496.595	90.622	0.076	0.085
-495.581	-200.000	-0.037	-0.220
-494.566	-96.909	0.224	0.058
-493.551	246.937	0.142	0.238
-492.537	37.734	0.057	0.050
-491.522	15.394	-0.134	-0.105
-490.508	-186.691	-0.110	-0.002
-489.493	229.490	0.256	-0.416
-488.478	800.000	0.059	-0.240
-487.464	-42.039	0.134	0.068
-486.449	800.000	-0.043	0.150
-485.435	125.264	0.112	-0.141
-484.420	-96.284	-0.181	0.048
-483.405	-200.000	-0.025	0.119
-482.391	720.231	0.030	-0.078
-481.376	-128.008	-0.177	0.025
-480.362	-74.211	0.255	-0.092
-479.347	303.151	-0.064	-0.119
-478.332	800.000	-0.012	-0.049
-477.318	210.815	0.122	0.190
-476.303	-56.238	0.090	-0.040
-475.289	800.000	-0.214	-0.596
-474.274	-20.730	-0.107	0.065
-473.259	213.941	-0.118	-0.186
-472.245	344.386	-0.146	-0.286
-471.230	-93.925	0.300	-0.082
-470.216	-90.520	0.295	0.085
-469.201	176.319	0.142	0.206
-468.186	2.558	0.202	0.146
-467.172	417.426	0.149	0.316
-466.157	-35.050	-0.161	0.087
-465.143	-9.919	-0.258	0.171
-464.128	-167.901	0.271	-0.011
-463.113	-143.317	0.234	0.022
-462.099	654.661	0.080	0.205
-461.084	-64.227	0.066	0.027
-460.070	238.611	-0.136	0.225
-459.055	-28.736	-0.153	0.088
-458.040	-120.892	-0.357	-0.060
-457.026	-143.256	0.235	0.022
-456.011	-109.262	-0.226	-0.048
-454.997	-130.445	0.386	0.052
-453.982	45.656	0.179	-0.165
-452.968	226.524	-0.082	-0.133
-451.953	32.960	0.046	-0.040
-450.938	298.981	-0.134	-0.246
-449.924	83.889	-0.039	0.042
-448.909	42.930	-0.483	-0.438
-447.895	498.100	-0.031	0.070
-446.880	-143.281	0.190	-0.018
-445.865	11.899	-0.168	0.128
-444.851	337.506	0.155	-0.299
-443.836	332.331	0.253	-0.485
-442.822	-80.187	-0.308	-0.103
-441.807	800.000	-0.026	0.113
-440.792	-18.074	-0.080	0.050
-439.778	-43.473	0.140	0.070
-438.763	-200.000	-0.016	0.209
-437.749	-98.539	0.036	0.009
-436.734	-23.468	-0.158	-0.094
-435.719	351.411	0.139	-0.273
-434.705	619.997	-0.085	-0.212
-433.690	-100.350	0.374	-0.092
-432.676	217.245	0.128	-0.202
-431.661	232.810	-0.148	-0.242
-430.646	-37.991	0.213	-0.113
-429.632	-200.000	-0.047	0.208
-428.617	362.869	0.200	0.399
-427.603	800.000	0.118	0.371
-426.588	51.655	0.083	0.078
-425.573	-61.065	0.161	-0.067
-424.559	-132.780	-0.141	-0.018
-423.544	-0.883	-0.359	0.252
-422.530	-83.480	-0.337	-0.107
-421.515	24.220	-0.154	0.126
-420.500	-66.461	0.161	-0.064
-419.486	-72.041	-0.262	0.097
-418.471	800.000	-0.064	0.202
-417.457	71.881	-0.161	0.166
-416.442	-109.566	0.222	-0.046
-415.428	-78.011	-0.282	-0.096
-414.413	457.221	-0.045	-0.099
-413.398	-200.000	0.041	0.251
-412.384	66.823	-0.224	-0.227
-411.369	-71.695	-0.393	0.146
-410.355	-121.517	-0.045	-0.007
-409.340	-119.919	-0.153	0.026
-408.325	-129.825	0.218	0.030
-407.311	-136.503	-0.242	-0.028
-406.296	-42.470	0.365	0.184
-405.282	-200.000	-0.060	0.338
-404.267	180.656	0.034	0.050
-403.252	351.333	0.079	-0.154
-402.238	78.114	0.220	0.233
-401.223	78.466	-0.311	-0.330
-400.209	-68.908	0.132	0.051
-399.194	276.913	0.135	-0.238
-398.179	-112.400	0.175	-0.035
-397.165	-200.000	0.008	0.148
-396.150	-127.561	-0.350	-0.050
-395.136	800.000	0.029	0.080
-394.121	181.534	-0.174	0.254
-393.106	-38.980	0.091	-0.047
-392.092	-60.112	-0.224	0.095
-391.077	800.000	-0.083	-0.286
-390.063	800.000	-0.051	-0.173
-389.048	-99.578	0.047	-0.012
-388.033	-138.292	-0.268	0.029
-387.019	-200.000	0.042	-0.213
-386.004	-96.478	-0.253	-0.066
-384.990	34.399	0.128	0.111
-383.975	51.451	0.246	0.231
-382.960	-200.000	0.004	-0.176
-381.946	256.850	0.013	-0.022
-380.931	-139.337	0.270	0.029
-379.917	-200.000	0.024	0.323
-378.902	72.782	-0.115	-0.119
-377.888	-111.943	-0.032	-0.006
-376.873	-100.684	0.190	-0.046
-375.858	-158.405	0.220	0.013
-374.844	-130.569	-0.232	-0.031
-373.829	-64.416	-0.148	-0.060
-372.815	-115.847	-0.055	0.010
-371.800	-200.000	0.061	0.289
-370.785	-200.000	-0.002	-0.093
-369.771	-200.000	0.048	-0.290
-368.756	-76.283	-0.349	0.122
-367.742	-200.000	-0.008	0.098
-366.727	77.190	-0.103	-0.109
-365.712	74.588	-0.174	0.182
-364.698	476.275	-0.037	0.082
-363.683	145.605	0.033	0.043
-362.669	583.773	0.113	-0.276
-361.654	-51.148	-0.284	0.132
-360.639	45.952	0.271	0.248
-359.625	-200.000	0.003	0.152
-358.610	8.020	-0.246	-0.183
-357.596	-179.831	-0.298	-0.006
-356.581	348.221	-0.039	-0.076
-355.566	74.257	-0.145	0.151
-354.552	119.959	-0.029	0.036
-353.537	-200.000	-0.045	-0.312
-352.523	463.848	0.034	0.074
-351.508	789.805	0.011	-0.030
-350.493	-60.279	0.135	0.057
-349.479	-149.786	0.143	-0.011
-348.464	73.492	-0.077	-0.080
-347.450	144.081	-0.109	0.144
-346.435	418.357	0.131	0.278
-345.420	-80.464	0.289	-0.096
-344.406	-65.695	0.084	0.033
-343.391	-200.000	0.013	-0.194
-342.377	-47.212	-0.040	-0.020
-341.362	-3.745	-0.189	-0.130
-340.348	-200.000	0.023	0.146
-339.333	221.820	0.058	-0.092
-338.318	174.278	0.100	0.144
-337.304	-18.522	-0.175	0.108
-336.289	51.649	0.167	0.157
-335.275	-200.000	-0.024	-0.149
-334.260	-19.722	-0.213	0.130
-333.245	800.000	0.090	0.293
-332.231	109.372	-0.115	-0.136
-331.216	460.429	-0.085	-0.188
-330.202	71.571	-0.178	0.183
-329.187	12.606	0.105	0.080
-328.172	-43.791	-0.190	-0.095
-327.158	800.000	0.051	0.192
-326.143	-113.551	-0.303	-0.059
-325.129	-24.373	0.097	0.057
-324.114	274.532	-0.134	-0.234
-323.099	-200.000	-0.013	-0.411
-322.085	-94.060	0.297	-0.081
-321.070	-43.128	0.517	0.259
-320.056	4.266	-0.232	-0.168
-319.041	-200.000	0.025	-0.207
-318.026	387.469	0.133	-0.273
-317.012	-101.873	-0.292	-0.070
-315.997	-169.100	-0.192	0.007
-314.983	-63.462	0.167	-0.068
-313.968	-46.099	0.103	-0.050
-312.953	-36.776	0.198	0.105
-311.939	-200.000	0.024	-0.113
-310.924	-43.766	-0.125	0.062
-309.910	278.034	-0.203	-0.357
-308.895	-131.002	-0.242	-0.032
-307.880	-200.000	-0.041	0.188
-306.866	-200.000	-0.159	0.699
-305.851	-12.248	-0.236	0.153
-304.837	-200.000	0.056	-0.334
-303.822	-176.422	0.095	-0.002
-302.807	-43.923	0.299	0.149
-301.793	446.590	-0.153	-0.333
-300.778	-200.000	-0.034	-0.385
-299.764	-200.000	-0.019	0.129
-298.749	-40.185	0.017	0.009
-297.735	-106.339	0.437	0.097
-296.720	-200.000	0.031	-0.223
-295.705	13.124	-0.145	-0.111
-294.691	-160.033	-0.132	-0.007
-293.676	82.978	0.041	-0.044
-292.662	-139.149	-0.096	0.010
-291.647	-200.000	-0.002	-0.328
-290.632	712.223	-0.049	-0.129
-289.618	-200.000	0.467	0.000
-288.603	-118.695	-0.064	0.011
-287.589	-130.495	-0.155	0.021
-286.574	147.496	0.135	0.179
-285.559	-62.936	0.137	0.056
-284.545	-105.183	-0.126	0.028
-283.530	214.494	-0.105	-0.164
-282.516	109.140	0.078	0.092
-281.501	-4.385	0.222	-0.151
-280.486	322.257	0.091	-0.172
-279.472	-113.073	0.192	-0.037
-278.457	-102.972	-0.166	0.039
-277.443	-200.000	-0.086	0.376
-276.428	650.852	-0.052	0.132
-275.413	-82.205	-0.173	0.056
-274.399	-44.418	-0.056	0.028
-273.384	-97.351	0.087	0.022
-272.370	160.179	0.179	-0.246
-271.355	800.000	0.091	0.359
-270.340	-200.000	-0.017	-0.135
-269.326	-200.000	0.009	-0.064
-268.311	54.669	-0.213	-0.203
-267.297	-200.000	-0.002	0.117
-266.282	-53.023	-0.078	-0.035
-265.267	28.237	0.234	0.195
-264.253	800.000	-0.020	-0.076
-263.238	800.000	0.030	0.104
-262.224	-82.221	-0.080	0.026
-261.209	-153.885	0.224	0.015
-260.195	114.548	0.130	-0.156
-259.180	11.256	0.385	-0.291
-258.165	-140.686	-0.182	0.019
-257.151	58.302	-0.026	0.025
-256.136	-64.312	-0.062	0.025
-255.122	-200.000	0.001	-0.081
-254.107	192.814	-0.107	0.160
-253.092	248.625	0.113	0.189
-252.078	267.752	0.207	-0.358
-251.063	95.584	-0.135	-0.152
-250.049	18.701	0.058	-0.046
-249.034	-200.000	0.008	-0.163
-248.019	-136.393	0.116	-0.013
-247.005	800.000	-0.057	-0.217
-245.990	-200.000	-0.067	0.292
-244.976	-200.000	-0.011	0.370
-243.961	-200.000	-0.032	0.366
-242.946	800.000	-0.046	0.149
-241.932	-27.676	0.138	-0.079
-240.917	-200.000	0.022	-0.136
-239.903	-86.316	-0.060	0.018
-238.888	-140.738	-0.374	-0.038
-237.873	97.470	0.164	-0.186
-236.859	800.000	-0.035	-0.115
-235.844	-144.900	-0.154	-0.014
-234.830	-200.000	-0.042	0.242
-233.815	-6.960	0.209	0.140
-232.800	-200.000	-0.042	-0.296
-231.786	800.000	0.049	-0.197
-230.771	-6.879	-0.191	-0.128
-229.757	-200.000	0.019	0.148
-228.742	-96.755	0.068	-0.018
-227.727	5.594	0.189	0.138
-226.713	-102.104	0.162	0.038
-225.698	-12.615	-0.229	0.147
-224.684	-47.535	0.130	0.062
-223.669	157.396	-0.030	0.041
-222.655	-73.372	0.219	-0.079
-221.640	-200.000	0.026	0.209
-220.625	-149.109	0.446	-0.035
-219.611	399.435	0.119	-0.246
-218.596	-12.215	0.312	0.201
-217.582	800.000	-0.122	0.334
-216.567	800.000	-0.033	0.096
-215.552	71.520	-0.139	0.142
-214.538	-4.718	-0.246	0.167
-213.523	-81.251	-0.278	0.090
-212.509	-20.626	0.228	0.138
-211.494	-37.375	0.164	0.086
-210.479	114.997	-0.189	-0.227
-209.465	-158.183	-0.193	-0.011
-208.450	-200.000	-0.001	0.013
-207.436	21.199	-0.250	0.200
-206.421	368.758	0.141	-0.281
-205.406	-200.000	-0.013	0.153
-204.392	-110.954	-0.044	-0.009
-203.377	11.318	-0.034	-0.026
-202.363	339.552	-0.118	0.226
-201.348	37.322	0.263	0.229
-200.333	-200.000	-0.041	0.196
-199.319	-74.464	-0.196	-0.069
-198.304	255.535	-0.067	0.114
-197.290	-124.848	-0.081	0.012
-196.275	-200.000	-0.004	-0.148
-195.260	1.093	-0.130	0.092
-194.246	-32.750	-0.158	0.087
-193.231	519.920	0.186	0.430
-192.217	136.167	0.172	0.220
-191.202	800.000	0.033	0.128
-190.187	-15.073	0.271	-0.171
-189.173	-32.060	0.180	-0.099
-188.158	184.239	0.062	0.090
-187.144	-55.559	-0.141	-0.062
-186.129	35.938	0.190	-0.165
-185.114	-129.810	0.203	-0.027
-184.100	14.850	-0.411	0.316
-183.085	91.445	-0.261	-0.288
-182.071	-30.166	-0.119	0.066
-181.056	-200.000	0.010	0.172
-180.042	182.350	0.272	-0.395
-179.027	4.239	0.104	0.075
-178.012	65.539	0.185	-0.185
-176.998	10.464	-0.072	0.054
-175.983	-118.556	-0.310	0.054
-174.969	306.568	0.157	0.288
-173.954	-136.577	0.458	-0.052
-172.939	145.230	-0.129	-0.170
-171.925	90.350	0.046	-0.050
-170.910	-200.000	0.021	0.340
-169.896	800.000	-0.077	-0.226
-168.881	-144.084	-0.114	-0.011
-167.866	39.607	0.248	0.219
-166.852	-200.000	0.011	0.053
-165.837	-200.000	-0.032	-0.205
-164.823	800.000	-0.038	0.142
-163.808	-72.951	0.144	0.052
-162.793	-23.749	0.222	0.131
-161.779	-60.696	0.394	0.164
-160.764	-54.323	0.205	0.091
-159.750	187.042	0.031	0.046
-158.735	-124.813	0.244	-0.037
-157.720	-135.428	-0.208	-0.024
-156.706	-117.070	0.330	-0.059
-155.691	100.177	-0.080	0.091
-154.677	12.490	0.275	0.209
-153.662	780.852	-0.036	0.096
-152.647	-64.658	-0.126	0.050
-151.633	107.499	0.072	0.084
-150.618	800.000	0.041	-0.152
-149.604	83.175	0.132	0.142
-148.589	800.000	0.034	-0.095
-147.574	138.431	0.045	0.058
-146.560	177.436	0.294	0.421
-145.545	-63.626	-0.051	-0.021
-144.531	-176.602	0.202	0.005
-143.516	87.573	-0.123	0.133
-142.502	155.093	-0.066	0.089
-141.487	-125.139	0.356	-0.054
-140.472	335.776	-0.128	-0.244
-139.458	434.998	0.077	-0.164
-138.443	5.722	-0.155	0.112
-137.429	-118.057	-0.273	0.048
-136.414	172.551	-0.182	0.257
-135.399	101.443	0.240	0.275
-134.385	-200.000	0.002	-0.105
-133.370	100.090	-0.171	0.194
-132.356	-101.999	0.128	0.030
-131.341	165.948	-0.138	-0.192
-130.326	26.832	-0.161	0.132
-129.312	800.000	0.027	0.087
-128.297	-200.000	-0.031	0.146
-127.283	253.957	0.106	-0.178
-126.268	31.829	-0.170	-0.144
-125.253	-78.156	-0.099	0.033
-124.239	800.000	-0.105	0.320
-123.224	-73.857	0.266	0.095
-122.210	800.000	-0.104	0.326
-121.195	-111.165	0.103	-0.021
-120.180	285.256	-0.098	-0.173
-119.166	39.745	0.274	-0.241
-118.151	-84.910	0.246	0.076
-117.137	-27.871	-0.317	0.180
-116.122	131.298	-0.014	-0.017
-115.107	-60.183	0.256	-0.107
-114.093	-200.000	-0.033	0.192
-113.078	33.943	0.119	-0.102
-112.064	158.005	-0.098	0.133
-111.049	1.446	0.329	0.232
-110.034	-134.567	0.191	-0.023
-109.020	-46.117	-0.240	-0.116
-108.005	178.766	-0.027	0.038
-106.991	52.591	-0.164	0.154
-105.976	-200.000	-0.002	-0.036
-104.962	-129.896	-0.328	-0.044
-103.947	-98.296	-0.257	0.065
-102.932	52.379	0.204	0.190
-101.918	-200.000	-0.001	-0.049
-100.903	-87.684	-0.273	0.081
-99.889	800.000	0.059	-0.237
-98.874	95.345	0.208	0.233
-97.859	102.109	0.228	0.262
-96.845	22.671	0.036	-0.029
-95.830	1.292	0.193	0.136
-94.816	194.109	-0.223	0.331
-93.801	800.000	0.149	0.516
-92.786	228.331	-0.103	0.164
-91.772	128.562	0.030	0.037
-90.757	30.291	0.207	0.173
-89.743	-41.440	0.136	0.068
-88.728	490.145	0.116	0.259
-87.713	-136.809	-0.100	0.011
-86.699	-169.859	-0.343	-0.012
-85.684	800.000	-0.039	-0.146
-84.670	800.000	0.017	-0.054
-83.655	-40.717	-0.235	-0.120
-82.640	-101.263	0.287	-0.069
-81.626	6.948	0.145	0.106
-80.611	11.903	0.180	0.136
-79.597	-116.899	-0.076	-0.014
-78.582	190.354	0.082	-0.120
-77.567	319.247	-0.142	-0.263
-76.553	-80.949	-0.278	0.090
-75.538	-153.077	0.418	-0.029
-74.524	20.237	0.088	-0.069
-73.509	-200.000	0.000	-0.104
-72.494	-113.290	0.175	-0.034
-71.480	-122.954	-0.351	-0.055
-70.465	19.369	-0.223	-0.175
-69.451	-103.575	-0.356	-0.082
-68.436	138.345	0.015	0.019
-67.422	192.862	-0.044	0.065
-66.407	6.718	0.187	0.136
-65.392	800.000	-0.078	0.263
-64.378	-85.232	0.174	0.053
-63.363	393.642	-0.062	-0.126
-62.349	-92.009	0.074	-0.020
-61.334	83.030	-1.187	-1.264
-60.319	800.000	0.224	0.709
-59.305	630.871	-0.566	-1.403
-58.290	201.443	0.689	1.039
-57.276	239.144	0.988	1.608
-56.261	-200.000	114.297	646.558
-55.246	531.998	1529.265	3541.578
-54.232	175.380	2708.597	3842.645
-53.217	102.489	2302.068	2634.839
-52.203	36.782	1906.224	1648.791
-51.188	30.585	1693.987	1418.071
-50.173	28.021	1651.410	1363.279
-49.159	50.004	1707.911	1577.079
-48.144	48.730	1721.480	1579.915
-47.130	30.136	1678.980	1401.887
-46.115	27.483	1664.283	1369.643
-45.100	27.289	1659.070	1363.839
-44.086	27.157	1656.424	1360.625
-43.071	27.204	1653.907	1358.854
-42.057	27.213	1651.379	1356.792
-41.042	27.253	1649.558	1355.538
-40.027	27.297	1647.527	1354.141
-39.013	27.210	1645.409	1351.702
-37.998	27.079	1644.555	1349.971
-36.984	27.173	1643.164	1349.478
-35.969	27.241	1641.123	1348.248
-34.954	27.376	1639.495	1347.863
-33.940	27.344	1637.602	1346.010
-32.925	27.279	1636.470	1344.547
-31.911	27.295	1634.385	1342.901
-30.896	27.313	1632.417	1341.361
-29.881	27.331	1630.696	1340.025
-28.867	27.414	1628.874	1339.085
-27.852	27.309	1627.196	1336.881
-26.838	27.353	1625.538	1335.791
-25.823	27.297	1624.690	1334.630
-24.809	27.331	1623.431	1333.796
-23.794	27.376	1621.922	1332.831
-22.779	27.393	1620.126	1331.429
-21.765	27.299	1618.717	1329.528
-20.750	27.261	1617.127	1327.893
-19.736	27.288	1615.976	1327.091
-18.721	27.391	1614.764	1326.790
-17.706	27.316	1613.242	1324.946
-16.692	27.313	1611.735	1323.634
-15.677	27.375	1610.487	1323.009
-14.663	27.373	1608.853	1321.600
-13.648	27.297	1607.490	1319.875
-12.633	27.339	1606.206	1319.071
-11.619	27.311	1604.391	1317.323
-10.604	27.263	1602.728	1315.562
-9.590	27.369	1601.315	1315.118
-8.575	27.425	1600.219	1314.564
-7.560	27.456	1598.855	1313.620
-6.546	27.346	1598.687	1312.635
-5.531	27.321	1597.600	1311.506
-4.517	27.406	1596.023	1310.772
-3.502	27.346	1594.884	1309.355
-2.487	27.403	1593.434	1308.523
-1.473	27.271	1581.289	1297.554
-0.458	24.615	1562.526	1263.356
0.556	23.343	1564.262	1234.053
1.571	21.097	1588.938	1237.499
2.586	20.579	1600.811	1242.929
3.600	18.282	1546.777	1184.985
4.615	11.433	1438.976	1058.046
5.629	5.304	1378.737	975.498
6.644	4.242	1370.859	963.242
7.659	4.228	1370.034	962.487
8.673	4.282	1369.439	962.325
9.688	4.338	1367.552	961.257
10.702	4.216	1364.754	958.450
11.717	7.145	1369.785	980.053
12.731	14.615	1384.079	1036.758
13.746	20.830	1393.829	1082.729
14.761	22.487	1395.595	1094.311
15.775	22.039	1393.013	1089.410
16.790	21.027	1391.039	1081.493
17.804	20.159	1389.092	1074.509
18.819	19.815	1387.691	1071.201
19.834	19.720	1387.153	1070.101
20.848	19.731	1385.591	1068.870
21.863	19.561	1384.581	1066.945
22.877	19.448	1383.873	1065.608
23.892	19.440	1382.539	1064.437
24.907	19.494	1381.236	1063.673
25.921	19.270	1381.103	1062.100
26.936	19.408	1379.557	1061.667
27.950	19.458	1379.088	1061.518
28.965	19.489	1378.127	1060.876
29.980	19.655	1376.915	1060.869
30.994	19.813	1376.206	1061.192
32.009	19.985	1374.592	1060.911
33.023	19.906	1373.741	1059.677
34.038	19.760	1372.243	1057.531
35.053	19.539	1371.696	1055.666
36.067	19.573	1370.121	1054.568
37.082	19.623	1368.955	1053.886
38.096	19.634	1368.419	1053.445
39.111	19.765	1367.635	1053.544
40.126	19.538	1366.354	1051.084
41.140	19.289	1365.480	1048.803
42.155	19.146	1365.102	1047.552
43.169	18.962	1365.220	1046.430
44.184	19.038	1364.397	1046.166
45.199	19.116	1364.018	1046.257
46.213	19.345	1363.773	1047.370
47.228	19.437	1363.124	1047.340
48.242	19.582	1361.702	1047.032
49.257	19.471	1360.440	1045.297
50.271	19.477	1359.373	1044.419
51.286	19.456	1358.457	1043.496
52.301	19.443	1357.050	1042.248
53.315	19.324	1355.731	1040.424
54.330	19.281	1354.225	1038.915
55.344	19.139	1353.202	1037.181
56.359	19.157	1352.834	1036.920
57.374	19.222	1350.897	1035.735
58.388	18.917	1351.050	1033.922
59.403	19.018	1350.009	1033.641
60.417	19.011	1349.314	1032.979
61.432	18.965	1347.865	1031.503
62.447	18.867	1347.375	1030.449
63.461	18.913	1346.186	1029.723
64.476	18.859	1344.879	1028.307
65.490	18.765	1343.790	1026.820
66.505	18.821	1342.417	1026.014
67.520	18.882	1341.035	1025.231
68.534	18.746	1340.685	1024.062
69.549	18.793	1339.334	1023.219
70.563	18.828	1337.871	1022.222
71.578	18.705	1337.320	1020.981
72.593	18.618	1335.982	1019.352
73.607	18.651	1335.283	1018.924
74.622	18.631	1334.628	1018.214
75.636	18.607	1334.400	1017.807
76.651	18.709	1333.562	1017.684
77.666	18.775	1332.705	1017.327
78.680	18.820	1332.820	1017.594
79.695	19.021	1331.656	1017.805
80.709	19.006	1331.347	1017.391
81.724	19.185	1330.617	1017.797
82.739	19.222	1329.810	1017.307
83.753	19.471	1328.795	1017.912
84.768	19.416	1328.484	1017.258
85.782	19.609	1327.475	1017.537
86.797	19.634	1325.802	1016.307
87.812	19.547	1324.406	1014.641
88.826	19.419	1323.818	1013.348
89.841	19.470	1322.716	1012.709
90.855	19.594	1322.212	1012.964
91.870	19.676	1321.296	1012.654
92.884	19.741	1320.388	1012.251
93.899	19.719	1319.516	1011.359
94.914	19.718	1319.034	1010.896
95.928	19.743	1317.686	1009.919
96.943	19.769	1316.498	1009.069
97.957	19.574	1315.966	1007.437
98.972	19.598	1314.941	1006.705
99.987	19.690	1313.687	1006.190
101.001	19.589	1313.282	1005.203
102.016	19.589	1312.159	1004.254
103.030	19.705	1311.518	1004.349
104.045	19.521	1310.726	1002.585
105.060	19.536	1308.981	1001.246
106.074	19.240	1307.205	998.090
107.089	18.969	1305.299	994.974
108.103	18.868	1304.273	993.520
109.118	18.757	1303.484	992.192
110.133	18.809	1302.178	991.411
111.147	18.797	1300.604	990.057
112.162	18.897	1299.717	989.867
113.176	18.978	1298.500	989.318
114.191	19.120	1296.959	988.871
115.206	19.063	1295.858	987.619
116.220	18.928	1294.890	986.022
117.235	19.035	1293.932	985.815
118.249	18.896	1292.692	983.987
119.264	18.887	1291.564	982.993
120.279	18.778	1290.730	981.649
121.293	18.818	1289.523	980.869
122.308	18.643	1288.261	978.826
123.322	18.592	1287.744	978.053
124.337	18.663	1286.108	977.130
125.352	18.597	1285.166	975.953
126.366	18.574	1284.297	975.078
127.381	18.575	1283.345	974.274
128.395	18.603	1282.223	973.491
129.410	18.659	1281.214	972.960
130.424	18.753	1280.725	973.037
131.439	18.847	1279.932	972.879
132.454	18.948	1279.295	972.879
133.468	18.879	1278.606	971.876
134.483	19.018	1277.959	972.084
135.497	19.038	1276.898	971.309
136.512	19.189	1275.045	970.662
137.527	19.109	1274.238	969.513
138.541	19.045	1272.860	968.017
139.556	19.227	1271.598	967.994
140.570	19.162	1270.890	967.005
141.585	19.410	1269.848	967.517
142.600	19.397	1268.721	966.503
143.614	19.553	1268.536	967.149
144.629	19.678	1267.148	966.701
145.643	19.509	1265.998	964.799
146.658	19.409	1264.331	962.880
147.673	19.232	1262.914	960.730
148.687	19.318	1261.186	959.810
149.702	19.102	1260.084	957.683
150.716	19.156	1258.275	956.527
151.731	19.093	1257.499	955.502
152.746	19.010	1256.621	954.292
153.760	19.072	1255.941	954.035
154.775	19.219	1254.427	953.612
155.789	19.317	1253.593	953.434
156.804	19.280	1252.994	952.692
157.819	19.358	1251.979	952.266
158.833	19.505	1251.023	952.266
159.848	19.688	1250.090	952.481
160.862	19.638	1248.971	951.265
161.877	19.313	1247.587	948.342
162.892	19.140	1246.660	946.601
163.906	19.079	1245.146	945.033
164.921	19.049	1244.493	944.287
165.935	19.097	1243.800	943.941
166.950	19.367	1242.933	944.680
167.964	19.332	1242.355	943.965
168.979	19.262	1241.595	942.924
169.994	19.281	1241.268	942.693
171.008	19.202	1240.244	941.400
172.023	19.361	1239.693	941.769
173.037	19.585	1238.947	942.340
174.052	19.573	1237.930	941.419
175.067	19.301	1236.353	938.657
176.081	19.034	1235.439	936.428
177.096	19.117	1234.595	936.151
178.110	19.133	1233.578	935.385
179.125	19.207	1232.438	934.843
180.140	19.270	1231.366	934.289
181.154	19.358	1231.003	934.408
182.169	19.519	1229.367	933.950
183.183	19.563	1228.663	933.570
184.198	19.574	1227.289	932.504
185.213	19.744	1225.865	932.258
186.227	19.536	1225.366	930.676
187.242	19.777	1224.161	930.977
188.256	19.783	1223.477	930.404
189.271	19.846	1222.923	930.239
190.286	19.572	1221.343	927.485
191.300	19.202	1219.947	924.355
192.315	19.111	1219.365	923.345
193.329	19.191	1218.657	923.157
194.344	19.286	1218.007	923.094
195.359	19.251	1217.789	922.656
196.373	19.451	1217.118	923.140
197.388	19.499	1216.886	923.135
198.402	19.711	1216.803	924.124
199.417	19.911	1216.095	924.574
200.432	20.127	1215.531	925.217
201.446	20.101	1214.767	924.417
202.461	20.215	1213.629	924.074
203.475	20.115	1212.937	922.932
204.490	19.940	1210.928	920.393
205.504	19.789	1209.717	918.587
206.519	19.656	1208.624	916.974
207.534	19.618	1207.446	915.794
208.548	19.603	1206.653	915.034
209.563	19.677	1205.631	914.569
210.577	19.634	1204.822	913.650
211.592	19.768	1204.327	913.898
212.607	19.974	1203.976	914.638
213.621	20.065	1202.061	913.585
214.636	19.846	1201.477	911.906
215.650	19.903	1200.869	911.663
216.665	20.118	1199.922	911.995
217.680	20.235	1199.300	912.056
218.694	20.176	1198.672	911.190
219.709	20.179	1197.629	910.332
220.723	20.083	1197.052	909.307
221.738	20.087	1195.953	908.415
222.753	20.017	1195.436	907.572
223.767	19.931	1194.911	906.645
224.782	20.212	1194.026	907.364
225.796	20.344	1193.590	907.644
226.811	20.154	1193.224	906.292
227.826	19.996	1192.181	904.592
228.840	20.025	1191.453	904.112
229.855	20.047	1190.379	903.333
230.869	19.977	1189.425	902.163
231.884	19.942	1188.701	901.352
232.899	19.752	1187.729	899.545
233.913	19.677	1187.138	898.631
234.928	19.785	1186.170	898.376
235.942	19.621	1185.263	896.762
236.957	19.791	1184.259	896.802
237.972	19.747	1183.221	895.711
238.986	19.737	1183.122	895.503
240.001	19.770	1182.315	894.987
241.015	19.792	1181.414	894.336
242.030	19.974	1180.869	894.787
243.045	20.160	1179.672	894.759
244.059	20.053	1179.566	894.047
245.074	20.106	1178.493	893.429
246.088	20.149	1178.146	893.308
247.103	20.347	1177.430	893.706
248.117	20.399	1176.970	893.547
249.132	20.525	1176.559	893.803
250.147	20.788	1175.956	894.615
251.161	20.936	1175.476	894.932
252.176	21.017	1174.522	894.544
253.190	21.036	1173.802	894.014
254.205	21.125	1173.550	894.195
255.220	21.050	1172.903	893.239
256.234	21.116	1172.093	892.884
257.249	21.016	1171.665	891.969
258.263	20.947	1171.044	891.061
259.278	21.010	1169.975	890.493
260.293	20.953	1169.997	890.138
261.307	21.098	1169.645	890.532
262.322	21.117	1168.669	889.808
263.336	21.180	1167.968	889.514
264.351	21.202	1167.406	889.121
265.366	21.229	1166.443	888.443
266.380	21.094	1165.706	887.119
267.395	21.028	1164.838	886.046
268.409	20.997	1163.737	884.971
269.424	20.997	1163.256	884.526
270.439	20.876	1162.661	883.384
271.453	20.876	1161.664	882.548
272.468	20.720	1160.846	881.059
273.482	20.715	1160.150	880.427
274.497	20.693	1159.526	879.763
275.512	20.816	1158.470	879.507
276.526	20.856	1157.845	879.155
277.541	20.733	1157.381	878.105
278.555	20.804	1157.176	878.233
279.570	21.023	1156.359	878.635
280.585	21.236	1155.472	878.957
281.599	21.170	1154.600	877.882
282.614	20.944	1153.164	875.581
283.628	21.013	1151.937	874.918
284.643	20.920	1151.019	873.673
285.657	20.871	1150.318	872.820
286.672	20.900	1149.537	872.294
287.687	21.068	1148.509	872.277
288.701	20.998	1147.709	871.245
289.716	21.018	1147.140	870.834
290.730	20.920	1146.470	869.759
291.745	21.098	1145.830	870.087
292.760	21.111	1145.156	869.561
293.774	21.085	1145.017	869.250
294.789	21.202	1144.530	869.387
295.803	21.237	1143.585	868.766
296.818	21.080	1142.290	866.922
297.833	21.018	1141.937	866.269
298.847	21.047	1140.916	865.566
299.862	21.052	1140.007	864.824
300.876	21.016	1140.014	864.575
301.891	21.149	1139.072	864.439
302.906	21.250	1138.794	864.651
303.920	21.386	1137.975	864.628
304.935	21.610	1137.178	865.054
305.949	21.583	1137.084	864.773
306.964	21.556	1136.532	864.139
307.979	21.433	1135.467	862.651
308.993	21.552	1134.134	862.148
310.008	21.437	1134.227	861.575
311.022	21.627	1132.856	861.389
312.037	21.510	1131.992	860.081
313.052	21.399	1130.810	858.565
314.066	21.191	1130.116	856.938
315.081	21.099	1128.977	855.549
316.095	21.006	1128.093	854.350
317.110	21.055	1127.331	853.934
318.125	21.004	1127.002	853.360
319.139	21.006	1126.005	852.540
320.154	21.083	1125.346	852.344
321.168	21.114	1124.991	852.152
322.183	21.052	1124.523	851.418
323.197	21.106	1123.853	851.097
324.212	21.196	1123.158	850.936
325.227	21.199	1122.656	850.491
326.241	21.371	1121.804	850.611
327.256	21.105	1121.283	848.846
328.270	21.182	1120.227	848.346
329.285	21.072	1119.321	847.049
330.300	21.094	1118.463	846.433
331.314	21.125	1117.483	845.766
332.329	21.307	1116.073	845.505
333.343	21.191	1115.864	844.710
334.358	21.329	1115.148	844.763
335.373	21.486	1114.689	845.096
336.387	21.574	1113.681	844.683
337.402	21.480	1113.007	843.644
338.416	21.604	1112.258	843.598
339.431	21.614	1111.711	843.158
340.446	21.772	1111.307	843.536
341.460	21.855	1111.241	843.811
342.475	21.959	1110.291	843.513
343.489	22.026	1109.140	842.889
344.504	22.176	1108.282	842.879
345.519	22.132	1107.921	842.320
346.533	22.184	1106.659	841.534
347.548	22.218	1106.259	841.322
348.562	22.157	1105.347	840.258
349.577	21.839	1104.450	837.984
350.592	21.691	1103.404	836.408
351.606	21.630	1102.139	835.087
352.621	21.612	1101.268	834.268
353.635	21.441	1100.672	832.925
354.650	21.545	1100.141	832.944
355.665	21.523	1099.317	832.142
356.679	21.605	1099.088	832.286
357.694	21.845	1098.517	832.920
358.708	21.841	1097.838	832.313
359.723	21.799	1097.537	831.813
360.738	21.946	1096.357	831.540
361.752	21.742	1096.461	830.579
362.767	21.937	1095.627	830.795
363.781	21.899	1095.461	830.420
364.796	21.963	1094.782	830.133
365.810	22.249	1094.162	830.940
366.825	22.376	1093.367	830.864
367.840	22.534	1092.850	831.144
368.854	22.568	1092.655	831.080
369.869	22.461	1091.786	829.841
370.883	22.287	1090.800	828.202
371.898	22.189	1089.692	826.826
372.913	22.148	1089.541	826.443
373.927	22.384	1088.763	826.887
374.942	22.412	1088.636	826.851
375.956	22.364	1087.792	825.913
376.971	22.343	1087.077	825.195
377.986	22.423	1086.583	825.122
379.000	22.581	1086.189	825.495
380.015	22.645	1085.890	825.492
381.029	22.715	1084.970	825.045
382.044	22.627	1084.435	824.153
383.059	22.650	1083.583	823.540
384.073	22.527	1082.549	822.112
385.088	22.691	1081.609	822.088
386.102	22.602	1080.663	820.883
387.117	22.346	1079.690	818.876
388.132	22.114	1078.602	816.904
389.146	22.203	1077.768	816.612
390.161	22.122	1077.113	815.666
391.175	22.268	1076.458	815.776
392.190	22.259	1076.361	815.591
393.205	22.522	1075.361	815.976
394.219	22.556	1074.447	815.370
395.234	22.346	1073.314	813.468
396.248	22.315	1072.412	812.568
397.263	22.361	1071.559	812.061
398.278	22.272	1070.431	810.725
399.292	22.056	1069.737	809.132
400.307	22.051	1068.922	808.421
401.321	22.062	1068.528	808.105
402.336	22.141	1067.697	807.765
403.350	22.175	1067.027	807.345
404.365	22.155	1066.644	806.891
405.380	22.415	1065.685	807.287
406.394	22.297	1065.091	806.226
407.409	22.522	1064.458	806.701
408.423	22.615	1064.026	806.732
409.438	22.749	1063.303	806.725
410.453	22.804	1062.636	806.395
411.467	22.794	1062.214	805.962
412.482	22.915	1061.395	805.821
413.496	23.046	1060.645	805.774
414.511	23.070	1060.067	805.376
415.526	23.124	1060.142	805.607
416.540	23.212	1059.502	805.447
417.555	23.106	1059.065	804.564
418.569	23.058	1058.219	803.632
419.584	22.888	1057.951	802.583
420.599	22.890	1057.328	802.050
421.613	157.384	1402.770	1796.167
422.628	144.662	1453.074	1796.253
