DTS Sentinel unit serial number:	SN413079Multiplexer serial number:	ORYXHardware model number:	OX4-SRSoftware version number:	ORYX F/W v4.00 Oryx Data Collector v3.7.2.0data status	okinstallation	princeton_trtdifferential loss correction	single-endedforward channel	channel 2reverse channel	N/Adate	2019/09/13time	15:51:35forward acquisition time	60.00reverse acquisition time	0.00gamma	496.2192k internal	0.2317k external	0.2317temperature offset calibration	1.0214default loss term (dB/km)	0.3790temperature slope calibration	1.0000multiplexer offset coefficient	1.0000multiplexer slope coefficient	1.0000fibre end	0.00T internal ref (°C)	34.62T ext. ref 1 (°C)	4.78T ext. ref 2 (°C)	30.10length (m)	temperature (°C)	Stokes	anti-Stokes-747.200	157.928	0.079	-0.111
-746.185	102.335	0.153	0.181
-745.171	15.365	0.172	-0.136
-744.156	800.000	-0.036	0.147
-743.142	341.724	-0.050	0.099
-742.127	424.197	-0.226	0.492
-741.112	-27.979	0.211	-0.124
-740.098	87.549	-0.088	0.099
-739.083	-124.673	-0.071	-0.011
-738.069	-56.196	0.164	0.074
-737.054	80.691	-0.044	0.048
-736.039	1.821	-0.214	-0.156
-735.025	-88.678	0.117	-0.035
-734.010	45.059	-0.152	-0.141
-732.996	800.000	-0.079	-0.241
-731.981	-73.258	-0.234	-0.087
-730.966	-167.412	-0.126	0.005
-729.952	-66.887	-0.336	0.134
-728.937	-200.000	0.026	0.140
-727.923	-200.000	-0.017	-0.117
-726.908	-169.146	-0.180	0.007
-725.894	-200.000	0.057	0.307
-724.879	-139.841	-0.291	0.031
-723.864	117.287	-0.186	-0.232
-722.850	-13.868	0.127	0.083
-721.835	33.238	-0.295	0.259
-720.821	-186.487	-0.488	-0.007
-719.806	51.623	-0.034	-0.033
-718.791	569.054	0.039	-0.095
-717.777	-170.019	-0.124	-0.004
-716.762	337.786	0.110	-0.217
-715.748	123.435	-0.137	-0.174
-714.733	-126.593	-0.138	-0.021
-713.718	-200.000	0.077	-0.355
-712.704	15.019	0.044	-0.035
-711.689	-197.564	0.043	0.000
-710.675	-200.000	0.086	-0.564
-709.660	509.886	-0.093	-0.218
-708.645	-200.000	0.036	0.265
-707.631	-200.000	-0.004	0.098
-706.616	-57.531	0.031	-0.014
-705.602	800.000	0.027	-0.108
-704.587	774.022	-0.095	0.261
-703.572	-200.000	-0.026	0.295
-702.558	-84.299	0.092	0.029
-701.543	56.729	0.046	-0.045
-700.529	-97.394	0.046	-0.012
-699.514	-156.301	-0.426	0.027
-698.499	-133.198	-0.283	0.036
-697.485	800.000	0.035	0.106
-696.470	-69.141	-0.222	0.086
-695.456	-200.000	0.054	0.249
-694.441	46.610	0.177	0.166
-693.426	800.000	-0.071	-0.294
-692.412	-32.706	-0.292	-0.164
-691.397	-200.000	0.023	0.302
-690.383	-71.797	-0.263	0.099
-689.368	38.808	-0.148	0.133
-688.354	119.680	-0.196	0.245
-687.339	-188.108	-0.181	0.002
-686.324	-167.929	0.148	-0.006
-685.310	-80.813	0.220	-0.074
-684.295	725.081	-0.086	-0.232
-683.281	-200.000	0.004	0.101
-682.266	-123.852	-0.152	0.024
-681.251	9.821	-0.102	0.079
-680.237	-76.944	0.363	-0.128
-679.222	-85.582	0.133	0.042
-678.208	-200.000	-0.009	-0.224
-677.193	-117.549	0.283	-0.052
-676.178	-97.341	0.303	-0.080
-675.164	563.102	-0.175	0.428
-674.149	800.000	-0.023	-0.083
-673.135	191.201	0.094	-0.143
-672.120	70.843	-0.147	0.154
-671.105	800.000	-0.065	-0.190
-670.091	800.000	0.109	-0.322
-669.076	743.501	-0.013	-0.035
-668.062	0.031	-0.255	-0.183
-667.047	28.560	0.063	-0.054
-666.032	24.085	0.239	-0.199
-665.018	-104.075	-0.218	0.051
-664.003	708.278	0.027	-0.073
-662.989	459.605	0.013	0.029
-661.974	800.000	0.093	-0.294
-660.959	313.375	0.091	-0.174
-659.945	-143.694	0.216	-0.021
-658.930	-105.384	-0.410	0.094
-657.916	-102.640	-0.170	-0.041
-656.901	-38.468	0.080	-0.043
-655.886	402.470	-0.137	0.291
-654.872	619.757	-0.077	0.194
-653.857	-74.696	0.121	-0.044
-652.843	122.176	-0.071	0.089
-651.828	-66.785	-0.184	-0.073
-650.814	-106.475	-0.390	0.088
-649.799	-112.808	0.340	0.068
-648.784	75.839	0.225	0.240
-647.770	147.501	-0.150	-0.203
-646.755	-200.000	0.007	-0.042
-645.741	-115.918	-0.250	-0.047
-644.726	-107.653	-0.510	0.113
-643.711	180.603	0.076	0.112
-642.697	383.989	-0.100	0.208
-641.682	321.017	-0.052	-0.099
-640.668	800.000	0.053	-0.178
-639.653	-70.732	-0.166	-0.063
-638.638	-200.000	-0.064	0.289
-637.624	417.378	-0.037	0.079
-636.609	-200.000	0.001	0.318
-635.595	39.257	-0.031	0.028
-634.580	-122.053	0.388	0.064
-633.565	-200.000	0.026	0.431
-632.551	65.753	-0.070	-0.071
-631.536	-200.000	-0.088	0.000
-630.522	134.194	0.116	-0.151
-629.507	267.561	0.064	-0.114
-628.492	-200.000	0.017	0.077
-627.478	-119.254	-0.147	0.026
-626.463	114.892	-0.239	0.294
-625.449	-69.389	-0.207	0.080
-624.434	132.181	0.070	-0.091
-623.419	-175.520	-0.344	0.009
-622.405	140.754	-0.069	-0.091
-621.390	-145.877	-0.421	0.038
-620.376	35.220	-0.158	0.140
-619.361	276.103	-0.072	-0.129
-618.346	236.633	-0.055	-0.092
-617.332	-95.554	-0.145	0.039
-616.317	-200.000	0.006	-0.120
-615.303	800.000	0.097	-0.308
-614.288	-50.497	-0.134	-0.064
-613.273	-60.293	-0.039	0.017
-612.259	145.726	-0.169	-0.229
-611.244	-106.319	-0.191	-0.043
-610.230	0.422	-0.153	-0.110
-609.215	-97.094	0.119	-0.031
-608.201	107.855	-0.122	-0.146
-607.186	-200.000	0.000	0.012
-606.171	163.129	0.090	0.127
-605.157	210.450	0.108	-0.170
-604.142	96.139	0.074	0.086
-603.128	-168.371	0.262	0.010
-602.113	668.382	-0.089	-0.233
-601.098	-27.963	-0.246	0.144
-600.084	197.358	-0.138	0.212
-599.069	-144.015	0.305	0.029
-598.055	-26.905	-0.050	-0.029
-597.040	-41.781	-0.338	0.175
-596.025	-64.840	0.271	-0.110
-595.011	-9.187	-0.417	-0.281
-593.996	618.697	-0.096	-0.244
-592.982	-127.053	-0.116	-0.017
-591.967	-159.440	-0.108	0.006
-590.952	769.591	0.057	-0.155
-589.938	217.406	0.074	0.119
-588.923	-108.320	-0.138	-0.030
-587.909	-153.722	0.206	0.014
-586.894	331.533	-0.156	0.303
-585.879	295.047	-0.120	0.221
-584.865	87.236	-0.053	-0.059
-583.850	-120.205	-0.225	0.039
-582.836	51.822	-0.227	0.217
-581.821	800.000	-0.057	0.191
-580.806	257.072	-0.140	-0.243
-579.792	-200.000	0.007	0.058
-578.777	-49.643	0.066	-0.031
-577.763	-120.557	-0.156	0.027
-576.748	89.771	0.225	-0.253
-575.733	447.327	-0.108	-0.239
-574.719	14.606	0.301	-0.237
-573.704	800.000	0.095	-0.348
-572.690	219.559	0.058	0.093
-571.675	-80.004	0.121	-0.041
-570.661	8.421	0.232	-0.175
-569.646	-42.946	-0.153	0.078
-568.631	-177.061	-0.132	0.003
-567.617	800.000	0.032	0.130
-566.602	25.496	0.072	0.060
-565.588	-28.020	-0.038	0.022
-564.573	185.900	-0.109	0.163
-563.558	87.542	0.034	-0.038
-562.544	-1.638	-0.192	-0.136
-561.529	392.278	-0.149	-0.311
-560.515	187.762	-0.155	0.233
-559.500	153.712	-0.134	-0.184
-558.485	535.857	0.028	-0.067
-557.471	85.622	-0.191	0.211
-556.456	-89.974	0.115	0.034
-555.442	-50.022	-0.311	0.148
-554.427	-28.137	0.446	0.259
-553.412	147.516	-0.252	0.341
-552.398	-101.571	0.091	0.022
-551.383	614.048	-0.098	0.246
-550.369	-200.000	0.162	0.001
-549.354	-1.521	0.062	0.044
-548.339	365.839	0.034	-0.069
-547.325	-49.293	0.237	0.114
-546.310	-74.740	-0.251	-0.091
-545.296	800.000	-0.025	0.074
-544.281	157.584	-0.089	-0.124
-543.266	-64.275	0.038	-0.016
-542.252	348.813	-0.151	0.299
-541.237	49.172	0.186	-0.176
-540.223	800.000	0.110	0.310
-539.208	26.881	-0.017	0.014
-538.193	800.000	-0.054	-0.227
-537.179	-93.852	0.075	-0.021
-536.164	-149.703	0.168	-0.013
-535.150	48.955	0.183	0.173
-534.135	-112.796	-0.064	-0.013
-533.121	19.924	-0.125	-0.101
-532.106	190.178	-0.100	-0.150
-531.091	526.494	-0.182	-0.430
-530.077	-200.000	0.047	0.337
-529.062	800.000	0.043	-0.185
-528.048	31.653	0.258	0.223
-527.033	212.226	-0.155	-0.246
-526.018	246.878	0.101	-0.171
-525.004	-104.657	0.205	0.047
-523.989	29.972	-0.423	0.362
-522.975	18.107	0.215	-0.172
-521.960	-65.240	0.519	-0.210
-520.945	-53.119	-0.294	-0.136
-519.931	318.195	0.081	-0.154
-518.916	312.984	0.098	0.185
-517.902	59.222	0.120	0.118
-516.887	800.000	-0.042	0.173
-515.872	-83.408	-0.249	-0.080
-514.858	800.000	0.036	-0.108
-513.843	149.001	0.111	0.150
-512.829	37.155	0.244	-0.217
-511.814	-200.000	-0.037	0.476
-510.799	-27.910	0.173	0.101
-509.785	-200.000	-0.014	-0.159
-508.770	-80.367	-0.232	-0.078
-507.756	-200.000	-0.028	-0.180
-506.741	181.017	0.126	-0.186
-505.726	-29.804	0.241	0.138
-504.712	151.798	0.027	0.036
-503.697	-200.000	0.009	-0.076
-502.683	-200.000	0.033	-0.216
-501.668	43.566	0.348	0.319
-500.653	-100.189	-0.187	0.047
-499.639	-63.070	-0.167	-0.069
-498.624	-200.000	0.012	0.233
-497.610	315.345	0.067	0.127
-496.595	800.000	0.088	-0.286
-495.581	-4.288	0.164	0.114
-494.566	-120.380	0.295	-0.050
-493.551	5.589	0.147	-0.109
-492.537	-89.744	0.188	-0.055
-491.522	800.000	-0.109	0.322
-490.508	612.188	-0.093	-0.233
-489.493	800.000	-0.079	-0.261
-488.478	-80.175	0.174	-0.058
-487.464	437.125	-0.060	0.130
-486.449	4.801	-0.267	-0.197
-485.435	-200.000	0.022	-0.591
-484.420	-200.000	0.012	-0.126
-483.405	107.152	-0.053	0.063
-482.391	-200.000	-0.028	0.428
-481.376	56.544	-0.028	0.027
-480.362	-33.807	-0.037	-0.021
-479.347	85.012	0.112	0.123
-478.332	800.000	-0.142	0.420
-477.318	-127.413	-0.454	-0.066
-476.303	-83.933	0.094	-0.030
-475.289	-200.000	-0.023	-0.377
-474.274	10.446	-0.095	-0.073
-473.259	-52.361	-0.154	-0.072
-472.245	-114.633	-0.394	0.076
-471.230	-13.189	0.101	0.066
-470.216	-112.559	0.014	-0.003
-469.201	-69.079	-0.310	-0.119
-468.186	75.203	0.161	-0.170
-467.172	-200.000	0.002	-0.104
-466.157	228.929	0.124	-0.203
-465.143	35.468	0.315	-0.277
-464.128	2.853	-0.271	0.197
-463.113	-16.051	0.195	-0.124
-462.099	800.000	-0.068	-0.267
-461.084	-200.000	0.024	0.202
-460.070	71.405	0.027	-0.028
-459.055	-39.030	-0.087	0.046
-458.040	31.953	0.088	0.076
-457.026	23.922	0.047	0.039
-456.011	341.884	0.070	-0.138
-454.997	120.966	0.176	0.219
-453.982	-118.857	-0.085	-0.015
-452.968	800.000	-0.159	0.452
-451.953	190.609	0.149	0.225
-450.938	236.601	-0.110	-0.182
-449.924	-200.000	0.009	-0.105
-448.909	49.388	-0.147	-0.138
-447.895	-200.000	0.048	0.465
-446.880	-64.660	-0.297	0.120
-445.865	107.768	0.109	0.130
-444.851	-187.724	0.321	0.004
-443.836	-49.801	0.162	0.077
-442.822	-124.556	-0.332	-0.052
-441.807	-60.174	0.088	-0.037
-440.792	495.399	0.073	0.169
-439.778	-82.401	-0.088	0.029
-438.763	6.919	-0.226	-0.168
-437.749	-200.000	-0.038	0.310
-436.734	235.933	0.103	0.170
-435.719	24.352	-0.456	0.377
-434.705	-12.364	-0.173	-0.113
-433.690	-26.481	0.426	-0.250
-432.676	122.580	0.170	0.212
-431.661	-200.000	-0.011	0.349
-430.646	800.000	0.047	-0.159
-429.632	-1.390	-0.265	0.187
-428.617	221.359	0.182	-0.293
-427.603	-65.735	-0.332	-0.133
-426.588	-169.824	0.460	0.017
-425.573	-200.000	0.007	-0.319
-424.559	-200.000	0.003	-0.022
-423.544	201.001	0.033	-0.051
-422.530	608.618	0.121	0.302
-421.515	-80.140	0.245	0.082
-420.500	494.469	-0.041	0.095
-419.486	206.668	0.175	0.272
-418.471	170.643	-0.159	0.228
-417.457	183.645	-0.169	0.250
-416.442	-135.299	-0.069	0.008
-415.428	-94.903	0.222	-0.060
-414.413	-128.979	-0.151	0.021
-413.398	264.455	-0.097	-0.168
-412.384	75.911	-0.090	-0.095
-411.369	430.420	0.113	-0.244
-410.355	-147.100	0.062	0.005
-409.340	4.862	-0.146	-0.107
-408.325	-183.695	0.343	0.006
-407.311	28.480	-0.082	-0.070
-406.296	671.185	0.106	-0.275
-405.282	-90.206	-0.474	-0.138
-404.267	343.497	-0.092	0.180
-403.252	-18.644	-0.043	0.027
-402.238	155.373	0.118	0.162
-401.223	-200.000	0.033	0.279
-400.209	-149.808	0.160	0.013
-399.194	6.698	-0.073	-0.055
-398.179	46.223	-0.203	-0.188
-397.165	-200.000	-0.028	0.136
-396.150	560.288	-0.086	0.206
-395.136	800.000	0.041	-0.131
-394.121	332.987	0.145	-0.281
-393.106	200.552	-0.062	0.096
-392.092	-35.982	0.139	-0.075
-391.077	72.777	-0.201	0.210
-390.063	800.000	-0.046	0.180
-389.048	430.088	-0.097	-0.210
-388.033	-200.000	-0.036	-0.312
-387.019	-200.000	0.007	0.036
-386.004	169.715	0.171	-0.244
-384.990	-126.327	0.463	-0.069
-383.975	800.000	0.056	0.212
-382.960	272.728	0.193	-0.341
-381.946	203.845	0.111	-0.171
-380.931	114.209	0.053	0.064
-379.917	-146.347	-0.356	0.031
-378.902	-112.273	-0.190	-0.038
-377.888	-170.413	-0.295	0.010
-376.873	-200.000	-0.241	0.001
-375.858	-80.360	0.200	0.067
-374.844	546.069	0.118	0.282
-373.829	178.045	0.096	0.140
-372.815	18.759	0.066	-0.052
-371.800	800.000	-0.051	-0.186
-370.785	-200.000	0.012	0.322
-369.771	21.079	-0.218	-0.177
-368.756	-52.105	-0.348	0.161
-367.742	308.933	0.054	0.100
-366.727	800.000	0.046	0.193
-365.712	-200.000	0.002	0.364
-364.698	-88.809	0.095	-0.028
-363.683	-27.907	-0.049	-0.029
-362.669	83.230	0.097	-0.105
-361.654	37.417	-0.379	-0.335
-360.639	800.000	0.056	0.159
-359.625	3.514	-0.319	-0.232
-358.610	-63.950	0.213	-0.087
-357.596	-106.147	-0.305	-0.068
-356.581	68.145	0.286	0.292
-355.566	-80.076	-0.275	0.092
-354.552	134.993	0.042	0.054
-353.537	-200.000	0.021	0.233
-352.523	-200.000	-0.005	-0.215
-351.508	367.212	0.064	0.129
-350.493	213.088	0.095	-0.149
-349.479	-67.048	-0.098	0.039
-348.464	800.000	0.034	0.128
-347.450	-200.000	-0.021	-0.279
-346.435	800.000	-0.126	0.449
-345.420	233.914	-0.188	-0.308
-344.406	-200.000	0.008	0.277
-343.391	220.605	0.214	-0.342
-342.377	125.087	0.170	-0.214
-341.362	56.677	0.331	-0.321
-340.348	614.178	-0.099	0.247
-339.333	-124.278	0.197	0.031
-338.318	30.088	-0.206	0.175
-337.304	181.223	-0.118	-0.173
-336.289	140.822	-0.105	0.138
-335.275	534.372	-0.075	-0.178
-334.260	-55.470	0.121	-0.054
-333.245	-49.891	-0.206	-0.098
-332.231	-200.000	0.031	-0.294
-331.216	-86.031	0.083	0.025
-330.202	372.281	0.030	0.060
-329.187	800.000	-0.095	0.402
-328.172	-169.972	0.084	-0.003
-327.158	-92.789	0.129	0.036
-326.143	-35.143	-0.274	-0.149
-325.129	50.176	-0.059	-0.056
-324.114	-64.183	0.164	0.067
-323.099	-200.000	-0.005	0.159
-322.085	-96.571	-0.258	0.068
-321.070	32.304	0.322	-0.277
-320.056	-200.000	-0.008	0.056
-319.041	-200.000	0.033	0.265
-318.026	309.387	-0.137	0.254
-317.012	-89.040	-0.175	0.052
-315.997	95.577	0.152	-0.173
-314.983	-43.573	0.216	-0.108
-313.968	-81.476	0.436	0.143
-312.953	645.708	0.024	0.060
-311.939	-83.248	0.068	-0.022
-310.924	-200.000	-0.024	0.201
-309.910	206.931	0.172	-0.267
-308.895	391.659	-0.142	-0.295
-307.880	-200.000	0.002	0.086
-306.866	800.000	-0.036	0.106
-305.851	800.000	0.053	0.163
-304.837	-200.000	0.005	-0.361
-303.822	-41.067	0.081	-0.041
-302.807	56.345	-0.244	-0.236
-301.793	15.727	-0.271	-0.212
-300.778	-98.736	0.141	-0.036
-299.764	25.465	-0.184	-0.153
-298.749	668.439	0.125	0.323
-297.735	-200.000	-0.021	0.253
-296.720	59.269	0.091	-0.090
-295.705	199.105	0.025	-0.038
-294.691	-142.325	0.111	0.011
-293.676	800.000	0.055	0.198
-292.662	-200.000	-0.015	0.151
-291.647	800.000	0.103	0.289
-290.632	173.355	-0.171	-0.245
-289.618	481.558	-0.110	0.247
-288.603	-152.224	0.162	0.012
-287.589	-128.844	0.231	-0.032
-286.574	282.297	-0.114	0.203
-285.559	-30.923	-0.085	0.048
-284.545	-200.000	-0.032	-0.150
-283.530	-200.000	0.025	0.374
-282.516	-2.436	-0.178	0.124
-281.501	-11.032	-0.231	-0.151
-280.486	94.097	0.115	-0.130
-279.472	800.000	-0.022	0.075
-278.457	178.589	0.097	0.140
-277.443	-155.197	-0.451	-0.029
-276.428	491.709	-0.044	-0.099
-275.413	-157.880	0.154	-0.009
-274.399	800.000	-0.046	0.156
-273.384	-200.000	0.033	-0.151
-272.370	415.130	0.020	0.042
-271.355	-191.334	0.384	-0.004
-270.340	0.525	0.209	-0.149
-269.326	155.730	-0.123	-0.168
-268.311	-80.230	0.298	-0.099
-267.297	74.300	0.118	-0.123
-266.282	-133.356	-0.196	0.025
-265.267	150.528	0.049	-0.066
-264.253	71.149	-0.187	0.192
-263.238	172.240	0.239	-0.341
-262.224	201.759	-0.116	0.178
-261.209	294.924	0.098	0.178
-260.195	30.668	-0.021	0.017
-259.180	52.949	-0.022	0.020
-258.165	-167.972	0.250	0.010
-257.151	161.597	0.109	0.151
-256.136	62.207	-0.234	0.232
-255.122	298.021	0.039	0.070
-254.107	-200.000	0.030	0.159
-253.092	44.423	-0.219	0.200
-252.078	-200.000	-0.040	-0.221
-251.063	-200.000	0.028	-0.202
-250.049	148.124	-0.150	0.201
-249.034	-58.618	0.302	-0.130
-248.019	-200.000	-0.030	0.163
-247.005	-50.137	-0.044	-0.021
-245.990	144.671	0.220	0.291
-244.976	-137.311	0.236	-0.027
-243.961	800.000	0.027	-0.080
-242.946	262.817	0.211	-0.364
-241.932	-200.000	-0.020	0.421
-240.917	105.338	0.172	-0.202
-239.903	30.161	0.242	-0.205
-238.888	-70.438	0.207	0.078
-237.873	-40.063	-0.054	0.028
-236.859	-200.000	-0.018	-0.168
-235.844	-1.419	0.440	-0.308
-234.830	221.557	-0.088	-0.140
-233.815	-31.048	0.168	0.094
-232.800	11.876	0.208	0.159
-231.786	76.370	-0.030	0.031
-230.771	-24.915	-0.318	0.187
-229.757	-28.104	-0.362	-0.208
-228.742	-200.000	-0.002	-0.290
-227.727	-200.000	0.038	-0.276
-226.713	-94.845	0.363	0.098
-225.698	118.562	-0.138	-0.168
-224.684	-200.000	0.010	-0.216
-223.669	106.425	-0.105	0.123
-222.655	-68.488	0.271	-0.104
-221.640	16.661	0.151	0.118
-220.625	215.632	-0.114	0.180
-219.611	-135.876	-0.228	-0.027
-218.596	-200.000	0.062	-0.293
-217.582	800.000	0.064	-0.226
-216.567	-59.632	-0.106	-0.045
-215.552	26.404	0.240	-0.199
-214.538	198.163	-0.066	0.100
-213.523	-113.598	0.344	0.067
-212.509	74.734	-0.252	-0.263
-211.494	261.638	-0.088	0.151
-210.479	87.088	-0.088	0.096
-209.465	147.269	-0.132	-0.177
-208.450	407.716	0.042	-0.087
-207.436	800.000	-0.092	0.304
-206.421	-200.000	-0.011	0.292
-205.406	679.920	-0.111	0.286
-204.392	800.000	-0.069	-0.193
-203.377	-161.726	0.175	0.009
-202.363	800.000	-0.114	-0.319
-201.348	156.355	-0.134	-0.183
-200.333	-200.000	-0.010	-0.381
-199.319	117.137	0.171	0.208
-198.304	-141.537	-0.128	-0.013
-197.290	-200.000	0.013	0.114
-196.275	204.442	0.090	-0.138
-195.260	-200.000	-0.015	0.097
-194.246	-46.693	-0.064	-0.031
-193.231	-73.569	0.351	-0.127
-192.217	-200.000	-0.031	0.186
-191.202	-146.644	0.377	0.032
-190.187	84.038	0.040	-0.043
-189.173	-200.000	-0.001	0.235
-188.158	544.765	-0.129	0.305
-187.144	517.644	0.135	-0.312
-186.129	111.228	-0.043	0.051
-185.114	400.534	0.091	-0.188
-184.100	-89.853	0.230	0.066
-183.085	-33.918	-0.299	-0.163
-182.071	-195.315	-0.405	-0.003
-181.056	-200.000	0.010	0.235
-180.042	-139.066	0.245	0.026
-179.027	-200.000	0.075	0.583
-178.012	-96.862	0.267	0.069
-176.998	-200.000	-0.002	0.056
-175.983	101.226	0.171	0.197
-174.969	121.041	0.087	-0.107
-173.954	-200.000	-0.004	-0.121
-172.939	-200.000	0.001	0.109
-171.925	-23.340	-0.099	0.059
-170.910	-200.000	0.014	-0.646
-169.896	-200.000	0.036	-0.461
-168.881	-200.000	-0.028	0.273
-167.866	-200.000	-0.009	-0.299
-166.852	-129.789	0.329	0.045
-165.837	800.000	-0.106	0.394
-164.823	175.186	0.063	0.090
-163.808	337.766	0.030	0.058
-162.793	-167.179	-0.061	-0.002
-161.779	-162.639	-0.131	0.006
-160.764	-93.659	-0.093	-0.025
-159.750	-149.373	-0.123	-0.010
-158.735	-64.175	0.237	0.096
-157.720	-198.961	0.242	0.001
-156.706	-61.028	0.223	-0.093
-155.691	800.000	0.099	-0.397
-154.677	-15.730	-0.272	-0.171
-153.662	-180.860	0.142	-0.003
-152.647	-31.215	0.144	0.081
-151.633	560.235	0.137	-0.327
-150.618	105.781	-0.170	-0.199
-149.604	41.111	0.290	0.259
-148.589	593.051	-0.017	0.042
-147.574	-81.850	-0.060	-0.019
-146.560	162.675	-0.088	0.122
-145.545	581.916	-0.063	-0.152
-144.531	213.492	0.039	-0.061
-143.516	-130.615	0.204	0.027
-142.502	-73.105	0.252	-0.091
-141.487	78.635	0.232	0.245
-140.472	-58.690	0.243	0.104
-139.458	-200.000	0.066	-0.315
-138.443	-200.000	0.008	0.044
-137.429	-200.000	-0.006	-0.204
-136.414	-133.844	-0.144	-0.018
-135.399	86.098	-0.149	0.162
-134.385	-41.775	0.233	-0.118
-133.370	800.000	0.124	0.426
-132.356	-70.719	-0.248	0.092
-131.341	-163.937	0.196	0.009
-130.326	-100.675	0.162	-0.040
-129.312	800.000	0.071	0.287
-128.297	68.092	-0.179	0.181
-127.283	800.000	0.079	-0.270
-126.268	-200.000	0.027	0.173
-125.253	172.739	-0.160	0.228
-124.239	741.387	-0.156	0.413
-123.224	-44.859	0.291	-0.143
-122.210	-136.801	0.045	0.005
-121.195	-200.000	-0.031	-0.205
-120.180	276.248	-0.153	-0.268
-119.166	113.107	0.162	-0.194
-118.151	150.510	-0.156	0.209
-117.137	-22.827	0.091	0.054
-116.122	-200.000	-0.032	0.182
-115.107	-200.000	0.047	0.298
-114.093	-157.561	-0.293	-0.017
-113.078	150.730	-0.304	0.408
-112.064	-163.929	-0.224	0.010
-111.049	32.688	-0.179	0.153
-110.034	13.341	-0.245	0.188
-109.020	18.895	-0.052	-0.041
-108.005	800.000	-0.031	-0.106
-106.991	800.000	0.040	0.151
-105.976	-117.064	-0.146	0.026
-104.962	-110.375	0.271	0.056
-103.947	-152.249	0.240	0.017
-102.932	-168.865	0.359	0.013
-101.918	-126.954	0.026	-0.004
-100.903	385.500	-0.132	0.269
-99.889	-117.710	0.091	0.016
-98.874	204.378	-0.152	0.233
-97.859	100.949	-0.202	0.231
-96.845	-200.000	0.023	0.115
-95.830	24.026	-0.101	0.083
-94.816	79.660	0.225	0.239
-93.801	-200.000	0.015	0.082
-92.786	800.000	0.017	-0.054
-91.772	-93.439	0.141	0.039
-90.757	-97.989	-0.159	0.041
-89.743	151.331	0.228	0.307
-88.728	141.761	-0.211	0.276
-87.713	95.886	0.084	0.094
-86.699	800.000	0.063	-0.199
-85.684	-61.248	0.206	-0.086
-84.670	350.152	-0.035	-0.069
-83.655	226.856	0.071	-0.114
-82.640	-200.000	0.009	0.204
-81.626	694.782	0.050	-0.128
-80.611	-137.262	-0.072	-0.008
-79.597	135.255	-0.137	0.176
-78.582	162.890	0.027	-0.037
-77.567	357.000	0.087	0.171
-76.553	10.602	0.011	-0.008
-75.538	59.488	-0.192	-0.187
-74.524	-48.270	0.185	0.088
-73.509	800.000	-0.070	0.204
-72.494	129.701	-0.122	0.153
-71.480	-200.000	-0.001	0.194
-70.465	175.048	0.064	0.091
-69.451	326.532	0.149	-0.282
-68.436	-200.000	0.007	0.373
-67.422	105.447	-0.247	-0.287
-66.407	800.000	0.063	0.241
-65.392	800.000	0.050	0.199
-64.378	-73.017	0.382	-0.138
-63.363	-152.940	0.131	-0.009
-62.349	-84.867	0.366	0.113
-61.334	89.879	-0.859	-0.945
-60.319	246.343	0.290	0.482
-59.305	-200.000	-0.128	-0.877
-58.290	528.504	0.426	0.990
-57.276	800.000	0.487	1.693
-56.261	-200.000	98.115	579.560
-55.246	643.175	1398.183	3513.918
-54.232	186.274	2616.928	3838.042
-53.217	116.258	2305.646	2784.530
-52.203	44.431	1917.522	1735.868
-51.188	37.939	1705.606	1494.437
-50.173	35.213	1660.622	1434.588
-49.159	52.545	1709.803	1609.076
-48.144	56.122	1726.998	1652.317
-47.130	37.672	1682.654	1472.071
-46.115	34.785	1667.622	1437.186
-45.100	34.424	1663.467	1430.845
-44.086	34.525	1660.443	1428.945
-43.071	34.544	1657.572	1426.554
-42.057	34.511	1655.277	1424.281
-41.042	34.497	1653.491	1422.578
-40.027	34.595	1651.187	1421.271
-39.013	34.468	1649.659	1418.959
-37.998	34.452	1647.274	1416.732
-36.984	34.521	1646.313	1416.362
-35.969	34.498	1645.243	1415.212
-34.954	34.642	1643.249	1414.507
-33.940	34.749	1640.969	1413.281
-32.925	34.612	1639.533	1410.972
-31.911	34.562	1637.993	1409.223
-30.896	34.630	1636.114	1408.052
-29.881	34.554	1634.681	1406.205
-28.867	34.597	1632.491	1404.578
-27.852	34.552	1631.362	1403.225
-26.838	34.616	1629.494	1402.032
-25.823	34.647	1628.286	1401.164
-24.809	34.664	1626.815	1399.966
-23.794	34.658	1625.566	1398.789
-22.779	34.678	1624.019	1397.551
-21.765	34.609	1622.492	1395.675
-20.750	34.624	1620.755	1394.239
-19.736	34.663	1619.240	1393.162
-18.721	34.783	1617.723	1392.675
-17.706	34.695	1615.995	1390.497
-16.692	34.592	1614.824	1388.684
-15.677	34.712	1612.807	1387.762
-14.663	34.639	1611.637	1386.169
-13.648	34.653	1610.643	1385.363
-12.633	34.558	1609.068	1383.267
-11.619	34.702	1607.295	1382.728
-10.604	34.653	1605.887	1381.109
-9.590	34.762	1604.406	1380.571
-8.575	34.729	1602.962	1379.035
-7.560	34.654	1601.996	1377.602
-6.546	34.769	1600.718	1377.282
-5.531	34.614	1600.027	1375.511
-4.517	34.626	1598.760	1374.457
-3.502	34.611	1597.744	1373.421
-2.487	34.724	1596.142	1372.801
-1.473	34.468	1584.487	1360.897
-0.458	31.517	1564.467	1322.821
0.556	29.891	1563.529	1284.969
1.571	27.087	1586.924	1284.289
2.586	25.999	1598.989	1286.184
3.600	22.849	1545.465	1221.272
4.615	14.113	1434.879	1077.429
5.629	6.168	1369.614	979.027
6.644	4.776	1360.879	964.082
7.659	4.720	1359.888	962.945
8.673	4.780	1358.868	962.510
9.688	4.824	1357.302	961.584
10.702	4.935	1354.857	960.454
11.717	8.564	1362.113	987.959
12.731	17.295	1377.427	1053.305
13.746	22.675	1385.425	1092.756
14.761	22.754	1384.401	1092.340
15.775	21.967	1381.972	1085.461
16.790	20.823	1379.395	1076.277
17.804	20.012	1377.549	1069.733
18.819	19.683	1376.138	1066.514
19.834	19.476	1375.113	1064.348
20.848	19.365	1373.804	1062.556
21.863	19.212	1372.355	1060.402
22.877	19.107	1371.355	1058.889
23.892	18.922	1370.983	1057.370
24.907	19.000	1370.172	1057.131
25.921	18.977	1369.144	1056.102
26.936	19.052	1368.064	1055.635
27.950	19.086	1366.915	1054.867
28.965	19.173	1366.150	1054.714
29.980	19.318	1364.805	1054.468
30.994	19.499	1363.669	1054.603
32.009	19.358	1362.934	1053.080
33.023	19.347	1361.564	1051.860
34.038	19.295	1360.275	1050.459
35.053	19.134	1359.317	1048.644
36.067	19.172	1358.137	1047.871
37.082	19.182	1357.026	1046.985
38.096	19.251	1356.108	1046.599
39.111	19.213	1355.576	1045.866
40.126	19.201	1354.160	1044.612
41.140	18.903	1353.379	1042.105
42.155	18.785	1352.332	1040.494
43.169	18.810	1352.234	1040.479
44.184	18.761	1351.884	1039.819
45.199	18.734	1351.769	1039.476
46.213	18.761	1351.462	1039.311
47.228	19.009	1350.770	1040.187
48.242	19.188	1349.348	1040.084
49.257	19.129	1347.960	1038.564
50.271	19.034	1346.845	1037.041
51.286	19.098	1345.364	1036.191
52.301	19.076	1344.005	1034.922
53.315	18.921	1343.147	1033.238
54.330	18.896	1342.019	1032.129
55.344	18.878	1340.392	1030.678
56.359	18.892	1339.457	1029.950
57.374	18.851	1338.672	1029.013
58.388	18.787	1337.658	1027.761
59.403	18.618	1337.575	1026.592
60.417	18.643	1336.880	1026.117
61.432	18.648	1335.466	1024.974
62.447	18.615	1334.498	1023.942
63.461	18.494	1333.643	1022.476
64.476	18.475	1332.896	1021.696
65.490	18.584	1330.846	1020.686
66.505	18.452	1329.848	1019.043
67.520	18.497	1328.904	1018.499
68.534	18.621	1327.547	1018.102
69.549	18.608	1326.582	1017.194
70.563	18.509	1325.918	1016.009
71.578	18.501	1323.711	1014.182
72.593	18.382	1323.561	1013.271
73.607	18.341	1322.833	1012.382
74.622	18.350	1322.239	1011.895
75.636	18.392	1321.516	1011.500
76.651	18.463	1320.729	1011.225
77.666	18.484	1320.374	1010.990
78.680	18.528	1319.921	1010.808
79.695	18.590	1318.874	1010.282
80.709	18.747	1318.467	1010.806
81.724	18.772	1317.664	1010.248
82.739	18.948	1316.986	1010.677
83.753	18.942	1316.413	1010.112
84.768	19.120	1315.374	1010.270
85.782	19.220	1314.383	1010.003
86.797	19.169	1313.720	1009.109
87.812	19.084	1312.070	1007.252
88.826	19.182	1310.404	1006.459
89.841	19.200	1309.722	1005.949
90.855	19.334	1308.411	1005.634
91.870	19.231	1308.132	1004.730
92.884	19.243	1307.224	1004.017
93.899	19.354	1306.263	1003.837
94.914	19.440	1305.434	1003.611
95.928	19.340	1305.117	1002.693
96.943	19.364	1303.874	1001.792
97.957	19.250	1303.003	1000.371
98.972	19.268	1301.832	999.485
99.987	19.149	1301.058	998.112
101.001	19.247	1300.275	997.992
102.016	19.261	1299.052	997.046
103.030	19.214	1298.556	996.306
104.045	19.169	1297.329	995.016
105.060	19.097	1295.985	993.481
106.074	18.903	1294.278	990.966
107.089	18.677	1293.085	988.665
108.103	18.547	1291.635	986.722
109.118	18.577	1290.339	985.816
110.133	18.573	1289.155	984.800
111.147	18.582	1288.097	983.958
112.162	18.586	1286.815	982.914
113.176	18.643	1285.688	982.293
114.191	18.821	1284.919	982.637
115.206	18.766	1284.051	981.569
116.220	18.708	1282.528	979.989
117.235	18.723	1280.945	978.778
118.249	18.651	1280.437	977.894
119.264	18.615	1279.385	976.799
120.279	18.651	1277.941	975.816
121.293	18.573	1277.210	974.728
122.308	18.470	1276.151	973.248
123.322	18.357	1274.962	971.615
124.337	18.299	1274.246	970.654
125.352	18.394	1273.038	970.187
126.366	18.472	1271.393	969.284
127.381	18.375	1271.164	968.476
128.395	18.386	1269.896	967.490
129.410	18.472	1269.068	967.259
130.424	18.501	1268.584	966.968
131.439	18.767	1267.348	967.440
132.454	18.646	1266.937	966.356
133.468	18.707	1265.878	965.808
134.483	18.633	1265.241	964.822
135.497	18.840	1264.300	965.179
136.512	18.767	1262.761	963.508
137.527	18.672	1261.671	962.060
138.541	18.798	1260.397	961.712
139.556	19.058	1258.321	961.492
140.570	19.066	1257.883	961.119
141.585	19.033	1256.793	960.015
142.600	19.072	1256.101	959.620
143.614	19.197	1255.284	959.606
144.629	19.271	1254.305	959.188
145.643	19.222	1253.296	958.059
146.658	19.150	1251.733	956.377
147.673	18.969	1249.952	953.926
148.687	18.877	1248.568	952.276
149.702	18.721	1247.692	950.662
150.716	18.665	1246.149	949.094
151.731	18.787	1245.041	948.837
152.746	18.825	1243.533	947.816
153.760	18.909	1242.416	947.343
154.775	18.921	1241.726	946.797
155.789	19.071	1240.712	946.768
156.804	19.015	1239.802	945.682
157.819	19.122	1238.822	945.439
158.833	19.243	1238.187	945.536
159.848	19.361	1237.447	945.531
160.862	19.322	1236.483	944.499
161.877	18.978	1235.091	941.469
162.892	18.888	1233.863	939.959
163.906	18.826	1232.709	938.656
164.921	18.757	1232.371	937.938
165.935	18.981	1231.353	938.301
166.950	18.987	1230.416	937.541
167.964	19.052	1229.990	937.487
168.979	18.932	1229.286	936.210
169.994	19.023	1228.104	935.724
171.008	18.952	1227.692	934.943
172.023	19.089	1227.201	935.228
173.037	19.220	1226.196	935.093
174.052	19.190	1224.995	933.930
175.067	18.934	1224.324	931.951
176.081	18.844	1223.021	930.386
177.096	18.847	1222.219	929.713
178.110	18.921	1221.516	929.495
179.125	19.051	1219.722	928.749
180.140	19.108	1218.339	927.918
181.154	19.112	1217.554	927.263
182.169	19.277	1216.796	927.493
183.183	19.272	1215.332	926.266
184.198	19.199	1215.134	925.641
185.213	19.391	1213.718	925.511
186.227	19.340	1212.747	924.415
187.242	19.537	1211.185	924.197
188.256	19.501	1210.915	923.715
189.271	19.450	1210.160	922.787
190.286	19.281	1208.317	920.397
191.300	19.017	1207.114	917.993
192.315	18.915	1206.282	916.734
193.329	18.815	1206.049	915.944
194.344	18.922	1205.657	916.134
195.359	18.935	1205.196	915.770
196.373	19.150	1204.755	916.497
197.388	19.266	1204.483	916.827
198.402	19.486	1203.879	917.458
199.417	19.455	1203.889	917.221
200.432	19.672	1202.666	917.361
201.446	19.787	1201.843	917.259
202.461	19.903	1200.920	917.088
203.475	19.817	1200.221	916.018
204.490	19.549	1199.189	913.733
205.504	19.473	1197.561	912.008
206.519	19.327	1196.251	910.161
207.534	19.321	1195.151	909.209
208.548	19.438	1194.411	909.186
209.563	19.469	1193.692	908.721
210.577	19.423	1192.569	907.542
211.592	19.558	1192.102	907.814
212.607	19.617	1191.140	907.311
213.621	19.758	1190.201	907.257
214.636	19.686	1188.525	905.520
215.650	19.696	1188.364	905.371
216.665	19.615	1187.919	904.527
217.680	19.900	1186.734	905.037
218.694	19.897	1185.858	904.274
219.709	19.912	1185.226	903.789
220.723	19.783	1184.394	902.402
221.738	19.824	1184.007	902.242
222.753	19.812	1182.910	901.260
223.767	19.924	1182.020	901.086
224.782	19.941	1181.914	901.016
225.796	20.032	1181.011	900.721
226.811	19.994	1180.142	899.781
227.826	19.880	1179.229	898.414
228.840	19.858	1178.383	897.577
229.855	19.698	1178.240	896.555
230.869	19.810	1177.376	896.399
231.884	19.771	1176.111	895.156
232.899	19.673	1175.525	894.125
233.913	19.623	1174.698	893.158
234.928	19.566	1173.817	892.113
235.942	19.424	1173.124	890.775
236.957	19.566	1171.831	890.448
237.972	19.485	1171.852	889.969
238.986	19.631	1170.888	889.909
240.001	19.589	1170.145	889.047
241.015	19.677	1169.085	888.619
242.030	19.759	1169.077	888.956
243.045	19.778	1168.027	888.176
244.059	19.787	1167.057	887.403
245.074	19.923	1166.289	887.439
246.088	19.932	1165.923	887.126
247.103	19.844	1165.204	886.049
248.117	20.129	1164.427	886.840
249.132	20.276	1164.112	887.274
250.147	20.415	1163.269	887.263
251.161	20.573	1162.913	887.722
252.176	20.558	1162.302	887.100
253.190	20.645	1161.313	886.709
254.205	20.736	1161.174	886.990
255.220	20.585	1160.869	885.910
256.234	20.656	1159.966	885.501
257.249	20.602	1159.073	884.465
258.263	20.692	1158.078	884.088
259.278	20.736	1157.397	883.711
260.293	20.694	1156.989	883.110
261.307	20.818	1156.322	883.148
262.322	20.864	1155.642	882.787
263.336	20.836	1155.068	882.127
264.351	20.798	1155.371	882.087
265.366	20.862	1154.133	881.390
266.380	20.905	1153.187	880.804
267.395	20.756	1152.347	879.335
268.409	20.669	1151.364	878.066
269.424	20.573	1150.974	877.205
270.439	20.620	1150.459	876.974
271.453	20.706	1149.392	876.514
272.468	20.514	1148.626	874.890
273.482	20.515	1147.798	874.185
274.497	20.543	1147.395	873.942
275.512	20.533	1146.625	873.227
276.526	20.554	1145.727	872.570
277.541	20.651	1144.727	872.217
278.555	20.645	1144.582	872.000
279.570	20.720	1144.133	871.956
280.585	20.867	1143.414	872.069
281.599	20.831	1142.037	870.764
282.614	20.713	1141.009	869.309
283.628	20.720	1139.477	868.101
284.643	20.714	1138.914	867.566
285.657	20.715	1138.460	867.150
286.672	20.708	1137.344	866.185
287.687	20.640	1136.610	865.214
288.701	20.775	1135.617	865.052
289.716	20.822	1134.531	864.381
290.730	20.731	1134.163	863.571
291.745	20.862	1133.177	863.397
292.760	20.810	1133.221	863.096
293.774	20.928	1132.329	862.923
294.789	20.963	1131.946	862.730
295.803	20.959	1131.189	862.057
296.818	20.837	1130.449	860.813
297.833	20.695	1129.720	859.481
298.847	20.763	1128.986	859.181
299.862	20.948	1127.948	859.225
300.876	20.828	1127.480	858.204
301.891	20.925	1127.075	858.295
302.906	21.014	1126.126	857.935
303.920	21.124	1125.639	858.031
304.935	21.217	1124.814	857.781
305.949	21.285	1124.447	857.760
306.964	21.231	1124.052	857.118
307.979	21.205	1122.692	855.877
308.993	21.240	1121.572	855.117
310.008	21.210	1121.241	854.645
311.022	21.231	1120.780	854.319
312.037	21.222	1120.014	853.615
313.052	21.157	1118.483	852.057
314.066	21.052	1117.561	850.765
315.081	20.883	1116.499	849.058
316.095	20.784	1116.176	848.255
317.110	20.912	1115.644	848.398
318.125	20.923	1114.609	847.593
319.139	20.859	1114.121	846.836
320.154	20.871	1113.191	846.113
321.168	20.931	1112.724	845.974
322.183	20.954	1112.179	845.595
323.197	20.987	1111.519	845.179
324.212	21.033	1111.171	845.061
325.227	21.104	1110.439	844.776
326.241	21.064	1109.692	843.938
327.256	20.993	1109.065	843.041
328.270	21.052	1107.649	842.174
329.285	21.018	1107.130	841.542
330.300	20.959	1106.062	840.373
331.314	21.010	1105.217	839.902
332.329	20.924	1104.424	838.813
333.343	21.052	1103.873	838.932
334.358	21.187	1103.003	838.846
335.373	21.286	1101.999	838.487
336.387	21.362	1101.325	838.263
337.402	21.312	1100.582	837.382
338.416	21.369	1100.324	837.386
339.431	21.354	1100.034	837.020
340.446	21.531	1099.191	837.151
341.460	21.614	1098.575	837.002
342.475	21.776	1097.752	837.077
343.489	21.769	1096.948	836.357
344.504	21.727	1096.353	835.629
345.519	21.938	1095.174	835.660
346.533	21.859	1094.480	834.681
347.548	22.021	1093.885	834.922
348.562	21.762	1093.066	832.994
349.577	21.698	1092.062	831.849
350.592	21.517	1091.027	830.131
351.606	21.443	1090.447	829.264
352.621	21.382	1089.680	828.318
353.635	21.359	1088.698	827.391
354.650	21.352	1088.141	826.862
355.665	21.602	1087.459	827.452
356.679	21.656	1086.580	826.964
357.694	21.546	1086.452	826.277
358.708	21.616	1086.088	826.256
359.723	21.606	1085.397	825.609
360.738	21.617	1085.065	825.335
361.752	21.708	1083.816	824.741
362.767	21.722	1083.499	824.493
363.781	21.848	1082.908	824.562
364.796	21.933	1082.623	824.672
365.810	22.082	1081.812	824.682
366.825	22.127	1081.339	824.457
367.840	22.258	1080.956	824.707
368.854	22.305	1080.864	824.785
369.869	22.205	1080.112	823.669
370.883	22.114	1078.762	822.141
371.898	22.013	1077.885	820.929
372.913	21.928	1077.505	820.170
373.927	22.023	1076.915	820.089
374.942	22.215	1076.577	820.656
375.956	22.132	1076.226	819.930
376.971	22.086	1075.285	818.924
377.986	22.129	1074.943	818.792
379.000	22.284	1074.361	819.001
380.015	22.304	1074.018	818.759
381.029	22.433	1073.083	818.570
382.044	22.398	1072.579	817.954
383.059	22.307	1071.485	816.622
384.073	22.322	1070.790	816.091
385.088	22.292	1070.467	815.632
386.102	22.299	1069.110	814.561
387.117	22.191	1067.884	813.056
388.132	22.076	1066.845	811.658
389.146	22.044	1066.108	810.879
390.161	22.015	1065.539	810.241
391.175	21.957	1064.904	809.419
392.190	22.234	1064.207	810.095
393.205	22.481	1063.573	810.677
394.219	22.392	1062.375	809.282
395.234	22.225	1061.623	807.870
396.248	22.132	1060.629	806.615
397.263	22.137	1059.493	805.704
398.278	22.075	1059.168	805.104
399.292	22.053	1058.072	804.095
400.307	21.886	1057.534	802.853
401.321	21.857	1057.381	802.534
402.336	22.011	1056.300	802.346
403.350	21.892	1055.432	801.070
404.365	22.082	1054.840	801.417
405.380	22.118	1054.351	801.138
406.394	22.248	1053.158	800.753
407.409	22.363	1052.640	800.815
408.423	22.430	1052.439	800.897
409.438	22.599	1051.476	800.858
410.453	22.573	1051.143	800.417
411.467	22.634	1050.614	800.221
412.482	22.782	1049.437	799.923
413.496	22.778	1049.045	799.536
414.511	22.741	1048.954	799.226
415.526	22.901	1048.439	799.488
416.540	22.920	1047.802	799.020
417.555	22.909	1047.061	798.331
418.569	22.794	1046.578	797.375
419.584	22.793	1045.957	796.826
420.599	22.801	1045.821	796.689
421.613	155.065	1400.375	1790.407
422.628	142.142	1452.026	1790.532
