DTS Sentinel unit serial number:	SN413079Multiplexer serial number:	ORYXHardware model number:	OX4-SRSoftware version number:	ORYX F/W v4.00 Oryx Data Collector v3.7.2.0data status	okinstallation	princeton_trtdifferential loss correction	single-endedforward channel	channel 2reverse channel	N/Adate	2019/09/11time	04:41:11forward acquisition time	60.00reverse acquisition time	0.00gamma	496.2192k internal	0.2329k external	0.2329temperature offset calibration	0.9937default loss term (dB/km)	0.3790temperature slope calibration	1.0000multiplexer offset coefficient	1.0000multiplexer slope coefficient	1.0000fibre end	0.00T internal ref (°C)	29.50T ext. ref 1 (°C)	-0.29T ext. ref 2 (°C)	23.35length (m)	temperature (°C)	Stokes	anti-Stokes-747.200	557.390	-0.113	0.275
-746.185	415.794	-0.183	0.392
-745.171	-112.350	0.219	0.044
-744.156	-127.729	-0.221	0.032
-743.142	-111.324	-0.251	0.052
-742.127	444.488	0.031	-0.068
-741.112	-182.173	-0.232	0.004
-740.098	123.385	0.242	0.305
-739.083	800.000	-0.049	0.200
-738.069	-75.641	-0.209	-0.075
-737.054	23.860	-0.199	-0.165
-736.039	123.543	-0.177	-0.224
-735.025	-10.539	0.228	-0.152
-734.010	-99.367	-0.347	0.088
-732.996	226.785	0.094	-0.154
-731.981	224.024	-0.156	-0.254
-730.966	-123.803	-0.335	-0.053
-729.952	-200.000	0.018	0.180
-728.937	35.446	0.112	-0.099
-727.923	188.463	0.136	0.205
-726.908	-81.946	-0.382	-0.126
-725.894	122.185	-0.127	-0.160
-724.879	-151.795	-0.181	-0.013
-723.864	-138.175	0.275	-0.031
-722.850	-132.876	0.091	0.012
-721.835	7.809	0.190	-0.143
-720.821	76.208	0.081	-0.086
-719.806	338.199	-0.091	0.179
-718.791	-71.674	0.157	-0.059
-717.777	-172.682	0.238	-0.008
-716.762	94.202	-0.131	0.149
-715.748	-60.588	0.251	-0.107
-714.733	-13.502	0.174	-0.113
-713.718	343.887	-0.079	0.156
-712.704	800.000	-0.043	-0.160
-711.689	-119.699	-0.062	-0.011
-710.675	9.544	-0.213	-0.162
-709.660	-29.830	0.388	0.222
-708.645	800.000	0.032	-0.106
-707.631	2.945	0.016	-0.011
-706.616	-6.092	0.302	-0.208
-705.602	800.000	-0.048	-0.191
-704.587	11.419	0.186	-0.144
-703.572	202.507	-0.149	-0.232
-702.558	472.558	-0.052	-0.119
-701.543	349.973	-0.111	0.221
-700.529	592.741	-0.056	-0.139
-699.514	800.000	-0.136	0.547
-698.499	293.956	0.083	0.153
-697.485	800.000	0.113	-0.340
-696.470	184.515	-0.096	-0.143
-695.456	-73.349	-0.373	-0.137
-694.441	800.000	-0.071	-0.265
-693.426	-200.000	0.013	0.071
-692.412	-200.000	-0.017	-0.250
-691.397	355.567	-0.108	0.216
-690.383	800.000	-0.045	0.140
-689.368	492.889	0.164	0.378
-688.354	-200.000	-0.022	-0.234
-687.339	-3.684	-0.172	-0.120
-686.324	220.763	0.077	0.125
-685.310	663.628	-0.015	0.039
-684.295	-53.001	0.292	0.135
-683.281	-161.234	-0.330	0.017
-682.266	800.000	0.102	-0.326
-681.251	800.000	-0.080	0.321
-680.237	-200.000	0.025	-0.138
-679.222	374.798	0.043	-0.088
-678.208	800.000	0.091	-0.359
-677.193	-37.782	-0.166	0.089
-676.178	171.660	-0.064	-0.092
-675.164	22.806	-0.204	0.168
-674.149	-11.084	0.285	-0.189
-673.135	75.846	-0.032	0.034
-672.120	90.268	0.203	-0.228
-671.105	-114.945	-0.101	-0.019
-670.091	-200.000	-0.058	0.273
-669.076	-23.521	0.180	-0.109
-668.062	8.923	0.055	0.041
-667.047	15.938	-0.278	0.220
-666.032	800.000	0.065	0.230
-665.018	-52.359	-0.098	0.046
-664.003	-200.000	0.013	0.064
-662.989	-7.454	-0.183	-0.125
-661.974	41.254	-0.092	-0.083
-660.959	800.000	-0.021	0.083
-659.945	57.897	-0.237	0.233
-658.930	-200.000	0.046	0.239
-657.916	-93.030	0.138	0.038
-656.901	-64.186	0.204	0.084
-655.886	-78.142	-0.260	-0.090
-654.872	-42.087	-0.276	-0.142
-653.857	44.350	-0.094	0.087
-652.843	-68.257	-0.428	-0.167
-651.828	123.017	0.071	0.089
-650.814	-184.778	0.243	0.004
-649.799	-121.054	-0.346	-0.058
-648.784	-114.475	-0.139	0.027
-647.770	800.000	-0.038	-0.116
-646.755	-200.000	0.054	-0.304
-645.741	-113.520	0.342	-0.067
-644.726	-78.447	-0.234	-0.080
-643.711	110.413	-0.144	-0.174
-642.697	131.604	-0.091	-0.117
-641.682	97.804	-0.175	-0.201
-640.668	-123.383	0.448	0.072
-639.653	-85.015	0.200	-0.063
-638.638	-53.026	0.080	-0.037
-637.624	51.818	-0.215	0.205
-636.609	-200.000	0.007	-0.051
-635.595	-98.208	0.202	-0.052
-634.580	82.481	0.116	-0.127
-633.565	28.700	0.372	-0.316
-632.551	167.515	0.104	-0.148
-631.536	800.000	0.044	-0.142
-630.522	50.423	-0.214	0.202
-629.507	-200.000	0.032	-0.165
-628.492	488.100	0.011	0.026
-627.478	-90.707	0.095	0.027
-626.463	25.582	-0.260	-0.217
-625.449	-104.702	0.055	0.013
-624.434	-105.172	-0.224	-0.051
-623.419	800.000	-0.042	-0.162
-622.405	127.613	0.203	-0.258
-621.390	-155.715	0.366	0.024
-620.376	-48.010	0.037	-0.018
-619.361	-49.067	-0.181	-0.087
-618.346	-200.000	0.008	0.172
-617.332	-200.000	-0.074	-0.347
-616.317	-3.647	-0.181	0.126
-615.303	-105.972	0.265	0.060
-614.288	-85.576	-0.328	-0.102
-613.273	-162.592	-0.260	0.013
-612.259	800.000	0.034	0.098
-611.244	-86.732	0.081	0.025
-610.230	-89.129	-0.303	0.090
-609.215	320.604	0.172	-0.328
-608.201	29.262	0.218	-0.186
-607.186	113.504	-0.116	-0.142
-606.171	-30.404	0.347	0.197
-605.157	-63.092	0.310	0.128
-604.142	315.745	-0.074	-0.140
-603.128	-67.755	0.225	0.088
-602.113	800.000	0.017	-0.059
-601.098	800.000	-0.049	-0.165
-600.084	200.046	-0.074	0.113
-599.069	137.292	0.154	-0.202
-598.055	-78.619	-0.234	0.080
-597.040	765.134	0.047	-0.128
-596.025	-200.000	-0.064	0.285
-595.011	124.174	-0.227	0.285
-593.996	13.389	0.063	-0.049
-592.982	363.014	0.069	0.138
-591.967	383.616	-0.096	0.197
-590.952	-200.000	-0.002	0.207
-589.938	44.962	-0.118	-0.109
-588.923	-200.000	0.051	-0.249
-587.909	-200.000	0.139	-0.000
-586.894	458.881	0.078	-0.175
-585.879	-200.000	-0.039	0.246
-584.865	-47.703	0.259	0.126
-583.850	622.730	0.018	-0.046
-582.836	234.252	-0.076	-0.126
-581.821	-50.866	-0.101	-0.048
-580.806	641.472	-0.101	0.259
-579.792	120.934	-0.174	-0.217
-578.777	800.000	-0.080	0.296
-577.763	445.439	0.038	-0.083
-576.748	800.000	-0.038	0.126
-575.733	-59.094	0.224	-0.097
-574.719	-138.409	-0.342	0.038
-573.704	800.000	-0.080	0.263
-572.690	51.553	0.121	0.115
-571.675	-200.000	-0.082	0.365
-570.661	800.000	0.040	-0.157
-569.646	9.077	0.152	-0.115
-568.631	-0.835	-0.271	0.192
-567.617	-62.740	-0.214	-0.089
-566.602	-121.523	0.445	-0.074
-565.588	209.449	0.141	0.220
-564.573	800.000	0.078	0.288
-563.558	800.000	0.004	0.011
-562.544	67.426	-0.066	0.067
-561.529	24.962	-0.096	-0.079
-560.515	144.176	0.026	-0.035
-559.500	-200.000	-0.111	-0.560
-558.485	-122.685	-0.277	0.045
-557.471	-172.273	0.254	-0.008
-556.456	-1.858	-0.227	0.160
-555.442	291.821	-0.154	0.280
-554.427	-92.603	0.160	0.045
-553.412	290.403	0.148	0.270
-552.398	800.000	-0.014	-0.053
-551.383	-200.000	0.003	-0.159
-550.369	800.000	0.115	-0.417
-549.354	-120.471	-0.139	-0.024
-548.339	-21.494	-0.283	0.173
-547.325	133.406	0.132	-0.170
-546.310	336.507	0.077	-0.150
-545.296	-68.873	-0.163	0.063
-544.281	-123.148	0.304	-0.049
-543.266	-134.226	-0.289	0.036
-542.252	-159.189	0.122	-0.007
-541.237	36.561	0.180	-0.159
-540.223	-200.000	0.016	-0.109
-539.208	119.949	-0.152	0.189
-538.193	-49.060	-0.363	-0.173
-537.179	208.473	-0.198	0.309
-536.164	6.179	0.444	0.329
-535.150	264.365	0.122	0.213
-534.135	-87.991	0.103	-0.031
-533.121	119.320	0.180	-0.222
-532.106	-6.267	-0.290	-0.198
-531.091	-18.762	-0.059	-0.036
-530.077	-200.000	0.000	0.229
-529.062	561.024	-0.165	0.398
-528.048	-115.535	-0.365	-0.069
-527.033	84.500	0.201	0.220
-526.018	-71.828	-0.459	-0.171
-525.004	-1.311	-0.133	0.094
-523.989	-159.477	-0.377	-0.021
-522.975	-200.000	0.013	-0.180
-521.960	-117.165	0.159	0.029
-520.945	-102.018	-0.141	-0.034
-519.931	-174.765	0.270	-0.008
-518.916	-141.342	0.044	0.004
-517.902	-48.147	-0.225	0.108
-516.887	-200.000	-0.008	-0.071
-515.872	100.352	-0.172	0.200
-514.858	165.259	-0.084	-0.118
-513.843	-119.062	0.129	0.022
-512.829	159.550	-0.231	0.321
-511.814	-200.000	-0.007	-0.107
-510.799	800.000	-0.060	-0.191
-509.785	91.736	0.136	-0.153
-508.770	800.000	0.057	-0.201
-507.756	-150.640	0.437	-0.033
-506.741	-84.908	0.270	0.085
-505.726	-59.252	0.177	0.076
-504.712	-1.144	0.161	-0.113
-503.697	-87.442	-0.128	0.039
-502.683	95.056	0.161	0.183
-501.668	-200.000	-0.015	-0.180
-500.653	298.687	-0.119	-0.219
-499.639	-200.000	-0.047	0.221
-498.624	-200.000	0.015	-0.201
-497.610	-34.686	0.187	-0.102
-496.595	-200.000	0.056	0.456
-495.581	5.449	-0.302	0.223
-494.566	88.281	0.121	-0.134
-493.551	-200.000	0.033	-0.275
-492.537	-148.319	0.297	0.024
-491.522	114.557	-0.126	-0.153
-490.508	-200.000	-0.011	0.159
-489.493	-35.934	0.329	-0.177
-488.478	14.501	-0.207	-0.161
-487.464	-36.708	0.096	-0.051
-486.449	239.979	0.072	0.120
-485.435	-63.926	0.141	-0.057
-484.420	97.239	-0.226	-0.258
-483.405	78.206	-0.213	0.227
-482.391	-41.516	0.129	-0.066
-481.376	110.612	0.163	-0.196
-480.362	-200.000	0.009	0.109
-479.347	-6.190	0.055	-0.038
-478.332	-62.102	-0.258	-0.107
-477.318	42.340	-0.101	0.091
-476.303	115.887	0.177	0.216
-475.289	-36.507	-0.272	0.146
-474.274	-111.318	0.220	0.045
-473.259	-84.092	-0.217	-0.069
-472.245	-200.000	0.001	-0.241
-471.230	-95.706	-0.351	-0.094
-470.216	-53.932	-0.270	-0.123
-469.201	-200.000	0.024	-0.177
-468.186	179.744	0.121	-0.177
-467.172	-32.631	-0.238	0.132
-466.157	-200.000	-0.005	-0.239
-465.143	-91.984	0.391	0.110
-464.128	-38.688	0.147	0.077
-463.113	-58.685	0.231	0.100
-462.099	-128.585	0.309	-0.044
-461.084	-200.000	-0.055	0.405
-460.070	77.908	0.125	0.132
-459.055	-7.727	-0.299	-0.201
-458.040	-3.598	0.047	0.032
-457.026	12.849	0.142	0.110
-456.011	-155.696	0.265	0.017
-454.997	-165.938	-0.238	-0.010
-453.982	31.249	-0.076	-0.065
-452.968	-200.000	-0.025	-0.237
-451.953	800.000	0.047	-0.129
-450.938	-71.915	0.193	-0.072
-449.924	-200.000	-0.015	0.074
-448.909	-105.156	-0.187	-0.043
-447.895	-161.567	0.305	0.016
-446.880	-73.156	-0.074	0.027
-445.865	179.329	-0.087	-0.126
-444.851	19.140	0.112	-0.090
-443.836	-56.012	0.176	-0.078
-442.822	-200.000	-0.003	-0.062
-441.807	800.000	0.102	-0.343
-440.792	800.000	0.009	0.027
-439.778	-200.000	-0.036	0.276
-438.763	-106.179	0.050	-0.011
-437.749	545.017	0.062	0.147
-436.734	-200.000	-0.040	0.266
-435.719	-13.564	-0.140	0.090
-434.705	-43.429	0.325	0.164
-433.690	279.804	0.085	0.152
-432.676	-200.000	0.008	-0.207
-431.661	-34.239	0.253	0.138
-430.646	-48.618	-0.354	-0.169
-429.632	-36.056	-0.080	0.043
-428.617	255.837	-0.041	-0.069
-427.603	100.506	0.059	0.069
-426.588	-22.178	0.132	0.080
-425.573	-200.000	-0.001	0.155
-424.559	655.311	-0.074	0.190
-423.544	-115.095	-0.110	0.021
-422.530	102.422	0.218	-0.254
-421.515	-17.708	-0.021	-0.013
-420.500	588.031	-0.042	0.103
-419.486	164.618	0.095	-0.134
-418.471	-44.814	-0.121	-0.060
-417.457	273.469	-0.142	0.249
-416.442	158.066	-0.143	0.197
-415.428	-200.000	-0.003	0.019
-414.413	18.546	0.064	-0.051
-413.398	-63.569	0.279	-0.114
-412.384	-30.620	-0.241	0.135
-411.369	-167.703	0.202	-0.008
-410.355	-37.831	0.382	0.202
-409.340	84.001	0.093	-0.101
-408.325	-200.000	-0.030	-0.246
-407.311	21.376	-0.195	-0.157
-406.296	-200.000	0.018	0.138
-405.282	-50.208	-0.146	-0.069
-404.267	278.193	-0.106	-0.187
-403.252	434.341	-0.012	0.027
-402.238	94.308	0.225	-0.253
-401.223	151.514	-0.075	-0.101
-400.209	-157.817	0.024	-0.001
-399.194	152.466	-0.170	-0.230
-398.179	-200.000	0.004	-0.048
-397.165	11.984	-0.218	-0.166
-396.150	495.743	0.108	-0.246
-395.136	800.000	0.131	-0.361
-394.121	800.000	-0.109	-0.311
-393.106	27.998	-0.110	0.093
-392.092	65.656	-0.145	0.146
-391.077	123.237	-0.275	0.342
-390.063	800.000	-0.065	-0.263
-389.048	7.760	0.139	-0.103
-388.033	98.590	0.045	0.051
-387.019	202.659	-0.231	0.354
-386.004	800.000	0.081	0.304
-384.990	-15.333	-0.156	-0.099
-383.975	-200.000	-0.024	-0.195
-382.960	-16.726	0.026	-0.016
-381.946	-72.171	-0.090	-0.033
-380.931	-200.000	-0.008	-0.099
-379.917	-200.000	0.000	-0.105
-378.902	-101.482	-0.219	0.053
-377.888	-142.506	0.188	-0.018
-376.873	122.584	-0.229	-0.284
-375.858	36.548	-0.052	-0.045
-374.844	800.000	-0.070	0.303
-373.829	226.934	-0.047	0.075
-372.815	-120.656	-0.256	-0.043
-371.800	800.000	-0.109	-0.414
-370.785	52.482	0.245	-0.232
-369.771	15.811	-0.129	-0.100
-368.756	-0.589	0.162	-0.114
-367.742	-200.000	-0.012	0.077
-366.727	-72.981	0.117	-0.043
-365.712	-200.000	-0.057	0.250
-364.698	-65.550	-0.268	0.107
-363.683	294.552	-0.055	0.100
-362.669	-181.388	-0.184	0.004
-361.654	26.978	-0.405	0.337
-360.639	-93.564	-0.140	0.038
-359.625	-117.790	0.267	0.048
-358.610	314.114	0.079	-0.147
-357.596	-29.720	-0.285	-0.161
-356.581	-4.780	0.209	0.143
-355.566	-200.000	-0.000	-0.177
-354.552	800.000	-0.026	0.100
-353.537	-141.464	0.210	-0.021
-352.523	-53.914	0.119	0.054
-351.508	-131.732	-0.351	0.046
-350.493	215.847	0.127	-0.200
-349.479	2.615	-0.178	-0.128
-348.464	-200.000	0.022	-0.208
-347.450	-94.916	-0.283	-0.076
-346.435	800.000	0.090	-0.316
-345.420	-74.182	0.271	0.097
-344.406	3.060	0.167	0.120
-343.391	-65.740	0.202	-0.080
-342.377	-76.204	-0.144	0.050
-341.362	43.642	-0.049	0.045
-340.348	135.274	0.122	0.157
-339.333	218.912	-0.115	0.182
-338.318	-200.000	-0.001	-0.093
-337.304	224.220	0.141	0.227
-336.289	-200.000	-0.080	0.465
-335.275	-50.428	0.212	0.099
-334.260	-200.000	-0.002	-0.077
-333.245	98.094	0.187	0.213
-332.231	-154.903	0.271	0.018
-331.216	-152.992	-0.449	0.031
-330.202	800.000	-0.056	0.195
-329.187	-116.681	0.437	-0.080
-328.172	207.501	0.034	-0.052
-327.158	-70.198	0.206	0.077
-326.143	-105.387	-0.464	0.105
-325.129	-149.545	0.201	-0.016
-324.114	-8.400	0.122	-0.082
-323.099	112.778	-0.148	-0.178
-322.085	262.864	0.129	0.222
-321.070	39.590	0.120	-0.106
-320.056	-36.708	-0.169	-0.090
-319.041	11.263	0.241	0.183
-318.026	50.371	0.157	-0.147
-317.012	800.000	-0.087	0.351
-315.997	-112.217	-0.194	0.039
-314.983	-15.125	0.120	0.076
-313.968	-200.000	0.039	-0.206
-312.953	71.802	0.035	0.036
-311.939	-59.204	0.277	0.118
-310.924	-200.000	0.029	0.164
-309.910	27.842	-0.138	0.115
-308.895	-90.063	0.223	0.064
-307.880	-58.016	0.054	0.023
-306.866	-182.079	0.283	0.005
-305.851	-30.186	0.130	0.073
-304.837	-154.875	0.308	0.020
-303.822	-25.550	0.177	0.104
-302.807	-200.000	0.039	0.320
-301.793	129.770	0.094	-0.119
-300.778	506.616	0.052	0.120
-299.764	752.781	-0.046	-0.123
-298.749	758.353	0.123	-0.329
-297.735	414.516	-0.118	-0.249
-296.720	355.913	0.076	-0.149
-295.705	-90.605	-0.126	0.036
-294.691	800.000	0.073	0.256
-293.676	-200.000	0.026	-0.242
-292.662	237.144	0.176	-0.288
-291.647	-25.933	0.166	-0.097
-290.632	-121.571	-0.369	0.061
-289.618	-121.368	-0.460	0.076
-288.603	-68.908	-0.401	0.153
-287.589	-200.000	0.034	0.292
-286.574	41.434	-0.140	-0.126
-285.559	-81.562	-0.264	0.086
-284.545	800.000	0.015	0.056
-283.530	-131.888	0.147	0.019
-282.516	-200.000	0.011	0.176
-281.501	297.326	-0.142	0.257
-280.486	549.966	-0.182	-0.433
-279.472	67.712	0.078	-0.079
-278.457	800.000	-0.021	0.073
-277.443	167.758	0.080	-0.112
-276.428	800.000	0.062	-0.213
-275.413	-2.844	0.140	0.097
-274.399	129.173	-0.233	0.294
-273.384	-60.025	0.037	-0.016
-272.370	-145.092	-0.164	0.015
-271.355	84.461	-0.127	-0.137
-270.340	49.532	-0.171	0.159
-269.326	104.250	-0.118	-0.137
-268.311	16.545	0.101	0.079
-267.297	231.510	0.225	-0.364
-266.282	58.648	-0.199	-0.193
-265.267	-104.101	-0.158	-0.036
-264.253	-125.641	-0.232	0.035
-263.238	-200.000	-0.071	0.520
-262.224	-200.000	0.047	0.234
-261.209	-29.085	0.315	-0.178
-260.195	-200.000	-0.036	0.387
-259.180	-59.753	-0.321	-0.136
-258.165	-71.676	0.245	-0.091
-257.151	-115.376	0.253	-0.047
-256.136	362.828	-0.039	0.078
-255.122	275.289	-0.220	0.385
-254.107	130.980	-0.044	0.056
-253.092	37.820	-0.056	-0.049
-252.078	-200.000	-0.029	-0.222
-251.063	551.665	-0.205	0.486
-250.049	800.000	-0.054	0.169
-249.034	55.236	0.097	-0.093
-248.019	-200.000	0.005	0.254
-247.005	106.675	-0.108	0.127
-245.990	-29.525	-0.166	0.094
-244.976	401.506	0.127	-0.263
-243.961	46.107	0.091	0.083
-242.946	-195.746	0.067	0.000
-241.932	-108.313	0.146	-0.031
-240.917	-141.351	0.175	0.018
-239.903	-21.466	0.162	0.098
-238.888	-200.000	-0.003	0.255
-237.873	800.000	-0.062	-0.212
-236.859	153.489	0.216	-0.292
-235.844	-200.000	0.031	0.142
-234.830	-200.000	-0.027	-0.152
-233.815	18.817	0.235	-0.186
-232.800	-197.260	0.255	-0.002
-231.786	1.987	-0.296	0.211
-230.771	-37.212	-0.361	0.190
-229.757	-151.284	0.069	-0.005
-228.742	-200.000	-0.076	0.359
-227.727	109.038	-0.116	-0.137
-226.713	76.231	-0.162	0.169
-225.698	800.000	0.059	-0.214
-224.684	406.309	0.088	-0.183
-223.669	-95.161	0.135	-0.036
-222.655	319.337	-0.115	0.215
-221.640	800.000	-0.041	0.124
-220.625	114.456	-0.064	-0.077
-219.611	-55.751	-0.252	0.111
-218.596	-4.831	0.290	-0.197
-217.582	-200.000	0.070	-0.493
-216.567	800.000	-0.117	0.358
-215.552	-200.000	0.010	0.046
-214.538	290.296	0.030	-0.053
-213.523	-183.461	0.160	-0.003
-212.509	32.648	-0.225	0.192
-211.494	32.898	-0.267	0.228
-210.479	-181.207	0.279	-0.005
-209.465	466.404	0.070	0.154
-208.450	328.894	-0.053	-0.100
-207.436	-63.741	-0.228	0.092
-206.421	-83.335	0.424	-0.134
-205.406	292.616	0.040	-0.071
-204.392	-90.535	0.224	-0.064
-203.377	20.692	0.066	-0.053
-202.363	49.695	-0.114	0.106
-201.348	117.590	-0.081	0.098
-200.333	-36.053	-0.337	0.180
-199.319	-141.993	0.342	0.034
-198.304	113.172	0.274	-0.327
-197.290	140.784	-0.132	0.172
-196.275	318.800	0.097	-0.182
-195.260	151.009	-0.161	-0.216
-194.246	-44.854	0.388	0.191
-193.231	165.352	0.089	0.125
-192.217	-200.000	0.005	0.049
-191.202	173.962	-0.168	-0.240
-190.187	79.959	-0.341	-0.362
-189.173	-19.276	0.341	-0.208
-188.158	111.955	-0.115	0.136
-187.144	39.941	0.271	0.240
-186.129	312.514	-0.071	0.132
-185.114	800.000	-0.071	0.218
-184.100	94.769	-0.069	0.077
-183.085	21.855	0.243	0.195
-182.071	36.414	0.178	0.155
-181.056	800.000	0.070	-0.293
-180.042	502.320	0.066	0.151
-179.027	89.428	0.174	0.192
-178.012	86.134	-0.101	-0.110
-176.998	-112.473	-0.049	0.010
-175.983	-83.362	0.323	0.102
-174.969	-159.863	-0.246	0.013
-173.954	-200.000	-0.023	0.236
-172.939	-158.300	0.112	-0.006
-171.925	129.996	0.176	-0.222
-170.910	-14.675	0.078	-0.049
-169.896	-200.000	0.005	0.025
-168.881	800.000	0.082	-0.327
-167.866	-72.289	-0.287	0.105
-166.852	800.000	-0.032	0.110
-165.837	43.975	-0.103	0.093
-164.823	21.955	-0.226	-0.181
-163.808	-84.076	0.287	-0.090
-162.793	370.077	-0.008	-0.015
-161.779	256.925	-0.047	-0.079
-160.764	107.139	-0.211	0.247
-159.750	800.000	0.046	-0.144
-158.735	800.000	-0.112	0.370
-157.720	-21.919	-0.153	-0.092
-156.706	-55.225	-0.152	-0.067
-155.691	-200.000	0.039	-0.344
-154.677	800.000	-0.043	-0.167
-153.662	-89.870	0.068	0.019
-152.647	800.000	0.043	0.177
-151.633	-120.512	-0.173	-0.029
-150.618	-74.153	0.362	0.129
-149.604	100.632	-0.351	0.401
-148.589	231.511	-0.073	0.118
-147.574	-108.181	0.125	-0.027
-146.560	-13.939	0.236	0.150
-145.545	-56.862	-0.122	-0.053
-144.531	-145.520	-0.046	0.004
-143.516	-58.987	-0.113	-0.048
-142.502	36.453	0.106	0.092
-141.487	-122.604	0.231	0.037
-140.472	-200.000	0.009	0.079
-139.458	-79.116	-0.412	-0.138
-138.443	-155.373	-0.138	-0.009
-137.429	-115.346	0.264	0.049
-136.414	380.270	-0.042	-0.084
-135.399	431.189	-0.104	0.221
-134.385	159.182	-0.111	0.152
-133.370	89.446	-0.159	-0.175
-132.356	238.337	-0.152	-0.249
-131.341	-68.427	0.182	-0.070
-130.326	-200.000	-0.003	-0.035
-129.312	-200.000	0.017	0.236
-128.297	-12.136	-0.209	0.134
-127.283	77.992	0.118	-0.124
-126.268	141.811	-0.128	-0.166
-125.253	-68.443	0.236	0.090
-124.239	-108.602	-0.209	0.044
-123.224	87.298	-0.143	0.156
-122.210	-20.344	-0.170	-0.103
-121.195	87.312	0.139	-0.151
-120.180	-23.780	0.312	0.184
-119.166	-41.727	0.246	0.124
-118.151	-200.000	-0.048	0.359
-117.137	-112.744	0.100	0.020
-116.122	-31.275	-0.174	-0.096
-115.107	767.929	0.027	0.073
-114.093	69.564	-0.064	0.064
-113.078	-85.401	-0.318	0.097
-112.064	-96.635	-0.055	-0.014
-111.049	-121.623	-0.147	0.024
-110.034	375.454	0.047	-0.094
-109.020	-167.749	-0.209	-0.008
-108.005	-14.264	0.104	0.066
-106.991	-79.677	0.158	-0.052
-105.976	27.936	-0.268	0.222
-104.962	89.362	-0.129	-0.141
-103.947	214.478	-0.128	-0.200
-102.932	58.725	-0.162	-0.156
-101.918	-84.017	-0.237	-0.074
-100.903	-36.973	-0.337	-0.178
-99.889	110.777	0.274	0.324
-98.874	152.584	0.144	0.193
-97.859	197.675	0.193	0.290
-96.845	657.353	0.075	0.189
-95.830	415.868	0.038	-0.079
-94.816	-84.911	-0.108	-0.033
-93.801	418.986	-0.083	-0.175
-92.786	-21.256	-0.437	-0.262
-91.772	-114.765	0.151	-0.028
-90.757	800.000	-0.128	-0.522
-89.743	295.681	0.146	-0.263
-88.728	109.070	0.173	0.203
-87.713	-42.676	-0.206	0.103
-86.699	174.251	-0.100	0.142
-85.684	122.312	0.116	-0.143
-84.670	25.920	-0.217	0.178
-83.655	-155.457	0.200	0.013
-82.640	-64.171	-0.232	-0.093
-81.626	-142.537	0.127	0.012
-80.611	-29.715	-0.150	-0.084
-79.597	481.062	0.071	0.159
-78.582	128.248	-0.028	0.035
-77.567	800.000	-0.125	0.460
-76.553	-31.707	0.279	-0.153
-75.538	-200.000	0.027	0.397
-74.524	471.547	-0.133	0.295
-73.509	-11.319	-0.333	0.215
-72.494	10.659	-0.169	0.127
-71.480	800.000	-0.046	-0.129
-70.465	-3.982	-0.191	0.130
-69.451	170.930	0.144	0.202
-68.436	120.218	-0.155	0.189
-67.422	418.810	-0.056	0.117
-66.407	-135.551	0.485	-0.057
-65.392	-50.506	-0.323	-0.150
-64.378	-6.152	0.167	0.112
-63.363	126.607	-0.061	-0.076
-62.349	-117.550	0.062	0.011
-61.334	71.021	-0.979	-0.995
-60.319	127.935	0.449	0.560
-59.305	-200.000	-0.102	-0.624
-58.290	260.694	0.667	1.131
-57.276	324.224	0.800	1.498
-56.261	-200.000	105.983	615.144
-55.246	505.497	1509.950	3430.061
-54.232	174.440	2711.870	3844.861
-53.217	104.503	2301.687	2657.523
-52.203	38.703	1905.526	1667.335
-51.188	32.566	1692.094	1433.981
-50.173	30.021	1648.137	1377.771
-49.159	49.331	1701.673	1568.943
-48.144	49.439	1717.392	1584.191
-47.130	32.305	1674.170	1416.598
-46.115	29.603	1660.082	1384.410
-45.100	29.487	1655.034	1379.273
-44.086	29.467	1652.012	1376.551
-43.071	29.290	1649.657	1373.220
-42.057	29.382	1647.396	1371.962
-41.042	29.456	1644.882	1370.369
-40.027	29.440	1643.705	1369.212
-39.013	29.376	1641.712	1367.027
-37.998	29.335	1640.127	1365.346
-36.984	29.481	1638.318	1364.866
-35.969	29.498	1637.585	1364.326
-34.954	29.576	1635.448	1363.070
-33.940	29.562	1633.463	1361.259
-32.925	29.486	1632.476	1359.820
-31.911	29.544	1629.650	1357.839
-30.896	29.397	1628.469	1355.721
-29.881	29.462	1627.048	1354.959
-28.867	29.444	1625.269	1353.293
-27.852	29.471	1624.061	1352.432
-26.838	29.467	1622.547	1351.087
-25.823	29.483	1621.639	1350.396
-24.809	29.547	1619.760	1349.245
-23.794	29.495	1618.568	1347.822
-22.779	29.543	1616.710	1346.571
-21.765	29.574	1615.007	1345.320
-20.750	29.516	1613.863	1343.895
-19.736	29.525	1612.217	1342.537
-18.721	29.520	1611.159	1341.564
-17.706	29.415	1609.746	1339.574
-16.692	29.500	1608.137	1338.797
-15.677	29.532	1606.607	1337.703
-14.663	29.565	1605.417	1336.894
-13.648	29.549	1603.950	1335.504
-12.633	29.514	1602.549	1334.031
-11.619	29.441	1601.300	1332.413
-10.604	29.608	1598.907	1331.577
-9.590	29.539	1598.116	1330.366
-8.575	29.542	1596.928	1329.342
-7.560	29.616	1595.139	1328.339
-6.546	29.614	1594.405	1327.659
-5.531	29.513	1593.606	1326.216
-4.517	29.529	1592.308	1325.193
-3.502	29.551	1591.098	1324.296
-2.487	29.631	1589.643	1323.603
-1.473	29.258	1577.816	1311.050
-0.458	26.523	1558.420	1275.637
0.556	20.716	1559.739	1245.299
1.571	18.490	1584.798	1248.992
2.586	18.207	1598.536	1257.629
3.600	16.381	1546.111	1203.284
4.615	8.735	1436.051	1066.761
5.629	1.182	1372.502	971.235
6.644	-0.126	1364.155	956.914
7.659	-0.292	1363.153	955.067
8.673	-0.378	1362.239	953.797
9.688	-0.384	1360.065	952.156
10.702	-0.541	1357.621	949.363
11.717	2.998	1364.008	976.253
12.731	12.324	1381.864	1048.742
13.746	19.661	1394.139	1105.058
14.761	21.642	1396.783	1119.733
15.775	22.004	1396.474	1121.700
16.790	22.086	1395.772	1121.561
17.804	22.096	1395.578	1121.374
18.819	22.399	1395.471	1123.121
19.834	22.427	1394.762	1122.629
20.848	22.540	1393.727	1122.413
21.863	22.459	1392.917	1121.152
22.877	22.441	1391.970	1120.175
23.892	22.499	1391.156	1119.784
24.907	22.448	1390.278	1118.656
25.921	22.424	1389.803	1118.023
26.936	22.364	1388.379	1116.397
27.950	22.415	1387.460	1115.884
28.965	22.488	1385.830	1114.934
29.980	22.518	1384.696	1114.116
30.994	22.483	1383.849	1113.117
32.009	22.455	1383.172	1112.295
33.023	22.399	1381.704	1110.662
34.038	22.379	1380.457	1109.437
35.053	22.385	1379.664	1108.737
36.067	22.406	1378.840	1108.113
37.082	22.419	1378.012	1107.427
38.096	22.413	1377.095	1106.553
39.111	22.423	1376.467	1106.014
40.126	22.369	1375.727	1104.982
41.140	22.390	1374.954	1104.395
42.155	22.419	1374.554	1104.158
43.169	22.352	1374.657	1103.728
44.184	22.311	1374.507	1103.246
45.199	22.409	1374.033	1103.384
46.213	22.496	1373.181	1103.152
47.228	22.373	1372.535	1101.761
48.242	22.433	1370.870	1100.703
49.257	22.463	1369.348	1099.570
50.271	22.451	1368.121	1098.413
51.286	22.340	1367.067	1096.781
52.301	22.515	1365.452	1096.475
53.315	22.429	1364.824	1095.339
54.330	22.428	1363.872	1094.472
55.344	22.404	1362.914	1093.459
56.359	22.385	1361.853	1092.389
57.374	22.456	1361.069	1092.104
58.388	22.460	1360.176	1091.321
59.403	22.457	1359.668	1090.795
60.417	22.415	1359.202	1090.068
61.432	22.445	1358.389	1089.504
62.447	22.453	1357.785	1088.970
63.461	22.485	1356.556	1088.084
64.476	22.488	1355.133	1086.868
65.490	22.505	1354.110	1086.056
66.505	22.478	1352.784	1084.727
67.520	22.453	1351.764	1083.661
68.534	22.470	1350.944	1083.010
69.549	22.515	1349.642	1082.151
70.563	22.433	1348.746	1080.831
71.578	22.430	1347.687	1079.871
72.593	22.489	1346.965	1079.559
73.607	22.461	1346.247	1078.718
74.622	22.497	1345.416	1078.175
75.636	22.484	1345.073	1077.725
76.651	22.528	1344.096	1077.117
77.666	22.384	1343.942	1076.014
78.680	22.445	1343.261	1075.748
79.695	22.390	1342.277	1074.529
80.709	22.416	1341.641	1074.084
81.724	22.464	1340.915	1073.697
82.739	22.376	1339.912	1072.263
83.753	22.469	1338.820	1071.864
84.768	22.423	1337.497	1070.428
85.782	22.414	1336.841	1069.756
86.797	22.552	1335.120	1069.122
87.812	22.562	1334.136	1068.295
88.826	22.490	1333.131	1066.965
89.841	22.431	1332.207	1065.771
90.855	22.424	1331.424	1065.008
91.870	22.474	1330.282	1064.303
92.884	22.522	1329.240	1063.665
93.899	22.485	1328.754	1062.961
94.914	22.486	1328.257	1062.471
95.928	22.614	1326.827	1062.009
96.943	22.655	1325.971	1061.474
97.957	22.610	1325.350	1060.615
98.972	22.554	1324.564	1059.550
99.987	22.605	1323.281	1058.741
101.001	22.505	1322.714	1057.589
102.016	22.501	1321.934	1056.852
103.030	22.532	1320.680	1055.939
104.045	22.529	1319.938	1055.239
105.060	22.557	1319.032	1054.587
106.074	22.526	1318.188	1053.632
107.089	22.590	1316.617	1052.665
108.103	22.564	1315.840	1051.796
109.118	22.512	1315.012	1050.730
110.133	22.615	1313.756	1050.248
111.147	22.576	1312.603	1049.000
112.162	22.513	1311.293	1047.489
113.176	22.582	1310.674	1047.312
114.191	22.560	1309.572	1046.208
115.206	22.559	1308.553	1045.294
116.220	22.657	1307.022	1044.557
117.235	22.513	1306.308	1043.044
118.249	22.603	1305.231	1042.625
119.264	22.523	1304.742	1041.666
120.279	22.609	1303.942	1041.445
121.293	22.728	1302.898	1041.221
122.308	22.737	1301.981	1040.449
123.322	22.594	1301.140	1038.840
124.337	22.601	1300.499	1038.282
125.352	22.605	1299.507	1037.417
126.366	22.704	1298.429	1037.051
127.381	22.636	1297.827	1036.075
128.395	22.673	1296.245	1034.938
129.410	22.760	1295.521	1034.777
130.424	22.725	1294.816	1033.923
131.439	22.565	1294.585	1032.704
132.454	22.710	1293.153	1032.321
133.468	22.630	1292.557	1031.284
134.483	22.715	1292.047	1031.288
135.497	22.602	1291.697	1030.254
136.512	22.501	1290.521	1028.634
137.527	22.585	1289.338	1028.092
138.541	22.688	1287.502	1027.135
139.556	22.624	1286.122	1025.572
140.570	22.509	1285.804	1024.561
141.585	22.692	1284.056	1024.136
142.600	22.582	1283.127	1022.669
143.614	22.655	1282.127	1022.206
144.629	22.541	1281.613	1021.044
145.643	22.534	1280.393	1019.943
146.658	22.618	1279.187	1019.377
147.673	22.589	1278.218	1018.346
148.687	22.586	1277.307	1017.515
149.702	22.523	1276.559	1016.462
150.716	22.475	1275.499	1015.252
151.731	22.599	1274.124	1014.782
152.746	22.557	1273.412	1013.884
153.760	22.597	1272.134	1013.009
154.775	22.709	1270.810	1012.506
155.789	22.671	1270.044	1011.585
156.804	22.624	1269.322	1010.655
157.819	22.542	1268.691	1009.594
158.833	22.580	1267.616	1008.865
159.848	22.696	1266.984	1008.936
160.862	22.757	1265.942	1008.363
161.877	22.696	1265.610	1007.660
162.892	22.604	1264.695	1006.319
163.906	22.607	1264.214	1005.866
164.921	22.705	1263.124	1005.469
165.935	22.723	1262.311	1004.833
166.950	22.735	1261.597	1004.248
167.964	22.600	1261.361	1003.202
168.979	22.752	1260.603	1003.374
169.994	22.867	1259.775	1003.278
171.008	22.740	1259.196	1002.005
172.023	22.781	1258.351	1001.478
173.037	22.811	1257.854	1001.165
174.052	22.868	1256.850	1000.598
175.067	22.723	1256.335	999.279
176.081	22.709	1255.646	998.566
177.096	22.742	1254.762	997.962
178.110	22.726	1254.043	997.208
179.125	22.720	1252.793	996.095
180.140	22.891	1251.103	995.628
181.154	22.793	1250.439	994.458
182.169	22.866	1249.128	993.736
183.183	22.847	1248.411	992.972
184.198	22.803	1247.565	991.964
185.213	22.892	1246.398	991.447
186.227	22.827	1245.849	990.557
187.242	22.876	1244.644	989.788
188.256	22.803	1244.119	988.872
189.271	22.882	1243.231	988.524
190.286	22.874	1242.318	987.667
191.300	22.882	1241.751	987.171
192.315	22.821	1241.681	986.687
193.329	22.925	1240.694	986.396
194.344	22.941	1240.676	986.384
195.359	22.930	1239.539	985.332
196.373	22.821	1239.506	984.611
197.388	22.730	1239.352	983.891
198.402	22.919	1238.415	984.115
199.417	22.880	1237.919	983.418
200.432	22.748	1237.720	982.434
201.446	22.910	1236.505	982.286
202.461	22.812	1236.040	981.288
203.475	22.780	1235.653	980.713
204.490	22.827	1234.308	979.822
205.504	22.794	1233.420	978.844
206.519	22.902	1232.394	978.544
207.534	22.947	1230.957	977.564
208.548	22.913	1230.111	976.617
209.563	22.924	1229.845	976.380
210.577	22.822	1229.231	975.246
211.592	22.844	1228.680	974.842
212.607	23.048	1226.920	974.482
213.621	22.948	1226.645	973.629
214.636	22.998	1225.794	973.144
215.650	22.925	1225.136	972.131
216.665	22.938	1223.561	970.866
217.680	22.969	1223.268	970.722
218.694	22.946	1222.301	969.739
219.709	23.043	1221.593	969.626
220.723	23.025	1220.729	968.752
221.738	22.963	1220.374	968.046
222.753	22.892	1219.567	966.932
223.767	22.979	1219.152	966.996
224.782	22.994	1218.531	966.499
225.796	23.039	1218.063	966.290
226.811	23.077	1217.229	965.746
227.826	23.012	1216.712	964.899
228.840	23.155	1216.222	965.205
229.855	23.081	1215.264	963.954
230.869	23.058	1214.516	963.152
231.884	23.101	1213.837	962.758
232.899	23.023	1213.473	961.965
233.913	23.131	1212.636	961.801
234.928	23.198	1212.171	961.713
235.942	23.267	1211.215	961.243
236.957	23.169	1210.941	960.408
237.972	23.116	1209.997	959.287
238.986	23.115	1209.632	958.909
240.001	23.180	1208.989	958.664
241.015	23.150	1208.300	957.871
242.030	23.227	1207.589	957.638
243.045	23.326	1206.142	956.943
244.059	23.235	1205.710	956.026
245.074	23.293	1205.120	955.782
246.088	23.245	1204.240	954.744
247.103	23.313	1203.418	954.370
248.117	23.258	1202.626	953.362
249.132	23.291	1202.015	952.973
250.147	23.405	1201.512	953.103
251.161	23.244	1200.768	951.565
252.176	23.403	1199.819	951.582
253.190	23.339	1199.409	950.830
254.205	23.362	1198.585	950.214
255.220	23.401	1197.846	949.753
256.234	23.327	1197.678	949.140
257.249	23.300	1196.826	948.236
258.263	23.279	1196.565	947.833
259.278	23.312	1195.973	947.456
260.293	23.485	1195.162	947.656
261.307	23.400	1194.520	946.606
262.322	23.400	1193.921	946.047
263.336	23.401	1193.513	945.645
264.351	23.490	1192.844	945.509
265.366	23.392	1192.129	944.336
266.380	23.389	1191.350	943.617
267.395	23.404	1190.841	943.212
268.409	23.309	1190.250	942.153
269.424	23.289	1189.724	941.551
270.439	23.382	1189.533	941.810
271.453	23.457	1188.312	941.156
272.468	23.339	1187.617	939.894
273.482	23.380	1186.671	939.282
274.497	23.415	1186.649	939.365
275.512	23.453	1185.975	938.954
276.526	23.520	1185.205	938.613
277.541	23.476	1184.789	937.967
278.555	23.482	1183.843	937.166
279.570	23.551	1182.883	936.691
280.585	23.462	1182.490	935.824
281.599	23.510	1181.601	935.293
282.614	23.472	1180.237	933.933
283.628	23.497	1179.501	933.396
284.643	23.627	1178.913	933.531
285.657	23.625	1177.894	932.630
286.672	23.598	1177.108	931.785
287.687	23.604	1176.714	931.421
288.701	23.497	1176.488	930.602
289.716	23.706	1175.047	930.472
290.730	23.601	1174.674	929.545
291.745	23.590	1174.018	928.887
292.760	23.656	1173.389	928.654
293.774	23.692	1172.862	928.341
294.789	23.772	1172.046	928.031
295.803	23.583	1171.712	926.697
296.818	23.618	1171.212	926.400
297.833	23.770	1170.262	926.363
298.847	23.772	1169.694	925.841
299.862	23.655	1168.851	924.481
300.876	23.867	1167.924	924.771
301.891	23.731	1167.829	923.904
302.906	23.744	1167.376	923.531
303.920	23.826	1166.252	922.990
304.935	23.833	1165.569	922.404
305.949	23.823	1164.996	921.816
306.964	23.820	1164.400	921.246
307.979	23.746	1163.822	920.326
308.993	23.787	1163.348	920.079
310.008	23.879	1162.342	919.681
311.022	23.810	1161.941	918.921
312.037	23.792	1161.108	918.089
313.052	23.782	1160.457	917.443
314.066	23.883	1159.125	916.828
315.081	23.811	1158.491	915.874
316.095	23.723	1158.259	915.160
317.110	23.751	1157.458	914.589
318.125	23.831	1156.537	914.190
319.139	23.869	1156.083	913.947
320.154	23.906	1155.634	913.700
321.168	23.849	1155.126	912.927
322.183	23.839	1154.781	912.520
323.197	23.819	1153.904	911.644
324.212	23.996	1153.031	911.780
325.227	23.883	1152.647	910.816
326.241	23.931	1152.214	910.639
327.256	23.932	1151.381	909.906
328.270	23.953	1150.532	909.265
329.285	24.066	1149.482	908.932
330.300	23.988	1148.920	908.007
331.314	24.007	1147.888	907.207
332.329	24.108	1147.147	907.057
333.343	24.099	1146.506	906.424
334.358	23.934	1146.157	905.230
335.373	23.929	1145.614	904.693
336.387	24.141	1144.441	904.764
337.402	24.155	1143.771	904.223
338.416	24.057	1143.131	903.142
339.431	24.080	1142.986	903.063
340.446	24.072	1142.255	902.368
341.460	24.167	1141.095	901.854
342.475	24.243	1140.112	901.381
343.489	24.154	1139.580	900.427
344.504	24.201	1138.449	899.693
345.519	24.209	1137.735	899.089
346.533	24.190	1137.327	898.590
347.548	24.239	1136.501	898.106
348.562	24.156	1135.989	897.203
349.577	24.159	1134.857	896.246
350.592	24.178	1134.547	896.018
351.606	24.190	1133.870	895.465
352.621	24.280	1132.923	895.087
353.635	24.241	1132.422	894.420
354.650	24.293	1131.766	894.084
355.665	24.307	1130.900	893.386
356.679	24.369	1130.887	893.608
357.694	24.310	1130.234	892.721
358.708	24.369	1129.116	892.054
359.723	24.348	1128.817	891.633
360.738	24.183	1128.105	890.168
361.752	24.166	1128.051	889.959
362.767	24.333	1126.818	889.741
363.781	24.526	1126.002	889.979
364.796	24.474	1125.605	889.330
365.810	24.368	1125.183	888.389
366.825	24.545	1124.567	888.707
367.840	24.415	1124.239	887.721
368.854	24.428	1123.582	887.188
369.869	24.562	1122.736	887.108
370.883	24.522	1122.022	886.268
371.898	24.424	1121.410	885.216
372.913	24.462	1120.764	884.819
373.927	24.516	1120.344	884.673
374.942	24.528	1119.669	884.122
375.956	24.500	1119.526	883.793
376.971	24.468	1118.428	882.690
377.986	24.487	1118.505	882.766
379.000	24.550	1117.669	882.340
380.015	24.618	1116.850	881.951
381.029	24.659	1116.158	881.529
382.044	24.496	1115.835	880.392
383.059	24.641	1115.077	880.428
384.073	24.685	1114.671	880.248
385.088	24.554	1113.528	878.625
386.102	24.570	1112.710	877.982
387.117	24.701	1111.551	877.630
388.132	24.618	1110.898	876.631
389.146	24.769	1110.044	876.618
390.161	24.734	1109.616	876.032
391.175	24.606	1109.255	875.043
392.190	24.654	1108.569	874.657
393.205	24.663	1107.600	873.860
394.219	24.719	1107.164	873.713
395.234	24.775	1106.337	873.259
396.248	24.730	1105.826	872.555
397.263	24.746	1104.441	871.464
398.278	24.825	1104.144	871.540
399.292	24.838	1103.385	870.922
400.307	24.818	1102.899	870.368
401.321	24.746	1102.225	869.410
402.336	24.730	1101.805	868.920
403.350	24.814	1101.017	868.632
404.365	24.821	1100.290	868.014
405.380	24.807	1099.554	867.288
406.394	24.992	1098.487	867.265
407.409	24.969	1097.730	866.480
408.423	24.910	1097.325	865.801
409.438	24.993	1096.529	865.498
410.453	25.048	1095.505	864.878
411.467	24.934	1095.104	863.935
412.482	24.965	1094.186	863.282
413.496	24.954	1093.679	862.755
414.511	24.899	1093.725	862.446
415.526	25.026	1092.651	862.136
416.540	24.885	1092.447	861.222
417.555	25.011	1091.710	861.171
418.569	25.006	1091.298	860.745
419.584	25.083	1090.882	860.708
420.599	24.992	1090.771	860.106
421.613	147.706	1403.832	1798.290
422.628	136.651	1449.412	1798.392
