DTS Sentinel unit serial number:	SN413079Multiplexer serial number:	ORYXHardware model number:	OX4-SRSoftware version number:	ORYX F/W v4.00 Oryx Data Collector v3.7.2.0data status	okinstallation	princeton_trtdifferential loss correction	single-endedforward channel	channel 2reverse channel	N/Adate	2019/09/11time	03:05:11forward acquisition time	60.00reverse acquisition time	0.00gamma	496.2192k internal	0.2330k external	0.2330temperature offset calibration	0.9942default loss term (dB/km)	0.3790temperature slope calibration	1.0000multiplexer offset coefficient	1.0000multiplexer slope coefficient	1.0000fibre end	0.00T internal ref (°C)	29.31T ext. ref 1 (°C)	-0.29T ext. ref 2 (°C)	23.77length (m)	temperature (°C)	Stokes	anti-Stokes-747.200	20.823	-0.197	-0.161
-746.185	-200.000	0.006	-0.073
-745.171	-200.000	-0.045	-0.289
-744.156	74.649	0.047	0.050
-743.142	61.918	0.083	-0.083
-742.127	512.274	-0.148	-0.346
-741.112	106.188	-0.040	0.047
-740.098	-74.709	0.023	-0.008
-739.083	-22.732	0.036	-0.022
-738.069	-23.461	-0.223	-0.135
-737.054	-145.582	0.324	-0.029
-736.039	800.000	0.074	0.267
-735.025	-200.000	-0.026	0.183
-734.010	800.000	-0.080	-0.330
-732.996	327.425	-0.183	-0.354
-731.981	-34.941	-0.131	0.072
-730.966	217.855	-0.108	-0.173
-729.952	-16.408	-0.142	-0.091
-728.937	-106.227	0.142	0.032
-727.923	-147.801	-0.182	-0.015
-726.908	169.809	-0.185	-0.266
-725.894	-29.204	0.130	-0.075
-724.879	-99.641	-0.204	0.051
-723.864	-29.969	0.157	0.090
-722.850	296.500	-0.042	0.078
-721.835	-197.341	-0.191	-0.001
-720.821	-200.000	-0.017	-0.135
-719.806	-140.892	-0.244	-0.025
-718.791	-149.949	0.224	0.018
-717.777	151.538	0.188	-0.258
-716.762	191.238	-0.142	-0.214
-715.748	-180.989	0.116	0.002
-714.733	2.137	-0.212	0.154
-713.718	-153.585	0.182	-0.013
-712.704	-200.000	-0.036	-0.219
-711.689	-75.197	0.031	0.011
-710.675	109.539	-0.082	0.099
-709.660	-83.863	-0.182	0.058
-708.645	483.135	-0.141	-0.323
-707.631	4.382	-0.028	-0.021
-706.616	-109.073	-0.158	-0.034
-705.602	-93.564	0.191	-0.053
-704.587	-123.056	-0.124	0.020
-703.572	-142.013	0.295	-0.030
-702.558	-68.461	-0.394	-0.154
-701.543	-200.000	-0.007	-0.167
-700.529	800.000	0.033	0.120
-699.514	800.000	0.037	0.130
-698.499	-63.115	-0.236	0.098
-697.485	800.000	-0.035	0.108
-696.470	5.712	-0.112	-0.083
-695.456	204.984	-0.136	-0.211
-694.441	344.617	-0.051	-0.101
-693.426	-121.339	0.105	-0.018
-692.412	-66.137	0.092	0.037
-691.397	800.000	0.040	-0.148
-690.383	-112.291	-0.182	0.037
-689.368	-200.000	0.014	0.120
-688.354	104.451	-0.053	-0.062
-687.339	-39.623	0.144	-0.076
-686.324	-43.522	0.241	-0.122
-685.310	178.632	-0.116	-0.171
-684.295	375.086	-0.202	0.413
-683.281	557.537	-0.036	-0.086
-682.266	488.084	-0.111	-0.255
-681.251	-71.403	0.398	0.150
-680.237	-71.671	-0.181	0.068
-679.222	-87.540	-0.122	0.037
-678.208	10.396	0.287	0.219
-677.193	-200.000	-0.027	-0.154
-676.178	94.428	-0.156	-0.178
-675.164	637.286	0.037	-0.095
-674.149	343.026	-0.154	0.303
-673.135	-34.735	-0.171	-0.094
-672.120	164.436	0.128	-0.181
-671.105	165.114	0.262	-0.372
-670.091	-200.000	-0.040	0.183
-669.076	-200.000	0.021	-0.313
-668.062	-71.653	-0.172	-0.065
-667.047	423.222	-0.063	0.135
-666.032	-179.252	-0.231	0.005
-665.018	-96.902	0.152	-0.040
-664.003	218.024	-0.191	-0.306
-662.989	-86.180	0.516	-0.160
-661.974	220.677	0.026	0.042
-660.959	104.453	0.026	-0.031
-659.945	228.502	0.134	-0.219
-658.930	800.000	0.037	-0.161
-657.916	52.642	-0.165	-0.158
-656.901	488.316	-0.054	-0.124
-655.886	-142.062	-0.339	-0.034
-654.872	213.944	-0.111	0.176
-653.857	273.790	-0.139	-0.247
-652.843	-200.000	0.022	0.240
-651.828	-172.978	-0.365	-0.011
-650.814	-93.361	0.265	0.074
-649.799	-200.000	-0.001	-0.103
-648.784	-200.000	0.078	0.343
-647.770	800.000	0.091	0.305
-646.755	-10.971	0.215	-0.142
-645.741	-88.564	-0.306	-0.091
-644.726	-200.000	0.027	0.127
-643.711	127.813	0.130	0.166
-642.697	121.128	0.006	-0.007
-641.682	222.798	0.073	0.117
-640.668	364.427	-0.079	0.159
-639.653	-57.543	0.337	0.148
-638.638	-154.086	-0.118	-0.008
-637.624	-200.000	-0.072	-0.395
-636.609	234.950	-0.026	-0.044
-635.595	-127.935	0.370	0.053
-634.580	-168.779	-0.360	0.014
-633.565	-129.487	-0.364	-0.051
-632.551	-121.705	0.297	0.049
-631.536	389.234	0.041	-0.086
-630.522	-200.000	-0.031	0.355
-629.507	-113.259	-0.354	-0.070
-628.492	800.000	0.081	-0.300
-627.478	-94.180	-0.090	-0.025
-626.463	800.000	0.061	0.251
-625.449	-43.293	0.160	0.081
-624.434	-170.834	0.091	-0.003
-623.419	189.186	-0.076	0.115
-622.405	11.572	-0.153	-0.118
-621.390	102.034	0.132	-0.154
-620.376	800.000	0.022	0.076
-619.361	103.361	-0.142	0.166
-618.346	79.054	-0.185	0.199
-617.332	-86.206	0.254	0.078
-616.317	-175.779	0.310	-0.008
-615.303	-49.724	-0.383	-0.183
-614.288	534.161	0.084	0.199
-613.273	-195.649	-0.270	-0.002
-612.259	-102.940	-0.211	0.050
-611.244	312.775	-0.085	0.161
-610.230	-200.000	-0.001	-0.222
-609.215	-200.000	0.015	-0.243
-608.201	26.373	-0.174	0.145
-607.186	-116.686	0.447	0.082
-606.171	160.756	-0.023	0.032
-605.157	800.000	-0.111	0.329
-604.142	-21.508	0.077	0.047
-603.128	800.000	-0.107	0.354
-602.113	-140.495	-0.185	-0.019
-601.098	440.013	0.122	0.268
-600.084	-200.000	0.017	0.269
-599.069	-1.254	-0.098	0.069
-598.055	-78.705	-0.262	0.089
-597.040	-23.421	0.109	-0.066
-596.025	-200.000	0.016	-0.271
-595.011	426.687	-0.130	-0.280
-593.996	-200.000	0.021	-0.131
-592.982	-81.636	0.281	-0.092
-591.967	-26.696	-0.323	-0.189
-590.952	800.000	-0.061	-0.213
-589.938	524.605	0.104	-0.244
-588.923	637.264	-0.056	-0.143
-587.909	352.215	0.183	-0.363
-586.894	-200.000	-0.013	0.173
-585.879	-155.139	0.265	0.017
-584.865	800.000	-0.058	0.211
-583.850	-67.807	-0.402	-0.157
-582.836	-121.250	0.317	-0.053
-581.821	-200.000	0.007	-0.162
-580.806	221.029	0.070	0.113
-579.792	-182.475	-0.227	-0.004
-578.777	-109.377	-0.189	-0.040
-577.763	-200.000	-0.016	-0.273
-576.748	800.000	0.096	-0.270
-575.733	800.000	-0.094	0.269
-574.719	-13.916	0.239	-0.155
-573.704	-200.000	0.013	0.199
-572.690	-77.519	-0.189	-0.065
-571.675	-90.466	0.433	0.126
-570.661	108.468	-0.190	-0.227
-569.646	-65.519	-0.294	0.118
-568.631	-132.118	0.246	-0.032
-567.617	-58.613	-0.185	0.080
-566.602	-67.997	0.216	-0.084
-565.588	-18.262	-0.066	0.041
-564.573	-200.000	0.028	-0.288
-563.558	-139.146	0.228	0.025
-562.544	46.557	0.178	0.165
-561.529	514.810	-0.091	-0.213
-560.515	33.675	0.236	-0.205
-559.500	-49.568	-0.159	-0.076
-558.485	-200.000	0.008	-0.104
-557.471	693.860	-0.091	-0.237
-556.456	-21.871	0.014	-0.009
-555.442	-24.116	-0.007	-0.004
-554.427	44.902	-0.242	0.223
-553.412	-200.000	-0.024	0.152
-552.398	-150.891	-0.097	-0.007
-551.383	637.497	-0.039	0.100
-550.369	-160.733	-0.120	0.006
-549.354	-66.713	-0.142	-0.056
-548.339	-200.000	-0.013	0.131
-547.325	-200.000	-0.027	-0.209
-546.310	-128.684	-0.377	-0.053
-545.296	-200.000	0.049	-0.363
-544.281	461.189	-0.034	-0.076
-543.266	800.000	-0.048	-0.141
-542.252	0.959	0.131	0.094
-541.237	800.000	0.096	-0.275
-540.223	-9.094	-0.180	-0.120
-539.208	65.612	0.191	0.194
-538.193	-113.514	-0.417	0.082
-537.179	-96.058	0.170	-0.045
-536.164	-116.217	0.336	-0.062
-535.150	-200.000	-0.021	0.141
-534.135	-200.000	-0.047	-0.247
-533.121	-200.000	-0.003	0.028
-532.106	-200.000	0.014	0.074
-531.091	800.000	-0.046	-0.139
-530.077	-160.930	-0.227	-0.012
-529.062	-200.000	0.011	-0.195
-528.048	21.634	-0.105	-0.086
-527.033	-100.524	-0.180	-0.045
-526.018	282.977	-0.054	0.097
-525.004	-62.757	-0.322	-0.133
-523.989	12.456	-0.156	0.120
-522.975	169.811	-0.064	0.092
-521.960	12.896	-0.193	0.149
-520.945	1.059	0.108	0.077
-519.931	135.315	0.217	0.281
-518.916	-200.000	0.069	0.302
-517.902	-17.076	-0.322	-0.203
-516.887	42.006	0.084	0.076
-515.872	116.050	0.126	-0.154
-514.858	-79.442	-0.166	-0.056
-513.843	98.968	-0.145	0.166
-512.829	-57.812	0.118	0.052
-511.814	329.410	0.099	0.189
-510.799	695.076	-0.086	0.224
-509.785	-200.000	0.011	0.166
-508.770	-77.793	0.237	0.082
-507.756	-200.000	0.084	0.491
-506.741	-88.537	0.153	0.046
-505.726	-145.372	-0.171	0.015
-504.712	387.764	-0.093	0.192
-503.697	-200.000	-0.004	0.262
-502.683	153.868	-0.149	0.203
-501.668	-62.760	-0.075	-0.031
-500.653	151.660	0.165	-0.225
-499.639	-148.528	0.137	-0.011
-498.624	645.037	0.038	0.096
-497.610	-49.975	0.322	0.152
-496.595	79.269	0.136	-0.145
-495.581	8.235	0.055	0.041
-494.566	-117.607	0.167	0.030
-493.551	-96.791	-0.356	0.093
-492.537	-16.207	0.217	0.137
-491.522	-200.000	-0.013	0.080
-490.508	-47.001	0.313	-0.152
-489.493	1.774	-0.158	-0.113
-488.478	-130.510	0.245	-0.033
-487.464	678.025	-0.043	0.111
-486.449	-20.440	-0.081	-0.050
-485.435	469.952	0.206	0.461
-484.420	123.872	0.170	0.212
-483.405	-59.211	0.258	-0.111
-482.391	-32.112	-0.135	0.075
-481.376	387.260	-0.057	0.117
-480.362	-200.000	0.002	-0.252
-479.347	800.000	0.012	0.033
-478.332	-200.000	-0.009	0.244
-477.318	428.735	0.132	-0.285
-476.303	582.678	-0.141	-0.345
-475.289	-8.100	-0.249	0.167
-474.274	1.077	-0.283	-0.202
-473.259	78.043	-0.240	0.255
-472.245	-83.208	-0.286	0.091
-471.230	-3.823	0.171	-0.118
-470.216	328.474	-0.018	0.035
-469.201	79.969	0.217	0.232
-468.186	-110.203	0.342	0.071
-467.172	79.625	-0.152	-0.163
-466.157	202.709	-0.053	0.082
-465.143	89.440	0.073	0.081
-464.128	-167.173	0.139	0.006
-463.113	-200.000	-0.022	-0.220
-462.099	38.373	0.062	0.055
-461.084	562.625	0.106	-0.256
-460.070	800.000	0.080	0.251
-459.055	-6.679	-0.253	-0.171
-458.040	76.873	-0.031	0.033
-457.026	97.442	0.158	0.180
-456.011	800.000	0.089	0.273
-454.997	800.000	-0.067	-0.196
-453.982	-200.000	-0.009	0.374
-452.968	-200.000	0.003	0.067
-451.953	-42.729	0.253	-0.128
-450.938	432.349	0.121	0.260
-449.924	544.427	-0.157	-0.374
-448.909	-200.000	0.030	-0.396
-447.895	-61.675	0.200	0.084
-446.880	-92.340	-0.042	0.012
-445.865	800.000	-0.032	0.136
-444.851	-85.790	0.163	-0.050
-443.836	8.693	0.097	0.073
-442.822	-78.377	0.124	0.042
-441.807	-200.000	0.035	0.175
-440.792	47.277	-0.096	0.089
-439.778	33.307	-0.055	0.048
-438.763	541.879	0.092	-0.218
-437.749	112.383	-0.226	-0.272
-436.734	-200.000	-0.053	0.349
-435.719	75.671	0.193	-0.203
-434.705	800.000	-0.045	0.151
-433.690	31.542	-0.069	-0.059
-432.676	-51.992	-0.331	0.153
-431.661	5.798	0.414	0.304
-430.646	-200.000	0.047	-0.227
-429.632	159.192	0.130	-0.179
-428.617	83.862	-0.036	-0.039
-427.603	375.529	0.091	-0.184
-426.588	273.662	-0.127	-0.223
-425.573	-63.910	0.217	-0.088
-424.559	94.462	-0.102	-0.115
-423.544	672.841	0.099	0.254
-422.530	41.816	0.067	0.061
-421.515	251.182	0.090	-0.152
-420.500	800.000	-0.082	-0.309
-419.486	330.663	0.068	-0.131
-418.471	-200.000	-0.013	-0.244
-417.457	-200.000	0.007	-0.105
-416.442	473.649	0.022	-0.050
-415.428	800.000	0.044	-0.128
-414.413	406.794	0.042	-0.089
-413.398	-200.000	0.037	0.261
-412.384	-200.000	0.039	-0.482
-411.369	-200.000	-0.005	-0.448
-410.355	800.000	0.024	-0.067
-409.340	-39.300	-0.198	-0.103
-408.325	-43.180	0.348	-0.175
-407.311	-101.341	0.208	0.050
-406.296	-200.000	0.037	-0.223
-405.282	-92.215	-0.129	-0.036
-404.267	204.810	0.066	0.102
-403.252	-148.239	-0.257	-0.021
-402.238	800.000	0.154	0.426
-401.223	45.156	0.112	-0.103
-400.209	26.256	-0.286	0.238
-399.194	236.476	0.169	-0.277
-398.179	36.012	-0.282	-0.247
-397.165	247.069	-0.173	-0.291
-396.150	461.648	0.066	0.146
-395.136	175.472	0.046	0.067
-394.121	402.891	-0.063	-0.131
-393.106	-8.485	-0.148	0.099
-392.092	-69.098	0.120	-0.046
-391.077	-121.008	0.274	0.046
-390.063	116.323	0.063	0.077
-389.048	78.948	0.082	0.087
-388.033	-83.499	0.251	-0.080
-387.019	-76.268	-0.236	0.082
-386.004	313.281	0.052	0.098
-384.990	35.007	-0.116	-0.101
-383.975	499.685	-0.087	-0.199
-382.960	-111.182	-0.410	-0.083
-381.946	-67.914	-0.193	-0.075
-380.931	-68.068	-0.361	-0.140
-379.917	-200.000	0.017	-0.229
-378.902	-111.175	0.282	0.057
-377.888	-15.670	-0.182	-0.115
-376.873	502.971	-0.129	-0.297
-375.858	193.298	-0.118	0.177
-374.844	51.150	-0.182	0.171
-373.829	713.423	0.114	-0.299
-372.815	-66.588	0.124	0.049
-371.800	-59.942	-0.385	-0.163
-370.785	800.000	-0.082	0.294
-369.771	-67.609	0.219	-0.085
-368.756	36.692	-0.177	0.155
-367.742	-200.000	0.029	0.157
-366.727	-177.746	0.255	-0.006
-365.712	-43.292	-0.204	-0.102
-364.698	-200.000	-0.008	0.252
-363.683	-200.000	0.021	-0.231
-362.669	800.000	0.043	-0.157
-361.654	46.399	-0.207	-0.191
-360.639	-15.855	-0.230	-0.145
-359.625	-200.000	-0.047	-0.240
-358.610	213.168	-0.094	-0.147
-357.596	23.140	0.173	0.141
-356.581	-1.087	-0.144	-0.101
-355.566	123.613	-0.197	-0.245
-354.552	-200.000	0.022	-0.146
-353.537	-84.933	0.125	0.039
-352.523	414.769	0.218	-0.459
-351.508	-58.124	0.256	-0.111
-350.493	-148.225	-0.227	-0.019
-349.479	46.061	-0.178	0.163
-348.464	-200.000	-0.001	-0.147
-347.450	139.050	-0.104	0.136
-346.435	-99.989	0.243	-0.060
-345.420	-108.464	0.359	0.077
-344.406	800.000	0.089	0.282
-343.391	-55.249	0.041	-0.018
-342.377	-39.947	-0.281	0.145
-341.362	-76.937	0.208	-0.072
-340.348	-67.425	0.213	-0.083
-339.333	7.246	0.085	-0.063
-338.318	-200.000	-0.018	0.133
-337.304	28.070	-0.178	0.149
-336.289	557.007	0.113	0.269
-335.275	-200.000	-0.018	0.134
-334.260	-82.769	-0.211	-0.067
-333.245	367.091	-0.116	0.233
-332.231	-111.154	-0.273	0.055
-331.216	33.848	0.198	0.170
-330.202	-122.896	-0.102	-0.016
-329.187	228.183	0.157	0.253
-328.172	-200.000	-0.024	0.262
-327.158	100.399	-0.120	0.138
-326.143	-200.000	-0.027	0.116
-325.129	-114.705	-0.181	0.034
-324.114	46.806	0.176	-0.162
-323.099	-115.874	0.072	-0.013
-322.085	-86.365	0.197	-0.060
-321.070	-200.000	0.009	0.165
-320.056	90.601	-0.206	-0.229
-319.041	-22.695	-0.113	0.068
-318.026	-74.402	-0.249	0.089
-317.012	800.000	-0.131	0.462
-315.997	800.000	0.010	-0.035
-314.983	26.120	-0.046	0.038
-313.968	212.440	0.068	-0.106
-312.953	-49.262	0.109	-0.051
-311.939	-200.000	0.007	-0.234
-310.924	669.684	0.119	0.305
-309.910	800.000	0.017	0.056
-308.895	5.149	-0.357	0.261
-307.880	25.923	0.252	-0.208
-306.866	447.785	-0.077	-0.167
-305.851	-81.831	0.314	-0.102
-304.837	605.422	0.021	-0.052
-303.822	-89.795	0.081	0.023
-302.807	79.019	-0.185	0.196
-301.793	-52.727	-0.126	0.058
-300.778	800.000	-0.046	-0.163
-299.764	703.687	-0.021	-0.056
-298.749	-200.000	0.032	0.175
-297.735	-200.000	0.025	-0.174
-296.720	59.885	0.197	0.193
-295.705	-200.000	-0.030	0.301
-294.691	147.654	0.082	0.109
-293.676	106.217	-0.149	0.174
-292.662	21.931	-0.099	-0.080
-291.647	-200.000	-0.028	-0.148
-290.632	76.139	0.082	-0.085
-289.618	432.613	-0.087	-0.187
-288.603	800.000	-0.175	-0.632
-287.589	-200.000	-0.012	0.168
-286.574	-200.000	0.029	0.185
-285.559	367.842	-0.100	-0.199
-284.545	-151.201	0.326	0.024
-283.530	22.446	-0.161	0.130
-282.516	312.804	-0.127	0.236
-281.501	-120.455	0.091	0.015
-280.486	499.250	-0.194	0.442
-279.472	-99.067	-0.304	0.076
-278.457	714.342	-0.081	-0.211
-277.443	123.315	0.129	0.160
-276.428	73.704	-0.076	0.078
-275.413	-81.766	0.353	0.114
-274.399	-62.076	-0.161	0.067
-273.384	-157.043	0.206	0.012
-272.370	311.637	0.091	0.169
-271.355	-6.414	0.268	-0.181
-270.340	157.562	0.110	-0.151
-269.326	94.140	0.221	0.248
-268.311	-200.000	0.011	-0.084
-267.297	-34.946	0.074	-0.040
-266.282	-137.346	-0.037	0.004
-265.267	388.456	0.041	0.084
-264.253	77.798	0.127	0.134
-263.238	-200.000	0.064	-0.372
-262.224	-150.855	0.341	-0.026
-261.209	800.000	0.078	0.254
-260.195	57.014	0.265	-0.255
-259.180	-126.840	-0.242	0.035
-258.165	-159.728	-0.285	0.016
-257.151	-200.000	-0.010	0.210
-256.136	546.250	-0.131	0.310
-255.122	272.864	0.178	0.311
-254.107	-13.298	-0.389	0.249
-253.092	598.465	-0.118	-0.290
-252.078	-200.000	0.006	0.194
-251.063	-58.108	0.328	0.141
-250.049	-125.937	-0.093	0.014
-249.034	800.000	-0.056	0.238
-248.019	-6.576	-0.121	0.081
-247.005	30.591	-0.253	0.213
-245.990	-156.007	0.325	-0.020
-244.976	313.815	-0.103	-0.192
-243.961	-161.474	-0.107	0.005
-242.946	-6.428	0.086	-0.058
-241.932	-17.858	0.178	-0.111
-240.917	101.792	-0.187	0.215
-239.903	-166.308	-0.206	0.009
-238.888	352.620	-0.071	-0.138
-237.873	-200.000	0.054	0.489
-236.859	-97.447	-0.142	0.036
-235.844	800.000	-0.079	-0.271
-234.830	-6.482	-0.125	0.084
-233.815	-85.284	0.193	0.059
-232.800	-200.000	0.001	-0.174
-231.786	51.184	0.098	-0.092
-230.771	-22.783	0.134	0.080
-229.757	244.619	-0.221	-0.366
-228.742	-80.179	-0.289	0.095
-227.727	-52.389	0.364	0.166
-226.713	800.000	0.071	-0.271
-225.698	64.512	0.343	-0.341
-224.684	-112.542	0.491	0.097
-223.669	800.000	0.103	0.305
-222.655	194.321	-0.048	-0.072
-221.640	800.000	-0.018	-0.059
-220.625	800.000	-0.049	0.166
-219.611	-29.371	-0.176	-0.099
-218.596	-85.756	0.216	0.066
-217.582	436.273	0.048	-0.102
-216.567	-38.626	-0.167	0.087
-215.552	-164.084	-0.087	0.004
-214.538	-200.000	-0.014	0.067
-213.523	-26.307	0.362	-0.209
-212.509	140.704	-0.117	-0.152
-211.494	-110.266	0.174	0.036
-210.479	55.374	0.081	0.078
-209.465	-50.745	0.031	0.014
-208.450	-171.854	0.157	-0.005
-207.436	-200.000	-0.005	0.113
-206.421	-39.693	-0.147	0.076
-205.406	800.000	0.133	0.499
-204.392	-49.628	-0.058	0.027
-203.377	2.523	0.285	-0.203
-202.363	208.320	0.174	-0.268
-201.348	-56.614	0.106	-0.046
-200.333	-200.000	0.029	-0.137
-199.319	104.962	0.017	-0.020
-198.304	242.576	-0.191	-0.315
-197.290	-200.000	0.004	-0.191
-196.275	-200.000	-0.042	0.250
-195.260	-114.356	-0.233	0.044
-194.246	1.273	0.061	-0.043
-193.231	-200.000	0.043	-0.330
-192.217	180.673	0.135	0.196
-191.202	101.608	0.301	-0.345
-190.187	409.425	-0.110	0.230
-189.173	178.062	-0.262	-0.376
-188.158	121.176	0.050	-0.062
-187.144	-200.000	-0.076	-0.337
-186.129	-98.197	-0.321	-0.081
-185.114	-200.000	0.033	-0.167
-184.100	32.566	0.231	0.196
-183.085	-150.129	0.227	0.017
-182.071	411.686	-0.032	-0.067
-181.056	-35.055	0.070	0.038
-180.042	-113.029	-0.167	0.032
-179.027	-45.684	0.194	-0.094
-178.012	-200.000	0.023	-0.200
-176.998	-0.684	0.066	0.046
-175.983	498.590	0.094	0.214
-174.969	-5.154	0.324	0.219
-173.954	-105.188	-0.215	-0.048
-172.939	-126.193	-0.328	0.048
-171.925	750.025	0.040	0.107
-170.910	86.719	0.242	-0.263
-169.896	-38.421	0.087	0.046
-168.881	-200.000	-0.072	0.345
-167.866	800.000	-0.100	-0.373
-166.852	-200.000	0.110	-0.520
-165.837	533.842	-0.065	0.152
-164.823	-81.008	-0.502	0.164
-163.808	-189.229	-0.189	0.002
-162.793	-52.444	0.071	0.032
-161.779	279.518	0.155	0.272
-160.764	800.000	-0.048	0.137
-159.750	-32.588	-0.162	0.089
-158.735	-200.000	0.002	0.026
-157.720	197.241	0.047	-0.070
-156.706	-144.119	0.115	-0.011
-155.691	-111.338	0.174	-0.035
-154.677	335.354	-0.178	-0.340
-153.662	-173.442	0.135	-0.004
-152.647	178.742	-0.127	0.182
-151.633	37.402	-0.141	-0.123
-150.618	800.000	-0.014	-0.049
-149.604	49.833	0.141	0.131
-148.589	-67.529	0.282	0.109
-147.574	75.952	-0.126	0.131
-146.560	128.368	-0.197	0.246
-145.545	110.077	0.073	-0.086
-144.531	-200.000	0.043	0.209
-143.516	333.576	-0.104	0.197
-142.502	-200.000	0.005	0.259
-141.487	-39.208	-0.222	-0.115
-140.472	800.000	-0.092	0.273
-139.458	-7.888	0.218	-0.144
-138.443	38.233	0.333	-0.292
-137.429	-175.471	0.331	0.009
-136.414	34.394	0.118	-0.101
-135.399	-173.428	-0.294	0.009
-134.385	-80.682	-0.095	0.031
-133.370	-35.704	0.172	-0.092
-132.356	496.408	-0.191	-0.432
-131.341	-6.822	0.129	0.086
-130.326	141.168	0.154	0.201
-129.312	800.000	0.061	0.209
-128.297	441.567	0.031	-0.066
-127.283	-200.000	0.017	-0.201
-126.268	30.524	-0.151	-0.127
-125.253	-95.482	0.074	-0.020
-124.239	272.089	0.124	0.216
-123.224	17.078	-0.091	0.071
-122.210	-69.197	-0.236	0.089
-121.195	-121.023	0.116	0.019
-120.180	-126.134	-0.030	-0.004
-119.166	423.470	-0.171	-0.361
-118.151	134.586	-0.197	-0.251
-117.137	28.394	0.032	-0.027
-116.122	15.748	0.185	0.143
-115.107	-116.327	0.044	0.008
-114.093	800.000	0.058	-0.227
-113.078	-22.908	0.062	-0.037
-112.064	427.485	-0.098	0.207
-111.049	-20.919	-0.274	0.165
-110.034	-40.436	-0.139	-0.071
-109.020	-162.539	-0.410	-0.020
-108.005	655.774	-0.071	0.179
-106.991	-193.478	0.242	0.002
-105.976	-200.000	-0.037	-0.309
-104.962	-159.991	0.396	-0.021
-103.947	47.713	0.145	0.133
-102.932	84.025	-0.234	0.251
-101.918	508.743	-0.052	-0.119
-100.903	-200.000	-0.040	0.402
-99.889	-45.789	0.311	0.151
-98.874	208.989	0.111	-0.170
-97.859	-42.166	0.322	-0.161
-96.845	-125.866	0.216	0.032
-95.830	-189.117	0.149	0.002
-94.816	-7.489	0.378	0.251
-93.801	37.171	0.098	-0.085
-92.786	-200.000	-0.020	0.247
-91.772	-46.943	0.300	0.144
-90.757	-101.891	-0.140	-0.033
-89.743	18.876	0.207	0.163
-88.728	-96.961	0.197	0.051
-87.713	-163.298	-0.410	0.019
-86.699	-131.075	-0.187	-0.024
-85.684	55.716	0.114	0.108
-84.670	-200.000	0.014	-0.226
-83.655	-131.408	-0.152	0.020
-82.640	-200.000	0.015	0.172
-81.626	112.611	0.302	0.359
-80.611	-200.000	0.007	-0.135
-79.597	220.735	-0.148	-0.233
-78.582	-200.000	0.031	0.151
-77.567	-88.800	0.189	0.055
-76.553	-200.000	-0.038	0.224
-75.538	-200.000	0.029	-0.196
-74.524	-151.953	-0.341	0.024
-73.509	-170.474	-0.309	-0.011
-72.494	800.000	-0.039	0.139
-71.480	-123.264	0.130	0.020
-70.465	-200.000	0.070	-0.509
-69.451	-70.627	0.339	-0.126
-68.436	800.000	-0.039	0.127
-67.422	-41.579	-0.260	0.131
-66.407	-87.648	0.082	-0.024
-65.392	-33.674	0.225	-0.122
-64.378	-86.050	-0.132	-0.040
-63.363	-65.854	0.304	0.119
-62.349	-200.000	0.072	0.354
-61.334	93.380	-1.099	-1.219
-60.319	229.629	0.315	0.504
-59.305	800.000	-0.306	-1.067
-58.290	234.339	0.708	1.143
-57.276	800.000	0.453	1.276
-56.261	-200.000	106.025	613.711
-55.246	510.604	1508.510	3438.899
-54.232	174.785	2711.968	3845.881
-53.217	104.265	2300.554	2652.355
-52.203	38.568	1904.083	1663.884
-51.188	32.506	1690.237	1431.054
-50.173	29.910	1646.822	1374.993
-49.159	48.828	1700.907	1563.494
-48.144	48.948	1716.688	1578.847
-47.130	31.942	1673.463	1412.388
-46.115	29.316	1658.830	1380.352
-45.100	29.219	1653.847	1375.423
-44.086	29.120	1651.790	1372.921
-43.071	29.180	1648.705	1370.748
-42.057	29.204	1645.955	1368.588
-41.042	29.207	1644.184	1367.085
-40.027	29.233	1641.951	1365.361
-39.013	29.224	1640.222	1363.803
-37.998	29.088	1639.189	1361.889
-36.984	29.234	1637.315	1361.351
-35.969	29.236	1636.141	1360.339
-34.954	29.315	1634.349	1359.376
-33.940	29.237	1632.538	1357.243
-32.925	29.383	1630.612	1356.661
-31.911	29.168	1629.202	1353.856
-30.896	29.250	1627.497	1352.987
-29.881	29.210	1625.690	1351.137
-28.867	29.324	1623.918	1350.448
-27.852	29.324	1622.867	1349.518
-26.838	29.376	1620.948	1348.246
-25.823	29.288	1619.820	1346.614
-24.809	29.357	1618.370	1345.857
-23.794	29.362	1617.283	1344.935
-22.779	29.352	1615.686	1343.481
-21.765	29.308	1614.139	1341.822
-20.750	29.236	1612.324	1339.735
-19.736	29.341	1610.966	1339.319
-18.721	29.423	1609.303	1338.482
-17.706	29.365	1607.594	1336.583
-16.692	29.424	1606.270	1335.854
-15.677	29.300	1605.341	1334.133
-14.663	29.440	1603.594	1333.639
-13.648	29.423	1602.543	1332.593
-12.633	29.370	1600.790	1330.700
-11.619	29.279	1599.626	1329.022
-10.604	29.428	1597.716	1328.456
-9.590	29.300	1597.156	1327.012
-8.575	29.381	1595.547	1326.210
-7.560	29.357	1594.677	1325.258
-6.546	29.358	1593.408	1324.157
-5.531	29.401	1592.399	1323.580
-4.517	29.323	1591.160	1321.938
-3.502	29.378	1589.731	1321.089
-2.487	29.493	1587.895	1320.331
-1.473	29.099	1576.711	1308.185
-0.458	26.513	1557.380	1273.914
0.556	20.783	1559.442	1244.150
1.571	18.735	1583.824	1248.614
2.586	18.526	1597.140	1257.472
3.600	16.862	1544.485	1204.094
4.615	8.953	1434.341	1065.755
5.629	1.216	1371.038	969.334
6.644	-0.100	1362.788	955.056
7.659	-0.353	1362.262	952.994
8.673	-0.306	1360.604	952.044
9.688	-0.391	1358.483	949.943
10.702	-0.505	1355.705	947.195
11.717	2.998	1362.840	974.332
12.731	12.348	1380.082	1046.370
13.746	19.561	1392.208	1101.659
14.761	21.483	1394.493	1115.638
15.775	21.781	1394.510	1117.455
16.790	21.887	1393.920	1117.559
17.804	21.962	1393.415	1117.534
18.819	22.190	1393.313	1118.804
19.834	22.303	1392.023	1118.389
20.848	22.246	1391.688	1117.654
21.863	22.257	1390.774	1116.892
22.877	22.259	1390.005	1116.192
23.892	22.202	1389.448	1115.284
24.907	22.211	1388.308	1114.325
25.921	22.259	1387.428	1113.826
26.936	22.233	1386.956	1113.183
27.950	22.303	1385.117	1112.053
28.965	22.266	1384.243	1111.014
29.980	22.202	1383.160	1109.647
30.994	22.179	1382.104	1108.556
32.009	22.331	1380.734	1108.315
33.023	22.261	1379.871	1107.085
34.038	22.194	1378.971	1105.839
35.053	22.255	1377.595	1105.026
36.067	22.204	1376.622	1103.825
37.082	22.207	1376.077	1103.310
38.096	22.256	1375.085	1102.724
39.111	22.242	1374.076	1101.733
40.126	22.224	1373.596	1101.133
41.140	22.246	1373.183	1100.841
42.155	22.182	1372.377	1099.700
43.169	22.164	1372.866	1099.884
44.184	22.290	1371.924	1099.816
45.199	22.189	1371.940	1099.099
46.213	22.244	1371.079	1098.657
47.228	22.240	1370.362	1097.959
48.242	22.251	1368.953	1096.805
49.257	22.128	1367.896	1095.095
50.271	22.219	1366.276	1094.269
51.286	22.334	1364.634	1093.572
52.301	22.250	1363.674	1092.184
53.315	22.195	1362.821	1091.058
54.330	22.228	1361.903	1090.431
55.344	22.238	1360.710	1089.442
56.359	22.157	1359.669	1088.011
57.374	22.230	1358.703	1087.594
58.388	22.308	1358.062	1087.470
59.403	22.211	1358.055	1086.768
60.417	22.177	1357.306	1085.861
61.432	22.178	1356.753	1085.330
62.447	22.180	1355.827	1084.504
63.461	22.260	1354.241	1083.630
64.476	22.266	1353.491	1082.971
65.490	22.311	1351.882	1081.866
66.505	22.351	1350.395	1080.826
67.520	22.265	1349.477	1079.469
68.534	22.277	1348.619	1078.760
69.549	22.280	1347.391	1077.700
70.563	22.268	1346.772	1077.035
71.578	22.329	1345.116	1075.990
72.593	22.245	1344.709	1075.053
73.607	22.247	1344.240	1074.597
74.622	22.367	1343.360	1074.533
75.636	22.172	1342.699	1072.719
76.651	22.291	1341.718	1072.568
77.666	22.356	1341.040	1072.328
78.680	22.261	1340.815	1071.472
79.695	22.315	1339.460	1070.625
80.709	22.212	1339.425	1069.875
81.724	22.298	1338.260	1069.371
82.739	22.248	1337.038	1067.994
83.753	22.207	1336.317	1067.078
84.768	22.323	1334.788	1066.464
85.782	22.314	1333.847	1065.564
86.797	22.328	1332.510	1064.484
87.812	22.226	1331.640	1063.079
88.826	22.345	1330.797	1063.035
89.841	22.317	1329.516	1061.746
90.855	22.235	1328.650	1060.467
91.870	22.304	1327.894	1060.185
92.884	22.334	1327.231	1059.741
93.899	22.306	1326.237	1058.686
94.914	22.223	1325.679	1057.646
95.928	22.333	1324.514	1057.287
96.943	22.253	1323.963	1056.273
97.957	22.401	1323.322	1056.552
98.972	22.311	1322.230	1055.053
99.987	22.285	1321.420	1054.152
101.001	22.334	1320.200	1053.381
102.016	22.338	1318.741	1052.147
103.030	22.316	1318.144	1051.446
104.045	22.364	1317.287	1050.957
105.060	22.349	1316.464	1050.115
106.074	22.431	1315.361	1049.632
107.089	22.480	1313.826	1048.606
108.103	22.384	1313.209	1047.449
109.118	22.320	1312.344	1046.289
110.133	22.395	1310.935	1045.515
111.147	22.381	1309.845	1044.474
112.162	22.362	1308.813	1043.447
113.176	22.437	1307.434	1042.700
114.191	22.410	1307.024	1042.121
115.206	22.339	1306.311	1041.040
116.220	22.448	1304.347	1040.024
117.235	22.343	1304.353	1039.315
118.249	22.396	1302.837	1038.329
119.264	22.346	1302.109	1037.362
120.279	22.438	1301.071	1036.983
121.293	22.434	1300.234	1036.203
122.308	22.403	1299.353	1035.228
123.322	22.465	1298.692	1034.972
124.337	22.522	1297.507	1034.273
125.352	22.492	1296.386	1033.114
126.366	22.435	1295.519	1031.998
127.381	22.433	1294.932	1031.426
128.395	22.505	1293.632	1030.717
129.410	22.460	1293.164	1029.993
130.424	22.458	1292.304	1029.206
131.439	22.521	1291.177	1028.583
132.454	22.419	1290.690	1027.511
133.468	22.475	1289.615	1026.890
134.483	22.550	1289.193	1026.901
135.497	22.423	1288.482	1025.502
136.512	22.406	1287.072	1024.191
137.527	22.473	1286.104	1023.722
138.541	22.410	1284.801	1022.223
139.556	22.374	1283.578	1020.951
140.570	22.495	1282.216	1020.480
141.585	22.381	1281.717	1019.334
142.600	22.386	1280.380	1018.208
143.614	22.353	1280.099	1017.705
144.629	22.416	1278.808	1016.954
145.643	22.380	1277.543	1015.650
146.658	22.346	1276.699	1014.691
147.673	22.354	1275.326	1013.555
148.687	22.335	1274.903	1013.019
149.702	22.311	1273.595	1011.754
150.716	22.290	1272.490	1010.664
151.731	22.386	1271.506	1010.347
152.746	22.490	1270.331	1009.920
153.760	22.492	1268.851	1008.667
154.775	22.547	1267.982	1008.200
155.789	22.539	1267.192	1007.434
156.804	22.386	1266.623	1006.018
157.819	22.514	1265.541	1005.805
158.833	22.447	1265.007	1004.908
159.848	22.469	1264.283	1004.368
160.862	22.468	1263.371	1003.547
161.877	22.575	1262.648	1003.496
162.892	22.539	1261.794	1002.521
163.906	22.557	1260.959	1001.871
164.921	22.593	1260.164	1001.356
165.935	22.548	1259.243	1000.279
166.950	22.590	1258.346	999.717
167.964	22.552	1258.039	999.170
168.979	22.537	1257.554	998.612
169.994	22.502	1257.406	998.207
171.008	22.623	1256.234	997.872
172.023	22.622	1255.319	997.053
173.037	22.636	1254.437	996.345
174.052	22.601	1253.838	995.580
175.067	22.601	1253.011	994.840
176.081	22.633	1252.416	994.456
177.096	22.618	1251.500	993.559
178.110	22.701	1250.172	992.882
179.125	22.693	1249.336	992.084
180.140	22.622	1248.390	990.849
181.154	22.597	1247.268	989.730
182.169	22.591	1246.063	988.651
183.183	22.625	1245.289	988.139
184.198	22.594	1244.405	987.178
185.213	22.628	1243.585	986.633
186.227	22.603	1242.299	985.385
187.242	22.710	1241.442	985.214
188.256	22.779	1240.397	984.682
189.271	22.687	1239.983	983.752
190.286	22.738	1239.035	983.199
191.300	22.669	1238.656	982.425
192.315	22.668	1237.918	981.749
193.329	22.621	1237.647	981.186
194.344	22.597	1237.406	980.776
195.359	22.776	1236.479	980.947
196.373	22.614	1236.167	979.713
197.388	22.643	1235.470	979.233
198.402	22.667	1235.419	979.243
199.417	22.669	1234.838	978.705
200.432	22.585	1234.467	977.858
201.446	22.705	1233.982	978.054
202.461	22.700	1232.712	976.933
203.475	22.561	1232.270	975.728
204.490	22.546	1231.685	975.096
205.504	22.643	1230.167	974.340
206.519	22.763	1229.288	974.223
207.534	22.663	1227.977	972.544
208.548	22.674	1227.346	972.018
209.563	22.602	1226.638	970.977
210.577	22.796	1225.426	970.999
211.592	22.798	1224.684	970.336
212.607	22.777	1223.957	969.560
213.621	22.740	1223.275	968.730
214.636	22.884	1222.241	968.616
215.650	22.839	1221.429	967.636
216.665	22.816	1220.348	966.573
217.680	22.758	1220.160	966.020
218.694	22.807	1219.430	965.621
219.709	22.800	1218.506	964.766
220.723	22.862	1218.022	964.637
221.738	22.722	1217.346	963.255
222.753	22.769	1216.481	962.740
223.767	22.818	1216.009	962.548
224.782	22.843	1215.408	962.123
225.796	22.937	1214.254	961.634
226.811	22.801	1214.282	960.834
227.826	22.741	1214.117	960.293
228.840	22.793	1213.559	960.047
229.855	22.855	1212.173	959.202
230.869	22.886	1211.342	958.630
231.884	22.820	1210.797	957.757
232.899	22.870	1210.076	957.368
233.913	22.975	1209.427	957.343
234.928	22.861	1208.801	956.145
235.942	22.912	1208.272	955.918
236.957	23.086	1207.469	956.140
237.972	22.890	1207.155	954.747
238.986	22.964	1206.095	954.222
240.001	22.825	1206.221	953.488
241.015	23.066	1204.653	953.461
242.030	23.100	1203.659	952.774
243.045	23.108	1203.124	952.308
244.059	23.131	1202.397	951.774
245.074	23.060	1201.684	950.743
246.088	23.067	1200.697	949.917
247.103	22.949	1200.261	948.855
248.117	23.167	1199.002	948.943
249.132	23.114	1198.766	948.386
250.147	23.098	1197.922	947.551
251.161	23.154	1196.897	946.958
252.176	22.971	1197.095	946.051
253.190	23.103	1196.530	946.226
254.205	23.220	1195.384	945.863
255.220	23.086	1194.840	944.632
256.234	23.063	1194.586	944.225
257.249	23.185	1193.577	943.991
258.263	23.138	1193.108	943.288
259.278	23.269	1192.123	943.124
260.293	23.144	1192.048	942.316
261.307	23.158	1191.248	941.672
262.322	23.195	1190.989	941.581
263.336	23.102	1190.277	940.440
264.351	23.117	1189.912	940.150
265.366	23.178	1189.173	939.807
266.380	23.236	1187.860	938.997
267.395	23.060	1187.485	937.679
268.409	23.205	1186.781	937.810
269.424	23.124	1186.235	936.867
270.439	23.227	1185.808	936.992
271.453	23.205	1185.231	936.335
272.468	23.169	1184.543	935.522
273.482	23.244	1183.326	934.874
274.497	23.144	1183.474	934.380
275.512	23.339	1182.803	934.796
276.526	23.309	1182.002	933.922
277.541	23.243	1181.391	933.008
278.555	23.299	1180.913	932.841
279.570	23.371	1179.946	932.376
280.585	23.396	1178.613	931.370
281.599	23.317	1178.169	930.522
282.614	23.390	1177.087	929.971
283.628	23.392	1176.475	929.412
284.643	23.467	1175.407	928.879
285.657	23.300	1174.543	927.240
286.672	23.312	1174.064	926.842
287.687	23.346	1173.178	926.239
288.701	23.365	1172.890	926.030
289.716	23.426	1171.755	925.371
290.730	23.526	1171.086	925.283
291.745	23.478	1170.548	924.526
292.760	23.457	1170.169	924.034
293.774	23.427	1169.730	923.448
294.789	23.501	1169.176	923.316
295.803	23.476	1168.302	922.416
296.818	23.260	1168.225	921.148
297.833	23.571	1166.763	921.527
298.847	23.525	1166.270	920.820
299.862	23.469	1165.731	920.024
300.876	23.570	1164.721	919.668
301.891	23.502	1164.908	919.378
302.906	23.547	1163.696	918.574
303.920	23.507	1163.162	917.868
304.935	23.640	1162.083	917.619
305.949	23.559	1161.676	916.800
306.964	23.518	1161.765	916.578
307.979	23.623	1160.853	916.316
308.993	23.632	1159.741	915.407
310.008	23.573	1159.521	914.849
311.022	23.545	1159.019	914.224
312.037	23.704	1157.641	913.874
313.052	23.660	1156.478	912.652
314.066	23.574	1156.004	911.753
315.081	23.710	1155.196	911.733
316.095	23.640	1154.622	910.840
317.110	23.603	1154.537	910.502
318.125	23.781	1153.110	910.210
319.139	23.578	1152.543	908.643
320.154	23.731	1152.173	909.052
321.168	23.835	1151.675	909.113
322.183	23.719	1150.783	907.736
323.197	23.667	1150.435	907.114
324.212	23.675	1150.280	906.952
325.227	23.752	1149.779	906.868
326.241	23.825	1148.595	906.230
327.256	23.775	1148.116	905.515
328.270	23.747	1147.179	904.552
329.285	23.762	1146.663	904.146
330.300	23.841	1145.579	903.609
331.314	23.905	1144.627	903.106
332.329	23.876	1143.942	902.339
333.343	23.827	1143.194	901.417
334.358	23.934	1142.365	901.226
335.373	23.864	1142.456	900.864
336.387	23.881	1140.779	899.549
337.402	23.902	1140.755	899.556
338.416	24.012	1139.692	899.193
339.431	24.043	1139.334	898.990
340.446	23.899	1138.903	897.842
341.460	23.957	1138.289	897.572
342.475	23.870	1137.282	896.258
343.489	23.907	1136.228	895.538
344.504	23.980	1135.656	895.372
345.519	24.076	1134.876	895.164
346.533	23.977	1134.126	893.995
347.548	23.989	1133.053	893.129
348.562	24.066	1132.751	893.200
349.577	24.045	1132.186	892.568
350.592	23.923	1131.207	891.105
351.606	23.830	1130.689	890.153
352.621	24.063	1129.777	890.521
353.635	24.040	1129.596	890.185
354.650	24.078	1128.822	889.685
355.665	24.146	1127.848	889.182
356.679	24.092	1127.570	888.612
357.694	24.189	1126.538	888.205
358.708	24.190	1125.622	887.412
359.723	24.037	1125.480	886.459
360.738	24.155	1124.562	886.243
361.752	24.139	1124.361	885.926
362.767	24.133	1123.853	885.417
363.781	24.194	1123.002	884.969
364.796	24.230	1122.414	884.607
365.810	24.297	1121.607	884.226
366.825	24.262	1121.304	883.738
367.840	24.201	1121.145	883.230
368.854	24.281	1120.378	882.945
369.869	24.264	1119.617	882.180
370.883	24.272	1118.792	881.495
371.898	24.263	1118.150	880.866
372.913	24.306	1117.346	880.366
373.927	24.268	1117.167	879.958
374.942	24.335	1116.741	879.875
375.956	24.227	1116.214	878.850
376.971	24.295	1115.577	878.605
377.986	24.361	1114.861	878.290
379.000	24.453	1114.016	877.998
380.015	24.451	1113.603	877.585
381.029	24.314	1113.361	876.645
382.044	24.430	1112.577	876.519
383.059	24.565	1111.473	876.236
384.073	24.423	1111.110	875.175
385.088	24.361	1110.272	874.133
386.102	24.498	1109.229	873.905
387.117	24.380	1108.474	872.654
388.132	24.348	1107.822	871.908
389.146	24.420	1106.946	871.493
390.161	24.574	1106.183	871.568
391.175	24.441	1105.788	870.531
392.190	24.483	1105.016	870.049
393.205	24.545	1104.258	869.681
394.219	24.552	1103.535	869.067
395.234	24.602	1102.553	868.460
396.248	24.546	1101.539	867.314
397.263	24.580	1101.173	867.110
398.278	24.547	1100.756	866.547
399.292	24.655	1099.892	866.312
400.307	24.605	1099.705	865.849
401.321	24.762	1098.419	865.515
402.336	24.634	1098.131	864.596
403.350	24.604	1097.402	863.798
404.365	24.754	1096.540	863.769
405.380	24.675	1096.065	862.935
406.394	24.696	1095.253	862.323
407.409	24.688	1094.694	861.767
408.423	24.716	1094.227	861.459
409.438	24.691	1093.371	860.590
410.453	24.738	1092.867	860.341
411.467	24.783	1091.489	859.397
412.482	24.781	1091.084	858.994
413.496	24.829	1090.468	858.662
414.511	24.813	1090.090	858.210
415.526	24.834	1089.332	857.638
416.540	24.750	1089.001	856.902
417.555	24.831	1088.524	856.837
418.569	24.868	1087.843	856.403
419.584	24.926	1087.754	856.536
420.599	24.823	1087.369	855.661
421.613	148.615	1402.731	1799.446
422.628	137.423	1448.655	1799.544
