DTS Sentinel unit serial number:	SN413079Multiplexer serial number:	ORYXHardware model number:	OX4-SRSoftware version number:	ORYX F/W v4.00 Oryx Data Collector v3.7.2.0data status	okinstallation	princeton_trtdifferential loss correction	single-endedforward channel	channel 2reverse channel	N/Adate	2019/09/15time	14:03:35forward acquisition time	60.00reverse acquisition time	0.00gamma	496.2192k internal	0.2302k external	0.2302temperature offset calibration	0.9990default loss term (dB/km)	0.3790temperature slope calibration	1.0000multiplexer offset coefficient	1.0000multiplexer slope coefficient	1.0000fibre end	0.00T internal ref (°C)	38.56T ext. ref 1 (°C)	4.95T ext. ref 2 (°C)	35.69length (m)	temperature (°C)	Stokes	anti-Stokes-747.200	87.834	0.169	-0.191
-746.185	-200.000	0.000	0.273
-745.171	-89.588	-0.311	0.093
-744.156	800.000	-0.100	0.322
-743.142	-120.587	0.408	0.071
-742.127	-194.399	-0.332	-0.003
-741.112	-125.775	0.043	-0.007
-740.098	44.026	-0.152	0.142
-739.083	-40.145	0.145	-0.077
-738.069	458.646	-0.114	0.258
-737.054	-90.484	0.312	0.092
-736.039	-124.476	-0.359	0.057
-735.025	77.640	-0.107	-0.116
-734.010	-50.565	-0.421	-0.202
-732.996	34.152	0.161	0.143
-731.981	800.000	-0.134	0.414
-730.966	-16.726	0.156	0.101
-729.952	429.625	0.117	-0.258
-728.937	800.000	-0.162	-0.515
-727.923	-95.078	-0.156	-0.043
-726.908	-38.543	0.119	-0.064
-725.894	137.430	-0.063	-0.085
-724.879	-83.333	-0.239	0.078
-723.864	-74.047	-0.285	0.105
-722.850	-200.000	0.032	-0.184
-721.835	-75.057	-0.114	0.042
-720.821	-1.239	-0.177	-0.128
-719.806	39.102	0.087	0.079
-718.791	523.298	-0.051	0.122
-717.777	16.742	0.056	-0.045
-716.762	-123.911	-0.252	0.040
-715.748	-200.000	0.005	-0.128
-714.733	57.753	-0.170	-0.169
-713.718	48.050	0.183	-0.174
-712.704	223.345	-0.126	-0.207
-711.689	277.944	0.079	-0.143
-710.675	15.849	0.020	-0.016
-709.660	-193.146	0.061	0.001
-708.645	55.134	0.056	-0.055
-707.631	800.000	0.033	-0.119
-706.616	356.461	-0.144	0.293
-705.602	17.401	0.077	-0.062
-704.587	10.215	-0.277	-0.215
-703.572	800.000	-0.016	-0.054
-702.558	-154.828	-0.089	-0.006
-701.543	-47.257	-0.099	0.049
-700.529	-48.350	0.167	-0.082
-699.514	-200.000	-0.050	0.334
-698.499	-197.113	0.217	0.001
-697.485	-110.084	-0.251	-0.053
-696.470	75.234	-0.072	-0.077
-695.456	800.000	0.042	-0.163
-694.441	800.000	-0.050	-0.215
-693.426	-78.633	-0.165	-0.057
-692.412	-58.203	0.075	-0.033
-691.397	800.000	-0.043	-0.182
-690.383	363.011	0.136	0.278
-689.368	-96.259	-0.177	-0.048
-688.354	-119.684	-0.206	0.036
-687.339	84.386	0.049	0.054
-686.324	-62.223	0.545	0.231
-685.310	-80.083	-0.363	-0.124
-684.295	800.000	-0.074	-0.246
-683.281	128.417	-0.085	-0.110
-682.266	292.330	-0.126	0.234
-681.251	69.675	-0.207	0.217
-680.237	-200.000	0.008	0.185
-679.222	-118.355	0.109	-0.020
-678.208	-50.466	0.227	-0.109
-677.193	-108.608	-0.137	-0.030
-676.178	224.491	-0.155	-0.255
-675.164	245.754	0.044	-0.075
-674.149	14.826	-0.272	0.216
-673.135	-50.602	-0.267	-0.128
-672.120	-200.000	-0.052	-0.523
-671.105	148.563	-0.272	-0.373
-670.091	189.130	-0.208	0.316
-669.076	199.770	-0.102	0.160
-668.062	-65.398	-0.138	0.057
-667.047	800.000	0.073	0.267
-666.032	28.201	0.108	0.093
-665.018	-70.482	0.344	-0.132
-664.003	-67.491	0.198	0.079
-662.989	63.177	-0.026	-0.026
-661.974	-200.000	0.001	0.030
-660.959	800.000	-0.137	-0.418
-659.945	259.153	0.132	-0.231
-658.930	-200.000	-0.034	0.524
-657.916	-21.425	-0.114	0.071
-656.901	800.000	-0.039	0.151
-655.886	-81.808	0.428	0.142
-654.872	148.431	-0.095	-0.130
-653.857	-200.000	-0.061	-0.272
-652.843	138.028	0.212	-0.283
-651.828	-186.079	-0.184	-0.003
-650.814	800.000	0.012	0.039
-649.799	5.508	0.125	0.094
-648.784	-93.233	-0.146	0.041
-647.770	153.966	-0.214	-0.299
-646.755	-10.924	-0.161	-0.108
-645.741	606.140	-0.025	0.064
-644.726	15.437	-0.329	-0.262
-643.711	256.600	-0.093	-0.163
-642.697	-131.519	0.079	-0.011
-641.682	198.843	-0.117	-0.182
-640.668	-200.000	0.048	-0.270
-639.653	-200.000	0.039	0.283
-638.638	135.731	-0.278	0.367
-637.624	17.170	-0.187	0.150
-636.609	-123.634	0.356	-0.057
-635.595	-200.000	-0.003	0.184
-634.580	-41.836	-0.158	-0.082
-633.565	-40.205	0.397	-0.210
-632.551	-143.707	-0.231	-0.022
-631.536	-200.000	0.014	-0.348
-630.522	43.010	0.256	-0.237
-629.507	-98.860	-0.415	-0.107
-628.492	800.000	-0.022	0.075
-627.478	-200.000	0.000	-0.053
-626.463	13.345	0.123	0.096
-625.449	-200.000	0.006	-0.108
-624.434	68.491	0.124	-0.129
-623.419	463.556	-0.057	0.129
-622.405	-21.685	0.156	-0.096
-621.390	-92.950	0.306	-0.087
-620.376	-100.845	0.118	-0.029
-619.361	136.251	-0.131	0.174
-618.346	46.540	0.153	-0.144
-617.332	-123.663	0.305	-0.049
-616.317	-200.000	0.002	0.179
-615.303	5.864	-0.140	-0.105
-614.288	-151.960	0.340	-0.025
-613.273	-122.157	-0.414	0.069
-612.259	143.460	0.283	0.382
-611.244	800.000	-0.098	-0.415
-610.230	262.791	0.041	0.073
-609.215	5.989	0.079	-0.059
-608.201	156.426	-0.133	0.186
-607.186	40.868	-0.092	-0.084
-606.171	-200.000	0.035	-0.284
-605.157	105.641	-0.102	0.122
-604.142	-200.000	0.002	-0.089
-603.128	-101.066	0.113	-0.028
-602.113	319.393	0.037	-0.071
-601.098	53.173	0.071	0.069
-600.084	-70.200	0.435	-0.168
-599.069	35.390	0.315	0.280
-598.055	-200.000	-0.017	0.267
-597.040	496.616	-0.105	-0.245
-596.025	35.919	0.184	0.164
-595.011	-200.000	0.018	-0.142
-593.996	75.242	0.121	0.130
-592.982	418.858	0.054	-0.118
-591.967	132.742	0.131	0.172
-590.952	-94.943	0.350	0.096
-589.938	-136.014	-0.281	-0.033
-588.923	-200.000	0.009	-0.265
-587.909	15.263	0.109	-0.087
-586.894	136.829	-0.164	-0.217
-585.879	-200.000	0.049	0.259
-584.865	-195.756	0.030	-0.000
-583.850	643.565	0.097	-0.249
-582.836	-200.000	0.023	-0.174
-581.821	-200.000	0.013	0.197
-580.806	452.688	-0.148	-0.331
-579.792	-177.546	0.110	-0.003
-578.777	-115.530	-0.099	0.019
-577.763	-52.957	-0.270	-0.126
-576.748	48.867	-0.185	-0.176
-575.733	119.894	-0.044	-0.055
-574.719	50.930	0.191	0.183
-573.704	503.261	0.116	0.272
-572.690	-64.742	-0.217	0.089
-571.675	-182.420	-0.188	0.004
-570.661	97.606	-0.252	0.293
-569.646	-200.000	-0.026	0.124
-568.631	208.113	-0.155	0.245
-567.617	610.629	0.039	-0.099
-566.602	-99.748	0.326	-0.083
-565.588	780.281	0.127	-0.352
-564.573	-117.238	-0.150	-0.028
-563.558	-94.861	-0.170	-0.047
-562.544	-22.426	-0.090	0.055
-561.529	-153.561	-0.197	0.014
-560.515	-200.000	-0.012	-0.211
-559.500	570.295	0.059	-0.146
-558.485	-38.058	-0.122	0.065
-557.471	800.000	-0.100	0.315
-556.456	-13.257	-0.183	0.120
-555.442	644.810	-0.013	-0.034
-554.427	-86.582	0.132	0.041
-553.412	296.402	-0.166	0.309
-552.398	-71.118	0.059	0.023
-551.383	1.516	-0.272	-0.198
-550.369	453.482	0.056	0.124
-549.354	31.668	-0.099	-0.087
-548.339	504.101	0.096	-0.224
-547.325	-200.000	0.029	-0.224
-546.310	31.909	-0.102	0.089
-545.296	324.747	0.115	-0.222
-544.281	126.421	0.147	-0.189
-543.266	14.770	0.203	0.161
-542.252	129.655	0.074	0.096
-541.237	19.580	-0.117	0.095
-540.223	618.444	-0.042	0.107
-539.208	425.265	-0.046	-0.100
-538.193	451.633	0.052	0.117
-537.179	-25.833	0.233	0.139
-536.164	-97.500	0.182	-0.048
-535.150	16.019	-0.043	0.035
-534.135	-143.064	-0.360	-0.035
-533.121	-56.804	-0.198	0.089
-532.106	651.510	-0.043	0.110
-531.091	800.000	0.038	-0.133
-530.077	800.000	0.086	-0.291
-529.062	-99.404	0.442	0.112
-528.048	800.000	-0.183	-0.580
-527.033	-140.750	-0.244	0.026
-526.018	800.000	0.022	0.076
-525.004	325.452	-0.066	-0.128
-523.989	762.645	-0.080	0.219
-522.975	-200.000	0.024	0.387
-521.960	800.000	0.014	0.051
-520.945	109.424	0.120	0.145
-519.931	-145.040	-0.093	-0.009
-518.916	-91.950	-0.265	-0.076
-517.902	-200.000	-0.014	-0.146
-516.887	-64.506	-0.397	-0.163
-515.872	121.460	-0.127	0.159
-514.858	115.650	-0.226	0.279
-513.843	-70.301	0.220	-0.084
-512.829	-73.819	0.222	0.081
-511.814	-122.492	-0.212	-0.035
-510.799	-125.199	0.020	0.003
-509.785	-200.000	-0.002	0.400
-508.770	35.581	0.219	-0.194
-507.756	138.854	-0.237	-0.314
-506.741	-47.172	0.302	0.149
-505.726	90.364	-0.167	-0.189
-504.712	-55.760	0.150	-0.068
-503.697	14.952	0.257	0.203
-502.683	16.992	0.207	-0.165
-501.668	21.387	0.326	0.267
-500.653	-26.817	0.338	-0.199
-499.639	-48.665	-0.433	-0.210
-498.624	701.187	0.110	0.292
-497.610	188.337	0.245	0.369
-496.595	401.388	-0.126	-0.266
-495.581	-127.906	0.224	-0.032
-494.566	86.012	-0.176	-0.195
-493.551	45.607	0.207	-0.193
-492.537	110.869	0.087	-0.106
-491.522	346.006	0.091	-0.181
-490.508	800.000	-0.094	-0.309
-489.493	-86.889	-0.346	0.106
-488.478	-200.000	-0.010	-0.063
-487.464	156.019	-0.057	0.079
-486.449	28.056	-0.303	0.258
-485.435	397.945	-0.021	0.045
-484.420	406.994	0.125	0.266
-483.405	299.166	-0.079	0.147
-482.391	800.000	0.056	-0.193
-481.376	-200.000	-0.016	-0.083
-480.362	-200.000	0.009	-0.057
-479.347	19.958	-0.134	0.109
-478.332	23.534	0.149	0.123
-477.318	655.901	-0.076	0.196
-476.303	-142.363	-0.331	0.033
-475.289	800.000	0.099	0.293
-474.274	800.000	-0.041	0.123
-473.259	-82.675	-0.114	0.037
-472.245	-142.080	0.137	-0.014
-471.230	22.235	0.086	0.071
-470.216	-45.719	-0.292	0.146
-469.201	133.553	-0.141	0.184
-468.186	-200.000	0.007	-0.107
-467.172	-154.276	-0.113	0.008
-466.157	18.603	0.067	0.054
-465.143	343.432	0.071	0.140
-464.128	63.186	-0.095	0.096
-463.113	-100.936	0.059	-0.015
-462.099	-40.730	0.393	-0.205
-461.084	221.428	0.166	0.269
-460.070	-200.000	-0.013	-0.156
-459.055	93.324	0.123	-0.140
-458.040	187.194	0.106	0.159
-457.026	70.826	-0.103	-0.107
-456.011	-74.993	0.221	-0.080
-454.997	544.661	-0.159	0.384
-453.982	800.000	-0.114	0.336
-452.968	578.150	-0.224	-0.553
-451.953	-129.547	-0.155	0.022
-450.938	481.483	0.036	-0.082
-449.924	-123.895	0.238	-0.038
-448.909	-58.427	0.132	-0.058
-447.895	-43.345	0.044	0.022
-446.880	-2.551	0.123	0.087
-445.865	800.000	-0.051	0.186
-444.851	543.179	0.154	-0.370
-443.836	206.375	0.030	-0.047
-442.822	520.196	0.021	0.051
-441.807	-61.435	0.361	-0.153
-440.792	76.349	-0.271	-0.289
-439.778	-200.000	0.001	0.223
-438.763	-122.621	-0.283	0.046
-437.749	-45.557	-0.311	-0.155
-436.734	800.000	-0.041	-0.165
-435.719	-181.600	0.317	0.006
-434.705	-200.000	-0.044	-0.297
-433.690	-9.650	0.095	0.064
-432.676	54.469	0.115	-0.112
-431.661	-67.406	-0.019	-0.007
-430.646	-24.377	0.396	0.238
-429.632	334.804	-0.188	-0.367
-428.617	-200.000	-0.006	-0.175
-427.603	-120.446	-0.411	-0.070
-426.588	-142.996	0.476	-0.046
-425.573	-200.000	-0.002	-0.024
-424.559	-133.763	0.163	0.020
-423.544	-113.902	0.287	-0.056
-422.530	-69.266	-0.301	0.116
-421.515	-200.000	0.005	0.092
-420.500	800.000	-0.075	0.255
-419.486	-13.587	-0.338	-0.221
-418.471	309.074	-0.117	-0.220
-417.457	95.450	-0.183	-0.210
-416.442	170.663	-0.108	-0.155
-415.428	-99.645	0.245	-0.062
-414.413	377.929	0.034	-0.070
-413.398	-200.000	-0.022	0.106
-412.384	94.514	-0.154	-0.176
-411.369	-8.458	-0.003	-0.002
-410.355	-64.578	0.059	0.024
-409.340	-200.000	0.013	0.272
-408.325	-78.592	-0.279	-0.096
-407.311	-200.000	0.019	-0.272
-406.296	81.402	0.195	-0.213
-405.282	208.877	0.209	-0.330
-404.267	95.754	-0.053	0.061
-403.252	-20.136	0.134	-0.083
-402.238	-62.570	0.089	0.037
-401.223	278.291	0.038	0.069
-400.209	139.049	0.048	0.063
-399.194	120.146	0.138	-0.173
-398.179	-111.512	-0.363	0.074
-397.165	-144.586	0.367	-0.034
-396.150	69.719	0.110	0.114
-395.136	-200.000	-0.041	-0.197
-394.121	83.168	0.148	-0.162
-393.106	-112.305	0.181	0.037
-392.092	-200.000	0.044	-0.224
-391.077	282.743	-0.110	0.198
-390.063	-120.664	0.227	-0.039
-389.048	99.457	0.106	-0.124
-388.033	158.938	-0.118	-0.165
-387.019	-200.000	0.040	0.191
-386.004	-200.000	-0.011	0.242
-384.990	-33.984	0.154	0.085
-383.975	-44.688	-0.158	0.079
-382.960	-51.569	-0.549	0.257
-381.946	-200.000	-0.004	0.156
-380.931	54.005	-0.021	-0.021
-379.917	55.747	-0.203	0.198
-378.902	114.735	-0.108	-0.132
-377.888	70.989	0.068	0.071
-376.873	33.932	0.211	0.185
-375.858	92.977	0.038	-0.043
-374.844	800.000	-0.133	0.455
-373.829	-200.000	-0.007	-0.060
-372.815	800.000	-0.066	-0.215
-371.800	-78.420	0.204	0.070
-370.785	721.967	0.100	0.267
-369.771	-24.895	0.117	-0.070
-368.756	-166.599	0.098	0.004
-367.742	800.000	0.042	-0.175
-366.727	11.267	-0.047	-0.036
-365.712	11.922	0.247	-0.191
-364.698	12.264	0.086	-0.066
-363.683	3.121	0.276	0.201
-362.669	735.616	-0.039	0.104
-361.654	-200.000	0.023	-0.139
-360.639	-200.000	0.021	0.189
-359.625	-14.110	0.225	-0.146
-358.610	-58.367	0.154	0.067
-357.596	-112.802	0.053	-0.010
-356.581	-56.738	-0.259	-0.115
-355.566	800.000	0.029	0.118
-354.552	246.442	-0.176	-0.299
-353.537	-200.000	0.003	-0.146
-352.523	-162.507	0.049	-0.002
-351.508	84.297	0.053	0.058
-350.493	200.655	0.151	-0.232
-349.479	-76.063	0.183	-0.065
-348.464	-76.921	-0.344	-0.121
-347.450	20.920	-0.305	-0.248
-346.435	529.141	-0.040	0.095
-345.420	-23.504	0.079	-0.047
-344.406	-50.958	0.091	0.043
-343.391	91.414	-0.179	0.202
-342.377	-60.400	0.093	-0.040
-341.362	800.000	-0.065	0.248
-340.348	118.236	0.083	-0.103
-339.333	800.000	-0.082	0.229
-338.318	-200.000	-0.020	-0.202
-337.304	-200.000	-0.027	-0.193
-336.289	-52.929	-0.349	0.161
-335.275	-146.787	-0.292	-0.025
-334.260	708.616	0.100	-0.265
-333.245	-58.797	0.222	-0.096
-332.231	800.000	-0.080	0.257
-331.216	-62.196	-0.057	0.024
-330.202	10.829	0.059	-0.045
-329.187	-65.645	0.245	-0.098
-328.172	595.569	-0.100	0.249
-327.158	336.876	-0.097	0.189
-326.143	800.000	-0.024	0.094
-325.129	-22.848	-0.172	-0.104
-324.114	65.326	-0.163	0.166
-323.099	-150.261	0.154	-0.012
-322.085	94.657	-0.201	-0.229
-321.070	-200.000	0.015	-0.089
-320.056	-43.889	-0.158	0.080
-319.041	-22.046	0.239	-0.145
-318.026	45.560	0.283	-0.262
-317.012	-200.000	-0.038	0.330
-315.997	-47.362	-0.150	0.073
-314.983	-200.000	-0.047	-0.289
-313.968	-200.000	0.008	0.040
-312.953	800.000	0.136	0.440
-311.939	-184.789	0.081	0.001
-310.924	-129.304	-0.369	0.051
-309.910	-99.469	-0.120	-0.030
-308.895	-74.869	0.402	-0.144
-307.880	-200.000	0.030	0.167
-306.866	-105.166	-0.103	-0.024
-305.851	-200.000	0.027	0.253
-304.837	800.000	-0.099	0.304
-303.822	-152.963	0.088	0.006
-302.807	-200.000	-0.014	-0.083
-301.793	800.000	-0.060	-0.189
-300.778	800.000	0.088	0.254
-299.764	-27.425	0.272	0.159
-298.749	69.729	-0.120	0.124
-297.735	14.296	0.181	-0.142
-296.720	-200.000	-0.022	-0.127
-295.705	70.030	0.115	0.119
-294.691	583.252	-0.108	0.265
-293.676	-161.760	0.182	-0.009
-292.662	-47.129	-0.156	-0.076
-291.647	69.226	0.087	-0.090
-290.632	-200.000	0.038	-0.222
-289.618	421.453	-0.101	0.217
-288.603	111.362	0.085	0.102
-287.589	-127.401	0.156	0.023
-286.574	-4.012	-0.466	-0.323
-285.559	-55.283	-0.153	-0.069
-284.545	-26.519	-0.112	-0.066
-283.530	-93.543	-0.471	-0.130
-282.516	-148.359	0.447	-0.037
-281.501	478.950	0.110	-0.249
-280.486	-97.946	-0.282	-0.073
-279.472	-126.142	0.162	-0.024
-278.457	-44.246	0.053	-0.026
-277.443	-74.211	0.054	0.020
-276.428	155.894	0.109	0.150
-275.413	10.791	-0.184	0.141
-274.399	-200.000	-0.017	-0.128
-273.384	-128.702	0.140	-0.020
-272.370	-50.187	0.251	0.119
-271.355	800.000	0.046	-0.148
-270.340	-35.072	-0.239	0.130
-269.326	-16.948	-0.138	-0.087
-268.311	-57.863	0.064	-0.028
-267.297	498.819	0.055	-0.127
-266.282	-64.984	-0.241	-0.098
-265.267	-24.109	-0.314	0.187
-264.253	-200.000	0.018	-0.095
-263.238	-43.174	0.176	0.089
-262.224	599.877	-0.095	0.237
-261.209	-200.000	0.000	-0.217
-260.195	-125.967	-0.233	-0.035
-259.180	-64.128	0.085	0.035
-258.165	-140.299	-0.282	0.030
-257.151	-11.413	-0.330	0.217
-256.136	-30.938	0.184	0.104
-255.122	-200.000	0.009	0.144
-254.107	-35.797	0.371	0.201
-253.092	279.113	-0.094	0.168
-252.078	-147.729	0.416	0.035
-251.063	204.077	-0.120	0.186
-250.049	-200.000	0.010	-0.125
-249.034	-6.430	0.211	-0.144
-248.019	39.871	-0.103	0.092
-247.005	-192.674	-0.399	0.004
-245.990	-192.622	-0.410	-0.004
-244.976	-56.596	0.134	0.060
-243.961	-200.000	0.089	0.704
-242.946	-154.331	0.169	-0.011
-241.932	366.798	-0.169	0.341
-240.917	-92.875	0.044	-0.012
-239.903	-43.184	-0.156	0.079
-238.888	9.295	-0.047	0.036
-237.873	-200.000	-0.034	-0.296
-236.859	800.000	0.038	-0.156
-235.844	-98.887	-0.264	-0.067
-234.830	21.814	-0.069	-0.057
-233.815	-200.000	0.065	0.317
-232.800	117.409	-0.130	-0.160
-231.786	-96.496	0.556	0.147
-230.771	-200.000	-0.022	0.166
-229.757	-200.000	0.003	0.323
-228.742	-200.000	0.001	-0.220
-227.727	-20.459	0.113	0.069
-226.713	-200.000	0.012	-0.115
-225.698	-200.000	0.008	-0.064
-224.684	-164.808	-0.300	0.013
-223.669	-37.944	0.168	-0.089
-222.655	603.699	-0.066	0.164
-221.640	-105.006	-0.152	0.035
-220.625	413.047	0.074	0.157
-219.611	-122.982	-0.202	0.032
-218.596	-200.000	0.013	0.273
-217.582	-200.000	-0.004	0.036
-216.567	800.000	0.013	0.048
-215.552	-71.449	-0.242	-0.090
-214.538	96.719	-0.227	0.260
-213.523	187.262	0.210	0.312
-212.509	800.000	0.082	-0.234
-211.494	-60.406	0.089	0.038
-210.479	-200.000	-0.004	-0.141
-209.465	-180.270	0.125	0.003
-208.450	-169.481	0.247	0.009
-207.436	330.234	-0.210	0.404
-206.421	-42.664	-0.190	0.097
-205.406	147.995	0.172	-0.231
-204.392	492.516	0.056	-0.129
-203.377	619.131	0.152	-0.380
-202.363	800.000	-0.073	-0.232
-201.348	266.192	0.097	0.169
-200.333	52.729	-0.038	-0.036
-199.319	-200.000	0.006	-0.062
-198.304	109.691	-0.108	-0.129
-197.290	-200.000	0.004	-0.280
-196.275	-200.000	-0.015	0.335
-195.260	-174.036	0.262	0.008
-194.246	53.354	-0.290	0.277
-193.231	449.539	0.198	-0.436
-192.217	-200.000	-0.064	0.291
-191.202	-69.411	0.070	-0.027
-190.187	83.180	0.180	0.196
-189.173	-200.000	-0.001	0.128
-188.158	118.997	-0.104	0.129
-187.144	-200.000	-0.005	0.216
-186.129	302.496	-0.096	0.177
-185.114	335.671	0.044	0.086
-184.100	-102.821	-0.215	-0.051
-183.085	-200.000	-0.021	-0.212
-182.071	-200.000	-0.013	-0.146
-181.056	-55.203	-0.206	-0.092
-180.042	-149.724	-0.239	-0.019
-179.027	-185.910	0.086	0.001
-178.012	186.021	-0.127	0.188
-176.998	-120.679	0.329	0.056
-175.983	-87.443	0.159	-0.048
-174.969	187.966	-0.188	0.279
-173.954	56.436	0.149	0.145
-172.939	-130.559	0.221	0.030
-171.925	-90.813	0.338	-0.097
-170.910	98.371	-0.112	-0.129
-169.896	800.000	0.116	-0.366
-168.881	-200.000	-0.022	-0.214
-167.866	-66.787	-0.015	0.006
-166.852	-108.407	-0.190	0.041
-165.837	-200.000	-0.017	-0.125
-164.823	-65.425	0.086	0.034
-163.808	48.345	0.069	0.064
-162.793	336.534	-0.127	0.246
-161.779	0.846	-0.093	-0.067
-160.764	-102.065	0.119	-0.029
-159.750	202.932	-0.133	-0.204
-158.735	-15.955	0.192	-0.122
-157.720	35.270	0.080	0.070
-156.706	116.421	-0.042	0.051
-155.691	265.971	-0.319	-0.555
-154.677	414.937	0.202	0.428
-153.662	62.190	0.282	0.280
-152.647	129.729	0.138	-0.176
-151.633	34.353	-0.142	-0.123
-150.618	800.000	-0.073	-0.218
-149.604	-8.691	0.177	0.118
-148.589	-42.104	-0.291	0.148
-147.574	697.683	-0.093	-0.244
-146.560	145.229	-0.210	0.280
-145.545	-200.000	-0.034	-0.412
-144.531	4.303	0.237	-0.173
-143.516	-109.970	0.410	0.085
-142.502	-38.647	0.164	0.086
-141.487	113.445	-0.044	-0.053
-140.472	-66.730	-0.162	0.064
-139.458	40.790	-0.065	-0.059
-138.443	-3.700	-0.033	-0.023
-137.429	-134.565	0.145	-0.018
-136.414	-92.163	0.310	0.087
-135.399	-34.576	-0.161	0.088
-134.385	-42.175	0.197	-0.100
-133.370	-200.000	-0.006	-0.114
-132.356	132.778	0.049	-0.062
-131.341	-200.000	0.034	0.173
-130.326	31.177	-0.169	-0.144
-129.312	-38.938	-0.090	0.047
-128.297	-200.000	0.057	-0.256
-127.283	622.137	-0.077	-0.194
-126.268	800.000	0.045	-0.130
-125.253	118.127	-0.261	0.320
-124.239	-200.000	-0.074	0.000
-123.224	800.000	-0.039	0.112
-122.210	-109.908	-0.191	-0.040
-121.195	34.978	-0.264	0.230
-120.180	-180.341	0.283	0.006
-119.166	-200.000	0.059	0.263
-118.151	61.145	0.099	-0.097
-117.137	186.959	-0.050	-0.074
-116.122	406.064	0.079	0.165
-115.107	-159.466	-0.042	0.002
-114.093	201.148	-0.083	0.127
-113.078	-125.910	-0.265	0.040
-112.064	57.449	-0.133	-0.130
-111.049	145.447	-0.148	0.197
-110.034	-89.526	-0.294	0.086
-109.020	-200.000	-0.005	-0.185
-108.005	-99.890	0.310	-0.077
-106.991	-91.200	-0.267	0.076
-105.976	-105.104	0.116	-0.026
-104.962	180.801	0.068	-0.099
-103.947	-67.584	0.313	-0.122
-102.932	205.925	-0.066	-0.103
-101.918	18.140	-0.102	0.081
-100.903	185.029	-0.146	0.215
-99.889	-60.044	-0.241	0.102
-98.874	-167.448	0.051	0.002
-97.859	308.133	-0.177	0.327
-96.845	-8.554	-0.155	-0.104
-95.830	-137.967	0.230	0.025
-94.816	-200.000	0.022	0.185
-93.801	34.134	0.221	-0.191
-92.786	86.928	0.160	0.176
-91.772	-156.068	0.536	0.034
-90.757	12.690	-0.151	-0.116
-89.743	-93.443	-0.022	0.006
-88.728	-73.423	0.247	-0.089
-87.713	61.207	-0.212	-0.209
-86.699	-200.000	0.048	0.314
-85.684	215.795	0.172	0.271
-84.670	-55.215	0.112	0.050
-83.655	-73.816	-0.163	0.059
-82.640	-200.000	0.005	0.186
-81.626	39.632	0.159	0.142
-80.611	366.029	-0.067	-0.134
-79.597	-200.000	0.031	-0.317
-78.582	800.000	0.096	0.268
-77.567	-26.368	-0.091	-0.053
-76.553	325.955	0.036	-0.069
-75.538	334.618	0.063	0.121
-74.524	277.520	0.043	0.075
-73.509	101.436	-0.122	-0.142
-72.494	-87.489	-0.288	0.086
-71.480	159.180	-0.165	-0.228
-70.465	-90.621	0.212	0.061
-69.451	-199.261	0.438	0.002
-68.436	-17.305	0.344	0.215
-67.422	133.606	0.154	0.197
-66.407	32.374	0.199	-0.171
-65.392	-118.366	0.290	-0.051
-64.378	208.644	0.105	0.162
-63.363	98.423	0.262	0.300
-62.349	-13.364	0.237	0.153
-61.334	19.876	-0.809	-0.647
-60.319	46.571	0.143	0.132
-59.305	800.000	-0.237	-0.743
-58.290	444.458	0.312	0.679
-57.276	800.000	0.304	1.213
-56.261	-200.000	81.416	501.437
-55.246	544.893	1375.061	3258.925
-54.232	182.559	2607.576	3815.141
-53.217	115.031	2363.959	2861.747
-52.203	47.509	1970.732	1822.626
-51.188	41.681	1755.605	1577.757
-50.173	39.065	1709.216	1515.849
-49.159	53.389	1747.386	1661.537
-48.144	57.304	1765.584	1709.272
-47.130	41.612	1728.193	1552.339
-46.115	38.533	1714.019	1515.748
-45.100	38.411	1709.169	1510.461
-44.086	38.401	1706.876	1508.295
-43.071	38.415	1704.091	1505.888
-42.057	38.342	1701.931	1503.357
-41.042	38.418	1699.408	1501.648
-40.027	38.415	1697.467	1499.853
-39.013	38.394	1695.205	1497.632
-37.998	38.361	1693.722	1496.011
-36.984	38.406	1691.943	1494.727
-35.969	38.613	1690.246	1494.745
-34.954	38.624	1689.175	1493.820
-33.940	38.625	1686.743	1491.618
-32.925	38.597	1685.412	1490.173
-31.911	38.599	1683.565	1488.492
-30.896	38.587	1681.758	1486.745
-29.881	38.568	1679.966	1484.958
-28.867	38.506	1678.588	1483.210
-27.852	38.578	1676.794	1482.118
-26.838	38.567	1675.565	1480.883
-25.823	38.617	1673.953	1479.780
-24.809	38.594	1672.803	1478.528
-23.794	38.556	1671.497	1477.033
-22.779	38.593	1670.006	1475.935
-21.765	38.676	1667.552	1474.333
-20.750	38.592	1666.006	1472.273
-19.736	38.638	1664.988	1471.658
-18.721	38.566	1663.632	1469.866
-17.706	38.524	1662.174	1468.206
-16.692	38.560	1660.359	1466.810
-15.677	38.580	1659.205	1465.882
-14.663	38.590	1657.383	1464.294
-13.648	38.514	1656.029	1462.466
-12.633	38.635	1654.328	1461.807
-11.619	38.563	1653.252	1460.263
-10.604	38.590	1651.140	1458.545
-9.590	38.518	1650.238	1457.154
-8.575	38.604	1648.863	1456.520
-7.560	38.595	1648.010	1455.642
-6.546	38.644	1646.190	1454.338
-5.531	38.599	1645.120	1453.002
-4.517	38.540	1644.040	1451.557
-3.502	38.600	1642.751	1450.803
-2.487	38.666	1641.109	1449.787
-1.473	38.592	1630.150	1439.504
-0.458	36.358	1611.212	1406.470
0.556	31.361	1610.025	1372.399
1.571	28.333	1633.995	1370.105
2.586	27.267	1646.469	1372.399
3.600	23.850	1592.476	1302.292
4.615	14.567	1477.905	1145.071
5.629	6.578	1408.592	1038.820
6.644	5.098	1399.253	1022.150
7.659	4.957	1397.924	1020.170
8.673	4.896	1396.488	1018.629
9.688	4.840	1394.867	1016.992
10.702	4.672	1392.321	1013.955
11.717	8.319	1399.466	1042.921
12.731	16.241	1414.296	1105.987
13.746	19.723	1418.943	1132.378
14.761	18.374	1415.095	1120.386
15.775	17.148	1411.946	1109.787
16.790	15.970	1409.412	1100.015
17.804	15.180	1406.943	1092.835
18.819	14.871	1405.405	1089.530
19.834	14.455	1404.150	1085.754
20.848	14.168	1402.574	1082.573
21.863	13.980	1401.512	1080.437
22.877	13.813	1400.565	1078.522
23.892	13.750	1399.536	1077.228
24.907	13.744	1398.590	1076.365
25.921	13.692	1397.849	1075.362
26.936	13.758	1396.739	1074.842
27.950	13.872	1395.819	1074.774
28.965	13.905	1394.534	1073.903
29.980	13.922	1393.595	1073.193
30.994	14.041	1392.140	1072.750
32.009	14.045	1391.577	1072.246
33.023	14.052	1389.859	1070.868
34.038	14.029	1388.807	1069.816
35.053	13.993	1386.942	1068.056
36.067	13.992	1385.830	1067.101
37.082	13.968	1384.967	1066.187
38.096	13.962	1383.922	1065.245
39.111	14.086	1383.078	1065.299
40.126	13.952	1382.136	1063.621
41.140	13.800	1381.360	1061.958
42.155	13.814	1380.765	1061.495
43.169	13.687	1380.704	1060.540
44.184	13.754	1380.083	1060.397
45.199	13.725	1379.781	1059.885
46.213	13.775	1379.383	1059.805
47.228	13.830	1378.225	1059.177
48.242	13.991	1376.991	1059.161
49.257	13.817	1375.728	1056.987
50.271	13.840	1374.215	1055.874
51.286	13.908	1372.838	1055.155
52.301	13.839	1371.453	1053.558
53.315	13.876	1370.249	1052.780
54.330	13.750	1369.371	1051.214
55.344	13.864	1367.706	1050.564
56.359	13.807	1367.146	1049.680
57.374	13.740	1366.432	1048.611
58.388	13.609	1365.598	1047.055
59.403	13.660	1364.836	1046.698
60.417	13.715	1363.846	1046.193
61.432	13.704	1362.921	1045.321
62.447	13.741	1361.871	1044.658
63.461	13.600	1361.133	1043.112
64.476	13.615	1359.688	1042.003
65.490	13.620	1358.377	1040.942
66.505	13.637	1356.563	1039.568
67.520	13.644	1355.881	1038.993
68.534	13.638	1354.815	1038.048
69.549	13.622	1353.593	1036.917
70.563	13.657	1352.159	1035.945
71.578	13.526	1351.187	1034.292
72.593	13.533	1350.420	1033.656
73.607	13.504	1349.597	1032.756
74.622	13.469	1348.839	1031.866
75.636	13.493	1348.111	1031.370
76.651	13.629	1347.229	1031.450
77.666	13.628	1346.877	1031.082
78.680	13.532	1346.597	1030.178
79.695	13.621	1345.581	1029.866
80.709	13.583	1345.265	1029.294
81.724	13.665	1343.830	1028.611
82.739	13.825	1342.759	1028.697
83.753	13.850	1341.957	1028.143
84.768	13.914	1340.989	1027.710
85.782	13.923	1340.080	1026.977
86.797	13.871	1339.127	1025.831
87.812	13.877	1337.596	1024.604
88.826	13.802	1336.526	1023.233
89.841	13.910	1335.249	1022.833
90.855	13.893	1334.457	1022.030
91.870	13.815	1333.917	1021.048
92.884	13.968	1332.800	1021.041
93.899	14.016	1331.703	1020.405
94.914	14.045	1330.957	1019.919
95.928	14.012	1330.311	1019.135
96.943	13.897	1329.450	1017.679
97.957	13.890	1328.248	1016.628
98.972	13.969	1327.136	1016.168
99.987	13.944	1326.135	1015.157
101.001	13.877	1325.118	1013.879
102.016	13.830	1324.205	1012.805
103.030	13.981	1322.710	1012.492
104.045	13.873	1322.200	1011.352
105.060	13.904	1320.942	1010.494
106.074	13.672	1319.555	1007.930
107.089	13.691	1318.062	1006.818
108.103	13.648	1316.646	1005.387
109.118	13.603	1315.874	1004.435
110.133	13.695	1314.427	1003.797
111.147	13.622	1312.797	1002.025
112.162	13.757	1311.177	1001.516
113.176	13.753	1310.463	1000.853
114.191	13.757	1309.809	1000.293
115.206	13.831	1308.064	999.318
116.220	13.728	1307.477	998.156
117.235	13.726	1305.771	996.756
118.249	13.645	1305.076	995.654
119.264	13.745	1303.597	995.032
120.279	13.692	1302.928	994.116
121.293	13.667	1301.804	993.023
122.308	13.719	1300.638	992.358
123.322	13.570	1299.878	990.799
124.337	13.607	1298.942	990.215
125.352	13.593	1297.836	989.205
126.366	13.655	1296.132	988.188
127.381	13.709	1295.199	987.709
128.395	13.735	1294.371	987.144
129.410	13.705	1293.653	986.331
130.424	13.811	1292.912	986.312
131.439	13.793	1291.945	985.377
132.454	13.776	1290.928	984.413
133.468	13.704	1289.959	983.164
134.483	13.849	1289.537	983.613
135.497	13.907	1288.036	982.722
136.512	13.810	1287.479	981.636
137.527	13.849	1285.949	980.618
138.541	13.774	1284.420	978.921
139.556	13.815	1283.609	978.460
140.570	13.912	1282.158	977.835
141.585	13.980	1280.571	976.941
142.600	14.007	1279.440	976.151
143.614	14.001	1278.735	975.490
144.629	14.121	1277.580	975.224
145.643	14.112	1276.504	974.263
146.658	14.048	1275.338	972.916
147.673	13.941	1273.889	971.096
148.687	13.888	1272.531	969.664
149.702	13.832	1271.228	968.262
150.716	13.835	1270.098	967.331
151.731	13.824	1269.044	966.380
152.746	13.819	1267.840	965.351
153.760	13.905	1266.452	964.704
154.775	13.949	1265.315	964.012
155.789	13.935	1264.093	962.910
156.804	13.983	1263.222	962.442
157.819	14.011	1262.653	962.082
158.833	14.078	1261.057	961.174
159.848	14.183	1260.220	961.057
160.862	14.143	1259.286	960.028
161.877	14.083	1258.262	958.813
162.892	14.000	1256.891	957.208
163.906	14.029	1255.981	956.599
164.921	13.985	1255.156	955.630
165.935	14.005	1254.505	955.167
166.950	14.063	1253.408	954.579
167.964	14.103	1252.657	954.154
168.979	14.036	1252.156	953.304
169.994	14.081	1251.779	953.185
171.008	14.085	1250.657	952.269
172.023	14.147	1249.951	952.003
173.037	14.185	1248.692	951.181
174.052	14.105	1248.153	950.229
175.067	14.007	1247.235	948.885
176.081	14.065	1246.028	948.212
177.096	14.075	1245.159	947.522
178.110	14.086	1244.094	946.694
179.125	14.094	1242.666	945.571
180.140	14.117	1241.728	944.903
181.154	14.132	1240.676	944.103
182.169	14.164	1239.103	943.005
183.183	14.170	1237.693	941.881
184.198	14.282	1236.639	941.628
185.213	14.261	1235.856	940.830
186.227	14.329	1234.232	939.898
187.242	14.383	1233.456	939.528
188.256	14.508	1232.313	939.279
189.271	14.426	1231.259	937.926
190.286	14.218	1230.368	935.998
191.300	14.129	1229.829	935.005
192.315	14.035	1228.730	933.555
193.329	13.977	1228.131	932.695
194.344	14.077	1227.164	932.441
195.359	14.237	1226.724	932.917
196.373	14.226	1226.006	932.226
197.388	14.370	1225.807	932.800
198.402	14.545	1225.245	933.271
199.417	14.549	1224.049	932.298
200.432	14.611	1223.576	932.200
201.446	14.581	1222.789	931.351
202.461	14.617	1221.827	930.740
203.475	14.609	1220.878	929.887
204.490	14.583	1219.021	928.247
205.504	14.559	1217.698	927.026
206.519	14.535	1216.917	926.214
207.534	14.573	1215.718	925.431
208.548	14.432	1214.894	923.940
209.563	14.519	1214.012	923.669
210.577	14.498	1213.402	923.010
211.592	14.550	1212.612	922.611
212.607	14.640	1211.602	922.261
213.621	14.723	1210.672	921.927
214.636	14.651	1209.637	920.661
215.650	14.679	1208.979	920.234
216.665	14.569	1208.515	919.196
217.680	14.808	1206.966	919.251
218.694	14.825	1206.367	918.803
219.709	14.797	1205.440	917.863
220.723	14.761	1205.269	917.455
221.738	14.890	1203.790	916.954
222.753	14.766	1203.264	915.795
223.767	14.856	1202.325	915.491
224.782	14.858	1201.933	915.119
225.796	14.987	1201.189	915.177
226.811	14.893	1200.263	913.877
227.826	14.898	1199.666	913.370
228.840	14.879	1198.883	912.589
229.855	14.812	1198.561	911.900
230.869	14.802	1197.497	910.956
231.884	14.742	1196.656	909.906
232.899	14.862	1195.438	909.555
233.913	14.767	1195.034	908.651
234.928	14.736	1194.056	907.659
235.942	14.729	1193.536	907.142
236.957	14.725	1192.550	906.290
237.972	14.830	1191.816	906.222
238.986	14.905	1190.921	905.869
240.001	14.825	1189.993	904.648
241.015	14.840	1189.356	904.167
242.030	14.911	1188.632	903.921
243.045	15.026	1187.872	903.885
244.059	15.007	1187.105	903.118
245.074	15.082	1186.332	902.854
246.088	15.045	1185.507	901.945
247.103	15.086	1184.824	901.567
248.117	15.065	1184.196	900.894
249.132	15.192	1183.335	900.844
250.147	15.321	1182.472	900.801
251.161	15.300	1181.758	900.065
252.176	15.312	1181.316	899.712
253.190	15.512	1180.302	899.933
254.205	15.433	1179.998	899.199
255.220	15.326	1179.785	898.383
256.234	15.299	1179.235	897.742
257.249	15.367	1178.377	897.372
258.263	15.477	1177.549	897.247
259.278	15.448	1176.877	896.505
260.293	15.522	1176.129	896.251
261.307	15.578	1175.270	895.812
262.322	15.495	1175.136	895.192
263.336	15.601	1174.130	894.908
264.351	15.620	1173.474	894.431
265.366	15.572	1172.841	893.614
266.380	15.722	1172.145	893.801
267.395	15.708	1171.342	893.039
268.409	15.516	1170.719	891.463
269.424	15.530	1169.865	890.806
270.439	15.627	1169.596	891.040
271.453	15.611	1168.558	890.087
272.468	15.527	1167.663	888.877
273.482	15.512	1166.768	888.040
274.497	15.504	1166.598	887.792
275.512	15.620	1165.895	887.788
276.526	15.570	1164.984	886.753
277.541	15.564	1163.967	885.867
278.555	15.656	1163.288	885.760
279.570	15.662	1162.733	885.287
280.585	15.776	1161.788	885.091
281.599	15.725	1160.818	884.006
282.614	15.633	1160.225	882.991
283.628	15.656	1159.003	882.103
284.643	15.738	1157.784	881.531
285.657	15.735	1156.966	880.810
286.672	15.794	1155.843	880.189
287.687	15.775	1155.571	879.806
288.701	15.901	1154.303	879.417
289.716	15.869	1153.609	878.644
290.730	15.690	1153.438	877.502
291.745	15.724	1152.326	876.756
292.760	15.788	1151.572	876.438
293.774	15.820	1151.159	876.212
294.789	15.957	1150.595	876.418
295.803	15.967	1149.972	875.919
296.818	15.829	1149.317	874.624
297.833	15.823	1148.224	873.686
298.847	15.889	1147.261	873.219
299.862	15.829	1146.793	872.476
300.876	15.928	1146.007	872.309
301.891	15.938	1145.061	871.568
302.906	16.071	1144.383	871.660
303.920	16.104	1143.632	871.181
304.935	16.233	1142.943	871.244
305.949	16.147	1142.309	870.243
306.964	16.180	1141.771	869.927
307.979	16.185	1141.049	869.326
308.993	16.184	1140.143	868.553
310.008	16.165	1139.500	867.888
311.022	16.319	1138.559	867.885
312.037	16.182	1137.591	866.368
313.052	16.192	1136.853	865.779
314.066	16.102	1135.709	864.369
315.081	16.058	1134.860	863.423
316.095	16.009	1134.400	862.743
317.110	15.992	1133.603	861.978
318.125	16.112	1132.922	861.995
319.139	16.132	1132.252	861.513
320.154	16.093	1131.520	860.679
321.168	16.171	1130.948	860.563
322.183	16.171	1130.333	860.024
323.197	16.213	1129.699	859.676
324.212	16.103	1129.211	858.672
325.227	16.303	1128.626	859.164
326.241	16.252	1127.861	858.246
327.256	16.178	1127.101	857.218
328.270	16.216	1126.078	856.558
329.285	16.170	1125.193	855.576
330.300	16.265	1124.517	855.467
331.314	16.185	1123.315	854.071
332.329	16.295	1122.504	853.935
333.343	16.302	1121.847	853.396
334.358	16.415	1120.335	852.739
335.373	16.477	1119.996	852.719
336.387	16.330	1119.429	851.472
337.402	16.401	1118.590	851.114
338.416	16.498	1117.907	851.008
339.431	16.532	1117.083	850.476
340.446	16.502	1116.507	849.811
341.460	16.564	1115.868	849.561
342.475	16.596	1115.006	848.991
343.489	16.597	1114.238	848.338
344.504	16.754	1112.890	848.020
345.519	16.700	1112.036	847.027
346.533	16.802	1111.295	846.896
347.548	16.705	1110.886	846.024
348.562	16.706	1110.231	845.456
349.577	16.646	1109.246	844.334
350.592	16.641	1108.478	843.649
351.606	16.654	1107.627	842.992
352.621	16.656	1106.847	842.330
353.635	16.666	1106.147	841.774
354.650	16.596	1105.562	840.907
355.665	16.722	1104.514	840.662
356.679	16.725	1104.275	840.421
357.694	16.642	1103.609	839.428
358.708	16.817	1102.672	839.505
359.723	16.798	1102.455	839.174
360.738	16.812	1101.805	838.674
361.752	16.771	1101.306	838.019
362.767	16.817	1100.768	837.759
363.781	16.764	1099.787	836.677
364.796	16.917	1099.316	837.002
365.810	16.974	1098.895	836.887
366.825	17.048	1097.866	836.396
367.840	17.038	1097.664	836.117
368.854	17.033	1096.928	835.459
369.869	17.076	1096.325	835.139
370.883	16.892	1095.894	833.830
371.898	16.956	1094.638	833.112
372.913	16.991	1094.119	832.819
373.927	17.110	1093.259	832.675
374.942	17.157	1092.614	832.337
375.956	17.129	1092.274	831.870
376.971	17.127	1091.651	831.313
377.986	17.229	1091.007	831.244
379.000	17.147	1091.006	830.772
380.015	17.272	1089.999	830.539
381.029	17.148	1089.467	829.456
382.044	17.304	1088.395	829.328
383.059	17.304	1088.098	829.030
384.073	17.392	1086.804	828.400
385.088	17.301	1086.071	827.324
386.102	17.431	1085.097	827.139
387.117	17.213	1084.406	825.480
388.132	17.288	1083.128	824.797
389.146	17.219	1082.216	823.696
390.161	17.310	1081.391	823.437
391.175	17.228	1080.909	822.598
392.190	17.280	1080.253	822.281
393.205	17.413	1079.799	822.503
394.219	17.370	1078.784	821.449
395.234	17.354	1077.999	820.704
396.248	17.269	1077.080	819.518
397.263	17.315	1075.538	818.494
398.278	17.454	1074.914	818.619
399.292	17.275	1074.238	817.169
400.307	17.267	1073.408	816.427
401.321	17.308	1072.847	816.125
402.336	17.305	1072.489	815.769
403.350	17.285	1071.655	814.966
404.365	17.297	1071.323	814.698
405.380	17.403	1070.236	814.304
406.394	17.472	1069.656	814.122
407.409	17.453	1068.733	813.258
408.423	17.507	1068.186	813.029
409.438	17.477	1067.685	812.429
410.453	17.589	1066.910	812.303
411.467	17.549	1066.562	811.775
412.482	17.653	1065.413	811.324
413.496	17.640	1064.690	810.639
414.511	17.734	1064.350	810.755
415.526	17.704	1063.922	810.216
416.540	17.720	1063.490	809.893
417.555	17.701	1063.151	809.470
418.569	17.795	1062.140	809.074
419.584	17.725	1061.519	808.197
420.599	17.809	1061.320	808.373
421.613	141.238	1396.367	1767.433
422.628	129.734	1445.182	1767.576
