DTS Sentinel unit serial number:	SN413079Multiplexer serial number:	ORYXHardware model number:	OX4-SRSoftware version number:	ORYX F/W v4.00 Oryx Data Collector v3.7.2.0data status	okinstallation	princeton_trtdifferential loss correction	single-endedforward channel	channel 2reverse channel	N/Adate	2019/09/10time	21:13:10forward acquisition time	60.00reverse acquisition time	0.00gamma	496.2192k internal	0.2330k external	0.2330temperature offset calibration	0.9943default loss term (dB/km)	0.3790temperature slope calibration	1.0000multiplexer offset coefficient	1.0000multiplexer slope coefficient	1.0000fibre end	0.00T internal ref (°C)	31.39T ext. ref 1 (°C)	-0.32T ext. ref 2 (°C)	24.53length (m)	temperature (°C)	Stokes	anti-Stokes-747.200	297.512	-0.071	0.131
-746.185	-149.445	-0.287	0.023
-745.171	249.102	0.047	0.080
-744.156	-109.343	-0.141	-0.030
-743.142	-200.000	-0.093	-0.451
-742.127	-60.412	0.119	0.051
-741.112	383.870	-0.088	0.183
-740.098	42.451	-0.135	0.124
-739.083	29.465	0.241	0.206
-738.069	54.457	0.217	0.211
-737.054	-117.224	0.149	-0.027
-736.039	-12.643	0.275	-0.180
-735.025	-194.544	0.340	0.003
-734.010	-1.094	-0.227	-0.162
-732.996	-193.102	0.121	0.001
-731.981	-105.019	-0.179	0.041
-730.966	800.000	-0.093	0.292
-729.952	-108.155	-0.289	0.063
-728.937	800.000	0.040	-0.171
-727.923	-103.498	0.386	-0.091
-726.908	109.404	0.215	0.259
-725.894	800.000	0.142	0.462
-724.879	209.705	0.050	-0.079
-723.864	-115.941	-0.313	-0.059
-722.850	-25.396	-0.032	-0.019
-721.835	-200.000	0.014	-0.072
-720.821	527.371	0.094	-0.223
-719.806	-47.002	-0.203	0.100
-718.791	-181.296	0.072	-0.001
-717.777	-98.890	0.104	-0.027
-716.762	183.876	-0.077	0.114
-715.748	-85.066	0.155	-0.049
-714.733	800.000	0.062	-0.205
-713.718	-1.550	0.127	0.090
-712.704	-200.000	-0.006	0.219
-711.689	-14.363	0.245	-0.159
-710.675	-200.000	-0.022	-0.185
-709.660	36.582	0.292	-0.259
-708.645	-200.000	-0.054	0.372
-707.631	50.751	-0.092	-0.087
-706.616	42.192	-0.120	-0.110
-705.602	-97.590	-0.064	-0.017
-704.587	-12.424	0.083	-0.055
-703.572	-22.215	0.226	0.138
-702.558	-76.150	-0.341	-0.121
-701.543	140.428	0.158	-0.210
-700.529	-81.033	0.170	0.057
-699.514	306.230	0.086	0.161
-698.499	-32.559	0.223	-0.125
-697.485	-137.517	0.155	0.018
-696.470	-31.251	0.166	0.094
-695.456	800.000	-0.069	0.195
-694.441	108.035	-0.267	-0.319
-693.426	-200.000	-0.124	-0.654
-692.412	-200.000	-0.004	0.072
-691.397	-63.658	-0.305	0.126
-690.383	-67.492	-0.685	0.270
-689.368	276.545	0.042	0.074
-688.354	-200.000	0.022	0.272
-687.339	-200.000	-0.055	-0.293
-686.324	-183.832	0.145	-0.002
-685.310	800.000	0.059	0.184
-684.295	-105.447	-0.024	0.005
-683.281	-95.101	0.121	0.033
-682.266	700.756	-0.081	-0.214
-681.251	-55.267	0.094	-0.042
-680.237	236.651	0.035	0.058
-679.222	800.000	0.025	0.102
-678.208	-126.943	-0.221	-0.033
-677.193	-153.487	0.303	-0.021
-676.178	61.745	-0.321	-0.321
-675.164	-129.076	0.392	-0.055
-674.149	-129.610	-0.309	0.043
-673.135	50.005	0.110	-0.104
-672.120	-200.000	0.041	0.323
-671.105	-35.219	-0.176	-0.096
-670.091	-97.116	0.124	-0.033
-669.076	158.672	-0.153	-0.213
-668.062	-97.391	0.093	0.024
-667.047	-6.184	0.171	-0.117
-666.032	-82.740	0.120	0.039
-665.018	494.256	-0.131	-0.301
-664.003	-116.296	0.087	0.016
-662.989	37.482	0.044	0.039
-661.974	211.093	0.070	-0.110
-660.959	-86.688	0.249	0.076
-659.945	-58.540	-0.061	0.027
-658.930	324.645	-0.080	-0.153
-657.916	800.000	-0.075	0.211
-656.901	226.678	0.198	0.322
-655.886	-200.000	0.018	-0.141
-654.872	-111.238	-0.111	0.023
-653.857	106.642	-0.296	0.352
-652.843	-15.412	0.229	-0.147
-651.828	800.000	-0.030	-0.115
-650.814	800.000	-0.072	0.292
-649.799	668.513	0.053	0.137
-648.784	-28.398	-0.214	0.124
-647.770	185.119	-0.062	-0.092
-646.755	-46.157	-0.301	0.148
-645.741	-1.838	0.037	-0.026
-644.726	-180.719	-0.404	0.008
-643.711	-130.808	0.030	0.004
-642.697	-15.067	-0.078	0.050
-641.682	159.918	0.124	0.173
-640.668	-200.000	0.001	0.026
-639.653	166.831	-0.235	0.335
-638.638	-80.260	-0.257	-0.086
-637.624	-108.493	-0.242	-0.052
-636.609	45.799	0.181	-0.168
-635.595	-56.213	-0.328	-0.146
-634.580	78.007	-0.064	0.069
-633.565	-200.000	-0.029	0.226
-632.551	-15.681	0.285	0.182
-631.536	154.442	0.093	-0.127
-630.522	-142.680	-0.304	0.030
-629.507	-200.000	0.044	0.290
-628.492	-44.860	0.092	0.046
-627.478	-80.568	0.102	-0.034
-626.463	-84.333	-0.059	-0.019
-625.449	-141.811	0.146	-0.015
-624.434	35.447	0.094	0.083
-623.419	-200.000	-0.012	-0.239
-622.405	-45.268	0.226	0.112
-621.390	479.868	0.050	-0.114
-620.376	-44.812	-0.113	-0.057
-619.361	395.021	-0.234	0.488
-618.346	-137.730	0.329	0.037
-617.332	-129.812	0.132	-0.018
-616.317	-107.054	0.241	-0.053
-615.303	8.327	0.192	0.144
-614.288	-64.573	-0.101	0.041
-613.273	137.963	-0.067	-0.088
-612.259	-83.455	0.046	0.015
-611.244	-52.949	0.151	-0.070
-610.230	-126.475	0.205	-0.031
-609.215	-126.052	-0.143	-0.021
-608.201	14.783	-0.141	0.110
-607.186	644.782	-0.094	0.240
-606.171	130.185	0.074	0.095
-605.157	-200.000	-0.065	0.371
-604.142	-200.000	0.014	0.245
-603.128	-200.000	-0.027	0.131
-602.113	0.977	0.152	-0.109
-601.098	442.987	-0.014	-0.031
-600.084	-200.000	0.010	-0.310
-599.069	-135.400	0.220	-0.026
-598.055	10.888	0.222	0.170
-597.040	-95.538	-0.200	0.054
-596.025	-155.090	-0.551	0.036
-595.011	-128.508	0.190	-0.027
-593.996	126.971	-0.064	-0.081
-592.982	-16.838	0.399	0.253
-591.967	-95.444	0.216	0.058
-590.952	791.441	0.083	-0.228
-589.938	-23.726	0.066	-0.040
-588.923	800.000	0.042	0.127
-587.909	97.256	0.147	-0.169
-586.894	405.966	0.019	0.040
-585.879	54.958	0.146	0.141
-584.865	800.000	0.024	0.072
-583.850	-77.292	0.116	-0.040
-582.836	800.000	0.032	-0.111
-581.821	800.000	-0.127	-0.541
-580.806	31.809	0.181	0.156
-579.792	800.000	0.069	0.274
-578.777	-116.786	0.266	0.049
-577.763	-42.040	-0.054	0.028
-576.748	-56.273	-0.235	0.105
-575.733	309.083	-0.180	0.336
-574.719	-130.143	0.135	-0.018
-573.704	20.377	-0.145	0.117
-572.690	137.322	-0.114	0.149
-571.675	-200.000	-0.029	-0.191
-570.661	-85.066	0.079	0.025
-569.646	114.057	-0.313	-0.381
-568.631	491.942	0.152	-0.348
-567.617	152.895	-0.187	-0.255
-566.602	634.948	-0.136	-0.345
-565.588	-125.290	-0.187	-0.028
-564.573	134.950	-0.202	-0.262
-563.558	-21.790	-0.226	0.137
-562.544	712.315	-0.144	-0.381
-561.529	-200.000	-0.004	-0.257
-560.515	43.451	0.207	-0.189
-559.500	314.926	-0.124	-0.234
-558.485	-200.000	0.031	-0.203
-557.471	-79.069	-0.240	0.082
-556.456	-200.000	-0.004	0.017
-555.442	-60.393	-0.232	-0.099
-554.427	-66.809	0.085	-0.034
-553.412	181.469	-0.075	-0.110
-552.398	-94.820	0.265	-0.072
-551.383	-51.491	0.358	-0.167
-550.369	-38.696	-0.169	-0.089
-549.354	377.799	0.054	0.110
-548.339	221.468	-0.113	-0.181
-547.325	66.895	-0.307	0.312
-546.310	158.939	0.102	-0.141
-545.296	-76.560	0.254	0.089
-544.281	800.000	0.088	0.256
-543.266	-200.000	0.017	0.333
-542.252	-78.309	0.172	-0.059
-541.237	62.660	-0.107	0.107
-540.223	528.625	-0.029	0.068
-539.208	-200.000	-0.023	-0.101
-538.193	723.363	-0.052	0.138
-537.179	-200.000	0.040	-0.240
-536.164	-124.867	0.106	0.016
-535.150	65.094	-0.197	0.199
-534.135	160.463	0.132	0.184
-533.121	128.622	0.048	-0.061
-532.106	-66.539	-0.082	0.033
-531.091	-7.639	-0.165	-0.111
-530.077	-200.000	-0.071	0.336
-529.062	-48.419	-0.203	-0.098
-528.048	-39.286	-0.272	-0.142
-527.033	573.375	0.169	0.410
-526.018	-200.000	-0.092	0.428
-525.004	-200.000	0.002	0.121
-523.989	-140.524	-0.122	-0.013
-522.975	-30.167	0.256	-0.146
-521.960	-107.847	-0.307	0.067
-520.945	114.246	0.184	-0.224
-519.931	466.130	0.090	0.201
-518.916	-198.466	0.074	0.000
-517.902	323.435	0.132	-0.252
-516.887	-55.747	0.264	0.118
-515.872	41.354	0.261	0.236
-514.858	77.356	-0.131	-0.139
-513.843	-131.044	0.315	-0.042
-512.829	-200.000	-0.016	-0.222
-511.814	-113.361	-0.284	-0.056
-510.799	-200.000	-0.012	0.183
-509.785	76.594	-0.172	0.182
-508.770	800.000	0.034	-0.112
-507.756	337.188	-0.026	0.050
-506.741	255.245	-0.173	0.295
-505.726	-181.369	-0.209	-0.004
-504.712	64.228	0.172	0.172
-503.697	-200.000	0.004	-0.190
-502.683	-200.000	-0.012	0.077
-501.668	3.584	-0.047	0.034
-500.653	-94.864	-0.244	-0.066
-499.639	-150.892	0.288	-0.022
-498.624	800.000	-0.090	0.332
-497.610	800.000	-0.015	-0.048
-496.595	-135.234	0.406	-0.049
-495.581	800.000	-0.099	-0.335
-494.566	-200.000	-0.009	0.094
-493.551	-53.907	-0.241	0.109
-492.537	-200.000	0.004	0.200
-491.522	317.437	0.066	-0.125
-490.508	46.577	0.223	0.206
-489.493	-14.413	-0.280	0.179
-488.478	-5.975	0.253	0.172
-487.464	15.525	0.188	0.147
-486.449	-43.932	-0.152	-0.076
-485.435	-131.035	0.036	0.005
-484.420	-200.000	0.030	-0.266
-483.405	-200.000	-0.032	-0.192
-482.391	-125.919	-0.272	0.041
-481.376	-85.804	0.020	0.006
-480.362	488.628	-0.085	-0.194
-479.347	553.936	0.064	-0.153
-478.332	800.000	-0.073	0.282
-477.318	-110.804	0.376	0.077
-476.303	-200.000	-0.001	0.085
-475.289	-76.246	-0.335	0.117
-474.274	-54.861	0.139	-0.063
-473.259	42.217	0.276	0.249
-472.245	-139.003	0.211	0.023
-471.230	-102.059	-0.272	0.065
-470.216	800.000	0.038	0.124
-469.201	-200.000	-0.059	-0.551
-468.186	156.400	0.073	-0.100
-467.172	-126.881	0.125	-0.018
-466.157	800.000	-0.092	0.293
-465.143	-122.628	0.291	0.047
-464.128	-200.000	-0.035	-0.362
-463.113	-107.764	-0.189	0.041
-462.099	473.230	0.087	-0.196
-461.084	460.287	0.031	-0.069
-460.070	-200.000	0.000	0.112
-459.055	800.000	-0.070	0.236
-458.040	-12.545	0.246	-0.160
-457.026	-200.000	-0.022	-0.243
-456.011	-118.066	0.355	0.063
-454.997	130.602	-0.276	0.352
-453.982	-98.430	-0.119	0.030
-452.968	228.905	-0.267	-0.433
-451.953	-126.601	0.210	-0.031
-450.938	33.287	0.270	-0.233
-449.924	-31.856	-0.054	0.030
-448.909	123.397	-0.144	0.180
-447.895	-200.000	-0.013	0.103
-446.880	-47.657	0.215	-0.104
-445.865	166.586	-0.094	-0.133
-444.851	-69.289	0.414	-0.158
-443.836	-73.249	0.309	0.113
-442.822	266.090	-0.095	0.164
-441.807	-152.029	0.075	0.005
-440.792	-200.000	0.000	0.322
-439.778	355.545	0.053	-0.104
-438.763	280.329	-0.123	-0.219
-437.749	-115.351	0.479	-0.090
-436.734	-33.241	0.148	-0.081
-435.719	-200.000	0.025	0.189
-434.705	-194.287	-0.226	0.002
-433.690	-14.568	0.246	-0.157
-432.676	461.644	-0.065	0.145
-431.661	-39.297	0.232	-0.121
-430.646	800.000	0.073	-0.218
-429.632	-200.000	-0.031	0.149
-428.617	-99.419	0.098	0.025
-427.603	-95.164	-0.245	-0.066
-426.588	164.907	-0.153	0.214
-425.573	-4.127	-0.312	-0.215
-424.559	-200.000	-0.017	-0.292
-423.544	174.649	-0.070	0.100
-422.530	-45.462	-0.221	-0.109
-421.515	75.913	0.066	0.069
-420.500	-159.631	0.376	-0.021
-419.486	401.051	-0.201	-0.420
-418.471	-200.000	0.000	-0.271
-417.457	171.196	-0.129	-0.184
-416.442	128.858	0.219	0.278
-415.428	-32.426	-0.170	0.094
-414.413	101.887	0.195	-0.226
-413.398	-63.955	-0.339	0.138
-412.384	104.903	0.108	0.127
-411.369	-61.257	-0.348	0.146
-410.355	127.413	-0.159	-0.201
-409.340	23.120	-0.317	-0.259
-408.325	-43.497	0.155	0.078
-407.311	486.115	-0.095	-0.216
-406.296	15.612	-0.090	0.071
-405.282	-117.898	-0.214	0.038
-404.267	-200.000	-0.015	-0.122
-403.252	-200.000	-0.010	-0.060
-402.238	-108.975	0.171	0.036
-401.223	800.000	-0.109	0.432
-400.209	467.602	0.128	-0.286
-399.194	580.252	0.038	-0.093
-398.179	-130.492	-0.137	-0.018
-397.165	-160.243	0.121	0.006
-396.150	-200.000	0.030	-0.254
-395.136	800.000	-0.043	-0.170
-394.121	83.096	0.168	0.181
-393.106	-21.247	0.187	-0.113
-392.092	-47.270	-0.175	-0.085
-391.077	-190.892	0.225	0.002
-390.063	-82.191	0.096	-0.031
-389.048	295.271	-0.045	-0.082
-388.033	800.000	-0.025	-0.107
-387.019	77.535	-0.039	0.041
-386.004	13.879	0.080	-0.062
-384.990	164.299	0.135	-0.189
-383.975	-10.407	-0.201	-0.132
-382.960	679.459	0.164	0.424
-381.946	-200.000	0.007	0.224
-380.931	-200.000	-0.007	0.097
-379.917	-200.000	-0.005	-0.338
-378.902	-200.000	-0.019	-0.199
-377.888	-200.000	-0.047	0.301
-376.873	-46.168	-0.273	0.133
-375.858	-140.916	0.215	-0.022
-374.844	-200.000	0.008	-0.172
-373.829	-7.636	-0.245	0.165
-372.815	166.092	0.176	0.247
-371.800	-113.244	0.308	-0.060
-370.785	604.684	0.145	0.358
-369.771	34.570	0.241	0.209
-368.756	-5.860	0.215	0.146
-367.742	800.000	-0.078	0.216
-366.727	-200.000	-0.029	-0.236
-365.712	-101.597	0.144	-0.035
-364.698	-37.688	-0.298	0.157
-363.683	758.167	0.044	-0.117
-362.669	800.000	-0.031	0.128
-361.654	621.944	0.109	0.272
-360.639	411.221	0.029	0.061
-359.625	262.133	-0.155	-0.266
-358.610	-61.177	0.067	0.028
-357.596	-197.791	-0.338	-0.002
-356.581	103.745	-0.086	-0.100
-355.566	-200.000	-0.026	-0.269
-354.552	800.000	-0.038	-0.144
-353.537	-177.945	0.267	-0.006
-352.523	-141.120	0.306	0.031
-351.508	80.477	0.093	-0.100
-350.493	-134.267	0.295	0.036
-349.479	53.988	-0.040	0.038
-348.464	245.159	-0.130	-0.217
-347.450	-30.144	0.146	0.082
-346.435	800.000	-0.048	0.150
-345.420	-9.783	0.132	-0.087
-344.406	164.802	0.162	-0.226
-343.391	800.000	0.071	0.258
-342.377	-88.530	0.107	-0.031
-341.362	17.214	0.124	-0.097
-340.348	322.511	0.111	-0.210
-339.333	452.095	-0.075	0.164
-338.318	-13.247	-0.158	-0.102
-337.304	800.000	0.125	0.373
-336.289	423.267	-0.107	-0.229
-335.275	-200.000	-0.007	-0.348
-334.260	274.373	-0.120	-0.210
-333.245	13.552	-0.225	0.173
-332.231	-200.000	-0.002	0.020
-331.216	168.071	-0.138	-0.194
-330.202	-46.025	-0.319	0.156
-329.187	-44.397	-0.324	-0.161
-328.172	-103.254	0.093	-0.022
-327.158	123.301	-0.189	0.235
-326.143	127.966	-0.125	0.157
-325.129	150.581	0.074	-0.100
-324.114	177.123	-0.169	-0.244
-323.099	-55.276	-0.221	0.099
-322.085	134.628	0.150	0.192
-321.070	18.077	-0.173	-0.137
-320.056	207.745	-0.156	0.241
-319.041	-200.000	-0.010	0.181
-318.026	-200.000	-0.022	0.310
-317.012	-194.267	0.356	0.003
-315.997	-26.334	0.132	-0.077
-314.983	101.337	0.099	0.114
-313.968	-102.695	-0.311	-0.073
-312.953	-71.253	0.204	0.076
-311.939	103.585	-0.090	0.104
-310.924	-133.445	0.384	-0.048
-309.910	-46.832	0.175	0.085
-308.895	-25.973	-0.425	0.248
-307.880	-200.000	0.069	-0.324
-306.866	-144.210	-0.227	-0.021
-305.851	330.127	-0.040	-0.076
-304.837	-54.998	-0.057	-0.025
-303.822	695.067	-0.042	0.110
-302.807	-104.542	-0.102	-0.023
-301.793	409.660	-0.076	-0.160
-300.778	-28.835	0.119	0.068
-299.764	424.007	0.096	0.204
-298.749	-200.000	-0.025	0.129
-297.735	-200.000	0.054	0.310
-296.720	-132.610	-0.167	0.021
-295.705	124.772	0.089	0.110
-294.691	-200.000	-0.015	0.218
-293.676	-173.724	0.046	-0.001
-292.662	-200.000	-0.024	-0.132
-291.647	285.948	0.059	-0.106
-290.632	-200.000	-0.036	-0.324
-289.618	9.362	0.206	-0.154
-288.603	63.939	-0.045	0.045
-287.589	-105.407	-0.113	0.025
-286.574	159.088	-0.066	-0.090
-285.559	800.000	0.067	-0.237
-284.545	195.789	0.066	-0.100
-283.530	657.036	-0.063	-0.160
-282.516	195.662	-0.012	0.017
-281.501	800.000	-0.060	0.215
-280.486	-85.527	-0.123	-0.038
-279.472	-133.777	0.549	-0.068
-278.457	-200.000	0.016	-0.119
-277.443	-91.638	0.154	-0.043
-276.428	-53.279	-0.245	-0.111
-275.413	-43.102	-0.111	-0.056
-274.399	492.255	-0.103	-0.234
-273.384	-142.302	-0.383	-0.037
-272.370	158.580	-0.051	-0.070
-271.355	202.998	-0.111	0.170
-270.340	772.224	0.066	0.177
-269.326	36.903	0.095	-0.083
-268.311	-200.000	0.004	-0.324
-267.297	151.279	-0.165	0.223
-266.282	800.000	-0.053	-0.145
-265.267	77.078	-0.185	-0.195
-264.253	-178.941	0.420	0.009
-263.238	149.952	-0.076	-0.102
-262.224	466.404	-0.146	0.322
-261.209	-200.000	-0.089	0.413
-260.195	800.000	0.089	-0.304
-259.180	-200.000	0.011	0.155
-258.165	715.772	0.050	0.132
-257.151	-200.000	0.006	-0.119
-256.136	612.960	-0.050	-0.124
-255.122	102.378	-0.246	-0.284
-254.107	158.728	-0.050	0.069
-253.092	-200.000	0.036	0.314
-252.078	-200.000	0.040	-0.285
-251.063	170.749	-0.114	0.161
-250.049	150.675	0.152	-0.204
-249.034	499.959	0.143	0.325
-248.019	496.847	-0.127	0.288
-247.005	8.515	-0.042	-0.031
-245.990	-18.791	0.108	0.066
-244.976	-73.588	0.235	-0.085
-243.961	-74.912	-0.223	-0.079
-242.946	-120.289	0.434	0.073
-241.932	-90.554	0.218	0.062
-240.917	800.000	-0.058	-0.240
-239.903	-61.528	-0.394	-0.163
-238.888	375.465	0.152	-0.306
-237.873	-34.662	-0.351	-0.190
-236.859	-41.755	0.115	-0.058
-235.844	5.365	0.281	-0.205
-234.830	11.004	-0.367	-0.277
-233.815	800.000	-0.037	-0.154
-232.800	33.846	0.285	0.245
-231.786	-51.960	0.220	-0.101
-230.771	-18.407	0.271	-0.167
-229.757	-47.920	-0.286	-0.137
-228.742	-38.069	0.085	-0.045
-227.727	-37.964	0.314	-0.165
-226.713	0.966	0.172	-0.121
-225.698	26.838	-0.113	-0.094
-224.684	-1.927	0.337	-0.233
-223.669	-102.153	0.371	-0.088
-222.655	-65.668	0.156	0.062
-221.640	800.000	0.112	0.324
-220.625	201.010	-0.097	0.147
-219.611	-110.272	-0.207	0.042
-218.596	-200.000	0.046	-0.216
-217.582	-27.721	-0.216	0.124
-216.567	443.817	0.224	-0.484
-215.552	79.257	-0.215	-0.227
-214.538	110.634	0.227	0.269
-213.523	-144.512	0.248	0.023
-212.509	63.941	0.069	-0.068
-211.494	-65.030	0.232	-0.092
-210.479	93.117	0.061	-0.068
-209.465	-4.694	-0.357	-0.243
-208.450	-72.211	0.031	0.011
-207.436	309.995	0.054	-0.099
-206.421	39.765	-0.231	0.205
-205.406	-37.594	0.174	0.091
-204.392	-44.612	-0.558	0.275
-203.377	-200.000	-0.012	-0.127
-202.363	-51.092	-0.113	-0.052
-201.348	99.386	-0.232	0.265
-200.333	57.574	-0.035	-0.034
-199.319	-200.000	-0.010	0.090
-198.304	-200.000	0.004	-0.150
-197.290	-107.112	-0.393	-0.086
-196.275	180.358	0.138	0.199
-195.260	-135.759	0.535	-0.062
-194.246	779.121	-0.062	-0.168
-193.231	-54.100	-0.188	-0.084
-192.217	-114.307	0.203	-0.039
-191.202	-64.908	0.193	-0.077
-190.187	-34.142	-0.107	-0.058
-189.173	66.558	0.144	-0.145
-188.158	-200.000	0.008	-0.066
-187.144	350.447	0.144	0.280
-186.129	-200.000	0.048	-0.340
-185.114	109.719	-0.307	-0.363
-184.100	33.027	-0.258	0.220
-183.085	112.523	-0.106	0.126
-182.071	-27.081	-0.069	-0.040
-181.056	-119.071	-0.183	0.031
-180.042	-113.293	-0.073	0.014
-179.027	-108.935	-0.176	0.037
-178.012	82.624	0.406	0.434
-176.998	-158.242	0.118	-0.007
-175.983	-17.692	-0.280	0.173
-174.969	-104.461	-0.459	0.104
-173.954	-126.373	0.269	0.039
-172.939	82.732	0.149	0.160
-171.925	800.000	0.106	0.452
-170.910	800.000	0.048	0.186
-169.896	249.745	-0.066	-0.110
-168.881	800.000	-0.074	0.252
-167.866	-200.000	0.064	-0.354
-166.852	-128.217	-0.082	0.011
-165.837	602.113	0.034	-0.083
-164.823	-200.000	-0.027	-0.285
-163.808	153.371	-0.146	-0.196
-162.793	-98.341	0.231	0.058
-161.779	100.881	0.147	0.168
-160.764	-200.000	0.014	0.213
-159.750	-88.939	-0.307	0.090
-158.735	-200.000	0.036	0.246
-157.720	635.764	0.104	-0.260
-156.706	-200.000	0.010	0.276
-155.691	-200.000	-0.004	-0.142
-154.677	356.569	-0.310	0.607
-153.662	-134.631	-0.200	0.024
-152.647	192.454	0.246	0.365
-151.633	184.720	-0.110	0.160
-150.618	-74.748	0.081	0.029
-149.604	-117.767	0.231	-0.041
-148.589	459.067	-0.092	0.202
-147.574	-91.121	0.163	-0.046
-146.560	100.152	0.249	0.284
-145.545	-146.986	-0.177	0.015
-144.531	-200.000	-0.018	0.151
-143.516	800.000	0.089	0.312
-142.502	800.000	-0.025	0.070
-141.487	83.934	-0.044	0.048
-140.472	306.941	-0.035	0.064
-139.458	-174.928	0.306	0.008
-138.443	800.000	0.058	-0.218
-137.429	464.315	0.154	-0.339
-136.414	282.632	-0.048	0.084
-135.399	-200.000	0.023	0.120
-134.385	274.749	0.191	0.333
-133.370	-200.000	0.021	0.221
-132.356	31.678	0.191	-0.161
-131.341	-17.572	-0.270	0.167
-130.326	-115.435	-0.053	-0.010
-129.312	226.499	0.040	-0.063
-128.297	-200.000	0.050	-0.292
-127.283	800.000	0.101	-0.312
-126.268	-104.498	0.238	0.054
-125.253	220.690	0.081	0.127
-124.239	800.000	-0.048	-0.190
-123.224	531.386	-0.119	-0.277
-122.210	134.628	-0.146	-0.186
-121.195	-200.000	-0.003	0.235
-120.180	95.315	-0.157	-0.176
-119.166	158.194	-0.105	0.143
-118.151	-7.705	-0.371	-0.246
-117.137	52.347	-0.347	-0.325
-116.122	150.108	-0.191	0.254
-115.107	-142.232	-0.145	-0.014
-114.093	143.342	-0.102	-0.133
-113.078	-32.674	-0.112	-0.061
-112.064	71.464	0.201	-0.205
-111.049	39.811	-0.407	0.359
-110.034	181.051	-0.104	0.150
-109.020	-112.081	0.211	0.042
-108.005	-200.000	0.012	0.139
-106.991	-88.185	0.339	-0.100
-105.976	-200.000	0.021	-0.327
-104.962	-91.574	0.135	0.038
-103.947	-90.370	0.045	0.013
-102.932	-200.000	-0.049	0.323
-101.918	-3.280	0.239	-0.163
-100.903	-200.000	-0.031	0.146
-99.889	-147.701	-0.119	0.010
-98.874	62.989	-0.127	-0.125
-97.859	-154.260	-0.212	-0.014
-96.845	-110.474	0.267	-0.054
-95.830	-113.152	0.088	0.017
-94.816	264.221	0.140	0.240
-93.801	-200.000	-0.048	-0.279
-92.786	196.946	0.060	0.090
-91.772	800.000	0.049	0.157
-90.757	65.577	-0.204	-0.203
-89.743	28.238	0.215	0.178
-88.728	390.039	0.113	0.231
-87.713	629.466	0.101	-0.250
-86.699	-160.818	-0.212	-0.011
-85.684	-13.200	0.359	-0.229
-84.670	-114.003	-0.130	-0.025
-83.655	-102.647	0.181	0.042
-82.640	-200.000	0.024	-0.119
-81.626	16.653	0.326	0.253
-80.611	-25.576	0.075	-0.043
-79.597	-25.755	0.086	-0.049
-78.582	-90.920	-0.239	0.068
-77.567	-200.000	-0.003	0.036
-76.553	-12.919	0.215	-0.137
-75.538	-93.055	0.017	-0.005
-74.524	251.357	-0.034	-0.057
-73.509	-62.488	0.234	0.095
-72.494	-200.000	-0.027	0.309
-71.480	33.593	0.153	-0.130
-70.465	-24.678	0.101	0.059
-69.451	35.337	-0.157	-0.135
-68.436	-12.028	0.156	-0.100
-67.422	-18.303	-0.092	-0.056
-66.407	199.717	-0.101	-0.152
-65.392	-93.148	-0.133	-0.036
-64.378	-115.256	0.230	-0.043
-63.363	-78.952	-0.138	0.046
-62.349	106.492	0.299	0.348
-61.334	0.095	-1.144	-0.799
-60.319	50.850	0.487	0.452
-59.305	640.637	-0.368	-0.919
-58.290	223.169	0.689	1.088
-57.276	800.000	0.378	1.578
-56.261	-200.000	97.968	608.267
-55.246	596.549	1403.672	3406.816
-54.232	191.249	2605.615	3843.409
-53.217	110.512	2273.572	2678.205
-52.203	40.966	1892.544	1674.173
-51.188	34.659	1681.469	1440.018
-50.173	31.968	1637.944	1382.892
-49.159	49.550	1685.931	1555.224
-48.144	51.243	1701.677	1582.335
-47.130	34.304	1661.479	1420.031
-46.115	31.550	1646.783	1387.029
-45.100	31.324	1642.082	1381.346
-44.086	31.341	1639.589	1379.321
-43.071	31.280	1637.517	1377.070
-42.057	31.243	1635.163	1374.766
-41.042	31.236	1633.364	1373.151
-40.027	31.233	1631.240	1371.289
-39.013	31.245	1629.196	1369.604
-37.998	31.209	1627.724	1368.048
-36.984	31.272	1626.325	1367.279
-35.969	31.394	1623.942	1366.111
-34.954	31.332	1622.737	1364.587
-33.940	31.422	1621.415	1364.084
-32.925	31.395	1619.498	1362.218
-31.911	31.348	1618.116	1360.662
-30.896	31.313	1616.007	1358.579
-29.881	31.346	1614.233	1357.271
-28.867	31.397	1612.385	1356.031
-27.852	31.306	1611.563	1354.629
-26.838	31.349	1609.391	1353.061
-25.823	31.374	1608.466	1352.411
-24.809	31.440	1606.598	1351.262
-23.794	31.389	1605.671	1350.059
-22.779	31.472	1603.694	1348.941
-21.765	31.430	1602.606	1347.673
-20.750	31.409	1600.892	1346.026
-19.736	31.433	1599.344	1344.842
-18.721	31.415	1597.823	1343.384
-17.706	31.391	1596.580	1342.111
-16.692	31.461	1594.575	1340.875
-15.677	31.396	1594.010	1339.883
-14.663	31.498	1592.032	1338.894
-13.648	31.448	1590.764	1337.420
-12.633	31.460	1589.228	1336.157
-11.619	31.480	1587.334	1334.660
-10.604	31.429	1585.922	1333.054
-9.590	31.404	1584.714	1331.809
-8.575	31.468	1583.610	1331.281
-7.560	31.430	1582.983	1330.434
-6.546	31.466	1581.118	1329.066
-5.531	31.512	1580.230	1328.593
-4.517	31.423	1579.427	1327.233
-3.502	31.375	1578.393	1325.974
-2.487	31.366	1576.477	1324.244
-1.473	31.170	1564.737	1312.954
-0.458	28.069	1544.832	1274.626
0.556	22.047	1544.788	1241.371
1.571	19.697	1568.538	1243.459
2.586	19.341	1581.494	1251.036
3.600	17.394	1529.500	1196.121
4.615	9.355	1420.651	1058.203
5.629	1.271	1356.093	959.096
6.644	-0.187	1347.542	943.803
7.659	-0.364	1346.509	941.881
8.673	-0.379	1345.413	940.941
9.688	-0.370	1343.172	939.341
10.702	-0.599	1340.424	935.909
11.717	2.259	1346.539	958.022
12.731	11.384	1363.019	1027.343
13.746	18.586	1375.258	1082.074
14.761	19.901	1376.835	1091.521
15.775	20.149	1376.061	1092.371
16.790	20.205	1376.061	1092.631
17.804	20.226	1375.076	1091.883
18.819	20.428	1375.198	1093.152
19.834	20.495	1374.760	1093.130
20.848	20.509	1374.286	1092.742
21.863	20.481	1373.194	1091.604
22.877	20.537	1372.038	1090.939
23.892	20.570	1371.004	1090.225
24.907	20.524	1370.337	1089.313
25.921	20.487	1369.541	1088.350
26.936	20.576	1368.157	1087.711
27.950	20.539	1367.652	1086.985
28.965	20.530	1365.827	1085.378
29.980	20.442	1364.951	1084.039
30.994	20.474	1363.703	1083.149
32.009	20.595	1362.423	1082.790
33.023	20.614	1361.111	1081.771
34.038	20.468	1360.315	1080.134
35.053	20.602	1359.034	1079.858
36.067	20.536	1358.006	1078.530
37.082	20.504	1357.696	1077.993
38.096	20.455	1356.524	1076.663
39.111	20.464	1355.545	1075.848
40.126	20.557	1355.024	1075.916
41.140	20.553	1353.894	1074.894
42.155	20.593	1353.746	1074.933
43.169	20.507	1353.497	1074.105
44.184	20.492	1353.555	1073.964
45.199	20.555	1353.096	1073.892
46.213	20.496	1352.834	1073.225
47.228	20.652	1350.933	1072.587
48.242	20.522	1350.310	1071.194
49.257	20.552	1349.356	1070.531
50.271	20.590	1347.362	1069.084
51.286	20.486	1346.566	1067.721
52.301	20.482	1344.767	1066.173
53.315	20.503	1344.245	1065.796
54.330	20.424	1343.583	1064.694
55.344	20.445	1342.300	1063.708
56.359	20.508	1340.824	1062.830
57.374	20.384	1340.578	1061.787
58.388	20.631	1339.325	1062.206
59.403	20.499	1339.788	1061.672
60.417	20.616	1338.409	1061.202
61.432	20.511	1337.729	1059.925
62.447	20.546	1337.060	1059.516
63.461	20.503	1335.748	1058.121
64.476	20.527	1334.541	1057.215
65.490	20.570	1333.319	1056.420
66.505	20.714	1331.461	1055.725
67.520	20.517	1330.802	1053.915
68.534	20.433	1329.845	1052.558
69.549	20.530	1329.049	1052.418
70.563	20.579	1327.464	1051.368
71.578	20.545	1326.793	1050.536
72.593	20.567	1325.961	1049.920
73.607	20.540	1324.838	1048.777
74.622	20.528	1324.418	1048.278
75.636	20.536	1324.038	1047.929
76.651	20.618	1323.299	1047.747
77.666	20.515	1322.972	1046.774
78.680	20.563	1322.155	1046.322
79.695	20.461	1321.612	1045.187
80.709	20.559	1320.446	1044.762
81.724	20.592	1319.241	1043.915
82.739	20.604	1318.661	1043.434
83.753	20.547	1317.879	1042.383
84.768	20.539	1316.546	1041.187
85.782	20.518	1315.658	1040.266
86.797	20.569	1314.145	1039.286
87.812	20.508	1313.323	1038.178
88.826	20.664	1311.822	1037.829
89.841	20.529	1311.005	1036.287
90.855	20.619	1309.772	1035.755
91.870	20.666	1309.109	1035.420
92.884	20.608	1308.558	1034.549
93.899	20.647	1307.585	1033.923
94.914	20.544	1307.031	1032.778
95.928	20.463	1306.381	1031.692
96.943	20.626	1305.328	1031.735
97.957	20.617	1304.347	1030.818
98.972	20.652	1303.584	1030.329
99.987	20.700	1302.156	1029.396
101.001	20.581	1301.114	1027.775
102.016	20.602	1300.327	1027.186
103.030	20.627	1299.510	1026.597
104.045	20.635	1298.552	1025.796
105.060	20.614	1297.815	1025.000
106.074	20.569	1296.908	1023.932
107.089	20.701	1295.222	1023.287
108.103	20.632	1294.026	1021.844
109.118	20.648	1292.707	1020.803
110.133	20.668	1291.750	1020.078
111.147	20.686	1290.533	1019.131
112.162	20.648	1289.621	1018.097
113.176	20.653	1288.647	1017.270
114.191	20.670	1287.822	1016.625
115.206	20.704	1286.501	1015.692
116.220	20.655	1285.264	1014.342
117.235	20.545	1284.673	1013.145
118.249	20.663	1283.780	1013.036
119.264	20.678	1282.821	1012.279
120.279	20.698	1281.898	1011.575
121.293	20.792	1280.668	1011.062
122.308	20.713	1279.863	1009.879
123.322	20.741	1278.915	1009.201
124.337	20.756	1277.915	1008.414
125.352	20.791	1277.045	1007.839
126.366	20.822	1275.862	1006.993
127.381	20.791	1275.125	1006.145
128.395	20.731	1274.197	1004.979
129.410	20.774	1273.151	1004.310
130.424	20.805	1272.220	1003.665
131.439	20.690	1271.433	1002.294
132.454	20.661	1270.713	1001.469
133.468	20.704	1270.375	1001.362
134.483	20.790	1269.197	1000.839
135.497	20.751	1268.663	1000.106
136.512	20.627	1267.845	998.661
137.527	20.650	1266.086	997.317
138.541	20.706	1264.680	996.442
139.556	20.762	1263.490	995.738
140.570	20.740	1262.367	994.639
141.585	20.728	1261.190	993.556
142.600	20.668	1260.137	992.298
143.614	20.626	1259.790	991.699
144.629	20.597	1258.789	990.656
145.643	20.560	1257.557	989.389
146.658	20.599	1256.775	988.908
147.673	20.601	1255.460	987.798
148.687	20.639	1254.444	987.123
149.702	20.612	1253.390	986.054
150.716	20.688	1252.289	985.533
151.731	20.684	1251.166	984.540
152.746	20.760	1250.032	983.990
153.760	20.673	1248.903	982.519
154.775	20.810	1247.754	982.304
155.789	20.745	1247.020	981.271
156.804	20.837	1245.701	980.664
157.819	20.622	1245.192	978.968
158.833	20.798	1244.152	979.052
159.848	20.672	1243.492	977.742
160.862	20.787	1242.808	977.762
161.877	20.795	1241.881	976.991
162.892	20.854	1240.642	976.258
163.906	20.874	1240.179	975.922
164.921	20.798	1239.424	974.817
165.935	20.971	1238.707	975.132
166.950	20.848	1238.151	973.922
167.964	20.870	1237.665	973.576
168.979	20.876	1237.132	973.105
169.994	20.873	1236.103	972.192
171.008	20.850	1235.669	971.634
172.023	20.781	1235.044	970.671
173.037	20.870	1234.235	970.445
174.052	20.768	1233.748	969.409
175.067	20.824	1232.312	968.507
176.081	20.822	1231.840	968.043
177.096	20.837	1230.878	967.283
178.110	20.875	1229.844	966.594
179.125	20.795	1229.084	965.466
180.140	20.852	1228.240	965.036
181.154	20.819	1227.260	963.995
182.169	20.894	1225.527	962.964
183.183	20.815	1224.938	961.979
184.198	20.916	1223.777	961.544
185.213	20.909	1223.134	960.910
186.227	20.880	1221.903	959.702
187.242	20.916	1221.244	959.296
188.256	20.919	1220.363	958.536
189.271	20.919	1219.632	957.879
190.286	20.926	1218.696	957.094
191.300	21.005	1217.821	956.758
192.315	20.834	1217.963	955.845
193.329	20.910	1217.475	955.795
194.344	20.951	1216.583	955.237
195.359	20.961	1216.224	954.920
196.373	20.906	1215.855	954.247
197.388	20.895	1215.229	953.614
198.402	20.776	1215.086	952.766
199.417	20.774	1215.028	952.624
200.432	21.023	1213.569	952.755
201.446	20.979	1213.188	952.133
202.461	20.844	1212.302	950.618
203.475	20.931	1211.314	950.231
204.490	20.949	1210.249	949.410
205.504	20.914	1209.709	948.711
206.519	21.028	1208.853	948.578
207.534	20.985	1207.754	947.398
208.548	20.935	1206.977	946.433
209.563	20.997	1206.423	946.248
210.577	21.034	1205.112	945.340
211.592	21.048	1204.352	944.737
212.607	21.090	1203.543	944.241
213.621	21.098	1202.760	943.591
214.636	21.069	1201.910	942.684
215.650	21.058	1201.124	941.921
216.665	21.039	1200.290	941.083
217.680	21.118	1199.468	940.783
218.694	21.106	1198.498	939.873
219.709	21.042	1198.427	939.388
220.723	21.130	1197.361	938.943
221.738	21.016	1196.641	937.684
222.753	20.971	1196.041	936.888
223.767	21.102	1195.566	937.139
224.782	21.162	1195.060	936.982
225.796	21.178	1194.321	936.401
226.811	21.165	1193.995	935.997
227.826	21.106	1193.368	935.103
228.840	21.110	1192.751	934.562
229.855	21.075	1192.222	933.875
230.869	21.099	1191.555	933.397
231.884	21.090	1190.944	932.786
232.899	21.088	1189.952	931.917
233.913	21.219	1189.081	931.852
234.928	21.195	1188.768	931.397
235.942	21.279	1188.117	931.255
236.957	21.101	1187.692	929.890
237.972	21.082	1186.661	928.897
238.986	21.063	1186.639	928.695
240.001	21.318	1185.185	928.832
241.015	21.366	1184.343	928.345
242.030	21.338	1183.756	927.655
243.045	21.363	1182.990	927.108
244.059	21.315	1182.285	926.215
245.074	21.413	1181.349	925.922
246.088	21.350	1180.933	925.177
247.103	21.330	1179.659	923.993
248.117	21.337	1178.906	923.358
249.132	21.370	1178.540	923.163
250.147	21.470	1178.109	923.270
251.161	21.320	1177.363	921.813
252.176	21.398	1176.351	921.353
253.190	21.339	1175.826	920.549
254.205	21.346	1175.448	920.209
255.220	21.315	1174.781	919.440
256.234	21.357	1174.566	919.415
257.249	21.322	1173.543	918.347
258.263	21.488	1173.077	918.772
259.278	21.462	1172.343	917.980
260.293	21.377	1171.953	917.145
261.307	21.466	1171.164	916.917
262.322	21.386	1170.915	916.220
263.336	21.386	1170.206	915.584
264.351	21.544	1169.002	915.390
265.366	21.567	1168.485	915.023
266.380	21.451	1168.372	914.245
267.395	21.503	1167.578	913.813
268.409	21.427	1167.003	912.889
269.424	21.450	1166.462	912.505
270.439	21.467	1166.009	912.159
271.453	21.391	1165.704	911.444
272.468	21.380	1164.449	910.322
273.482	21.506	1163.625	910.254
274.497	21.564	1162.987	909.976
275.512	21.593	1162.512	909.675
276.526	21.544	1161.500	908.549
277.541	21.538	1161.367	908.329
278.555	21.580	1160.661	907.917
279.570	21.593	1159.979	907.369
280.585	21.453	1159.561	906.237
281.599	21.568	1158.447	905.881
282.614	21.602	1157.212	905.012
283.628	21.558	1156.471	904.127
284.643	21.572	1156.036	903.780
285.657	21.655	1154.992	903.310
286.672	21.560	1154.079	902.028
287.687	21.637	1153.210	901.662
288.701	21.677	1152.565	901.285
289.716	21.603	1152.097	900.460
290.730	21.651	1151.359	900.050
291.745	21.653	1150.815	899.553
292.760	21.691	1149.988	899.022
293.774	21.608	1149.717	898.303
294.789	21.824	1148.800	898.615
295.803	21.767	1148.649	898.129
296.818	21.665	1147.743	896.819
297.833	21.746	1147.005	896.574
298.847	21.809	1146.131	896.135
299.862	21.814	1145.362	895.479
300.876	21.814	1144.758	894.927
301.891	21.862	1143.945	894.461
302.906	21.794	1143.476	893.665
303.920	21.879	1143.047	893.687
304.935	21.806	1142.385	892.717
305.949	21.840	1141.649	892.235
306.964	21.842	1140.673	891.403
307.979	21.889	1140.094	891.113
308.993	21.912	1139.465	890.660
310.008	21.861	1138.780	889.785
311.022	21.871	1138.081	889.209
312.037	21.883	1137.453	888.704
313.052	21.965	1136.291	888.129
314.066	21.915	1135.632	887.283
315.081	21.962	1134.922	886.888
316.095	21.910	1134.208	885.988
317.110	21.863	1134.021	885.527
318.125	21.892	1133.032	884.824
319.139	21.873	1132.985	884.611
320.154	21.904	1132.227	884.096
321.168	21.972	1131.300	883.639
322.183	21.994	1130.938	883.387
323.197	22.026	1130.347	883.010
324.212	21.980	1129.881	882.337
325.227	22.024	1128.994	881.787
326.241	21.980	1128.930	881.436
327.256	22.090	1127.393	880.710
328.270	21.973	1127.078	879.799
329.285	22.104	1126.256	879.739
330.300	21.958	1125.662	878.462
331.314	22.012	1124.466	877.723
332.329	22.092	1123.788	877.514
333.343	22.132	1123.108	877.108
334.358	22.108	1122.455	876.398
335.373	22.096	1121.632	875.618
336.387	22.187	1120.701	875.269
337.402	22.097	1120.555	874.629
338.416	22.248	1119.191	874.236
339.431	22.168	1119.015	873.626
340.446	22.224	1118.327	873.287
341.460	22.204	1117.945	872.817
342.475	22.163	1117.374	872.089
343.489	22.205	1116.362	871.427
344.504	22.188	1115.394	870.512
345.519	22.248	1114.564	870.084
346.533	22.308	1113.326	869.336
347.548	22.286	1113.076	868.956
348.562	22.343	1111.891	868.234
349.577	22.184	1111.856	867.349
350.592	22.158	1111.258	866.677
351.606	22.170	1110.356	865.955
352.621	22.233	1109.699	865.676
353.635	22.402	1109.067	865.938
354.650	22.300	1108.638	865.025
355.665	22.240	1107.987	864.147
356.679	22.388	1106.948	863.986
357.694	22.370	1106.445	863.426
358.708	22.256	1106.227	862.620
359.723	22.244	1105.192	861.678
360.738	22.262	1104.844	861.421
361.752	22.410	1104.335	861.674
362.767	22.395	1103.547	860.906
363.781	22.495	1103.087	860.960
364.796	22.428	1102.725	860.277
365.810	22.467	1101.940	859.778
366.825	22.438	1101.652	859.335
367.840	22.435	1101.069	858.788
368.854	22.706	1100.142	859.312
369.869	22.538	1099.763	858.119
370.883	22.464	1099.110	857.175
371.898	22.539	1098.120	856.693
372.913	22.495	1097.640	856.026
373.927	22.655	1096.832	856.096
374.942	22.492	1096.556	855.017
375.956	22.573	1096.243	855.087
376.971	22.621	1095.601	854.747
377.986	22.620	1095.135	854.302
379.000	22.714	1094.387	854.098
380.015	22.667	1094.094	853.567
381.029	22.610	1093.186	852.507
382.044	22.626	1092.707	852.134
383.059	22.635	1091.825	851.416
384.073	22.767	1090.914	851.265
385.088	22.696	1090.180	850.276
386.102	22.795	1089.283	849.978
387.117	22.633	1088.623	848.606
388.132	22.596	1087.824	847.732
389.146	22.768	1087.361	848.120
390.161	22.735	1086.210	846.992
391.175	22.793	1085.848	846.911
392.190	22.681	1085.519	846.044
393.205	22.791	1084.274	845.525
394.219	22.773	1083.560	844.810
395.234	22.822	1082.995	844.526
396.248	22.810	1081.843	843.496
397.263	22.952	1080.793	843.279
398.278	22.869	1080.606	842.663
399.292	22.881	1079.922	842.114
400.307	22.797	1079.405	841.235
401.321	23.042	1078.407	841.552
402.336	22.908	1077.778	840.348
403.350	22.901	1077.351	839.906
404.365	22.848	1076.562	838.964
405.380	23.026	1076.154	839.417
406.394	22.864	1075.476	838.047
407.409	23.018	1074.656	838.065
408.423	23.008	1073.931	837.375
409.438	23.041	1073.125	836.831
410.453	23.010	1072.497	836.118
411.467	23.062	1071.942	835.861
412.482	22.961	1071.614	835.049
413.496	23.003	1070.586	834.375
414.511	23.073	1069.970	834.151
415.526	23.020	1069.287	833.295
416.540	23.032	1069.087	833.122
417.555	23.088	1068.265	832.672
418.569	22.914	1068.273	831.783
419.584	23.205	1067.517	832.492
420.599	22.995	1067.155	831.147
421.613	149.141	1398.396	1796.471
422.628	137.341	1446.638	1796.561
