DTS Sentinel unit serial number:	SN413079Multiplexer serial number:	ORYXHardware model number:	OX4-SRSoftware version number:	ORYX F/W v4.00 Oryx Data Collector v3.7.2.0data status	okinstallation	princeton_trtdifferential loss correction	single-endedforward channel	channel 2reverse channel	N/Adate	2019/09/18time	09:55:35forward acquisition time	60.00reverse acquisition time	0.00gamma	496.2192k internal	0.2334k external	0.2334temperature offset calibration	0.9980default loss term (dB/km)	0.3790temperature slope calibration	1.0000multiplexer offset coefficient	1.0000multiplexer slope coefficient	1.0000fibre end	0.00T internal ref (°C)	27.28T ext. ref 1 (°C)	0.30T ext. ref 2 (°C)	24.00length (m)	temperature (°C)	Stokes	anti-Stokes-747.200	-122.182	-0.334	-0.055
-746.185	800.000	0.117	0.409
-745.171	-200.000	-0.003	-0.264
-744.156	-49.182	-0.165	-0.079
-743.142	-106.023	-0.117	0.027
-742.127	-200.000	0.006	0.237
-741.112	-158.740	-0.229	0.013
-740.098	-21.278	0.084	-0.051
-739.083	-90.002	0.148	0.043
-738.069	31.615	-0.256	0.221
-737.054	43.899	0.045	-0.042
-736.039	415.074	-0.049	0.106
-735.025	69.627	-0.242	0.250
-734.010	-200.000	-0.072	0.441
-732.996	-128.953	-0.152	0.021
-731.981	-36.622	0.428	-0.231
-730.966	11.707	-0.061	-0.047
-729.952	23.982	-0.288	-0.239
-728.937	88.767	0.144	-0.161
-727.923	-38.070	0.225	0.120
-726.908	800.000	-0.056	-0.192
-725.894	-193.884	0.497	0.004
-724.879	135.921	-0.233	-0.305
-723.864	800.000	0.015	-0.059
-722.850	342.529	-0.097	0.190
-721.835	-17.459	-0.147	0.093
-720.821	-49.358	0.139	0.067
-719.806	-80.279	0.253	-0.085
-718.791	800.000	-0.047	0.157
-717.777	-32.789	-0.209	0.117
-716.762	-106.682	-0.112	-0.025
-715.748	-123.113	0.123	-0.020
-714.733	-200.000	-0.043	-0.441
-713.718	498.823	0.167	0.385
-712.704	15.092	-0.076	0.060
-711.689	34.595	-0.169	-0.148
-710.675	49.495	0.183	-0.173
-709.660	496.878	0.056	-0.129
-708.645	800.000	-0.038	0.136
-707.631	135.190	0.108	0.141
-706.616	280.157	-0.096	0.172
-705.602	-200.000	-0.060	-0.338
-704.587	16.023	-0.169	0.134
-703.572	21.108	0.324	0.264
-702.558	-144.595	-0.295	0.027
-701.543	-67.776	-0.116	0.045
-700.529	-4.870	0.146	-0.101
-699.514	800.000	-0.067	-0.191
-698.499	-45.830	0.154	-0.076
-697.485	-39.194	-0.430	0.226
-696.470	335.648	0.012	0.023
-695.456	6.520	0.151	-0.113
-694.441	173.970	-0.059	-0.085
-693.426	159.718	-0.139	0.195
-692.412	-112.338	0.210	0.042
-691.397	209.352	0.078	-0.122
-690.383	506.421	0.054	-0.127
-689.368	-200.000	-0.263	0.001
-688.354	161.183	-0.160	-0.224
-687.339	127.275	0.140	0.178
-686.324	55.096	-0.133	0.129
-685.310	-25.143	0.319	0.189
-684.295	-130.926	0.315	-0.042
-683.281	-82.075	0.216	-0.071
-682.266	-200.000	-0.036	0.191
-681.251	800.000	-0.042	-0.161
-680.237	-63.466	0.134	0.055
-679.222	679.364	0.071	-0.185
-678.208	-62.664	-0.134	-0.056
-677.193	-74.417	0.080	0.029
-676.178	800.000	0.062	-0.209
-675.164	-61.285	-0.057	0.024
-674.149	150.631	0.068	0.093
-673.135	-96.417	-0.173	-0.046
-672.120	-200.000	-0.003	-0.343
-671.105	438.662	0.091	0.198
-670.091	-27.186	0.270	0.158
-669.076	-12.933	-0.232	0.151
-668.062	29.523	-0.017	-0.014
-667.047	314.006	0.051	-0.095
-666.032	800.000	0.087	-0.289
-665.018	800.000	-0.087	0.241
-664.003	32.335	0.210	-0.182
-662.989	-200.000	0.083	0.537
-661.974	92.081	-0.050	-0.056
-660.959	114.015	0.071	-0.086
-659.945	-200.000	0.037	-0.214
-658.930	-178.812	-0.105	0.002
-657.916	-200.000	-0.049	-0.238
-656.901	-113.234	0.310	0.061
-655.886	57.185	0.028	-0.027
-654.872	97.685	-0.037	-0.043
-653.857	-122.050	0.275	-0.045
-652.843	-200.000	0.019	-0.312
-651.828	214.546	-0.037	0.058
-650.814	199.835	-0.063	-0.097
-649.799	800.000	-0.079	-0.335
-648.784	-1.259	0.296	-0.210
-647.770	386.239	0.081	0.167
-646.755	-143.352	-0.129	0.012
-645.741	156.321	0.143	0.197
-644.726	-140.894	-0.228	0.023
-643.711	-131.008	-0.153	0.020
-642.697	302.532	0.061	0.113
-641.682	-200.000	-0.015	-0.322
-640.668	344.107	-0.101	0.198
-639.653	-60.201	0.103	0.044
-638.638	-3.790	-0.203	0.141
-637.624	800.000	-0.076	0.267
-636.609	800.000	0.066	0.215
-635.595	-10.913	-0.598	0.395
-634.580	-90.610	-0.407	-0.118
-633.565	-38.285	-0.204	-0.108
-632.551	-61.981	0.187	0.078
-631.536	587.050	0.030	-0.075
-630.522	800.000	-0.045	-0.144
-629.507	83.390	-0.162	-0.176
-628.492	352.305	-0.091	-0.181
-627.478	-164.390	-0.415	0.019
-626.463	-200.000	-0.010	0.134
-625.449	89.623	-0.148	0.166
-624.434	313.734	-0.142	0.267
-623.419	442.361	0.150	0.328
-622.405	-200.000	0.027	-0.241
-621.390	-69.363	-0.241	0.092
-620.376	800.000	-0.101	-0.294
-619.361	-1.561	-0.150	-0.106
-618.346	13.522	0.078	0.061
-617.332	-17.277	-0.174	0.110
-616.317	90.906	0.116	-0.130
-615.303	-200.000	0.055	-0.247
-614.288	800.000	-0.047	0.152
-613.273	70.891	-0.125	-0.130
-612.259	345.859	-0.112	0.220
-611.244	-200.000	-0.002	0.064
-610.230	-107.668	0.231	-0.050
-609.215	-79.565	-0.463	0.156
-608.201	-34.751	-0.372	0.203
-607.186	-200.000	-0.049	0.251
-606.171	-200.000	0.018	0.311
-605.157	28.013	-0.229	-0.193
-604.142	-200.000	-0.032	0.151
-603.128	-200.000	0.005	-0.088
-602.113	800.000	0.052	-0.162
-601.098	-67.906	-0.229	-0.089
-600.084	800.000	-0.038	-0.151
-599.069	113.819	-0.086	0.104
-598.055	-81.201	-0.116	0.038
-597.040	319.094	-0.169	-0.321
-596.025	278.271	-0.053	-0.094
-595.011	45.881	-0.150	-0.139
-593.996	-121.777	-0.064	-0.011
-592.982	-112.020	0.276	0.056
-591.967	-93.400	0.155	0.043
-590.952	800.000	0.061	0.228
-589.938	16.935	-0.056	-0.044
-588.923	800.000	0.056	-0.165
-587.909	-200.000	-0.026	0.351
-586.894	125.586	-0.109	0.138
-585.879	-80.451	0.324	0.108
-584.865	-60.498	0.266	-0.113
-583.850	135.879	0.111	-0.145
-582.836	77.870	0.128	-0.136
-581.821	89.670	0.042	0.047
-580.806	9.598	0.185	-0.140
-579.792	7.742	0.016	0.012
-578.777	684.135	-0.062	-0.161
-577.763	31.236	-0.203	0.174
-576.748	-88.009	0.199	-0.060
-575.733	-200.000	-0.062	-0.276
-574.719	-89.254	-0.274	0.081
-573.704	556.515	-0.191	0.459
-572.690	488.813	-0.101	0.231
-571.675	-200.000	-0.007	-0.087
-570.661	800.000	-0.066	-0.186
-569.646	-200.000	0.025	-0.245
-568.631	55.610	-0.066	-0.064
-567.617	-189.050	-0.184	-0.002
-566.602	-200.000	0.067	0.299
-565.588	-200.000	0.041	0.315
-564.573	-200.000	-0.023	0.145
-563.558	-71.552	-0.250	0.093
-562.544	-1.742	0.263	-0.185
-561.529	800.000	-0.011	0.032
-560.515	165.193	-0.125	-0.176
-559.500	11.542	-0.174	-0.133
-558.485	245.164	-0.190	0.319
-557.471	731.666	-0.085	0.226
-556.456	-200.000	-0.031	0.213
-555.442	-200.000	-0.021	0.238
-554.427	2.562	0.234	-0.169
-553.412	-5.579	-0.102	-0.070
-552.398	-200.000	0.036	0.431
-551.383	-9.049	-0.251	-0.168
-550.369	99.509	0.219	-0.253
-549.354	800.000	-0.042	0.146
-548.339	18.879	0.113	0.090
-547.325	-200.000	0.005	-0.140
-546.310	-200.000	0.058	-0.285
-545.296	153.246	-0.131	0.178
-544.281	-200.000	0.004	0.175
-543.266	-46.829	-0.258	-0.126
-542.252	800.000	-0.094	0.339
-541.237	369.100	-0.080	-0.162
-540.223	-200.000	0.008	0.108
-539.208	-120.567	0.148	0.025
-538.193	-94.877	-0.172	0.047
-537.179	-94.609	-0.109	-0.029
-536.164	-150.345	0.286	0.022
-535.150	85.951	-0.111	-0.122
-534.135	-40.930	0.147	0.076
-533.121	-11.828	-0.108	0.071
-532.106	83.558	0.017	0.018
-531.091	800.000	-0.052	0.180
-530.077	10.954	-0.227	-0.173
-529.062	-161.529	-0.341	-0.017
-528.048	-200.000	0.022	-0.172
-527.033	81.620	-0.123	-0.132
-526.018	-75.673	0.050	0.018
-525.004	582.137	0.082	-0.201
-523.989	-161.496	-0.336	0.017
-522.975	120.161	0.013	0.016
-521.960	-93.630	0.317	-0.087
-520.945	-71.518	0.247	-0.092
-519.931	49.304	0.094	0.089
-518.916	224.635	-0.250	0.404
-517.902	-35.493	-0.304	0.165
-516.887	-200.000	0.070	-0.316
-515.872	-64.337	0.286	-0.116
-514.858	111.355	0.168	0.202
-513.843	252.191	0.240	0.408
-512.829	-75.454	0.184	0.065
-511.814	498.849	0.102	-0.235
-510.799	425.900	-0.063	-0.134
-509.785	-48.313	0.128	-0.062
-508.770	800.000	0.051	-0.169
-507.756	-200.000	-0.010	0.145
-506.741	-200.000	-0.027	0.204
-505.726	-155.817	-0.005	-0.000
-504.712	-153.828	-0.081	0.006
-503.697	198.487	-0.154	-0.234
-502.683	-118.516	0.093	-0.016
-501.668	-24.984	-0.188	0.111
-500.653	800.000	0.019	-0.072
-499.639	140.949	0.120	0.157
-498.624	-159.499	0.152	-0.008
-497.610	-93.774	-0.385	0.106
-496.595	-73.273	0.197	-0.072
-495.581	800.000	-0.070	-0.228
-494.566	-161.056	-0.392	-0.020
-493.551	-19.055	0.096	0.059
-492.537	-38.339	0.214	-0.113
-491.522	-200.000	0.005	0.206
-490.508	-71.229	0.307	0.115
-489.493	800.000	-0.081	-0.229
-488.478	-138.521	0.198	0.022
-487.464	-132.399	0.233	0.030
-486.449	242.647	-0.077	0.129
-485.435	36.689	-0.255	0.225
-484.420	725.033	0.035	0.092
-483.405	411.557	-0.103	-0.217
-482.391	-200.000	-0.031	0.207
-481.376	-85.222	-0.228	0.071
-480.362	292.974	0.098	0.178
-479.347	-200.000	0.027	0.166
-478.332	800.000	-0.060	0.225
-477.318	10.951	0.346	0.263
-476.303	-21.927	-0.003	0.002
-475.289	-87.829	0.274	-0.082
-474.274	-200.000	0.031	-0.143
-473.259	22.476	-0.093	-0.075
-472.245	800.000	-0.036	-0.123
-471.230	-99.197	0.186	0.047
-470.216	-200.000	-0.035	0.288
-469.201	126.499	0.072	0.091
-468.186	-143.585	-0.259	0.024
-467.172	-200.000	0.008	-0.172
-466.157	-200.000	0.048	0.322
-465.143	-94.490	0.205	0.056
-464.128	-40.668	-0.262	0.135
-463.113	78.552	-0.231	0.245
-462.099	121.016	0.257	-0.317
-461.084	51.850	-0.206	0.195
-460.070	-4.916	0.181	0.124
-459.055	51.237	0.349	-0.329
-458.040	-20.239	0.271	0.166
-457.026	-40.342	-0.280	0.145
-456.011	-89.502	0.244	-0.071
-454.997	14.559	-0.180	-0.140
-453.982	596.649	-0.052	-0.127
-452.968	800.000	-0.083	0.351
-451.953	-1.621	0.051	0.036
-450.938	82.785	0.280	-0.302
-449.924	58.134	-0.209	-0.203
-448.909	-200.000	-0.111	-0.530
-447.895	-200.000	0.035	0.165
-446.880	-50.224	0.146	0.069
-445.865	-200.000	0.009	-0.072
-444.851	-124.449	0.278	-0.043
-443.836	371.742	-0.090	0.181
-442.822	119.090	-0.211	0.260
-441.807	456.320	-0.168	-0.370
-440.792	-200.000	-0.022	0.188
-439.778	800.000	-0.016	0.047
-438.763	35.198	-0.253	-0.220
-437.749	93.915	-0.190	0.213
-436.734	226.735	-0.079	-0.128
-435.719	-33.270	0.201	-0.110
-434.705	-85.493	-0.198	0.061
-433.690	-134.561	0.091	0.011
-432.676	-75.047	-0.232	0.082
-431.661	-87.330	0.246	0.074
-430.646	-200.000	-0.004	-0.048
-429.632	1.064	-0.147	0.105
-428.617	-112.373	-0.110	-0.022
-427.603	-32.721	-0.245	-0.135
-426.588	-200.000	0.035	-0.272
-425.573	440.720	-0.087	-0.188
-424.559	92.797	0.156	-0.174
-423.544	-200.000	0.047	0.298
-422.530	112.120	0.242	-0.290
-421.515	-64.082	0.064	0.026
-420.500	-200.000	-0.003	-0.305
-419.486	188.627	-0.160	0.238
-418.471	-46.605	-0.322	-0.157
-417.457	152.199	0.231	0.313
-416.442	-84.041	0.080	-0.025
-415.428	-200.000	0.025	0.155
-414.413	-198.873	-0.518	0.003
-413.398	-60.057	0.251	0.106
-412.384	800.000	-0.093	0.295
-411.369	95.551	0.019	-0.022
-410.355	-28.723	0.183	-0.104
-409.340	80.662	0.064	-0.069
-408.325	800.000	-0.072	0.311
-407.311	-68.482	0.299	-0.115
-406.296	-23.186	-0.408	-0.244
-405.282	56.326	-0.169	-0.163
-404.267	222.003	-0.082	0.130
-403.252	-200.000	0.008	0.050
-402.238	-200.000	0.045	0.287
-401.223	13.084	0.179	-0.137
-400.209	65.054	-0.015	-0.015
-399.194	-76.798	-0.106	0.037
-398.179	-115.020	0.261	0.049
-397.165	800.000	-0.045	0.184
-396.150	-82.586	0.191	0.061
-395.136	95.430	0.072	-0.081
-394.121	-200.000	0.014	0.263
-393.106	44.459	0.106	-0.097
-392.092	-57.085	-0.125	-0.054
-391.077	-81.396	0.164	0.053
-390.063	-200.000	-0.275	0.001
-389.048	67.968	-0.293	-0.297
-388.033	61.362	-0.210	-0.207
-387.019	-123.827	-0.276	-0.043
-386.004	-43.728	0.368	0.184
-384.990	-200.000	0.030	-0.403
-383.975	691.036	-0.080	-0.208
-382.960	-47.735	0.289	-0.139
-381.946	255.334	-0.089	0.151
-380.931	-63.458	0.296	0.120
-379.917	-200.000	-0.022	0.124
-378.902	-137.432	0.236	0.026
-377.888	-200.000	-0.010	-0.429
-376.873	-4.144	0.148	0.102
-375.858	-200.000	-0.022	0.108
-374.844	774.088	-0.041	0.109
-373.829	-200.000	-0.079	0.440
-372.815	-187.734	0.123	-0.002
-371.800	30.357	0.239	-0.203
-370.785	26.747	-0.187	-0.155
-369.771	298.124	0.136	0.248
-368.756	800.000	0.078	-0.217
-367.742	39.599	0.060	0.053
-366.727	-77.490	0.201	-0.069
-365.712	-143.548	-0.296	0.028
-364.698	-139.654	0.220	0.023
-363.683	480.977	0.117	-0.262
-362.669	-120.253	-0.104	-0.018
-361.654	70.860	0.179	-0.184
-360.639	-200.000	0.008	0.091
-359.625	226.167	-0.081	0.130
-358.610	-70.692	-0.073	0.027
-357.596	-41.343	0.176	0.090
-356.581	-55.259	0.206	0.092
-355.566	-126.403	-0.425	0.063
-354.552	107.558	0.015	-0.018
-353.537	-156.638	0.532	-0.033
-352.523	-68.837	-0.086	0.033
-351.508	-200.000	-0.007	0.169
-350.493	-200.000	-0.010	-0.140
-349.479	-104.185	0.074	0.017
-348.464	-0.996	-0.178	-0.125
-347.450	-34.022	0.160	0.087
-346.435	46.884	-0.092	0.085
-345.420	263.253	-0.063	-0.109
-344.406	-200.000	-0.022	-0.398
-343.391	-108.664	0.324	0.069
-342.377	-60.017	-0.376	-0.159
-341.362	-200.000	0.037	-0.308
-340.348	-3.442	-0.093	-0.064
-339.333	-200.000	-0.004	0.027
-338.318	16.352	0.154	-0.120
-337.304	-200.000	0.002	0.279
-336.289	225.584	0.153	-0.246
-335.275	86.230	-0.252	-0.275
-334.260	800.000	0.033	0.091
-333.245	-122.589	-0.139	0.022
-332.231	-3.859	0.087	-0.060
-331.216	416.732	0.056	0.117
-330.202	209.426	0.145	-0.224
-329.187	-200.000	-0.044	0.236
-328.172	-96.395	0.359	0.094
-327.158	800.000	0.029	0.119
-326.143	-20.982	0.169	-0.102
-325.129	214.293	0.175	0.274
-324.114	-141.147	-0.034	-0.003
-323.099	-200.000	0.048	-0.211
-322.085	-91.378	-0.083	-0.024
-321.070	-95.585	-0.113	-0.030
-320.056	-35.340	-0.078	-0.042
-319.041	70.981	0.139	-0.143
-318.026	472.185	0.034	0.075
-317.012	-130.459	0.401	-0.054
-315.997	8.984	-0.127	0.094
-314.983	-48.237	0.167	0.080
-313.968	52.609	0.116	0.109
-312.953	37.310	-0.151	0.132
-311.939	-0.262	0.230	-0.162
-310.924	-72.583	-0.150	-0.055
-309.910	-121.726	0.219	0.036
-308.895	-200.000	0.016	-0.461
-307.880	-200.000	0.006	-0.412
-306.866	53.719	0.304	0.288
-305.851	4.910	0.318	0.231
-304.837	-127.803	0.135	-0.019
-303.822	-200.000	-0.017	0.370
-302.807	58.939	-0.393	0.382
-301.793	506.739	-0.065	-0.148
-300.778	-200.000	-0.054	-0.250
-299.764	-14.490	-0.130	0.082
-298.749	-200.000	0.031	-0.210
-297.735	540.090	-0.135	-0.318
-296.720	107.953	-0.076	0.090
-295.705	-200.000	-0.030	-0.158
-294.691	184.503	0.100	-0.147
-293.676	-75.002	-0.220	-0.078
-292.662	-200.000	0.009	0.186
-291.647	83.497	-0.295	-0.318
-290.632	-200.000	-0.010	-0.109
-289.618	-124.030	-0.266	0.041
-288.603	-61.128	-0.160	-0.067
-287.589	52.173	0.436	-0.410
-286.574	800.000	0.019	-0.075
-285.559	-166.734	-0.112	-0.005
-284.545	2.273	0.262	0.187
-283.530	6.607	0.059	-0.043
-282.516	-200.000	0.006	0.065
-281.501	214.800	0.171	0.268
-280.486	-71.795	0.279	0.103
-279.472	800.000	-0.101	-0.302
-278.457	800.000	0.012	-0.038
-277.443	158.551	-0.077	-0.105
-276.428	-137.392	0.080	-0.009
-275.413	33.110	0.274	-0.234
-274.399	259.667	0.030	-0.052
-273.384	446.853	-0.129	0.279
-272.370	62.646	-0.085	-0.084
-271.355	132.534	-0.065	0.082
-270.340	800.000	0.062	-0.192
-269.326	-113.738	0.363	-0.070
-268.311	-200.000	0.008	0.057
-267.297	-28.386	-0.157	0.089
-266.282	209.070	-0.074	-0.114
-265.267	-200.000	-0.028	-0.363
-264.253	57.929	0.143	0.138
-263.238	543.418	0.047	-0.111
-262.224	800.000	0.033	-0.125
-261.209	100.491	-0.139	0.159
-260.195	-29.279	-0.231	0.131
-259.180	-200.000	0.037	0.234
-258.165	35.068	-0.138	-0.119
-257.151	30.372	0.253	-0.213
-256.136	-118.140	0.185	0.032
-255.122	-57.503	0.232	-0.100
-254.107	-1.044	-0.310	-0.216
-253.092	-89.894	-0.219	-0.063
-252.078	527.110	0.138	-0.321
-251.063	25.593	0.201	0.165
-250.049	-55.016	-0.126	-0.056
-249.034	-200.000	-0.046	-0.222
-248.019	-149.133	0.231	0.018
-247.005	-85.439	0.178	-0.055
-245.990	201.847	-0.064	0.097
-244.976	529.428	0.086	0.201
-243.961	-30.563	0.150	0.083
-242.946	-140.209	-0.260	0.027
-241.932	438.760	-0.205	0.441
-240.917	682.931	0.074	-0.189
-239.903	555.812	-0.059	0.141
-238.888	576.510	-0.096	0.231
-237.873	-33.011	-0.079	-0.043
-236.859	258.764	-0.080	-0.137
-235.844	140.168	0.196	-0.255
-234.830	-154.902	-0.068	-0.004
-233.815	-26.944	0.054	-0.031
-232.800	-200.000	0.002	0.024
-231.786	17.478	0.348	-0.272
-230.771	17.025	0.100	-0.078
-229.757	278.946	0.104	0.183
-228.742	-120.634	-0.231	-0.039
-227.727	44.370	-0.376	0.340
-226.713	800.000	-0.099	0.294
-225.698	512.084	-0.045	-0.102
-224.684	-97.688	-0.088	-0.022
-223.669	-84.645	-0.147	0.046
-222.655	-21.571	0.216	0.130
-221.640	87.804	0.147	-0.161
-220.625	215.554	0.049	0.077
-219.611	-93.040	0.349	0.096
-218.596	19.045	-0.092	-0.072
-217.582	-100.785	0.354	0.086
-216.567	-12.727	-0.224	-0.144
-215.552	-115.681	-0.105	0.019
-214.538	-25.387	-0.241	-0.141
-213.523	-200.000	0.006	0.036
-212.509	57.947	0.101	0.097
-211.494	-141.348	0.183	0.018
-210.479	-200.000	-0.017	0.095
-209.465	-134.740	0.220	0.026
-208.450	-200.000	-0.038	-0.249
-207.436	-200.000	0.041	-0.340
-206.421	-161.837	-0.380	0.019
-205.406	-13.959	0.101	0.064
-204.392	-110.767	0.285	0.058
-203.377	-0.290	0.193	-0.135
-202.363	-161.731	0.118	-0.006
-201.348	-10.975	0.232	0.151
-200.333	20.023	-0.129	-0.102
-199.319	-51.699	0.287	0.132
-198.304	173.600	0.108	0.154
-197.290	16.935	-0.162	0.127
-196.275	-200.000	-0.017	0.188
-195.260	800.000	0.057	0.206
-194.246	-36.590	0.117	-0.062
-193.231	364.234	-0.170	0.337
-192.217	-160.897	0.164	0.008
-191.202	-53.836	-0.194	-0.087
-190.187	7.043	0.062	0.046
-189.173	-52.674	0.139	-0.063
-188.158	127.795	0.087	-0.108
-187.144	-64.146	0.232	0.093
-186.129	-84.744	0.211	0.065
-185.114	411.789	-0.041	-0.086
-184.100	-37.252	0.164	-0.086
-183.085	227.678	0.158	-0.253
-182.071	65.962	-0.070	-0.070
-181.056	-38.009	0.133	-0.069
-180.042	-37.333	-0.485	0.255
-179.027	12.897	0.221	-0.168
-178.012	800.000	-0.043	0.153
-176.998	-200.000	-0.054	-0.248
-175.983	26.790	0.241	-0.199
-174.969	-143.224	-0.220	-0.021
-173.954	2.527	-0.132	-0.094
-172.939	143.789	0.127	-0.167
-171.925	-55.028	-0.200	-0.089
-170.910	353.016	-0.066	-0.129
-169.896	790.012	-0.132	0.357
-168.881	-116.639	-0.026	-0.005
-167.866	800.000	-0.028	-0.121
-166.852	800.000	-0.047	-0.140
-165.837	-160.607	-0.351	-0.018
-164.823	191.927	0.102	-0.151
-163.808	254.258	0.190	0.319
-162.793	-132.404	-0.205	-0.026
-161.779	7.145	0.172	0.126
-160.764	442.868	0.035	0.074
-159.750	-63.953	0.008	-0.003
-158.735	-26.105	-0.280	-0.162
-157.720	27.179	0.050	-0.041
-156.706	-200.000	-0.002	-0.017
-155.691	-39.825	0.206	0.106
-154.677	-94.643	0.308	-0.082
-153.662	-2.938	0.192	0.132
-152.647	800.000	-0.018	-0.050
-151.633	800.000	-0.041	-0.136
-150.618	60.536	-0.258	0.251
-149.604	-106.736	-0.088	0.019
-148.589	-99.986	-0.134	-0.033
-147.574	-126.725	-0.128	0.019
-146.560	-92.142	0.161	0.045
-145.545	-9.044	0.168	-0.111
-144.531	152.033	0.097	0.129
-143.516	800.000	-0.036	0.122
-142.502	-52.873	-0.103	0.047
-141.487	-200.000	-0.030	0.199
-140.472	800.000	-0.132	0.482
-139.458	466.954	-0.097	0.214
-138.443	-65.531	0.308	-0.121
-137.429	-107.509	0.225	0.048
-136.414	-57.399	0.119	0.051
-135.399	-8.664	0.281	0.185
-134.385	-70.147	-0.292	0.109
-133.370	198.242	0.179	0.268
-132.356	-85.646	0.240	-0.073
-131.341	-99.904	-0.350	0.086
-130.326	-64.406	0.070	0.028
-129.312	247.331	-0.047	-0.078
-128.297	749.331	-0.055	0.147
-127.283	-125.374	0.387	-0.058
-126.268	-7.683	0.155	0.103
-125.253	295.962	0.011	0.020
-124.239	516.928	0.031	0.070
-123.224	-46.069	0.050	-0.024
-122.210	-154.867	0.311	-0.020
-121.195	30.631	0.168	-0.141
-120.180	-54.586	-0.179	-0.080
-119.166	263.148	0.072	0.123
-118.151	-163.432	-0.095	0.004
-117.137	74.646	0.277	0.286
-116.122	294.703	0.026	0.047
-115.107	-103.541	-0.227	-0.052
-114.093	800.000	-0.124	-0.418
-113.078	190.022	0.045	0.067
-112.064	287.804	0.098	-0.174
-111.049	7.671	0.232	-0.170
-110.034	-200.000	-0.102	-0.450
-109.020	-200.000	-0.030	-0.347
-108.005	-113.106	0.329	0.064
-106.991	380.267	-0.102	0.205
-105.976	374.034	0.235	0.469
-104.962	-200.000	0.003	-0.245
-103.947	0.171	0.247	-0.172
-102.932	137.730	0.069	0.088
-101.918	-110.928	0.224	0.045
-100.903	-107.056	0.322	0.070
-99.889	-151.150	-0.397	0.029
-98.874	26.355	-0.043	-0.035
-97.859	-2.011	0.066	-0.045
-96.845	529.013	-0.111	0.256
-95.830	70.840	0.119	0.121
-94.816	800.000	0.020	0.074
-93.801	800.000	-0.095	-0.380
-92.786	86.639	-0.097	-0.104
-91.772	683.657	-0.120	0.307
-90.757	251.823	0.172	0.287
-89.743	-200.000	0.019	-0.160
-88.728	-60.978	-0.263	-0.109
-87.713	-200.000	0.088	0.410
-86.699	39.156	0.242	0.212
-85.684	696.393	0.026	-0.068
-84.670	-200.000	0.010	0.319
-83.655	800.000	0.054	-0.173
-82.640	21.201	0.162	-0.129
-81.626	-62.967	-0.287	0.116
-80.611	-64.122	0.127	0.051
-79.597	800.000	-0.080	0.227
-78.582	800.000	-0.060	0.230
-77.567	-71.496	0.069	0.025
-76.553	-71.154	0.202	0.074
-75.538	-200.000	0.011	-0.156
-74.524	-129.345	0.074	0.010
-73.509	555.892	0.165	0.389
-72.494	7.867	-0.072	0.053
-71.480	443.094	-0.081	-0.174
-70.465	-115.514	-0.179	0.033
-69.451	207.742	0.183	-0.280
-68.436	146.237	0.257	-0.338
-67.422	-200.000	0.051	0.340
-66.407	-75.287	0.219	-0.076
-65.392	-146.310	-0.024	0.002
-64.378	800.000	0.057	0.159
-63.363	16.911	0.127	0.098
-62.349	747.825	-0.077	0.203
-61.334	-10.352	-1.000	-0.649
-60.319	582.265	0.286	0.687
-59.305	-200.000	-0.187	-1.182
-58.290	545.957	0.671	1.569
-57.276	800.000	0.484	1.504
-56.261	-200.000	110.807	612.745
-55.246	444.047	1516.462	3254.525
-54.232	143.462	2706.802	3526.119
-53.217	96.201	2321.576	2596.666
-52.203	36.371	1926.299	1661.715
-51.188	30.305	1712.878	1430.944
-50.173	27.866	1670.631	1377.232
-49.159	48.979	1724.301	1583.599
-48.144	47.845	1738.666	1588.061
-47.130	30.028	1697.901	1416.094
-46.115	27.419	1683.330	1384.078
-45.100	27.201	1678.488	1378.391
-44.086	27.184	1675.863	1376.054
-43.071	27.130	1673.415	1373.583
-42.057	27.116	1671.095	1371.517
-41.042	27.156	1668.853	1369.924
-40.027	27.188	1666.660	1368.309
-39.013	27.070	1665.387	1366.326
-37.998	27.197	1663.197	1365.427
-36.984	27.158	1662.296	1364.335
-35.969	27.246	1659.844	1362.930
-34.954	27.291	1658.583	1362.179
-33.940	27.204	1656.987	1360.164
-32.925	27.303	1654.515	1358.817
-31.911	27.297	1652.867	1357.371
-30.896	27.333	1650.806	1355.886
-29.881	27.246	1649.569	1354.175
-28.867	27.195	1648.221	1352.629
-27.852	27.258	1646.831	1351.907
-26.838	27.181	1645.276	1350.005
-25.823	27.300	1643.715	1349.557
-24.809	27.273	1642.489	1348.296
-23.794	27.278	1641.155	1347.178
-22.779	27.332	1639.336	1346.036
-21.765	27.338	1637.482	1344.504
-20.750	27.238	1636.383	1342.810
-19.736	27.344	1634.694	1342.148
-18.721	27.285	1634.029	1341.119
-17.706	27.274	1632.172	1339.461
-16.692	27.263	1631.006	1338.370
-15.677	27.435	1629.010	1337.941
-14.663	27.376	1628.141	1336.736
-13.648	27.382	1626.117	1335.073
-12.633	27.394	1624.595	1333.853
-11.619	27.256	1623.303	1331.729
-10.604	27.291	1622.133	1330.977
-9.590	27.364	1620.571	1330.174
-8.575	27.338	1619.200	1328.802
-7.560	27.366	1618.053	1328.015
-6.546	27.374	1616.768	1326.966
-5.531	27.323	1616.189	1326.068
-4.517	27.258	1615.029	1324.591
-3.502	27.325	1613.840	1324.047
-2.487	27.414	1611.602	1322.810
-1.473	27.314	1600.488	1312.908
-0.458	24.935	1582.022	1280.718
0.556	20.195	1584.158	1252.773
1.571	18.294	1608.190	1257.714
2.586	17.792	1621.415	1264.222
3.600	16.373	1567.244	1211.706
4.615	9.105	1455.765	1076.826
5.629	1.671	1392.742	982.277
6.644	0.362	1384.702	968.119
7.659	0.355	1382.932	966.749
8.673	0.237	1382.294	965.462
9.688	0.256	1380.404	964.182
10.702	0.146	1376.913	960.952
11.717	3.643	1382.126	986.887
12.731	11.566	1394.580	1046.624
13.746	16.536	1400.529	1082.897
14.761	16.989	1400.171	1085.421
15.775	16.225	1398.216	1078.930
16.790	15.328	1395.795	1071.235
17.804	14.432	1394.245	1064.238
18.819	14.110	1392.544	1060.791
19.834	13.908	1390.863	1058.130
20.848	13.616	1389.862	1055.412
21.863	13.267	1388.708	1052.225
22.877	13.110	1387.140	1049.940
23.892	13.115	1386.462	1049.369
24.907	13.067	1385.674	1048.375
25.921	13.137	1384.532	1047.861
26.936	13.090	1383.921	1047.009
27.950	13.248	1382.406	1046.772
28.965	13.239	1382.026	1046.334
29.980	13.225	1380.933	1045.324
30.994	13.336	1380.291	1045.447
32.009	13.461	1378.826	1045.034
33.023	13.385	1377.858	1043.728
34.038	13.354	1376.648	1042.523
35.053	13.310	1375.674	1041.416
36.067	13.294	1374.712	1040.499
37.082	13.318	1373.305	1039.493
38.096	13.285	1372.780	1038.796
39.111	13.308	1371.722	1038.044
40.126	13.294	1371.001	1037.318
41.140	13.163	1370.285	1035.864
42.155	13.170	1369.726	1035.394
43.169	13.291	1369.304	1035.741
44.184	13.228	1369.307	1035.258
45.199	13.243	1368.414	1034.583
46.213	13.216	1368.397	1034.311
47.228	13.248	1367.428	1033.686
48.242	13.159	1365.939	1031.917
49.257	13.219	1364.682	1031.252
50.271	13.248	1362.974	1030.049
51.286	13.254	1362.051	1029.298
52.301	13.270	1360.759	1028.328
53.315	13.199	1359.636	1026.949
54.330	13.094	1359.132	1025.821
55.344	13.125	1357.493	1024.686
56.359	13.201	1356.467	1024.298
57.374	13.205	1355.344	1023.383
58.388	13.118	1354.946	1022.453
59.403	13.109	1354.309	1021.825
60.417	13.055	1353.527	1020.810
61.432	13.096	1352.760	1020.393
62.447	13.032	1351.919	1019.272
63.461	13.024	1350.373	1017.971
64.476	13.029	1349.516	1017.263
65.490	13.100	1347.751	1016.284
66.505	13.181	1346.034	1015.396
67.520	13.201	1344.992	1014.643
68.534	13.117	1344.506	1013.669
69.549	13.209	1343.122	1013.103
70.563	13.182	1342.144	1012.106
71.578	13.087	1340.864	1010.468
72.593	13.059	1340.197	1009.705
73.607	13.038	1339.570	1009.016
74.622	13.082	1338.194	1008.163
75.636	13.076	1338.112	1007.971
76.651	12.946	1337.341	1006.513
77.666	12.992	1336.782	1006.282
78.680	13.128	1336.052	1006.472
79.695	13.089	1334.992	1005.345
80.709	13.094	1334.056	1004.583
81.724	13.111	1333.244	1003.984
82.739	13.245	1332.137	1003.878
83.753	13.263	1331.224	1003.211
84.768	13.194	1330.270	1001.980
85.782	13.255	1329.163	1001.432
86.797	13.185	1327.978	1000.024
87.812	13.200	1326.746	999.098
88.826	13.214	1325.573	998.213
89.841	13.186	1324.424	997.092
90.855	13.209	1323.572	996.500
91.870	13.264	1322.539	995.967
92.884	13.251	1321.671	995.146
93.899	13.365	1320.816	995.100
94.914	13.308	1320.175	994.184
95.928	13.263	1319.130	993.038
96.943	13.372	1318.319	992.998
97.957	13.258	1317.090	991.297
98.972	13.299	1316.366	990.912
99.987	13.259	1315.390	989.847
101.001	13.326	1314.084	989.181
102.016	13.302	1313.086	988.195
103.030	13.314	1312.580	987.803
104.045	13.368	1311.466	987.200
105.060	13.282	1310.108	985.573
106.074	13.270	1308.778	984.416
107.089	13.148	1307.699	982.793
108.103	13.164	1306.226	981.692
109.118	13.124	1304.663	980.196
110.133	13.119	1303.524	979.220
111.147	13.146	1302.555	978.569
112.162	13.215	1300.996	977.716
113.176	13.235	1300.206	977.154
114.191	13.202	1298.867	975.866
115.206	13.337	1297.459	975.520
116.220	13.222	1296.488	974.027
117.235	13.265	1295.392	973.369
118.249	13.216	1294.922	972.643
119.264	13.100	1293.850	971.067
120.279	13.193	1292.430	970.461
121.293	13.258	1291.256	969.880
122.308	13.251	1290.225	968.976
123.322	13.028	1290.008	967.419
124.337	13.091	1288.698	966.722
125.352	13.143	1287.471	966.020
126.366	13.266	1286.003	965.551
127.381	13.221	1285.139	964.556
128.395	13.114	1284.128	963.083
129.410	13.164	1283.017	962.460
130.424	13.177	1282.271	961.891
131.439	13.241	1280.953	961.188
132.454	13.272	1279.945	960.528
133.468	13.163	1279.369	959.378
134.483	13.235	1278.328	958.929
135.497	13.325	1276.862	958.265
136.512	13.186	1276.027	956.747
137.527	13.233	1275.009	956.171
138.541	13.308	1272.849	954.902
139.556	13.291	1271.282	953.546
140.570	13.216	1270.580	952.501
141.585	13.352	1269.546	952.423
142.600	13.360	1268.092	951.297
143.614	13.448	1267.285	951.111
144.629	13.382	1266.457	950.029
145.643	13.358	1265.139	948.814
146.658	13.327	1263.956	947.666
147.673	13.376	1262.509	946.782
148.687	13.406	1261.620	946.204
149.702	13.393	1259.408	944.382
150.716	13.354	1258.578	943.458
151.731	13.294	1257.299	942.070
152.746	13.245	1256.309	940.967
153.760	13.349	1255.025	940.512
154.775	13.506	1253.565	940.228
155.789	13.489	1252.760	939.443
156.804	13.432	1251.760	938.288
157.819	13.559	1250.721	938.145
158.833	13.522	1249.682	937.075
159.848	13.542	1248.817	936.455
160.862	13.554	1247.972	935.807
161.877	13.553	1246.379	934.526
162.892	13.478	1245.765	933.557
163.906	13.453	1245.025	932.780
164.921	13.534	1243.508	932.018
165.935	13.506	1242.996	931.393
166.950	13.584	1242.042	931.033
167.964	13.486	1241.163	929.743
168.979	13.571	1240.827	929.888
169.994	13.593	1240.057	929.352
171.008	13.644	1239.011	928.768
172.023	13.610	1238.721	928.281
173.037	13.670	1237.528	927.638
174.052	13.706	1236.241	926.793
175.067	13.593	1235.777	925.734
176.081	13.494	1234.615	924.230
177.096	13.544	1233.888	923.879
178.110	13.614	1233.006	923.530
179.125	13.553	1231.551	922.019
180.140	13.591	1230.489	921.350
181.154	13.716	1228.662	920.596
182.169	13.710	1227.942	919.941
183.183	13.697	1226.641	918.815
184.198	13.718	1225.609	918.074
185.213	13.832	1224.061	917.464
186.227	13.817	1223.255	916.696
187.242	13.883	1221.943	915.998
188.256	13.866	1221.202	915.266
189.271	13.833	1220.163	914.224
190.286	13.684	1219.421	912.769
191.300	13.638	1218.731	911.920
192.315	13.654	1217.785	911.216
193.329	13.729	1217.145	911.072
194.344	13.748	1216.494	910.609
195.359	13.682	1216.469	910.147
196.373	13.849	1215.392	910.173
197.388	13.932	1214.954	910.222
198.402	13.850	1214.940	909.681
199.417	14.045	1213.704	909.744
200.432	14.023	1212.740	908.817
201.446	14.043	1211.821	908.159
202.461	14.097	1210.673	907.511
203.475	14.193	1209.563	907.124
204.490	14.075	1208.283	905.439
205.504	14.031	1207.391	904.452
206.519	14.033	1206.114	903.427
207.534	14.037	1204.975	902.516
208.548	14.111	1203.877	902.016
209.563	14.049	1203.025	900.959
210.577	14.077	1202.143	900.375
211.592	14.164	1201.489	900.273
212.607	14.075	1200.722	899.138
213.621	14.176	1199.238	898.495
214.636	14.213	1199.163	898.554
215.650	14.131	1198.371	897.441
216.665	14.147	1196.754	896.236
217.680	14.331	1196.285	896.796
218.694	14.251	1195.291	895.541
219.709	14.281	1194.634	895.133
220.723	14.241	1193.693	894.131
221.738	14.290	1192.985	893.785
222.753	14.233	1192.297	892.886
223.767	14.243	1191.837	892.518
224.782	14.325	1190.789	892.095
225.796	14.376	1190.818	892.307
226.811	14.371	1189.648	891.326
227.826	14.305	1188.858	890.302
228.840	14.356	1188.196	889.998
229.855	14.397	1187.386	889.533
230.869	14.356	1186.675	888.702
231.884	14.344	1185.693	887.824
232.899	14.404	1184.643	887.280
233.913	14.295	1184.199	886.287
234.928	14.300	1183.414	885.648
235.942	14.357	1182.577	885.248
236.957	14.411	1181.673	884.778
237.972	14.299	1181.426	883.922
238.986	14.435	1180.385	883.787
240.001	14.347	1180.010	882.959
241.015	14.392	1178.896	882.285
242.030	14.489	1177.915	881.990
243.045	14.626	1177.110	882.029
244.059	14.455	1176.856	880.860
245.074	14.569	1175.521	880.385
246.088	14.447	1174.760	879.093
247.103	14.519	1174.126	878.920
248.117	14.567	1173.129	878.347
249.132	14.703	1172.508	878.524
250.147	14.808	1171.286	878.078
251.161	14.874	1170.845	878.017
252.176	14.743	1170.586	877.057
253.190	14.787	1169.769	876.600
254.205	14.854	1169.241	876.480
255.220	14.918	1168.480	876.168
256.234	14.770	1168.397	875.251
257.249	14.707	1167.716	874.331
258.263	14.840	1166.665	874.163
259.278	14.770	1166.347	873.480
260.293	14.839	1165.582	873.191
261.307	14.942	1164.938	873.170
262.322	14.953	1164.172	872.577
263.336	15.024	1163.477	872.349
264.351	15.005	1162.881	871.723
265.366	14.966	1161.970	870.764
266.380	15.025	1161.522	870.655
267.395	15.003	1160.633	869.801
268.409	15.007	1159.767	869.091
269.424	15.018	1159.156	868.619
270.439	15.103	1158.196	868.261
271.453	15.019	1157.914	867.537
272.468	14.972	1156.886	866.448
273.482	14.978	1156.549	866.149
274.497	15.042	1155.685	865.758
275.512	15.125	1154.856	865.487
276.526	15.096	1154.505	864.996
277.541	15.079	1153.523	864.099
278.555	15.193	1152.620	863.934
279.570	15.144	1152.180	863.276
280.585	15.242	1151.199	862.966
281.599	15.229	1150.389	862.215
282.614	15.297	1149.231	861.623
283.628	15.154	1148.062	859.934
284.643	15.242	1147.202	859.668
285.657	15.326	1146.272	859.322
286.672	15.334	1145.108	858.418
287.687	15.388	1144.005	857.788
288.701	15.342	1144.074	857.530
289.716	15.394	1142.863	856.810
290.730	15.242	1142.463	855.659
291.745	15.371	1141.951	855.857
292.760	15.325	1141.153	854.953
293.774	15.324	1140.463	854.350
294.789	15.412	1139.965	854.352
295.803	15.441	1139.126	853.794
296.818	15.325	1138.240	852.464
297.833	15.456	1137.382	852.416
298.847	15.453	1136.901	851.961
299.862	15.496	1136.029	851.453
300.876	15.500	1135.029	850.648
301.891	15.440	1134.890	850.161
302.906	15.507	1133.674	849.518
303.920	15.566	1133.197	849.381
304.935	15.596	1132.645	849.046
305.949	15.634	1131.331	848.176
306.964	15.720	1131.329	848.535
307.979	15.689	1130.572	847.736
308.993	15.753	1129.505	847.181
310.008	15.673	1129.151	846.437
311.022	15.705	1128.222	845.828
312.037	15.761	1127.165	845.244
313.052	15.708	1126.733	844.576
314.066	15.775	1125.393	843.834
315.081	15.704	1124.540	842.764
316.095	15.584	1124.261	841.877
317.110	15.660	1123.447	841.577
318.125	15.743	1122.229	841.006
319.139	15.723	1121.459	840.255
320.154	15.522	1121.418	839.145
321.168	15.642	1120.542	839.014
322.183	15.679	1119.987	838.708
323.197	15.761	1119.200	838.454
324.212	15.822	1118.256	837.975
325.227	15.685	1118.054	837.069
326.241	15.868	1116.910	837.048
327.256	15.813	1116.204	836.173
328.270	15.698	1115.753	835.186
329.285	15.806	1114.469	834.690
330.300	15.788	1113.703	833.954
331.314	15.807	1112.887	833.360
332.329	15.770	1111.896	832.362
333.343	15.826	1111.210	832.054
334.358	15.888	1109.938	831.331
335.373	15.910	1109.581	831.098
336.387	16.054	1108.144	830.659
337.402	15.936	1107.673	829.653
338.416	16.055	1106.919	829.597
339.431	15.994	1106.615	828.996
340.446	15.986	1106.292	828.643
341.460	16.092	1105.389	828.413
342.475	16.132	1104.402	827.799
343.489	16.162	1103.163	826.944
344.504	16.093	1102.891	826.326
345.519	16.160	1101.798	825.763
346.533	16.227	1101.241	825.601
347.548	16.200	1100.680	824.974
348.562	16.209	1099.726	824.229
349.577	16.327	1098.693	823.961
350.592	16.257	1097.882	822.938
351.606	16.187	1097.069	821.912
352.621	16.167	1096.548	821.353
353.635	16.175	1095.816	820.771
354.650	16.116	1095.654	820.290
355.665	16.204	1094.723	819.950
356.679	16.216	1094.089	819.459
357.694	16.259	1093.315	819.019
358.708	16.350	1092.323	818.642
359.723	16.287	1091.980	818.007
360.738	16.282	1091.411	817.483
361.752	16.380	1090.820	817.442
362.767	16.308	1090.375	816.690
363.781	16.346	1089.644	816.255
364.796	16.542	1089.206	816.801
365.810	16.483	1088.296	815.762
366.825	16.521	1087.458	815.243
367.840	16.570	1087.361	815.334
368.854	16.474	1086.959	814.497
369.869	16.427	1086.077	813.541
370.883	16.469	1085.459	813.207
371.898	16.538	1084.248	812.557
372.913	16.553	1083.654	812.114
373.927	16.504	1083.327	811.562
374.942	16.621	1082.785	811.647
375.956	16.550	1082.156	810.763
376.971	16.635	1081.688	810.744
377.986	16.634	1081.158	810.271
379.000	16.652	1080.442	809.752
380.015	16.708	1080.043	809.649
381.029	16.662	1079.530	808.972
382.044	16.687	1078.632	808.344
383.059	16.775	1077.705	808.000
384.073	16.755	1077.273	807.510
385.088	16.796	1076.170	806.807
386.102	16.862	1074.856	806.062
387.117	16.715	1074.281	804.860
388.132	16.700	1073.356	804.025
389.146	16.706	1072.392	803.264
390.161	16.858	1071.377	803.150
391.175	16.805	1071.047	802.583
392.190	16.836	1070.409	802.180
393.205	16.920	1069.613	801.908
394.219	17.026	1068.711	801.663
395.234	16.897	1067.931	800.397
396.248	16.935	1066.803	799.660
397.263	16.810	1066.258	798.594
398.278	16.846	1065.673	798.254
399.292	16.928	1064.354	797.579
400.307	16.893	1063.602	796.783
401.321	16.932	1063.113	796.528
402.336	16.926	1062.723	796.138
403.350	16.910	1061.895	795.371
404.365	17.004	1060.984	795.059
405.380	17.054	1060.374	794.767
406.394	17.058	1059.832	794.307
407.409	17.047	1058.652	793.299
408.423	17.177	1058.048	793.383
409.438	17.103	1057.402	792.484
410.453	17.242	1056.814	792.625
411.467	17.249	1055.903	791.902
412.482	17.300	1055.512	791.776
413.496	17.174	1054.760	790.556
414.511	17.175	1054.585	790.358
415.526	17.306	1053.845	790.347
416.540	17.324	1053.232	789.900
417.555	17.358	1052.743	789.619
418.569	17.313	1052.515	789.168
419.584	17.270	1052.047	788.551
420.599	17.351	1051.332	788.318
421.613	105.035	1326.877	1478.272
422.628	96.690	1366.972	1478.380
