DTS Sentinel unit serial number:	SN413079Multiplexer serial number:	ORYXHardware model number:	OX4-SRSoftware version number:	ORYX F/W v4.00 Oryx Data Collector v3.7.2.0data status	okinstallation	princeton_trtdifferential loss correction	single-endedforward channel	channel 2reverse channel	N/Adate	2019/09/17time	02:23:34forward acquisition time	60.00reverse acquisition time	0.00gamma	496.2192k internal	0.2327k external	0.2327temperature offset calibration	0.9976default loss term (dB/km)	0.3790temperature slope calibration	1.0000multiplexer offset coefficient	1.0000multiplexer slope coefficient	1.0000fibre end	0.00T internal ref (°C)	29.75T ext. ref 1 (°C)	0.12T ext. ref 2 (°C)	24.75length (m)	temperature (°C)	Stokes	anti-Stokes-747.200	800.000	-0.026	-0.091
-746.185	-5.189	-0.300	-0.208
-745.171	9.158	0.286	0.218
-744.156	44.199	-0.153	0.142
-743.142	-73.885	0.174	-0.064
-742.127	-200.000	0.033	-0.196
-741.112	293.125	-0.039	0.072
-740.098	-200.000	-0.018	0.192
-739.083	-14.859	-0.146	-0.095
-738.069	548.874	-0.054	-0.131
-737.054	-122.364	-0.488	0.080
-736.039	800.000	-0.053	0.163
-735.025	800.000	-0.078	0.301
-734.010	-2.955	-0.308	-0.217
-732.996	272.268	0.190	0.338
-731.981	-200.000	0.016	-0.459
-730.966	-200.000	0.001	0.071
-729.952	-35.916	0.117	0.064
-728.937	-79.630	0.177	-0.060
-727.923	421.288	0.124	-0.269
-726.908	-84.995	-0.123	-0.039
-725.894	172.455	-0.060	0.086
-724.879	-81.706	-0.152	0.050
-723.864	34.152	-0.120	0.105
-722.850	115.660	-0.155	0.192
-721.835	-29.625	-0.296	0.170
-720.821	-200.000	0.027	0.140
-719.806	-68.372	0.072	-0.028
-718.791	-54.840	-0.113	0.051
-717.777	62.856	-0.238	0.240
-716.762	222.992	-0.057	-0.092
-715.748	800.000	-0.045	-0.168
-714.733	101.291	-0.028	0.032
-713.718	-83.445	-0.133	0.043
-712.704	427.579	0.090	-0.196
-711.689	160.201	-0.088	0.123
-710.675	-80.615	-0.072	-0.024
-709.660	241.165	-0.200	-0.336
-708.645	-57.594	0.169	0.075
-707.631	58.653	0.147	0.145
-706.616	-95.614	-0.189	-0.051
-705.602	-149.739	0.276	0.022
-704.587	22.557	0.286	0.236
-703.572	-200.000	0.014	-0.263
-702.558	215.413	0.124	-0.198
-701.543	800.000	-0.030	-0.101
-700.529	155.564	0.056	-0.078
-699.514	-95.427	-0.099	0.027
-698.499	-200.000	-0.003	-0.289
-697.485	142.513	-0.055	-0.074
-696.470	91.149	-0.132	-0.149
-695.456	-55.858	-0.257	0.115
-694.441	-41.004	0.194	0.101
-693.426	713.585	-0.073	-0.194
-692.412	-108.495	-0.091	0.020
-691.397	-59.488	-0.418	-0.181
-690.383	-68.593	0.218	-0.085
-689.368	339.886	0.104	0.204
-688.354	24.986	0.326	0.272
-687.339	-61.684	-0.208	0.088
-686.324	-100.339	-0.072	-0.018
-685.310	-36.878	0.240	0.129
-684.295	-200.000	-0.010	-0.145
-683.281	-132.097	0.095	-0.012
-682.266	-51.640	0.060	-0.028
-681.251	-19.759	0.067	0.042
-680.237	-35.025	-0.180	-0.099
-679.222	-46.027	-0.282	0.140
-678.208	-139.560	-0.172	0.018
-677.193	-112.950	0.116	0.023
-676.178	-110.777	-0.254	-0.053
-675.164	-200.000	0.036	-0.162
-674.149	-162.861	-0.286	0.014
-673.135	800.000	0.040	0.168
-672.120	-120.865	-0.218	-0.037
-671.105	-90.489	0.109	-0.032
-670.091	-73.056	-0.237	0.087
-669.076	800.000	0.016	0.059
-668.062	-177.457	0.154	0.004
-667.047	-200.000	0.051	0.264
-666.032	-46.091	-0.034	0.017
-665.018	-146.153	0.328	-0.029
-664.003	-12.747	-0.107	0.070
-662.989	28.068	0.119	-0.101
-661.974	-107.057	-0.241	0.053
-660.959	-57.247	-0.247	0.109
-659.945	800.000	0.061	0.205
-658.930	162.914	-0.035	-0.049
-657.916	608.674	-0.109	0.273
-656.901	636.778	-0.114	-0.291
-655.886	66.890	-0.153	-0.157
-654.872	800.000	0.024	0.095
-653.857	800.000	0.064	-0.226
-652.843	412.534	-0.208	0.443
-651.828	66.914	-0.264	0.270
-650.814	-166.036	-0.257	0.011
-649.799	69.985	0.105	-0.109
-648.784	18.182	0.041	0.033
-647.770	376.521	-0.093	0.191
-646.755	-165.674	-0.313	-0.014
-645.741	-62.631	0.274	-0.114
-644.726	86.778	-0.180	0.199
-643.711	277.800	0.285	-0.510
-642.697	-189.398	-0.337	-0.004
-641.682	-37.048	0.134	0.072
-640.668	-24.000	-0.158	-0.095
-639.653	-55.161	0.371	0.167
-638.638	-6.543	-0.368	0.252
-637.624	-37.569	-0.220	0.118
-636.609	-43.243	0.253	-0.129
-635.595	-53.643	-0.177	0.081
-634.580	110.123	-0.178	-0.214
-633.565	180.912	-0.112	0.165
-632.551	340.226	0.178	0.348
-631.536	62.416	-0.174	-0.175
-630.522	139.242	-0.293	-0.387
-629.507	-145.997	-0.231	-0.021
-628.492	-153.886	-0.272	-0.019
-627.478	-59.886	-0.451	0.194
-626.463	-92.690	-0.222	-0.063
-625.449	-110.111	-0.264	0.055
-624.434	-115.807	-0.344	0.065
-623.419	77.538	-0.130	-0.139
-622.405	-163.272	-0.180	0.009
-621.390	179.185	0.053	-0.078
-620.376	-12.040	0.068	0.045
-619.361	-69.743	0.211	-0.081
-618.346	-183.861	0.291	0.005
-617.332	-200.000	-0.004	-0.093
-616.317	-200.000	0.006	-0.220
-615.303	800.000	0.068	-0.223
-614.288	-34.446	0.192	0.106
-613.273	-63.333	-0.250	-0.103
-612.259	479.837	0.100	0.228
-611.244	-200.000	-0.020	-0.351
-610.230	800.000	0.069	-0.209
-609.215	651.295	0.089	-0.228
-608.201	-200.000	0.079	-0.400
-607.186	99.197	0.209	-0.242
-606.171	313.123	-0.032	-0.060
-605.157	-73.795	0.108	-0.040
-604.142	-81.583	0.071	0.023
-603.128	800.000	0.115	-0.336
-602.113	-173.783	0.225	0.007
-601.098	-136.177	0.111	0.013
-600.084	-184.952	0.256	0.004
-599.069	332.257	0.163	-0.315
-598.055	-80.189	0.376	-0.126
-597.040	800.000	0.111	-0.327
-596.025	-109.722	-0.299	0.063
-595.011	527.953	-0.048	0.113
-593.996	-86.429	0.054	0.017
-592.982	310.936	-0.072	0.135
-591.967	-200.000	-0.004	0.066
-590.952	157.820	0.047	-0.066
-589.938	49.536	-0.117	0.110
-588.923	52.669	-0.175	-0.167
-587.909	-126.602	-0.418	-0.062
-586.894	-120.394	-0.258	0.044
-585.879	189.776	0.125	-0.188
-584.865	-174.691	0.112	-0.003
-583.850	-0.118	0.149	0.106
-582.836	-166.252	-0.334	-0.014
-581.821	-16.561	0.216	0.137
-580.806	-200.000	0.002	-0.089
-579.792	106.473	0.104	-0.123
-578.777	-119.848	0.204	-0.035
-577.763	239.906	-0.124	-0.207
-576.748	-11.236	0.182	0.120
-575.733	457.608	-0.089	0.199
-574.719	-59.527	-0.163	-0.070
-573.704	-138.339	0.314	0.035
-572.690	-67.250	-0.288	-0.114
-571.675	28.109	0.101	-0.086
-570.661	-65.959	0.274	-0.110
-569.646	-53.226	0.374	0.172
-568.631	78.052	0.219	-0.234
-567.617	-11.341	-0.137	0.091
-566.602	-59.302	-0.167	0.072
-565.588	-82.656	-0.200	0.065
-564.573	-6.405	-0.139	-0.095
-563.558	-200.000	0.042	-0.282
-562.544	16.617	-0.124	-0.098
-561.529	-200.000	0.011	-0.139
-560.515	148.325	-0.097	-0.131
-559.500	261.061	-0.150	-0.260
-558.485	346.715	0.077	-0.152
-557.471	30.944	-0.070	-0.060
-556.456	570.058	-0.170	-0.413
-555.442	-141.749	-0.237	0.024
-554.427	-80.910	-0.326	0.108
-553.412	149.241	-0.106	0.143
-552.398	-141.308	-0.289	-0.029
-551.383	-56.027	-0.120	-0.053
-550.369	587.717	-0.096	0.236
-549.354	-36.123	0.243	0.131
-548.339	479.449	-0.057	-0.129
-547.325	-147.002	-0.269	-0.023
-546.310	198.019	0.118	0.180
-545.296	695.521	0.003	-0.009
-544.281	800.000	0.050	-0.184
-543.266	-89.499	0.072	0.021
-542.252	100.537	-0.285	0.332
-541.237	-200.000	-0.026	0.486
-540.223	24.804	0.025	-0.021
-539.208	-200.000	-0.038	-0.323
-538.193	229.863	-0.074	-0.122
-537.179	-200.000	-0.096	-0.496
-536.164	-132.630	-0.128	0.016
-535.150	86.767	-0.100	-0.110
-534.135	-200.000	-0.032	0.190
-533.121	-80.346	-0.409	-0.137
-532.106	800.000	-0.084	-0.349
-531.091	-200.000	-0.010	0.359
-530.077	-96.603	-0.136	0.036
-529.062	800.000	-0.067	-0.250
-528.048	-110.594	-0.161	0.033
-527.033	800.000	-0.114	-0.412
-526.018	-200.000	0.092	0.485
-525.004	71.226	0.277	0.288
-523.989	-96.715	-0.341	0.090
-522.975	800.000	0.043	0.187
-521.960	-143.246	0.149	-0.014
-520.945	-200.000	-0.009	-0.293
-519.931	-200.000	0.003	-0.221
-518.916	-200.000	0.027	-0.138
-517.902	666.045	-0.036	0.094
-516.887	-200.000	-0.020	0.237
-515.872	220.429	-0.049	0.079
-514.858	125.071	0.155	0.196
-513.843	-200.000	-0.023	-0.220
-512.829	642.195	0.103	0.262
-511.814	19.814	-0.207	0.167
-510.799	800.000	-0.035	-0.141
-509.785	800.000	-0.051	0.220
-508.770	-142.072	-0.215	-0.021
-507.756	6.478	0.277	-0.205
-506.741	8.208	0.243	0.182
-505.726	-200.000	0.003	-0.228
-504.712	-13.673	-0.399	-0.258
-503.697	800.000	-0.076	-0.232
-502.683	-55.936	0.222	0.099
-501.668	-108.052	-0.321	0.070
-500.653	-200.000	0.004	-0.246
-499.639	-200.000	-0.028	-0.258
-498.624	264.222	0.209	0.363
-497.610	-26.043	0.084	-0.049
-496.595	800.000	0.049	-0.190
-495.581	-200.000	0.006	-0.048
-494.566	-123.235	-0.069	-0.011
-493.551	-99.673	-0.086	0.021
-492.537	-200.000	0.032	0.226
-491.522	298.770	0.061	0.111
-490.508	29.414	-0.532	0.451
-489.493	133.260	-0.142	0.183
-488.478	-87.341	0.422	0.128
-487.464	-199.565	-0.391	0.002
-486.449	246.848	-0.095	-0.160
-485.435	-104.697	0.102	0.023
-484.420	78.746	0.205	-0.219
-483.405	800.000	-0.100	-0.383
-482.391	185.332	0.116	-0.171
-481.376	35.140	-0.057	-0.050
-480.362	-100.762	-0.067	0.016
-479.347	71.609	-0.146	-0.151
-478.332	47.122	0.134	-0.125
-477.318	-86.003	0.361	0.111
-476.303	-55.404	-0.203	-0.091
-475.289	-143.198	0.166	-0.016
-474.274	800.000	-0.036	0.140
-473.259	-79.108	0.068	-0.023
-472.245	136.669	-0.187	0.243
-471.230	-124.992	-0.301	0.046
-470.216	646.453	-0.065	0.166
-469.201	82.919	-0.195	0.211
-468.186	-84.238	0.215	-0.068
-467.172	-200.000	-0.019	0.135
-466.157	-72.460	-0.217	0.080
-465.143	118.120	0.158	0.194
-464.128	-200.000	0.020	0.231
-463.113	-95.509	0.021	0.006
-462.099	-200.000	0.030	0.232
-461.084	413.852	0.043	0.091
-460.070	131.977	0.240	0.309
-459.055	-200.000	-0.005	-0.215
-458.040	-65.768	0.192	-0.077
-457.026	682.810	-0.026	0.068
-456.011	-147.300	0.199	-0.017
-454.997	-56.884	0.239	-0.105
-453.982	315.940	0.097	-0.183
-452.968	495.787	0.137	0.313
-451.953	-155.843	0.178	0.011
-450.938	26.916	0.216	0.180
-449.924	227.978	-0.194	0.315
-448.909	-15.936	0.026	-0.017
-447.895	-187.110	0.344	-0.005
-446.880	5.464	-0.289	-0.213
-445.865	-17.981	-0.071	-0.044
-444.851	800.000	0.051	-0.204
-443.836	668.504	-0.083	-0.214
-442.822	-200.000	-0.076	-0.457
-441.807	98.958	-0.068	0.078
-440.792	-72.513	0.356	-0.131
-439.778	26.710	0.105	-0.088
-438.763	40.817	-0.211	0.189
-437.749	155.143	0.190	-0.261
-436.734	-200.000	0.019	-0.181
-435.719	769.469	0.155	0.420
-434.705	135.152	-0.026	-0.034
-433.690	-184.852	0.072	-0.001
-432.676	-200.000	0.026	0.122
-431.661	58.769	-0.139	-0.136
-430.646	-200.000	-0.003	-0.169
-429.632	-121.302	-0.184	-0.031
-428.617	84.250	-0.164	-0.178
-427.603	-78.124	0.243	-0.083
-426.588	-146.908	-0.282	0.024
-425.573	800.000	0.057	-0.200
-424.559	189.062	0.059	-0.088
-423.544	134.572	-0.269	-0.347
-422.530	102.090	0.083	0.096
-421.515	-67.614	0.269	-0.105
-420.500	800.000	0.093	0.272
-419.486	-200.000	-0.022	0.632
-418.471	-200.000	-0.001	0.124
-417.457	-48.796	-0.190	-0.091
-416.442	223.910	-0.145	0.233
-415.428	-200.000	0.014	-0.242
-414.413	218.967	0.049	0.078
-413.398	-163.207	-0.131	0.006
-412.384	252.729	-0.040	0.068
-411.369	114.777	0.082	-0.100
-410.355	-48.057	0.081	-0.039
-409.340	9.361	0.118	0.089
-408.325	800.000	-0.062	0.256
-407.311	-200.000	-0.041	0.282
-406.296	-51.223	0.098	-0.046
-405.282	800.000	-0.042	0.150
-404.267	-126.802	0.313	-0.046
-403.252	25.478	0.102	0.085
-402.238	-200.000	0.022	-0.164
-401.223	-45.556	0.269	0.133
-400.209	-200.000	-0.001	0.256
-399.194	260.873	-0.199	-0.342
-398.179	-85.329	0.153	0.047
-397.165	-126.208	0.098	0.015
-396.150	-200.000	-0.023	0.206
-395.136	-109.767	0.112	0.023
-394.121	321.798	0.024	0.046
-393.106	-141.097	-0.135	-0.014
-392.092	-17.870	-0.092	-0.057
-391.077	-15.750	-0.181	-0.115
-390.063	-109.371	0.265	0.056
-389.048	-200.000	0.067	-0.373
-388.033	-38.320	0.250	0.132
-387.019	86.400	-0.176	0.193
-386.004	-25.413	-0.305	-0.179
-384.990	-200.000	0.024	0.132
-383.975	-7.723	-0.088	0.059
-382.960	467.521	0.188	0.419
-381.946	-76.086	0.284	0.100
-380.931	509.290	0.079	-0.183
-379.917	92.907	0.244	0.274
-378.902	800.000	0.096	-0.266
-377.888	321.669	-0.066	-0.125
-376.873	-31.994	-0.334	-0.186
-375.858	-76.987	-0.317	-0.110
-374.844	-101.140	-0.432	0.105
-373.829	800.000	0.086	0.288
-372.815	-200.000	-0.017	0.094
-371.800	279.504	-0.044	0.078
-370.785	-10.683	0.095	0.062
-369.771	224.478	-0.008	-0.013
-368.756	60.935	0.268	-0.264
-367.742	800.000	-0.114	0.476
-366.727	-73.571	-0.173	-0.063
-365.712	-135.424	-0.346	0.041
-364.698	77.234	0.294	-0.311
-363.683	574.406	0.041	-0.099
-362.669	692.988	0.020	0.052
-361.654	-20.420	-0.140	-0.085
-360.639	-166.482	-0.210	-0.009
-359.625	-169.492	-0.071	-0.003
-358.610	-200.000	-0.031	-0.235
-357.596	-200.000	0.053	-0.342
-356.581	-166.078	-0.212	0.009
-355.566	-200.000	-0.006	-0.057
-354.552	-27.074	0.135	0.078
-353.537	-15.313	-0.278	0.176
-352.523	800.000	0.058	-0.196
-351.508	-172.308	0.221	-0.007
-350.493	48.762	-0.221	0.206
-349.479	-96.323	0.284	0.075
-348.464	-94.977	0.208	0.056
-347.450	-114.058	-0.097	-0.019
-346.435	-92.977	0.209	0.058
-345.420	-145.148	-0.322	0.029
-344.406	-117.608	0.143	0.026
-343.391	13.730	-0.184	-0.142
-342.377	-200.000	-0.018	0.245
-341.362	450.382	-0.104	-0.228
-340.348	-200.000	-0.016	0.160
-339.333	-124.740	-0.143	-0.022
-338.318	7.934	0.088	0.065
-337.304	32.526	0.204	0.175
-336.289	-140.840	-0.350	0.036
-335.275	73.413	0.107	-0.111
-334.260	31.344	0.115	-0.098
-333.245	208.603	0.107	0.167
-332.231	-40.370	-0.291	-0.150
-331.216	466.079	-0.054	0.120
-330.202	49.256	-0.164	0.153
-329.187	-120.339	0.296	0.050
-328.172	-200.000	0.060	-0.349
-327.158	-117.266	-0.083	0.015
-326.143	121.388	-0.055	0.067
-325.129	-24.734	-0.069	0.041
-324.114	-132.017	0.365	0.047
-323.099	161.599	0.118	-0.164
-322.085	285.954	-0.103	-0.184
-321.070	-43.731	-0.272	0.136
-320.056	654.988	-0.099	-0.252
-319.041	286.342	0.127	0.227
-318.026	50.413	-0.054	-0.051
-317.012	-36.790	0.270	0.143
-315.997	227.240	0.200	-0.323
-314.983	12.372	-0.053	-0.041
-313.968	-74.151	0.394	-0.141
-312.953	76.833	-0.040	0.042
-311.939	-200.000	-0.035	0.181
-310.924	-200.000	0.020	0.144
-309.910	-200.000	0.030	0.316
-308.895	-35.846	-0.271	0.145
-307.880	68.965	0.137	0.139
-306.866	514.427	-0.191	-0.441
-305.851	-92.860	-0.321	0.089
-304.837	36.890	0.052	0.045
-303.822	-85.551	0.357	0.110
-302.807	800.000	-0.035	0.102
-301.793	16.440	-0.109	-0.085
-300.778	-57.065	0.266	0.116
-299.764	-46.865	-0.150	-0.072
-298.749	-200.000	-0.011	-0.152
-297.735	-173.090	-0.157	0.005
-296.720	203.016	0.091	0.140
-295.705	800.000	0.103	-0.359
-294.691	-93.788	-0.149	0.041
-293.676	-121.561	0.132	-0.022
-292.662	-68.544	0.472	0.181
-291.647	-200.000	0.006	0.055
-290.632	-200.000	0.031	0.417
-289.618	-159.953	0.036	0.002
-288.603	-109.167	-0.129	0.027
-287.589	-2.666	0.318	-0.220
-286.574	238.352	0.163	-0.268
-285.559	800.000	0.054	0.154
-284.545	-200.000	0.016	-0.076
-283.530	-161.139	-0.184	0.010
-282.516	-125.812	-0.254	0.038
-281.501	-15.692	-0.156	0.099
-280.486	-200.000	-0.439	-0.002
-279.472	800.000	0.056	0.231
-278.457	-41.382	0.121	-0.062
-277.443	-200.000	0.016	-0.248
-276.428	736.374	0.166	-0.441
-275.413	-200.000	-0.032	0.179
-274.399	-124.456	-0.232	0.036
-273.384	-79.315	-0.491	-0.165
-272.370	3.915	-0.087	-0.063
-271.355	-83.944	0.336	-0.106
-270.340	-116.486	0.184	-0.034
-269.326	-132.538	-0.215	0.027
-268.311	-200.000	0.013	-0.159
-267.297	-61.370	0.265	0.110
-266.282	-21.355	0.085	-0.051
-265.267	-200.000	0.064	-0.388
-264.253	-58.920	0.036	0.016
-263.238	-101.055	-0.187	0.045
-262.224	14.907	0.187	0.145
-261.209	-101.203	0.140	-0.034
-260.195	-141.652	0.299	0.030
-259.180	13.362	0.207	0.159
-258.165	91.777	0.257	-0.286
-257.151	67.683	-0.229	0.231
-256.136	-128.688	0.103	0.014
-255.122	283.407	-0.017	0.031
-254.107	800.000	0.178	0.512
-253.092	59.684	0.185	0.180
-252.078	33.297	0.294	0.252
-251.063	-172.344	0.490	0.015
-250.049	-200.000	0.002	-0.044
-249.034	-43.821	0.095	0.047
-248.019	-29.114	-0.178	-0.101
-247.005	-32.930	-0.409	-0.224
-245.990	800.000	0.132	-0.440
-244.976	27.642	-0.084	0.070
-243.961	-76.754	0.112	0.039
-242.946	-8.592	-0.129	-0.086
-241.932	-97.585	-0.333	0.086
-240.917	-4.867	-0.161	-0.109
-239.903	-200.000	-0.022	0.146
-238.888	35.140	-0.075	-0.065
-237.873	8.022	0.125	0.093
-236.859	-102.488	-0.255	-0.060
-235.844	800.000	0.078	0.245
-234.830	-38.674	0.457	-0.238
-233.815	46.363	-0.181	0.165
-232.800	6.026	-0.079	-0.058
-231.786	164.011	0.018	-0.026
-230.771	-21.140	-0.405	-0.244
-229.757	69.229	-0.047	0.048
-228.742	-200.000	0.029	0.125
-227.727	623.213	0.069	-0.171
-226.713	514.096	-0.088	-0.203
-225.698	796.619	0.158	0.429
-224.684	0.428	0.099	-0.070
-223.669	338.190	-0.043	-0.083
-222.655	-200.000	-0.011	0.342
-221.640	108.240	0.047	0.056
-220.625	-100.410	0.245	-0.060
-219.611	32.140	0.176	0.150
-218.596	-29.992	-0.083	0.047
-217.582	-35.148	0.340	-0.183
-216.567	-26.031	-0.069	-0.040
-215.552	-192.032	-0.103	0.001
-214.538	626.330	0.061	0.153
-213.523	37.603	0.074	0.065
-212.509	26.409	-0.237	-0.196
-211.494	157.959	0.043	0.058
-210.479	-82.479	0.148	-0.047
-209.465	-90.459	0.221	0.063
-208.450	-138.349	-0.111	-0.012
-207.436	488.410	-0.060	-0.135
-206.421	111.278	-0.130	0.155
-205.406	218.787	0.221	-0.348
-204.392	-169.597	-0.131	-0.005
-203.377	800.000	-0.103	0.379
-202.363	800.000	-0.052	0.160
-201.348	89.313	-0.295	0.325
-200.333	136.328	-0.120	-0.154
-199.319	94.040	0.025	-0.027
-198.304	180.894	-0.104	-0.151
-197.290	-101.825	0.057	0.014
-196.275	-76.408	0.113	-0.039
-195.260	-200.000	0.033	-0.185
-194.246	417.825	0.178	0.376
-193.231	-200.000	0.050	-0.265
-192.217	89.778	-0.167	0.184
-191.202	-47.404	0.105	0.050
-190.187	57.258	-0.176	-0.169
-189.173	-160.580	0.444	0.023
-188.158	-200.000	0.034	0.495
-187.144	800.000	0.057	0.190
-186.129	157.526	0.154	-0.210
-185.114	-79.907	-0.308	-0.102
-184.100	-66.304	-0.090	0.035
-183.085	-92.599	-0.122	0.034
-182.071	769.768	-0.026	-0.070
-181.056	-200.000	0.009	0.216
-180.042	39.887	0.307	-0.271
-179.027	-175.668	0.169	-0.005
-178.012	265.117	-0.085	0.146
-176.998	21.441	0.079	0.063
-175.983	-74.804	0.385	0.136
-174.969	362.320	-0.073	-0.145
-173.954	-97.576	0.249	0.064
-172.939	-72.781	0.157	0.057
-171.925	-50.054	0.228	0.107
-170.910	-57.026	-0.071	0.031
-169.896	15.107	0.298	0.230
-168.881	-22.155	-0.365	0.219
-167.866	-49.695	0.152	-0.071
-166.852	-200.000	0.014	0.086
-165.837	-200.000	0.035	0.225
-164.823	55.599	-0.097	0.093
-163.808	-113.843	0.178	-0.034
-162.793	702.500	0.123	0.318
-161.779	344.389	0.142	0.274
-160.764	-97.786	0.459	-0.117
-159.750	800.000	0.053	0.189
-158.735	570.262	0.096	0.230
-157.720	249.630	-0.148	0.248
-156.706	-200.000	0.014	-0.234
-155.691	86.888	-0.208	0.226
-154.677	-7.455	0.266	0.177
-153.662	31.864	-0.181	-0.154
-152.647	193.148	-0.066	-0.098
-151.633	105.106	-0.110	-0.128
-150.618	-78.840	-0.278	-0.093
-149.604	379.936	-0.125	0.252
-148.589	-44.585	-0.108	0.053
-147.574	-27.950	-0.075	0.043
-146.560	800.000	0.005	0.018
-145.545	-27.446	0.331	-0.190
-144.531	379.306	-0.031	-0.062
-143.516	93.220	0.192	0.213
-142.502	-200.000	0.008	-0.104
-141.487	-200.000	0.090	0.431
-140.472	-71.841	0.192	0.071
-139.458	41.291	0.039	-0.035
-138.443	-105.368	-0.119	-0.027
-137.429	-200.000	-0.016	0.149
-136.414	36.819	0.224	0.195
-135.399	15.103	0.159	-0.123
-134.385	800.000	0.140	-0.512
-133.370	617.039	-0.037	-0.091
-132.356	-200.000	-0.043	-0.222
-131.341	395.789	-0.118	0.241
-130.326	109.241	-0.153	-0.180
-129.312	699.217	-0.076	0.197
-128.297	-130.808	0.164	0.022
-127.283	800.000	0.042	0.141
-126.268	94.507	0.259	0.290
-125.253	15.379	-0.226	0.175
-124.239	-125.773	0.121	0.018
-123.224	200.535	-0.038	-0.058
-122.210	17.765	-0.181	0.142
-121.195	548.575	-0.111	-0.263
-120.180	17.195	-0.082	0.064
-119.166	197.729	-0.189	-0.285
-118.151	413.461	0.224	-0.469
-117.137	75.546	0.225	0.234
-116.122	-87.088	-0.008	-0.002
-115.107	621.751	0.203	0.503
-114.093	800.000	0.069	0.221
-113.078	113.699	-0.284	0.339
-112.064	61.312	0.172	0.168
-111.049	15.008	0.278	0.214
-110.034	149.421	0.052	0.070
-109.020	-39.384	0.397	-0.205
-108.005	549.935	0.029	0.069
-106.991	693.871	-0.103	-0.265
-105.976	-200.000	-0.035	-0.328
-104.962	-8.035	0.061	-0.040
-103.947	-200.000	-0.005	-0.144
-102.932	134.311	0.296	-0.378
-101.918	245.552	-0.083	0.137
-100.903	-96.186	-0.194	-0.051
-99.889	-200.000	-0.006	-0.195
-98.874	177.896	-0.023	0.033
-97.859	191.195	0.009	0.014
-96.845	205.194	-0.186	-0.284
-95.830	-51.830	-0.100	0.046
-94.816	-200.000	-0.027	0.127
-93.801	140.673	0.172	0.223
-92.786	-135.660	-0.245	-0.029
-91.772	800.000	0.058	0.171
-90.757	-200.000	-0.029	0.138
-89.743	-200.000	0.004	-0.205
-88.728	214.823	-0.263	0.410
-87.713	-200.000	-0.009	0.203
-86.699	-200.000	-0.055	0.264
-85.684	-200.000	0.014	-0.062
-84.670	108.641	-0.025	0.030
-83.655	-123.361	0.190	0.030
-82.640	-200.000	0.014	0.207
-81.626	800.000	0.127	-0.347
-80.611	106.713	-0.137	0.160
-79.597	-12.348	-0.046	-0.029
-78.582	445.483	-0.012	-0.025
-77.567	289.718	-0.104	0.186
-76.553	-81.533	-0.229	0.074
-75.538	300.785	0.218	0.395
-74.524	307.110	0.209	0.382
-73.509	-77.990	0.196	-0.066
-72.494	-97.919	-0.013	-0.003
-71.480	-167.024	-0.382	-0.015
-70.465	-114.995	-0.435	0.081
-69.451	-118.515	0.559	0.097
-68.436	727.939	0.038	0.099
-67.422	-30.123	-0.060	-0.034
-66.407	-84.695	-0.185	-0.057
-65.392	83.649	-0.091	0.097
-64.378	-120.305	-0.072	0.012
-63.363	109.396	0.138	0.162
-62.349	18.808	-0.268	-0.210
-61.334	125.943	-0.929	-1.153
-60.319	130.542	0.334	0.420
-59.305	654.143	-0.307	-0.774
-58.290	227.563	0.786	1.255
-57.276	174.881	0.918	1.304
-56.261	-200.000	106.701	579.556
-55.246	453.768	1463.868	3180.940
-54.232	147.942	2657.245	3516.864
-53.217	100.129	2289.656	2605.695
-52.203	38.682	1903.004	1666.526
-51.188	32.961	1690.856	1437.295
-50.173	30.339	1647.648	1381.030
-49.159	48.810	1700.472	1565.417
-48.144	49.307	1715.744	1583.167
-47.130	32.536	1673.778	1419.347
-46.115	29.844	1659.935	1387.398
-45.100	29.727	1654.928	1382.281
-44.086	29.645	1652.155	1379.301
-43.071	29.564	1649.601	1376.509
-42.057	29.549	1647.380	1374.491
-41.042	29.675	1644.620	1373.066
-40.027	29.673	1643.198	1371.816
-39.013	29.627	1641.230	1369.773
-37.998	29.587	1639.834	1368.262
-36.984	29.581	1638.614	1367.144
-35.969	29.726	1636.325	1366.250
-34.954	29.830	1634.879	1365.760
-33.940	29.781	1633.475	1364.169
-32.925	29.710	1631.635	1362.056
-31.911	29.751	1630.089	1361.014
-30.896	29.708	1628.563	1359.363
-29.881	29.748	1626.222	1357.651
-28.867	29.684	1624.846	1355.982
-27.852	29.684	1623.680	1354.957
-26.838	29.700	1622.230	1353.806
-25.823	29.794	1620.793	1353.243
-24.809	29.840	1619.617	1352.545
-23.794	29.718	1618.386	1350.567
-22.779	29.863	1616.087	1349.654
-21.765	29.715	1614.835	1347.477
-20.750	29.755	1613.400	1346.520
-19.736	29.769	1611.702	1345.150
-18.721	29.807	1610.657	1344.501
-17.706	29.860	1608.403	1342.952
-16.692	29.804	1607.631	1341.842
-15.677	29.780	1606.365	1340.561
-14.663	29.790	1604.870	1339.333
-13.648	29.743	1603.313	1337.643
-12.633	29.809	1601.449	1336.513
-11.619	29.788	1600.140	1335.209
-10.604	29.835	1598.882	1334.449
-9.590	29.876	1597.416	1333.464
-8.575	29.839	1596.239	1332.167
-7.560	29.748	1595.497	1330.835
-6.546	29.737	1594.687	1330.031
-5.531	29.763	1593.208	1328.934
-4.517	29.783	1591.799	1327.847
-3.502	29.779	1590.796	1326.929
-2.487	29.845	1588.986	1325.841
-1.473	29.586	1577.560	1314.408
-0.458	26.963	1558.937	1280.370
0.556	21.863	1560.466	1250.375
1.571	19.700	1584.527	1253.870
2.586	19.353	1598.290	1262.105
3.600	17.786	1545.710	1209.376
4.615	9.932	1435.224	1070.937
5.629	1.888	1369.775	970.935
6.644	0.279	1361.673	954.912
7.659	0.053	1360.888	952.844
8.673	0.060	1359.832	952.065
9.688	0.079	1357.379	950.387
10.702	-0.050	1354.176	947.249
11.717	3.732	1360.336	975.381
12.731	12.425	1374.336	1040.580
13.746	17.512	1380.885	1077.725
14.761	17.295	1379.290	1075.016
15.775	16.243	1377.004	1066.492
16.790	15.213	1374.083	1057.636
17.804	14.501	1371.707	1051.227
18.819	14.141	1370.231	1047.738
19.834	13.863	1368.833	1044.828
20.848	13.488	1368.244	1041.924
21.863	13.320	1366.277	1039.280
22.877	13.110	1365.414	1037.211
23.892	13.116	1364.541	1036.493
24.907	13.143	1363.424	1035.726
25.921	13.134	1362.784	1035.091
26.936	13.246	1361.174	1034.478
27.950	13.219	1361.354	1034.354
28.965	13.295	1359.984	1033.694
29.980	13.319	1358.955	1032.973
30.994	13.418	1357.569	1032.444
32.009	13.433	1357.063	1032.064
33.023	13.486	1355.867	1031.392
34.038	13.369	1354.685	1029.671
35.053	13.408	1353.592	1028.995
36.067	13.359	1352.466	1027.744
37.082	13.333	1351.495	1026.753
38.096	13.319	1350.802	1026.047
39.111	13.360	1350.521	1025.999
40.126	13.237	1349.144	1024.100
41.140	13.231	1348.253	1023.296
42.155	13.226	1347.616	1022.688
43.169	13.161	1347.866	1022.386
44.184	13.182	1347.506	1022.152
45.199	13.119	1347.023	1021.310
46.213	13.195	1346.109	1020.990
47.228	13.235	1345.589	1020.758
48.242	13.342	1343.687	1019.883
49.257	13.257	1342.609	1018.448
50.271	13.345	1341.088	1017.746
51.286	13.301	1339.819	1016.422
52.301	13.245	1338.865	1015.268
53.315	13.212	1337.841	1014.195
54.330	13.219	1336.754	1013.330
55.344	13.188	1335.560	1012.143
56.359	13.221	1334.651	1011.566
57.374	13.222	1333.415	1010.545
58.388	13.182	1332.840	1009.774
59.403	13.112	1332.629	1009.102
60.417	13.145	1331.666	1008.482
61.432	13.068	1330.740	1007.223
62.447	13.066	1329.808	1006.416
63.461	13.078	1328.502	1005.413
64.476	13.031	1327.525	1004.296
65.490	13.045	1326.269	1003.343
66.505	13.073	1324.493	1002.079
67.520	13.143	1323.277	1001.495
68.534	13.156	1322.838	1001.153
69.549	13.117	1321.597	999.892
70.563	13.104	1320.632	998.993
71.578	13.075	1319.218	997.662
72.593	12.956	1318.155	996.046
73.607	12.959	1318.089	995.927
74.622	12.964	1317.232	995.225
75.636	12.953	1316.370	994.417
76.651	13.064	1315.181	994.099
77.666	12.942	1315.027	993.163
78.680	13.124	1314.017	993.407
79.695	12.906	1313.350	991.504
80.709	13.182	1312.117	992.144
81.724	13.111	1311.543	991.194
82.739	13.229	1310.463	990.998
83.753	13.193	1309.758	990.162
84.768	13.312	1308.613	989.919
85.782	13.319	1307.482	989.018
86.797	13.256	1306.120	987.527
87.812	13.240	1304.589	986.186
88.826	13.267	1303.928	985.757
89.841	13.345	1302.791	985.278
90.855	13.261	1301.835	983.964
91.870	13.340	1301.181	983.857
92.884	13.402	1300.094	983.314
93.899	13.471	1299.378	983.096
94.914	13.449	1298.870	982.493
95.928	13.343	1298.121	981.212
96.943	13.420	1296.614	980.440
97.957	13.398	1295.821	979.622
98.972	13.257	1295.023	978.100
99.987	13.259	1294.043	977.285
101.001	13.353	1293.132	977.064
102.016	13.292	1292.156	975.881
103.030	13.401	1291.063	975.614
104.045	13.339	1290.317	974.597
105.060	13.306	1288.780	973.159
106.074	13.253	1287.577	971.851
107.089	13.176	1286.749	970.687
108.103	13.076	1285.548	969.110
109.118	13.262	1284.027	968.969
110.133	13.132	1283.015	967.356
111.147	13.204	1281.786	966.765
112.162	13.302	1279.989	965.894
113.176	13.275	1279.421	965.225
114.191	13.122	1278.862	963.825
115.206	13.208	1277.258	963.033
116.220	13.193	1276.338	962.166
117.235	13.335	1275.052	961.938
118.249	13.236	1274.295	960.707
119.264	13.243	1272.964	959.659
120.279	13.206	1271.794	958.478
121.293	13.098	1271.021	957.183
122.308	13.166	1269.719	956.511
123.322	13.124	1268.734	955.443
124.337	13.268	1267.470	955.235
125.352	13.169	1266.869	954.127
126.366	13.211	1265.233	953.055
127.381	13.043	1264.680	951.584
128.395	13.166	1263.229	951.114
129.410	13.258	1262.413	950.947
130.424	13.158	1262.070	950.030
131.439	13.243	1260.819	949.494
132.454	13.254	1259.511	948.487
133.468	13.319	1258.800	948.241
134.483	13.194	1258.393	947.130
135.497	13.279	1256.912	946.419
136.512	13.302	1255.407	945.333
137.527	13.304	1254.419	944.520
138.541	13.305	1252.910	943.308
139.556	13.312	1251.672	942.330
140.570	13.388	1250.711	941.957
141.585	13.387	1249.743	941.137
142.600	13.425	1248.163	940.082
143.614	13.370	1247.567	939.237
144.629	13.459	1246.355	938.744
145.643	13.401	1245.195	937.462
146.658	13.393	1244.034	936.455
147.673	13.397	1242.634	935.345
148.687	13.343	1241.618	934.188
149.702	13.357	1240.192	933.115
150.716	13.416	1238.524	932.106
151.731	13.306	1238.079	931.072
152.746	13.372	1236.615	930.261
153.760	13.383	1235.307	929.255
154.775	13.510	1234.205	929.055
155.789	13.444	1233.628	928.171
156.804	13.436	1232.590	927.260
157.819	13.528	1231.221	926.666
158.833	13.493	1230.718	926.010
159.848	13.695	1229.048	925.797
160.862	13.601	1228.577	924.837
161.877	13.354	1227.752	922.755
162.892	13.426	1226.143	921.868
163.906	13.370	1225.525	921.011
164.921	13.398	1224.763	920.510
165.935	13.475	1223.486	919.897
166.950	13.466	1223.268	919.600
167.964	13.659	1222.179	919.775
168.979	13.664	1221.579	919.268
169.994	13.637	1220.451	918.188
171.008	13.563	1220.102	917.435
172.023	13.692	1218.901	917.164
173.037	13.716	1218.019	916.552
174.052	13.667	1217.068	915.482
175.067	13.581	1216.470	914.476
176.081	13.617	1215.314	913.729
177.096	13.606	1214.651	913.087
178.110	13.644	1213.528	912.370
179.125	13.609	1212.542	911.355
180.140	13.629	1210.924	910.168
181.154	13.736	1209.382	909.516
182.169	13.714	1208.439	908.608
183.183	13.693	1207.714	907.869
184.198	13.839	1206.084	907.361
185.213	13.764	1204.934	906.004
186.227	13.815	1204.002	905.504
187.242	13.871	1202.950	904.934
188.256	13.895	1202.089	904.337
189.271	13.881	1201.143	903.469
190.286	13.834	1200.167	902.403
191.300	13.608	1199.672	900.721
192.315	13.618	1198.993	900.187
193.329	13.632	1198.516	899.825
194.344	13.653	1197.603	899.171
195.359	13.723	1196.959	898.992
196.373	13.784	1196.264	898.717
197.388	13.927	1196.014	899.225
198.402	13.852	1195.792	898.570
199.417	13.984	1194.651	898.349
200.432	13.971	1193.937	897.663
201.446	14.031	1193.007	897.210
202.461	14.044	1192.290	896.662
203.475	14.135	1191.280	896.309
204.490	14.090	1189.401	894.576
205.504	13.997	1188.496	893.317
206.519	14.031	1187.570	892.726
207.534	14.032	1186.167	891.596
208.548	14.006	1184.978	890.482
209.563	14.097	1184.512	890.543
210.577	14.075	1183.713	889.745
211.592	14.050	1182.588	888.686
212.607	14.171	1181.862	888.711
213.621	14.062	1181.559	887.819
214.636	14.207	1180.108	887.424
215.650	14.217	1178.765	886.391
216.665	14.123	1178.613	885.697
217.680	14.202	1177.478	885.184
218.694	14.298	1176.568	884.933
219.709	14.295	1175.660	884.158
220.723	14.254	1175.355	883.631
221.738	14.294	1174.449	883.084
222.753	14.294	1173.837	882.548
223.767	14.308	1173.311	882.146
224.782	14.376	1172.465	881.793
225.796	14.387	1171.891	881.338
226.811	14.473	1171.207	881.202
227.826	14.370	1170.379	879.958
228.840	14.249	1169.810	878.813
229.855	14.324	1168.991	878.517
230.869	14.276	1168.025	877.458
231.884	14.395	1167.400	877.536
232.899	14.396	1166.429	876.737
233.913	14.333	1165.758	875.824
234.928	14.330	1165.071	875.215
235.942	14.342	1164.408	874.703
236.957	14.366	1163.608	874.149
237.972	14.300	1162.809	873.124
238.986	14.369	1161.939	872.755
240.001	14.463	1161.270	872.670
241.015	14.474	1160.487	872.062
242.030	14.357	1159.835	870.883
243.045	14.442	1159.362	870.896
244.059	14.413	1158.513	870.028
245.074	14.521	1157.508	869.759
246.088	14.476	1156.618	868.777
247.103	14.600	1155.622	868.601
248.117	14.688	1154.881	868.422
249.132	14.700	1153.891	867.665
250.147	14.797	1153.600	867.873
251.161	14.812	1152.515	867.056
252.176	14.774	1152.015	866.410
253.190	14.777	1151.651	866.074
254.205	14.799	1151.166	865.748
255.220	14.954	1150.142	865.700
256.234	14.938	1149.892	865.353
257.249	14.846	1149.292	864.348
258.263	14.971	1148.614	864.411
259.278	14.892	1147.930	863.411
260.293	14.986	1147.247	863.302
261.307	14.989	1146.843	862.938
262.322	14.889	1146.800	862.317
263.336	15.052	1145.362	861.999
264.351	15.095	1144.624	861.588
265.366	15.024	1144.224	860.841
266.380	15.048	1143.403	860.271
267.395	15.096	1142.295	859.609
268.409	15.048	1141.610	858.773
269.424	15.042	1141.250	858.392
270.439	15.037	1140.946	858.063
271.453	15.024	1140.012	857.220
272.468	15.004	1139.203	856.431
273.482	15.025	1138.170	855.689
274.497	14.998	1137.667	855.098
275.512	15.235	1136.707	855.506
276.526	15.066	1136.294	854.260
277.541	15.049	1135.865	853.774
278.555	15.179	1135.041	853.744
279.570	15.177	1133.855	852.763
280.585	15.263	1133.356	852.754
281.599	15.249	1132.223	851.752
282.614	15.209	1131.301	850.778
283.628	15.211	1130.414	850.047
284.643	15.270	1129.591	849.651
285.657	15.190	1128.519	848.368
286.672	15.159	1128.291	847.965
287.687	15.357	1126.977	847.903
288.701	15.356	1126.168	847.212
289.716	15.270	1125.470	846.179
290.730	15.449	1124.417	846.217
291.745	15.412	1124.127	845.733
292.760	15.387	1123.593	845.132
293.774	15.466	1123.041	845.039
294.789	15.484	1122.282	844.487
295.803	15.509	1121.959	844.291
296.818	15.425	1121.188	843.214
297.833	15.430	1120.005	842.276
298.847	15.383	1119.432	841.538
299.862	15.427	1118.668	841.107
300.876	15.391	1118.337	840.605
301.891	15.451	1117.820	840.441
302.906	15.520	1116.490	839.711
303.920	15.644	1115.896	839.809
304.935	15.671	1115.285	839.413
305.949	15.649	1114.890	838.927
306.964	15.706	1113.833	838.346
307.979	15.687	1112.996	837.544
308.993	15.627	1112.339	836.680
310.008	15.727	1111.903	836.775
311.022	15.708	1110.848	835.813
312.037	15.761	1109.739	835.165
313.052	15.721	1109.010	834.343
314.066	15.634	1108.457	833.423
315.081	15.656	1107.361	832.634
316.095	15.565	1107.002	831.843
317.110	15.592	1106.236	831.326
318.125	15.767	1105.207	831.342
319.139	15.716	1104.726	830.654
320.154	15.683	1104.241	830.054
321.168	15.647	1103.849	829.508
322.183	15.662	1103.016	828.883
323.197	15.703	1102.178	828.385
324.212	15.735	1101.841	828.214
325.227	15.698	1101.532	827.724
326.241	15.836	1100.147	827.288
327.256	15.788	1099.887	826.785
328.270	15.778	1098.548	825.655
329.285	15.829	1097.215	824.832
330.300	15.923	1096.916	824.996
331.314	15.748	1096.190	823.520
332.329	15.811	1095.263	823.060
333.343	15.942	1094.136	822.778
334.358	15.860	1093.684	821.965
335.373	15.921	1092.601	821.374
336.387	15.986	1091.981	821.153
337.402	15.992	1091.209	820.531
338.416	16.039	1090.641	820.261
339.431	15.973	1090.507	819.763
340.446	16.104	1089.383	819.486
341.460	16.143	1088.855	819.207
342.475	16.170	1088.108	818.699
343.489	16.164	1086.827	817.636
344.504	16.132	1086.212	816.943
345.519	16.292	1085.168	816.860
346.533	16.268	1084.414	816.107
347.548	16.225	1083.943	815.469
348.562	16.303	1083.112	815.150
349.577	16.221	1082.306	814.079
350.592	16.213	1081.481	813.344
351.606	16.154	1080.888	812.542
352.621	16.160	1080.503	812.209
353.635	16.204	1079.785	811.809
354.650	16.185	1079.005	811.060
355.665	16.228	1078.275	810.645
356.679	16.204	1077.786	810.093
357.694	16.205	1077.065	809.485
358.708	16.269	1076.300	809.146
359.723	16.242	1075.652	808.454
360.738	16.407	1074.557	808.350
361.752	16.353	1074.318	807.841
362.767	16.381	1074.239	807.844
363.781	16.423	1073.543	807.452
364.796	16.531	1072.592	807.179
365.810	16.394	1072.682	806.519
366.825	16.511	1071.509	806.128
367.840	16.540	1071.337	806.065
368.854	16.587	1070.599	805.658
369.869	16.580	1069.566	804.778
370.883	16.601	1068.708	804.161
371.898	16.597	1068.023	803.558
372.913	16.538	1067.714	802.971
373.927	16.579	1066.872	802.462
374.942	16.636	1066.340	802.259
375.956	16.658	1066.143	802.147
376.971	16.628	1065.566	801.498
377.986	16.658	1064.853	801.035
379.000	16.728	1064.082	800.714
380.015	16.738	1063.814	800.487
381.029	16.809	1062.911	800.073
382.044	16.799	1062.381	799.558
383.059	16.790	1061.690	798.926
384.073	16.885	1060.949	798.745
385.088	16.810	1059.999	797.605
386.102	16.950	1058.784	797.278
387.117	16.980	1057.853	796.645
388.132	16.814	1056.695	794.928
389.146	16.735	1056.460	794.309
390.161	16.807	1055.712	794.011
391.175	16.838	1054.958	793.522
392.190	16.762	1054.427	792.696
393.205	16.878	1053.594	792.540
394.219	16.983	1052.279	791.971
395.234	16.924	1052.037	791.446
396.248	16.798	1051.033	790.032
397.263	16.817	1050.099	789.350
398.278	16.851	1049.148	788.721
399.292	16.910	1048.410	788.371
400.307	16.886	1048.069	787.933
401.321	16.966	1047.047	787.469
402.336	16.943	1046.602	786.956
403.350	16.918	1046.034	786.342
404.365	16.830	1045.309	785.323
405.380	16.919	1044.962	785.403
406.394	16.950	1043.643	784.484
407.409	17.109	1042.810	784.525
408.423	17.095	1042.328	784.029
409.438	17.084	1041.658	783.403
410.453	17.230	1041.013	783.522
411.467	17.246	1040.131	782.862
412.482	17.112	1040.060	782.125
413.496	17.223	1039.120	781.860
414.511	17.218	1038.484	781.286
415.526	17.343	1037.621	781.144
416.540	17.466	1037.109	781.253
417.555	17.339	1036.783	780.355
418.569	17.398	1036.688	780.487
419.584	17.332	1035.921	779.539
420.599	17.431	1035.312	779.463
421.613	103.154	1322.456	1468.975
422.628	94.521	1364.270	1469.085
