DTS Sentinel unit serial number:	SN413079Multiplexer serial number:	ORYXHardware model number:	OX4-SRSoftware version number:	ORYX F/W v4.00 Oryx Data Collector v3.7.2.0data status	okinstallation	princeton_trtdifferential loss correction	single-endedforward channel	channel 2reverse channel	N/Adate	2019/09/10time	19:37:10forward acquisition time	60.00reverse acquisition time	0.00gamma	496.2192k internal	0.2326k external	0.2326temperature offset calibration	0.9942default loss term (dB/km)	0.3790temperature slope calibration	1.0000multiplexer offset coefficient	1.0000multiplexer slope coefficient	1.0000fibre end	0.00T internal ref (°C)	33.25T ext. ref 1 (°C)	-0.37T ext. ref 2 (°C)	26.08length (m)	temperature (°C)	Stokes	anti-Stokes-747.200	132.289	-0.202	-0.263
-746.185	800.000	0.052	0.181
-745.171	171.332	0.080	0.115
-744.156	68.156	-0.123	0.127
-743.142	-37.799	-0.246	0.132
-742.127	10.922	0.136	-0.104
-741.112	-200.000	-0.041	-0.229
-740.098	106.155	0.048	0.057
-739.083	38.831	-0.152	0.137
-738.069	-15.537	-0.129	-0.083
-737.054	-56.792	0.229	-0.102
-736.039	-157.775	-0.093	0.006
-735.025	-19.870	0.133	-0.083
-734.010	23.651	0.121	0.101
-732.996	-13.188	-0.306	-0.200
-731.981	-200.000	-0.059	-0.260
-730.966	47.537	0.304	0.286
-729.952	-123.684	-0.214	0.034
-728.937	800.000	0.058	0.187
-727.923	115.294	0.212	0.262
-726.908	-200.000	0.048	0.274
-725.894	800.000	-0.072	0.266
-724.879	-53.484	-0.393	-0.181
-723.864	800.000	-0.026	0.087
-722.850	187.407	0.052	0.078
-721.835	101.425	-0.187	-0.219
-720.821	-111.549	0.291	-0.060
-719.806	-80.354	0.224	-0.075
-718.791	-200.000	-0.053	-0.233
-717.777	800.000	0.069	0.192
-716.762	69.699	0.231	-0.240
-715.748	-200.000	-0.023	-0.283
-714.733	-132.698	0.244	0.031
-713.718	800.000	0.036	-0.108
-712.704	151.874	-0.055	-0.076
-711.689	117.325	0.098	0.121
-710.675	24.100	0.045	-0.038
-709.660	505.971	-0.081	0.190
-708.645	-200.000	0.003	-0.261
-707.631	118.988	0.145	-0.180
-706.616	-60.809	0.130	0.055
-705.602	-63.586	-0.211	-0.087
-704.587	-200.000	0.020	-0.120
-703.572	-55.842	0.226	0.102
-702.558	-45.768	0.198	-0.098
-701.543	-200.000	0.015	-0.096
-700.529	-138.894	-0.465	0.051
-699.514	-200.000	0.026	-0.277
-698.499	227.995	0.125	-0.206
-697.485	800.000	-0.051	0.145
-696.470	-39.848	0.183	-0.096
-695.456	-200.000	-0.000	-0.202
-694.441	-29.070	0.116	-0.067
-693.426	-81.779	0.157	0.052
-692.412	415.149	-0.100	-0.214
-691.397	-3.520	0.215	-0.150
-690.383	0.788	0.354	0.255
-689.368	800.000	-0.056	0.195
-688.354	-56.061	-0.101	-0.045
-687.339	479.884	-0.105	0.240
-686.324	118.115	-0.158	0.196
-685.310	-200.000	-0.070	-0.334
-684.295	82.867	0.097	-0.106
-683.281	-10.312	-0.031	0.021
-682.266	-89.992	0.035	-0.010
-681.251	-200.000	-0.003	-0.279
-680.237	153.468	0.013	-0.018
-679.222	13.009	-0.104	-0.081
-678.208	-200.000	-0.001	-0.010
-677.193	-43.434	-0.229	0.116
-676.178	-200.000	-0.008	-0.094
-675.164	-15.107	-0.323	-0.208
-674.149	-52.920	0.179	-0.083
-673.135	182.454	-0.037	0.056
-672.120	190.792	-0.058	-0.088
-671.105	-154.502	-0.043	-0.003
-670.091	-200.000	-0.019	-0.171
-669.076	130.523	0.067	-0.087
-668.062	-50.809	0.085	0.040
-667.047	40.616	-0.196	-0.178
-666.032	-177.819	-0.227	0.005
-665.018	-99.166	-0.288	0.073
-664.003	-65.359	0.065	0.026
-662.989	-79.583	-0.362	0.123
-661.974	-111.996	-0.270	-0.055
-660.959	710.105	0.068	0.182
-659.945	-48.077	-0.531	-0.258
-658.930	15.346	0.154	-0.121
-657.916	-200.000	-0.044	-0.327
-656.901	-88.942	-0.109	-0.032
-655.886	165.601	0.052	0.074
-654.872	-89.294	0.204	0.060
-653.857	-200.000	0.051	0.316
-652.843	-73.488	-0.283	-0.104
-651.828	25.082	0.155	-0.129
-650.814	800.000	0.100	-0.350
-649.799	401.875	0.081	-0.170
-648.784	-187.670	-0.062	0.001
-647.770	-200.000	-0.026	-0.160
-646.755	-200.000	0.006	-0.299
-645.741	800.000	0.148	0.443
-644.726	-200.000	-0.015	-0.091
-643.711	-61.461	0.119	0.050
-642.697	-29.334	-0.049	0.028
-641.682	800.000	0.048	-0.150
-640.668	-104.313	-0.503	-0.117
-639.653	800.000	0.063	-0.222
-638.638	2.799	-0.118	0.086
-637.624	-125.312	-0.164	-0.025
-636.609	800.000	-0.043	-0.135
-635.595	-46.798	0.158	-0.078
-634.580	-113.221	-0.243	0.048
-633.565	-142.692	-0.080	-0.008
-632.551	800.000	-0.033	-0.140
-631.536	114.618	0.116	-0.143
-630.522	385.791	-0.114	-0.236
-629.507	363.989	-0.150	-0.303
-628.492	-200.000	0.001	-0.227
-627.478	288.889	-0.167	-0.304
-626.463	800.000	-0.036	0.108
-625.449	-172.406	-0.199	-0.006
-624.434	-200.000	0.015	-0.166
-623.419	586.990	-0.135	-0.334
-622.405	800.000	0.048	-0.145
-621.390	-53.809	-0.140	0.064
-620.376	64.399	0.081	0.081
-619.361	-200.000	-0.022	-0.219
-618.346	800.000	-0.071	-0.280
-617.332	-200.000	0.036	-0.192
-616.317	197.383	0.230	0.353
-615.303	800.000	0.041	-0.160
-614.288	-29.668	0.115	0.066
-613.273	107.640	0.223	0.267
-612.259	-162.224	-0.138	0.007
-611.244	-200.000	-0.022	0.264
-610.230	-200.000	-0.070	-0.335
-609.215	-200.000	-0.022	-0.206
-608.201	415.414	-0.154	-0.329
-607.186	800.000	-0.068	0.191
-606.171	-200.000	-0.016	0.172
-605.157	-110.993	-0.132	-0.027
-604.142	-18.861	0.188	-0.117
-603.128	721.798	0.206	0.551
-602.113	-120.646	-0.258	-0.044
-601.098	-144.815	-0.276	0.025
-600.084	4.819	-0.150	0.111
-599.069	26.177	-0.058	0.049
-598.055	186.063	-0.100	0.149
-597.040	-65.809	0.343	-0.138
-596.025	-25.155	0.320	0.190
-595.011	131.037	-0.136	0.175
-593.996	491.147	0.071	0.163
-592.982	-101.143	0.210	0.052
-591.967	-18.379	0.069	-0.044
-590.952	800.000	0.054	-0.193
-589.938	152.811	-0.070	0.096
-588.923	-110.847	0.269	0.056
-587.909	99.218	-0.207	0.239
-586.894	213.414	-0.323	-0.512
-585.879	-22.428	0.275	0.167
-584.865	15.040	-0.067	0.052
-583.850	-45.885	0.304	-0.150
-582.836	384.075	-0.047	-0.098
-581.821	800.000	-0.026	-0.097
-580.806	-116.309	-0.215	0.040
-579.792	36.344	0.029	-0.026
-578.777	-200.000	0.002	0.067
-577.763	-134.973	0.366	0.044
-576.748	70.596	0.060	-0.062
-575.733	94.142	-0.190	0.217
-574.719	-176.850	0.356	-0.009
-573.704	-51.847	0.225	0.105
-572.690	-162.609	-0.358	0.018
-571.675	55.253	0.275	-0.267
-570.661	-200.000	0.011	0.125
-569.646	-42.489	-0.170	-0.087
-568.631	-94.327	0.121	-0.033
-567.617	-29.919	0.190	0.108
-566.602	-56.469	-0.219	-0.097
-565.588	-91.292	-0.037	0.011
-564.573	-88.664	0.111	0.033
-563.558	-200.000	-0.016	-0.074
-562.544	33.272	-0.289	-0.252
-561.529	55.150	0.143	-0.139
-560.515	34.873	0.198	-0.173
-559.500	800.000	-0.040	0.148
-558.485	485.705	0.098	0.223
-557.471	-21.560	-0.145	-0.088
-556.456	-78.640	-0.118	-0.040
-555.442	-40.411	-0.269	-0.140
-554.427	800.000	-0.052	0.199
-553.412	-4.954	-0.113	0.078
-552.398	-200.000	0.008	-0.181
-551.383	-200.000	0.006	-0.438
-550.369	95.614	-0.193	0.221
-549.354	-177.050	-0.098	0.002
-548.339	800.000	0.093	0.284
-547.325	41.315	0.195	-0.177
-546.310	800.000	0.080	0.223
-545.296	-200.000	0.002	-0.057
-544.281	-43.590	-0.275	-0.139
-543.266	-106.215	0.387	0.087
-542.252	800.000	-0.048	0.136
-541.237	450.091	0.048	0.107
-540.223	-200.000	-0.029	0.326
-539.208	5.290	0.237	-0.175
-538.193	155.449	0.062	-0.085
-537.179	800.000	-0.105	-0.298
-536.164	-200.000	0.072	-0.328
-535.150	232.992	-0.103	0.169
-534.135	187.864	0.059	-0.089
-533.121	-200.000	0.013	-0.091
-532.106	290.111	0.048	0.087
-531.091	579.535	0.115	0.283
-530.077	-50.285	-0.213	-0.101
-529.062	262.963	0.076	-0.132
-528.048	-200.000	-0.002	-0.325
-527.033	259.931	0.101	-0.174
-526.018	-100.915	0.212	-0.052
-525.004	69.149	0.185	0.190
-523.989	-33.749	-0.296	-0.163
-522.975	248.174	-0.158	-0.267
-521.960	44.132	0.156	0.143
-520.945	-200.000	0.044	-0.303
-519.931	-77.602	-0.050	-0.017
-518.916	800.000	0.086	-0.255
-517.902	52.714	0.097	0.093
-516.887	7.561	0.089	0.067
-515.872	-18.246	0.329	-0.206
-514.858	13.938	-0.291	-0.226
-513.843	-200.000	0.023	-0.452
-512.829	-62.197	0.084	-0.035
-511.814	423.341	-0.060	0.128
-510.799	-145.120	-0.254	0.023
-509.785	303.531	-0.062	0.114
-508.770	143.956	-0.115	-0.154
-507.756	11.191	0.342	0.261
-506.741	492.733	-0.094	-0.216
-505.726	800.000	0.118	0.445
-504.712	200.025	-0.114	-0.175
-503.697	290.835	0.062	0.113
-502.683	800.000	0.060	0.182
-501.668	-131.983	0.211	0.027
-500.653	-159.439	-0.193	0.011
-499.639	-200.000	0.022	-0.155
-498.624	38.820	-0.165	-0.147
-497.610	800.000	0.124	0.375
-496.595	-200.000	0.057	0.364
-495.581	25.813	0.120	0.100
-494.566	800.000	0.138	0.411
-493.551	82.734	0.278	0.301
-492.537	-39.152	-0.236	-0.124
-491.522	-30.019	-0.118	0.067
-490.508	-200.000	0.011	-0.135
-489.493	124.977	-0.113	-0.143
-488.478	339.149	-0.081	0.157
-487.464	163.962	-0.163	0.230
-486.449	463.507	-0.075	-0.167
-485.435	-200.000	-0.011	0.068
-484.420	-122.558	0.280	0.045
-483.405	800.000	-0.133	-0.474
-482.391	44.612	0.164	0.150
-481.376	-200.000	-0.038	-0.169
-480.362	126.111	-0.199	-0.251
-479.347	-200.000	0.014	0.097
-478.332	-200.000	-0.048	0.250
-477.318	290.346	0.042	-0.077
-476.303	195.722	0.099	0.150
-475.289	-67.140	-0.136	-0.054
-474.274	-106.251	-0.468	-0.105
-473.259	-80.091	0.356	0.119
-472.245	-200.000	0.017	0.178
-471.230	-6.634	0.174	0.118
-470.216	25.802	-0.126	0.105
-469.201	89.251	0.189	-0.210
-468.186	-119.481	-0.190	-0.033
-467.172	-200.000	-0.001	0.197
-466.157	-200.000	-0.050	-0.338
-465.143	-40.073	0.199	-0.103
-464.128	-82.753	0.254	0.082
-463.113	-9.640	0.272	-0.181
-462.099	-114.998	0.251	0.048
-461.084	-200.000	-0.023	-0.130
-460.070	-47.490	-0.197	0.096
-459.055	-24.324	-0.104	0.062
-458.040	-200.000	-0.055	0.260
-457.026	220.663	-0.067	-0.108
-456.011	-169.119	0.382	0.014
-454.997	-66.150	-0.027	0.011
-453.982	-17.811	0.206	0.129
-452.968	-1.363	0.099	0.070
-451.953	-62.498	-0.356	-0.148
-450.938	-200.000	0.054	0.238
-449.924	-11.350	-0.205	0.135
-448.909	17.481	0.184	-0.145
-447.895	-0.230	-0.306	0.217
-446.880	444.419	0.078	0.170
-445.865	-200.000	0.041	-0.190
-444.851	232.227	-0.136	0.222
-443.836	-200.000	-0.013	-0.379
-442.822	-97.458	-0.151	0.039
-441.807	-200.000	0.005	0.029
-440.792	222.731	-0.137	-0.221
-439.778	-200.000	0.021	0.161
-438.763	-200.000	-0.004	-0.161
-437.749	-200.000	0.063	0.316
-436.734	-200.000	0.005	-0.031
-435.719	-68.261	-0.190	-0.073
-434.705	46.364	-0.208	-0.192
-433.690	-1.777	0.246	0.172
-432.676	89.215	-0.113	-0.126
-431.661	1.924	-0.069	-0.049
-430.646	35.469	-0.171	0.149
-429.632	-200.000	-0.002	-0.117
-428.617	206.147	0.137	0.212
-427.603	305.796	-0.047	0.087
-426.588	43.733	0.195	-0.178
-425.573	115.537	-0.240	0.292
-424.559	22.194	0.285	-0.231
-423.544	209.729	0.054	0.084
-422.530	-58.095	-0.085	0.037
-421.515	170.950	0.074	-0.106
-420.500	-77.193	-0.227	-0.079
-419.486	-131.840	0.231	-0.030
-418.471	319.801	-0.099	0.187
-417.457	800.000	0.042	-0.148
-416.442	31.184	0.109	0.093
-415.428	11.738	0.225	-0.172
-414.413	-200.000	-0.034	-0.222
-413.398	15.740	0.303	-0.237
-412.384	-19.917	-0.135	0.083
-411.369	-128.063	0.132	-0.019
-410.355	206.708	-0.054	0.083
-409.340	-44.213	-0.164	-0.082
-408.325	-200.000	-0.037	-0.216
-407.311	-65.263	-0.191	0.077
-406.296	79.862	-0.082	0.088
-405.282	78.216	0.219	0.233
-404.267	800.000	-0.041	0.116
-403.252	-115.031	-0.339	0.064
-402.238	666.972	0.030	-0.078
-401.223	157.700	-0.147	0.202
-400.209	-169.579	-0.254	-0.009
-399.194	800.000	0.054	0.178
-398.179	762.832	0.075	0.202
-397.165	-71.565	-0.190	-0.071
-396.150	-32.744	0.142	0.078
-395.136	-179.614	0.230	0.005
-394.121	-200.000	0.022	0.161
-393.106	-200.000	-0.037	0.328
-392.092	-0.580	0.141	0.099
-391.077	-63.824	0.155	0.063
-390.063	-200.000	-0.010	-0.148
-389.048	79.375	0.045	-0.048
-388.033	-54.123	-0.267	0.121
-387.019	-200.000	-0.044	0.278
-386.004	4.705	-0.127	-0.093
-384.990	-165.816	-0.147	0.006
-383.975	800.000	0.049	-0.169
-382.960	-92.229	0.321	-0.090
-381.946	-200.000	-0.032	-0.164
-380.931	800.000	-0.109	-0.447
-379.917	445.469	0.143	0.312
-378.902	-96.540	0.263	0.069
-377.888	578.612	-0.052	-0.126
-376.873	-114.540	0.202	-0.038
-375.858	83.846	-0.079	0.086
-374.844	-55.077	-0.166	0.074
-373.829	592.868	-0.205	-0.504
-372.815	-200.000	0.060	0.426
-371.800	114.569	-0.092	0.112
-370.785	276.655	-0.106	0.187
-369.771	203.559	0.251	0.386
-368.756	91.480	-0.112	0.125
-367.742	-86.704	-0.279	0.085
-366.727	90.039	0.213	0.237
-365.712	182.739	0.160	-0.235
-364.698	19.956	0.154	-0.124
-363.683	-135.595	0.206	-0.024
-362.669	-55.942	0.096	-0.043
-361.654	-200.000	0.077	-0.403
-360.639	69.966	0.047	-0.049
-359.625	550.424	-0.107	-0.254
-358.610	-200.000	-0.066	-0.292
-357.596	800.000	0.049	0.213
-356.581	-157.349	-0.105	-0.006
-355.566	-54.368	-0.128	0.058
-354.552	-200.000	-0.033	-0.298
-353.537	55.599	0.063	0.061
-352.523	-200.000	0.016	-0.152
-351.508	-149.696	-0.250	-0.020
-350.493	-113.678	-0.104	0.020
-349.479	57.606	0.321	-0.311
-348.464	31.987	0.354	0.303
-347.450	-200.000	0.012	0.104
-346.435	-63.557	-0.163	0.066
-345.420	248.225	-0.306	-0.514
-344.406	29.046	-0.073	0.062
-343.391	571.255	-0.105	0.253
-342.377	-200.000	0.000	0.262
-341.362	-132.533	-0.252	-0.032
-340.348	-200.000	-0.027	0.422
-339.333	-86.313	-0.067	-0.021
-338.318	-52.772	-0.054	-0.025
-337.304	58.862	-0.305	-0.298
-336.289	-45.248	0.015	0.007
-335.275	-70.732	-0.299	0.112
-334.260	-200.000	0.007	0.365
-333.245	-200.000	0.035	0.308
-332.231	27.246	-0.196	-0.163
-331.216	-84.757	0.130	-0.040
-330.202	172.732	0.067	0.096
-329.187	-105.327	-0.194	0.044
-328.172	-200.000	-0.085	0.371
-327.158	-83.821	-0.045	0.014
-326.143	-200.000	-0.009	0.251
-325.129	29.846	-0.123	0.104
-324.114	303.742	0.246	-0.452
-323.099	795.740	-0.020	0.053
-322.085	-107.904	-0.257	0.056
-321.070	147.834	0.100	0.133
-320.056	-200.000	0.000	-0.048
-319.041	-200.000	-0.009	-0.245
-318.026	-48.407	0.229	-0.109
-317.012	171.405	-0.244	0.348
-315.997	800.000	-0.042	0.148
-314.983	800.000	0.066	-0.205
-313.968	-7.515	-0.129	0.087
-312.953	92.152	-0.074	-0.082
-311.939	-74.541	0.253	0.090
-310.924	107.619	-0.144	0.170
-309.910	-145.509	-0.089	-0.008
-308.895	10.950	-0.186	0.141
-307.880	800.000	0.016	-0.058
-306.866	-10.970	0.207	-0.136
-305.851	140.514	0.157	-0.206
-304.837	-121.238	-0.204	-0.034
-303.822	129.558	-0.126	-0.159
-302.807	-200.000	0.042	0.305
-301.793	-36.457	0.144	-0.077
-300.778	47.436	0.180	-0.166
-299.764	52.441	0.110	0.104
-298.749	342.637	-0.058	-0.113
-297.735	80.214	0.219	0.234
-296.720	800.000	-0.046	-0.159
-295.705	322.518	0.098	-0.186
-294.691	-72.544	-0.509	-0.186
-293.676	69.462	0.205	-0.209
-292.662	200.298	0.167	-0.254
-291.647	-200.000	0.055	-0.319
-290.632	-1.579	0.130	0.091
-289.618	-12.526	-0.183	-0.118
-288.603	624.045	-0.117	0.291
-287.589	702.708	0.098	0.256
-286.574	-22.775	-0.325	-0.195
-285.559	-200.000	0.015	0.170
-284.545	-44.655	0.073	0.036
-283.530	-200.000	-0.039	0.223
-282.516	401.617	0.097	0.202
-281.501	784.506	-0.093	0.251
-280.486	-66.737	0.127	-0.050
-279.472	-75.008	-0.546	-0.194
-278.457	81.150	0.270	-0.289
-277.443	-63.496	0.264	0.107
-276.428	-93.035	-0.345	-0.095
-275.413	175.464	-0.052	0.075
-274.399	752.515	0.012	-0.031
-273.384	-77.608	0.174	-0.060
-272.370	-40.373	-0.163	0.084
-271.355	27.744	0.332	-0.277
-270.340	800.000	0.047	-0.153
-269.326	-3.871	-0.151	-0.104
-268.311	148.666	-0.199	-0.266
-267.297	74.357	0.100	0.104
-266.282	-74.208	0.244	0.087
-265.267	800.000	0.047	-0.139
-264.253	40.451	0.183	-0.163
-263.238	-110.614	-0.197	-0.040
-262.224	277.364	-0.037	0.066
-261.209	-39.384	0.475	-0.247
-260.195	232.180	0.100	-0.162
-259.180	-18.429	-0.223	0.138
-258.165	-200.000	-0.013	-0.109
-257.151	-200.000	0.041	-0.196
-256.136	-200.000	0.010	-0.126
-255.122	187.241	-0.260	-0.384
-254.107	800.000	-0.028	-0.115
-253.092	800.000	-0.021	0.067
-252.078	800.000	-0.107	0.347
-251.063	-200.000	-0.036	0.268
-250.049	66.698	-0.162	-0.163
-249.034	5.254	0.181	-0.132
-248.019	-117.991	0.312	-0.055
-247.005	-200.000	-0.070	-0.346
-245.990	-74.299	0.281	0.101
-244.976	694.018	-0.159	0.414
-243.961	184.996	-0.145	0.213
-242.946	-43.624	-0.217	0.108
-241.932	-175.082	0.021	-0.001
-240.917	1.535	-0.235	-0.167
-239.903	-89.024	0.463	0.136
-238.888	-200.000	-0.065	-0.568
-237.873	339.157	0.070	0.134
-236.859	-120.296	0.073	0.012
-235.844	497.366	-0.083	0.188
-234.830	158.013	0.183	-0.251
-233.815	9.105	0.159	-0.119
-232.800	-200.000	0.045	-0.301
-231.786	-200.000	-0.024	-0.242
-230.771	-107.934	-0.165	0.036
-229.757	414.980	0.099	0.208
-228.742	695.908	-0.075	0.194
-227.727	800.000	0.085	0.237
-226.713	-200.000	0.000	0.013
-225.698	0.221	0.084	-0.059
-224.684	68.961	-0.106	0.108
-223.669	-53.922	-0.283	0.127
-222.655	-34.410	0.240	-0.130
-221.640	31.871	-0.143	0.122
-220.625	-200.000	-0.051	0.309
-219.611	-9.854	-0.100	0.066
-218.596	-149.132	-0.096	0.008
-217.582	-200.000	0.068	0.362
-216.567	450.626	0.050	0.110
-215.552	-111.723	-0.101	0.020
-214.538	-56.144	0.305	-0.134
-213.523	-77.607	0.061	0.021
-212.509	92.400	0.100	0.112
-211.494	27.907	0.262	0.218
-210.479	290.818	0.070	-0.126
-209.465	800.000	-0.017	-0.047
-208.450	-200.000	0.069	-0.344
-207.436	-52.165	0.127	-0.058
-206.421	-200.000	0.015	0.180
-205.406	0.317	0.111	0.078
-204.392	-49.583	-0.091	0.043
-203.377	-21.640	0.430	0.259
-202.363	-200.000	0.017	0.439
-201.348	52.349	-0.112	0.105
-200.333	293.807	-0.063	-0.114
-199.319	-119.479	-0.249	0.043
-198.304	800.000	-0.107	0.294
-197.290	-17.369	-0.134	-0.083
-196.275	32.889	-0.200	-0.171
-195.260	-136.903	0.263	0.030
-194.246	-190.452	-0.103	-0.001
-193.231	-200.000	0.032	-0.391
-192.217	137.373	0.150	0.193
-191.202	540.894	0.108	0.255
-190.187	104.805	0.257	0.299
-189.173	-16.098	0.079	-0.050
-188.158	800.000	-0.056	-0.192
-187.144	-48.164	0.364	-0.173
-186.129	-110.010	-0.101	0.021
-185.114	59.926	-0.139	0.135
-184.100	71.283	0.263	-0.269
-183.085	209.745	-0.095	-0.147
-182.071	407.102	-0.018	0.038
-181.056	-30.195	0.150	0.084
-180.042	-179.361	0.221	0.005
-179.027	-100.809	-0.155	-0.038
-178.012	524.110	-0.092	-0.213
-176.998	-19.284	0.299	-0.183
-175.983	-147.055	-0.320	-0.027
-174.969	800.000	0.105	0.353
-173.954	192.096	0.085	0.127
-172.939	-88.755	-0.242	0.071
-171.925	599.642	0.181	0.443
-170.910	109.055	-0.148	0.175
-169.896	-53.694	0.223	0.101
-168.881	202.002	-0.225	0.343
-167.866	252.935	-0.156	-0.263
-166.852	325.297	0.052	0.099
-165.837	-105.263	-0.355	0.080
-164.823	31.282	0.187	-0.158
-163.808	256.345	-0.140	0.237
-162.793	797.284	0.115	-0.312
-161.779	31.167	-0.289	0.244
-160.764	585.615	-0.136	0.330
-159.750	-68.728	-0.039	-0.015
-158.735	-96.661	0.175	-0.046
-157.720	-89.392	0.280	0.081
-156.706	-200.000	0.012	0.141
-155.691	-74.571	0.138	0.049
-154.677	-38.327	-0.113	0.059
-153.662	25.223	-0.217	-0.178
-152.647	274.048	0.062	0.107
-151.633	121.936	0.076	0.093
-150.618	446.277	-0.038	0.082
-149.604	-200.000	-0.014	-0.203
-148.589	-200.000	0.056	-0.265
-147.574	-200.000	-0.023	-0.219
-146.560	-200.000	0.034	-0.189
-145.545	-181.377	0.257	0.005
-144.531	800.000	0.091	0.353
-143.516	278.188	0.118	0.207
-142.502	5.930	-0.153	0.111
-141.487	-200.000	-0.017	0.097
-140.472	505.325	-0.198	0.451
-139.458	800.000	0.092	0.293
-138.443	-89.874	-0.184	0.053
-137.429	-26.415	0.185	0.107
-136.414	-138.720	0.098	0.011
-135.399	-68.904	0.236	0.090
-134.385	-39.243	0.248	-0.128
-133.370	-84.092	-0.101	-0.032
-132.356	-200.000	0.017	0.108
-131.341	-48.057	0.232	0.111
-130.326	56.832	0.160	0.153
-129.312	198.402	0.113	-0.171
-128.297	800.000	0.063	0.229
-127.283	-7.998	-0.102	-0.068
-126.268	353.770	-0.297	0.581
-125.253	354.182	0.125	0.245
-124.239	-35.693	0.207	0.110
-123.224	23.060	0.145	0.117
-122.210	800.000	-0.053	-0.173
-121.195	590.480	-0.134	-0.324
-120.180	800.000	0.117	0.392
-119.166	197.293	0.060	-0.091
-118.151	80.584	0.473	0.502
-117.137	68.819	0.298	-0.301
-116.122	501.455	0.024	-0.055
-115.107	-158.156	-0.557	-0.032
-114.093	164.969	0.179	-0.248
-113.078	26.029	0.200	-0.165
-112.064	36.205	-0.108	0.093
-111.049	69.749	0.105	-0.106
-110.034	-138.276	0.165	-0.018
-109.020	77.687	0.053	0.055
-108.005	410.565	0.083	-0.174
-106.991	521.883	0.032	-0.075
-105.976	137.010	-0.065	0.084
-104.962	800.000	0.077	0.242
-103.947	-148.278	0.298	0.024
-102.932	-77.332	-0.063	-0.021
-101.918	-200.000	0.034	0.218
-100.903	276.148	0.159	0.277
-99.889	29.097	0.098	-0.082
-98.874	-71.991	-0.144	0.053
-97.859	-136.782	0.255	-0.029
-96.845	-109.657	-0.200	0.041
-95.830	452.725	-0.083	-0.180
-94.816	-107.666	0.100	0.022
-93.801	43.725	-0.118	-0.106
-92.786	90.042	0.117	-0.129
-91.772	35.981	0.063	-0.055
-90.757	-95.486	0.279	0.073
-89.743	-200.000	-0.017	-0.175
-88.728	-11.186	-0.057	-0.037
-87.713	79.124	-0.140	-0.148
-86.699	800.000	0.059	-0.213
-85.684	-200.000	0.042	-0.334
-84.670	-131.338	-0.403	-0.052
-83.655	-32.413	0.114	0.062
-82.640	-106.044	0.234	-0.052
-81.626	244.017	-0.089	0.147
-80.611	22.054	-0.239	0.191
-79.597	-112.955	0.329	-0.064
-78.582	37.077	0.236	0.205
-77.567	-200.000	-0.004	0.151
-76.553	389.290	-0.193	-0.393
-75.538	178.226	0.140	-0.201
-74.524	-200.000	-0.053	0.247
-73.509	-200.000	0.013	0.069
-72.494	-128.397	-0.073	0.010
-71.480	168.643	0.027	-0.038
-70.465	225.542	-0.140	0.223
-69.451	800.000	0.094	-0.268
-68.436	-36.825	0.083	-0.044
-67.422	8.914	0.134	0.099
-66.407	9.242	0.165	0.122
-65.392	-23.712	-0.070	-0.041
-64.378	391.476	0.238	0.485
-63.363	-183.536	-0.140	-0.002
-62.349	-32.800	-0.377	0.206
-61.334	75.009	-1.025	-1.061
-60.319	451.773	0.275	0.597
-59.305	-200.000	-0.086	-0.780
-58.290	146.563	0.705	0.930
-57.276	662.782	0.515	1.304
-56.261	-200.000	101.627	618.534
-55.246	600.882	1437.563	3505.232
-54.232	183.033	2650.119	3841.428
-53.217	110.814	2299.855	2716.785
-52.203	42.535	1912.627	1708.342
-51.188	36.573	1702.720	1475.467
-50.173	33.778	1658.768	1416.502
-49.159	50.761	1708.516	1587.991
-48.144	52.594	1725.328	1617.432
-47.130	36.106	1682.050	1453.798
-46.115	33.301	1667.333	1420.016
-45.100	33.179	1661.850	1414.372
-44.086	33.145	1659.726	1412.256
-43.071	33.085	1657.067	1409.489
-42.057	32.999	1654.550	1406.650
-41.042	33.060	1652.341	1405.177
-40.027	33.115	1650.218	1403.720
-39.013	33.130	1648.539	1402.348
-37.998	33.064	1647.275	1400.727
-36.984	33.086	1645.685	1399.482
-35.969	33.278	1643.787	1399.234
-34.954	33.328	1642.418	1398.383
-33.940	33.229	1640.885	1396.294
-32.925	33.313	1638.283	1394.644
-31.911	33.232	1637.251	1393.112
-30.896	33.194	1635.312	1391.127
-29.881	33.206	1633.925	1389.981
-28.867	33.229	1631.852	1388.328
-27.852	33.069	1630.474	1385.930
-26.838	33.279	1628.319	1385.581
-25.823	33.266	1627.375	1384.628
-24.809	33.359	1625.737	1383.855
-23.794	33.289	1624.323	1382.090
-22.779	33.339	1622.372	1380.737
-21.765	33.304	1621.118	1379.360
-20.750	33.231	1619.932	1377.762
-19.736	33.204	1618.308	1376.129
-18.721	33.248	1616.757	1375.077
-17.706	33.209	1615.548	1373.715
-16.692	33.275	1613.687	1372.558
-15.677	33.343	1612.320	1371.829
-14.663	33.291	1610.899	1370.190
-13.648	33.221	1609.938	1368.811
-12.633	33.317	1607.866	1367.691
-11.619	33.346	1606.234	1366.454
-10.604	33.321	1604.963	1365.141
-9.590	33.285	1603.629	1363.696
-8.575	33.327	1602.159	1362.691
-7.560	33.374	1600.978	1361.973
-6.546	33.274	1600.017	1360.381
-5.531	33.295	1599.221	1359.803
-4.517	33.269	1597.898	1358.433
-3.502	33.270	1596.906	1357.543
-2.487	33.378	1595.169	1356.785
-1.473	32.898	1582.654	1342.674
-0.458	29.732	1562.624	1303.353
0.556	23.413	1561.413	1266.869
1.571	20.853	1584.508	1266.899
2.586	20.360	1598.156	1274.081
3.600	18.478	1546.747	1219.607
4.615	10.011	1435.459	1075.615
5.629	1.469	1368.391	970.878
6.644	-0.243	1359.591	953.681
7.659	-0.402	1358.152	951.574
8.673	-0.368	1356.905	950.834
9.688	-0.447	1355.235	949.081
10.702	-0.615	1352.426	945.970
11.717	2.888	1359.078	972.754
12.731	12.073	1377.274	1044.435
13.746	18.427	1387.249	1092.554
14.761	19.064	1387.611	1096.801
15.775	19.177	1386.895	1096.860
16.790	19.189	1385.870	1096.027
17.804	19.193	1385.744	1095.858
18.819	19.388	1385.617	1096.903
19.834	19.520	1384.722	1096.931
20.848	19.477	1383.947	1095.950
21.863	19.510	1383.149	1095.427
22.877	19.479	1382.046	1094.264
23.892	19.468	1381.172	1093.404
24.907	19.555	1379.824	1092.793
25.921	19.586	1379.381	1092.541
26.936	19.482	1378.478	1091.067
27.950	19.483	1377.706	1090.369
28.965	19.525	1376.323	1089.445
29.980	19.533	1374.738	1088.141
30.994	19.569	1373.368	1087.188
32.009	19.553	1372.201	1086.070
33.023	19.503	1371.337	1084.974
34.038	19.535	1370.452	1084.381
35.053	19.543	1369.338	1083.454
36.067	19.565	1367.469	1082.014
37.082	19.470	1367.123	1081.048
38.096	19.675	1366.099	1081.429
39.111	19.470	1365.485	1079.561
40.126	19.506	1364.528	1078.937
41.140	19.461	1364.605	1078.620
42.155	19.549	1363.724	1078.381
43.169	19.582	1363.761	1078.516
44.184	19.542	1363.475	1077.949
45.199	19.449	1363.300	1077.135
46.213	19.488	1362.482	1076.636
47.228	19.529	1361.474	1075.998
48.242	19.471	1360.089	1074.449
49.257	19.564	1358.700	1073.836
50.271	19.522	1357.258	1072.336
51.286	19.463	1355.903	1070.807
52.301	19.489	1354.708	1069.928
53.315	19.457	1354.189	1069.223
54.330	19.430	1353.423	1068.357
55.344	19.479	1352.011	1067.454
56.359	19.528	1350.766	1066.680
57.374	19.492	1349.940	1065.709
58.388	19.503	1349.818	1065.589
59.403	19.515	1349.333	1065.185
60.417	19.544	1347.917	1064.153
61.432	19.417	1347.851	1063.224
62.447	19.494	1346.649	1062.653
63.461	19.449	1345.397	1061.292
64.476	19.557	1344.440	1061.108
65.490	19.496	1343.197	1059.661
66.505	19.545	1341.516	1058.541
67.520	19.618	1340.050	1057.736
68.534	19.527	1339.376	1056.553
69.549	19.626	1337.778	1055.804
70.563	19.554	1337.368	1054.948
71.578	19.621	1335.752	1053.989
72.593	19.550	1335.093	1052.945
73.607	19.581	1334.460	1052.541
74.622	19.557	1334.091	1052.009
75.636	19.490	1332.958	1050.613
76.651	19.631	1332.428	1050.965
77.666	19.433	1332.161	1049.457
78.680	19.555	1331.364	1049.473
79.695	19.566	1330.120	1048.468
80.709	19.575	1329.325	1047.801
81.724	19.529	1328.853	1047.063
82.739	19.607	1327.416	1046.309
83.753	19.480	1327.137	1045.228
84.768	19.512	1325.818	1044.290
85.782	19.517	1324.479	1043.171
86.797	19.526	1323.231	1042.150
87.812	19.587	1322.176	1041.593
88.826	19.586	1321.062	1040.618
89.841	19.526	1320.589	1039.791
90.855	19.626	1318.657	1038.782
91.870	19.549	1318.408	1038.031
92.884	19.631	1317.486	1037.707
93.899	19.593	1316.593	1036.683
94.914	19.557	1315.630	1035.614
95.928	19.718	1314.883	1035.901
96.943	19.713	1313.791	1034.921
97.957	19.670	1313.169	1034.082
98.972	19.645	1312.033	1032.943
99.987	19.594	1311.276	1031.954
101.001	19.570	1310.199	1030.874
102.016	19.597	1309.233	1030.180
103.030	19.509	1308.542	1029.022
104.045	19.621	1307.081	1028.449
105.060	19.603	1306.505	1027.795
106.074	19.621	1305.284	1026.853
107.089	19.646	1304.089	1025.972
108.103	19.710	1302.669	1025.139
109.118	19.657	1301.386	1023.726
110.133	19.634	1300.202	1022.568
111.147	19.707	1298.877	1021.868
112.162	19.731	1297.795	1021.067
113.176	19.732	1296.531	1019.989
114.191	19.647	1295.771	1018.798
115.206	19.748	1295.009	1018.705
116.220	19.681	1293.799	1017.273
117.235	19.622	1292.947	1016.163
118.249	19.724	1291.752	1015.735
119.264	19.651	1290.628	1014.330
120.279	19.652	1290.387	1014.058
121.293	19.752	1289.027	1013.489
122.308	19.741	1288.409	1012.845
123.322	19.668	1286.837	1011.093
124.337	19.644	1286.368	1010.493
125.352	19.709	1285.245	1009.904
126.366	19.704	1284.302	1009.043
127.381	19.857	1282.976	1008.804
128.395	19.710	1282.252	1007.292
129.410	19.742	1281.254	1006.600
130.424	19.764	1280.317	1005.903
131.439	19.786	1279.471	1005.278
132.454	19.654	1279.005	1004.060
133.468	19.699	1277.911	1003.370
134.483	19.752	1277.145	1002.987
135.497	19.727	1276.749	1002.445
136.512	19.699	1275.427	1001.155
137.527	19.802	1273.787	1000.373
138.541	19.756	1272.109	998.706
139.556	19.730	1271.026	997.612
140.570	19.765	1270.096	996.999
141.585	19.677	1268.584	995.214
142.600	19.752	1267.314	994.562
143.614	19.797	1266.686	994.238
144.629	19.625	1266.058	992.673
145.643	19.684	1264.472	991.676
146.658	19.657	1263.427	990.614
147.673	19.591	1262.849	989.699
148.687	19.683	1261.871	989.373
149.702	19.587	1260.501	987.658
150.716	19.722	1258.762	986.983
151.731	19.739	1258.284	986.614
152.746	19.705	1257.341	985.597
153.760	19.727	1256.265	984.792
154.775	19.744	1255.049	983.848
155.789	19.694	1254.075	982.709
156.804	19.711	1253.293	982.110
157.819	19.725	1252.174	981.223
158.833	19.771	1251.236	980.662
159.848	19.773	1250.377	979.914
160.862	19.759	1249.529	979.081
161.877	19.809	1248.571	978.529
162.892	19.780	1247.625	977.537
163.906	19.864	1246.984	977.422
164.921	19.738	1246.390	976.161
165.935	19.817	1245.644	975.937
166.950	19.913	1244.977	975.867
167.964	19.923	1244.097	975.145
168.979	19.773	1243.980	974.126
169.994	19.821	1243.105	973.622
171.008	19.867	1242.113	973.017
172.023	19.882	1241.610	972.623
173.037	19.901	1240.677	971.912
174.052	19.948	1239.915	971.493
175.067	19.916	1239.113	970.602
176.081	19.775	1238.585	969.308
177.096	19.843	1237.771	968.967
178.110	19.959	1236.714	968.704
179.125	19.935	1235.615	967.624
180.140	19.831	1234.707	966.248
181.154	19.773	1233.620	964.985
182.169	19.863	1232.573	964.584
183.183	19.907	1231.277	963.730
184.198	19.840	1230.677	962.799
185.213	19.938	1229.598	962.419
186.227	19.929	1228.583	961.488
187.242	19.935	1227.805	960.825
188.256	19.899	1226.977	959.895
189.271	19.969	1226.055	959.477
190.286	19.864	1225.613	958.460
191.300	19.887	1224.848	957.905
192.315	19.900	1224.041	957.265
193.329	19.851	1223.821	956.736
194.344	19.989	1223.366	957.056
195.359	20.014	1222.518	956.446
196.373	19.893	1222.073	955.348
197.388	19.838	1221.602	954.592
198.402	19.883	1221.384	954.581
199.417	19.830	1220.769	953.726
200.432	19.894	1219.937	953.345
201.446	19.974	1218.939	952.921
202.461	19.962	1218.410	952.358
203.475	19.891	1217.817	951.419
204.490	19.882	1216.704	950.416
205.504	19.947	1215.555	949.791
206.519	19.949	1215.307	949.527
207.534	20.036	1214.209	949.057
208.548	19.978	1212.758	947.526
209.563	19.931	1212.290	946.818
210.577	20.002	1211.491	946.499
211.592	19.951	1210.833	945.619
212.607	20.050	1210.246	945.620
213.621	20.060	1209.279	944.837
214.636	20.047	1208.382	943.978
215.650	20.053	1207.209	943.014
216.665	20.072	1206.146	942.199
217.680	20.011	1205.695	941.432
218.694	19.982	1204.867	940.545
219.709	20.099	1203.902	940.346
220.723	20.020	1203.262	939.331
221.738	20.102	1202.661	939.228
222.753	20.018	1202.059	938.216
223.767	20.118	1201.315	938.097
224.782	20.080	1200.783	937.389
225.796	20.067	1200.173	936.764
226.811	20.071	1199.795	936.404
227.826	20.038	1199.334	935.783
228.840	20.131	1198.230	935.343
229.855	20.039	1197.734	934.379
230.869	20.170	1196.957	934.395
231.884	20.162	1196.148	933.634
232.899	20.202	1195.591	933.335
233.913	20.188	1194.862	932.607
234.928	20.304	1194.258	932.676
235.942	20.155	1193.993	931.584
236.957	20.334	1193.023	931.707
237.972	20.245	1192.318	930.599
238.986	20.172	1191.364	929.378
240.001	20.253	1191.237	929.634
241.015	20.299	1190.202	928.988
242.030	20.316	1189.439	928.403
243.045	20.313	1189.023	927.977
244.059	20.275	1188.240	927.081
245.074	20.291	1187.184	926.260
246.088	20.314	1186.656	925.890
247.103	20.282	1185.479	924.719
248.117	20.238	1184.635	923.746
249.132	20.266	1184.579	923.766
250.147	20.397	1183.390	923.457
251.161	20.314	1182.876	922.533
252.176	20.444	1181.663	922.198
253.190	20.484	1181.564	922.247
254.205	20.313	1181.037	920.851
255.220	20.387	1180.037	920.377
256.234	20.324	1179.678	919.686
257.249	20.369	1179.180	919.453
258.263	20.361	1178.652	918.919
259.278	20.446	1177.882	918.688
260.293	20.435	1177.639	918.359
261.307	20.471	1176.962	917.938
262.322	20.351	1176.100	916.549
263.336	20.439	1175.362	916.358
264.351	20.449	1175.063	916.096
265.366	20.322	1174.656	915.027
266.380	20.485	1173.688	915.054
267.395	20.527	1172.935	914.607
268.409	20.375	1172.576	913.443
269.424	20.473	1171.844	913.312
270.439	20.544	1171.014	912.955
271.453	20.584	1170.269	912.505
272.468	20.548	1169.375	911.536
273.482	20.404	1169.295	910.636
274.497	20.515	1168.903	910.836
275.512	20.570	1168.036	910.364
276.526	20.542	1167.411	909.652
277.541	20.422	1167.121	908.719
278.555	20.477	1166.177	908.190
279.570	20.654	1164.830	907.984
280.585	20.523	1164.513	906.973
281.599	20.584	1163.826	906.676
282.614	20.526	1162.915	905.586
283.628	20.585	1162.179	905.239
284.643	20.611	1161.324	904.626
285.657	20.564	1160.120	903.366
286.672	20.512	1159.264	902.350
287.687	20.654	1158.746	902.603
288.701	20.644	1158.473	902.257
289.716	20.767	1156.966	901.643
290.730	20.688	1156.349	900.671
291.745	20.797	1155.696	900.647
292.760	20.701	1155.274	899.743
293.774	20.651	1155.074	899.247
294.789	20.747	1154.548	899.254
295.803	20.679	1153.701	898.162
296.818	20.839	1152.915	898.297
297.833	20.806	1152.151	897.453
298.847	20.699	1151.601	896.397
299.862	20.688	1150.923	895.730
300.876	20.695	1150.418	895.297
301.891	20.796	1149.861	895.304
302.906	20.722	1148.918	894.109
303.920	20.830	1148.283	894.087
304.935	20.782	1147.756	893.354
305.949	20.851	1146.916	892.975
306.964	20.835	1146.354	892.375
307.979	20.866	1145.596	891.868
308.993	20.961	1145.032	891.832
310.008	20.876	1144.237	890.701
311.022	20.936	1143.030	889.989
312.037	20.921	1142.524	889.438
313.052	20.867	1141.820	888.538
314.066	20.854	1140.958	887.724
315.081	20.844	1140.464	887.209
316.095	20.851	1139.805	886.655
317.110	20.921	1138.992	886.299
318.125	20.905	1138.315	885.608
319.139	20.942	1137.694	885.237
320.154	20.978	1136.990	884.791
321.168	20.950	1136.589	884.262
322.183	20.890	1136.290	883.647
323.197	20.846	1135.517	882.746
324.212	20.902	1135.047	882.586
325.227	20.943	1134.411	882.218
326.241	21.017	1133.816	882.051
327.256	20.899	1133.175	880.880
328.270	20.889	1132.226	880.015
329.285	20.912	1131.409	879.418
330.300	20.943	1131.115	879.265
331.314	21.009	1129.811	878.509
332.329	21.060	1128.842	877.931
333.343	21.030	1127.944	877.005
334.358	21.093	1127.107	876.594
335.373	21.154	1126.378	876.255
336.387	21.144	1125.571	875.500
337.402	21.093	1124.982	874.709
338.416	21.229	1124.131	874.653
339.431	21.116	1124.087	873.973
340.446	21.125	1123.949	873.834
341.460	21.163	1122.774	873.032
342.475	21.237	1121.568	872.386
343.489	21.115	1121.026	871.282
344.504	21.257	1120.173	871.247
345.519	21.231	1119.395	870.435
346.533	21.205	1118.787	869.756
347.548	21.254	1117.640	869.035
348.562	21.264	1117.050	868.548
349.577	21.233	1116.264	867.705
350.592	21.151	1115.733	866.810
351.606	21.201	1115.429	866.743
352.621	21.342	1114.481	866.627
353.635	21.287	1114.171	866.037
354.650	21.281	1113.241	865.211
355.665	21.338	1112.888	865.143
356.679	21.283	1112.040	864.133
357.694	21.268	1111.756	863.762
358.708	21.343	1110.783	863.301
359.723	21.168	1110.645	862.254
360.738	21.299	1109.649	862.048
361.752	21.356	1108.835	861.621
362.767	21.409	1108.189	861.306
363.781	21.414	1107.641	860.826
364.796	21.341	1107.253	860.089
365.810	21.426	1106.747	860.038
366.825	21.431	1105.998	859.404
367.840	21.484	1105.451	859.164
368.854	21.565	1104.844	859.013
369.869	21.465	1104.121	857.884
370.883	21.517	1103.377	857.489
371.898	21.489	1102.542	856.623
372.913	21.515	1101.927	856.199
373.927	21.510	1101.719	855.938
374.942	21.574	1101.254	855.813
375.956	21.482	1100.788	854.924
376.971	21.542	1100.018	854.542
377.986	21.548	1099.721	854.266
379.000	21.622	1098.923	853.930
380.015	21.611	1098.515	853.485
381.029	21.673	1097.796	853.152
382.044	21.531	1097.416	852.090
383.059	21.471	1097.059	851.449
384.073	21.712	1095.821	851.580
385.088	21.671	1094.941	850.622
386.102	21.570	1094.389	849.631
387.117	21.595	1093.401	848.907
388.132	21.614	1092.566	848.278
389.146	21.668	1091.333	847.507
390.161	21.587	1091.341	847.047
391.175	21.632	1090.025	846.167
392.190	21.653	1089.726	845.963
393.205	21.621	1089.096	845.245
394.219	21.638	1088.515	844.799
395.234	21.703	1087.469	844.223
396.248	21.755	1086.696	843.799
397.263	21.875	1085.803	843.612
398.278	21.756	1085.305	842.577
399.292	21.853	1084.633	842.446
400.307	21.734	1083.809	841.160
401.321	21.780	1083.233	840.861
402.336	21.761	1082.604	840.204
403.350	21.793	1081.997	839.814
404.365	21.783	1081.561	839.352
405.380	21.965	1080.483	839.313
406.394	21.886	1079.571	838.154
407.409	21.909	1079.049	837.785
408.423	22.008	1078.214	837.534
409.438	21.982	1077.613	836.869
410.453	22.015	1076.816	836.333
411.467	22.004	1076.587	836.030
412.482	21.837	1076.141	834.813
413.496	21.911	1075.299	834.440
414.511	21.944	1074.349	833.786
415.526	21.947	1073.920	833.391
416.540	22.013	1073.588	833.371
417.555	21.975	1072.978	832.643
418.569	22.055	1072.360	832.469
419.584	22.134	1071.779	832.323
420.599	22.114	1071.545	831.970
421.613	148.367	1397.386	1794.684
422.628	136.786	1444.844	1794.775
