DTS Sentinel unit serial number:	SN413079Multiplexer serial number:	ORYXHardware model number:	OX4-SRSoftware version number:	ORYX F/W v4.00 Oryx Data Collector v3.7.2.0data status	okinstallation	princeton_trtdifferential loss correction	single-endedforward channel	channel 2reverse channel	N/Adate	2019/09/13time	06:15:34forward acquisition time	60.00reverse acquisition time	0.00gamma	496.2192k internal	0.2338k external	0.2338temperature offset calibration	1.0192default loss term (dB/km)	0.3790temperature slope calibration	1.0000multiplexer offset coefficient	1.0000multiplexer slope coefficient	1.0000fibre end	0.00T internal ref (°C)	26.12T ext. ref 1 (°C)	4.08T ext. ref 2 (°C)	20.86length (m)	temperature (°C)	Stokes	anti-Stokes-747.200	-146.259	0.249	-0.022
-746.185	462.235	-0.032	0.071
-745.171	-165.319	0.175	-0.008
-744.156	-70.691	-0.211	-0.080
-743.142	31.361	0.175	-0.151
-742.127	144.865	0.042	0.056
-741.112	332.609	-0.200	-0.387
-740.098	-138.183	-0.269	-0.030
-739.083	-74.047	0.282	-0.102
-738.069	326.166	-0.062	0.119
-737.054	339.152	-0.143	-0.279
-736.039	-200.000	0.006	-0.164
-735.025	67.274	0.205	0.210
-734.010	-43.106	-0.115	0.058
-732.996	-200.000	-0.016	-0.157
-731.981	-200.000	-0.060	-0.291
-730.966	-144.753	-0.059	-0.005
-729.952	-24.822	-0.251	0.150
-728.937	18.959	0.181	0.146
-727.923	-156.477	-0.023	-0.001
-726.908	-110.649	-0.064	0.013
-725.894	-160.005	-0.427	-0.023
-724.879	-200.000	0.025	-0.110
-723.864	-200.000	0.001	-0.406
-722.850	114.310	-0.185	-0.226
-721.835	-135.663	-0.039	-0.005
-720.821	63.665	-0.170	0.171
-719.806	241.620	0.049	0.081
-718.791	-88.379	-0.402	-0.121
-717.777	-69.166	-0.086	-0.033
-716.762	-71.365	-0.413	0.155
-715.748	-200.000	0.037	-0.298
-714.733	-117.002	0.094	0.017
-713.718	399.335	-0.079	-0.166
-712.704	-200.000	-0.025	0.130
-711.689	152.171	0.159	-0.218
-710.675	74.565	-0.326	-0.344
-709.660	-12.228	-0.217	0.142
-708.645	-200.000	0.010	-0.177
-707.631	29.673	-0.325	-0.277
-706.616	-103.698	0.176	0.041
-705.602	-200.000	-0.049	0.263
-704.587	-95.932	-0.242	0.065
-703.572	800.000	-0.121	0.436
-702.558	-55.272	0.155	0.070
-701.543	-200.000	0.014	0.354
-700.529	-57.252	-0.057	0.025
-699.514	800.000	-0.046	0.140
-698.499	560.773	0.104	-0.251
-697.485	-85.595	-0.325	-0.101
-696.470	800.000	-0.040	-0.125
-695.456	-52.370	-0.155	0.072
-694.441	151.056	-0.212	-0.289
-693.426	-115.618	0.157	-0.030
-692.412	364.711	-0.035	0.070
-691.397	700.872	0.126	-0.333
-690.383	-119.288	0.473	-0.083
-689.368	209.907	-0.181	-0.284
-688.354	255.511	-0.111	-0.190
-687.339	-20.067	-0.247	0.153
-686.324	18.477	0.147	-0.118
-685.310	-200.000	0.019	0.209
-684.295	-68.256	-0.264	0.103
-683.281	-21.094	0.306	-0.188
-682.266	-200.000	0.036	-0.201
-681.251	7.425	-0.161	0.120
-680.237	800.000	-0.059	-0.230
-679.222	271.113	-0.087	0.154
-678.208	800.000	-0.088	0.290
-677.193	8.475	0.174	-0.131
-676.178	-151.032	-0.565	0.043
-675.164	163.744	-0.038	0.054
-674.149	-178.534	0.077	0.002
-673.135	800.000	0.040	0.127
-672.120	588.812	-0.123	0.304
-671.105	-200.000	0.001	-0.354
-670.091	92.320	-0.192	-0.217
-669.076	-57.622	-0.189	-0.083
-668.062	-200.000	0.021	-0.325
-667.047	-18.481	-0.217	0.136
-666.032	42.332	-0.226	-0.206
-665.018	-200.000	0.010	-0.147
-664.003	-1.129	-0.267	-0.189
-662.989	800.000	0.099	0.316
-661.974	519.957	-0.018	0.041
-660.959	69.859	-0.121	0.124
-659.945	164.062	-0.157	-0.221
-658.930	-112.760	0.141	0.028
-657.916	265.716	0.084	-0.146
-656.901	-1.821	-0.318	0.224
-655.886	274.112	-0.086	-0.152
-654.872	-166.163	0.044	-0.002
-653.857	24.456	0.152	-0.125
-652.843	-200.000	-0.026	-0.278
-651.828	372.793	0.116	-0.235
-650.814	-66.347	0.212	-0.084
-649.799	-114.407	0.165	0.032
-648.784	-111.262	-0.179	0.037
-647.770	-200.000	0.038	0.225
-646.755	-12.524	-0.210	-0.137
-645.741	234.580	0.150	0.247
-644.726	-73.928	-0.094	-0.034
-643.711	182.364	0.086	0.127
-642.697	92.741	-0.127	0.143
-641.682	89.500	0.158	0.176
-640.668	-87.252	-0.202	-0.061
-639.653	-200.000	-0.042	0.208
-638.638	-39.200	-0.173	-0.091
-637.624	-136.070	0.453	-0.053
-636.609	-70.047	-0.362	-0.138
-635.595	48.198	-0.055	0.051
-634.580	800.000	-0.088	-0.255
-633.565	-117.653	0.245	-0.044
-632.551	800.000	-0.239	-0.748
-631.536	678.232	0.130	-0.339
-630.522	26.633	-0.185	0.155
-629.507	800.000	0.071	-0.271
-628.492	-4.019	-0.163	-0.113
-627.478	-126.771	-0.414	0.061
-626.463	84.562	0.132	0.144
-625.449	96.240	-0.077	0.088
-624.434	320.771	-0.183	-0.348
-623.419	-3.525	0.072	-0.050
-622.405	-63.911	-0.194	-0.079
-621.390	-23.241	-0.149	-0.090
-620.376	73.242	-0.119	0.124
-619.361	53.728	-0.077	-0.073
-618.346	-200.000	0.040	-0.219
-617.332	99.220	0.171	0.198
-616.317	-37.760	-0.367	0.195
-615.303	595.223	-0.203	0.501
-614.288	-139.360	-0.149	-0.016
-613.273	184.302	-0.221	0.327
-612.259	-200.000	-0.039	0.501
-611.244	-1.645	-0.223	0.157
-610.230	800.000	-0.059	0.177
-609.215	-200.000	0.032	0.160
-608.201	-106.156	0.327	-0.073
-607.186	-200.000	-0.023	-0.330
-606.171	22.687	-0.091	-0.074
-605.157	-200.000	-0.020	-0.204
-604.142	224.802	0.138	-0.223
-603.128	40.019	0.020	0.018
-602.113	-200.000	0.005	-0.312
-601.098	9.511	-0.225	0.170
-600.084	-3.858	-0.141	0.097
-599.069	635.458	0.088	0.224
-598.055	72.211	0.023	0.024
-597.040	219.129	-0.186	-0.297
-596.025	15.662	-0.189	-0.148
-595.011	800.000	-0.067	0.202
-593.996	564.051	-0.070	-0.169
-592.982	-188.557	-0.431	-0.005
-591.967	15.838	-0.051	0.040
-590.952	28.155	0.268	0.225
-589.938	-98.408	-0.380	0.097
-588.923	150.637	-0.255	0.346
-587.909	-50.643	-0.064	0.030
-586.894	440.365	0.116	-0.253
-585.879	56.757	0.153	-0.148
-584.865	-200.000	-0.113	0.575
-583.850	64.232	0.152	0.153
-582.836	53.847	0.176	0.169
-581.821	-20.867	-0.126	0.077
-580.806	-72.552	0.217	0.080
-579.792	122.630	0.243	0.303
-578.777	-16.374	-0.013	0.008
-577.763	41.422	0.157	-0.142
-576.748	-15.605	0.105	-0.067
-575.733	800.000	-0.108	-0.421
-574.719	-144.406	-0.429	-0.040
-573.704	741.471	-0.031	0.084
-572.690	-91.707	-0.082	-0.023
-571.675	166.444	-0.124	0.175
-570.661	-130.626	-0.365	0.049
-569.646	278.170	-0.137	-0.243
-568.631	-26.254	0.237	0.139
-567.617	800.000	-0.032	-0.118
-566.602	-84.375	0.128	0.040
-565.588	-141.989	0.075	0.007
-564.573	-200.000	-0.006	0.000
-563.558	-200.000	-0.034	-0.522
-562.544	402.330	0.106	-0.221
-561.529	107.859	-0.233	0.276
-560.515	119.692	-0.136	0.168
-559.500	27.189	0.204	-0.171
-558.485	-200.000	-0.013	-0.127
-557.471	269.342	-0.091	-0.159
-556.456	210.375	-0.163	-0.255
-555.442	-200.000	-0.020	-0.256
-554.427	800.000	0.037	-0.125
-553.412	153.655	0.137	0.187
-552.398	-70.369	-0.205	-0.077
-551.383	226.847	0.104	0.169
-550.369	124.584	-0.267	0.335
-549.354	-23.326	0.264	-0.158
-548.339	800.000	0.065	0.266
-547.325	-43.072	-0.068	-0.034
-546.310	0.096	-0.376	-0.267
-545.296	-148.637	0.120	0.010
-544.281	268.414	-0.208	-0.363
-543.266	3.330	-0.071	-0.051
-542.252	37.249	-0.221	0.195
-541.237	800.000	0.009	0.038
-540.223	-12.626	0.154	0.100
-539.208	-200.000	-0.006	0.308
-538.193	-62.401	0.190	0.079
-537.179	-200.000	-0.049	-0.239
-536.164	-200.000	-0.064	-0.292
-535.150	-200.000	0.045	0.284
-534.135	137.868	-0.089	-0.116
-533.121	-200.000	-0.036	-0.190
-532.106	73.806	0.250	-0.260
-531.091	409.023	-0.097	-0.205
-530.077	156.157	0.160	-0.220
-529.062	-200.000	-0.014	-0.150
-528.048	384.924	-0.048	-0.099
-527.033	800.000	0.029	-0.109
-526.018	-83.632	-0.351	0.112
-525.004	-200.000	0.029	0.188
-523.989	-200.000	0.019	-0.297
-522.975	75.718	0.229	0.240
-521.960	-53.536	0.033	-0.015
-520.945	-174.249	-0.059	0.002
-519.931	-200.000	0.037	-0.175
-518.916	573.612	-0.145	0.351
-517.902	-58.081	0.234	-0.102
-516.887	130.604	-0.160	-0.204
-515.872	800.000	0.063	-0.223
-514.858	-87.162	-0.220	0.066
-513.843	301.923	0.145	-0.267
-512.829	10.936	0.151	0.114
-511.814	-17.152	-0.269	0.168
-510.799	-167.141	0.233	0.009
-509.785	-52.442	-0.134	0.062
-508.770	191.161	-0.082	-0.122
-507.756	-90.594	-0.573	-0.165
-506.741	-200.000	-0.043	-0.259
-505.726	101.683	-0.257	0.298
-504.712	-200.000	-0.013	-0.121
-503.697	-200.000	0.003	0.168
-502.683	-27.621	0.093	0.053
-501.668	-200.000	0.000	0.067
-500.653	-200.000	0.014	0.133
-499.639	115.202	0.060	0.073
-498.624	15.028	-0.118	0.092
-497.610	739.064	0.128	0.341
-496.595	-65.513	-0.150	0.060
-495.581	-200.000	0.021	-0.096
-494.566	9.163	0.223	0.167
-493.551	-200.000	0.366	-0.002
-492.537	-200.000	-0.017	0.226
-491.522	465.462	0.061	-0.136
-490.508	212.588	0.044	-0.069
-489.493	800.000	0.042	-0.118
-488.478	-3.560	0.200	-0.138
-487.464	86.037	0.092	-0.101
-486.449	373.255	-0.116	0.235
-485.435	91.689	0.181	0.202
-484.420	42.237	-0.124	0.112
-483.405	-65.483	0.424	0.169
-482.391	395.404	-0.064	0.132
-481.376	-48.809	-0.035	-0.017
-480.362	800.000	0.100	0.331
-479.347	30.598	-0.171	0.145
-478.332	-54.701	0.149	0.067
-477.318	-105.063	-0.487	-0.111
-476.303	17.370	-0.317	0.250
-475.289	-56.328	0.188	0.083
-474.274	171.925	0.090	-0.129
-473.259	-130.743	-0.383	-0.051
-472.245	-19.153	-0.168	0.103
-471.230	387.719	0.165	0.338
-470.216	-78.965	0.267	-0.090
-469.201	800.000	-0.030	0.126
-468.186	-106.803	-0.128	-0.028
-467.172	-52.910	0.117	0.054
-466.157	-174.769	0.278	-0.008
-465.143	343.942	0.149	0.289
-464.128	-169.353	-0.274	0.010
-463.113	-200.000	0.007	-0.076
-462.099	-146.298	0.320	-0.028
-461.084	-58.599	-0.327	-0.141
-460.070	-48.005	-0.035	-0.017
-459.055	-198.456	-0.158	0.001
-458.040	50.960	-0.161	0.151
-457.026	800.000	0.093	-0.278
-456.011	207.798	0.021	-0.033
-454.997	-62.275	0.112	0.046
-453.982	-5.907	-0.202	-0.137
-452.968	-57.236	-0.264	0.115
-451.953	-142.446	0.194	0.019
-450.938	-200.000	-0.016	-0.084
-449.924	-47.447	0.158	0.076
-448.909	74.811	-0.100	-0.104
-447.895	-31.843	0.351	0.195
-446.880	800.000	0.061	0.213
-445.865	53.025	0.251	-0.238
-444.851	-196.633	-0.314	0.002
-443.836	-144.150	0.167	-0.016
-442.822	-117.144	0.224	0.040
-441.807	-177.102	-0.225	-0.006
-440.792	30.919	0.248	0.210
-439.778	487.011	-0.064	0.146
-438.763	51.377	0.265	0.249
-437.749	362.573	0.143	-0.286
-436.734	-200.000	-0.024	0.109
-435.719	576.668	-0.053	-0.129
-434.705	-200.000	-0.001	0.053
-433.690	26.562	0.193	-0.160
-432.676	-70.913	-0.083	-0.031
-431.661	736.603	0.098	0.261
-430.646	-96.474	0.163	0.043
-429.632	495.282	-0.208	-0.474
-428.617	17.865	-0.148	-0.117
-427.603	705.391	-0.131	0.344
-426.588	25.852	0.211	-0.175
-425.573	13.068	-0.133	0.102
-424.559	-43.147	-0.063	-0.031
-423.544	-96.196	-0.245	-0.064
-422.530	545.839	0.149	-0.352
-421.515	84.695	0.087	0.095
-420.500	-12.930	0.054	0.035
-419.486	49.871	0.183	0.171
-418.471	-3.017	0.178	-0.123
-417.457	-114.458	-0.339	-0.064
-416.442	-162.242	-0.111	0.005
-415.428	-142.701	0.147	-0.014
-414.413	217.069	0.189	0.298
-413.398	-25.422	-0.081	-0.047
-412.384	-200.000	0.003	-0.180
-411.369	319.016	0.285	-0.535
-410.355	800.000	0.098	-0.403
-409.340	-200.000	-0.039	-0.277
-408.325	-50.355	0.094	0.044
-407.311	800.000	0.031	-0.096
-406.296	-98.327	-0.150	0.038
-405.282	-200.000	-0.013	0.130
-404.267	151.554	-0.084	0.113
-403.252	-12.506	0.060	0.039
-402.238	-93.418	-0.360	-0.099
-401.223	-200.000	0.008	0.201
-400.209	-101.446	0.142	-0.034
-399.194	-200.000	0.096	0.417
-398.179	194.798	0.168	0.252
-397.165	800.000	0.027	0.084
-396.150	-200.000	0.026	-0.135
-395.136	800.000	0.113	-0.439
-394.121	-200.000	-0.027	-0.162
-393.106	-36.594	-0.112	0.060
-392.092	239.239	-0.146	0.240
-391.077	-129.576	-0.572	-0.078
-390.063	-69.184	-0.051	0.019
-389.048	-200.000	-0.008	-0.259
-388.033	-200.000	0.020	0.166
-387.019	-47.458	-0.387	-0.186
-386.004	800.000	0.031	0.096
-384.990	-56.545	-0.271	0.119
-383.975	414.259	0.091	0.191
-382.960	-200.000	-0.003	-0.018
-381.946	800.000	-0.055	-0.180
-380.931	-200.000	-0.025	0.246
-379.917	800.000	0.063	0.238
-378.902	-199.592	0.076	-0.000
-377.888	-138.071	0.350	0.039
-376.873	-79.220	0.020	0.007
-375.858	800.000	0.084	-0.277
-374.844	105.841	-0.120	-0.141
-373.829	-71.365	0.198	-0.073
-372.815	-72.687	-0.228	-0.083
-371.800	-106.915	0.087	-0.019
-370.785	-8.019	-0.104	-0.069
-369.771	-106.405	0.088	0.019
-368.756	24.866	-0.164	-0.134
-367.742	-200.000	-0.020	0.286
-366.727	-75.289	0.255	0.090
-365.712	-172.355	-0.278	0.009
-364.698	800.000	0.062	0.187
-363.683	-200.000	0.038	-0.320
-362.669	165.845	0.061	-0.085
-361.654	44.318	-0.167	-0.152
-360.639	131.422	0.144	-0.183
-359.625	800.000	-0.025	0.101
-358.610	434.290	0.109	0.234
-357.596	-200.000	-0.095	0.000
-356.581	1.022	0.309	-0.219
-355.566	-56.996	-0.131	0.057
-354.552	-112.862	0.134	0.026
-353.537	133.961	-0.162	-0.207
-352.523	551.344	-0.112	0.266
-351.508	800.000	0.087	-0.319
-350.493	-3.683	-0.239	0.164
-349.479	30.547	0.071	-0.060
-348.464	800.000	-0.021	-0.060
-347.450	11.891	0.161	-0.122
-346.435	312.586	-0.068	0.126
-345.420	-158.290	-0.276	0.016
-344.406	385.620	0.054	-0.110
-343.391	800.000	0.036	-0.153
-342.377	45.645	-0.322	-0.294
-341.362	-200.000	-0.018	0.151
-340.348	-200.000	0.030	0.241
-339.333	636.443	0.060	0.150
-338.318	-79.606	0.183	0.061
-337.304	-66.814	0.165	-0.065
-336.289	800.000	-0.085	0.338
-335.275	126.079	-0.138	-0.172
-334.260	-71.825	-0.179	0.066
-333.245	-200.000	0.034	-0.156
-332.231	-107.784	-0.185	-0.040
-331.216	286.114	0.094	0.167
-330.202	178.571	0.052	0.075
-329.187	-200.000	-0.008	0.166
-328.172	453.158	-0.070	-0.153
-327.158	-1.404	0.220	-0.154
-326.143	16.573	0.139	-0.108
-325.129	-200.000	-0.006	-0.288
-324.114	59.732	0.195	0.190
-323.099	-158.867	-0.300	0.017
-322.085	-200.000	0.022	-0.203
-321.070	-98.332	-0.081	-0.020
-320.056	-117.737	0.269	-0.048
-319.041	113.049	-0.248	-0.297
-318.026	64.028	0.323	0.321
-317.012	-133.071	0.211	-0.026
-315.997	-105.190	-0.137	-0.031
-314.983	622.111	0.072	-0.179
-313.968	-83.599	0.209	-0.066
-312.953	-200.000	-0.023	0.146
-311.939	-80.585	0.159	0.052
-310.924	-200.000	-0.060	0.298
-309.910	22.796	0.130	-0.105
-308.895	12.646	-0.084	-0.064
-307.880	-61.854	0.348	-0.143
-306.866	77.237	0.246	0.258
-305.851	-191.148	0.283	0.003
-304.837	800.000	-0.055	-0.157
-303.822	-115.774	-0.195	0.036
-302.807	-35.125	-0.194	0.104
-301.793	-46.046	0.147	0.072
-300.778	-89.385	0.125	0.036
-299.764	-57.279	0.182	-0.079
-298.749	54.620	0.099	0.094
-297.735	800.000	-0.038	0.117
-296.720	84.784	-0.153	-0.165
-295.705	54.762	0.121	-0.115
-294.691	800.000	0.071	-0.237
-293.676	150.644	0.214	0.287
-292.662	-105.509	0.363	0.081
-291.647	-73.147	0.315	0.114
-290.632	-200.000	0.028	-0.126
-289.618	-99.683	0.374	0.092
-288.603	99.241	0.007	-0.007
-287.589	-200.000	-0.062	-0.533
-286.574	76.370	0.118	0.123
-285.559	789.903	0.066	0.180
-284.545	262.464	-0.067	-0.115
-283.530	-200.000	0.062	0.329
-282.516	-200.000	-0.007	-0.063
-281.501	523.516	-0.071	-0.164
-280.486	152.829	0.088	-0.118
-279.472	-7.857	-0.250	0.167
-278.457	-194.573	0.133	0.001
-277.443	540.052	0.069	0.161
-276.428	800.000	-0.066	-0.193
-275.413	-200.000	0.017	-0.126
-274.399	-171.919	0.249	-0.008
-273.384	-55.142	-0.318	0.141
-272.370	227.630	-0.021	0.034
-271.355	-200.000	0.045	0.250
-270.340	-10.903	0.359	-0.233
-269.326	-110.367	-0.232	0.048
-268.311	502.959	0.127	-0.290
-267.297	313.774	-0.070	-0.129
-266.282	4.207	0.115	0.083
-265.267	270.376	0.173	-0.300
-264.253	-90.812	-0.052	-0.015
-263.238	727.876	0.166	-0.437
-262.224	-200.000	-0.044	-0.582
-261.209	82.167	0.302	0.323
-260.195	800.000	0.030	0.082
-259.180	-10.860	0.086	-0.056
-258.165	-45.415	-0.159	-0.078
-257.151	103.929	0.175	0.202
-256.136	800.000	-0.058	0.165
-255.122	-7.133	-0.066	0.044
-254.107	-200.000	-0.027	-0.234
-253.092	720.282	0.191	-0.499
-252.078	400.592	-0.095	0.196
-251.063	-46.090	-0.101	-0.049
-250.049	289.293	-0.241	-0.430
-249.034	140.278	-0.156	-0.202
-248.019	-200.000	-0.059	-0.464
-247.005	-200.000	0.019	-0.126
-245.990	60.815	0.036	-0.035
-244.976	-95.904	0.211	-0.055
-243.961	-0.941	0.136	0.095
-242.946	-200.000	-0.001	0.299
-241.932	224.829	-0.056	-0.089
-240.917	-44.784	0.131	-0.064
-239.903	382.049	0.050	-0.100
-238.888	19.372	0.235	0.186
-237.873	427.965	0.064	0.135
-236.859	195.936	0.086	-0.128
-235.844	-200.000	0.005	-0.154
-234.830	362.080	-0.113	0.223
-233.815	124.809	-0.105	0.130
-232.800	627.092	-0.072	0.180
-231.786	-134.961	0.115	-0.014
-230.771	-200.000	0.043	0.189
-229.757	-30.340	-0.311	-0.174
-228.742	-200.000	0.025	0.354
-227.727	-45.863	0.082	-0.040
-226.713	-122.530	0.108	0.017
-225.698	-72.931	0.048	-0.017
-224.684	119.495	0.089	-0.109
-223.669	-158.974	0.499	0.028
-222.655	126.357	0.226	0.281
-221.640	-97.466	-0.398	-0.102
-220.625	-200.000	0.010	0.073
-219.611	18.967	-0.103	0.081
-218.596	-42.821	-0.176	0.088
-217.582	234.485	0.059	-0.095
-216.567	-200.000	-0.024	0.159
-215.552	-200.000	0.009	0.114
-214.538	89.574	0.152	-0.167
-213.523	800.000	0.123	0.474
-212.509	177.722	-0.110	-0.158
-211.494	195.968	-0.120	0.180
-210.479	800.000	-0.127	0.350
-209.465	-14.897	-0.153	-0.097
-208.450	-200.000	-0.022	-0.160
-207.436	-175.472	0.321	0.009
-206.421	800.000	-0.081	-0.228
-205.406	-200.000	-0.015	0.097
-204.392	-119.251	0.273	0.047
-203.377	-146.900	-0.218	0.018
-202.363	-99.042	-0.275	-0.068
-201.348	-200.000	-0.093	-0.458
-200.333	374.798	0.097	-0.193
-199.319	28.346	-0.199	0.165
-198.304	-163.924	-0.134	0.006
-197.290	-7.682	0.032	-0.021
-196.275	-127.540	-0.248	0.035
-195.260	-6.957	0.282	0.188
-194.246	-68.669	0.076	-0.029
-193.231	-78.472	0.165	0.055
-192.217	317.297	0.081	0.151
-191.202	-86.916	0.125	-0.037
-190.187	6.979	-0.178	0.130
-189.173	-149.379	0.154	-0.012
-188.158	377.682	0.036	0.072
-187.144	478.898	0.149	0.331
-186.129	619.412	0.073	0.179
-185.114	43.732	0.155	0.139
-184.100	-20.932	0.139	-0.084
-183.085	421.304	0.097	-0.205
-182.071	-41.103	0.080	0.041
-181.056	-200.000	-0.054	0.311
-180.042	-99.024	-0.306	-0.076
-179.027	-200.000	-0.035	0.153
-178.012	-12.899	-0.141	-0.090
-176.998	113.132	-0.008	0.010
-175.983	-200.000	0.011	-0.120
-174.969	-6.896	-0.393	0.262
-173.954	107.801	0.162	0.190
-172.939	-109.080	0.190	0.040
-171.925	-128.088	-0.291	-0.041
-170.910	275.922	-0.264	-0.460
-169.896	84.867	0.109	0.117
-168.881	104.099	0.140	-0.161
-167.866	93.436	-0.222	0.247
-166.852	363.571	0.137	-0.270
-165.837	530.086	-0.106	-0.245
-164.823	800.000	0.094	0.317
-163.808	538.503	0.056	0.130
-162.793	324.085	-0.101	0.188
-161.779	-200.000	-0.030	-0.240
-160.764	71.715	-0.075	0.077
-159.750	-8.413	0.061	-0.040
-158.735	-192.913	-0.285	0.003
-157.720	-5.434	0.075	-0.051
-156.706	473.721	-0.026	-0.058
-155.691	-117.709	0.316	0.056
-154.677	710.822	-0.024	0.061
-153.662	124.906	0.257	0.318
-152.647	128.318	0.308	0.384
-151.633	-200.000	0.253	-0.001
-150.618	262.138	-0.215	-0.365
-149.604	153.950	0.092	-0.124
-148.589	-130.474	0.577	0.077
-147.574	-168.823	0.086	0.003
-146.560	-67.702	-0.224	-0.086
-145.545	-87.237	-0.199	0.059
-144.531	800.000	0.019	0.060
-143.516	800.000	-0.021	0.073
-142.502	800.000	-0.070	0.254
-141.487	-134.077	0.112	0.014
-140.472	-48.972	0.306	-0.144
-139.458	-200.000	-0.046	-0.238
-138.443	800.000	0.050	-0.194
-137.429	-200.000	0.057	-0.274
-136.414	-49.012	0.099	-0.046
-135.399	-200.000	0.023	0.203
-134.385	-81.607	0.082	-0.026
-133.370	-179.114	0.376	-0.008
-132.356	-94.037	-0.162	-0.044
-131.341	65.696	-0.188	0.186
-130.326	98.552	0.103	0.116
-129.312	18.221	-0.196	0.153
-128.297	681.584	0.109	0.279
-127.283	374.794	-0.064	-0.128
-126.268	-151.562	0.055	0.004
-125.253	-123.288	-0.318	-0.050
-124.239	171.765	-0.288	0.405
-123.224	45.314	-0.300	-0.271
-122.210	135.574	-0.026	-0.033
-121.195	167.491	-0.185	-0.258
-120.180	-114.098	-0.527	0.100
-119.166	-200.000	0.062	-0.352
-118.151	-55.063	-0.151	-0.067
-117.137	-200.000	0.010	0.152
-116.122	345.049	0.034	0.065
-115.107	-179.534	-0.169	0.004
-114.093	-200.000	0.000	0.164
-113.078	-200.000	0.023	-0.172
-112.064	1.773	-0.161	0.113
-111.049	-200.000	-0.019	-0.180
-110.034	-40.284	-0.102	-0.052
-109.020	-200.000	-0.002	0.068
-108.005	-84.195	0.282	-0.087
-106.991	-101.415	-0.304	0.072
-105.976	641.242	0.034	-0.084
-104.962	150.029	0.279	0.371
-103.947	-109.058	-0.151	0.031
-102.932	-35.076	-0.171	0.091
-101.918	-115.015	0.289	0.054
-100.903	800.000	-0.030	-0.102
-99.889	0.157	0.107	0.075
-98.874	-200.000	-0.045	0.207
-97.859	22.390	-0.126	0.101
-96.845	800.000	-0.029	-0.082
-95.830	291.024	-0.097	0.172
-94.816	800.000	0.109	-0.327
-93.801	-31.662	0.228	-0.125
-92.786	-200.000	-0.030	-0.213
-91.772	-200.000	-0.001	0.075
-90.757	129.339	0.262	0.328
-89.743	66.230	0.240	0.238
-88.728	-200.000	0.073	0.315
-87.713	-133.378	0.311	-0.038
-86.699	-5.661	0.125	0.084
-85.684	-200.000	-0.004	0.284
-84.670	-144.056	0.208	0.019
-83.655	201.225	-0.047	-0.071
-82.640	67.007	-0.135	0.134
-81.626	-106.368	0.067	0.015
-80.611	800.000	-0.047	-0.194
-79.597	-8.954	0.239	0.156
-78.582	-95.889	-0.083	0.022
-77.567	133.487	-0.101	0.128
-76.553	800.000	-0.060	0.215
-75.538	36.831	0.026	-0.023
-74.524	93.084	-0.130	-0.143
-73.509	-69.225	-0.103	0.039
-72.494	150.209	-0.162	-0.216
-71.480	-200.000	0.030	0.301
-70.465	524.874	-0.032	0.074
-69.451	-66.844	0.219	0.085
-68.436	458.442	0.127	-0.275
-67.422	800.000	-0.045	0.150
-66.407	-200.000	-0.035	0.207
-65.392	-69.652	0.367	0.137
-64.378	249.482	0.105	-0.174
-63.363	-48.187	-0.142	-0.067
-62.349	58.829	-0.045	-0.044
-61.334	67.187	-0.929	-0.925
-60.319	81.582	0.672	0.710
-59.305	266.243	-0.556	-0.949
-58.290	211.686	0.781	1.201
-57.276	151.501	0.960	1.277
-56.261	-200.000	116.784	642.282
-55.246	486.001	1551.950	3455.400
-54.232	172.958	2730.024	3842.092
-53.217	97.173	2295.083	2572.303
-52.203	35.049	1901.852	1626.975
-51.188	29.245	1696.036	1406.706
-50.173	26.879	1654.795	1354.797
-49.159	46.570	1712.984	1552.755
-48.144	45.572	1726.410	1557.275
-47.130	28.749	1683.626	1392.424
-46.115	26.102	1669.327	1360.617
-45.100	25.951	1664.424	1355.436
-44.086	25.994	1661.673	1353.468
-43.071	26.084	1658.898	1351.823
-42.057	25.938	1656.710	1348.893
-41.042	25.982	1654.648	1347.495
-40.027	25.932	1653.090	1345.798
-39.013	25.986	1650.842	1344.313
-37.998	25.983	1648.768	1342.553
-36.984	25.876	1648.666	1341.616
-35.969	26.027	1646.440	1340.879
-34.954	26.191	1644.340	1340.331
-33.940	26.111	1643.215	1338.763
-32.925	26.107	1641.323	1337.140
-31.911	26.130	1639.895	1336.099
-30.896	26.110	1638.089	1334.422
-29.881	26.050	1636.480	1332.618
-28.867	26.068	1635.648	1332.022
-27.852	26.163	1633.615	1331.014
-26.838	26.097	1632.183	1329.307
-25.823	26.167	1630.863	1328.691
-24.809	26.200	1629.284	1327.596
-23.794	26.049	1628.797	1326.039
-22.779	26.180	1626.371	1324.970
-21.765	26.140	1625.279	1323.736
-20.750	26.117	1623.350	1321.941
-19.736	26.143	1621.863	1320.867
-18.721	26.269	1620.306	1320.470
-17.706	26.206	1618.744	1318.682
-16.692	26.173	1617.307	1317.219
-15.677	26.182	1616.121	1316.270
-14.663	26.163	1614.571	1314.814
-13.648	26.178	1613.152	1313.715
-12.633	26.185	1611.437	1312.322
-11.619	26.265	1609.727	1311.458
-10.604	26.186	1608.530	1309.856
-9.590	26.226	1607.313	1309.103
-8.575	26.180	1605.864	1307.535
-7.560	26.107	1604.616	1305.938
-6.546	26.122	1603.849	1305.373
-5.531	26.163	1602.459	1304.485
-4.517	26.171	1601.319	1303.562
-3.502	26.196	1600.384	1302.929
-2.487	26.246	1598.722	1301.890
-1.473	25.851	1586.868	1289.359
-0.458	23.015	1567.921	1253.825
0.556	21.538	1569.158	1222.667
1.571	19.160	1592.788	1224.085
2.586	18.747	1605.367	1230.681
3.600	17.100	1551.363	1177.762
4.615	10.810	1444.424	1055.731
5.629	5.005	1385.425	976.258
6.644	4.038	1377.972	964.898
7.659	4.024	1376.493	963.688
8.673	4.063	1376.203	963.646
9.688	4.185	1374.410	963.061
10.702	4.173	1370.574	960.213
11.717	6.817	1375.674	980.127
12.731	14.115	1389.467	1035.453
13.746	20.632	1400.434	1084.302
14.761	22.626	1402.285	1098.068
15.775	22.173	1400.178	1093.503
16.790	21.173	1398.176	1085.630
17.804	20.388	1396.305	1079.200
18.819	20.123	1394.885	1076.364
19.834	20.153	1393.919	1075.712
20.848	19.993	1393.577	1074.359
21.863	19.889	1391.704	1072.172
22.877	19.678	1391.046	1070.265
23.892	19.693	1389.845	1069.339
24.907	19.685	1388.920	1068.487
25.921	19.640	1388.124	1067.497
26.936	19.736	1387.116	1067.221
27.950	19.732	1385.979	1066.228
28.965	19.835	1385.582	1066.461
29.980	19.942	1384.693	1066.347
30.994	20.080	1383.477	1066.164
32.009	20.189	1382.359	1065.876
33.023	20.121	1381.341	1064.580
34.038	19.942	1379.582	1062.029
35.053	19.862	1378.770	1060.821
36.067	19.938	1376.661	1059.571
37.082	19.847	1376.270	1058.620
38.096	19.998	1375.029	1058.497
39.111	19.937	1374.951	1057.968
40.126	19.799	1373.885	1056.212
41.140	19.524	1372.195	1053.140
42.155	19.297	1371.733	1051.311
43.169	19.347	1371.828	1051.596
44.184	19.314	1371.184	1050.806
45.199	19.413	1371.070	1051.232
46.213	19.514	1370.658	1051.435
47.228	19.724	1369.959	1052.084
48.242	19.825	1369.230	1052.046
49.257	19.693	1367.669	1049.954
50.271	19.867	1365.689	1049.391
51.286	19.835	1364.388	1048.111
52.301	19.769	1363.239	1046.735
53.315	19.521	1362.307	1044.421
54.330	19.443	1361.560	1043.285
55.344	19.400	1360.179	1041.875
56.359	19.426	1358.662	1040.778
57.374	19.400	1358.046	1040.057
58.388	19.285	1357.566	1038.908
59.403	19.217	1356.857	1037.859
60.417	19.310	1355.838	1037.549
61.432	19.178	1354.754	1035.836
62.447	19.060	1354.329	1034.710
63.461	19.017	1353.353	1033.614
64.476	19.051	1351.829	1032.560
65.490	19.014	1350.276	1031.064
66.505	19.089	1349.027	1030.469
67.520	19.228	1347.927	1030.369
68.534	19.120	1346.889	1028.840
69.549	19.039	1346.388	1027.879
70.563	18.943	1344.688	1025.917
71.578	18.870	1343.722	1024.656
72.593	18.721	1342.825	1022.992
73.607	18.690	1342.278	1022.300
74.622	18.846	1341.244	1022.350
75.636	18.905	1340.616	1022.134
76.651	18.959	1340.164	1022.019
77.666	19.015	1339.505	1021.761
78.680	19.092	1339.249	1021.931
79.695	19.140	1338.489	1021.546
80.709	19.224	1337.975	1021.558
81.724	19.355	1337.133	1021.604
82.739	19.451	1336.294	1021.441
83.753	19.629	1335.446	1021.752
84.768	19.796	1334.820	1022.172
85.782	19.922	1333.731	1021.989
86.797	19.934	1332.463	1021.003
87.812	19.787	1331.092	1018.994
88.826	19.738	1330.098	1017.853
89.841	19.887	1328.853	1017.685
90.855	19.910	1328.210	1017.242
91.870	19.972	1327.698	1017.122
92.884	20.048	1326.947	1016.901
93.899	20.054	1325.684	1015.878
94.914	20.177	1325.074	1016.042
95.928	20.019	1324.210	1014.363
96.943	20.012	1323.286	1013.527
97.957	20.047	1322.120	1012.748
98.972	19.982	1321.274	1011.631
99.987	20.001	1319.947	1010.640
101.001	19.931	1319.395	1009.718
102.016	19.926	1318.514	1008.923
103.030	20.004	1317.282	1008.347
104.045	19.874	1317.037	1007.312
105.060	19.764	1315.199	1005.178
106.074	19.499	1313.686	1002.396
107.089	19.146	1312.324	999.220
108.103	19.075	1310.648	997.443
109.118	19.133	1309.009	996.441
110.133	19.162	1308.143	995.865
111.147	19.149	1306.909	994.759
112.162	19.182	1305.815	994.032
113.176	19.262	1304.739	993.581
114.191	19.313	1303.977	993.209
115.206	19.271	1302.899	992.058
116.220	19.303	1301.249	990.898
117.235	19.095	1300.658	989.166
118.249	19.191	1299.755	988.945
119.264	19.008	1298.121	986.566
120.279	19.068	1296.832	985.837
121.293	18.999	1296.033	984.750
122.308	18.934	1294.543	983.161
123.322	18.763	1294.164	981.805
124.337	18.796	1293.066	981.075
125.352	18.861	1291.451	980.136
126.366	18.749	1290.765	978.890
127.381	18.765	1289.362	977.828
128.395	18.913	1287.922	977.492
129.410	18.841	1287.916	976.988
130.424	18.908	1286.996	976.586
131.439	19.074	1286.501	977.069
132.454	19.251	1285.318	977.089
133.468	19.188	1284.757	976.215
134.483	19.279	1283.693	975.837
135.497	19.199	1283.190	974.916
136.512	19.225	1281.868	973.971
137.527	19.355	1280.520	973.597
138.541	19.309	1279.178	972.231
139.556	19.413	1278.199	971.984
140.570	19.549	1277.721	972.302
141.585	19.653	1275.894	971.410
142.600	19.736	1275.062	971.155
143.614	19.893	1274.424	971.468
144.629	19.939	1273.791	971.158
145.643	19.930	1272.717	970.203
146.658	19.672	1271.327	967.612
147.673	19.525	1269.918	965.632
148.687	19.350	1268.544	963.526
149.702	19.349	1266.858	962.154
150.716	19.318	1265.227	960.656
151.731	19.367	1263.844	959.794
152.746	19.359	1263.319	959.266
153.760	19.431	1262.373	958.862
154.775	19.527	1261.185	958.406
155.789	19.558	1260.525	957.996
156.804	19.603	1259.270	957.207
157.819	19.636	1258.852	956.986
158.833	19.880	1257.531	957.245
159.848	19.908	1257.139	957.018
160.862	19.944	1255.845	956.146
161.877	19.664	1254.363	953.391
162.892	19.316	1253.346	950.613
163.906	19.400	1252.041	950.005
164.921	19.344	1251.322	949.062
165.935	19.276	1250.954	948.325
166.950	19.461	1249.871	948.441
167.964	19.415	1249.589	947.890
168.979	19.444	1248.458	947.103
169.994	19.384	1247.667	946.095
171.008	19.509	1246.864	946.088
172.023	19.724	1246.094	946.596
173.037	19.871	1245.958	947.213
174.052	19.799	1245.222	946.175
175.067	19.473	1243.696	943.150
176.081	19.290	1242.354	941.050
177.096	19.328	1241.312	940.383
178.110	19.528	1240.190	940.543
179.125	19.552	1239.053	939.729
180.140	19.543	1238.430	939.121
181.154	19.674	1237.466	939.022
182.169	19.733	1236.664	938.647
183.183	19.896	1235.163	938.308
184.198	20.006	1234.057	937.983
185.213	19.851	1233.004	936.261
186.227	19.965	1231.762	935.852
187.242	20.007	1231.080	935.478
188.256	20.160	1230.283	935.617
189.271	20.015	1229.428	934.098
190.286	19.892	1228.058	932.311
191.300	19.416	1226.667	928.615
192.315	19.354	1225.972	927.672
193.329	19.356	1225.613	927.330
194.344	19.420	1225.213	927.290
195.359	19.445	1225.017	927.191
196.373	19.578	1224.289	927.275
197.388	19.736	1223.960	927.789
198.402	20.028	1223.624	929.019
199.417	20.290	1222.950	929.830
200.432	20.404	1222.364	929.911
201.446	20.382	1221.736	929.234
202.461	20.429	1221.446	929.184
203.475	20.399	1220.324	928.088
204.490	20.230	1218.222	925.504
205.504	19.863	1217.195	922.686
206.519	19.858	1215.421	921.232
207.534	19.889	1214.008	920.247
208.548	19.854	1213.802	919.824
209.563	19.929	1212.816	919.390
210.577	19.805	1212.175	918.165
211.592	20.065	1211.165	918.699
212.607	20.162	1210.986	918.997
213.621	20.290	1209.516	918.478
214.636	20.198	1208.880	917.427
215.650	20.257	1208.047	917.024
216.665	20.252	1207.120	916.212
217.680	20.508	1206.484	916.998
218.694	20.540	1205.672	916.472
219.709	20.486	1204.175	914.963
220.723	20.308	1203.945	913.775
221.738	20.378	1203.105	913.425
222.753	20.303	1202.728	912.663
223.767	20.383	1201.373	911.971
224.782	20.513	1201.156	912.412
225.796	20.580	1201.111	912.648
226.811	20.487	1200.015	911.245
227.826	20.346	1199.141	909.765
228.840	20.302	1197.767	908.411
229.855	20.204	1197.316	907.476
230.869	20.237	1196.834	907.199
231.884	20.147	1195.709	905.800
232.899	20.052	1194.500	904.305
233.913	20.033	1194.034	903.773
234.928	19.910	1193.144	902.378
235.942	19.926	1192.167	901.645
236.957	19.953	1191.545	901.235
237.972	19.873	1190.530	899.971
238.986	19.790	1190.464	899.409
240.001	20.009	1189.206	899.519
241.015	20.021	1188.762	899.166
242.030	20.047	1188.166	898.771
243.045	20.176	1187.235	898.654
244.059	20.155	1186.540	897.941
245.074	20.233	1185.823	897.722
246.088	20.400	1184.686	897.642
247.103	20.489	1184.588	897.949
248.117	20.717	1183.472	898.204
249.132	20.798	1183.444	898.520
250.147	21.084	1183.118	899.664
251.161	21.217	1182.225	899.591
252.176	21.183	1181.820	899.033
253.190	21.420	1180.733	899.343
254.205	21.237	1180.843	898.406
255.220	21.378	1180.235	898.591
256.234	21.209	1179.835	897.335
257.249	21.226	1178.910	896.640
258.263	21.212	1178.046	895.834
259.278	21.269	1177.255	895.443
260.293	21.199	1176.991	894.806
261.307	21.256	1176.719	894.810
262.322	21.391	1175.854	894.763
263.336	21.471	1175.045	894.482
264.351	21.543	1174.352	894.239
265.366	21.481	1173.669	893.324
266.380	21.438	1173.239	892.701
267.395	21.282	1171.826	890.747
268.409	21.206	1170.782	889.488
269.424	21.188	1170.412	889.040
270.439	21.168	1169.753	888.359
271.453	21.052	1169.104	887.195
272.468	20.995	1167.913	885.926
273.482	20.926	1167.299	885.030
274.497	20.879	1166.568	884.157
275.512	20.911	1165.997	883.808
276.526	20.962	1164.982	883.221
277.541	20.909	1164.572	882.564
278.555	21.062	1163.783	882.663
279.570	21.299	1162.939	883.142
280.585	21.491	1162.678	883.834
281.599	21.459	1161.376	882.608
282.614	21.208	1159.983	880.201
283.628	21.149	1159.028	879.103
284.643	21.110	1157.959	878.022
285.657	21.186	1157.162	877.720
286.672	21.247	1156.432	877.393
287.687	21.244	1155.495	876.589
288.701	21.115	1154.911	875.421
289.716	21.186	1153.912	874.942
290.730	21.158	1153.397	874.336
291.745	21.266	1152.947	874.459
292.760	21.199	1152.561	873.751
293.774	21.368	1151.967	874.071
294.789	21.430	1151.836	874.203
295.803	21.478	1150.637	873.458
296.818	21.275	1149.170	871.250
297.833	21.179	1148.507	870.195
298.847	21.179	1148.305	869.967
299.862	21.244	1147.345	869.485
300.876	21.366	1146.636	869.475
301.891	21.362	1146.002	868.898
302.906	21.585	1145.014	869.178
303.920	21.771	1144.831	869.888
304.935	21.744	1144.642	869.533
305.949	22.023	1143.658	870.090
306.964	21.962	1142.910	869.145
307.979	21.680	1142.216	867.141
308.993	21.633	1141.417	866.226
310.008	21.697	1140.494	865.767
311.022	21.774	1140.113	865.781
312.037	21.821	1139.190	865.233
313.052	21.551	1138.357	863.193
314.066	21.467	1136.913	861.611
315.081	21.253	1135.810	859.644
316.095	21.191	1135.180	858.786
317.110	21.150	1134.735	858.173
318.125	21.170	1133.852	857.529
319.139	21.305	1132.930	857.414
320.154	21.216	1132.750	856.768
321.168	21.301	1131.893	856.461
322.183	21.191	1131.615	855.636
323.197	21.343	1130.622	855.554
324.212	21.362	1130.070	855.154
325.227	21.458	1129.654	855.231
326.241	21.475	1129.008	854.749
327.256	21.529	1127.472	853.772
328.270	21.499	1126.704	852.969
329.285	21.323	1126.000	851.506
330.300	21.299	1125.089	850.624
331.314	21.360	1124.241	850.206
332.329	21.328	1123.347	849.300
333.343	21.438	1122.650	849.230
334.358	21.507	1121.697	848.768
335.373	21.699	1121.071	849.148
336.387	21.626	1120.846	848.550
337.402	21.680	1120.021	848.111
338.416	21.792	1119.120	847.897
339.431	21.821	1119.071	847.922
340.446	22.023	1118.220	848.184
341.460	22.212	1117.743	848.655
342.475	22.269	1116.739	848.094
343.489	22.207	1116.159	847.280
344.504	22.336	1114.893	846.865
345.519	22.232	1114.278	845.820
346.533	22.371	1113.853	846.093
347.548	22.481	1112.882	845.810
348.562	22.355	1111.964	844.434
349.577	22.085	1111.084	842.392
350.592	21.928	1109.750	840.554
351.606	21.822	1109.140	839.511
352.621	21.620	1108.680	838.122
353.635	21.588	1107.927	837.325
354.650	21.814	1106.674	837.384
355.665	21.839	1106.383	837.212
356.679	21.934	1105.497	836.918
357.694	22.046	1104.999	837.001
358.708	22.070	1104.928	836.986
359.723	22.118	1104.174	836.571
360.738	22.028	1103.080	835.241
361.752	21.932	1103.172	834.779
362.767	22.015	1102.655	834.708
363.781	22.150	1101.847	834.663
364.796	22.250	1101.335	834.679
365.810	22.426	1100.988	835.177
366.825	22.615	1100.535	835.652
367.840	22.813	1099.905	836.038
368.854	22.740	1099.511	835.319
369.869	22.811	1098.925	835.136
370.883	22.555	1097.527	832.790
371.898	22.413	1096.820	831.511
372.913	22.485	1095.926	831.098
373.927	22.514	1095.447	830.800
374.942	22.631	1095.236	831.115
375.956	22.562	1094.703	830.315
376.971	22.550	1094.220	829.818
377.986	22.598	1093.965	829.778
379.000	22.681	1093.378	829.648
380.015	22.804	1092.666	829.612
381.029	22.855	1092.170	829.402
382.044	22.850	1091.217	828.581
383.059	22.768	1090.183	827.338
384.073	22.885	1089.201	827.071
385.088	22.990	1088.425	826.898
386.102	22.864	1087.756	825.726
387.117	22.577	1086.357	823.250
388.132	22.407	1085.594	821.808
389.146	22.550	1084.159	821.313
390.161	22.413	1083.746	820.292
391.175	22.231	1083.542	819.216
392.190	22.555	1082.622	819.954
393.205	22.789	1081.990	820.491
394.219	22.693	1081.261	819.420
395.234	22.553	1080.025	817.763
396.248	22.447	1079.142	816.532
397.263	22.577	1077.740	815.996
398.278	22.329	1077.088	814.287
399.292	22.217	1076.592	813.322
400.307	22.114	1075.975	812.305
401.321	22.198	1075.062	811.934
402.336	22.158	1074.373	811.155
403.350	22.282	1073.515	811.009
404.365	22.375	1073.134	811.080
405.380	22.439	1072.727	810.991
406.394	22.441	1072.302	810.607
407.409	22.725	1071.045	810.893
408.423	22.847	1070.490	810.962
409.438	22.884	1070.149	810.799
410.453	22.956	1069.602	810.644
411.467	22.994	1069.071	810.345
412.482	23.178	1068.485	810.673
413.496	23.220	1067.386	809.957
414.511	23.239	1066.958	809.651
415.526	23.371	1067.003	810.213
416.540	23.316	1066.517	809.524
417.555	23.289	1065.686	808.696
418.569	23.220	1065.356	808.059
419.584	23.146	1064.287	806.841
420.599	23.133	1064.033	806.517
421.613	157.797	1405.280	1797.514
422.628	145.222	1454.962	1797.594
