DTS Sentinel unit serial number:	SN413079Multiplexer serial number:	ORYXHardware model number:	OX4-SRSoftware version number:	ORYX F/W v4.00 Oryx Data Collector v3.7.2.0data status	okinstallation	princeton_trtdifferential loss correction	single-endedforward channel	channel 2reverse channel	N/Adate	2019/09/13time	08:59:35forward acquisition time	60.00reverse acquisition time	0.00gamma	496.2192k internal	0.2331k external	0.2331temperature offset calibration	1.0198default loss term (dB/km)	0.3790temperature slope calibration	1.0000multiplexer offset coefficient	1.0000multiplexer slope coefficient	1.0000fibre end	0.00T internal ref (°C)	28.39T ext. ref 1 (°C)	4.37T ext. ref 2 (°C)	25.65length (m)	temperature (°C)	Stokes	anti-Stokes-747.200	62.437	0.374	-0.376
-746.185	129.469	-0.182	0.234
-745.171	-130.686	0.101	-0.014
-744.156	-200.000	0.021	0.176
-743.142	-81.549	0.175	0.058
-742.127	168.286	-0.146	0.209
-741.112	-186.212	-0.289	0.004
-740.098	734.997	-0.197	0.531
-739.083	46.539	0.183	-0.171
-738.069	-99.961	0.376	0.095
-737.054	-109.858	-0.205	-0.043
-736.039	-138.671	-0.221	0.024
-735.025	232.882	0.253	0.418
-734.010	4.287	0.037	0.027
-732.996	-62.681	-0.441	0.184
-731.981	449.409	0.081	-0.180
-730.966	209.560	-0.182	0.288
-729.952	33.160	-0.136	-0.118
-728.937	-200.000	-0.039	0.317
-727.923	-116.721	-0.116	0.021
-726.908	-149.028	0.166	-0.013
-725.894	-97.817	-0.323	-0.084
-724.879	-170.711	0.143	-0.005
-723.864	-48.413	0.191	-0.093
-722.850	800.000	0.116	-0.332
-721.835	800.000	0.032	0.104
-720.821	-39.724	-0.291	0.153
-719.806	58.286	-0.123	-0.122
-718.791	-123.677	0.263	0.042
-717.777	-73.196	0.259	-0.095
-716.762	-200.000	0.000	-0.001
-715.748	800.000	-0.132	0.406
-714.733	-119.670	0.446	0.077
-713.718	-22.733	-0.067	-0.041
-712.704	183.083	-0.177	-0.263
-711.689	-18.388	0.267	0.168
-710.675	372.484	-0.155	0.316
-709.660	440.323	0.115	0.252
-708.645	-200.000	0.036	0.388
-707.631	173.851	0.321	0.465
-706.616	-76.156	0.096	-0.034
-705.602	119.968	0.111	-0.138
-704.587	217.751	-0.151	0.242
-703.572	-146.397	0.422	0.037
-702.558	106.524	-0.057	-0.068
-701.543	-77.977	0.346	-0.120
-700.529	-200.000	0.029	0.236
-699.514	319.907	-0.106	0.202
-698.499	99.867	-0.115	0.134
-697.485	-200.000	-0.020	-0.280
-696.470	800.000	0.083	-0.288
-695.456	-162.042	-0.272	0.014
-694.441	-69.404	-0.124	0.048
-693.426	39.071	0.160	-0.143
-692.412	-149.523	-0.182	-0.014
-691.397	69.137	0.020	-0.021
-690.383	103.943	-0.008	-0.009
-689.368	-200.000	0.027	-0.146
-688.354	35.576	0.270	0.238
-687.339	-140.795	-0.170	-0.018
-686.324	-27.698	-0.085	-0.050
-685.310	494.297	0.072	-0.166
-684.295	204.177	-0.175	-0.273
-683.281	-130.868	-0.371	-0.050
-682.266	-200.000	0.010	0.050
-681.251	-76.890	0.039	-0.014
-680.237	800.000	-0.055	0.161
-679.222	-101.548	-0.145	0.035
-678.208	426.649	0.046	-0.100
-677.193	-67.853	-0.122	-0.048
-676.178	603.929	-0.073	0.182
-675.164	74.789	-0.100	-0.106
-674.149	-48.813	0.117	0.056
-673.135	7.090	-0.281	-0.210
-672.120	38.010	0.070	-0.062
-671.105	218.444	0.143	-0.230
-670.091	82.447	0.245	-0.267
-669.076	-60.677	-0.077	-0.033
-668.062	800.000	0.079	0.297
-667.047	-89.889	-0.368	-0.108
-666.032	-174.379	0.064	-0.002
-665.018	-191.998	0.424	0.004
-664.003	-135.005	0.238	0.029
-662.989	-200.000	-0.000	-0.395
-661.974	-55.342	-0.094	0.042
-660.959	117.360	0.136	-0.168
-659.945	436.799	0.158	-0.346
-658.930	16.279	0.110	0.087
-657.916	-117.908	-0.096	0.017
-656.901	236.422	-0.252	-0.418
-655.886	-56.357	0.209	0.093
-654.872	-200.000	0.029	-0.204
-653.857	800.000	0.046	-0.186
-652.843	800.000	-0.110	-0.311
-651.828	-200.000	0.008	0.160
-650.814	800.000	-0.043	-0.153
-649.799	-200.000	-0.056	-0.391
-648.784	-200.000	0.037	-0.303
-647.770	9.931	0.270	0.205
-646.755	-150.697	0.153	0.012
-645.741	37.758	0.239	-0.213
-644.726	-103.863	0.169	-0.040
-643.711	114.832	0.068	0.083
-642.697	-40.787	-0.157	-0.082
-641.682	-60.157	0.091	-0.039
-640.668	-125.415	0.372	-0.057
-639.653	104.272	-0.137	-0.162
-638.638	-196.778	-0.253	-0.002
-637.624	77.990	-0.241	0.258
-636.609	172.237	-0.146	0.211
-635.595	-200.000	0.013	0.341
-634.580	24.838	-0.151	0.125
-633.565	-120.244	-0.143	-0.024
-632.551	3.772	0.202	0.148
-631.536	-27.812	-0.128	0.074
-630.522	-43.154	-0.141	0.072
-629.507	122.006	-0.134	-0.168
-628.492	-36.563	0.276	-0.149
-627.478	-127.598	-0.202	-0.029
-626.463	-65.027	0.202	0.082
-625.449	800.000	0.059	0.251
-624.434	89.621	0.098	0.110
-623.419	-99.461	0.502	0.127
-622.405	-158.580	0.335	-0.019
-621.390	-59.245	-0.153	-0.066
-620.376	-141.428	-0.175	0.018
-619.361	-200.000	0.061	-0.280
-618.346	-7.445	-0.182	-0.124
-617.332	96.791	-0.321	-0.368
-616.317	-52.743	0.043	-0.020
-615.303	-60.444	0.060	0.026
-614.288	-168.794	-0.357	0.013
-613.273	56.389	-0.079	-0.077
-612.259	-18.907	0.119	-0.074
-611.244	-140.204	0.125	-0.013
-610.230	800.000	0.088	-0.261
-609.215	-106.225	-0.068	-0.015
-608.201	119.169	-0.218	-0.270
-607.186	117.107	0.213	0.262
-606.171	33.843	-0.184	-0.160
-605.157	567.209	0.096	-0.234
-604.142	800.000	-0.073	-0.315
-603.128	73.971	0.253	-0.266
-602.113	-159.869	-0.078	0.004
-601.098	-200.000	-0.013	-0.110
-600.084	525.807	-0.076	-0.179
-599.069	174.984	0.191	-0.277
-598.055	-200.000	-0.010	0.073
-597.040	492.564	-0.107	-0.245
-596.025	-200.000	-0.002	-0.295
-595.011	3.841	0.036	0.026
-593.996	621.250	-0.100	-0.252
-592.982	311.780	-0.142	-0.267
-591.967	36.081	-0.114	0.100
-590.952	-152.800	-0.273	-0.019
-589.938	-200.000	-0.039	-0.322
-588.923	84.022	-0.128	-0.140
-587.909	-85.347	0.284	-0.089
-586.894	-74.622	0.142	-0.051
-585.879	-200.000	-0.015	-0.206
-584.865	800.000	0.037	0.107
-583.850	-200.000	0.019	-0.298
-582.836	-200.000	0.032	0.188
-581.821	75.339	-0.226	0.238
-580.806	46.715	0.235	0.218
-579.792	281.425	-0.068	0.121
-578.777	188.248	-0.144	-0.216
-577.763	800.000	0.086	0.348
-576.748	52.545	0.120	-0.115
-575.733	0.166	-0.168	0.120
-574.719	521.831	0.197	-0.463
-573.704	-25.213	0.143	-0.084
-572.690	800.000	-0.054	-0.195
-571.675	115.442	0.135	-0.165
-570.661	-90.089	0.236	-0.069
-569.646	-200.000	-0.018	0.333
-568.631	-134.058	-0.182	-0.022
-567.617	5.275	-0.083	0.061
-566.602	-200.000	-0.042	0.308
-565.588	10.022	-0.221	0.168
-564.573	-200.000	-0.014	0.091
-563.558	800.000	0.082	-0.349
-562.544	36.335	-0.183	-0.161
-561.529	-29.221	0.390	-0.223
-560.515	-200.000	-0.007	0.046
-559.500	-122.099	-0.257	0.042
-558.485	209.849	0.153	0.240
-557.471	-9.733	-0.290	0.193
-556.456	309.904	-0.089	0.166
-555.442	-26.591	-0.265	-0.155
-554.427	125.413	0.176	0.222
-553.412	-5.236	-0.140	-0.096
-552.398	-134.918	-0.147	0.018
-551.383	-6.341	0.125	0.085
-550.369	140.688	-0.248	-0.327
-549.354	-15.934	0.134	-0.085
-548.339	176.392	-0.257	-0.373
-547.325	-58.647	0.089	-0.038
-546.310	-135.794	-0.389	-0.046
-545.296	-200.000	0.035	-0.161
-544.281	800.000	-0.095	0.291
-543.266	-28.785	-0.140	0.081
-542.252	-200.000	-0.006	0.042
-541.237	-100.926	0.187	-0.046
-540.223	-200.000	0.004	0.149
-539.208	800.000	0.134	0.417
-538.193	-38.410	-0.295	-0.156
-537.179	95.972	0.108	0.123
-536.164	-64.208	-0.413	0.168
-535.150	-16.964	0.257	-0.162
-534.135	800.000	-0.039	-0.119
-533.121	800.000	-0.087	0.282
-532.106	800.000	-0.079	-0.235
-531.091	-200.000	-0.013	-0.277
-530.077	-66.515	-0.495	0.196
-529.062	800.000	-0.090	-0.292
-528.048	-200.000	0.008	-0.196
-527.033	-200.000	-0.007	-0.123
-526.018	3.692	-0.186	-0.136
-525.004	210.586	0.155	0.243
-523.989	800.000	-0.055	0.164
-522.975	-158.874	-0.182	0.010
-521.960	97.068	0.248	0.284
-520.945	-150.375	-0.401	-0.031
-519.931	-200.000	-0.015	-0.145
-518.916	-33.482	-0.109	0.060
-517.902	-67.903	-0.081	0.031
-516.887	800.000	-0.038	-0.157
-515.872	-0.925	-0.038	-0.027
-514.858	246.153	-0.100	0.168
-513.843	251.142	-0.063	0.106
-512.829	-200.000	0.049	0.423
-511.814	274.917	-0.042	0.073
-510.799	-200.000	0.069	0.308
-509.785	94.449	-0.221	-0.250
-508.770	-116.438	0.275	-0.051
-507.756	68.660	0.214	0.219
-506.741	287.311	-0.118	0.213
-505.726	-36.808	-0.144	-0.077
-504.712	68.018	-0.046	-0.047
-503.697	-34.155	-0.140	0.077
-502.683	29.960	0.280	0.238
-501.668	371.462	0.150	0.303
-500.653	-88.217	-0.180	0.054
-499.639	-151.172	0.408	-0.031
-498.624	-57.275	-0.121	0.053
-497.610	65.932	-0.187	0.189
-496.595	800.000	-0.067	0.247
-495.581	-73.786	0.220	0.080
-494.566	800.000	0.069	0.230
-493.551	277.052	0.133	-0.235
-492.537	-200.000	0.003	-0.121
-491.522	481.810	-0.119	0.269
-490.508	-68.039	-0.059	-0.023
-489.493	210.941	-0.122	0.192
-488.478	-138.352	0.286	0.031
-487.464	146.025	-0.099	0.132
-486.449	-35.708	-0.136	0.073
-485.435	144.818	0.128	-0.171
-484.420	19.473	0.203	-0.163
-483.405	260.990	0.090	0.156
-482.391	-70.635	0.137	-0.052
-481.376	-200.000	0.042	0.285
-480.362	-124.295	0.288	-0.045
-479.347	-200.000	-0.004	-0.076
-478.332	292.554	0.185	-0.335
-477.318	-128.868	-0.136	-0.019
-476.303	-28.789	-0.140	-0.080
-475.289	-33.516	0.147	0.081
-474.274	-1.551	-0.132	-0.093
-473.259	208.741	-0.202	0.315
-472.245	-11.888	0.344	0.224
-471.230	-59.559	-0.128	0.055
-470.216	-200.000	-0.022	-0.118
-469.201	150.546	0.121	0.164
-468.186	136.548	-0.041	0.053
-467.172	-105.817	0.342	0.077
-466.157	198.000	-0.125	0.190
-465.143	-18.678	-0.262	0.163
-464.128	800.000	-0.039	0.158
-463.113	59.616	0.095	-0.093
-462.099	-115.310	-0.355	-0.067
-461.084	-59.002	-0.056	-0.024
-460.070	-200.000	-0.001	0.187
-459.055	-170.165	0.044	0.002
-458.040	276.186	-0.123	-0.217
-457.026	-70.070	0.097	-0.037
-456.011	78.984	0.076	-0.081
-454.997	-143.252	-0.299	-0.029
-453.982	-45.492	-0.135	0.066
-452.968	-200.000	-0.014	-0.188
-451.953	166.060	-0.200	0.282
-450.938	-200.000	-0.057	0.333
-449.924	800.000	-0.151	0.422
-448.909	-112.770	-0.272	0.054
-447.895	670.494	0.178	-0.458
-446.880	-149.486	0.155	0.012
-445.865	67.205	-0.214	0.217
-444.851	-56.370	-0.106	0.047
-443.836	44.573	-0.101	0.092
-442.822	111.084	-0.204	-0.244
-441.807	43.460	-0.087	0.079
-440.792	-57.956	0.347	-0.151
-439.778	800.000	0.027	-0.110
-438.763	-78.939	-0.101	0.034
-437.749	281.393	0.072	0.128
-436.734	-55.994	0.244	0.108
-435.719	-11.048	-0.240	-0.157
-434.705	-108.598	-0.244	0.052
-433.690	-12.186	0.110	0.072
-432.676	95.723	0.174	-0.198
-431.661	78.073	-0.065	0.069
-430.646	-139.232	0.066	0.007
-429.632	122.639	-0.040	-0.050
-428.617	-200.000	0.006	0.054
-427.603	97.475	0.219	0.250
-426.588	-200.000	0.003	0.105
-425.573	159.393	-0.102	-0.142
-424.559	-200.000	0.024	-0.117
-423.544	21.079	-0.146	0.118
-422.530	-200.000	-0.003	-0.194
-421.515	-200.000	0.016	-0.341
-420.500	758.080	-0.038	-0.103
-419.486	800.000	0.047	-0.151
-418.471	330.521	-0.155	0.297
-417.457	-132.762	0.184	0.023
-416.442	227.114	-0.162	0.262
-415.428	165.997	0.160	0.224
-414.413	-200.000	0.002	0.241
-413.398	-200.000	0.024	0.126
-412.384	-86.802	-0.197	-0.060
-411.369	-200.000	-0.023	-0.194
-410.355	234.655	0.049	-0.081
-409.340	-152.055	0.100	0.007
-408.325	-13.929	-0.189	-0.121
-407.311	51.634	0.130	-0.123
-406.296	142.305	0.062	-0.082
-405.282	800.000	0.019	0.059
-404.267	800.000	0.081	-0.318
-403.252	-62.516	0.134	-0.055
-402.238	-62.494	-0.218	-0.090
-401.223	-200.000	0.132	0.000
-400.209	-127.685	-0.144	-0.021
-399.194	111.090	0.175	-0.209
-398.179	-112.808	0.075	-0.015
-397.165	33.712	0.022	0.019
-396.150	-77.048	-0.280	-0.097
-395.136	-200.000	-0.018	0.193
-394.121	476.171	-0.062	-0.138
-393.106	-96.410	0.163	0.043
-392.092	-157.321	0.412	0.025
-391.077	180.528	0.248	-0.361
-390.063	108.691	0.158	0.188
-389.048	1.791	-0.291	-0.208
-388.033	-47.494	0.299	0.144
-387.019	-200.000	0.024	-0.282
-386.004	51.232	0.068	-0.064
-384.990	-115.513	-0.346	-0.065
-383.975	-55.366	0.214	0.095
-382.960	42.716	0.359	0.325
-381.946	-94.148	-0.236	0.064
-380.931	-112.298	0.190	-0.038
-379.917	-134.003	-0.241	-0.030
-378.902	-200.000	0.011	0.278
-377.888	196.254	-0.133	-0.201
-376.873	-3.766	0.170	0.117
-375.858	800.000	0.029	0.119
-374.844	-114.588	-0.359	0.068
-373.829	800.000	-0.024	0.088
-372.815	98.235	-0.132	0.151
-371.800	800.000	-0.094	0.364
-370.785	-75.766	-0.125	-0.044
-369.771	409.074	-0.094	0.196
-368.756	-195.940	0.238	-0.002
-367.742	800.000	-0.056	0.225
-366.727	-198.931	-0.211	0.001
-365.712	447.778	-0.079	-0.173
-364.698	-200.000	-0.089	-0.000
-363.683	-200.000	0.019	-0.096
-362.669	-8.997	0.214	-0.142
-361.654	-200.000	-0.004	-0.123
-360.639	800.000	-0.074	0.220
-359.625	-17.565	0.165	0.103
-358.610	172.200	0.029	-0.041
-357.596	-7.305	0.090	-0.060
-356.581	235.196	0.078	0.127
-355.566	184.738	-0.130	0.191
-354.552	18.012	0.093	-0.074
-353.537	421.961	-0.076	0.161
-352.523	140.830	0.033	-0.044
-351.508	800.000	0.120	-0.337
-350.493	-75.491	-0.234	-0.083
-349.479	163.676	-0.180	0.251
-348.464	-32.745	0.461	0.254
-347.450	800.000	0.082	-0.321
-346.435	-43.126	-0.053	-0.026
-345.420	721.247	0.037	-0.097
-344.406	663.529	-0.069	0.176
-343.391	15.787	-0.262	0.204
-342.377	-88.680	0.421	-0.124
-341.362	307.625	0.121	0.224
-340.348	-23.665	0.079	0.047
-339.333	800.000	0.099	-0.293
-338.318	-200.000	-0.014	-0.234
-337.304	-200.000	0.013	0.257
-336.289	264.403	0.111	-0.192
-335.275	-2.627	-0.151	-0.105
-334.260	-57.870	-0.184	0.080
-333.245	-200.000	-0.020	0.354
-332.231	-178.122	-0.226	0.005
-331.216	-200.000	0.032	0.308
-330.202	339.497	0.169	0.325
-329.187	-200.000	0.092	0.497
-328.172	-96.826	0.151	-0.039
-327.158	-54.355	-0.042	0.019
-326.143	258.284	0.189	-0.322
-325.129	310.347	0.139	-0.257
-324.114	35.040	0.038	-0.033
-323.099	-200.000	-0.011	0.063
-322.085	-106.606	0.187	0.041
-321.070	-200.000	-0.021	0.186
-320.056	44.269	0.179	-0.163
-319.041	-115.670	0.227	0.042
-318.026	-200.000	-0.013	0.140
-317.012	-154.454	0.250	0.017
-315.997	492.910	0.039	-0.088
-314.983	-58.734	-0.270	-0.116
-313.968	256.772	0.103	0.176
-312.953	-4.888	0.243	0.166
-311.939	71.227	-0.240	0.247
-310.924	-200.000	0.012	-0.353
-309.910	482.890	-0.137	-0.307
-308.895	302.485	-0.165	-0.302
-307.880	-123.079	0.122	0.019
-306.866	-200.000	-0.023	-0.178
-305.851	785.289	0.075	-0.204
-304.837	-200.000	-0.002	-0.212
-303.822	-86.720	0.208	0.063
-302.807	-157.929	0.177	0.010
-301.793	800.000	-0.039	0.152
-300.778	-64.016	0.164	-0.066
-299.764	-13.417	0.209	0.134
-298.749	-41.903	0.277	0.141
-297.735	153.881	-0.146	0.197
-296.720	-109.062	0.230	0.048
-295.705	182.750	0.051	-0.075
-294.691	-30.766	-0.158	0.088
-293.676	-200.000	-0.006	0.335
-292.662	121.159	-0.101	-0.124
-291.647	-200.000	0.007	-0.094
-290.632	-84.596	-0.079	0.025
-289.618	529.843	-0.035	-0.081
-288.603	53.175	-0.143	-0.136
-287.589	-43.974	-0.210	0.104
-286.574	-112.526	0.231	-0.046
-285.559	345.681	0.040	-0.078
-284.545	-143.896	0.224	-0.021
-283.530	-59.741	-0.244	-0.103
-282.516	-67.404	-0.219	0.085
-281.501	-66.272	0.083	-0.033
-280.486	-70.901	0.080	-0.030
-279.472	-48.448	-0.266	0.127
-278.457	800.000	0.140	-0.428
-277.443	2.130	0.347	0.248
-276.428	800.000	-0.017	0.054
-275.413	-92.761	-0.306	-0.085
-274.399	254.959	-0.030	-0.051
-273.384	-31.473	0.046	-0.026
-272.370	800.000	-0.090	0.270
-271.355	300.048	0.082	-0.149
-270.340	-35.518	0.206	-0.110
-269.326	-200.000	0.008	0.079
-268.311	397.105	-0.064	0.132
-267.297	52.892	-0.222	0.209
-266.282	-114.798	0.199	0.037
-265.267	-54.811	-0.192	0.085
-264.253	65.402	0.146	-0.146
-263.238	89.170	-0.189	-0.207
-262.224	528.495	0.029	0.068
-261.209	-92.966	-0.134	-0.037
-260.195	-200.000	0.007	0.275
-259.180	115.410	0.294	-0.354
-258.165	-75.606	-0.100	0.035
-257.151	-17.937	0.240	0.148
-256.136	-61.624	0.492	0.204
-255.122	-200.000	-0.011	0.121
-254.107	64.106	-0.097	0.096
-253.092	-112.360	-0.231	-0.046
-252.078	-200.000	-0.009	0.056
-251.063	38.156	0.142	0.125
-250.049	-200.000	-0.003	0.098
-249.034	407.403	0.161	-0.336
-248.019	-48.313	0.198	0.094
-247.005	85.036	-0.139	-0.151
-245.990	800.000	-0.126	-0.459
-244.976	-97.810	0.166	-0.042
-243.961	63.503	-0.266	0.264
-242.946	800.000	0.136	0.474
-241.932	-76.173	0.101	-0.035
-240.917	95.991	-0.079	0.089
-239.903	210.547	-0.178	-0.276
-238.888	138.592	-0.003	0.004
-237.873	-98.042	-0.216	-0.055
-236.859	-7.379	-0.316	0.211
-235.844	182.114	-0.129	0.187
-234.830	-124.483	-0.207	0.032
-233.815	254.552	0.116	-0.195
-232.800	327.067	0.223	-0.421
-231.786	370.853	0.120	-0.241
-230.771	800.000	-0.060	0.177
-229.757	163.385	-0.144	-0.199
-228.742	142.635	0.175	-0.230
-227.727	-33.408	0.124	-0.068
-226.713	284.613	0.117	0.208
-225.698	88.293	0.146	0.160
-224.684	-25.262	-0.234	-0.136
-223.669	-126.215	-0.126	-0.019
-222.655	-12.699	-0.264	0.170
-221.640	-11.887	0.242	-0.156
-220.625	575.017	-0.068	-0.163
-219.611	-200.000	0.019	0.242
-218.596	-133.566	-0.326	-0.040
-217.582	16.620	-0.072	-0.056
-216.567	-101.703	-0.213	-0.051
-215.552	-113.026	-0.122	0.024
-214.538	-184.260	0.368	-0.006
-213.523	-200.000	-0.077	0.497
-212.509	278.094	0.062	0.109
-211.494	800.000	0.057	0.199
-210.479	-132.181	0.334	0.043
-209.465	-78.773	0.261	0.088
-208.450	-108.202	-0.102	-0.022
-207.436	-146.353	0.211	0.018
-206.421	-200.000	0.011	0.244
-205.406	105.003	-0.132	-0.154
-204.392	-9.810	-0.046	0.030
-203.377	41.200	-0.242	0.216
-202.363	-200.000	-0.000	0.011
-201.348	284.909	-0.120	-0.213
-200.333	43.923	-0.150	0.135
-199.319	-112.330	0.075	0.015
-198.304	-0.130	0.280	-0.196
-197.290	136.526	0.038	0.048
-196.275	-31.661	0.256	-0.142
-195.260	-82.478	0.390	0.125
-194.246	201.563	-0.048	-0.073
-193.231	-200.000	0.004	-0.101
-192.217	-136.746	0.235	0.027
-191.202	104.600	0.055	0.064
-190.187	-200.000	-0.007	-0.331
-189.173	-173.548	-0.143	0.004
-188.158	-200.000	0.060	0.270
-187.144	-56.415	0.410	0.179
-186.129	262.250	-0.162	-0.277
-185.114	-200.000	-0.006	-0.095
-184.100	77.585	-0.207	-0.217
-183.085	-200.000	-0.053	0.243
-182.071	-42.387	-0.367	-0.184
-181.056	-200.000	-0.045	-0.311
-180.042	98.652	0.126	0.143
-179.027	800.000	0.085	-0.261
-178.012	88.305	0.196	0.215
-176.998	701.145	0.045	-0.118
-175.983	65.022	-0.072	-0.072
-174.969	-200.000	-0.032	-0.244
-173.954	-135.881	0.350	0.041
-172.939	27.046	0.214	0.177
-171.925	-87.565	-0.304	-0.090
-170.910	-135.009	0.187	-0.022
-169.896	-120.154	0.118	-0.020
-168.881	-200.000	-0.018	-0.097
-167.866	26.555	0.370	-0.305
-166.852	-153.156	-0.203	0.014
-165.837	-200.000	-0.029	0.171
-164.823	-149.445	0.336	-0.026
-163.808	-8.101	-0.244	-0.161
-162.793	26.551	0.011	-0.009
-161.779	-3.273	-0.153	0.105
-160.764	64.069	0.109	0.108
-159.750	-34.766	-0.534	0.287
-158.735	-200.000	-0.002	-0.131
-157.720	-94.952	0.163	0.043
-156.706	-200.000	-0.004	-0.186
-155.691	2.169	0.068	0.048
-154.677	215.238	0.125	-0.196
-153.662	-125.243	-0.207	0.031
-152.647	209.925	-0.161	-0.249
-151.633	-36.272	-0.206	0.109
-150.618	7.040	0.411	0.301
-149.604	-171.196	0.344	0.011
-148.589	-200.000	-0.051	0.269
-147.574	329.835	0.056	-0.105
-146.560	34.449	0.075	0.065
-145.545	556.832	0.110	0.261
-144.531	-200.000	-0.022	0.428
-143.516	5.811	0.130	-0.094
-142.502	-66.737	0.036	0.014
-141.487	-92.138	0.257	0.071
-140.472	100.762	-0.098	0.112
-139.458	-75.806	0.217	0.076
-138.443	60.780	0.301	0.293
-137.429	450.603	-0.074	0.161
-136.414	-89.293	-0.083	0.024
-135.399	461.267	0.189	0.414
-134.385	28.905	-0.129	0.108
-133.370	-155.688	0.252	0.016
-132.356	113.825	0.161	0.192
-131.341	481.493	0.088	-0.197
-130.326	-54.598	-0.143	0.064
-129.312	310.656	-0.031	0.057
-128.297	105.747	0.196	0.227
-127.283	-47.464	-0.240	-0.115
-126.268	254.829	0.052	-0.087
-125.253	229.987	0.094	-0.151
-124.239	-125.821	0.388	-0.058
-123.224	-200.000	0.248	-0.001
-122.210	11.626	-0.163	0.123
-121.195	3.756	0.231	0.166
-120.180	-200.000	0.007	-0.370
-119.166	262.646	0.108	-0.184
-118.151	800.000	-0.004	-0.013
-117.137	275.262	-0.184	0.321
-116.122	-144.121	0.282	-0.026
-115.107	-101.482	0.196	0.047
-114.093	-7.294	0.310	-0.207
-113.078	-200.000	-0.047	0.262
-112.064	117.671	0.110	-0.133
-111.049	-127.977	-0.091	0.013
-110.034	43.052	-0.123	0.110
-109.020	-136.408	0.126	-0.014
-108.005	800.000	0.021	-0.057
-106.991	-28.092	0.248	0.141
-105.976	68.494	0.077	-0.078
-104.962	-83.654	0.070	-0.022
-103.947	-52.621	-0.235	0.106
-102.932	-110.054	0.346	0.071
-101.918	-197.210	-0.084	-0.001
-100.903	189.327	-0.040	0.059
-99.889	21.000	0.260	0.207
-98.874	14.957	0.252	0.193
-97.859	117.721	-0.300	0.363
-96.845	210.272	0.116	-0.178
-95.830	800.000	-0.029	-0.111
-94.816	-138.362	-0.149	0.016
-93.801	246.767	-0.180	-0.298
-92.786	-200.000	-0.001	0.074
-91.772	800.000	-0.138	-0.387
-90.757	-200.000	-0.032	-0.234
-89.743	-89.150	0.318	0.092
-88.728	-200.000	0.062	0.284
-87.713	12.692	-0.109	-0.082
-86.699	-154.802	0.310	0.020
-85.684	27.732	-0.207	0.171
-84.670	800.000	0.122	-0.481
-83.655	-200.000	0.035	0.211
-82.640	214.154	0.069	-0.108
-81.626	156.791	-0.053	-0.072
-80.611	180.526	0.155	-0.223
-79.597	-114.136	-0.159	0.030
-78.582	-76.190	0.324	0.112
-77.567	467.459	-0.141	0.311
-76.553	-145.152	0.106	0.009
-75.538	800.000	0.120	-0.328
-74.524	-145.568	-0.254	-0.022
-73.509	89.307	-0.137	-0.150
-72.494	-51.993	-0.217	0.099
-71.480	-58.272	0.185	-0.079
-70.465	800.000	0.055	0.198
-69.451	-33.533	-0.095	-0.052
-68.436	800.000	0.035	-0.149
-67.422	-200.000	-0.031	0.286
-66.407	-138.968	0.130	-0.014
-65.392	-58.128	-0.204	0.087
-64.378	-157.548	0.084	-0.005
-63.363	-200.000	-0.001	-0.017
-62.349	-115.426	-0.056	-0.010
-61.334	58.804	-0.927	-0.893
-60.319	23.470	0.765	0.616
-59.305	710.348	-0.392	-1.017
-58.290	149.923	0.720	0.957
-57.276	300.589	0.785	1.419
-56.261	-200.000	109.255	598.725
-55.246	490.901	1523.086	3414.890
-54.232	172.767	2722.935	3840.991
-53.217	101.522	2307.143	2633.693
-52.203	37.385	1910.059	1658.526
-51.188	31.545	1696.355	1428.479
-50.173	28.948	1653.931	1373.340
-49.159	47.978	1709.426	1564.473
-48.144	47.655	1724.252	1575.518
-47.130	31.168	1680.775	1412.288
-46.115	28.475	1666.200	1379.750
-45.100	28.317	1661.023	1374.220
-44.086	28.240	1658.807	1371.756
-43.071	28.265	1655.502	1369.158
-42.057	28.223	1653.654	1367.256
-41.042	28.244	1651.536	1365.614
-40.027	28.218	1649.613	1363.770
-39.013	28.223	1647.393	1361.919
-37.998	28.224	1646.145	1360.841
-36.984	28.301	1644.505	1360.006
-35.969	28.309	1643.357	1359.058
-34.954	28.407	1641.734	1358.388
-33.940	28.393	1639.869	1356.689
-32.925	28.395	1638.507	1355.526
-31.911	28.353	1636.513	1353.508
-30.896	28.428	1634.873	1352.654
-29.881	28.413	1633.077	1351.003
-28.867	28.351	1631.687	1349.340
-27.852	28.383	1629.954	1348.091
-26.838	28.387	1629.309	1347.533
-25.823	28.426	1627.243	1346.059
-24.809	28.394	1626.435	1345.105
-23.794	28.371	1624.940	1343.643
-22.779	28.393	1623.499	1342.562
-21.765	28.429	1621.496	1341.112
-20.750	28.321	1620.253	1339.244
-19.736	28.451	1618.821	1338.958
-18.721	28.517	1617.716	1338.469
-17.706	28.472	1615.793	1336.497
-16.692	28.403	1614.563	1334.923
-15.677	28.393	1612.937	1333.456
-14.663	28.570	1611.078	1333.152
-13.648	28.452	1610.672	1331.906
-12.633	28.375	1609.223	1330.092
-11.619	28.479	1607.171	1329.099
-10.604	28.405	1605.642	1327.249
-9.590	28.424	1604.601	1326.471
-8.575	28.359	1603.727	1325.224
-7.560	28.450	1601.783	1324.224
-6.546	28.448	1600.935	1323.457
-5.531	28.428	1599.800	1322.323
-4.517	28.448	1598.312	1321.180
-3.502	28.400	1597.338	1319.979
-2.487	28.480	1595.939	1319.347
-1.473	28.431	1584.325	1309.345
-0.458	25.996	1566.286	1277.165
0.556	24.917	1568.131	1248.164
1.571	22.802	1592.552	1252.497
2.586	22.205	1605.019	1257.923
3.600	19.723	1549.921	1197.461
4.615	12.127	1441.372	1064.382
5.629	5.558	1379.459	977.659
6.644	4.305	1371.881	964.415
7.659	4.330	1370.982	963.855
8.673	4.382	1370.049	963.433
9.688	4.463	1367.587	962.116
10.702	4.333	1365.178	959.536
11.717	7.581	1371.148	983.791
12.731	15.511	1385.600	1043.534
13.746	21.481	1395.483	1088.137
14.761	22.688	1395.850	1095.831
15.775	21.946	1394.135	1089.778
16.790	21.020	1391.297	1081.724
17.804	20.241	1388.866	1074.916
18.819	20.006	1387.770	1072.515
19.834	19.916	1387.112	1071.351
20.848	19.712	1386.197	1069.292
21.863	19.564	1384.648	1067.086
22.877	19.500	1383.409	1065.645
23.892	19.304	1383.226	1064.199
24.907	19.325	1382.246	1063.476
25.921	19.373	1381.122	1062.817
26.936	19.462	1379.932	1062.352
27.950	19.471	1379.047	1061.633
28.965	19.541	1378.064	1061.213
29.980	19.711	1377.411	1061.658
30.994	19.787	1376.130	1061.044
32.009	19.920	1374.843	1060.777
33.023	19.822	1373.851	1059.313
34.038	19.790	1372.960	1058.340
35.053	19.636	1371.559	1056.222
36.067	19.622	1370.288	1055.066
37.082	19.696	1369.457	1054.785
38.096	19.778	1368.677	1054.588
39.111	19.629	1368.176	1053.202
40.126	19.581	1367.125	1052.007
41.140	19.302	1366.322	1049.601
42.155	19.120	1365.469	1047.743
43.169	19.095	1365.100	1047.214
44.184	18.915	1365.006	1045.954
45.199	19.006	1364.442	1045.985
46.213	19.327	1364.016	1047.517
47.228	19.471	1363.477	1047.885
48.242	19.516	1362.471	1047.288
49.257	19.509	1360.888	1045.936
50.271	19.569	1358.933	1044.708
51.286	19.436	1358.437	1043.428
52.301	19.497	1356.432	1042.166
53.315	19.397	1355.207	1040.527
54.330	19.322	1354.305	1039.294
55.344	19.135	1353.639	1037.560
56.359	19.213	1352.091	1036.752
57.374	19.034	1352.066	1035.566
58.388	19.165	1350.630	1035.158
59.403	19.048	1350.348	1034.149
60.417	19.059	1349.280	1033.303
61.432	18.967	1348.365	1031.963
62.447	18.849	1347.642	1030.608
63.461	18.742	1346.237	1028.805
64.476	18.762	1345.360	1028.163
65.490	18.889	1343.349	1027.295
66.505	18.851	1342.413	1026.257
67.520	18.843	1341.283	1025.256
68.534	18.913	1339.930	1024.550
69.549	18.930	1338.785	1023.686
70.563	18.772	1337.884	1021.961
71.578	18.683	1337.140	1020.773
72.593	18.555	1336.070	1019.109
73.607	18.593	1335.446	1018.770
74.622	18.696	1334.092	1018.258
75.636	18.767	1333.803	1018.363
76.651	18.745	1333.169	1017.663
77.666	18.697	1332.911	1017.090
78.680	18.909	1331.915	1017.498
79.695	18.906	1331.644	1017.179
80.709	19.042	1331.112	1017.487
81.724	19.136	1330.367	1017.384
82.739	19.245	1329.583	1017.337
83.753	19.466	1328.778	1017.937
84.768	19.608	1327.884	1017.998
85.782	19.645	1327.153	1017.568
86.797	19.663	1325.734	1016.496
87.812	19.510	1324.584	1014.621
88.826	19.521	1323.412	1013.702
89.841	19.644	1322.220	1013.417
90.855	19.650	1321.772	1013.021
91.870	19.687	1321.068	1012.606
92.884	19.661	1319.986	1011.536
93.899	19.580	1320.035	1011.009
94.914	19.899	1318.006	1011.234
95.928	19.805	1317.611	1010.289
96.943	19.711	1316.724	1008.972
97.957	19.744	1315.823	1008.385
98.972	19.659	1315.133	1007.270
99.987	19.654	1313.752	1006.094
101.001	19.655	1313.151	1005.551
102.016	19.708	1311.937	1004.842
103.030	19.628	1311.486	1003.939
104.045	19.658	1310.000	1002.890
105.060	19.471	1309.056	1000.996
106.074	19.118	1307.274	997.501
107.089	18.960	1305.634	995.242
108.103	18.842	1304.246	993.417
109.118	18.878	1303.052	992.624
110.133	18.957	1301.762	992.014
111.147	18.953	1300.307	990.792
112.162	18.988	1299.399	990.212
113.176	19.091	1297.827	989.523
114.191	19.128	1297.078	989.072
115.206	19.152	1295.830	988.173
116.220	19.029	1294.903	986.675
117.235	19.173	1293.624	986.437
118.249	18.973	1292.834	984.599
119.264	18.878	1291.982	983.322
120.279	18.850	1290.589	982.013
121.293	18.903	1289.269	981.228
122.308	18.744	1288.324	979.512
123.322	18.704	1287.310	978.425
124.337	18.591	1286.568	977.131
125.352	18.630	1284.875	975.985
126.366	18.619	1284.221	975.335
127.381	18.658	1283.219	974.714
128.395	18.644	1282.199	973.771
129.410	18.764	1281.043	973.486
130.424	18.828	1280.627	973.449
131.439	18.886	1280.228	973.388
132.454	18.928	1279.188	972.750
133.468	18.973	1278.502	972.391
134.483	19.041	1277.393	971.849
135.497	19.123	1276.442	971.502
136.512	19.059	1275.451	970.301
137.527	19.112	1273.951	969.371
138.541	19.193	1272.840	968.895
139.556	19.251	1271.383	968.031
140.570	19.324	1270.773	967.889
141.585	19.372	1269.625	967.197
142.600	19.458	1268.599	966.813
143.614	19.621	1267.655	966.919
144.629	19.573	1267.426	966.391
145.643	19.569	1265.501	964.815
146.658	19.402	1264.148	962.765
147.673	19.259	1262.597	960.702
148.687	19.180	1261.476	959.327
149.702	19.159	1259.973	957.981
150.716	19.052	1258.478	956.163
151.731	19.025	1257.204	954.960
152.746	19.087	1256.244	954.490
153.760	19.281	1255.333	954.788
154.775	19.406	1254.032	954.407
155.789	19.362	1253.043	953.326
156.804	19.396	1252.482	953.005
157.819	19.498	1251.274	952.563
158.833	19.646	1250.546	952.739
159.848	19.695	1250.035	952.538
160.862	19.664	1248.977	951.478
161.877	19.380	1247.239	948.504
162.892	19.196	1246.078	946.528
163.906	19.077	1245.104	945.053
164.921	19.053	1244.487	944.366
165.935	19.187	1243.905	944.576
166.950	19.280	1242.767	944.141
167.964	19.298	1242.216	943.735
168.979	19.241	1241.302	942.647
169.994	19.177	1240.812	941.843
171.008	19.315	1239.936	941.849
172.023	19.388	1239.022	941.468
173.037	19.610	1238.437	942.150
174.052	19.562	1237.960	941.444
175.067	19.379	1235.983	938.860
176.081	19.085	1235.318	936.674
177.096	19.137	1234.161	935.996
178.110	19.295	1232.835	935.764
179.125	19.185	1232.176	934.582
180.140	19.362	1230.887	934.481
181.154	19.349	1230.112	933.743
182.169	19.559	1228.785	933.791
183.183	19.586	1227.730	933.048
184.198	19.694	1226.944	932.951
185.213	19.719	1226.053	932.325
186.227	19.708	1224.787	931.222
187.242	19.728	1224.155	930.765
188.256	19.870	1222.802	930.420
189.271	19.920	1222.211	930.159
190.286	19.696	1221.115	928.040
191.300	19.182	1219.586	924.035
192.315	19.093	1218.886	922.945
193.329	19.225	1218.824	923.524
194.344	19.292	1218.008	923.186
195.359	19.418	1217.268	923.215
196.373	19.479	1216.856	923.149
197.388	19.687	1216.354	923.801
198.402	19.781	1216.604	924.410
199.417	19.931	1215.947	924.632
200.432	20.009	1215.449	924.583
201.446	20.107	1214.680	924.443
202.461	20.179	1214.230	924.402
203.475	20.337	1212.696	923.990
204.490	19.914	1211.101	920.449
205.504	19.744	1209.872	918.528
206.519	19.681	1208.648	917.184
207.534	19.739	1207.345	916.423
208.548	19.773	1206.073	915.552
209.563	19.799	1205.920	915.494
210.577	19.677	1204.891	913.988
211.592	19.889	1203.678	914.104
212.607	20.054	1203.244	914.565
213.621	20.003	1202.590	913.719
214.636	19.847	1201.797	912.213
215.650	20.015	1200.829	912.281
216.665	20.043	1200.025	911.738
217.680	20.182	1199.330	911.859
218.694	20.227	1198.376	911.290
219.709	20.116	1198.095	910.414
220.723	20.209	1196.859	909.885
221.738	20.178	1195.979	908.969
222.753	20.129	1195.400	908.195
223.767	20.219	1194.462	907.871
224.782	20.239	1194.477	907.908
225.796	20.373	1193.496	907.782
226.811	20.300	1192.461	906.535
227.826	20.152	1191.908	905.257
228.840	20.085	1191.077	904.199
229.855	19.980	1190.409	903.064
230.869	20.135	1189.103	902.801
231.884	19.972	1188.455	901.378
232.899	19.898	1187.491	900.184
233.913	19.663	1187.154	898.627
234.928	19.885	1185.681	898.587
235.942	19.739	1185.256	897.424
236.957	19.726	1184.486	896.696
237.972	19.849	1183.574	896.566
238.986	19.868	1182.770	895.972
240.001	19.746	1182.879	895.347
241.015	19.930	1181.439	895.128
242.030	19.908	1181.010	894.608
243.045	20.146	1179.761	894.814
244.059	20.078	1179.644	894.294
245.074	20.168	1178.601	893.888
246.088	20.282	1177.789	893.779
247.103	20.230	1177.416	893.151
248.117	20.490	1176.705	893.869
249.132	20.700	1176.212	894.497
250.147	20.753	1176.033	894.554
251.161	20.929	1175.255	894.787
252.176	20.981	1174.607	894.479
253.190	21.098	1174.076	894.595
254.205	21.197	1173.779	894.799
255.220	21.063	1173.035	893.464
256.234	21.141	1171.998	892.994
257.249	21.183	1171.551	892.793
258.263	21.065	1170.493	891.304
259.278	20.966	1170.292	890.568
260.293	21.122	1169.462	890.653
261.307	21.066	1169.177	890.069
262.322	21.120	1168.370	889.650
263.336	21.110	1167.837	889.116
264.351	21.290	1167.255	889.512
265.366	21.304	1166.094	888.621
266.380	21.225	1165.665	887.811
267.395	21.224	1164.536	886.867
268.409	20.974	1163.949	885.072
269.424	21.033	1163.073	884.630
270.439	20.870	1162.816	883.528
271.453	20.983	1161.503	883.027
272.468	20.764	1160.842	881.335
273.482	20.824	1159.492	880.537
274.497	20.894	1158.952	880.404
275.512	20.778	1158.692	879.543
276.526	20.791	1157.765	878.823
277.541	20.867	1156.773	878.377
278.555	20.934	1156.282	878.267
279.570	21.201	1155.802	879.165
280.585	21.278	1155.197	879.015
281.599	21.218	1154.450	878.067
282.614	21.003	1153.368	876.090
283.628	21.069	1151.570	874.972
284.643	20.888	1151.159	873.678
285.657	20.961	1150.189	873.232
286.672	21.007	1149.218	872.645
287.687	20.970	1148.445	871.796
288.701	21.065	1147.661	871.601
289.716	21.111	1146.828	871.117
290.730	21.013	1146.349	870.191
291.745	21.204	1145.587	870.485
292.760	21.106	1145.410	869.784
293.774	21.174	1144.741	869.541
294.789	21.309	1144.359	869.845
295.803	21.412	1143.502	869.627
296.818	21.189	1142.535	867.708
297.833	21.153	1141.748	866.853
298.847	21.111	1140.991	865.993
299.862	21.056	1140.415	865.207
300.876	21.132	1139.549	864.853
301.891	21.228	1139.247	865.019
302.906	21.383	1138.359	865.038
303.920	21.656	1137.541	865.689
304.935	21.561	1137.449	865.070
305.949	21.785	1136.476	865.362
306.964	21.702	1135.876	864.421
307.979	21.492	1135.207	862.797
308.993	21.374	1134.730	861.777
310.008	21.406	1133.991	861.296
311.022	21.644	1132.876	861.544
312.037	21.591	1131.899	860.465
313.052	21.548	1130.926	859.438
314.066	21.331	1129.504	857.218
315.081	21.141	1128.954	855.792
316.095	21.051	1127.708	854.334
317.110	21.125	1127.048	854.120
318.125	21.071	1126.387	853.281
319.139	21.053	1126.083	852.886
320.154	21.169	1125.158	852.674
321.168	21.183	1124.596	852.240
322.183	21.216	1124.089	851.944
323.197	21.220	1123.758	851.634
324.212	21.186	1123.297	851.049
325.227	21.227	1122.482	850.555
326.241	21.248	1121.768	850.041
327.256	21.242	1121.031	849.374
328.270	21.232	1119.927	848.415
329.285	21.148	1119.040	847.263
330.300	21.232	1117.423	846.367
331.314	21.208	1116.903	845.786
332.329	21.236	1116.054	845.202
333.343	21.220	1115.375	844.538
334.358	21.426	1114.548	844.832
335.373	21.532	1114.238	845.032
336.387	21.471	1113.577	844.163
337.402	21.509	1112.826	843.701
338.416	21.673	1111.861	843.683
339.431	21.704	1111.644	843.597
340.446	21.779	1111.077	843.448
341.460	21.972	1110.641	843.975
342.475	22.128	1109.599	843.856
343.489	22.050	1109.102	843.030
344.504	22.156	1107.951	842.590
345.519	22.191	1107.384	842.249
346.533	22.208	1106.208	841.360
347.548	22.278	1105.835	841.336
348.562	22.221	1104.447	839.937
349.577	22.000	1103.697	838.234
350.592	21.851	1102.686	836.681
351.606	21.728	1101.652	835.238
352.621	21.622	1100.996	834.161
353.635	21.508	1100.640	833.278
354.650	21.646	1099.961	833.343
355.665	21.653	1099.143	832.683
356.679	21.707	1098.944	832.715
357.694	21.869	1098.221	832.864
358.708	21.867	1097.639	832.338
359.723	21.939	1096.675	831.875
360.738	21.862	1096.618	831.395
361.752	21.861	1095.991	830.839
362.767	21.927	1095.101	830.405
363.781	21.986	1094.374	830.061
364.796	22.173	1094.315	830.826
365.810	22.176	1093.821	830.391
366.825	22.398	1093.330	830.994
367.840	22.540	1093.201	831.493
368.854	22.560	1092.387	830.891
369.869	22.522	1091.605	830.047
370.883	22.448	1090.211	828.564
371.898	22.240	1089.633	827.071
372.913	22.297	1089.182	826.928
373.927	22.320	1088.333	826.316
374.942	22.353	1088.412	826.456
375.956	22.473	1087.673	826.388
376.971	22.476	1086.478	825.422
377.986	22.516	1086.203	825.323
379.000	22.566	1086.036	825.361
380.015	22.694	1085.662	825.601
381.029	22.793	1084.806	825.341
382.044	22.666	1084.402	824.368
383.059	22.620	1083.264	823.213
384.073	22.673	1082.437	822.759
385.088	22.796	1081.384	822.461
386.102	22.624	1080.357	820.803
387.117	22.619	1079.053	819.719
388.132	22.366	1078.258	817.866
389.146	22.187	1077.771	816.594
390.161	22.161	1077.158	815.935
391.175	22.233	1076.169	815.448
392.190	22.467	1075.507	815.958
393.205	22.491	1075.184	815.753
394.219	22.643	1074.089	815.553
395.234	22.464	1073.435	814.154
396.248	22.357	1071.816	812.362
397.263	22.314	1071.207	811.632
398.278	22.275	1070.027	810.484
399.292	22.230	1069.401	809.731
400.307	22.247	1068.759	809.254
401.321	22.110	1068.279	808.187
402.336	22.074	1067.775	807.570
403.350	22.118	1067.194	807.261
404.365	22.331	1065.963	807.237
405.380	22.449	1065.153	807.089
406.394	22.494	1064.950	807.074
407.409	22.555	1064.254	806.754
408.423	22.724	1063.580	806.943
409.438	22.921	1062.791	807.172
410.453	22.953	1062.257	806.842
411.467	23.013	1061.555	806.511
412.482	23.045	1060.982	806.152
413.496	23.080	1060.340	805.751
414.511	23.077	1060.278	805.618
415.526	23.165	1059.955	805.704
416.540	23.238	1059.776	805.826
417.555	23.185	1058.986	804.916
418.569	22.941	1058.129	803.085
419.584	23.047	1057.854	803.287
420.599	23.058	1056.998	802.614
421.613	157.203	1402.443	1794.994
422.628	144.478	1452.792	1795.079
