DTS Sentinel unit serial number:	SN413079Multiplexer serial number:	ORYXHardware model number:	OX4-SRSoftware version number:	ORYX F/W v4.00 Oryx Data Collector v3.7.2.0data status	okinstallation	princeton_trtdifferential loss correction	single-endedforward channel	channel 2reverse channel	N/Adate	2019/09/13time	20:39:35forward acquisition time	60.00reverse acquisition time	0.00gamma	496.2192k internal	0.2334k external	0.2334temperature offset calibration	1.0136default loss term (dB/km)	0.3790temperature slope calibration	1.0000multiplexer offset coefficient	1.0000multiplexer slope coefficient	1.0000fibre end	0.00T internal ref (°C)	28.94T ext. ref 1 (°C)	3.26T ext. ref 2 (°C)	23.49length (m)	temperature (°C)	Stokes	anti-Stokes-747.200	87.049	-0.217	-0.241
-746.185	-76.336	-0.308	0.109
-745.171	-200.000	0.003	0.354
-744.156	-200.000	-0.039	0.252
-743.142	97.706	0.190	-0.219
-742.127	-101.498	-0.311	-0.076
-741.112	800.000	0.049	0.145
-740.098	421.107	0.032	0.068
-739.083	-96.276	0.072	0.019
-738.069	-189.179	0.122	-0.001
-737.054	4.675	-0.056	0.042
-736.039	-171.981	-0.136	-0.004
-735.025	56.428	0.236	0.231
-734.010	-60.591	-0.334	0.143
-732.996	29.164	0.199	-0.169
-731.981	-71.973	-0.074	0.028
-730.966	-53.174	-0.151	-0.070
-729.952	-200.000	-0.019	-0.175
-728.937	-72.742	-0.063	-0.023
-727.923	-200.000	-0.444	0.002
-726.908	-139.810	-0.328	0.035
-725.894	-18.909	-0.248	0.155
-724.879	800.000	0.033	-0.093
-723.864	800.000	0.020	0.067
-722.850	-118.241	-0.454	-0.081
-721.835	-200.000	-0.010	-0.471
-720.821	234.226	0.008	-0.013
-719.806	-63.596	0.245	-0.101
-718.791	355.428	0.153	0.305
-717.777	-178.968	-0.470	-0.011
-716.762	-60.653	0.230	-0.098
-715.748	543.088	-0.037	0.089
-714.733	-107.350	-0.045	0.010
-713.718	-91.139	-0.068	-0.020
-712.704	800.000	-0.045	0.188
-711.689	8.714	0.173	-0.131
-710.675	-200.000	0.014	-0.625
-709.660	-92.401	-0.265	-0.075
-708.645	153.065	0.038	-0.052
-707.631	532.620	-0.223	-0.530
-706.616	173.155	-0.142	-0.206
-705.602	13.289	0.542	-0.421
-704.587	757.462	-0.049	0.134
-703.572	551.184	0.057	0.138
-702.558	162.823	0.134	-0.189
-701.543	-84.551	-0.314	0.100
-700.529	-119.605	-0.303	-0.053
-699.514	201.795	0.087	-0.135
-698.499	-27.384	-0.235	0.137
-697.485	351.232	0.097	-0.193
-696.470	-40.997	0.005	0.002
-695.456	-11.149	0.251	0.166
-694.441	441.045	0.147	-0.323
-693.426	284.989	-0.069	-0.124
-692.412	6.134	-0.178	-0.132
-691.397	310.085	0.058	-0.110
-690.383	-200.000	-0.017	-0.210
-689.368	-147.825	-0.145	-0.012
-688.354	-135.508	-0.262	-0.031
-687.339	3.302	-0.057	-0.041
-686.324	-200.000	0.015	-0.114
-685.310	-89.285	0.201	0.059
-684.295	-3.186	-0.032	0.023
-683.281	-83.245	-0.355	-0.114
-682.266	228.900	0.187	-0.306
-681.251	800.000	-0.035	0.107
-680.237	386.792	0.068	0.141
-679.222	-96.282	-0.387	-0.103
-678.208	61.630	-0.059	-0.059
-677.193	-56.804	-0.320	0.142
-676.178	-200.000	-0.009	0.236
-675.164	-122.204	-0.352	-0.058
-674.149	-200.000	0.175	0.000
-673.135	-200.000	-0.004	0.054
-672.120	201.499	0.168	-0.259
-671.105	308.659	-0.029	0.055
-670.091	-35.150	-0.147	-0.080
-669.076	800.000	0.027	0.106
-668.062	800.000	-0.045	0.180
-667.047	800.000	-0.069	0.258
-666.032	-35.689	0.249	-0.136
-665.018	29.545	-0.251	-0.214
-664.003	-90.119	-0.053	-0.015
-662.989	-54.611	0.063	-0.029
-661.974	-97.878	0.130	0.034
-660.959	-200.000	-0.033	-0.148
-659.945	224.459	-0.029	-0.048
-658.930	-180.221	-0.133	-0.003
-657.916	-164.018	0.178	-0.008
-656.901	-122.918	-0.245	0.039
-655.886	771.520	-0.114	-0.310
-654.872	-182.906	-0.238	-0.004
-653.857	-134.649	-0.076	-0.009
-652.843	180.435	0.139	-0.204
-651.828	173.602	-0.194	0.280
-650.814	111.948	0.118	0.143
-649.799	800.000	-0.036	-0.156
-648.784	-200.000	0.009	0.090
-647.770	175.187	0.183	-0.265
-646.755	224.766	0.067	0.108
-645.741	34.189	0.054	0.047
-644.726	209.703	-0.059	-0.093
-643.711	108.999	-0.198	-0.237
-642.697	-134.828	0.292	0.035
-641.682	219.027	0.165	0.264
-640.668	-49.872	0.177	0.084
-639.653	-200.000	0.016	-0.072
-638.638	-35.249	0.051	-0.028
-637.624	-91.943	-0.191	-0.054
-636.609	51.939	-0.083	0.079
-635.595	-26.215	-0.127	-0.075
-634.580	137.379	-0.260	0.340
-633.565	-200.000	-0.005	-0.118
-632.551	118.318	0.207	0.255
-631.536	-200.000	0.012	0.061
-630.522	-15.624	-0.182	-0.116
-629.507	452.817	-0.101	-0.224
-628.492	4.773	-0.241	-0.177
-627.478	-40.703	0.005	0.002
-626.463	205.205	-0.096	0.149
-625.449	348.144	0.018	0.035
-624.434	148.294	-0.158	-0.213
-623.419	-84.642	0.083	0.026
-622.405	11.467	0.329	-0.252
-621.390	-151.184	-0.307	0.023
-620.376	28.644	-0.145	0.123
-619.361	-109.414	-0.044	-0.009
-618.346	-55.300	-0.208	-0.094
-617.332	-163.371	0.175	0.008
-616.317	-164.228	-0.022	-0.001
-615.303	-42.441	0.144	-0.073
-614.288	-200.000	-0.007	0.211
-613.273	-34.598	0.082	-0.045
-612.259	-200.000	0.025	0.133
-611.244	-200.000	-0.033	0.280
-610.230	-37.690	0.112	-0.060
-609.215	-118.804	0.114	-0.020
-608.201	-10.550	0.230	0.152
-607.186	-63.041	0.068	-0.028
-606.171	166.658	-0.098	0.139
-605.157	157.500	0.043	-0.060
-604.142	22.825	-0.228	0.187
-603.128	89.927	0.144	-0.161
-602.113	-56.120	-0.187	-0.083
-601.098	800.000	0.074	-0.270
-600.084	27.983	0.276	-0.233
-599.069	380.499	0.107	0.219
-598.055	35.115	-0.039	0.035
-597.040	-116.518	-0.065	0.012
-596.025	-48.945	-0.379	-0.181
-595.011	150.266	0.109	-0.148
-593.996	-200.000	-0.051	-0.534
-592.982	61.469	-0.161	-0.160
-591.967	-61.661	-0.211	-0.089
-590.952	800.000	0.061	-0.201
-589.938	576.717	-0.031	0.075
-588.923	-113.903	0.325	-0.063
-587.909	-54.001	-0.399	-0.182
-586.894	-157.932	-0.156	0.009
-585.879	286.830	-0.162	0.292
-584.865	-171.895	0.238	0.008
-583.850	-93.699	0.052	0.014
-582.836	267.058	0.007	-0.013
-581.821	709.458	0.051	-0.135
-580.806	-124.836	-0.361	0.056
-579.792	-138.343	0.254	-0.028
-578.777	227.432	0.039	0.063
-577.763	547.046	0.084	-0.201
-576.748	286.174	0.100	0.181
-575.733	-132.453	-0.057	0.007
-574.719	132.890	-0.315	-0.406
-573.704	-198.259	-0.098	-0.001
-572.690	-200.000	-0.044	-0.369
-571.675	103.257	-0.167	-0.196
-570.661	218.720	0.071	-0.113
-569.646	-200.000	-0.040	-0.342
-568.631	-22.986	0.125	-0.075
-567.617	-48.322	0.334	-0.161
-566.602	-154.687	-0.072	0.005
-565.588	-200.000	-0.006	0.120
-564.573	23.841	-0.303	-0.249
-563.558	37.372	0.125	0.111
-562.544	174.664	0.061	0.088
-561.529	800.000	0.023	-0.067
-560.515	239.575	0.123	-0.204
-559.500	376.240	0.170	-0.346
-558.485	-200.000	0.054	-0.349
-557.471	24.059	0.143	-0.118
-556.456	280.050	-0.160	0.285
-555.442	-96.197	-0.064	0.017
-554.427	172.873	-0.108	-0.155
-553.412	185.415	-0.101	0.150
-552.398	13.087	0.252	0.194
-551.383	-59.261	-0.249	0.107
-550.369	60.828	0.083	0.082
-549.354	360.422	-0.137	-0.274
-548.339	34.046	-0.157	-0.137
-547.325	98.452	0.031	0.036
-546.310	165.738	-0.136	0.192
-545.296	-43.112	0.065	0.033
-544.281	97.056	0.142	-0.162
-543.266	-71.307	0.333	-0.124
-542.252	-114.803	-0.357	-0.068
-541.237	-23.121	0.063	0.038
-540.223	111.656	-0.034	-0.040
-539.208	123.810	-0.088	-0.110
-538.193	-136.128	-0.338	0.039
-537.179	-90.606	-0.367	0.106
-536.164	16.984	0.078	0.062
-535.150	-78.280	0.137	0.047
-534.135	-153.597	-0.343	0.024
-533.121	-10.745	-0.106	0.070
-532.106	-9.540	-0.454	-0.302
-531.091	-200.000	0.014	0.377
-530.077	-127.047	0.200	0.029
-529.062	522.361	0.078	0.182
-528.048	-200.000	0.002	-0.078
-527.033	188.571	-0.117	0.174
-526.018	49.847	-0.163	0.153
-525.004	-168.359	0.181	-0.007
-523.989	-200.000	-0.037	-0.178
-522.975	-125.537	-0.347	0.053
-521.960	157.803	0.241	0.332
-520.945	90.574	0.160	0.178
-519.931	39.199	-0.128	-0.114
-518.916	-200.000	-0.005	-0.075
-517.902	284.165	0.135	0.242
-516.887	-200.000	0.037	0.280
-515.872	-7.585	-0.164	0.110
-514.858	510.657	0.108	0.250
-513.843	88.569	-0.040	-0.045
-512.829	-69.092	0.053	0.020
-511.814	686.920	0.100	0.260
-510.799	-65.180	-0.092	-0.037
-509.785	-142.724	0.241	0.023
-508.770	51.377	0.195	0.185
-507.756	13.760	-0.275	-0.213
-506.741	371.130	0.119	0.241
-505.726	-45.149	0.130	0.064
-504.712	-14.755	0.161	-0.103
-503.697	800.000	0.113	-0.440
-502.683	101.572	0.144	-0.168
-501.668	108.452	0.308	0.366
-500.653	264.330	0.165	0.286
-499.639	55.861	-0.404	0.390
-498.624	-112.481	0.397	-0.079
-497.610	-135.017	-0.144	0.017
-496.595	73.451	0.262	-0.273
-495.581	-125.786	0.361	0.054
-494.566	-200.000	0.019	-0.184
-493.551	-186.365	0.426	0.006
-492.537	46.133	-0.305	0.281
-491.522	-200.000	0.049	0.235
-490.508	73.210	-0.069	0.072
-489.493	-200.000	-0.015	0.139
-488.478	-14.354	-0.056	0.036
-487.464	211.481	-0.133	-0.208
-486.449	-159.021	-0.077	0.004
-485.435	50.012	-0.210	0.197
-484.420	-15.935	0.205	0.130
-483.405	90.541	0.283	0.315
-482.391	33.798	-0.189	-0.164
-481.376	-43.434	-0.163	0.082
-480.362	-200.000	-0.016	-0.081
-479.347	800.000	-0.012	0.053
-478.332	-200.000	0.065	-0.388
-477.318	65.995	0.183	0.184
-476.303	-60.892	0.349	0.147
-475.289	-31.831	-0.486	0.271
-474.274	63.415	-0.209	-0.209
-473.259	220.708	-0.138	-0.220
-472.245	-107.870	-0.305	-0.066
-471.230	-200.000	-0.063	-0.305
-470.216	-200.000	0.051	0.291
-469.201	158.684	0.193	-0.267
-468.186	-55.139	-0.098	-0.044
-467.172	130.257	0.132	0.168
-466.157	51.992	0.142	-0.134
-465.143	509.724	-0.017	0.038
-464.128	315.960	-0.023	0.044
-463.113	104.117	-0.070	-0.082
-462.099	107.252	-0.129	-0.153
-461.084	74.844	-0.157	-0.164
-460.070	-111.791	-0.121	0.024
-459.055	337.130	-0.103	-0.199
-458.040	800.000	0.057	0.211
-457.026	106.818	0.128	0.151
-456.011	-80.648	-0.090	0.030
-454.997	-107.371	-0.192	-0.042
-453.982	384.599	-0.022	-0.046
-452.968	-113.018	0.117	-0.023
-451.953	56.746	-0.230	-0.222
-450.938	-93.623	0.242	0.066
-449.924	800.000	0.054	0.227
-448.909	46.706	-0.149	-0.138
-447.895	69.274	-0.262	0.268
-446.880	476.566	-0.154	0.347
-445.865	374.347	-0.165	-0.333
-444.851	-93.846	0.231	-0.063
-443.836	800.000	0.096	-0.290
-442.822	13.205	0.121	0.093
-441.807	-109.720	0.229	0.048
-440.792	-116.944	-0.115	0.021
-439.778	-200.000	0.009	0.046
-438.763	73.046	0.108	-0.112
-437.749	-166.027	0.364	-0.015
-436.734	-200.000	-0.009	0.189
-435.719	362.806	0.061	-0.121
-434.705	-140.087	-0.210	0.022
-433.690	-200.000	0.035	0.172
-432.676	-200.000	0.009	0.277
-431.661	-56.085	-0.143	0.063
-430.646	379.034	0.065	-0.132
-429.632	-101.330	-0.137	0.033
-428.617	-200.000	0.089	0.466
-427.603	-37.558	-0.069	-0.037
-426.588	-80.049	-0.183	-0.061
-425.573	-123.877	-0.317	0.050
-424.559	-50.414	-0.195	0.091
-423.544	524.352	-0.065	0.151
-422.530	-200.000	0.203	-0.001
-421.515	-200.000	0.002	0.446
-420.500	510.764	-0.050	-0.116
-419.486	447.810	0.119	0.259
-418.471	800.000	-0.016	0.070
-417.457	-90.228	-0.164	0.047
-416.442	-135.743	-0.130	0.015
-415.428	-200.000	-0.013	-0.312
-414.413	-66.237	0.238	0.094
-413.398	-90.373	0.296	-0.085
-412.384	210.250	-0.152	-0.237
-411.369	-44.063	-0.169	0.084
-410.355	-61.375	0.056	0.023
-409.340	800.000	0.086	0.251
-408.325	-98.863	0.062	0.016
-407.311	-47.798	-0.130	0.062
-406.296	800.000	0.068	0.284
-405.282	144.576	-0.080	0.106
-404.267	-139.407	-0.120	-0.013
-403.252	142.439	0.199	0.262
-402.238	-143.884	0.645	-0.060
-401.223	800.000	-0.024	0.089
-400.209	18.517	-0.393	-0.311
-399.194	-200.000	0.007	0.256
-398.179	-99.008	0.197	0.050
-397.165	-200.000	0.005	-0.048
-396.150	53.650	-0.066	0.063
-395.136	-182.003	-0.096	0.002
-394.121	-41.398	0.045	-0.023
-393.106	125.527	0.179	0.224
-392.092	-75.726	-0.102	0.036
-391.077	-51.188	-0.187	0.087
-390.063	-72.060	-0.164	-0.060
-389.048	34.764	0.101	-0.088
-388.033	501.522	-0.035	0.080
-387.019	-200.000	-0.022	-0.175
-386.004	800.000	0.068	-0.249
-384.990	-153.397	-0.371	0.026
-383.975	494.563	0.021	0.049
-382.960	6.990	-0.303	0.224
-381.946	-127.351	0.346	0.050
-380.931	29.472	0.277	-0.234
-379.917	-200.000	0.020	-0.139
-378.902	800.000	-0.124	-0.438
-377.888	-138.046	0.264	0.029
-376.873	-200.000	-0.033	-0.166
-375.858	-200.000	-0.020	-0.186
-374.844	800.000	0.019	0.081
-373.829	-88.085	0.105	-0.031
-372.815	-85.328	0.302	0.093
-371.800	545.622	-0.072	0.170
-370.785	276.749	-0.063	0.111
-369.771	800.000	0.076	-0.280
-368.756	800.000	-0.091	-0.379
-367.742	-157.545	0.192	-0.011
-366.727	320.344	0.128	0.241
-365.712	-88.743	-0.171	0.050
-364.698	-146.695	-0.389	0.033
-363.683	-103.448	-0.048	0.011
-362.669	264.643	0.065	-0.113
-361.654	13.756	0.322	0.248
-360.639	418.732	0.093	-0.196
-359.625	-121.186	-0.274	0.045
-358.610	193.057	-0.093	0.139
-357.596	-151.919	0.220	0.016
-356.581	138.415	-0.103	-0.134
-355.566	155.282	0.032	0.043
-354.552	-200.000	-0.009	0.061
-353.537	261.725	-0.107	0.184
-352.523	81.100	0.147	-0.157
-351.508	34.661	0.258	0.223
-350.493	39.103	0.260	0.230
-349.479	6.191	0.129	0.094
-348.464	800.000	-0.058	0.179
-347.450	-200.000	-0.023	0.191
-346.435	-200.000	-0.019	-0.140
-345.420	167.092	0.232	0.325
-344.406	67.703	0.083	-0.084
-343.391	-76.584	-0.144	-0.050
-342.377	-200.000	0.037	0.196
-341.362	-117.973	-0.228	-0.040
-340.348	1.891	-0.277	-0.198
-339.333	-11.168	0.027	0.018
-338.318	-125.806	0.260	-0.039
-337.304	-200.000	-0.084	-0.366
-336.289	36.897	0.139	-0.122
-335.275	331.553	-0.113	-0.216
-334.260	294.098	0.134	-0.242
-333.245	-200.000	0.018	0.389
-332.231	-62.062	0.054	0.022
-331.216	193.468	-0.031	-0.046
-330.202	800.000	-0.048	-0.166
-329.187	-30.079	0.157	0.088
-328.172	11.575	-0.041	-0.031
-327.158	800.000	-0.030	0.092
-326.143	-103.411	0.141	-0.033
-325.129	-88.995	0.293	-0.086
-324.114	459.209	0.096	-0.211
-323.099	-200.000	0.038	0.257
-322.085	-35.751	0.139	0.074
-321.070	-110.341	-0.193	0.040
-320.056	-115.598	-0.152	-0.028
-319.041	-136.484	-0.333	-0.038
-318.026	800.000	-0.013	-0.051
-317.012	-143.663	0.302	0.028
-315.997	-200.000	0.002	-0.300
-314.983	-200.000	0.018	0.218
-313.968	-113.009	0.062	0.012
-312.953	-168.793	-0.092	0.003
-311.939	-122.602	0.435	0.070
-310.924	-33.665	-0.065	0.035
-309.910	800.000	0.135	-0.386
-308.895	-62.723	-0.073	-0.030
-307.880	712.827	-0.105	-0.275
-306.866	-102.142	-0.499	-0.119
-305.851	-48.342	-0.155	0.074
-304.837	-4.166	-0.113	-0.077
-303.822	-0.473	0.041	0.029
-302.807	487.834	0.051	-0.116
-301.793	155.862	0.012	0.016
-300.778	412.360	-0.083	-0.175
-299.764	-62.242	0.234	0.096
-298.749	306.971	0.115	-0.211
-297.735	-141.625	-0.256	-0.025
-296.720	265.014	0.112	0.193
-295.705	7.145	-0.137	-0.101
-294.691	186.932	-0.038	-0.056
-293.676	-25.454	0.059	-0.035
-292.662	-200.000	-0.004	0.070
-291.647	745.021	0.117	-0.311
-290.632	-143.500	0.278	0.026
-289.618	490.927	0.082	-0.185
-288.603	350.382	-0.106	0.206
-287.589	-200.000	-0.018	-0.260
-286.574	800.000	-0.035	0.121
-285.559	715.051	0.099	-0.259
-284.545	159.182	0.362	-0.497
-283.530	-48.171	0.281	-0.134
-282.516	75.182	0.051	0.053
-281.501	78.269	-0.212	0.224
-280.486	-15.621	0.226	-0.142
-279.472	2.909	-0.189	0.135
-278.457	10.842	-0.232	0.175
-277.443	-1.509	0.041	-0.028
-276.428	83.508	-0.195	0.210
-275.413	-138.811	0.242	-0.026
-274.399	-200.000	-0.025	-0.196
-273.384	-67.258	0.309	0.120
-272.370	-128.472	-0.099	-0.014
-271.355	-15.228	0.172	-0.108
-270.340	22.418	0.031	-0.025
-269.326	-9.658	0.106	0.070
-268.311	-138.753	-0.226	-0.024
-267.297	800.000	-0.042	-0.159
-266.282	-174.758	-0.137	-0.004
-265.267	431.484	-0.097	-0.208
-264.253	363.316	-0.035	0.069
-263.238	-200.000	0.029	0.131
-262.224	-119.493	0.192	0.033
-261.209	-44.784	-0.101	0.050
-260.195	-200.000	0.076	-0.359
-259.180	118.991	0.251	-0.306
-258.165	800.000	0.070	0.222
-257.151	197.188	-0.177	0.266
-256.136	-36.567	0.035	-0.019
-255.122	368.613	-0.021	-0.041
-254.107	-86.315	0.535	-0.162
-253.092	-105.164	-0.142	-0.032
-252.078	-66.614	-0.186	0.073
-251.063	137.780	-0.116	0.150
-250.049	-29.176	-0.148	-0.084
-249.034	-87.041	0.218	-0.066
-248.019	363.052	0.032	0.063
-247.005	-200.000	-0.120	-0.529
-245.990	800.000	0.077	0.219
-244.976	-200.000	0.030	0.160
-243.961	74.184	-0.175	-0.181
-242.946	84.883	-0.221	0.238
-241.932	-200.000	0.052	-0.234
-240.917	-200.000	0.015	-0.107
-239.903	97.271	0.130	-0.147
-238.888	104.691	-0.108	-0.126
-237.873	130.551	0.128	-0.162
-236.859	-200.000	0.017	-0.316
-235.844	52.137	-0.249	0.234
-234.830	-200.000	0.025	0.177
-233.815	-200.000	0.013	-0.063
-232.800	800.000	0.056	0.157
-231.786	222.038	-0.209	0.331
-230.771	457.641	-0.118	0.259
-229.757	-16.212	-0.288	0.180
-228.742	-35.426	0.091	-0.048
-227.727	-46.069	-0.350	0.170
-226.713	31.813	0.096	0.081
-225.698	412.948	0.107	-0.223
-224.684	332.765	0.046	-0.088
-223.669	-4.651	0.064	-0.043
-222.655	736.622	-0.081	0.213
-221.640	-200.000	-0.011	-0.298
-220.625	224.243	0.059	-0.094
-219.611	-14.734	0.039	0.025
-218.596	559.911	-0.098	-0.233
-217.582	32.184	0.387	0.329
-216.567	42.108	-0.189	0.169
-215.552	9.139	0.116	-0.086
-214.538	48.918	0.208	0.192
-213.523	-34.580	0.025	0.014
-212.509	80.853	-0.084	0.089
-211.494	91.110	0.043	-0.048
-210.479	-43.680	-0.128	-0.064
-209.465	-200.000	0.015	0.141
-208.450	222.125	0.106	0.168
-207.436	666.221	0.070	-0.178
-206.421	-186.704	-0.180	-0.002
-205.406	188.060	-0.266	0.392
-204.392	-200.000	-0.071	0.420
-203.377	-200.000	0.061	0.296
-202.363	-135.359	-0.391	0.046
-201.348	-200.000	-0.016	-0.320
-200.333	-63.978	-0.232	0.093
-199.319	-132.322	0.252	-0.032
-198.304	-105.063	0.120	-0.027
-197.290	-200.000	0.005	-0.344
-196.275	-173.920	0.173	-0.005
-195.260	-59.966	0.230	0.097
-194.246	-70.834	0.130	0.048
-193.231	184.059	0.177	-0.257
-192.217	84.447	0.093	0.100
-191.202	800.000	-0.071	0.195
-190.187	126.736	-0.136	0.169
-189.173	111.434	0.253	-0.300
-188.158	123.131	0.035	-0.043
-187.144	-200.000	-0.025	0.199
-186.129	508.912	0.118	0.270
-185.114	-144.776	-0.236	-0.021
-184.100	-138.411	-0.143	0.015
-183.085	-200.000	0.054	-0.274
-182.071	-94.403	-0.274	-0.073
-181.056	-99.746	-0.076	-0.019
-180.042	-200.000	-0.053	0.233
-179.027	-200.000	-0.014	-0.100
-178.012	106.162	-0.147	-0.171
-176.998	64.887	0.330	0.327
-175.983	-97.974	0.086	0.022
-174.969	-200.000	0.042	0.226
-173.954	20.812	0.230	-0.183
-172.939	-65.523	-0.145	0.057
-171.925	227.883	-0.202	0.322
-170.910	800.000	0.135	0.454
-169.896	43.739	0.176	0.159
-168.881	-60.508	-0.244	0.102
-167.866	-200.000	-0.000	-0.068
-166.852	549.774	0.059	0.139
-165.837	589.941	0.074	-0.178
-164.823	39.150	-0.428	0.376
-163.808	-83.943	0.291	0.091
-162.793	-200.000	-0.005	-0.245
-161.779	-200.000	0.005	-0.093
-160.764	-200.000	-0.001	-0.199
-159.750	-14.345	0.196	-0.124
-158.735	-200.000	0.064	-0.297
-157.720	222.108	0.065	0.103
-156.706	444.749	0.166	-0.357
-155.691	-53.598	-0.294	0.132
-154.677	-173.191	-0.351	0.011
-153.662	-69.815	-0.077	-0.029
-152.647	85.526	-0.084	0.090
-151.633	-138.013	0.281	0.031
-150.618	778.759	0.043	0.116
-149.604	-0.444	-0.235	0.164
-148.589	226.518	0.123	-0.195
-147.574	-82.980	-0.170	-0.054
-146.560	-200.000	0.019	0.162
-145.545	542.278	0.059	-0.138
-144.531	-153.141	0.104	0.007
-143.516	-109.400	0.119	0.025
-142.502	-31.885	-0.360	-0.198
-141.487	-200.000	-0.040	-0.208
-140.472	-200.000	0.006	-0.285
-139.458	228.677	0.051	-0.082
-138.443	-127.508	0.347	0.049
-137.429	-56.951	0.163	-0.071
-136.414	662.073	-0.042	-0.107
-135.399	-159.837	-0.211	-0.011
-134.385	-27.841	0.236	-0.134
-133.370	-12.117	-0.360	-0.231
-132.356	-75.466	-0.280	-0.098
-131.341	-46.965	-0.174	-0.084
-130.326	286.515	0.076	0.135
-129.312	2.433	0.408	0.290
-128.297	-200.000	-0.013	-0.114
-127.283	136.975	0.117	0.149
-126.268	48.760	-0.148	0.136
-125.253	800.000	0.032	0.124
-124.239	183.574	-0.224	0.326
-123.224	108.137	0.210	0.246
-122.210	320.554	-0.098	0.182
-121.195	-71.566	0.455	0.167
-120.180	-23.761	-0.091	0.054
-119.166	140.519	0.108	-0.140
-118.151	-198.624	-0.275	0.002
-117.137	-177.220	-0.281	0.007
-116.122	1.311	0.135	-0.095
-115.107	344.612	-0.207	-0.399
-114.093	41.696	-0.217	0.193
-113.078	-102.804	0.248	-0.058
-112.064	-198.600	0.381	0.002
-111.049	32.321	0.122	-0.104
-110.034	-43.507	0.129	-0.064
-109.020	800.000	0.039	0.123
-108.005	-78.058	0.199	-0.067
-106.991	61.640	-0.362	-0.353
-105.976	-120.849	0.150	0.025
-104.962	227.087	0.111	-0.177
-103.947	107.011	0.316	0.368
-102.932	88.309	-0.253	-0.275
-101.918	79.060	-0.100	0.105
-100.903	12.006	-0.148	-0.111
-99.889	-115.385	0.195	-0.036
-98.874	45.887	-0.094	-0.086
-97.859	436.265	-0.061	0.130
-96.845	-191.777	0.197	-0.002
-95.830	16.691	0.168	0.130
-94.816	-200.000	0.020	0.162
-93.801	52.774	-0.158	0.148
-92.786	-12.954	0.213	-0.136
-91.772	-126.759	-0.423	0.061
-90.757	-5.769	-0.352	0.236
-89.743	-86.390	-0.087	-0.026
-88.728	-200.000	0.002	0.101
-87.713	-200.000	0.011	0.100
-86.699	30.903	-0.225	-0.188
-85.684	-120.562	-0.124	-0.021
-84.670	304.240	0.099	0.180
-83.655	74.103	0.146	-0.150
-82.640	-30.923	0.321	0.178
-81.626	-200.000	-0.048	-0.281
-80.611	800.000	0.067	-0.232
-79.597	-137.716	0.238	0.026
-78.582	-31.299	0.345	0.190
-77.567	-200.000	0.019	-0.134
-76.553	-200.000	0.018	-0.315
-75.538	-44.730	0.045	0.022
-74.524	321.523	-0.128	0.238
-73.509	-55.609	-0.488	0.214
-72.494	800.000	-0.042	0.144
-71.480	13.808	0.061	0.046
-70.465	106.576	-0.202	0.235
-69.451	304.011	0.152	0.276
-68.436	30.105	-0.196	-0.164
-67.422	-68.927	0.046	-0.017
-66.407	-4.518	0.255	-0.173
-65.392	-56.523	0.046	0.020
-64.378	-92.221	0.272	-0.075
-63.363	-200.000	0.006	0.114
-62.349	-200.000	0.024	0.360
-61.334	135.677	-0.812	-1.034
-60.319	800.000	0.325	0.879
-59.305	-200.000	-0.096	-0.933
-58.290	800.000	0.419	1.237
-57.276	800.000	0.600	1.719
-56.261	-200.000	112.204	642.740
-55.246	530.788	1517.353	3508.565
-54.232	176.592	2702.850	3843.563
-53.217	106.095	2283.270	2644.722
-52.203	38.397	1890.157	1647.498
-51.188	32.320	1679.554	1418.218
-50.173	29.590	1637.748	1362.755
-49.159	50.049	1693.975	1563.580
-48.144	49.998	1707.709	1575.810
-47.130	31.729	1664.758	1401.080
-46.115	29.002	1650.458	1368.737
-45.100	28.869	1645.733	1363.779
-44.086	28.837	1642.770	1361.030
-43.071	28.729	1640.080	1357.947
-42.057	28.660	1638.266	1355.885
-41.042	28.796	1635.707	1354.715
-40.027	28.804	1633.813	1353.154
-39.013	28.731	1632.425	1351.411
-37.998	28.800	1630.509	1350.276
-36.984	28.831	1629.295	1349.445
-35.969	28.843	1627.705	1348.166
-34.954	28.967	1625.708	1347.367
-33.940	28.935	1624.088	1345.734
-32.925	28.951	1622.695	1344.641
-31.911	28.916	1620.890	1342.841
-30.896	28.942	1618.771	1341.222
-29.881	28.878	1618.088	1340.134
-28.867	28.915	1616.043	1338.654
-27.852	28.906	1615.150	1337.802
-26.838	28.899	1613.430	1336.271
-25.823	28.941	1612.108	1335.428
-24.809	29.016	1610.954	1334.960
-23.794	28.898	1609.746	1333.051
-22.779	28.921	1607.688	1331.463
-21.765	28.964	1605.872	1330.220
-20.750	29.032	1604.430	1329.458
-19.736	29.052	1603.286	1328.605
-18.721	29.056	1601.841	1327.383
-17.706	28.909	1600.447	1325.113
-16.692	28.917	1599.372	1324.231
-15.677	29.037	1597.574	1323.556
-14.663	29.022	1596.602	1322.589
-13.648	29.017	1595.170	1321.310
-12.633	29.022	1593.167	1319.635
-11.619	29.052	1591.794	1318.661
-10.604	29.008	1590.204	1316.977
-9.590	29.037	1589.114	1316.229
-8.575	28.999	1588.505	1315.399
-7.560	28.888	1587.010	1313.319
-6.546	28.916	1585.940	1312.581
-5.531	28.894	1584.720	1311.359
-4.517	28.944	1584.075	1311.131
-3.502	28.972	1582.221	1309.747
-2.487	29.010	1580.500	1308.541
-1.473	28.650	1568.760	1296.226
-0.458	25.580	1548.870	1258.302
0.556	22.925	1549.642	1225.508
1.571	20.410	1573.174	1226.273
2.586	19.864	1585.865	1232.168
3.600	17.409	1531.393	1172.841
4.615	10.203	1424.804	1044.732
5.629	4.219	1364.849	963.582
6.644	3.300	1357.536	952.652
7.659	3.212	1356.471	951.277
8.673	3.298	1355.068	950.740
9.688	3.209	1353.658	949.119
10.702	3.317	1350.326	947.360
11.717	5.990	1355.551	967.430
12.731	13.568	1369.186	1024.072
13.746	19.724	1379.039	1069.560
14.761	20.835	1379.926	1077.027
15.775	20.159	1377.882	1071.162
16.790	19.138	1375.475	1062.898
17.804	18.238	1373.178	1055.479
18.819	17.956	1372.289	1052.966
19.834	17.866	1370.797	1051.175
20.848	17.591	1370.181	1048.911
21.863	17.400	1368.691	1046.506
22.877	17.330	1367.225	1044.861
23.892	17.396	1366.561	1044.668
24.907	17.313	1365.672	1043.385
25.921	17.255	1365.154	1042.540
26.936	17.297	1364.117	1041.918
27.950	17.344	1363.026	1041.280
28.965	17.434	1362.356	1041.222
29.980	17.590	1360.615	1040.757
30.994	17.575	1360.304	1040.331
32.009	17.591	1358.983	1039.330
33.023	17.618	1357.608	1038.350
34.038	17.607	1356.145	1037.069
35.053	17.490	1355.022	1035.412
36.067	17.455	1354.007	1034.332
37.082	17.516	1352.949	1033.801
38.096	17.561	1352.332	1033.508
39.111	17.538	1351.551	1032.685
40.126	17.390	1350.858	1031.164
41.140	17.173	1349.250	1028.536
42.155	17.132	1348.510	1027.630
43.169	17.026	1348.757	1027.083
44.184	17.234	1347.948	1027.637
45.199	17.103	1347.957	1026.761
46.213	17.193	1347.754	1027.059
47.228	17.420	1346.457	1027.348
48.242	17.530	1345.806	1027.427
49.257	17.451	1344.223	1025.653
50.271	17.368	1343.072	1024.181
51.286	17.435	1341.327	1023.163
52.301	17.441	1340.080	1022.155
53.315	17.320	1338.802	1020.365
54.330	17.238	1338.197	1019.321
55.344	17.146	1336.514	1017.399
56.359	17.246	1335.207	1016.914
57.374	17.252	1334.692	1016.468
58.388	16.989	1334.034	1014.302
59.403	16.959	1334.043	1014.039
60.417	17.050	1332.556	1013.364
61.432	16.984	1331.485	1012.069
62.447	16.923	1330.753	1011.057
63.461	16.742	1329.450	1008.901
64.476	16.803	1328.667	1008.578
65.490	16.857	1326.936	1007.499
66.505	16.960	1325.851	1007.196
67.520	16.829	1324.968	1005.660
68.534	16.935	1323.548	1005.120
69.549	16.875	1322.528	1003.902
70.563	16.756	1321.562	1002.373
71.578	16.763	1320.669	1001.651
72.593	16.707	1319.900	1000.648
73.607	16.693	1318.860	999.690
74.622	16.725	1317.950	999.098
75.636	16.802	1316.793	998.589
76.651	16.896	1316.541	998.859
77.666	16.745	1316.334	997.726
78.680	16.885	1315.908	998.137
79.695	16.969	1314.807	997.711
80.709	17.053	1314.259	997.700
81.724	17.119	1313.778	997.634
82.739	17.164	1312.840	997.098
83.753	17.207	1312.267	996.826
84.768	17.501	1310.586	997.183
85.782	17.462	1310.160	996.544
86.797	17.537	1308.721	995.797
87.812	17.524	1307.152	994.439
88.826	17.410	1306.355	993.079
89.841	17.494	1305.357	992.726
90.855	17.436	1304.734	991.824
91.870	17.546	1303.957	991.786
92.884	17.597	1303.245	991.453
93.899	17.578	1302.156	990.429
94.914	17.594	1301.509	989.943
95.928	17.576	1300.752	989.175
96.943	17.646	1299.560	988.588
97.957	17.573	1298.393	987.188
98.972	17.527	1297.530	986.176
99.987	17.557	1296.393	985.400
101.001	17.478	1295.624	984.272
102.016	17.457	1294.626	983.306
103.030	17.521	1293.543	982.765
104.045	17.587	1292.771	982.473
105.060	17.456	1291.118	980.376
106.074	17.142	1290.186	977.771
107.089	17.025	1288.421	975.676
108.103	16.995	1287.214	974.502
109.118	16.865	1286.404	973.056
110.133	16.908	1284.899	972.078
111.147	16.997	1283.480	971.431
112.162	17.032	1282.211	970.580
113.176	17.066	1281.228	969.947
114.191	17.098	1280.419	969.431
115.206	17.150	1278.851	968.452
116.220	17.180	1277.893	967.817
117.235	17.134	1276.791	966.633
118.249	17.083	1275.494	965.273
119.264	17.012	1274.371	963.938
120.279	16.904	1273.522	962.596
121.293	16.912	1272.459	961.751
122.308	16.829	1271.144	960.206
123.322	16.904	1269.986	959.670
124.337	16.800	1269.249	958.439
125.352	16.829	1267.868	957.475
126.366	16.876	1266.867	956.897
127.381	16.770	1265.891	955.481
128.395	16.941	1264.660	955.429
129.410	16.851	1264.185	954.479
130.424	16.846	1263.334	953.727
131.439	17.013	1262.266	953.770
132.454	17.035	1261.242	953.037
133.468	17.065	1261.076	952.997
134.483	17.052	1260.256	952.218
135.497	17.148	1258.875	951.632
136.512	17.068	1257.854	950.326
137.527	17.084	1257.146	949.799
138.541	17.244	1254.823	948.853
139.556	17.330	1253.666	948.373
140.570	17.290	1252.740	947.365
141.585	17.448	1251.641	947.329
142.600	17.493	1250.762	946.828
143.614	17.505	1249.992	946.230
144.629	17.470	1248.899	945.124
145.643	17.444	1248.091	944.286
146.658	17.439	1246.245	942.778
147.673	17.168	1245.553	940.670
148.687	17.151	1244.183	939.461
149.702	17.151	1242.952	938.444
150.716	17.066	1241.388	936.714
151.731	17.219	1240.021	936.442
152.746	17.162	1239.079	935.334
153.760	17.317	1237.538	934.938
154.775	17.366	1236.692	934.490
155.789	17.365	1236.060	933.923
156.804	17.346	1235.369	933.215
157.819	17.492	1233.887	932.813
158.833	17.549	1232.835	932.247
159.848	17.574	1232.420	931.987
160.862	17.626	1231.209	931.272
161.877	17.438	1229.723	929.039
162.892	17.159	1228.711	926.669
163.906	17.110	1227.814	925.644
164.921	17.187	1227.006	925.371
165.935	17.305	1226.499	925.550
166.950	17.412	1225.571	925.352
167.964	17.400	1224.669	924.521
168.979	17.257	1224.027	923.182
169.994	17.355	1223.029	922.877
171.008	17.360	1222.386	922.336
172.023	17.438	1221.785	922.225
173.037	17.498	1221.093	921.946
174.052	17.546	1219.846	921.182
175.067	17.448	1218.885	919.848
176.081	17.343	1217.999	918.527
177.096	17.168	1217.171	916.876
178.110	17.220	1215.952	916.158
179.125	17.352	1215.018	916.086
180.140	17.373	1213.854	915.238
181.154	17.425	1212.492	914.413
182.169	17.462	1211.583	913.846
183.183	17.644	1210.198	913.692
184.198	17.611	1209.012	912.539
185.213	17.692	1207.529	911.772
186.227	17.765	1206.596	911.381
187.242	17.843	1205.655	911.004
188.256	17.830	1205.256	910.555
189.271	17.778	1204.865	909.898
190.286	17.625	1202.957	907.564
191.300	17.366	1201.792	905.224
192.315	17.281	1201.025	904.116
193.329	17.218	1200.690	903.448
194.344	17.262	1200.306	903.313
195.359	17.401	1199.966	903.717
196.373	17.492	1199.331	903.639
197.388	17.610	1199.213	904.096
198.402	17.863	1198.347	904.705
199.417	18.007	1197.434	904.698
200.432	18.048	1197.143	904.620
201.446	18.051	1196.236	903.868
202.461	18.163	1195.537	903.852
203.475	18.365	1193.809	903.531
204.490	18.087	1192.785	901.213
205.504	17.845	1191.809	899.117
206.519	17.810	1190.805	898.096
207.534	17.717	1189.498	896.542
208.548	17.875	1188.533	896.569
209.563	17.921	1187.431	895.899
210.577	17.785	1187.101	894.858
211.592	17.980	1186.288	895.187
212.607	18.027	1185.143	894.488
213.621	18.066	1184.581	894.189
214.636	18.084	1183.342	893.270
215.650	18.048	1182.550	892.402
216.665	18.111	1182.027	892.257
217.680	18.259	1180.765	892.000
218.694	18.275	1180.058	891.470
219.709	18.112	1180.014	890.511
220.723	18.188	1178.733	889.860
221.738	18.210	1177.839	889.219
222.753	18.305	1177.067	889.049
223.767	18.145	1177.079	888.153
224.782	18.277	1175.969	887.921
225.796	18.431	1175.203	888.061
226.811	18.350	1175.041	887.437
227.826	18.203	1173.699	885.588
228.840	18.195	1173.384	885.228
229.855	18.197	1172.462	884.467
230.869	18.189	1171.963	883.971
231.884	18.152	1170.968	882.949
232.899	18.120	1169.647	881.709
233.913	17.993	1169.236	880.670
234.928	17.956	1168.353	879.734
235.942	17.943	1167.707	879.106
236.957	18.018	1166.818	878.744
237.972	17.894	1166.229	877.581
238.986	17.952	1165.467	877.232
240.001	18.021	1164.948	877.117
241.015	18.044	1163.959	876.414
242.030	18.180	1163.201	876.462
243.045	18.210	1162.489	875.998
244.059	18.206	1161.825	875.404
245.074	18.305	1160.998	875.208
246.088	18.355	1160.791	875.227
247.103	18.334	1159.596	874.146
248.117	18.593	1158.857	874.833
249.132	18.679	1158.178	874.678
250.147	18.770	1157.824	874.797
251.161	18.933	1157.038	874.954
252.176	18.967	1156.038	874.294
253.190	18.945	1156.050	874.115
254.205	19.002	1155.466	873.884
255.220	19.129	1154.544	873.758
256.234	19.002	1153.997	872.619
257.249	18.924	1153.324	871.637
258.263	18.970	1152.908	871.481
259.278	18.871	1152.186	870.355
260.293	19.017	1151.191	870.264
261.307	18.998	1151.420	870.266
262.322	19.097	1150.147	869.725
263.336	19.092	1149.836	869.387
264.351	19.083	1148.759	868.456
265.366	19.160	1148.654	868.687
266.380	19.161	1147.766	867.940
267.395	19.163	1146.492	866.910
268.409	19.023	1145.984	865.745
269.424	18.960	1145.266	864.809
270.439	18.983	1144.545	864.306
271.453	18.907	1143.828	863.304
272.468	18.825	1142.860	862.086
273.482	18.903	1141.783	861.591
274.497	18.854	1141.462	861.024
275.512	18.879	1140.829	860.595
276.526	18.848	1140.196	859.887
277.541	18.895	1139.405	859.450
278.555	19.028	1138.477	859.337
279.570	19.134	1137.973	859.412
280.585	19.115	1137.729	859.058
281.599	19.248	1136.382	858.628
282.614	19.073	1135.306	856.865
283.628	18.963	1134.041	855.286
284.643	19.062	1133.117	855.009
285.657	18.978	1132.719	854.213
286.672	19.020	1131.997	853.804
287.687	19.037	1131.100	853.136
288.701	19.170	1129.963	852.863
289.716	19.113	1129.200	851.928
290.730	19.101	1128.915	851.578
291.745	19.153	1128.229	851.241
292.760	19.113	1127.352	850.307
293.774	19.288	1126.926	850.776
294.789	19.340	1126.285	850.471
295.803	19.323	1125.763	849.917
296.818	19.176	1125.170	848.672
297.833	19.172	1124.095	847.764
298.847	19.194	1123.105	847.053
299.862	19.182	1122.501	846.463
300.876	19.257	1121.978	846.363
301.891	19.268	1121.564	846.028
302.906	19.447	1120.601	846.106
303.920	19.480	1119.900	845.665
304.935	19.561	1119.071	845.360
305.949	19.600	1118.820	845.287
306.964	19.783	1117.805	845.340
307.979	19.523	1117.240	843.566
308.993	19.550	1116.080	842.746
310.008	19.582	1115.743	842.577
311.022	19.659	1115.227	842.488
312.037	19.481	1114.454	840.959
313.052	19.385	1113.228	839.491
314.066	19.334	1112.250	838.435
315.081	19.138	1111.306	836.693
316.095	19.229	1110.206	836.235
317.110	19.316	1109.903	836.353
318.125	19.363	1109.295	836.052
319.139	19.319	1108.457	835.134
320.154	19.339	1107.671	834.563
321.168	19.331	1107.657	834.439
322.183	19.380	1106.949	834.069
323.197	19.463	1106.015	833.693
324.212	19.492	1105.389	833.285
325.227	19.523	1104.734	832.867
326.241	19.466	1104.407	832.273
327.256	19.352	1104.007	831.350
328.270	19.392	1102.523	830.351
329.285	19.396	1101.635	829.630
330.300	19.394	1101.317	829.304
331.314	19.282	1100.413	828.012
332.329	19.469	1098.892	827.691
333.343	19.517	1098.407	827.484
334.358	19.578	1097.933	827.344
335.373	19.567	1096.841	826.395
336.387	19.538	1096.604	826.009
337.402	19.695	1095.319	825.716
338.416	19.752	1094.686	825.437
339.431	19.796	1094.245	825.244
340.446	20.029	1093.744	825.902
341.460	19.985	1093.279	825.267
342.475	19.960	1092.437	824.442
343.489	20.065	1091.145	823.890
344.504	20.166	1090.328	823.681
345.519	20.179	1089.654	823.161
346.533	20.202	1089.222	822.870
347.548	20.396	1088.063	822.842
348.562	20.294	1087.691	822.003
349.577	20.093	1086.860	820.351
350.592	19.894	1085.879	818.598
351.606	19.883	1084.809	817.670
352.621	19.875	1084.389	817.240
353.635	19.690	1083.453	815.589
354.650	19.834	1082.656	815.598
355.665	19.957	1082.076	815.667
356.679	20.021	1081.676	815.595
357.694	19.897	1081.419	814.743
358.708	20.066	1080.532	814.799
359.723	20.118	1079.936	814.523
360.738	20.167	1079.377	814.261
361.752	20.123	1078.811	813.554
362.767	20.048	1078.119	812.610
363.781	20.076	1077.676	812.332
364.796	20.265	1077.137	812.742
365.810	20.395	1076.703	812.952
366.825	20.409	1076.091	812.483
367.840	20.501	1075.575	812.451
368.854	20.549	1075.162	812.293
369.869	20.458	1074.424	811.238
370.883	20.566	1073.038	810.620
371.898	20.430	1072.389	809.426
372.913	20.502	1071.586	809.085
373.927	20.419	1071.613	808.645
374.942	20.545	1071.163	808.822
375.956	20.590	1070.357	808.350
376.971	20.389	1069.796	806.921
377.986	20.454	1069.318	806.792
379.000	20.596	1068.879	807.048
380.015	20.750	1068.313	807.262
381.029	20.913	1067.541	807.363
382.044	20.715	1066.817	805.827
383.059	20.620	1066.059	804.743
384.073	20.738	1065.379	804.706
385.088	20.643	1064.632	803.631
386.102	20.722	1063.593	803.140
387.117	20.644	1062.353	801.775
388.132	20.484	1061.661	800.444
389.146	20.377	1060.836	799.256
390.161	20.455	1060.237	799.096
391.175	20.443	1059.396	798.337
392.190	20.557	1058.511	798.122
393.205	20.682	1058.460	798.585
394.219	20.699	1057.495	797.863
395.234	20.559	1056.447	796.362
396.248	20.598	1055.606	795.837
397.263	20.563	1053.693	794.165
398.278	20.556	1053.538	793.946
399.292	20.321	1053.008	792.402
400.307	20.296	1052.141	791.563
401.321	20.394	1051.495	791.455
402.336	20.422	1050.834	791.016
403.350	20.454	1050.160	790.583
404.365	20.518	1049.516	790.320
405.380	20.460	1048.844	789.481
406.394	20.705	1047.882	789.799
407.409	20.685	1047.228	789.145
408.423	20.886	1046.444	789.398
409.438	20.887	1045.971	788.973
410.453	20.837	1046.151	788.812
411.467	21.047	1044.667	788.573
412.482	21.033	1044.163	788.060
413.496	21.085	1043.893	788.020
414.511	21.063	1042.980	787.165
415.526	21.110	1042.678	787.079
416.540	21.235	1042.664	787.564
417.555	21.310	1041.427	786.896
418.569	21.301	1040.755	786.278
419.584	21.220	1040.551	785.690
420.599	21.301	1040.101	785.646
421.613	155.594	1403.216	1796.727
422.628	142.366	1456.087	1796.817
