DTS Sentinel unit serial number:	SN413079Multiplexer serial number:	ORYXHardware model number:	OX4-SRSoftware version number:	ORYX F/W v4.00 Oryx Data Collector v3.7.2.0data status	okinstallation	princeton_trtdifferential loss correction	single-endedforward channel	channel 2reverse channel	N/Adate	2019/09/19time	01:15:34forward acquisition time	60.00reverse acquisition time	0.00gamma	496.2192k internal	0.2353k external	0.2353temperature offset calibration	1.0018default loss term (dB/km)	0.3790temperature slope calibration	1.0000multiplexer offset coefficient	1.0000multiplexer slope coefficient	1.0000fibre end	0.00T internal ref (°C)	21.77T ext. ref 1 (°C)	0.71T ext. ref 2 (°C)	15.18length (m)	temperature (°C)	Stokes	anti-Stokes-747.200	-101.560	-0.075	-0.018
-746.185	-11.731	-0.190	0.124
-745.171	311.381	0.051	0.096
-744.156	-175.296	-0.394	-0.011
-743.142	-34.876	-0.111	-0.061
-742.127	367.396	-0.070	0.141
-741.112	-200.000	0.122	0.000
-740.098	61.802	-0.262	0.260
-739.083	-127.591	-0.313	-0.045
-738.069	293.929	0.087	-0.158
-737.054	-137.504	-0.194	0.022
-736.039	-181.813	-0.270	-0.005
-735.025	560.703	0.078	0.187
-734.010	495.249	-0.088	-0.202
-732.996	346.979	-0.068	-0.134
-731.981	-200.000	-0.018	-0.179
-730.966	216.757	0.266	0.422
-729.952	-171.479	0.250	-0.008
-728.937	-41.520	0.289	0.148
-727.923	-113.077	-0.320	-0.063
-726.908	356.286	0.059	0.118
-725.894	-161.337	0.132	-0.007
-724.879	-200.000	-0.006	0.234
-723.864	271.512	-0.166	0.292
-722.850	-200.000	-0.006	-0.379
-721.835	-33.924	0.053	0.029
-720.821	220.064	0.066	-0.105
-719.806	-200.000	0.038	-0.243
-718.791	-41.718	-0.063	-0.032
-717.777	-44.973	-0.439	-0.218
-716.762	136.586	0.303	-0.394
-715.748	474.282	-0.073	-0.165
-714.733	800.000	-0.040	-0.140
-713.718	-200.000	0.005	-0.162
-712.704	-62.748	-0.419	0.173
-711.689	-200.000	0.008	0.203
-710.675	-200.000	0.007	0.155
-709.660	360.777	-0.158	-0.316
-708.645	21.796	0.275	-0.223
-707.631	-200.000	0.004	-0.180
-706.616	174.441	0.253	-0.364
-705.602	-63.311	-0.427	-0.175
-704.587	-149.598	0.045	-0.004
-703.572	570.907	0.144	0.349
-702.558	-200.000	-0.011	0.178
-701.543	-28.348	0.223	0.128
-700.529	-31.131	0.077	0.043
-699.514	800.000	0.033	0.100
-698.499	-46.932	-0.235	-0.114
-697.485	-176.695	-0.275	0.007
-696.470	136.113	0.277	0.360
-695.456	-160.719	-0.293	0.015
-694.441	499.478	0.045	0.104
-693.426	25.891	-0.292	-0.242
-692.412	800.000	0.095	-0.293
-691.397	800.000	0.112	0.413
-690.383	-200.000	-0.049	-0.217
-689.368	433.121	-0.084	0.182
-688.354	-86.054	0.179	0.055
-687.339	-107.713	-0.173	-0.038
-686.324	-200.000	-0.010	0.167
-685.310	74.010	-0.254	-0.266
-684.295	-140.529	-0.337	-0.035
-683.281	329.264	0.059	0.112
-682.266	800.000	-0.063	-0.239
-681.251	800.000	-0.065	-0.274
-680.237	-45.771	0.048	0.023
-679.222	151.966	-0.121	0.164
-678.208	800.000	0.043	-0.179
-677.193	-176.960	-0.279	0.007
-676.178	370.904	0.117	0.236
-675.164	-113.342	-0.200	-0.039
-674.149	-166.059	-0.343	-0.015
-673.135	-103.447	0.319	-0.075
-672.120	182.632	-0.042	-0.062
-671.105	-98.134	-0.197	-0.050
-670.091	-200.000	0.155	-0.001
-669.076	-141.820	0.061	-0.006
-668.062	115.746	0.094	-0.114
-667.047	-109.797	-0.233	-0.049
-666.032	46.146	-0.152	0.140
-665.018	548.397	0.199	0.474
-664.003	800.000	0.051	0.168
-662.989	-200.000	-0.065	0.539
-661.974	800.000	0.045	-0.130
-660.959	-49.817	0.183	-0.087
-659.945	206.842	-0.178	-0.275
-658.930	-118.977	0.198	0.034
-657.916	-2.265	-0.059	0.041
-656.901	147.311	0.057	-0.076
-655.886	-77.998	-0.276	-0.095
-654.872	-51.080	-0.171	0.080
-653.857	800.000	0.102	0.305
-652.843	440.415	0.093	-0.203
-651.828	546.886	-0.081	-0.192
-650.814	147.281	-0.235	-0.314
-649.799	152.054	0.135	0.183
-648.784	-200.000	-0.030	0.150
-647.770	86.864	-0.075	0.082
-646.755	16.585	0.444	-0.349
-645.741	190.583	-0.148	-0.221
-644.726	4.839	0.459	-0.335
-643.711	-14.893	-0.094	0.060
-642.697	250.309	0.048	0.081
-641.682	385.107	0.100	0.204
-640.668	-121.296	0.099	0.016
-639.653	169.386	-0.007	-0.010
-638.638	-200.000	-0.005	-0.220
-637.624	120.793	-0.208	-0.257
-636.609	148.516	-0.094	0.127
-635.595	-57.668	-0.201	0.087
-634.580	-134.927	-0.192	-0.023
-633.565	-1.027	-0.250	0.175
-632.551	-189.170	0.123	-0.001
-631.536	-122.554	-0.075	-0.012
-630.522	24.325	0.165	-0.135
-629.507	-126.793	-0.238	0.035
-628.492	9.639	0.098	-0.073
-627.478	-200.000	-0.027	-0.191
-626.463	163.267	0.031	-0.043
-625.449	-200.000	0.050	-0.264
-624.434	272.371	0.061	0.107
-623.419	-121.839	-0.140	0.023
-622.405	-200.000	0.036	-0.203
-621.390	120.988	-0.081	0.101
-620.376	800.000	-0.062	-0.260
-619.361	293.047	-0.112	-0.202
-618.346	65.644	-0.161	0.162
-617.332	-200.000	-0.057	0.331
-616.317	-72.175	-0.258	0.095
-615.303	-109.099	0.412	-0.087
-614.288	-200.000	-0.067	0.367
-613.273	17.575	-0.119	0.094
-612.259	800.000	-0.017	-0.066
-611.244	73.443	-0.127	-0.132
-610.230	-64.412	0.300	0.121
-609.215	-65.607	0.133	0.053
-608.201	-23.592	-0.152	0.090
-607.186	528.503	0.026	-0.060
-606.171	447.211	-0.088	-0.192
-605.157	-200.000	0.008	-0.353
-604.142	800.000	-0.085	-0.252
-603.128	132.982	-0.140	0.179
-602.113	-129.482	0.197	-0.027
-601.098	-200.000	0.004	0.018
-600.084	77.477	-0.133	0.140
-599.069	55.318	0.244	-0.234
-598.055	-27.017	0.336	-0.195
-597.040	-116.600	0.378	0.069
-596.025	-87.639	0.269	0.081
-595.011	111.854	0.039	-0.046
-593.996	-200.000	-0.002	-0.192
-592.982	-178.779	0.111	-0.003
-591.967	485.728	0.124	-0.280
-590.952	491.412	-0.113	-0.257
-589.938	45.226	0.123	0.113
-588.923	138.921	-0.103	0.135
-587.909	18.465	0.184	-0.146
-586.894	-199.513	0.146	0.001
-585.879	-92.437	-0.264	0.073
-584.865	-200.000	0.000	0.079
-583.850	-5.427	0.086	-0.059
-582.836	88.754	-0.222	-0.245
-581.821	-81.809	0.053	0.017
-580.806	-200.000	0.007	-0.046
-579.792	-112.677	-0.351	-0.069
-578.777	82.543	-0.217	-0.234
-577.763	23.375	0.164	0.134
-576.748	-200.000	0.001	-0.261
-575.733	352.376	0.044	-0.087
-574.719	-110.088	0.116	-0.024
-573.704	-164.941	0.556	-0.025
-572.690	-42.934	-0.105	0.053
-571.675	23.844	-0.208	0.170
-570.661	800.000	-0.057	0.205
-569.646	160.025	-0.189	0.260
-568.631	-49.511	0.170	-0.080
-567.617	-200.000	0.024	0.146
-566.602	225.311	0.084	-0.135
-565.588	59.013	0.170	-0.166
-564.573	800.000	0.005	-0.017
-563.558	780.410	-0.111	-0.300
-562.544	167.247	0.248	0.349
-561.529	-123.483	0.364	0.057
-560.515	495.332	-0.107	-0.244
-559.500	-153.285	0.292	0.020
-558.485	27.737	-0.480	-0.400
-557.471	548.272	-0.006	0.013
-556.456	465.022	0.193	0.426
-555.442	-151.544	0.326	0.024
-554.427	206.032	0.196	0.302
-553.412	188.154	-0.097	0.143
-552.398	469.591	-0.060	0.132
-551.383	114.594	0.133	0.160
-550.369	-122.473	-0.239	0.038
-549.354	185.189	0.192	0.282
-548.339	732.185	-0.021	0.054
-547.325	800.000	0.009	0.029
-546.310	800.000	-0.055	-0.216
-545.296	172.955	-0.181	0.258
-544.281	-200.000	0.028	0.262
-543.266	800.000	-0.058	0.177
-542.252	7.542	0.216	0.160
-541.237	-84.400	-0.315	0.098
-540.223	334.355	-0.091	0.175
-539.208	338.565	0.040	-0.077
-538.193	-200.000	0.045	-0.328
-537.179	-54.629	-0.234	-0.105
-536.164	-200.000	-0.036	-0.184
-535.150	-54.342	-0.242	0.108
-534.135	-102.296	-0.177	-0.042
-533.121	137.161	-0.102	-0.132
-532.106	-18.222	0.158	-0.098
-531.091	-115.043	-0.199	0.037
-530.077	-32.396	-0.162	-0.089
-529.062	-200.000	-0.005	0.137
-528.048	409.604	0.124	-0.260
-527.033	-21.821	-0.282	-0.170
-526.018	528.880	-0.053	-0.123
-525.004	800.000	-0.081	-0.302
-523.989	62.663	-0.179	-0.177
-522.975	-200.000	-0.062	-0.568
-521.960	-33.079	-0.137	0.075
-520.945	-51.975	0.285	0.131
-519.931	800.000	0.098	-0.283
-518.916	755.416	0.065	-0.174
-517.902	800.000	0.097	-0.317
-516.887	289.280	0.137	-0.245
-515.872	-200.000	-0.039	0.276
-514.858	800.000	-0.104	-0.316
-513.843	97.980	-0.138	0.157
-512.829	247.606	-0.082	0.137
-511.814	756.751	0.093	0.248
-510.799	-15.294	-0.154	-0.097
-509.785	68.128	-0.076	0.077
-508.770	-200.000	-0.035	0.243
-507.756	-130.669	0.230	0.031
-506.741	-200.000	-0.012	0.083
-505.726	-200.000	0.017	0.252
-504.712	85.628	0.078	-0.085
-503.697	-76.359	-0.325	0.113
-502.683	151.244	-0.016	0.021
-501.668	-56.895	0.278	0.121
-500.653	-200.000	-0.065	-0.358
-499.639	258.451	-0.164	-0.278
-498.624	275.077	0.175	-0.306
-497.610	-35.705	-0.328	0.176
-496.595	115.427	-0.041	-0.049
-495.581	-41.725	-0.180	-0.091
-494.566	76.407	-0.351	-0.367
-493.551	-200.000	-0.006	-0.378
-492.537	-200.000	-0.016	-0.234
-491.522	-116.739	0.523	0.095
-490.508	-162.966	-0.167	-0.008
-489.493	800.000	0.057	0.240
-488.478	-61.887	-0.269	-0.111
-487.464	800.000	0.020	-0.072
-486.449	-112.690	0.285	-0.056
-485.435	40.016	-0.081	0.072
-484.420	-25.914	0.246	0.143
-483.405	193.032	0.086	-0.129
-482.391	-10.336	-0.249	-0.163
-481.376	-59.241	-0.321	0.137
-480.362	530.561	0.120	0.280
-479.347	79.781	-0.310	-0.328
-478.332	92.694	0.144	0.160
-477.318	389.217	0.077	0.158
-476.303	-107.221	-0.624	0.136
-475.289	-45.722	-0.224	0.109
-474.274	192.269	-0.219	0.326
-473.259	-0.222	0.186	-0.131
-472.245	-200.000	-0.013	0.332
-471.230	40.549	0.211	0.187
-470.216	8.886	0.287	0.214
-469.201	-1.800	-0.203	0.141
-468.186	69.332	0.133	0.135
-467.172	-39.059	0.246	-0.128
-466.157	555.645	-0.176	-0.418
-465.143	56.471	-0.131	-0.126
-464.128	-200.000	0.000	-0.076
-463.113	-49.184	-0.228	-0.108
-462.099	-104.357	0.265	0.061
-461.084	304.352	0.087	0.159
-460.070	-132.819	-0.122	-0.015
-459.055	-123.223	0.200	-0.032
-458.040	800.000	0.020	0.062
-457.026	800.000	0.091	0.288
-456.011	-74.371	-0.128	-0.046
-454.997	19.151	-0.146	0.116
-453.982	-200.000	0.008	-0.256
-452.968	800.000	-0.041	-0.170
-451.953	-65.246	-0.460	-0.183
-450.938	751.256	-0.043	0.115
-449.924	66.220	-0.182	-0.182
-448.909	508.106	0.029	0.066
-447.895	-200.000	-0.406	-0.000
-446.880	282.547	0.026	0.047
-445.865	800.000	0.069	-0.190
-444.851	52.382	0.138	-0.130
-443.836	800.000	-0.090	0.334
-442.822	-117.806	-0.106	-0.019
-441.807	-200.000	-0.004	-0.028
-440.792	197.548	0.070	-0.105
-439.778	-194.594	-0.460	0.004
-438.763	-200.000	0.027	0.157
-437.749	299.475	-0.085	0.155
-436.734	187.306	0.076	0.112
-435.719	-51.509	0.277	-0.127
-434.705	-150.551	0.191	0.014
-433.690	-200.000	0.007	-0.085
-432.676	15.997	-0.210	-0.163
-431.661	-200.000	0.057	-0.292
-430.646	-92.345	0.433	0.120
-429.632	-92.344	-0.248	0.069
-428.617	88.771	0.238	0.260
-427.603	-16.383	-0.082	-0.051
-426.588	440.881	0.100	-0.216
-425.573	-120.945	-0.359	0.059
-424.559	-200.000	-0.057	0.245
-423.544	11.268	0.160	-0.120
-422.530	-44.182	-0.151	-0.074
-421.515	293.457	-0.180	-0.323
-420.500	-45.181	0.094	-0.046
-419.486	41.383	-0.115	-0.103
-418.471	396.219	0.110	0.226
-417.457	-37.226	0.182	-0.096
-416.442	-55.623	-0.344	-0.151
-415.428	-200.000	0.001	0.170
-414.413	267.649	-0.200	-0.344
-413.398	204.473	-0.146	-0.222
-412.384	800.000	0.054	0.172
-411.369	-200.000	0.024	0.205
-410.355	-107.502	-0.358	-0.077
-409.340	116.208	0.136	-0.164
-408.325	424.681	0.014	0.029
-407.311	-200.000	0.024	-0.122
-406.296	-200.000	-0.034	-0.196
-405.282	-200.000	-0.001	0.209
-404.267	114.975	0.234	-0.281
-403.252	-93.124	0.039	-0.011
-402.238	-138.601	-0.337	0.036
-401.223	256.162	-0.120	-0.202
-400.209	-200.000	-0.006	0.101
-399.194	-200.000	0.009	0.041
-398.179	-146.382	0.238	0.020
-397.165	-53.795	-0.175	-0.079
-396.150	75.208	0.038	0.039
-395.136	126.105	-0.264	0.328
-394.121	-142.879	0.205	0.020
-393.106	16.742	-0.274	-0.213
-392.092	95.371	-0.230	-0.258
-391.077	62.863	0.310	0.305
-390.063	9.761	-0.185	0.138
-389.048	149.519	-0.164	0.218
-388.033	-130.692	0.331	0.044
-387.019	13.063	-0.164	0.124
-386.004	-200.000	-0.030	-0.186
-384.990	-41.349	0.063	0.032
-383.975	-133.288	0.256	0.032
-382.960	-200.000	0.341	-0.001
-381.946	-43.327	-0.240	-0.120
-380.931	-200.000	-0.025	0.220
-379.917	124.779	-0.226	0.280
-378.902	-62.551	0.129	-0.052
-377.888	83.857	-0.228	-0.245
-376.873	226.909	0.237	-0.379
-375.858	-11.239	0.174	-0.112
-374.844	83.627	-0.293	0.314
-373.829	35.229	0.262	0.225
-372.815	800.000	0.036	-0.106
-371.800	-162.869	-0.521	-0.025
-370.785	-59.873	-0.057	-0.024
-369.771	140.061	0.060	0.078
-368.756	-200.000	0.058	0.324
-367.742	-200.000	0.003	-0.126
-366.727	-3.670	-0.175	-0.119
-365.712	94.953	0.218	0.244
-364.698	115.121	0.077	0.092
-363.683	684.929	-0.193	-0.495
-362.669	-200.000	0.003	-0.185
-361.654	476.728	0.014	-0.031
-360.639	155.011	0.139	0.188
-359.625	-71.937	-0.172	-0.063
-358.610	-200.000	0.016	0.334
-357.596	-147.719	-0.510	-0.042
-356.581	-200.000	-0.002	-0.164
-355.566	-200.000	-0.017	0.086
-354.552	653.091	0.028	0.070
-353.537	795.574	-0.058	0.156
-352.523	302.269	0.140	0.254
-351.508	-6.774	-0.118	0.079
-350.493	-200.000	0.013	0.182
-349.479	-174.627	-0.197	0.005
-348.464	681.083	-0.025	-0.064
-347.450	-25.669	0.091	-0.053
-346.435	-127.793	-0.143	0.020
-345.420	51.263	0.101	-0.094
-344.406	-157.332	0.584	0.035
-343.391	-200.000	0.027	-0.176
-342.377	-68.059	-0.229	-0.088
-341.362	-200.000	-0.015	0.143
-340.348	215.160	0.023	-0.036
-339.333	144.202	0.046	0.061
-338.318	-41.877	0.109	0.055
-337.304	46.970	-0.062	-0.056
-336.289	-60.956	0.395	0.164
-335.275	-136.248	0.250	0.029
-334.260	-163.486	-0.413	-0.019
-333.245	-152.745	0.300	0.021
-332.231	800.000	0.048	-0.161
-331.216	392.455	0.029	0.059
-330.202	215.301	0.115	-0.178
-329.187	25.510	-0.058	-0.048
-328.172	53.750	-0.317	-0.298
-327.158	-125.534	0.178	-0.027
-326.143	800.000	0.078	-0.295
-325.129	204.783	-0.139	0.211
-324.114	197.246	0.049	0.073
-323.099	26.527	-0.101	-0.083
-322.085	-89.137	-0.186	0.054
-321.070	109.051	0.015	0.018
-320.056	800.000	0.029	-0.108
-319.041	153.609	-0.197	-0.264
-318.026	-154.817	0.277	0.018
-317.012	800.000	-0.042	-0.147
-315.997	800.000	0.133	0.413
-314.983	-70.772	0.291	-0.108
-313.968	-43.344	0.113	0.056
-312.953	800.000	-0.034	0.105
-311.939	-34.978	-0.230	-0.123
-310.924	-133.904	0.135	-0.016
-309.910	48.514	-0.159	0.146
-308.895	-13.636	-0.246	-0.156
-307.880	-121.532	0.182	0.030
-306.866	-200.000	-0.009	0.143
-305.851	-113.606	-0.028	-0.005
-304.837	53.868	0.207	-0.195
-303.822	125.018	-0.130	0.160
-302.807	208.081	-0.142	0.217
-301.793	-6.462	0.152	0.101
-300.778	-131.814	-0.271	0.035
-299.764	178.969	-0.081	0.116
-298.749	-63.683	0.017	0.007
-297.735	160.299	0.168	0.230
-296.720	-200.000	0.033	-0.308
-295.705	-200.000	-0.031	0.204
-294.691	-83.372	0.149	-0.047
-293.676	15.578	0.072	0.055
-292.662	-31.328	0.172	-0.095
-291.647	-123.374	-0.208	0.033
-290.632	800.000	0.093	0.304
-289.618	-2.975	0.175	-0.120
-288.603	311.650	-0.138	0.253
-287.589	-4.232	-0.028	0.019
-286.574	-200.000	-0.011	0.505
-285.559	800.000	0.089	0.346
-284.545	-138.131	0.181	-0.020
-283.530	-200.000	0.163	-0.000
-282.516	-149.504	0.178	-0.014
-281.501	800.000	0.050	-0.142
-280.486	-89.831	0.189	-0.054
-279.472	158.670	-0.081	0.109
-278.457	232.493	0.286	0.460
-277.443	-200.000	0.019	0.090
-276.428	-85.106	0.212	0.065
-275.413	-122.351	0.099	-0.016
-274.399	45.860	0.353	-0.320
-273.384	-136.405	-0.257	0.029
-272.370	-200.000	-0.029	0.164
-271.355	-101.861	0.234	0.055
-270.340	452.456	-0.063	0.136
-269.326	300.028	-0.085	0.154
-268.311	484.869	0.085	0.190
-267.297	-188.832	0.147	-0.002
-266.282	10.299	0.136	-0.101
-265.267	-117.150	-0.430	0.077
-264.253	-108.668	0.158	0.033
-263.238	-200.000	0.004	-0.042
-262.224	-105.651	-0.327	-0.072
-261.209	-100.629	0.324	0.078
-260.195	-200.000	-0.038	-0.279
-259.180	581.150	-0.084	0.201
-258.165	-200.000	0.002	-0.107
-257.151	-21.912	0.220	0.131
-256.136	-106.672	0.104	0.023
-255.122	-200.000	-0.032	-0.161
-254.107	-176.556	0.295	0.007
-253.092	91.626	-0.187	0.205
-252.078	-9.503	0.094	0.061
-251.063	260.905	0.037	-0.062
-250.049	406.161	-0.106	0.218
-249.034	800.000	0.040	0.154
-248.019	560.372	-0.020	0.048
-247.005	151.637	-0.254	-0.339
-245.990	-200.000	0.005	0.031
-244.976	-67.729	0.264	0.101
-243.961	166.663	-0.016	-0.023
-242.946	50.025	0.086	0.079
-241.932	55.700	-0.080	-0.075
-240.917	1.748	0.188	0.133
-239.903	-53.998	-0.124	0.055
-238.888	19.706	-0.199	0.157
-237.873	-200.000	-0.081	0.382
-236.859	-73.571	0.149	-0.053
-235.844	-100.351	-0.377	-0.091
-234.830	165.037	0.101	-0.139
-233.815	236.558	0.131	0.213
-232.800	-200.000	-0.005	0.269
-231.786	340.362	0.080	-0.153
-230.771	-35.739	-0.072	-0.038
-229.757	258.091	-0.089	-0.151
-228.742	-38.979	0.050	-0.026
-227.727	89.956	-0.163	0.178
-226.713	-122.625	0.054	-0.009
-225.698	-136.959	0.169	-0.019
-224.684	210.066	-0.035	-0.054
-223.669	-88.222	0.289	0.084
-222.655	-200.000	0.006	0.253
-221.640	50.624	0.080	-0.074
-220.625	171.773	0.077	-0.107
-219.611	-144.980	0.198	-0.018
-218.596	-119.792	0.273	0.046
-217.582	-40.688	0.102	0.052
-216.567	-200.000	0.014	0.351
-215.552	-51.935	-0.252	0.114
-214.538	-73.101	0.029	-0.010
-213.523	423.467	0.063	-0.132
-212.509	-38.035	-0.070	0.036
-211.494	-122.812	0.386	0.061
-210.479	67.366	0.199	-0.198
-209.465	112.410	0.138	-0.163
-208.450	-200.000	-0.018	-0.281
-207.436	-137.696	-0.068	0.007
-206.421	186.425	-0.198	0.287
-205.406	-10.828	-0.208	-0.134
-204.392	-46.056	0.196	-0.094
-203.377	69.601	-0.266	0.268
-202.363	-117.809	-0.341	0.060
-201.348	-90.838	-0.156	0.044
-200.333	-54.221	0.092	-0.041
-199.319	-60.034	0.187	0.078
-198.304	10.841	0.209	0.155
-197.290	70.059	-0.265	0.267
-196.275	152.478	0.180	0.240
-195.260	-191.198	0.149	0.001
-194.246	99.925	0.110	-0.124
-193.231	-200.000	-0.043	-0.278
-192.217	-5.377	-0.430	-0.288
-191.202	67.356	0.051	0.051
-190.187	217.122	-0.096	0.149
-189.173	-83.625	0.254	-0.079
-188.158	-71.414	-0.368	0.134
-187.144	136.220	0.156	-0.199
-186.129	-104.183	0.228	-0.052
-185.114	669.470	-0.067	-0.170
-184.100	-66.652	-0.123	-0.048
-183.085	800.000	0.070	0.233
-182.071	-200.000	0.004	-0.095
-181.056	-200.000	-0.031	-0.231
-180.042	159.276	0.228	-0.309
-179.027	-30.687	0.193	-0.107
-178.012	-200.000	0.006	-0.092
-176.998	-64.872	-0.170	-0.067
-175.983	198.074	0.104	0.155
-174.969	188.249	0.109	0.159
-173.954	38.746	0.188	-0.163
-172.939	63.805	0.323	0.316
-171.925	-160.341	0.093	-0.005
-170.910	98.609	0.056	-0.063
-169.896	-79.318	0.442	-0.146
-168.881	-48.850	0.136	-0.064
-167.866	-142.670	0.140	-0.013
-166.852	-69.732	0.300	-0.112
-165.837	800.000	-0.061	-0.185
-164.823	-200.000	0.011	0.271
-163.808	423.955	-0.086	0.179
-162.793	231.914	-0.069	0.110
-161.779	696.945	-0.026	-0.068
-160.764	-200.000	0.018	-0.210
-159.750	800.000	-0.048	0.197
-158.735	-115.916	-0.332	0.060
-157.720	156.233	-0.098	-0.131
-156.706	455.353	-0.094	-0.203
-155.691	8.052	-0.256	0.187
-154.677	-200.000	-0.047	0.295
-153.662	-97.021	-0.093	0.024
-152.647	-139.381	-0.197	-0.021
-151.633	18.230	-0.266	-0.207
-150.618	-109.573	0.134	0.027
-149.604	-47.883	-0.109	0.051
-148.589	-98.899	0.192	0.047
-147.574	-9.559	-0.433	0.281
-146.560	-124.696	-0.109	0.016
-145.545	-49.046	-0.378	0.176
-144.531	-55.686	-0.188	-0.082
-143.516	-134.412	0.093	-0.011
-142.502	-74.733	-0.178	-0.062
-141.487	-38.693	0.114	0.059
-140.472	-70.376	0.024	-0.009
-139.458	-200.000	-0.039	0.243
-138.443	-129.658	-0.042	0.006
-137.429	-200.000	-0.078	-0.351
-136.414	-200.000	0.009	-0.212
-135.399	40.100	0.286	-0.250
-134.385	-12.574	0.115	-0.073
-133.370	-200.000	0.027	-0.171
-132.356	-164.391	-0.163	0.007
-131.341	45.753	-0.166	-0.149
-130.326	-200.000	0.004	0.389
-129.312	-53.803	-0.065	-0.029
-128.297	348.790	0.101	0.193
-127.283	588.016	0.077	0.184
-126.268	288.763	-0.122	0.215
-125.253	-181.555	0.320	-0.006
-124.239	-154.110	0.222	-0.015
-123.224	-60.898	0.219	-0.090
-122.210	-4.550	-0.223	-0.150
-121.195	-45.212	0.127	0.061
-120.180	771.490	0.133	-0.351
-119.166	-86.900	-0.662	0.197
-118.151	303.914	0.049	0.089
-117.137	-133.495	0.078	0.010
-116.122	450.404	0.093	-0.199
-115.107	237.552	0.090	0.146
-114.093	-78.323	-0.210	0.070
-113.078	-2.943	0.223	-0.151
-112.064	6.418	0.099	-0.072
-111.049	-118.072	-0.328	-0.057
-110.034	-200.000	0.020	0.141
-109.020	800.000	-0.114	0.369
-108.005	296.230	0.014	0.026
-106.991	-63.519	0.152	0.061
-105.976	221.606	-0.037	-0.057
-104.962	-200.000	0.038	0.251
-103.947	-200.000	0.040	-0.274
-102.932	647.971	-0.061	0.152
-101.918	-127.303	0.269	-0.038
-100.903	424.321	-0.067	0.140
-99.889	79.773	0.132	-0.138
-98.874	800.000	0.063	0.248
-97.859	-200.000	-0.011	-0.146
-96.845	85.052	0.160	-0.170
-95.830	-86.133	0.047	0.014
-94.816	-98.621	-0.266	0.066
-93.801	73.245	0.057	-0.058
-92.786	-53.216	0.398	0.177
-91.772	361.517	-0.068	0.132
-90.757	800.000	0.081	-0.315
-89.743	-88.137	-0.064	-0.019
-88.728	-70.251	-0.360	0.133
-87.713	738.624	0.037	0.097
-86.699	6.605	0.016	-0.011
-85.684	-7.456	0.457	-0.301
-84.670	26.757	-0.112	-0.091
-83.655	-153.915	0.130	-0.009
-82.640	-154.462	-0.098	-0.006
-81.626	-108.319	-0.134	0.028
-80.611	-95.757	0.354	0.092
-79.597	14.004	0.048	-0.037
-78.582	468.299	-0.087	0.189
-77.567	-47.571	0.023	-0.011
-76.553	-85.721	0.035	-0.011
-75.538	47.762	-0.099	0.090
-74.524	177.737	0.086	-0.122
-73.509	-200.000	0.054	-0.286
-72.494	-200.000	-0.007	-0.298
-71.480	520.079	-0.152	-0.346
-70.465	800.000	-0.086	-0.263
-69.451	-162.896	0.286	-0.013
-68.436	800.000	-0.112	-0.355
-67.422	-23.681	-0.276	0.161
-66.407	-22.734	0.045	-0.027
-65.392	-200.000	-0.001	-0.108
-64.378	-189.043	-0.125	-0.001
-63.363	-200.000	-0.003	-0.222
-62.349	-116.444	0.131	-0.024
-61.334	53.874	-1.319	-1.230
-60.319	254.239	0.521	0.864
-59.305	319.656	-0.675	-1.243
-58.290	130.796	1.071	1.334
-57.276	800.000	0.537	1.807
-56.261	-200.000	134.400	687.045
-55.246	353.483	1668.553	3213.700
-54.232	134.109	2814.081	3537.810
-53.217	85.962	2308.461	2464.660
-52.203	30.678	1903.212	1580.199
-51.188	24.771	1697.532	1364.459
-50.173	22.878	1659.716	1319.874
-49.159	45.179	1732.923	1549.752
-48.144	42.126	1742.602	1535.002
-47.130	24.323	1692.914	1357.125
-46.115	21.705	1677.573	1324.997
-45.100	21.745	1672.366	1321.135
-44.086	21.628	1670.002	1318.337
-43.071	21.640	1667.388	1316.311
-42.057	21.607	1665.198	1314.284
-41.042	21.631	1663.232	1312.859
-40.027	21.661	1661.519	1311.680
-39.013	21.606	1659.637	1309.726
-37.998	21.581	1658.018	1308.209
-36.984	21.641	1656.668	1307.543
-35.969	21.775	1655.301	1307.412
-34.954	21.678	1653.932	1305.555
-33.940	21.704	1651.930	1304.115
-32.925	21.763	1649.965	1302.955
-31.911	21.756	1648.609	1301.780
-30.896	21.711	1646.801	1299.969
-29.881	21.728	1645.450	1298.971
-28.867	21.664	1643.922	1297.244
-27.852	21.832	1642.079	1296.981
-26.838	21.808	1641.074	1295.954
-25.823	21.778	1639.557	1294.482
-24.809	21.898	1638.281	1294.311
-23.794	21.826	1637.133	1292.824
-22.779	21.731	1635.734	1290.965
-21.765	21.854	1633.728	1290.236
-20.750	21.780	1632.190	1288.430
-19.736	21.707	1631.417	1287.227
-18.721	21.851	1629.356	1286.608
-17.706	21.744	1628.438	1285.050
-16.692	21.813	1626.531	1283.996
-15.677	21.806	1625.165	1282.816
-14.663	21.887	1623.738	1282.231
-13.648	21.796	1623.021	1280.951
-12.633	21.826	1621.023	1279.541
-11.619	21.828	1619.366	1278.201
-10.604	21.809	1618.055	1276.976
-9.590	21.856	1616.576	1276.101
-8.575	21.891	1615.500	1275.452
-7.560	21.680	1614.652	1273.197
-6.546	21.830	1613.554	1273.370
-5.531	21.831	1611.986	1272.090
-4.517	21.842	1610.437	1270.898
-3.502	21.753	1609.636	1269.570
-2.487	21.739	1608.189	1268.274
-1.473	21.373	1595.696	1255.749
-0.458	18.285	1576.353	1218.528
0.556	13.576	1578.391	1186.134
1.571	11.399	1602.364	1188.204
2.586	11.211	1614.196	1195.494
3.600	10.587	1559.626	1150.554
4.615	6.119	1455.750	1044.197
5.629	1.654	1398.830	974.732
6.644	0.736	1392.585	964.440
7.659	0.803	1391.267	963.867
8.673	0.707	1390.717	962.787
9.688	0.604	1388.649	960.618
10.702	0.577	1384.658	957.600
11.717	2.770	1387.559	973.449
12.731	9.010	1397.107	1019.822
13.746	15.044	1405.985	1064.704
14.761	17.071	1409.136	1079.907
15.775	16.635	1406.876	1075.307
16.790	15.741	1404.028	1067.361
17.804	15.078	1401.754	1061.341
18.819	14.534	1400.738	1057.031
19.834	14.336	1399.323	1054.613
20.848	14.062	1398.079	1051.852
21.863	13.937	1396.580	1049.841
22.877	13.716	1395.375	1047.443
23.892	13.690	1394.035	1046.185
24.907	13.676	1393.710	1045.756
25.921	13.700	1392.903	1045.211
26.936	13.728	1391.672	1044.372
27.950	13.657	1391.192	1043.473
28.965	13.812	1389.354	1042.975
29.980	13.885	1388.810	1042.933
30.994	13.871	1387.873	1042.049
32.009	13.863	1387.344	1041.510
33.023	13.913	1385.855	1040.611
34.038	13.847	1384.433	1039.038
35.053	13.888	1383.826	1038.751
36.067	13.759	1382.635	1036.958
37.082	13.819	1381.414	1036.321
38.096	13.816	1380.812	1035.761
39.111	13.812	1380.005	1035.038
40.126	13.737	1378.986	1033.714
41.140	13.689	1378.478	1032.943
42.155	13.724	1377.795	1032.559
43.169	13.666	1377.711	1032.044
44.184	13.676	1377.337	1031.732
45.199	13.630	1377.245	1031.285
46.213	13.668	1376.293	1030.722
47.228	13.777	1375.179	1030.471
48.242	13.838	1374.018	1029.891
49.257	13.752	1372.470	1028.106
50.271	13.793	1370.882	1027.075
51.286	13.757	1369.620	1025.816
52.301	13.656	1368.019	1023.908
53.315	13.753	1366.952	1023.612
54.330	13.650	1366.211	1022.332
55.344	13.667	1365.184	1021.582
56.359	13.753	1363.613	1020.843
57.374	13.683	1363.346	1020.122
58.388	13.705	1362.477	1019.517
59.403	13.655	1361.736	1018.567
60.417	13.736	1360.881	1018.335
61.432	13.449	1360.423	1016.137
62.447	13.551	1359.603	1016.062
63.461	13.623	1357.938	1015.169
64.476	13.606	1356.656	1014.019
65.490	13.646	1355.257	1013.128
66.505	13.621	1353.922	1011.889
67.520	13.553	1352.839	1010.573
68.534	13.649	1351.648	1010.175
69.549	13.663	1350.524	1009.336
70.563	13.689	1349.548	1008.672
71.578	13.609	1348.153	1007.055
72.593	13.622	1347.728	1006.728
73.607	13.558	1346.537	1005.361
74.622	13.550	1346.121	1004.914
75.636	13.509	1344.855	1003.632
76.651	13.555	1344.250	1003.368
77.666	13.625	1343.856	1003.408
78.680	13.588	1343.039	1002.485
79.695	13.567	1342.426	1001.816
80.709	13.521	1342.194	1001.275
81.724	13.659	1340.662	1000.874
82.739	13.653	1339.712	1000.039
83.753	13.678	1339.045	999.605
84.768	13.795	1337.478	999.054
85.782	13.769	1336.342	997.959
86.797	13.682	1335.506	996.722
87.812	13.679	1333.730	995.289
88.826	13.674	1332.646	994.364
89.841	13.739	1331.463	993.784
90.855	13.734	1330.423	992.886
91.870	13.832	1329.708	992.851
92.884	13.819	1328.672	991.915
93.899	13.864	1327.650	991.333
94.914	13.886	1327.226	991.063
95.928	13.857	1326.797	990.478
96.943	13.673	1326.213	988.860
97.957	13.823	1324.618	988.475
98.972	13.799	1323.473	987.387
99.987	13.829	1322.335	986.634
101.001	13.871	1321.515	986.185
102.016	13.797	1320.838	985.150
103.030	13.785	1319.931	984.317
104.045	13.795	1319.201	983.742
105.060	13.795	1317.280	982.225
106.074	13.741	1316.403	981.160
107.089	13.731	1315.032	979.993
108.103	13.669	1313.922	978.713
109.118	13.695	1312.689	977.862
110.133	13.566	1311.366	976.032
111.147	13.642	1309.276	974.836
112.162	13.715	1307.903	974.161
113.176	13.743	1307.131	973.662
114.191	13.612	1306.210	972.121
115.206	13.732	1305.598	972.283
116.220	13.771	1303.809	971.089
117.235	13.808	1302.578	970.308
118.249	13.668	1301.953	968.939
119.264	13.757	1300.552	968.325
120.279	13.693	1299.812	967.315
121.293	13.809	1298.265	966.754
122.308	13.761	1297.832	966.068
123.322	13.717	1296.555	964.777
124.337	13.772	1294.960	963.823
125.352	13.708	1294.249	962.837
126.366	13.620	1293.295	961.534
127.381	13.644	1292.102	960.700
128.395	13.675	1290.971	959.954
129.410	13.742	1290.096	959.603
130.424	13.756	1288.974	958.765
131.439	13.614	1288.488	957.501
132.454	13.736	1287.321	957.251
133.468	13.871	1285.921	956.904
134.483	13.748	1285.434	955.751
135.497	13.824	1283.889	954.951
136.512	13.857	1282.800	954.249
137.527	13.758	1281.932	952.948
138.541	13.774	1280.222	951.684
139.556	13.809	1278.972	950.872
140.570	13.877	1277.983	950.442
141.585	13.838	1276.676	949.164
142.600	13.847	1275.594	948.326
143.614	13.945	1274.530	948.009
144.629	14.006	1273.829	947.753
145.643	13.960	1272.124	946.142
146.658	13.856	1271.291	944.842
147.673	13.978	1269.929	944.444
148.687	13.809	1268.985	942.699
149.702	13.819	1267.898	941.864
150.716	13.870	1266.109	940.741
151.731	14.012	1264.971	940.613
152.746	13.985	1263.775	939.488
153.760	13.916	1262.957	938.407
154.775	13.973	1261.890	937.856
155.789	14.018	1260.128	936.715
156.804	14.008	1259.286	935.950
157.819	13.981	1258.327	935.004
158.833	14.106	1257.321	934.874
159.848	14.119	1256.481	934.240
160.862	14.090	1255.623	933.358
161.877	13.993	1254.384	931.811
162.892	14.097	1252.651	931.022
163.906	14.080	1252.061	930.407
164.921	14.051	1250.868	929.275
165.935	14.032	1250.822	929.055
166.950	14.075	1249.979	928.586
167.964	14.083	1248.939	927.772
168.979	14.143	1248.066	927.379
169.994	14.115	1247.496	926.716
171.008	14.133	1247.022	926.381
172.023	14.163	1245.877	925.618
173.037	14.243	1244.763	925.155
174.052	14.267	1244.072	924.693
175.067	14.171	1243.026	923.299
176.081	14.090	1242.040	922.035
177.096	14.211	1241.023	921.867
178.110	14.231	1240.009	921.144
179.125	14.158	1238.759	919.733
180.140	14.209	1237.160	918.742
181.154	14.172	1236.545	918.003
182.169	14.360	1234.814	917.672
183.183	14.244	1233.896	916.268
184.198	14.358	1232.483	915.763
185.213	14.368	1231.641	915.115
186.227	14.323	1230.453	913.906
187.242	14.366	1229.639	913.454
188.256	14.475	1228.642	913.229
189.271	14.517	1227.197	912.303
190.286	14.350	1226.540	910.820
191.300	14.207	1225.818	909.422
192.315	14.241	1224.865	908.821
193.329	14.299	1224.595	908.859
194.344	14.354	1223.554	908.303
195.359	14.448	1223.035	908.353
196.373	14.436	1222.584	907.872
197.388	14.404	1222.355	907.444
198.402	14.521	1221.286	907.209
199.417	14.525	1220.870	906.842
200.432	14.662	1219.583	906.548
201.446	14.557	1219.254	905.652
202.461	14.675	1217.841	905.165
203.475	14.582	1217.480	904.314
204.490	14.565	1215.769	902.870
205.504	14.671	1214.107	902.126
206.519	14.633	1213.248	901.206
207.534	14.550	1212.585	900.184
208.548	14.581	1211.736	899.641
209.563	14.541	1210.855	898.692
210.577	14.580	1209.783	898.026
211.592	14.586	1209.079	897.457
212.607	14.733	1208.064	897.416
213.621	14.773	1207.123	896.853
214.636	14.731	1206.334	895.960
215.650	14.774	1205.380	895.403
216.665	14.798	1204.159	894.544
217.680	14.818	1203.797	894.306
218.694	14.830	1202.596	893.397
219.709	14.866	1201.292	892.543
220.723	14.794	1201.174	891.990
221.738	14.851	1200.494	891.710
222.753	14.800	1199.865	890.894
223.767	14.909	1198.624	890.474
224.782	14.967	1197.669	889.996
225.796	14.973	1197.741	889.998
226.811	14.925	1196.741	888.921
227.826	14.891	1196.400	888.411
228.840	14.931	1195.416	887.811
229.855	14.930	1194.449	887.013
230.869	14.853	1193.934	886.144
231.884	14.862	1193.329	885.665
232.899	14.874	1192.732	885.204
233.913	14.886	1192.127	884.742
234.928	14.971	1191.136	884.378
235.942	14.924	1190.189	883.346
236.957	14.952	1189.396	882.826
237.972	14.953	1188.672	882.215
238.986	14.932	1188.182	881.665
240.001	14.998	1187.149	881.168
241.015	15.002	1186.422	880.571
242.030	14.953	1185.887	879.836
243.045	15.016	1185.051	879.474
244.059	15.080	1183.784	878.788
245.074	15.158	1182.973	878.518
246.088	15.109	1182.285	877.672
247.103	15.164	1181.414	877.240
248.117	15.056	1181.016	876.296
249.132	15.285	1180.000	876.666
250.147	15.321	1179.102	876.106
251.161	15.388	1178.657	876.048
252.176	15.293	1178.189	875.127
253.190	15.411	1177.144	874.890
254.205	15.372	1176.923	874.447
255.220	15.455	1176.134	874.216
256.234	15.431	1175.611	873.621
257.249	15.393	1174.736	872.699
258.263	15.404	1174.098	872.203
259.278	15.438	1173.653	871.972
260.293	15.513	1172.593	871.497
261.307	15.480	1172.430	871.130
262.322	15.571	1171.521	870.846
263.336	15.562	1170.481	869.953
264.351	15.579	1170.452	869.938
265.366	15.615	1169.932	869.660
266.380	15.622	1169.050	868.966
267.395	15.542	1167.820	867.563
268.409	15.559	1167.476	867.315
269.424	15.676	1166.375	867.024
270.439	15.637	1166.037	866.495
271.453	15.645	1164.978	865.672
272.468	15.489	1164.710	864.598
273.482	15.555	1163.857	864.226
274.497	15.630	1163.326	864.142
275.512	15.690	1162.196	863.534
276.526	15.741	1161.331	863.076
277.541	15.683	1160.784	862.293
278.555	15.723	1160.102	861.915
279.570	15.812	1159.188	861.616
280.585	15.809	1158.602	861.089
281.599	15.793	1157.369	860.015
282.614	15.837	1156.251	859.336
283.628	15.804	1155.270	858.360
284.643	15.731	1154.502	857.341
285.657	15.764	1153.782	856.901
286.672	15.842	1152.698	856.417
287.687	15.863	1151.697	855.704
288.701	15.884	1151.287	855.428
289.716	15.934	1150.364	854.920
290.730	15.864	1149.590	853.915
291.745	15.966	1149.063	853.967
292.760	15.877	1148.223	852.815
293.774	15.935	1147.852	852.759
294.789	16.045	1147.277	852.811
295.803	16.080	1146.609	852.417
296.818	16.058	1145.399	851.328
297.833	15.958	1145.303	850.678
298.847	16.025	1144.221	850.137
299.862	16.076	1143.531	849.808
300.876	16.049	1142.950	849.164
301.891	16.102	1142.604	849.099
302.906	16.241	1141.682	849.036
303.920	16.135	1140.782	847.759
304.935	16.081	1139.922	846.775
305.949	16.160	1139.495	846.778
306.964	16.305	1138.346	846.575
307.979	16.238	1137.859	845.806
308.993	16.207	1137.243	845.116
310.008	16.223	1136.764	844.768
311.022	16.338	1135.578	844.387
312.037	16.319	1134.899	843.711
313.052	16.357	1133.887	843.075
314.066	16.234	1132.815	841.589
315.081	16.347	1132.052	841.511
316.095	16.208	1131.692	840.476
317.110	16.332	1130.951	840.469
318.125	16.324	1130.120	839.737
319.139	16.266	1129.310	838.773
320.154	16.337	1128.388	838.367
321.168	16.253	1128.240	837.763
322.183	16.207	1127.741	837.093
323.197	16.343	1126.985	837.129
324.212	16.281	1126.526	836.409
325.227	16.475	1125.441	836.487
326.241	16.417	1124.933	835.749
327.256	16.437	1123.968	835.058
328.270	16.386	1122.891	833.932
329.285	16.457	1122.478	833.901
330.300	16.485	1121.221	833.032
331.314	16.420	1120.405	832.033
332.329	16.427	1119.472	831.299
333.343	16.443	1118.642	830.689
334.358	16.535	1117.715	830.378
335.373	16.553	1117.145	829.969
336.387	16.569	1116.347	829.383
337.402	16.551	1115.584	828.655
338.416	16.516	1115.243	828.155
339.431	16.595	1114.355	827.808
340.446	16.667	1113.550	827.490
341.460	16.738	1112.846	827.244
342.475	16.610	1112.145	826.023
343.489	16.643	1111.472	825.608
344.504	16.725	1110.339	825.096
345.519	16.784	1109.206	824.467
346.533	16.809	1108.825	824.231
347.548	16.841	1108.127	823.798
348.562	16.753	1107.270	822.661
349.577	16.826	1106.720	822.531
350.592	16.835	1105.900	821.894
351.606	16.830	1105.033	821.155
352.621	16.861	1104.407	820.766
353.635	16.812	1103.572	819.833
354.650	16.747	1102.589	818.719
355.665	16.870	1102.217	818.965
356.679	16.870	1101.012	817.997
357.694	16.982	1100.975	818.434
358.708	16.927	1100.473	817.725
359.723	16.974	1099.861	817.423
360.738	16.937	1099.016	816.546
361.752	16.925	1098.465	816.007
362.767	16.910	1098.107	815.595
363.781	17.078	1097.226	815.677
364.796	17.159	1096.099	815.158
365.810	16.980	1096.081	814.211
366.825	17.104	1095.157	814.048
367.840	17.146	1095.136	814.161
368.854	17.194	1094.240	813.651
369.869	17.263	1093.538	813.389
370.883	17.241	1092.540	812.472
371.898	17.151	1091.973	811.544
372.913	17.194	1091.526	811.348
373.927	17.192	1090.977	810.860
374.942	17.179	1090.802	810.593
375.956	17.344	1089.643	810.449
376.971	17.197	1089.276	809.400
377.986	17.236	1088.712	809.099
379.000	17.290	1087.967	808.730
380.015	17.466	1087.406	809.078
381.029	17.443	1086.305	808.078
382.044	17.375	1085.919	807.395
383.059	17.401	1085.316	806.998
384.073	17.452	1084.333	806.441
385.088	17.594	1083.260	806.241
386.102	17.507	1082.578	805.253
387.117	17.364	1081.606	803.780
388.132	17.380	1080.753	803.152
389.146	17.450	1079.978	802.838
390.161	17.423	1079.446	802.239
391.175	17.520	1078.209	801.710
392.190	17.456	1078.037	801.208
393.205	17.530	1077.232	800.887
394.219	17.510	1076.382	800.089
395.234	17.495	1075.746	799.477
396.248	17.494	1074.642	798.581
397.263	17.598	1073.292	797.993
398.278	17.569	1072.469	797.173
399.292	17.442	1072.656	796.651
400.307	17.538	1071.502	796.170
401.321	17.513	1071.063	795.658
402.336	17.498	1070.556	795.141
403.350	17.569	1069.665	794.737
404.365	17.618	1068.930	794.352
405.380	17.695	1067.914	793.882
406.394	17.640	1067.539	793.278
407.409	17.622	1066.999	792.723
408.423	17.732	1065.684	792.186
409.438	17.835	1065.074	792.141
410.453	17.869	1064.394	791.723
411.467	17.827	1063.635	790.896
412.482	17.790	1063.189	790.322
413.496	17.852	1062.333	789.902
414.511	17.870	1061.772	789.497
415.526	17.957	1061.269	789.456
416.540	17.875	1061.112	788.894
417.555	17.954	1060.421	788.671
418.569	17.917	1060.108	788.201
419.584	18.092	1059.110	788.193
420.599	18.068	1058.694	787.703
421.613	110.007	1331.368	1490.800
422.628	101.552	1371.034	1490.872
