DTS Sentinel unit serial number:	SN413079Multiplexer serial number:	ORYXHardware model number:	OX4-SRSoftware version number:	ORYX F/W v4.00 Oryx Data Collector v3.7.2.0data status	okinstallation	princeton_trtdifferential loss correction	single-endedforward channel	channel 2reverse channel	N/Adate	2019/09/14time	20:15:34forward acquisition time	60.00reverse acquisition time	0.00gamma	496.2192k internal	0.2321k external	0.2321temperature offset calibration	1.0091default loss term (dB/km)	0.3790temperature slope calibration	1.0000multiplexer offset coefficient	1.0000multiplexer slope coefficient	1.0000fibre end	0.00T internal ref (°C)	33.80T ext. ref 1 (°C)	4.84T ext. ref 2 (°C)	28.25length (m)	temperature (°C)	Stokes	anti-Stokes-747.200	-44.466	0.043	-0.022
-746.185	-200.000	0.019	0.338
-745.171	-200.000	-0.022	0.219
-744.156	-4.990	0.223	0.155
-743.142	-62.628	0.385	-0.161
-742.127	-121.042	-0.260	-0.044
-741.112	-62.947	-0.201	-0.084
-740.098	200.538	0.149	0.232
-739.083	46.566	0.064	0.060
-738.069	-22.697	-0.219	0.134
-737.054	-40.499	-0.120	0.063
-736.039	-200.000	0.004	0.016
-735.025	-142.952	0.059	0.006
-734.010	800.000	-0.066	-0.231
-732.996	-176.338	-0.085	-0.002
-731.981	50.560	-0.186	0.178
-730.966	-200.000	0.027	0.206
-729.952	-200.000	-0.014	0.159
-728.937	128.409	-0.134	-0.172
-727.923	-94.479	-0.225	-0.062
-726.908	-22.638	-0.186	0.114
-725.894	-65.441	-0.147	-0.060
-724.879	-141.940	-0.338	-0.034
-723.864	800.000	0.061	-0.188
-722.850	379.887	0.095	-0.197
-721.835	208.249	-0.211	-0.333
-720.821	-26.282	-0.415	0.246
-719.806	344.948	0.021	-0.041
-718.791	110.525	-0.125	-0.151
-717.777	-39.670	-0.423	-0.223
-716.762	-112.593	-0.205	-0.041
-715.748	67.191	-0.085	-0.088
-714.733	24.125	0.053	0.044
-713.718	173.651	0.058	-0.084
-712.704	156.970	-0.127	0.177
-711.689	-53.077	-0.219	0.101
-710.675	800.000	0.051	-0.212
-709.660	-149.021	-0.321	-0.026
-708.645	-62.545	-0.271	-0.113
-707.631	-200.000	0.013	-0.158
-706.616	-14.470	0.216	-0.140
-705.602	199.357	0.108	-0.166
-704.587	242.754	-0.116	0.197
-703.572	250.832	0.063	0.109
-702.558	-62.301	0.163	0.069
-701.543	-69.210	-0.073	0.028
-700.529	-44.989	-0.246	0.124
-699.514	-200.000	0.030	0.201
-698.499	-119.378	0.132	-0.023
-697.485	800.000	-0.074	0.226
-696.470	-156.476	-0.127	0.008
-695.456	800.000	-0.194	-0.586
-694.441	800.000	-0.007	-0.022
-693.426	-200.000	0.019	0.125
-692.412	800.000	-0.050	0.145
-691.397	-200.000	-0.070	0.313
-690.383	-22.416	0.347	-0.212
-689.368	79.958	-0.089	0.096
-688.354	-200.000	-0.028	-0.287
-687.339	-36.410	0.188	0.102
-686.324	-21.890	0.064	0.039
-685.310	-200.000	0.044	-0.208
-684.295	-77.388	-0.193	-0.067
-683.281	393.727	0.094	0.198
-682.266	183.378	0.096	-0.143
-681.251	51.784	-0.217	0.208
-680.237	-200.000	-0.050	-0.239
-679.222	-97.731	0.277	-0.072
-678.208	800.000	0.103	0.309
-677.193	-200.000	0.012	-0.193
-676.178	-50.567	-0.127	0.060
-675.164	-186.033	-0.328	-0.005
-674.149	-200.000	-0.004	-0.059
-673.135	-141.871	0.104	-0.010
-672.120	15.215	0.085	0.067
-671.105	73.041	-0.089	-0.094
-670.091	-8.969	0.176	0.119
-669.076	159.251	-0.082	0.115
-668.062	-169.950	0.161	-0.006
-667.047	-200.000	0.016	-0.230
-666.032	-36.393	-0.166	0.090
-665.018	-200.000	0.006	0.230
-664.003	264.180	-0.029	-0.051
-662.989	-200.000	0.047	-0.227
-661.974	-122.679	-0.077	-0.013
-660.959	-153.319	-0.105	-0.007
-659.945	-63.527	0.068	-0.028
-658.930	-177.395	-0.346	-0.009
-657.916	92.979	0.282	-0.321
-656.901	-9.946	-0.102	-0.068
-655.886	431.570	-0.076	0.166
-654.872	-36.127	-0.299	-0.162
-653.857	-200.000	-0.035	-0.226
-652.843	150.895	0.103	-0.141
-651.828	-110.303	0.154	-0.032
-650.814	-200.000	0.002	0.115
-649.799	800.000	0.065	0.273
-648.784	800.000	0.085	-0.307
-647.770	-86.451	-0.134	0.042
-646.755	37.557	0.030	0.027
-645.741	-200.000	-0.027	-0.169
-644.726	800.000	0.087	0.280
-643.711	286.164	-0.179	0.325
-642.697	-143.093	-0.346	-0.034
-641.682	-48.084	0.250	0.121
-640.668	800.000	-0.070	0.220
-639.653	-102.511	0.218	-0.053
-638.638	-56.423	0.096	-0.043
-637.624	-111.691	-0.239	0.049
-636.609	92.204	-0.105	-0.119
-635.595	106.059	-0.186	-0.221
-634.580	329.549	-0.056	0.109
-633.565	-45.831	0.045	0.023
-632.551	-62.670	0.051	-0.021
-631.536	243.178	-0.128	-0.216
-630.522	260.117	0.149	0.258
-629.507	0.337	-0.187	0.134
-628.492	-52.777	0.131	0.061
-627.478	234.340	0.078	-0.130
-626.463	-34.000	0.156	0.086
-625.449	15.997	0.278	-0.220
-624.434	677.802	0.078	-0.204
-623.419	-91.283	-0.147	0.042
-622.405	97.502	-0.120	-0.139
-621.390	800.000	-0.093	-0.406
-620.376	-59.190	0.354	-0.153
-619.361	-59.140	-0.146	0.063
-618.346	428.364	-0.054	-0.118
-617.332	132.925	-0.219	-0.284
-616.317	115.928	0.155	-0.191
-615.303	556.476	0.126	-0.306
-614.288	-200.000	-0.009	-0.040
-613.273	-29.040	0.119	-0.069
-612.259	160.144	0.224	0.314
-611.244	72.272	0.114	-0.119
-610.230	119.744	-0.164	0.205
-609.215	-137.910	-0.086	0.010
-608.201	129.836	-0.234	-0.301
-607.186	334.811	-0.072	0.140
-606.171	52.280	-0.108	-0.104
-605.157	-95.183	0.393	-0.106
-604.142	-13.802	-0.058	-0.037
-603.128	800.000	0.055	-0.215
-602.113	204.618	0.239	0.372
-601.098	-59.668	0.124	0.054
-600.084	-39.552	-0.255	-0.134
-599.069	90.292	0.092	-0.104
-598.055	-49.186	0.149	-0.072
-597.040	-5.521	-0.259	0.179
-596.025	-130.672	0.216	0.029
-595.011	-135.497	0.239	0.029
-593.996	-139.968	0.382	0.041
-592.982	-183.561	0.248	0.004
-591.967	4.181	-0.035	0.026
-590.952	92.892	0.270	-0.306
-589.938	135.617	-0.082	0.107
-588.923	146.941	0.129	0.175
-587.909	797.387	0.138	-0.383
-586.894	36.007	-0.101	-0.090
-585.879	-60.556	-0.358	0.153
-584.865	-200.000	-0.041	-0.188
-583.850	19.737	-0.250	-0.202
-582.836	-71.222	0.109	0.041
-581.821	39.952	0.130	0.117
-580.806	-153.553	0.254	-0.018
-579.792	440.533	0.076	0.167
-578.777	-119.868	-0.186	-0.032
-577.763	74.997	-0.111	0.118
-576.748	-200.000	-0.022	0.179
-575.733	22.628	0.247	-0.203
-574.719	-138.270	-0.325	-0.036
-573.704	44.780	-0.168	0.155
-572.690	-124.021	-0.285	0.045
-571.675	-200.000	-0.052	-0.238
-570.661	-166.853	-0.349	-0.014
-569.646	-17.516	0.306	0.193
-568.631	-37.252	-0.115	-0.062
-567.617	153.252	-0.295	-0.405
-566.602	-200.000	-0.039	0.240
-565.588	34.269	-0.251	-0.220
-564.573	-52.596	-0.104	-0.048
-563.558	262.926	0.167	0.291
-562.544	-18.766	-0.159	0.099
-561.529	18.650	-0.134	0.108
-560.515	-32.312	-0.148	-0.083
-559.500	-19.005	-0.289	0.181
-558.485	-147.358	0.140	-0.012
-557.471	72.477	-0.135	-0.141
-556.456	800.000	0.125	-0.399
-555.442	-118.833	-0.215	-0.038
-554.427	207.822	0.091	-0.143
-553.412	716.548	0.085	-0.227
-552.398	800.000	0.027	-0.113
-551.383	-47.743	0.414	-0.201
-550.369	-182.621	-0.268	-0.005
-549.354	-46.628	0.286	-0.140
-548.339	390.304	-0.206	-0.429
-547.325	-150.040	-0.285	-0.022
-546.310	-200.000	-0.009	0.311
-545.296	33.941	0.061	0.053
-544.281	-81.919	-0.252	-0.083
-543.266	-200.000	-0.020	-0.272
-542.252	-200.000	-0.042	-0.542
-541.237	140.024	0.334	-0.442
-540.223	25.997	-0.174	-0.146
-539.208	35.224	-0.072	-0.064
-538.193	-176.092	-0.202	0.005
-537.179	-164.343	0.083	-0.004
-536.164	403.680	-0.118	-0.249
-535.150	-98.905	-0.225	0.057
-534.135	233.563	-0.178	0.293
-533.121	81.118	0.180	-0.194
-532.106	-140.084	0.059	-0.006
-531.091	-89.314	-0.375	0.111
-530.077	-152.181	-0.057	-0.004
-529.062	-40.304	-0.065	-0.034
-528.048	-1.754	0.329	0.232
-527.033	-159.350	-0.375	-0.021
-526.018	214.967	0.123	0.196
-525.004	-87.680	-0.369	0.112
-523.989	-32.327	-0.067	-0.038
-522.975	237.586	-0.265	-0.441
-521.960	460.062	0.149	-0.333
-520.945	294.500	-0.151	0.276
-519.931	178.944	0.154	-0.225
-518.916	-44.758	-0.203	0.102
-517.902	-200.000	-0.027	-0.172
-516.887	139.364	-0.201	0.265
-515.872	96.747	0.030	0.035
-514.858	-81.283	-0.165	-0.055
-513.843	800.000	-0.044	0.156
-512.829	-167.242	-0.092	0.004
-511.814	42.801	0.161	0.147
-510.799	-200.000	0.005	0.200
-509.785	107.412	0.103	0.123
-508.770	-166.951	-0.080	0.003
-507.756	-145.743	-0.462	0.041
-506.741	129.934	0.057	0.072
-505.726	202.127	-0.137	0.212
-504.712	59.296	0.100	-0.098
-503.697	627.327	-0.031	-0.078
-502.683	57.119	-0.133	-0.129
-501.668	109.832	0.195	0.234
-500.653	-129.536	0.311	-0.043
-499.639	-81.347	0.280	0.092
-498.624	-130.010	-0.158	0.022
-497.610	-193.165	-0.135	-0.001
-496.595	449.751	0.166	-0.367
-495.581	800.000	0.071	-0.256
-494.566	-125.023	-0.190	-0.029
-493.551	56.005	0.066	0.064
-492.537	-200.000	-0.041	0.250
-491.522	-166.028	-0.052	0.002
-490.508	-151.069	0.264	0.020
-489.493	658.803	0.129	-0.332
-488.478	383.466	0.107	-0.220
-487.464	141.348	0.207	0.274
-486.449	-131.565	0.068	0.009
-485.435	374.838	-0.033	-0.067
-484.420	-107.881	0.307	0.067
-483.405	-200.000	-0.029	0.382
-482.391	-90.266	0.172	0.050
-481.376	-94.200	-0.166	0.045
-480.362	-47.797	-0.283	0.137
-479.347	199.099	-0.066	0.102
-478.332	153.829	0.176	-0.242
-477.318	-200.000	0.040	0.177
-476.303	-200.000	-0.016	-0.299
-475.289	-133.731	-0.111	0.014
-474.274	299.356	0.095	-0.175
-473.259	-86.595	-0.207	-0.063
-472.245	223.009	0.038	-0.061
-471.230	217.372	0.060	-0.095
-470.216	229.749	0.046	-0.076
-469.201	-200.000	-0.035	-0.178
-468.186	-39.022	-0.305	0.161
-467.172	296.098	0.113	0.206
-466.157	-200.000	-0.007	-0.139
-465.143	-39.789	0.113	0.059
-464.128	800.000	0.112	0.322
-463.113	-200.000	-0.007	0.422
-462.099	58.694	-0.066	-0.065
-461.084	-90.818	0.136	0.039
-460.070	-8.899	-0.156	-0.104
-459.055	621.516	-0.043	0.108
-458.040	-3.867	-0.283	0.196
-457.026	-200.000	-0.023	-0.104
-456.011	-110.290	0.288	-0.060
-454.997	26.362	-0.110	0.092
-453.982	800.000	-0.004	0.012
-452.968	83.779	0.089	0.097
-451.953	209.887	0.070	-0.109
-450.938	-99.954	-0.164	0.041
-449.924	26.196	-0.205	0.171
-448.909	-65.619	0.164	-0.066
-447.895	-200.000	-0.035	0.173
-446.880	120.117	-0.192	-0.238
-445.865	-200.000	0.018	0.134
-444.851	-200.000	0.017	0.133
-443.836	-200.000	0.015	0.119
-442.822	-132.089	0.202	-0.026
-441.807	100.250	-0.111	0.128
-440.792	-200.000	-0.025	0.219
-439.778	-54.764	-0.202	0.091
-438.763	288.156	-0.182	-0.330
-437.749	141.656	0.043	-0.057
-436.734	398.937	0.136	-0.285
-435.719	-200.000	0.014	0.287
-434.705	800.000	-0.077	0.293
-433.690	-200.000	0.020	-0.091
-432.676	755.639	-0.059	0.160
-431.661	-93.815	0.025	-0.007
-430.646	-75.310	0.200	-0.071
-429.632	-200.000	-0.040	-0.271
-428.617	704.876	0.052	-0.137
-427.603	-46.576	-0.136	-0.067
-426.588	-200.000	0.033	0.226
-425.573	45.234	0.203	0.187
-424.559	-200.000	0.026	-0.243
-423.544	-186.804	0.427	0.006
-422.530	-200.000	0.039	-0.499
-421.515	-134.496	0.240	0.029
-420.500	-200.000	-0.027	0.140
-419.486	68.705	0.081	0.083
-418.471	407.783	-0.107	0.227
-417.457	295.247	-0.091	0.166
-416.442	132.039	-0.104	-0.133
-415.428	-156.742	0.174	0.011
-414.413	-146.082	-0.064	-0.006
-413.398	102.305	-0.083	0.096
-412.384	-124.690	-0.323	-0.050
-411.369	-82.626	-0.422	-0.136
-410.355	800.000	-0.072	0.240
-409.340	-200.000	0.087	0.406
-408.325	533.515	-0.098	0.232
-407.311	-79.150	-0.450	0.152
-406.296	-93.516	-0.252	-0.069
-405.282	-162.673	-0.407	0.020
-404.267	-86.315	-0.141	0.043
-403.252	556.487	0.042	0.101
-402.238	800.000	-0.015	0.052
-401.223	28.078	0.049	0.041
-400.209	800.000	-0.050	0.161
-399.194	-140.198	0.136	0.014
-398.179	-47.529	-0.144	0.070
-397.165	800.000	0.070	-0.230
-396.150	182.473	-0.069	0.101
-395.136	201.645	0.122	-0.187
-394.121	-123.310	-0.245	0.039
-393.106	41.961	0.187	-0.169
-392.092	-152.849	0.317	0.022
-391.077	800.000	-0.081	-0.315
-390.063	-65.178	0.112	-0.045
-389.048	800.000	-0.060	0.173
-388.033	145.923	-0.189	0.253
-387.019	-200.000	-0.009	0.102
-386.004	-68.194	-0.216	-0.084
-384.990	0.632	0.161	0.115
-383.975	-110.924	-0.287	-0.059
-382.960	-10.616	-0.003	-0.002
-381.946	211.333	-0.219	-0.344
-380.931	337.472	-0.034	0.066
-379.917	20.990	0.435	0.352
-378.902	-200.000	-0.011	-0.133
-377.888	-26.062	0.265	-0.155
-376.873	800.000	-0.075	-0.269
-375.858	-200.000	0.045	-0.290
-374.844	39.958	-0.121	-0.109
-373.829	132.505	0.192	0.247
-372.815	-193.763	-0.155	-0.001
-371.800	-110.066	-0.402	-0.084
-370.785	142.172	-0.197	0.260
-369.771	490.766	0.075	0.171
-368.756	22.749	0.108	-0.088
-367.742	-86.905	-0.101	0.031
-366.727	-83.206	0.222	0.071
-365.712	-150.481	0.150	-0.011
-364.698	-104.314	0.177	0.041
-363.683	-200.000	-0.072	-0.383
-362.669	-83.065	0.302	0.097
-361.654	-200.000	-0.009	0.212
-360.639	302.745	0.070	-0.130
-359.625	-10.677	0.218	-0.143
-358.610	-93.070	-0.185	-0.051
-357.596	-94.069	0.439	0.120
-356.581	800.000	0.049	0.156
-355.566	-200.000	-0.033	0.239
-354.552	72.042	-0.186	-0.192
-353.537	617.561	0.028	-0.071
-352.523	-4.651	0.017	-0.012
-351.508	304.402	-0.154	0.284
-350.493	482.893	0.117	-0.264
-349.479	71.825	0.137	0.142
-348.464	-200.000	-0.017	0.167
-347.450	800.000	-0.038	0.163
-346.435	-184.962	-0.153	0.002
-345.420	-200.000	-0.001	-0.010
-344.406	-200.000	-0.015	0.076
-343.391	245.164	0.029	0.049
-342.377	-111.260	0.053	0.011
-341.362	35.476	0.122	-0.107
-340.348	-131.763	-0.307	0.040
-339.333	800.000	-0.056	0.168
-338.318	91.486	0.097	0.109
-337.304	-200.000	-0.021	-0.169
-336.289	57.041	-0.194	0.188
-335.275	459.455	-0.050	0.110
-334.260	89.629	0.272	0.302
-333.245	-142.486	0.267	-0.026
-332.231	-100.922	0.184	0.045
-331.216	12.169	0.279	-0.213
-330.202	-200.000	-0.000	-0.052
-329.187	-71.193	0.063	0.024
-328.172	93.535	0.089	0.100
-327.158	800.000	-0.160	0.501
-326.143	-24.256	-0.074	-0.044
-325.129	539.561	-0.141	-0.334
-324.114	321.466	0.089	-0.168
-323.099	-1.594	0.076	0.053
-322.085	109.360	0.106	0.126
-321.070	800.000	-0.056	0.191
-320.056	800.000	-0.062	0.200
-319.041	800.000	0.021	-0.067
-318.026	-200.000	-0.001	0.174
-317.012	-200.000	0.007	-0.088
-315.997	-200.000	0.005	-0.411
-314.983	800.000	-0.102	0.353
-313.968	224.901	-0.171	-0.274
-312.953	205.553	0.139	-0.214
-311.939	-200.000	0.002	0.238
-310.924	-53.200	-0.097	-0.044
-309.910	433.945	0.055	-0.118
-308.895	230.869	0.140	-0.228
-307.880	218.283	-0.209	0.332
-306.866	-27.939	0.234	0.135
-305.851	-200.000	0.006	0.080
-304.837	345.655	-0.073	0.143
-303.822	80.079	0.222	0.237
-302.807	-18.605	0.121	-0.075
-301.793	-136.180	-0.016	-0.002
-300.778	-114.892	-0.164	0.031
-299.764	-126.529	-0.225	0.033
-298.749	161.697	0.145	-0.202
-297.735	800.000	0.117	-0.398
-296.720	-63.767	-0.362	0.147
-295.705	-110.106	0.340	0.070
-294.691	-100.079	-0.101	-0.025
-293.676	-200.000	-0.047	0.308
-292.662	-200.000	0.038	0.216
-291.647	361.763	0.042	-0.083
-290.632	174.034	-0.166	0.237
-289.618	133.774	0.141	0.181
-288.603	-200.000	0.018	-0.145
-287.589	319.479	-0.069	0.130
-286.574	-165.871	-0.091	-0.004
-285.559	-83.622	0.106	0.034
-284.545	800.000	0.122	-0.366
-283.530	800.000	0.043	-0.137
-282.516	-169.974	0.209	0.007
-281.501	212.785	-0.105	0.164
-280.486	-154.102	-0.282	-0.019
-279.472	16.396	0.267	0.209
-278.457	-3.876	0.285	-0.196
-277.443	-200.000	-0.020	-0.161
-276.428	800.000	-0.014	-0.040
-275.413	9.888	0.340	-0.256
-274.399	116.690	0.030	-0.037
-273.384	-14.344	0.233	-0.149
-272.370	56.291	-0.141	0.136
-271.355	96.499	0.016	-0.018
-270.340	-200.000	0.031	-0.328
-269.326	-90.324	0.187	0.054
-268.311	42.871	0.173	-0.156
-267.297	54.036	-0.203	-0.193
-266.282	-200.000	-0.010	0.145
-265.267	265.701	0.199	0.345
-264.253	124.988	0.177	-0.221
-263.238	-87.020	-0.261	-0.079
-262.224	160.401	-0.165	0.229
-261.209	28.246	0.151	0.127
-260.195	-181.236	0.272	-0.005
-259.180	-200.000	0.009	0.123
-258.165	27.613	0.114	-0.095
-257.151	102.440	0.325	-0.376
-256.136	-2.044	0.115	-0.080
-255.122	-113.294	0.267	0.052
-254.107	-21.282	0.380	0.230
-253.092	-200.000	-0.039	0.183
-252.078	540.640	-0.033	-0.078
-251.063	474.722	-0.086	-0.193
-250.049	-141.857	0.058	-0.006
-249.034	-9.054	-0.094	0.062
-248.019	-17.450	0.208	0.130
-247.005	-132.267	-0.229	-0.029
-245.990	84.518	0.202	0.219
-244.976	-200.000	-0.000	0.020
-243.961	422.292	0.045	0.095
-242.946	-76.444	-0.186	0.065
-241.932	91.415	0.308	0.343
-240.917	38.796	0.253	0.224
-239.903	-198.340	-0.157	-0.001
-238.888	-24.969	-0.080	0.047
-237.873	-175.133	-0.060	-0.002
-236.859	63.082	-0.099	-0.099
-235.844	300.740	0.035	-0.064
-234.830	-89.071	-0.043	0.013
-233.815	122.124	0.085	0.105
-232.800	-200.000	-0.013	-0.145
-231.786	43.839	0.091	0.082
-230.771	-200.000	-0.011	-0.131
-229.757	-200.000	0.005	0.110
-228.742	32.891	-0.265	0.228
-227.727	450.249	0.187	0.410
-226.713	-33.871	0.214	-0.117
-225.698	-198.084	-0.179	-0.001
-224.684	477.656	0.116	0.260
-223.669	-107.153	-0.162	-0.035
-222.655	165.007	0.226	0.316
-221.640	-178.907	-0.271	0.006
-220.625	-1.573	-0.242	0.169
-219.611	-136.396	0.019	0.002
-218.596	-200.000	0.008	-0.225
-217.582	800.000	0.053	-0.187
-216.567	178.772	0.227	-0.328
-215.552	-64.335	-0.074	0.030
-214.538	717.591	-0.045	-0.118
-213.523	800.000	-0.064	-0.210
-212.509	-200.000	0.055	0.302
-211.494	800.000	-0.056	0.160
-210.479	800.000	-0.155	0.521
-209.465	107.225	-0.344	0.405
-208.450	-8.338	0.162	-0.108
-207.436	-200.000	0.007	-0.334
-206.421	-92.163	-0.270	-0.076
-205.406	-71.001	0.154	0.058
-204.392	2.958	0.124	-0.089
-203.377	95.031	0.161	0.181
-202.363	-190.618	-0.081	-0.001
-201.348	800.000	0.052	-0.178
-200.333	-84.753	-0.156	-0.048
-199.319	-50.416	-0.237	-0.111
-198.304	212.491	-0.159	-0.247
-197.290	-118.476	0.353	-0.062
-196.275	800.000	0.029	0.110
-195.260	-7.529	-0.089	-0.060
-194.246	-7.068	-0.125	0.084
-193.231	251.480	0.115	0.193
-192.217	22.483	0.168	-0.136
-191.202	-173.530	0.115	-0.003
-190.187	800.000	-0.084	-0.290
-189.173	173.136	0.196	0.279
-188.158	258.497	0.266	0.453
-187.144	-200.000	-0.062	-0.418
-186.129	39.002	-0.118	-0.104
-185.114	-60.363	-0.065	0.027
-184.100	-5.902	-0.202	-0.137
-183.085	334.319	-0.061	-0.117
-182.071	-17.121	-0.102	-0.063
-181.056	-52.725	0.099	-0.045
-180.042	-200.000	0.065	-0.290
-179.027	800.000	0.091	0.286
-178.012	481.859	0.086	-0.192
-176.998	190.063	0.142	-0.211
-175.983	-8.670	0.074	-0.049
-174.969	275.511	0.136	-0.238
-173.954	-66.350	0.355	0.139
-172.939	14.127	0.088	-0.068
-171.925	-142.380	-0.026	0.003
-170.910	-200.000	-0.069	0.322
-169.896	21.834	0.123	0.099
-168.881	72.673	0.010	0.011
-167.866	274.185	-0.119	0.208
-166.852	96.341	0.045	-0.051
-165.837	800.000	-0.063	0.206
-164.823	168.837	-0.091	-0.128
-163.808	-103.937	-0.267	0.062
-162.793	800.000	0.046	0.142
-161.779	800.000	-0.059	-0.164
-160.764	319.783	-0.038	0.072
-159.750	800.000	0.098	-0.302
-158.735	-200.000	-0.050	-0.244
-157.720	-103.292	0.200	-0.047
-156.706	-104.620	-0.409	-0.093
-155.691	119.804	0.060	0.073
-154.677	-87.675	0.067	0.020
-153.662	112.389	-0.144	0.172
-152.647	-99.979	-0.042	-0.010
-151.633	-200.000	0.036	-0.285
-150.618	-73.317	0.140	0.051
-149.604	-37.890	-0.148	-0.078
-148.589	107.151	0.151	-0.177
-147.574	-60.524	0.342	-0.143
-146.560	131.300	-0.124	0.157
-145.545	1.563	-0.220	0.156
-144.531	44.313	0.083	0.076
-143.516	95.978	-0.280	-0.315
-142.502	120.846	-0.123	0.151
-141.487	-42.025	0.242	-0.122
-140.472	800.000	0.078	0.334
-139.458	-4.295	0.161	-0.110
-138.443	0.901	-0.306	0.217
-137.429	800.000	-0.054	0.197
-136.414	-200.000	0.011	-0.069
-135.399	793.388	0.045	0.123
-134.385	-45.912	0.318	0.155
-133.370	-200.000	-0.025	0.165
-132.356	523.381	-0.177	-0.410
-131.341	-79.028	0.358	0.120
-130.326	-20.160	-0.068	-0.041
-129.312	-24.130	0.240	0.142
-128.297	-12.435	-0.228	0.147
-127.283	71.924	0.142	0.146
-126.268	218.511	0.121	-0.190
-125.253	23.614	0.118	0.096
-124.239	-1.651	-0.302	-0.210
-123.224	-52.998	0.297	-0.135
-122.210	484.409	0.171	-0.383
-121.195	-80.573	0.273	0.090
-120.180	75.079	-0.297	-0.308
-119.166	8.927	0.221	-0.164
-118.151	9.210	0.304	-0.227
-117.137	-16.555	-0.175	-0.109
-116.122	-92.898	-0.290	-0.080
-115.107	-143.285	-0.107	0.010
-114.093	-60.760	0.307	0.128
-113.078	102.073	0.123	0.141
-112.064	-200.000	0.036	0.444
-111.049	114.840	0.152	-0.183
-110.034	-146.393	-0.399	-0.034
-109.020	-200.000	-0.006	-0.049
-108.005	-80.520	0.365	0.120
-106.991	15.252	0.346	0.268
-105.976	-200.000	-0.030	0.266
-104.962	-94.074	0.062	-0.017
-103.947	-109.755	0.094	0.020
-102.932	7.732	-0.204	0.151
-101.918	-5.651	0.207	0.140
-100.903	220.446	-0.123	-0.194
-99.889	-73.391	0.222	0.080
-98.874	310.234	0.092	-0.170
-97.859	800.000	0.028	0.112
-96.845	-200.000	0.046	0.242
-95.830	-9.181	-0.276	-0.182
-94.816	-63.552	-0.390	0.158
-93.801	319.930	0.166	0.310
-92.786	-200.000	-0.006	0.134
-91.772	-200.000	-0.084	0.420
-90.757	-130.734	-0.206	-0.027
-89.743	-94.971	0.434	-0.116
-88.728	-193.898	-0.112	0.001
-87.713	61.149	0.074	0.072
-86.699	-11.307	0.096	-0.062
-85.684	-88.403	0.131	0.039
-84.670	-34.925	0.291	0.156
-83.655	-90.767	0.257	-0.073
-82.640	160.908	0.159	0.219
-81.626	-60.842	-0.233	-0.097
-80.611	800.000	0.068	-0.279
-79.597	321.746	0.147	-0.276
-78.582	151.234	-0.102	-0.136
-77.567	-20.670	0.144	0.087
-76.553	-54.851	0.427	0.190
-75.538	800.000	0.044	-0.189
-74.524	-44.018	0.245	-0.121
-73.509	-189.497	0.155	0.002
-72.494	-16.836	-0.214	0.133
-71.480	-193.595	-0.177	-0.001
-70.465	-200.000	-0.043	0.288
-69.451	-200.000	0.056	0.270
-68.436	-67.074	0.066	-0.026
-67.422	290.387	-0.162	0.289
-66.407	-151.245	0.341	0.025
-65.392	-75.762	0.161	-0.056
-64.378	800.000	-0.036	-0.152
-63.363	105.393	0.163	-0.189
-62.349	-78.472	-0.247	-0.083
-61.334	68.715	-0.826	-0.834
-60.319	-53.100	0.610	0.276
-59.305	166.086	-0.560	-0.780
-58.290	360.054	0.449	0.885
-57.276	795.448	0.510	1.381
-56.261	-200.000	95.551	565.883
-55.246	625.701	1387.146	3442.669
-54.232	192.699	2584.182	3839.083
-53.217	112.498	2280.792	2714.985
-52.203	43.021	1902.153	1706.528
-51.188	37.056	1693.336	1473.966
-50.173	34.314	1648.748	1414.769
-49.159	51.720	1694.382	1585.181
-48.144	53.910	1712.053	1618.115
-47.130	36.729	1671.142	1451.963
-46.115	33.914	1656.665	1418.353
-45.100	33.679	1652.213	1412.730
-44.086	33.571	1649.668	1409.701
-43.071	33.692	1646.325	1407.683
-42.057	33.646	1643.812	1405.137
-41.042	33.682	1641.803	1403.631
-40.027	33.646	1640.211	1401.949
-39.013	33.635	1638.120	1400.028
-37.998	33.668	1636.375	1398.719
-36.984	33.701	1635.433	1398.105
-35.969	33.785	1633.583	1397.088
-34.954	33.775	1632.141	1395.722
-33.940	33.802	1630.334	1394.319
-32.925	33.730	1628.680	1392.317
-31.911	33.811	1626.968	1391.393
-30.896	33.779	1625.046	1389.464
-29.881	33.805	1623.675	1388.425
-28.867	33.867	1622.060	1387.441
-27.852	33.873	1620.099	1385.752
-26.838	33.804	1618.505	1383.832
-25.823	33.856	1617.392	1383.202
-24.809	33.831	1616.077	1381.845
-23.794	33.855	1614.246	1380.399
-22.779	33.826	1612.744	1378.847
-21.765	33.828	1611.706	1377.923
-20.750	33.841	1610.044	1376.541
-19.736	33.898	1608.311	1375.413
-18.721	33.722	1607.546	1373.434
-17.706	33.859	1605.291	1372.440
-16.692	33.730	1604.196	1370.520
-15.677	33.772	1602.461	1369.282
-14.663	33.808	1601.397	1368.580
-13.648	33.830	1600.167	1367.631
-12.633	33.914	1598.193	1366.495
-11.619	33.831	1596.502	1364.400
-10.604	33.868	1595.087	1363.404
-9.590	33.763	1594.127	1361.773
-8.575	33.797	1592.697	1360.743
-7.560	33.832	1591.817	1360.187
-6.546	33.891	1590.334	1359.288
-5.531	33.752	1589.567	1357.589
-4.517	33.793	1588.540	1356.945
-3.502	33.804	1587.250	1355.874
-2.487	33.918	1585.050	1354.749
-1.473	33.439	1574.197	1342.025
-0.458	30.590	1554.556	1305.267
0.556	27.097	1554.339	1270.812
1.571	24.555	1578.286	1272.197
2.586	23.938	1590.876	1277.803
3.600	21.175	1537.334	1215.478
4.615	12.898	1428.810	1075.792
5.629	5.986	1365.236	984.617
6.644	4.967	1357.790	972.806
7.659	4.760	1355.860	970.043
8.673	4.846	1354.849	969.770
9.688	4.767	1353.506	968.233
10.702	4.764	1350.715	966.132
11.717	7.832	1356.493	989.276
12.731	15.492	1370.339	1047.235
13.746	20.264	1376.976	1082.047
14.761	19.940	1375.616	1078.864
15.775	18.908	1372.922	1070.235
16.790	17.846	1369.982	1061.249
17.804	17.036	1367.708	1054.361
18.819	16.563	1366.681	1050.540
19.834	16.402	1365.294	1048.383
20.848	16.143	1364.118	1045.781
21.863	15.959	1362.983	1043.677
22.877	15.742	1361.915	1041.425
23.892	15.769	1360.835	1040.677
24.907	15.711	1360.169	1039.717
25.921	15.822	1358.822	1039.279
26.936	15.813	1358.193	1038.653
27.950	15.872	1357.275	1038.221
28.965	15.908	1356.353	1037.645
29.980	16.017	1355.135	1037.290
30.994	16.022	1354.141	1036.470
32.009	16.126	1352.827	1036.008
33.023	16.063	1351.773	1034.725
34.038	16.069	1350.160	1033.438
35.053	15.971	1349.231	1032.035
36.067	15.954	1348.143	1031.007
37.082	15.902	1347.341	1029.981
38.096	15.921	1346.344	1029.247
39.111	15.941	1345.480	1028.617
40.126	15.906	1344.450	1027.526
41.140	15.709	1343.818	1025.747
42.155	15.692	1342.895	1024.853
43.169	15.668	1343.067	1024.746
44.184	15.639	1342.363	1023.942
45.199	15.620	1342.628	1023.939
46.213	15.692	1341.698	1023.575
47.228	15.857	1340.671	1023.706
48.242	15.873	1339.580	1022.878
49.257	15.711	1338.221	1020.767
50.271	15.825	1336.967	1020.412
51.286	15.906	1335.462	1019.665
52.301	15.897	1333.901	1018.324
53.315	15.791	1333.346	1017.173
54.330	15.674	1332.319	1015.591
55.344	15.773	1331.041	1015.121
56.359	15.687	1329.733	1013.521
57.374	15.636	1329.133	1012.663
58.388	15.646	1328.288	1011.990
59.403	15.665	1327.706	1011.571
60.417	15.608	1326.995	1010.598
61.432	15.596	1326.359	1009.952
62.447	15.545	1325.203	1008.675
63.461	15.473	1324.270	1007.447
64.476	15.451	1323.667	1006.765
65.490	15.473	1321.970	1005.519
66.505	15.537	1320.453	1004.657
67.520	15.550	1319.341	1003.803
68.534	15.645	1317.902	1003.181
69.549	15.485	1316.665	1001.198
70.563	15.458	1315.859	1000.338
71.578	15.471	1314.759	999.492
72.593	15.354	1313.993	998.123
73.607	15.282	1313.099	996.930
74.622	15.400	1312.169	996.832
75.636	15.434	1311.253	996.249
76.651	15.414	1310.833	995.727
77.666	15.462	1310.415	995.607
78.680	15.463	1309.850	995.091
79.695	15.466	1309.121	994.472
80.709	15.541	1308.133	994.075
81.724	15.591	1307.850	994.068
82.739	15.847	1306.407	994.398
83.753	15.786	1305.929	993.585
84.768	15.864	1305.316	993.489
85.782	15.842	1304.199	992.420
86.797	15.908	1302.650	991.543
87.812	15.892	1301.113	990.192
88.826	15.863	1299.909	989.019
89.841	15.741	1299.747	988.089
90.855	15.894	1298.096	987.644
91.870	15.896	1297.741	987.301
92.884	16.015	1296.264	986.786
93.899	15.986	1295.878	986.234
94.914	15.990	1295.693	986.028
95.928	16.081	1294.280	985.401
96.943	16.015	1293.571	984.384
97.957	15.979	1292.633	983.374
98.972	15.999	1291.410	982.475
99.987	15.975	1290.251	981.367
101.001	15.916	1289.254	980.180
102.016	15.938	1288.458	979.614
103.030	15.902	1287.618	978.679
104.045	15.984	1286.164	977.965
105.060	15.885	1285.072	976.472
106.074	15.743	1284.093	974.818
107.089	15.726	1282.329	973.295
108.103	15.600	1281.182	971.612
109.118	15.556	1280.092	970.445
110.133	15.663	1278.830	970.018
111.147	15.613	1277.396	968.557
112.162	15.647	1276.324	967.852
113.176	15.710	1275.623	967.600
114.191	15.768	1274.441	966.948
115.206	15.684	1273.689	965.813
116.220	15.673	1271.745	964.191
117.235	15.641	1270.907	963.283
118.249	15.577	1270.141	962.255
119.264	15.628	1268.699	961.370
120.279	15.648	1267.825	960.734
121.293	15.608	1266.765	959.619
122.308	15.543	1265.654	958.323
123.322	15.468	1265.018	957.325
124.337	15.503	1263.154	956.029
125.352	15.585	1262.504	955.917
126.366	15.527	1261.588	954.811
127.381	15.616	1260.257	954.228
128.395	15.557	1259.429	953.182
129.410	15.556	1258.582	952.451
130.424	15.590	1258.239	952.299
131.439	15.741	1256.390	951.667
132.454	15.697	1255.690	950.805
133.468	15.793	1255.119	950.834
134.483	15.758	1254.107	949.783
135.497	15.662	1253.658	948.817
136.512	15.753	1252.158	948.111
137.527	15.731	1250.724	946.817
138.541	15.661	1249.621	945.503
139.556	15.843	1247.930	945.163
140.570	15.879	1247.395	944.879
141.585	15.866	1246.215	943.828
142.600	15.938	1245.145	943.334
143.614	15.984	1244.563	943.067
144.629	15.974	1243.202	941.897
145.643	15.961	1242.072	940.884
146.658	15.863	1240.836	939.321
147.673	15.800	1239.323	937.741
148.687	15.747	1238.291	936.583
149.702	15.813	1236.747	935.700
150.716	15.817	1235.386	934.606
151.731	15.797	1234.677	933.875
152.746	15.615	1233.642	932.005
153.760	15.842	1232.130	932.034
154.775	15.960	1230.606	931.453
155.789	16.037	1229.794	931.179
156.804	15.971	1229.288	930.353
157.819	15.960	1228.040	929.266
158.833	16.133	1226.986	929.338
159.848	16.089	1226.596	928.715
160.862	16.045	1225.863	927.838
161.877	15.899	1224.750	926.111
162.892	15.791	1223.884	924.778
163.906	15.841	1222.609	924.010
164.921	15.867	1221.522	923.246
165.935	15.906	1220.757	922.800
166.950	15.982	1220.276	922.773
167.964	15.909	1219.682	921.842
168.979	15.933	1219.024	921.396
169.994	15.952	1218.150	920.757
171.008	15.931	1217.407	920.000
172.023	16.003	1216.580	919.687
173.037	16.163	1215.968	920.012
174.052	16.069	1215.007	918.691
175.067	16.069	1213.437	917.427
176.081	15.995	1212.441	916.188
177.096	16.009	1211.902	915.775
178.110	15.998	1210.714	914.736
179.125	15.945	1209.867	913.729
180.140	16.101	1207.924	913.026
181.154	16.079	1207.216	912.289
182.169	16.182	1206.175	911.980
183.183	16.085	1205.275	910.698
184.198	16.265	1203.554	910.284
185.213	16.318	1202.540	909.725
186.227	16.256	1201.919	908.840
187.242	16.362	1201.044	908.668
188.256	16.384	1200.003	907.916
189.271	16.345	1199.009	906.876
190.286	16.250	1197.698	905.295
191.300	15.932	1197.027	903.005
192.315	15.874	1196.490	902.209
193.329	15.949	1196.089	902.226
194.344	15.927	1195.324	901.455
195.359	16.133	1194.568	901.902
196.373	16.173	1194.420	901.927
197.388	16.314	1193.685	902.043
198.402	16.416	1193.376	902.274
199.417	16.540	1192.284	902.033
200.432	16.563	1191.746	901.669
201.446	16.608	1190.861	901.156
202.461	16.557	1190.254	900.346
203.475	16.656	1189.154	899.965
204.490	16.579	1188.369	898.878
205.504	16.529	1186.633	897.222
206.519	16.540	1185.381	896.254
207.534	16.402	1184.286	894.618
208.548	16.369	1183.446	893.726
209.563	16.507	1182.863	893.940
210.577	16.587	1181.639	893.358
211.592	16.547	1180.944	892.542
212.607	16.549	1180.422	892.077
213.621	16.669	1179.373	891.838
214.636	16.480	1178.721	890.273
215.650	16.688	1177.397	890.284
216.665	16.653	1176.633	889.445
217.680	16.774	1176.094	889.596
218.694	16.841	1174.823	888.907
219.709	16.768	1174.622	888.292
220.723	16.655	1173.807	887.008
221.738	16.733	1172.846	886.608
222.753	16.712	1172.325	886.028
223.767	16.802	1171.793	886.015
224.782	16.849	1170.995	885.580
225.796	16.771	1170.596	884.793
226.811	16.808	1169.950	884.420
227.826	16.821	1168.820	883.557
228.840	16.793	1167.913	882.648
229.855	16.854	1167.223	882.365
230.869	16.673	1166.844	881.060
231.884	16.738	1165.596	880.373
232.899	16.692	1165.120	879.698
233.913	16.720	1163.993	878.917
234.928	16.639	1163.519	878.062
235.942	16.629	1162.793	877.384
236.957	16.598	1162.274	876.753
237.972	16.757	1161.269	876.740
238.986	16.828	1160.706	876.605
240.001	16.630	1160.587	875.412
241.015	16.701	1159.473	874.861
242.030	16.754	1158.311	874.180
243.045	16.838	1157.602	874.005
244.059	16.840	1156.748	873.290
245.074	16.864	1156.281	872.981
246.088	16.960	1155.236	872.615
247.103	16.944	1154.745	872.081
248.117	17.084	1153.705	871.938
249.132	17.197	1153.180	872.042
250.147	17.249	1153.076	872.156
251.161	17.280	1152.101	871.499
252.176	17.390	1151.206	871.311
253.190	17.468	1150.790	871.315
254.205	17.501	1150.041	870.843
255.220	17.479	1149.390	870.157
256.234	17.396	1148.914	869.296
257.249	17.393	1148.349	868.779
258.263	17.403	1147.652	868.223
259.278	17.442	1147.057	867.897
260.293	17.547	1146.634	868.034
261.307	17.599	1145.371	867.265
262.322	17.524	1145.176	866.659
263.336	17.542	1144.373	866.068
264.351	17.511	1144.007	865.555
265.366	17.636	1143.142	865.460
266.380	17.641	1142.088	864.610
267.395	17.575	1141.538	863.783
268.409	17.557	1140.750	863.018
269.424	17.539	1140.350	862.551
270.439	17.563	1139.514	861.963
271.453	17.484	1138.893	861.018
272.468	17.546	1137.733	860.375
273.482	17.449	1137.036	859.282
274.497	17.427	1136.449	858.652
275.512	17.535	1136.316	859.019
276.526	17.535	1134.777	857.783
277.541	17.505	1133.954	856.931
278.555	17.540	1133.668	856.815
279.570	17.628	1133.153	856.792
280.585	17.729	1132.316	856.591
281.599	17.639	1131.754	855.638
282.614	17.759	1130.325	855.088
283.628	17.710	1129.099	853.836
284.643	17.739	1128.315	853.312
285.657	17.704	1127.494	852.443
286.672	17.643	1126.814	851.546
287.687	17.701	1125.942	851.101
288.701	17.735	1125.242	850.669
289.716	17.699	1124.226	849.647
290.730	17.773	1123.513	849.401
291.745	17.891	1122.429	849.093
292.760	17.833	1122.178	848.540
293.774	17.979	1121.523	848.696
294.789	17.934	1121.350	848.266
295.803	17.904	1120.696	847.544
296.818	17.789	1119.960	846.346
297.833	17.765	1118.851	845.311
298.847	17.824	1118.179	845.024
299.862	17.858	1117.240	844.403
300.876	17.775	1117.088	843.804
301.891	18.008	1116.034	844.085
302.906	17.944	1115.128	843.009
303.920	18.065	1114.495	843.055
304.935	18.102	1113.941	842.744
305.949	18.159	1113.441	842.570
306.964	18.127	1112.918	841.941
307.979	18.164	1111.781	841.191
308.993	18.145	1111.179	840.569
310.008	18.169	1110.339	839.976
311.022	18.174	1109.946	839.628
312.037	18.291	1108.656	839.153
313.052	18.179	1107.545	837.690
314.066	18.002	1107.127	836.432
315.081	17.967	1106.094	835.405
316.095	18.016	1105.037	834.773
317.110	18.045	1104.359	834.328
318.125	18.113	1103.609	834.018
319.139	17.996	1103.328	833.161
320.154	17.957	1102.945	832.609
321.168	18.015	1101.872	832.006
322.183	18.062	1101.348	831.767
323.197	18.140	1100.397	831.355
324.212	18.172	1100.316	831.376
325.227	18.069	1099.672	830.315
326.241	18.207	1098.961	830.373
327.256	18.105	1098.392	829.376
328.270	18.080	1097.304	828.359
329.285	18.149	1096.362	827.909
330.300	18.142	1095.255	826.966
331.314	18.191	1093.969	826.162
332.329	18.222	1093.224	825.674
333.343	18.215	1092.590	825.088
334.358	18.289	1091.864	824.825
335.373	18.250	1091.444	824.244
336.387	18.368	1090.324	823.892
337.402	18.397	1089.421	823.279
338.416	18.393	1089.390	823.164
339.431	18.362	1088.341	822.149
340.446	18.513	1088.356	822.810
341.460	18.564	1087.398	822.259
342.475	18.617	1086.555	821.804
343.489	18.465	1086.216	820.745
344.504	18.695	1084.548	820.510
345.519	18.682	1083.889	819.880
346.533	18.788	1082.895	819.559
347.548	18.754	1082.628	819.126
348.562	18.696	1081.841	818.178
349.577	18.671	1081.106	817.433
350.592	18.663	1080.159	816.606
351.606	18.615	1079.240	815.611
352.621	18.456	1078.314	814.085
353.635	18.512	1077.814	813.900
354.650	18.584	1076.929	813.500
355.665	18.606	1076.103	812.909
356.679	18.591	1075.826	812.556
357.694	18.490	1075.402	811.686
358.708	18.707	1074.765	812.159
359.723	18.610	1073.832	810.923
360.738	18.722	1073.105	810.833
361.752	18.566	1073.292	810.165
362.767	18.651	1072.513	809.907
363.781	18.752	1071.648	809.659
364.796	18.985	1071.248	810.382
365.810	18.896	1070.535	809.352
366.825	18.889	1070.235	809.022
367.840	18.979	1069.483	808.806
368.854	19.145	1068.596	808.842
369.869	19.141	1068.202	808.455
370.883	18.946	1067.374	806.840
371.898	18.877	1066.385	805.697
372.913	19.022	1065.986	806.006
373.927	19.035	1065.591	805.696
374.942	19.074	1064.928	805.308
375.956	19.057	1064.391	804.751
376.971	19.113	1063.903	804.572
377.986	19.141	1063.050	803.987
379.000	19.097	1062.799	803.518
380.015	19.095	1062.221	803.000
381.029	19.238	1061.604	803.129
382.044	19.312	1060.913	802.881
383.059	19.138	1060.484	801.675
384.073	19.244	1059.137	801.078
385.088	19.358	1058.292	800.897
386.102	19.365	1057.424	800.204
387.117	19.207	1056.655	798.818
388.132	19.195	1055.540	797.848
389.146	19.103	1054.989	796.934
390.161	19.140	1054.119	796.380
391.175	19.170	1053.483	795.966
392.190	19.091	1053.269	795.371
393.205	19.332	1052.409	795.765
394.219	19.334	1051.556	795.057
395.234	19.321	1050.306	793.983
396.248	19.131	1049.832	792.679
397.263	19.344	1048.077	792.260
398.278	19.179	1047.984	791.363
399.292	19.082	1047.405	790.409
400.307	19.135	1046.194	789.668
401.321	19.148	1045.853	789.400
402.336	19.207	1044.959	788.926
403.350	19.127	1044.597	788.220
404.365	19.095	1043.907	787.480
405.380	19.285	1043.259	787.791
406.394	19.391	1042.299	787.483
407.409	19.397	1041.332	786.710
408.423	19.485	1040.812	786.647
409.438	19.537	1040.424	786.518
410.453	19.625	1039.759	786.349
411.467	19.669	1038.780	785.741
412.482	19.721	1038.172	785.446
413.496	19.632	1037.641	784.573
414.511	19.692	1037.152	784.405
415.526	19.776	1036.567	784.274
416.540	19.808	1036.230	784.094
417.555	19.727	1035.711	783.263
418.569	19.682	1035.423	782.771
419.584	19.745	1034.655	782.407
420.599	19.855	1033.990	782.333
421.613	151.572	1401.056	1792.215
422.628	138.428	1454.523	1792.307
