DTS Sentinel unit serial number:	SN413079Multiplexer serial number:	ORYXHardware model number:	OX4-SRSoftware version number:	ORYX F/W v4.00 Oryx Data Collector v3.7.2.0data status	okinstallation	princeton_trtdifferential loss correction	single-endedforward channel	channel 2reverse channel	N/Adate	2019/09/15time	23:51:35forward acquisition time	60.00reverse acquisition time	0.00gamma	496.2192k internal	0.2336k external	0.2336temperature offset calibration	0.9961default loss term (dB/km)	0.3790temperature slope calibration	1.0000multiplexer offset coefficient	1.0000multiplexer slope coefficient	1.0000fibre end	0.00T internal ref (°C)	27.94T ext. ref 1 (°C)	9.32T ext. ref 2 (°C)	21.75length (m)	temperature (°C)	Stokes	anti-Stokes-747.200	-149.586	-0.086	-0.007
-746.185	-130.465	-0.056	0.008
-745.171	-200.000	0.038	0.177
-744.156	-200.000	0.002	-0.073
-743.142	-90.198	-0.109	0.032
-742.127	171.443	-0.232	0.335
-741.112	95.623	0.190	0.218
-740.098	-9.195	-0.136	0.091
-739.083	-43.517	-0.157	0.080
-738.069	-42.002	-0.365	0.188
-737.054	424.020	-0.057	0.123
-736.039	61.124	-0.237	-0.236
-735.025	-175.594	-0.201	-0.005
-734.010	-200.000	-0.060	-0.270
-732.996	199.386	-0.151	-0.233
-731.981	-168.145	0.032	0.001
-730.966	38.382	0.271	-0.242
-729.952	71.902	0.053	-0.055
-728.937	-35.398	-0.174	0.095
-727.923	-200.000	-0.014	0.477
-726.908	-52.248	-0.149	-0.069
-725.894	25.593	0.034	-0.028
-724.879	-179.817	0.310	0.007
-723.864	8.303	0.143	-0.108
-722.850	-109.859	-0.203	-0.043
-721.835	2.776	-0.078	0.057
-720.821	60.257	0.267	0.265
-719.806	800.000	-0.027	0.076
-718.791	134.798	0.222	0.289
-717.777	-200.000	-0.022	0.343
-716.762	142.556	-0.041	-0.055
-715.748	4.638	-0.263	0.194
-714.733	-85.234	-0.107	-0.034
-713.718	-47.091	0.259	-0.127
-712.704	123.323	-0.084	-0.105
-711.689	-132.556	-0.256	-0.033
-710.675	-170.233	0.209	-0.007
-709.660	-6.403	0.219	-0.150
-708.645	-121.276	0.227	-0.038
-707.631	-140.959	-0.211	0.022
-706.616	-127.243	0.279	-0.041
-705.602	-71.384	0.148	-0.056
-704.587	-125.625	0.211	0.032
-703.572	720.572	0.030	0.081
-702.558	-27.278	0.189	0.110
-701.543	-4.525	-0.167	-0.116
-700.529	-155.728	-0.381	-0.024
-699.514	-75.639	-0.150	-0.053
-698.499	800.000	0.120	-0.486
-697.485	800.000	-0.099	-0.278
-696.470	345.049	-0.124	-0.243
-695.456	-40.734	0.046	-0.024
-694.441	157.623	0.138	-0.191
-693.426	-79.827	0.212	0.072
-692.412	-118.880	0.125	0.022
-691.397	463.516	0.053	0.118
-690.383	-106.329	-0.196	0.044
-689.368	-200.000	0.003	0.173
-688.354	-6.060	-0.157	0.108
-687.339	616.595	0.184	-0.463
-686.324	-200.000	0.027	0.123
-685.310	31.318	-0.213	0.184
-684.295	-22.914	-0.199	-0.120
-683.281	163.032	-0.164	0.231
-682.266	-200.000	-0.065	0.421
-681.251	-200.000	0.013	0.189
-680.237	130.745	-0.174	-0.224
-679.222	7.959	0.266	-0.200
-678.208	764.800	-0.081	-0.221
-677.193	54.484	-0.225	0.217
-676.178	-100.158	-0.260	-0.065
-675.164	-200.000	0.018	-0.204
-674.149	-200.000	0.027	-0.137
-673.135	95.563	-0.076	-0.087
-672.120	596.713	-0.166	-0.411
-671.105	-200.000	-0.015	-0.197
-670.091	-141.605	-0.091	-0.009
-669.076	800.000	0.088	-0.357
-668.062	800.000	-0.038	-0.156
-667.047	-42.393	0.274	0.140
-666.032	-94.984	0.037	-0.010
-665.018	134.496	-0.126	0.164
-664.003	-71.603	-0.395	0.148
-662.989	-140.681	-0.175	-0.018
-661.974	800.000	0.092	-0.257
-660.959	25.447	-0.149	0.124
-659.945	37.089	-0.245	0.217
-658.930	222.593	0.042	0.068
-657.916	800.000	0.092	0.324
-656.901	-42.837	0.192	0.098
-655.886	170.403	-0.107	-0.153
-654.872	-81.646	0.097	0.032
-653.857	-150.981	-0.148	0.011
-652.843	-200.000	-0.024	-0.229
-651.828	-7.934	-0.159	-0.107
-650.814	-91.444	0.148	0.042
-649.799	800.000	0.022	0.087
-648.784	88.802	-0.177	-0.197
-647.770	-58.420	-0.155	0.067
-646.755	800.000	0.011	0.040
-645.741	-200.000	-0.044	0.261
-644.726	31.986	-0.169	-0.145
-643.711	-52.159	0.287	-0.133
-642.697	50.969	-0.039	-0.037
-641.682	195.185	-0.145	0.220
-640.668	-85.286	-0.296	0.092
-639.653	-25.556	-0.097	-0.058
-638.638	-96.325	0.280	-0.074
-637.624	-200.000	0.021	-0.107
-636.609	389.892	-0.089	-0.185
-635.595	-8.103	-0.159	0.107
-634.580	70.497	-0.219	0.226
-633.565	129.873	-0.219	-0.280
-632.551	-122.199	-0.177	-0.029
-631.536	259.262	-0.062	-0.107
-630.522	-200.000	-0.008	0.149
-629.507	199.690	0.085	0.130
-628.492	93.603	-0.092	0.104
-627.478	-10.598	-0.262	0.173
-626.463	-79.600	0.496	-0.167
-625.449	-200.000	-0.013	0.278
-624.434	539.769	-0.059	-0.142
-623.419	712.658	-0.089	0.235
-622.405	-21.749	-0.318	0.193
-621.390	-83.300	-0.151	0.048
-620.376	80.980	-0.151	-0.163
-619.361	-200.000	-0.019	0.256
-618.346	16.256	-0.134	-0.106
-617.332	-117.504	0.261	-0.047
-616.317	620.800	-0.109	-0.273
-615.303	116.727	0.062	0.076
-614.288	-200.000	-0.081	0.466
-613.273	-34.545	-0.030	-0.016
-612.259	-76.487	0.107	-0.038
-611.244	147.329	0.291	-0.392
-610.230	-28.838	-0.087	0.050
-609.215	-49.088	0.162	0.078
-608.201	-35.561	0.209	0.114
-607.186	-129.819	-0.270	-0.037
-606.171	-54.543	-0.028	-0.013
-605.157	734.107	0.132	0.354
-604.142	-50.917	-0.104	0.049
-603.128	-155.514	-0.311	0.020
-602.113	-200.000	0.069	-0.356
-601.098	800.000	-0.048	-0.188
-600.084	-106.709	0.304	-0.068
-599.069	-126.256	-0.321	-0.048
-598.055	438.276	-0.062	0.136
-597.040	-41.867	0.209	0.107
-596.025	88.366	-0.036	-0.040
-595.011	800.000	-0.016	0.052
-593.996	65.801	-0.299	-0.303
-592.982	-200.000	-0.005	-0.097
-591.967	140.195	0.054	-0.071
-590.952	74.860	-0.207	0.218
-589.938	123.102	0.166	0.208
-588.923	-200.000	0.044	-0.309
-587.909	-165.243	-0.194	-0.009
-586.894	-200.000	-0.000	0.179
-585.879	-107.371	0.118	-0.026
-584.865	-200.000	-0.005	0.071
-583.850	-16.303	0.305	-0.193
-582.836	157.055	0.210	-0.290
-581.821	546.248	-0.097	0.231
-580.806	-59.843	-0.185	0.079
-579.792	-135.227	0.072	0.009
-578.777	58.284	0.204	-0.199
-577.763	11.831	0.139	0.106
-576.748	-151.297	0.438	0.033
-575.733	586.885	-0.083	0.203
-574.719	-28.011	0.143	-0.082
-573.704	238.183	0.086	-0.142
-572.690	-200.000	-0.007	-0.223
-571.675	16.023	0.250	-0.197
-570.661	-111.065	0.501	-0.103
-569.646	-100.736	0.392	-0.096
-568.631	-186.431	0.323	0.005
-567.617	789.129	-0.093	-0.254
-566.602	303.082	-0.200	0.369
-565.588	23.733	-0.099	-0.081
-564.573	-103.305	0.056	-0.013
-563.558	-145.130	0.127	0.011
-562.544	521.998	0.089	-0.210
-561.529	-200.000	-0.002	0.054
-560.515	-133.261	0.154	-0.019
-559.500	60.252	-0.159	0.157
-558.485	-24.657	0.024	0.014
-557.471	-6.202	0.128	0.087
-556.456	-200.000	-0.011	-0.225
-555.442	290.670	-0.138	0.250
-554.427	-107.058	-0.079	-0.017
-553.412	395.509	0.137	-0.286
-552.398	-87.705	-0.482	0.145
-551.383	-34.106	-0.194	-0.107
-550.369	-30.196	-0.199	0.113
-549.354	-71.175	-0.077	-0.029
-548.339	81.863	0.082	0.088
-547.325	-81.121	0.176	-0.058
-546.310	-135.973	-0.163	-0.019
-545.296	-118.874	0.060	0.010
-544.281	-18.087	-0.087	0.054
-543.266	-5.206	-0.240	0.165
-542.252	37.606	-0.177	0.157
-541.237	800.000	0.055	0.230
-540.223	800.000	0.054	0.190
-539.208	-84.786	-0.293	0.092
-538.193	199.314	0.188	-0.288
-537.179	-200.000	0.043	-0.390
-536.164	-26.933	0.129	-0.075
-535.150	150.227	-0.126	-0.170
-534.135	-5.588	-0.262	-0.179
-533.121	-52.867	-0.308	0.141
-532.106	-27.216	-0.464	-0.269
-531.091	-108.427	0.430	0.092
-530.077	50.721	0.215	-0.203
-529.062	345.853	-0.112	-0.219
-528.048	194.359	-0.114	-0.172
-527.033	-106.010	0.114	0.026
-526.018	800.000	-0.095	0.280
-525.004	-96.689	-0.078	-0.021
-523.989	-128.613	-0.418	0.059
-522.975	-137.570	-0.142	-0.016
-521.960	-54.080	-0.133	0.060
-520.945	-12.406	-0.192	0.125
-519.931	-158.304	0.067	0.004
-518.916	-200.000	0.030	-0.225
-517.902	215.524	0.011	-0.018
-516.887	225.413	-0.043	-0.070
-515.872	204.728	0.106	-0.164
-514.858	-104.705	-0.263	-0.060
-513.843	690.559	0.023	0.060
-512.829	41.510	-0.329	0.297
-511.814	-135.000	0.190	-0.023
-510.799	-137.375	-0.194	-0.022
-509.785	69.950	0.015	0.015
-508.770	800.000	0.085	0.250
-507.756	-54.893	-0.076	0.034
-506.741	-183.857	-0.180	-0.003
-505.726	-99.754	-0.062	-0.015
-504.712	-14.822	0.168	0.107
-503.697	-200.000	0.018	0.097
-502.683	107.520	0.093	-0.110
-501.668	-200.000	0.082	0.471
-500.653	-63.665	0.378	0.154
-499.639	4.154	-0.245	-0.179
-498.624	52.926	-0.186	0.177
-497.610	-139.323	0.243	0.026
-496.595	143.773	0.077	-0.102
-495.581	-79.495	0.161	0.054
-494.566	53.740	0.166	0.159
-493.551	-200.000	0.015	-0.270
-492.537	498.801	0.109	-0.249
-491.522	-200.000	0.021	-0.215
-490.508	65.049	0.150	0.151
-489.493	80.316	-0.104	-0.111
-488.478	-61.473	0.238	-0.099
-487.464	-200.000	0.021	0.189
-486.449	-8.114	-0.315	-0.211
-485.435	60.999	0.153	-0.151
-484.420	195.702	-0.148	0.224
-483.405	-64.098	-0.185	0.075
-482.391	-200.000	0.006	-0.447
-481.376	152.530	0.082	-0.112
-480.362	75.763	0.301	0.317
-479.347	219.561	0.072	0.114
-478.332	373.997	0.179	-0.361
-477.318	-73.364	-0.349	0.127
-476.303	-115.898	0.116	-0.022
-475.289	-46.187	-0.036	0.017
-474.274	800.000	-0.085	-0.270
-473.259	-58.913	0.180	-0.077
-472.245	298.856	-0.216	-0.394
-471.230	-170.234	-0.283	-0.010
-470.216	545.968	0.095	0.227
-469.201	-62.349	-0.179	0.074
-468.186	-191.445	0.126	0.001
-467.172	-105.188	-0.093	-0.021
-466.157	594.606	-0.042	0.102
-465.143	104.830	-0.157	0.184
-464.128	-200.000	-0.002	0.151
-463.113	-64.750	-0.230	0.093
-462.099	-185.789	-0.284	-0.004
-461.084	-115.295	0.317	-0.060
-460.070	-19.306	-0.087	-0.054
-459.055	117.667	-0.248	-0.303
-458.040	90.797	0.175	0.195
-457.026	54.406	-0.009	-0.009
-456.011	198.615	-0.228	0.346
-454.997	129.252	-0.057	-0.072
-453.982	166.515	0.203	-0.286
-452.968	-180.664	-0.196	-0.004
-451.953	-200.000	0.022	-0.429
-450.938	-200.000	-0.001	-0.081
-449.924	538.727	0.110	-0.260
-448.909	95.604	0.082	0.093
-447.895	138.188	-0.130	-0.169
-446.880	-0.606	0.178	-0.125
-445.865	56.356	0.115	0.111
-444.851	-83.942	0.348	0.110
-443.836	-200.000	0.033	-0.245
-442.822	800.000	0.155	-0.601
-441.807	-78.177	-0.034	0.011
-440.792	-55.787	-0.285	0.127
-439.778	800.000	0.034	-0.127
-438.763	-200.000	0.062	0.327
-437.749	49.726	-0.326	-0.305
-436.734	-200.000	-0.063	-0.457
-435.719	265.183	-0.036	-0.062
-434.705	-200.000	-0.011	-0.290
-433.690	-185.157	0.235	-0.004
-432.676	-62.834	-0.058	-0.024
-431.661	-23.392	-0.048	-0.029
-430.646	1.349	-0.191	-0.136
-429.632	38.787	0.272	0.241
-428.617	467.465	0.048	-0.106
-427.603	-200.000	0.074	0.370
-426.588	553.426	-0.104	0.247
-425.573	277.356	0.137	0.243
-424.559	-59.088	0.138	0.059
-423.544	19.560	-0.080	0.064
-422.530	-64.597	-0.272	0.110
-421.515	474.584	-0.091	0.204
-420.500	-9.668	-0.185	0.122
-419.486	126.641	-0.094	0.118
-418.471	-126.009	-0.081	0.012
-417.457	-54.989	0.058	0.026
-416.442	8.473	-0.083	0.062
-415.428	-46.692	-0.176	0.086
-414.413	-15.791	0.115	-0.073
-413.398	-56.395	-0.274	0.121
-412.384	66.741	0.095	0.096
-411.369	800.000	-0.080	-0.298
-410.355	56.425	0.181	0.175
-409.340	-44.950	-0.025	0.012
-408.325	-153.430	0.257	0.018
-407.311	-101.323	0.128	-0.031
-406.296	34.718	-0.177	0.154
-405.282	-116.838	-0.273	0.050
-404.267	-67.092	0.099	-0.039
-403.252	361.696	0.155	-0.309
-402.238	-92.392	-0.207	-0.058
-401.223	-57.463	-0.274	0.119
-400.209	312.312	0.099	0.183
-399.194	-200.000	0.025	0.175
-398.179	-200.000	0.037	-0.183
-397.165	165.334	0.197	0.276
-396.150	158.956	0.101	0.139
-395.136	-200.000	-0.012	0.103
-394.121	565.617	0.121	0.291
-393.106	-80.445	-0.172	0.057
-392.092	-59.304	-0.072	0.031
-391.077	105.086	-0.115	-0.135
-390.063	-52.513	-0.085	0.039
-389.048	25.873	0.229	0.189
-388.033	-200.000	-0.007	-0.046
-387.019	374.562	-0.190	-0.383
-386.004	139.437	-0.151	-0.196
-384.990	25.027	-0.060	-0.049
-383.975	220.196	0.073	0.116
-382.960	125.168	0.268	-0.334
-381.946	-5.007	0.031	-0.021
-380.931	-200.000	-0.017	0.132
-379.917	-16.375	0.165	-0.104
-378.902	-130.263	-0.150	0.020
-377.888	-64.125	0.270	0.109
-376.873	800.000	0.112	0.389
-375.858	4.797	-0.223	-0.162
-374.844	363.050	0.106	-0.210
-373.829	-96.831	-0.100	0.026
-372.815	800.000	-0.055	-0.214
-371.800	-132.994	0.359	-0.045
-370.785	-105.768	0.387	0.087
-369.771	-133.038	0.151	-0.019
-368.756	-200.000	0.015	0.148
-367.742	-156.921	0.120	0.007
-366.727	-94.367	-0.203	0.055
-365.712	-95.452	-0.045	0.012
-364.698	203.542	0.116	0.177
-363.683	-128.759	-0.251	-0.035
-362.669	-200.000	0.022	-0.110
-361.654	-46.213	0.255	0.124
-360.639	653.309	0.166	0.421
-359.625	-12.423	-0.228	-0.147
-358.610	-150.503	-0.265	0.020
-357.596	-62.415	0.307	0.127
-356.581	66.548	0.117	-0.118
-355.566	-78.078	0.226	0.077
-354.552	-97.546	0.135	-0.035
-353.537	-21.303	0.038	0.023
-352.523	-116.546	-0.219	-0.040
-351.508	800.000	0.074	0.317
-350.493	-57.972	-0.192	-0.083
-349.479	139.427	-0.056	-0.072
-348.464	193.032	-0.146	0.218
-347.450	9.331	-0.210	-0.157
-346.435	114.888	-0.073	-0.088
-345.420	206.199	0.092	0.141
-344.406	341.852	-0.102	0.198
-343.391	-89.273	0.291	0.085
-342.377	-41.782	-0.211	0.107
-341.362	-165.078	-0.080	-0.004
-340.348	440.553	-0.101	-0.219
-339.333	17.271	0.244	0.191
-338.318	800.000	-0.035	0.111
-337.304	162.347	-0.115	0.159
-336.289	-200.000	-0.008	-0.051
-335.275	290.230	-0.160	-0.287
-334.260	159.007	0.181	-0.249
-333.245	14.938	0.117	0.090
-332.231	8.581	0.152	0.113
-331.216	270.169	-0.189	-0.328
-330.202	19.137	0.231	0.184
-329.187	324.550	-0.191	0.361
-328.172	462.960	0.115	-0.253
-327.158	525.190	0.100	-0.232
-326.143	159.061	-0.153	-0.211
-325.129	-173.785	0.248	0.007
-324.114	51.213	-0.175	0.164
-323.099	-44.664	0.504	-0.249
-322.085	-139.789	0.079	0.008
-321.070	18.406	0.179	0.141
-320.056	-139.746	0.183	-0.019
-319.041	497.345	0.114	-0.259
-318.026	149.605	0.234	0.313
-317.012	-200.000	0.015	0.146
-315.997	162.676	0.026	-0.037
-314.983	800.000	-0.086	0.261
-313.968	-5.458	0.245	-0.166
-312.953	-127.829	0.145	-0.021
-311.939	-200.000	-0.008	0.207
-310.924	-148.098	0.380	-0.031
-309.910	-60.575	0.101	0.042
-308.895	14.950	0.073	0.057
-307.880	78.984	0.196	-0.208
-306.866	-137.047	-0.293	-0.033
-305.851	-172.256	0.546	0.017
-304.837	147.212	-0.240	-0.319
-303.822	-200.000	-0.011	0.227
-302.807	386.264	0.143	-0.292
-301.793	50.797	0.053	-0.050
-300.778	-4.975	0.130	-0.088
-299.764	-23.053	-0.117	0.070
-298.749	791.796	0.134	0.365
-297.735	25.732	-0.181	-0.149
-296.720	1.662	-0.058	0.041
-295.705	269.707	-0.208	0.361
-294.691	160.528	-0.049	-0.067
-293.676	113.252	0.186	-0.223
-292.662	140.764	0.099	0.130
-291.647	-138.848	-0.142	0.015
-290.632	213.466	-0.202	-0.315
-289.618	-200.000	-0.016	0.086
-288.603	21.547	0.193	-0.155
-287.589	-62.527	-0.115	-0.047
-286.574	800.000	0.052	-0.179
-285.559	-23.561	-0.151	0.090
-284.545	393.959	0.096	0.197
-283.530	157.388	-0.137	0.186
-282.516	800.000	0.104	0.380
-281.501	59.990	-0.196	0.191
-280.486	65.319	-0.147	0.146
-279.472	-200.000	0.002	-0.285
-278.457	-200.000	-0.052	0.395
-277.443	800.000	0.070	0.201
-276.428	161.273	0.103	-0.142
-275.413	183.049	-0.112	0.163
-274.399	-77.623	-0.363	0.124
-273.384	20.646	0.146	0.116
-272.370	344.342	-0.110	0.214
-271.355	-4.866	0.050	0.034
-270.340	-55.493	0.313	0.138
-269.326	230.039	0.177	-0.285
-268.311	-102.937	0.244	0.057
-267.297	-200.000	-0.084	0.387
-266.282	-8.005	-0.040	0.026
-265.267	99.966	-0.135	0.154
-264.253	-49.732	-0.212	-0.099
-263.238	-200.000	-0.001	-0.367
-262.224	-107.274	-0.272	0.059
-261.209	-109.111	0.051	-0.011
-260.195	-200.000	-0.060	0.287
-259.180	-200.000	0.059	0.305
-258.165	47.175	-0.042	0.038
-257.151	-194.362	-0.289	-0.002
-256.136	-129.178	0.112	0.015
-255.122	-142.346	-0.220	-0.021
-254.107	277.989	0.098	0.173
-253.092	-103.398	-0.278	0.064
-252.078	-200.000	0.006	-0.117
-251.063	800.000	0.092	0.313
-250.049	4.193	-0.055	-0.039
-249.034	712.915	-0.041	0.106
-248.019	-116.106	-0.369	-0.068
-247.005	-146.945	0.160	-0.014
-245.990	646.006	-0.009	-0.024
-244.976	-162.487	0.324	0.016
-243.961	-114.478	-0.070	-0.013
-242.946	-7.244	-0.243	-0.162
-241.932	26.086	-0.192	-0.158
-240.917	-27.499	-0.097	-0.056
-239.903	-200.000	-0.040	-0.334
-238.888	800.000	-0.077	0.284
-237.873	39.030	-0.139	0.123
-236.859	-46.644	0.134	0.065
-235.844	-181.767	0.127	0.002
-234.830	800.000	-0.044	0.119
-233.815	800.000	0.095	0.263
-232.800	304.248	-0.120	-0.220
-231.786	-78.022	0.187	-0.063
-230.771	-200.000	0.045	-0.284
-229.757	-200.000	-0.093	0.466
-228.742	191.224	-0.098	0.146
-227.727	-200.000	0.004	0.205
-226.713	314.714	-0.143	0.266
-225.698	-76.047	0.280	-0.097
-224.684	53.580	-0.250	0.236
-223.669	311.596	0.034	-0.062
-222.655	497.520	0.049	-0.110
-221.640	54.630	-0.179	-0.170
-220.625	79.871	-0.076	-0.080
-219.611	263.147	0.020	-0.034
-218.596	21.777	-0.057	0.046
-217.582	-200.000	-0.034	-0.340
-216.567	-200.000	-0.024	-0.119
-215.552	14.846	0.092	-0.071
-214.538	754.466	0.035	0.093
-213.523	126.566	0.090	0.112
-212.509	-55.597	0.083	-0.037
-211.494	77.887	-0.319	-0.334
-210.479	800.000	0.059	-0.212
-209.465	-93.417	-0.193	0.053
-208.450	800.000	-0.081	-0.265
-207.436	-200.000	-0.228	-0.001
-206.421	68.051	-0.077	0.077
-205.406	800.000	-0.115	-0.360
-204.392	212.454	0.050	-0.078
-203.377	-12.010	-0.105	0.068
-202.363	-36.937	0.226	-0.119
-201.348	196.463	-0.224	-0.335
-200.333	-99.468	0.229	0.057
-199.319	-31.560	-0.294	-0.163
-198.304	800.000	-0.119	-0.336
-197.290	153.209	0.061	-0.082
-196.275	-6.490	0.145	-0.097
-195.260	171.620	0.076	0.108
-194.246	163.040	0.098	-0.135
-193.231	-200.000	0.018	-0.148
-192.217	800.000	0.027	0.111
-191.202	-200.000	-0.008	0.043
-190.187	-129.201	0.300	-0.041
-189.173	800.000	-0.041	-0.134
-188.158	-12.895	0.068	-0.044
-187.144	-26.194	0.333	-0.192
-186.129	-81.295	0.234	0.076
-185.114	636.500	0.123	-0.307
-184.100	-76.484	0.348	-0.120
-183.085	498.527	-0.085	-0.192
-182.071	-86.567	-0.032	0.010
-181.056	329.834	0.067	-0.126
-180.042	-64.462	0.124	0.050
-179.027	-105.469	0.192	0.043
-178.012	-58.093	-0.150	-0.064
-176.998	-3.924	0.369	0.252
-175.983	319.548	-0.066	0.123
-174.969	-145.890	0.114	0.010
-173.954	-200.000	0.001	-0.063
-172.939	-122.819	0.354	0.056
-171.925	33.530	0.273	0.233
-170.910	495.516	-0.079	0.178
-169.896	307.818	0.106	-0.194
-168.881	4.125	-0.329	0.237
-167.866	655.936	-0.100	-0.251
-166.852	-156.145	0.280	-0.017
-165.837	471.676	-0.108	-0.239
-164.823	193.911	-0.166	0.247
-163.808	-108.393	-0.300	-0.064
-162.793	-75.934	-0.098	0.034
-161.779	-151.643	0.058	0.004
-160.764	800.000	0.085	-0.235
-159.750	204.796	0.102	0.155
-158.735	-30.253	-0.406	0.226
-157.720	-200.000	-0.048	0.328
-156.706	-127.944	0.056	-0.008
-155.691	-82.248	0.221	0.071
-154.677	-75.208	0.229	-0.080
-153.662	53.028	0.277	0.260
-152.647	-139.020	0.222	0.024
-151.633	800.000	0.072	-0.263
-150.618	-113.065	-0.094	0.018
-149.604	223.518	-0.017	0.028
-148.589	89.716	0.097	-0.106
-147.574	-148.865	0.044	-0.003
-146.560	90.638	0.199	0.218
-145.545	-92.716	0.415	0.114
-144.531	4.861	0.248	-0.179
-143.516	-200.000	-0.018	-0.213
-142.502	-200.000	0.026	-0.190
-141.487	-200.000	-0.037	-0.374
-140.472	-200.000	-0.013	0.070
-139.458	-99.409	0.176	0.043
-138.443	37.955	-0.247	-0.215
-137.429	-174.198	-0.174	0.005
-136.414	2.214	-0.357	0.253
-135.399	-200.000	0.046	-0.376
-134.385	-155.309	0.287	0.018
-133.370	280.890	0.091	0.159
-132.356	-92.455	0.244	0.067
-131.341	-156.362	-0.127	0.008
-130.326	-200.000	-0.042	0.210
-129.312	-145.921	-0.110	0.010
-128.297	128.783	0.106	-0.132
-127.283	423.396	0.094	-0.198
-126.268	-123.312	0.173	-0.027
-125.253	-133.330	-0.224	0.028
-124.239	-200.000	-0.032	0.404
-123.224	-200.000	0.024	-0.155
-122.210	234.934	-0.265	-0.429
-121.195	-200.000	-0.003	-0.104
-120.180	-1.452	-0.208	0.144
-119.166	-40.203	-0.280	-0.143
-118.151	25.866	0.166	0.136
-117.137	-200.000	-0.016	0.125
-116.122	-200.000	-0.039	-0.353
-115.107	-200.000	-0.003	0.117
-114.093	35.495	0.179	-0.154
-113.078	-59.366	-0.214	0.090
-112.064	-75.045	0.318	0.112
-111.049	610.980	-0.036	0.089
-110.034	16.320	-0.098	0.076
-109.020	396.904	0.085	0.174
-108.005	548.325	0.137	-0.322
-106.991	1.390	-0.083	0.059
-105.976	-68.744	-0.107	0.040
-104.962	-200.000	0.014	0.270
-103.947	51.114	-0.286	-0.266
-102.932	132.472	-0.300	-0.379
-101.918	800.000	0.170	-0.484
-100.903	-200.000	0.004	0.360
-99.889	153.084	-0.089	0.119
-98.874	64.689	-0.058	-0.057
-97.859	147.719	0.188	-0.248
-96.845	-125.551	-0.196	0.029
-95.830	-200.000	-0.055	-0.262
-94.816	-91.489	-0.074	-0.021
-93.801	-68.395	0.269	-0.102
-92.786	-48.767	-0.477	-0.224
-91.772	-200.000	-0.012	0.282
-90.757	-50.771	0.363	0.167
-89.743	-5.717	-0.196	-0.131
-88.728	-83.158	0.108	0.034
-87.713	75.387	-0.163	-0.169
-86.699	39.784	0.078	0.069
-85.684	-20.747	0.026	0.016
-84.670	-112.373	0.159	0.031
-83.655	9.938	0.364	0.271
-82.640	800.000	0.036	-0.138
-81.626	-52.921	0.223	-0.101
-80.611	800.000	-0.119	0.473
-79.597	349.775	-0.036	-0.070
-78.582	-114.479	-0.162	-0.030
-77.567	-200.000	-0.044	-0.226
-76.553	-200.000	-0.045	0.198
-75.538	800.000	0.047	-0.172
-74.524	-42.779	-0.231	0.115
-73.509	44.631	0.384	0.345
-72.494	-200.000	0.003	-0.139
-71.480	146.156	0.056	0.073
-70.465	-31.714	-0.104	0.057
-69.451	-200.000	0.021	-0.211
-68.436	-161.183	-0.199	-0.010
-67.422	-37.765	0.065	-0.034
-66.407	-67.718	0.292	-0.112
-65.392	-97.805	0.117	0.030
-64.378	-185.002	-0.333	0.005
-63.363	-67.648	0.266	-0.102
-62.349	650.154	-0.066	0.165
-61.334	144.326	-0.880	-1.148
-60.319	800.000	0.334	1.064
-59.305	538.253	-0.411	-0.956
-58.290	236.661	0.743	1.203
-57.276	195.036	0.793	1.178
-56.261	-200.000	111.759	644.592
-55.246	488.643	1484.084	3314.402
-54.232	150.536	2655.006	3525.684
-53.217	98.862	2273.787	2566.010
-52.203	36.997	1890.324	1634.834
-51.188	31.045	1684.272	1411.682
-50.173	28.607	1642.851	1358.881
-49.159	50.841	1697.027	1571.321
-48.144	49.849	1711.381	1577.113
-47.130	30.814	1670.384	1398.084
-46.115	28.038	1656.202	1365.463
-45.100	27.795	1651.581	1359.784
-44.086	27.781	1648.941	1357.454
-43.071	27.782	1646.418	1355.333
-42.057	27.731	1644.296	1353.152
-41.042	27.826	1641.503	1351.505
-40.027	27.834	1640.197	1350.436
-39.013	27.766	1638.149	1348.197
-37.998	27.887	1636.409	1347.597
-36.984	27.818	1635.625	1346.395
-35.969	27.916	1633.877	1345.624
-34.954	27.957	1632.174	1344.468
-33.940	27.854	1630.643	1342.399
-32.925	27.930	1628.483	1341.123
-31.911	27.802	1627.123	1339.009
-30.896	27.925	1625.152	1338.236
-29.881	27.967	1623.262	1336.931
-28.867	27.897	1621.679	1335.068
-27.852	27.863	1620.661	1333.927
-26.838	27.867	1618.921	1332.472
-25.823	27.963	1617.710	1332.124
-24.809	27.928	1616.435	1330.761
-23.794	27.954	1614.974	1329.698
-22.779	27.962	1613.640	1328.606
-21.765	28.004	1611.606	1327.183
-20.750	28.022	1610.136	1326.046
-19.736	28.039	1608.957	1325.145
-18.721	28.036	1607.855	1324.169
-17.706	27.901	1606.360	1321.908
-16.692	27.991	1604.834	1321.250
-15.677	27.885	1604.073	1319.805
-14.663	28.038	1602.337	1319.428
-13.648	27.953	1601.227	1317.848
-12.633	27.948	1599.455	1316.303
-11.619	28.037	1597.350	1315.156
-10.604	27.999	1596.392	1314.041
-9.590	27.980	1595.094	1312.788
-8.575	27.941	1594.134	1311.660
-7.560	28.046	1592.541	1311.050
-6.546	27.952	1592.405	1310.217
-5.531	28.078	1590.495	1309.494
-4.517	28.065	1589.013	1308.130
-3.502	28.037	1588.181	1307.193
-2.487	28.048	1586.436	1305.783
-1.473	27.670	1574.375	1293.125
-0.458	24.669	1555.347	1256.386
0.556	19.224	1555.599	1224.757
1.571	16.846	1579.312	1226.135
2.586	16.400	1591.410	1232.165
3.600	15.651	1541.381	1188.028
4.615	12.860	1443.315	1093.855
5.629	10.044	1388.465	1034.194
6.644	9.444	1381.171	1024.849
7.659	9.262	1380.262	1022.927
8.673	9.331	1379.224	1022.503
9.688	9.244	1376.897	1020.135
10.702	9.208	1373.774	1017.508
11.717	10.642	1375.711	1027.938
12.731	14.048	1381.569	1053.850
13.746	16.900	1385.599	1074.937
14.761	17.388	1385.374	1077.766
15.775	16.469	1382.581	1069.683
16.790	15.418	1380.002	1060.949
17.804	14.587	1378.023	1054.087
18.819	14.008	1376.783	1049.391
19.834	13.852	1375.338	1047.211
20.848	13.504	1374.290	1044.127
21.863	13.364	1372.447	1041.757
22.877	13.208	1371.844	1040.225
23.892	13.163	1370.563	1038.878
24.907	13.156	1369.976	1038.297
25.921	13.147	1369.029	1037.430
26.936	13.118	1368.086	1036.440
27.950	13.224	1366.865	1036.090
28.965	13.296	1365.856	1035.685
29.980	13.391	1364.778	1035.370
30.994	13.481	1363.107	1034.572
32.009	13.355	1362.696	1033.381
33.023	13.419	1361.260	1032.599
34.038	13.351	1359.448	1030.713
35.053	13.318	1358.307	1029.550
36.067	13.320	1357.711	1029.018
37.082	13.274	1356.403	1027.648
38.096	13.412	1355.447	1027.690
39.111	13.280	1354.828	1026.309
40.126	13.228	1354.252	1025.459
41.140	13.149	1353.068	1023.987
42.155	13.178	1352.391	1023.561
43.169	13.155	1352.002	1023.036
44.184	12.989	1352.341	1022.174
45.199	13.128	1351.376	1022.215
46.213	13.184	1350.806	1022.037
47.228	13.201	1350.370	1021.721
48.242	13.341	1348.534	1021.108
49.257	13.247	1347.323	1019.521
50.271	13.238	1345.993	1018.366
51.286	13.231	1344.299	1016.953
52.301	13.237	1343.332	1016.166
53.315	13.115	1342.474	1014.682
54.330	13.144	1341.574	1014.090
55.344	13.206	1339.884	1013.103
56.359	13.308	1338.766	1012.792
57.374	13.054	1338.239	1010.749
58.388	13.066	1337.592	1010.241
59.403	13.012	1337.104	1009.453
60.417	13.022	1336.787	1009.190
61.432	12.992	1335.639	1008.049
62.447	12.988	1334.189	1006.839
63.461	12.958	1333.279	1005.878
64.476	12.873	1332.245	1004.496
65.490	13.031	1330.606	1004.133
66.505	13.023	1329.423	1003.100
67.520	13.093	1327.586	1002.052
68.534	13.051	1327.099	1001.339
69.549	13.013	1326.286	1000.405
70.563	12.996	1325.271	999.452
71.578	12.957	1323.709	997.948
72.593	12.873	1323.078	996.877
73.607	12.927	1322.253	996.492
74.622	12.897	1321.355	995.545
75.636	12.872	1320.904	994.966
76.651	12.845	1320.202	994.186
77.666	12.982	1319.489	994.389
78.680	12.952	1318.805	993.602
79.695	12.983	1318.264	993.294
80.709	12.982	1317.433	992.573
81.724	13.087	1316.343	992.299
82.739	13.105	1315.777	991.892
83.753	13.215	1314.690	991.646
84.768	13.208	1313.986	990.986
85.782	13.282	1312.537	990.247
86.797	13.276	1311.564	989.388
87.812	13.238	1310.339	988.147
88.826	13.143	1309.175	986.616
89.841	13.340	1307.605	986.520
90.855	13.285	1306.871	985.552
91.870	13.285	1305.999	984.807
92.884	13.227	1305.434	983.949
93.899	13.337	1304.117	983.524
94.914	13.356	1303.880	983.373
95.928	13.386	1302.840	982.678
96.943	13.352	1302.304	981.983
97.957	13.249	1301.142	980.413
98.972	13.248	1300.406	979.767
99.987	13.281	1298.978	978.800
101.001	13.378	1297.357	978.061
102.016	13.299	1296.616	976.951
103.030	13.277	1295.787	976.107
104.045	13.315	1294.946	975.611
105.060	13.201	1293.679	973.899
106.074	13.182	1292.074	972.493
107.089	13.093	1291.053	971.115
108.103	13.051	1289.587	969.679
109.118	13.135	1288.333	969.145
110.133	13.113	1287.260	968.124
111.147	13.166	1285.971	967.379
112.162	13.069	1284.404	965.549
113.176	13.172	1283.613	965.467
114.191	13.166	1282.377	964.418
115.206	13.180	1281.424	963.697
116.220	13.182	1280.641	963.038
117.235	13.200	1279.050	961.859
118.249	13.184	1278.339	961.148
119.264	13.049	1277.287	959.487
120.279	13.094	1275.887	958.608
121.293	13.094	1275.073	957.913
122.308	13.106	1273.505	956.721
123.322	13.060	1273.068	956.044
124.337	13.129	1271.627	955.276
125.352	12.989	1271.171	954.038
126.366	13.033	1269.786	953.166
127.381	13.044	1268.403	952.108
128.395	13.045	1267.419	951.293
129.410	12.945	1266.356	949.834
130.424	13.165	1265.414	950.311
131.439	13.107	1264.788	949.422
132.454	13.111	1264.070	948.820
133.468	13.203	1262.858	948.354
134.483	13.244	1261.939	947.815
135.497	13.249	1261.176	947.190
136.512	13.148	1259.660	945.385
137.527	13.218	1258.467	944.811
138.541	13.196	1256.911	943.433
139.556	13.191	1255.651	942.372
140.570	13.267	1254.894	942.157
141.585	13.357	1253.379	941.445
142.600	13.292	1252.394	940.256
143.614	13.408	1251.690	940.303
144.629	13.336	1250.371	938.817
145.643	13.381	1249.321	938.205
146.658	13.326	1248.301	937.044
147.673	13.309	1247.032	935.910
148.687	13.294	1245.639	934.696
149.702	13.213	1244.436	933.255
150.716	13.326	1242.932	932.682
151.731	13.273	1242.064	931.650
152.746	13.252	1240.811	930.508
153.760	13.320	1239.225	929.622
154.775	13.324	1238.535	929.039
155.789	13.410	1237.465	928.637
156.804	13.380	1236.446	927.623
157.819	13.388	1235.176	926.633
158.833	13.547	1233.517	926.197
159.848	13.424	1233.049	925.079
160.862	13.431	1232.613	924.708
161.877	13.422	1230.946	923.323
162.892	13.388	1229.940	922.298
163.906	13.333	1229.095	921.277
164.921	13.293	1228.202	920.301
165.935	13.426	1227.493	920.433
166.950	13.364	1227.000	919.635
167.964	13.498	1225.482	919.160
168.979	13.405	1225.327	918.448
169.994	13.403	1224.665	917.860
171.008	13.427	1224.185	917.549
172.023	13.452	1222.643	916.451
173.037	13.630	1221.695	916.643
174.052	13.620	1220.926	915.933
175.067	13.549	1219.425	914.332
176.081	13.485	1218.447	913.163
177.096	13.509	1217.641	912.613
178.110	13.451	1216.800	911.582
179.125	13.447	1215.910	910.813
180.140	13.522	1214.753	910.275
181.154	13.585	1213.466	909.575
182.169	13.506	1212.606	908.418
183.183	13.652	1210.862	907.831
184.198	13.682	1209.771	907.099
185.213	13.549	1208.998	905.713
186.227	13.802	1207.441	905.847
187.242	13.780	1206.200	904.716
188.256	13.832	1205.378	904.302
189.271	13.748	1204.917	903.418
190.286	13.645	1203.855	901.980
191.300	13.605	1202.453	900.631
192.315	13.523	1202.090	899.836
193.329	13.605	1201.617	899.849
194.344	13.612	1200.616	899.060
195.359	13.664	1200.497	899.171
196.373	13.715	1199.827	898.865
197.388	13.683	1199.829	898.615
198.402	13.808	1198.892	898.507
199.417	13.952	1197.900	898.467
200.432	13.963	1197.313	898.007
201.446	13.983	1196.477	897.408
202.461	13.965	1195.603	896.577
203.475	13.972	1194.805	895.932
204.490	14.005	1193.340	894.934
205.504	13.966	1191.621	893.357
206.519	13.863	1190.904	892.189
207.534	13.910	1189.485	891.299
208.548	13.918	1188.972	890.878
209.563	13.805	1188.229	889.637
210.577	13.772	1187.292	888.678
211.592	14.007	1186.254	889.082
212.607	14.036	1185.567	888.643
213.621	13.969	1184.704	887.559
214.636	14.098	1183.266	887.088
215.650	14.135	1182.544	886.668
216.665	14.146	1181.846	886.123
217.680	14.151	1180.730	885.234
218.694	14.138	1180.769	885.117
219.709	14.205	1179.426	884.386
220.723	14.171	1178.781	883.646
221.738	14.166	1178.131	883.055
222.753	14.188	1177.391	882.538
223.767	14.210	1176.606	881.990
224.782	14.309	1176.271	882.185
225.796	14.328	1175.565	881.676
226.811	14.278	1175.014	880.922
227.826	14.292	1173.845	880.042
228.840	14.240	1173.270	879.255
229.855	14.271	1172.594	878.834
230.869	14.187	1172.204	878.024
231.884	14.268	1170.934	877.421
232.899	14.251	1170.426	876.872
233.913	14.160	1169.355	875.516
234.928	14.176	1168.890	875.172
235.942	14.268	1167.859	874.805
236.957	14.159	1167.256	873.703
237.972	14.127	1166.667	873.019
238.986	14.288	1165.460	872.883
240.001	14.336	1164.480	872.323
241.015	14.246	1163.940	871.367
242.030	14.307	1163.367	871.181
243.045	14.334	1162.169	870.350
244.059	14.297	1162.070	870.006
245.074	14.324	1161.295	869.488
246.088	14.508	1159.848	869.291
247.103	14.401	1159.513	868.404
248.117	14.552	1158.519	868.367
249.132	14.564	1158.066	868.015
250.147	14.598	1157.723	867.858
251.161	14.796	1156.461	867.861
252.176	14.771	1155.964	867.283
253.190	14.821	1155.418	867.056
254.205	14.733	1154.904	866.135
255.220	14.815	1154.181	865.941
256.234	14.817	1153.458	865.333
257.249	14.840	1152.900	864.960
258.263	14.768	1152.427	864.155
259.278	14.893	1151.642	864.136
260.293	14.819	1150.994	863.192
261.307	14.930	1150.137	863.042
262.322	14.981	1149.461	862.724
263.336	14.943	1148.901	862.029
264.351	14.961	1148.362	861.641
265.366	15.015	1147.650	861.308
266.380	15.029	1146.823	860.685
267.395	15.031	1146.325	860.244
268.409	14.925	1145.951	859.344
269.424	14.909	1145.023	858.492
270.439	15.011	1144.301	858.398
271.453	14.960	1143.464	857.431
272.468	14.865	1142.570	856.197
273.482	14.877	1142.048	855.792
274.497	14.976	1141.226	855.609
275.512	14.968	1140.914	855.257
276.526	15.049	1139.796	854.759
277.541	15.063	1139.123	854.248
278.555	15.128	1138.374	853.944
279.570	14.999	1138.040	852.958
280.585	15.161	1136.527	852.572
281.599	15.219	1135.969	852.376
282.614	15.087	1135.013	850.911
283.628	15.183	1133.921	850.503
284.643	15.089	1133.035	849.291
285.657	15.116	1132.297	848.796
286.672	15.197	1131.002	848.163
287.687	15.153	1130.342	847.366
288.701	15.287	1129.394	847.258
289.716	15.171	1128.937	846.254
290.730	15.247	1128.070	845.913
291.745	15.176	1127.623	845.144
292.760	15.266	1127.117	845.148
293.774	15.365	1126.259	844.924
294.789	15.314	1125.946	844.359
295.803	15.359	1124.922	843.742
296.818	15.329	1124.420	843.141
297.833	15.324	1123.804	842.582
298.847	15.319	1122.601	841.580
299.862	15.405	1121.621	841.199
300.876	15.296	1121.491	840.483
301.891	15.379	1120.857	840.349
302.906	15.467	1120.009	840.080
303.920	15.495	1119.351	839.649
304.935	15.555	1118.697	839.386
305.949	15.703	1117.710	839.311
306.964	15.595	1117.212	838.321
307.979	15.561	1116.830	837.790
308.993	15.570	1115.813	837.000
310.008	15.572	1115.308	836.555
311.022	15.596	1114.406	835.924
312.037	15.625	1113.460	835.289
313.052	15.549	1112.769	834.318
314.066	15.491	1111.864	833.276
315.081	15.488	1110.676	832.298
316.095	15.385	1110.526	831.604
317.110	15.510	1109.283	831.218
318.125	15.504	1108.579	830.586
319.139	15.581	1107.678	830.216
320.154	15.553	1107.052	829.537
321.168	15.573	1106.443	829.105
322.183	15.521	1106.005	828.446
323.197	15.588	1105.349	828.213
324.212	15.571	1104.814	827.654
325.227	15.615	1104.347	827.446
326.241	15.585	1103.769	826.796
327.256	15.511	1102.797	825.630
328.270	15.567	1102.191	825.380
329.285	15.561	1100.576	824.067
330.300	15.596	1099.933	823.685
331.314	15.643	1098.915	823.079
332.329	15.606	1098.299	822.361
333.343	15.683	1097.400	821.994
334.358	15.823	1096.221	821.720
335.373	15.874	1095.602	821.432
336.387	15.775	1094.996	820.424
337.402	15.903	1093.726	820.022
338.416	15.788	1093.534	819.246
339.431	15.769	1092.893	818.602
340.446	15.946	1091.852	818.611
341.460	15.959	1091.601	818.411
342.475	15.906	1090.852	817.520
343.489	16.024	1089.601	817.085
344.504	16.066	1089.211	816.920
345.519	16.129	1088.008	816.253
346.533	16.158	1087.533	815.965
347.548	16.224	1086.672	815.566
348.562	16.274	1085.776	815.060
349.577	16.019	1085.234	813.352
350.592	16.039	1084.293	812.673
351.606	16.035	1083.756	812.175
352.621	15.975	1082.893	811.170
353.635	16.081	1082.457	811.281
354.650	16.079	1081.807	810.713
355.665	16.132	1080.763	810.115
356.679	16.116	1080.169	809.522
357.694	16.167	1079.749	809.380
358.708	16.140	1079.459	808.962
359.723	16.112	1078.712	808.194
360.738	16.219	1078.017	808.112
361.752	16.173	1077.275	807.268
362.767	16.198	1077.076	807.165
363.781	16.308	1076.206	806.969
364.796	16.280	1075.672	806.363
365.810	16.318	1075.215	806.128
366.825	16.419	1074.449	805.967
367.840	16.427	1073.725	805.389
368.854	16.451	1073.169	805.017
369.869	16.612	1072.241	805.012
370.883	16.473	1071.571	803.778
371.898	16.509	1070.757	803.269
372.913	16.375	1070.484	802.354
373.927	16.457	1070.000	802.312
374.942	16.485	1069.266	801.824
375.956	16.564	1068.957	801.895
376.971	16.581	1068.113	801.271
377.986	16.584	1067.939	801.084
379.000	16.663	1067.241	800.865
380.015	16.732	1066.710	800.722
381.029	16.685	1065.694	799.666
382.044	16.580	1065.303	798.804
383.059	16.757	1064.400	798.894
384.073	16.716	1063.649	798.063
385.088	16.745	1062.680	797.403
386.102	16.672	1061.960	796.451
387.117	16.591	1061.175	795.408
388.132	16.576	1060.088	794.452
389.146	16.548	1059.366	793.713
390.161	16.697	1058.415	793.628
391.175	16.604	1057.978	792.794
392.190	16.803	1057.115	793.006
393.205	16.770	1056.251	792.137
394.219	16.817	1055.804	791.949
395.234	16.680	1054.849	790.526
396.248	16.738	1053.837	789.967
397.263	16.702	1052.615	788.814
398.278	16.642	1052.354	788.268
399.292	16.667	1051.732	787.846
400.307	16.631	1050.785	786.903
401.321	16.691	1050.413	786.835
402.336	16.716	1049.308	786.052
403.350	16.787	1048.533	785.729
404.365	16.741	1047.965	785.022
405.380	16.891	1047.079	784.982
406.394	16.836	1046.583	784.286
407.409	16.919	1046.075	784.219
408.423	16.989	1045.147	783.780
409.438	17.020	1044.716	783.530
410.453	16.989	1044.075	782.836
411.467	17.031	1043.306	782.383
412.482	17.063	1042.774	782.064
413.496	17.188	1042.105	782.069
414.511	17.097	1041.864	781.399
415.526	17.204	1041.203	781.326
416.540	17.298	1040.607	781.243
417.555	17.248	1040.133	780.589
418.569	17.163	1039.468	779.630
419.584	17.287	1038.767	779.603
420.599	17.199	1038.513	778.942
421.613	105.025	1324.991	1477.879
422.628	96.351	1366.661	1477.987
