DTS Sentinel unit serial number:	SN413079Multiplexer serial number:	ORYXHardware model number:	OX4-SRSoftware version number:	ORYX F/W v4.00 Oryx Data Collector v3.7.2.0data status	okinstallation	princeton_trtdifferential loss correction	single-endedforward channel	channel 2reverse channel	N/Adate	2019/09/17time	10:27:35forward acquisition time	60.00reverse acquisition time	0.00gamma	496.2192k internal	0.2324k external	0.2324temperature offset calibration	0.9975default loss term (dB/km)	0.3790temperature slope calibration	1.0000multiplexer offset coefficient	1.0000multiplexer slope coefficient	1.0000fibre end	0.00T internal ref (°C)	29.94T ext. ref 1 (°C)	0.16T ext. ref 2 (°C)	25.50length (m)	temperature (°C)	Stokes	anti-Stokes-747.200	800.000	0.125	-0.356
-746.185	800.000	-0.042	0.150
-745.171	-160.566	0.229	-0.012
-744.156	20.421	-0.115	0.094
-743.142	-164.229	-0.243	-0.011
-742.127	37.981	0.140	0.126
-741.112	-24.906	-0.325	-0.195
-740.098	-48.101	0.112	-0.054
-739.083	-200.000	0.032	0.479
-738.069	800.000	-0.080	0.274
-737.054	85.776	0.286	-0.318
-736.039	-128.763	-0.211	0.030
-735.025	-111.148	0.072	0.015
-734.010	123.599	-0.236	0.298
-732.996	-96.187	0.164	0.044
-731.981	534.898	0.133	0.319
-730.966	800.000	0.079	-0.227
-729.952	11.669	-0.021	-0.016
-728.937	29.789	-0.227	0.195
-727.923	46.551	0.027	-0.026
-726.908	-26.437	-0.371	-0.220
-725.894	44.416	0.112	-0.104
-724.879	-200.000	-0.003	-0.014
-723.864	-171.143	-0.200	-0.007
-722.850	-60.862	-0.256	0.109
-721.835	100.188	-0.128	-0.150
-720.821	-7.732	-0.191	0.130
-719.806	-200.000	0.005	0.181
-718.791	599.414	0.072	-0.179
-717.777	243.055	0.187	-0.316
-716.762	57.723	-0.336	-0.332
-715.748	43.565	-0.141	-0.130
-714.733	-56.673	-0.164	-0.073
-713.718	122.529	0.157	-0.198
-712.704	-69.429	0.051	-0.020
-711.689	-192.949	0.228	0.002
-710.675	204.004	-0.150	0.234
-709.660	-69.349	0.233	0.090
-708.645	521.116	0.135	-0.320
-707.631	127.107	-0.165	-0.210
-706.616	-68.344	0.364	0.142
-705.602	730.341	-0.121	0.327
-704.587	116.555	-0.095	0.117
-703.572	579.474	0.127	-0.314
-702.558	-194.133	-0.140	0.001
-701.543	-122.155	-0.129	0.021
-700.529	11.907	-0.081	0.063
-699.514	-200.000	0.008	0.286
-698.499	-125.485	-0.408	0.063
-697.485	-142.268	0.384	0.038
-696.470	92.967	-0.108	0.123
-695.456	-200.000	-0.031	0.173
-694.441	800.000	-0.026	-0.090
-693.426	-95.682	0.132	-0.036
-692.412	-200.000	0.018	0.213
-691.397	-200.000	0.006	0.217
-690.383	192.452	-0.086	-0.130
-689.368	-31.070	0.115	0.066
-688.354	85.535	-0.259	0.287
-687.339	-37.463	-0.081	0.043
-686.324	-83.894	-0.045	0.015
-685.310	176.429	-0.073	-0.107
-684.295	-200.000	-0.073	0.451
-683.281	800.000	-0.030	0.130
-682.266	-90.028	-0.234	-0.069
-681.251	7.008	-0.106	0.080
-680.237	-18.125	-0.092	0.058
-679.222	140.666	-0.120	0.159
-678.208	532.503	-0.050	0.120
-677.193	-99.934	0.139	-0.035
-676.178	-57.987	-0.123	-0.054
-675.164	61.769	0.074	-0.074
-674.149	56.524	-0.093	0.091
-673.135	55.350	-0.136	-0.132
-672.120	75.848	-0.248	-0.264
-671.105	-18.801	-0.160	-0.100
-670.091	45.783	-0.132	-0.123
-669.076	13.321	0.083	-0.065
-668.062	800.000	0.153	-0.601
-667.047	127.734	-0.155	0.199
-666.032	23.385	0.170	-0.140
-665.018	-107.045	-0.276	-0.061
-664.003	105.367	0.121	-0.144
-662.989	-200.000	-0.089	0.519
-661.974	108.972	-0.191	-0.230
-660.959	800.000	-0.066	0.212
-659.945	-99.788	-0.063	0.016
-658.930	-82.553	-0.285	-0.093
-657.916	-77.007	0.304	0.107
-656.901	-200.000	0.046	-0.341
-655.886	-200.000	0.018	-0.143
-654.872	13.004	0.152	0.118
-653.857	-5.645	-0.131	-0.090
-652.843	300.948	-0.104	-0.192
-651.828	105.599	-0.140	0.167
-650.814	-116.302	0.230	-0.043
-649.799	-77.439	0.338	0.118
-648.784	147.342	0.149	0.202
-647.770	27.615	0.150	0.127
-646.755	-106.184	-0.084	-0.019
-645.741	-200.000	0.058	-0.302
-644.726	490.318	0.094	-0.217
-643.711	-200.000	-0.049	-0.396
-642.697	-152.183	-0.136	-0.010
-641.682	-16.468	0.209	0.133
-640.668	459.307	-0.081	0.182
-639.653	-101.284	0.087	0.021
-638.638	12.733	0.092	0.071
-637.624	56.090	-0.011	-0.011
-636.609	34.993	-0.147	-0.129
-635.595	-200.000	0.013	-0.325
-634.580	-81.342	0.166	-0.055
-633.565	-100.396	-0.207	-0.051
-632.551	5.998	0.100	-0.075
-631.536	312.859	-0.070	-0.132
-630.522	189.470	0.102	-0.153
-629.507	83.772	-0.157	0.172
-628.492	-69.982	-0.271	-0.104
-627.478	-119.267	0.332	0.058
-626.463	-184.187	-0.357	-0.006
-625.449	-200.000	-0.045	-0.409
-624.434	-200.000	0.006	-0.175
-623.419	135.444	0.197	0.258
-622.405	112.049	-0.071	0.087
-621.390	289.080	-0.099	-0.181
-620.376	-119.549	-0.235	0.041
-619.361	46.228	0.044	-0.041
-618.346	117.429	0.071	0.088
-617.332	64.310	-0.067	-0.068
-616.317	-51.947	-0.220	-0.103
-615.303	53.243	-0.246	-0.236
-614.288	89.488	-0.018	-0.021
-613.273	-14.969	0.197	0.127
-612.259	120.786	0.050	-0.062
-611.244	-200.000	0.007	-0.135
-610.230	131.585	-0.173	-0.224
-609.215	-87.927	0.087	-0.026
-608.201	399.196	-0.027	-0.057
-607.186	267.415	-0.122	-0.214
-606.171	342.462	0.140	-0.276
-605.157	348.589	-0.111	-0.219
-604.142	-15.122	0.165	0.106
-603.128	-65.782	0.133	-0.054
-602.113	800.000	0.035	-0.114
-601.098	20.716	0.154	0.125
-600.084	-200.000	-0.031	0.167
-599.069	-200.000	-0.065	0.371
-598.055	-115.946	0.219	-0.041
-597.040	44.806	-0.249	-0.230
-596.025	33.998	0.166	0.145
-595.011	-200.000	0.016	0.083
-593.996	-200.000	0.061	-0.451
-592.982	189.970	-0.239	0.360
-591.967	-26.509	0.026	0.015
-590.952	-200.000	0.042	-0.275
-589.938	-13.724	-0.164	0.107
-588.923	-26.088	0.017	0.010
-587.909	524.570	0.079	0.186
-586.894	-53.248	0.296	-0.136
-585.879	-65.715	0.035	0.014
-584.865	-35.064	0.151	-0.083
-583.850	-147.466	-0.268	-0.023
-582.836	309.717	0.084	-0.158
-581.821	738.412	-0.051	-0.139
-580.806	-51.211	-0.259	-0.122
-579.792	172.007	-0.182	0.263
-578.777	-50.254	0.131	-0.062
-577.763	-68.292	-0.094	0.037
-576.748	-200.000	0.012	0.193
-575.733	-94.995	0.290	0.079
-574.719	-4.595	-0.132	-0.091
-573.704	-200.000	0.035	-0.198
-572.690	800.000	-0.034	0.137
-571.675	24.285	-0.115	-0.095
-570.661	163.315	-0.171	-0.241
-569.646	-200.000	-0.044	-0.245
-568.631	55.703	0.277	-0.269
-567.617	764.731	0.072	-0.197
-566.602	121.071	0.144	0.180
-565.588	81.230	-0.122	-0.132
-564.573	800.000	-0.114	0.468
-563.558	109.049	-0.188	0.225
-562.544	800.000	0.071	0.234
-561.529	241.864	0.159	-0.266
-560.515	-12.941	-0.043	0.028
-559.500	-22.080	0.162	-0.098
-558.485	73.551	-0.195	0.204
-557.471	503.901	-0.117	-0.271
-556.456	-53.671	0.187	-0.085
-555.442	223.914	0.104	0.169
-554.427	-114.465	0.110	0.021
-553.412	800.000	0.155	-0.459
-552.398	-70.980	0.094	0.036
-551.383	800.000	0.129	-0.366
-550.369	-200.000	0.092	0.404
-549.354	-31.446	0.138	-0.078
-548.339	-78.150	-0.152	0.052
-547.325	4.409	-0.121	-0.089
-546.310	-119.821	0.479	0.083
-545.296	-99.474	-0.308	0.078
-544.281	732.710	-0.040	-0.108
-543.266	351.283	-0.250	-0.495
-542.252	-115.759	0.038	0.007
-541.237	-200.000	-0.045	0.318
-540.223	-200.000	0.008	0.118
-539.208	33.918	-0.171	-0.149
-538.193	-119.027	0.343	-0.060
-537.179	124.190	0.052	0.066
-536.164	-83.043	-0.330	-0.107
-535.150	35.106	0.073	0.064
-534.135	-95.380	0.247	-0.066
-533.121	-130.710	-0.339	-0.046
-532.106	133.775	-0.089	0.115
-531.091	54.749	0.275	0.266
-530.077	159.832	0.093	0.130
-529.062	-200.000	-0.010	-0.152
-528.048	-105.451	-0.085	0.019
-527.033	128.630	-0.170	-0.216
-526.018	113.893	0.176	0.214
-525.004	-200.000	0.003	0.209
-523.989	-200.000	0.018	-0.428
-522.975	-200.000	0.077	0.344
-521.960	-116.367	0.063	-0.012
-520.945	237.249	-0.102	-0.170
-519.931	800.000	0.028	0.087
-518.916	-200.000	0.002	-0.146
-517.902	800.000	0.012	-0.046
-516.887	-200.000	0.041	0.293
-515.872	800.000	0.085	0.301
-514.858	191.458	0.242	-0.364
-513.843	-48.609	-0.149	0.071
-512.829	-147.157	-0.125	0.011
-511.814	5.662	0.148	-0.109
-510.799	-176.927	-0.388	0.010
-509.785	-200.000	-0.030	0.138
-508.770	-61.484	0.207	-0.087
-507.756	-152.416	-0.255	0.018
-506.741	-200.000	-0.017	0.090
-505.726	-194.064	-0.219	-0.002
-504.712	-71.855	0.062	0.023
-503.697	-56.500	0.281	-0.125
-502.683	252.124	-0.052	0.088
-501.668	-200.000	-0.019	0.155
-500.653	38.887	0.220	-0.197
-499.639	-26.594	0.067	0.039
-498.624	-34.030	-0.098	0.054
-497.610	560.612	-0.097	-0.235
-496.595	74.683	0.109	0.115
-495.581	190.253	0.133	0.200
-494.566	8.607	-0.064	0.048
-493.551	800.000	0.117	-0.464
-492.537	-132.338	-0.184	0.024
-491.522	-99.476	-0.305	0.077
-490.508	-200.000	-0.010	0.096
-489.493	253.396	-0.095	-0.163
-488.478	578.689	-0.077	0.188
-487.464	-200.000	-0.009	-0.062
-486.449	30.602	-0.111	0.095
-485.435	-49.564	-0.204	-0.097
-484.420	-200.000	-0.014	0.199
-483.405	42.892	0.173	0.157
-482.391	-131.780	0.104	0.014
-481.376	-109.756	-0.175	-0.037
-480.362	-0.078	0.343	0.244
-479.347	53.064	-0.217	0.208
-478.332	296.122	0.211	-0.385
-477.318	-96.887	-0.048	-0.013
-476.303	-61.927	0.217	0.091
-475.289	69.355	-0.009	0.010
-474.274	730.038	-0.081	0.217
-473.259	-35.112	0.213	0.116
-472.245	-200.000	-0.001	0.139
-471.230	-200.000	-0.015	-0.206
-470.216	-81.671	0.529	0.173
-469.201	-200.000	-0.041	-0.231
-468.186	334.809	0.121	-0.234
-467.172	-200.000	-0.005	-0.030
-466.157	800.000	-0.095	-0.309
-465.143	-200.000	-0.029	-0.239
-464.128	115.830	-0.129	-0.158
-463.113	63.150	-0.159	-0.159
-462.099	16.676	-0.389	-0.307
-461.084	-200.000	0.025	0.195
-460.070	-23.166	-0.062	-0.037
-459.055	-3.228	-0.207	0.144
-458.040	-200.000	-0.015	0.169
-457.026	-184.773	-0.566	0.009
-456.011	47.923	0.136	0.126
-454.997	800.000	-0.058	0.180
-453.982	146.471	0.078	-0.104
-452.968	-5.265	-0.176	-0.121
-451.953	176.434	0.164	-0.237
-450.938	17.148	-0.248	-0.196
-449.924	43.709	-0.270	0.246
-448.909	8.661	-0.016	-0.012
-447.895	-10.131	0.081	-0.054
-446.880	96.754	-0.256	0.293
-445.865	376.626	0.046	-0.093
-444.851	172.690	-0.014	-0.020
-443.836	168.465	-0.215	-0.305
-442.822	-200.000	-0.487	0.002
-441.807	272.739	-0.102	-0.180
-440.792	800.000	-0.056	0.201
-439.778	-200.000	-0.005	0.067
-438.763	302.349	-0.084	-0.155
-437.749	169.736	-0.053	0.075
-436.734	85.520	0.137	-0.150
-435.719	-200.000	0.025	-0.184
-434.705	165.989	0.207	0.292
-433.690	495.435	0.127	0.290
-432.676	71.580	0.004	0.004
-431.661	-47.321	-0.052	0.025
-430.646	-200.000	-0.028	-0.286
-429.632	664.483	-0.064	0.165
-428.617	4.595	-0.377	-0.276
-427.603	119.420	-0.282	0.348
-426.588	107.557	-0.059	-0.070
-425.573	800.000	-0.045	0.175
-424.559	-80.743	0.299	0.099
-423.544	644.699	-0.035	0.088
-422.530	-157.839	-0.133	0.008
-421.515	102.911	-0.221	0.258
-420.500	800.000	0.089	0.352
-419.486	-106.426	-0.295	-0.066
-418.471	387.152	0.096	-0.197
-417.457	36.633	-0.109	0.096
-416.442	800.000	-0.105	-0.338
-415.428	86.826	-0.311	0.342
-414.413	178.907	-0.110	-0.161
-413.398	582.274	0.109	0.266
-412.384	-51.867	-0.164	-0.076
-411.369	371.468	0.140	0.282
-410.355	48.646	0.221	-0.207
-409.340	-200.000	0.024	0.287
-408.325	800.000	-0.081	-0.253
-407.311	149.805	0.195	0.263
-406.296	13.755	0.251	-0.194
-405.282	77.355	-0.207	0.219
-404.267	-200.000	-0.068	-0.394
-403.252	-108.153	0.194	-0.042
-402.238	-103.045	0.203	0.048
-401.223	97.992	0.119	-0.136
-400.209	-200.000	-0.066	0.318
-399.194	-80.555	0.371	-0.123
-398.179	101.461	0.171	-0.198
-397.165	-130.006	-0.268	-0.036
-396.150	800.000	-0.057	-0.175
-395.136	240.240	-0.018	-0.030
-394.121	-18.693	-0.299	-0.185
-393.106	-157.169	-0.356	-0.022
-392.092	-117.535	0.326	-0.059
-391.077	-200.000	-0.012	-0.167
-390.063	-200.000	-0.012	0.134
-389.048	149.577	-0.044	0.059
-388.033	104.187	0.031	0.036
-387.019	-191.731	0.393	-0.004
-386.004	-200.000	0.030	-0.191
-384.990	-39.467	0.395	0.206
-383.975	172.861	0.246	0.353
-382.960	-78.760	0.255	0.087
-381.946	-174.464	0.318	-0.009
-380.931	-101.973	0.233	-0.056
-379.917	-165.302	-0.247	0.011
-378.902	-114.467	-0.530	0.101
-377.888	195.460	-0.207	0.313
-376.873	-11.339	-0.282	-0.184
-375.858	669.901	0.044	0.113
-374.844	-15.195	-0.392	0.249
-373.829	-82.085	-0.317	0.103
-372.815	-111.370	0.257	0.052
-371.800	-200.000	0.028	-0.342
-370.785	15.738	0.027	-0.021
-369.771	-200.000	0.311	-0.001
-368.756	174.636	0.177	-0.255
-367.742	-119.109	-0.285	-0.050
-366.727	-200.000	-0.000	-0.035
-365.712	714.619	-0.077	0.204
-364.698	-200.000	-0.012	-0.204
-363.683	-88.993	-0.242	-0.071
-362.669	308.473	-0.065	-0.121
-361.654	-164.231	-0.119	0.005
-360.639	-10.566	-0.131	-0.086
-359.625	62.753	-0.374	0.372
-358.610	-200.000	0.002	0.370
-357.596	-200.000	0.012	0.128
-356.581	800.000	0.124	-0.360
-355.566	-153.342	0.162	0.011
-354.552	-136.282	0.315	-0.036
-353.537	80.810	0.075	-0.080
-352.523	118.021	0.155	0.190
-351.508	-166.609	0.130	-0.005
-350.493	-132.610	-0.244	-0.031
-349.479	800.000	-0.022	0.087
-348.464	-200.000	0.007	0.153
-347.450	-200.000	-0.040	-0.187
-346.435	222.204	-0.037	0.059
-345.420	54.799	-0.163	0.156
-344.406	63.744	0.146	0.146
-343.391	-40.129	0.125	0.065
-342.377	-200.000	-0.014	0.142
-341.362	-73.791	-0.240	0.087
-340.348	54.288	0.108	0.104
-339.333	-55.176	0.264	0.118
-338.318	800.000	0.124	-0.466
-337.304	151.151	0.205	0.278
-336.289	-200.000	-0.008	0.179
-335.275	-166.781	0.180	0.007
-334.260	-151.947	0.223	-0.016
-333.245	-200.000	-0.030	0.372
-332.231	-5.382	-0.121	-0.083
-331.216	-111.447	0.171	0.035
-330.202	-37.227	-0.143	0.076
-329.187	-6.651	0.178	0.120
-328.172	-200.000	0.019	-0.164
-327.158	800.000	-0.032	-0.129
-326.143	-64.414	0.162	-0.065
-325.129	-117.529	-0.062	0.011
-324.114	90.308	0.173	0.192
-323.099	800.000	0.038	0.157
-322.085	360.977	-0.045	0.089
-321.070	-76.725	-0.156	-0.054
-320.056	-200.000	-0.008	0.091
-319.041	374.498	-0.049	-0.099
-318.026	51.182	0.348	-0.328
-317.012	169.199	0.042	-0.060
-315.997	-17.359	0.039	-0.024
-314.983	38.382	0.186	-0.164
-313.968	7.585	0.082	0.061
-312.953	-60.248	0.129	-0.055
-311.939	-3.256	0.035	-0.024
-310.924	800.000	0.035	-0.102
-309.910	800.000	-0.089	-0.339
-308.895	277.423	0.207	0.365
-307.880	207.158	0.085	0.132
-306.866	800.000	0.092	0.254
-305.851	-134.048	-0.248	0.030
-304.837	143.491	0.235	-0.311
-303.822	-59.720	0.167	0.071
-302.807	-31.662	-0.139	0.077
-301.793	211.566	-0.143	-0.223
-300.778	245.161	0.157	-0.263
-299.764	102.521	0.188	0.218
-298.749	-28.684	-0.139	0.079
-297.735	-200.000	0.048	0.238
-296.720	6.777	0.159	0.118
-295.705	800.000	-0.086	0.366
-294.691	-64.793	-0.409	-0.164
-293.676	-10.277	-0.206	0.136
-292.662	58.878	-0.058	-0.057
-291.647	-200.000	0.085	-0.450
-290.632	-64.467	0.363	-0.146
-289.618	-200.000	0.007	0.134
-288.603	60.860	-0.082	0.081
-287.589	-200.000	-0.001	-0.255
-286.574	8.870	-0.311	-0.232
-285.559	800.000	-0.080	-0.263
-284.545	-101.740	0.181	0.043
-283.530	-106.597	0.202	0.044
-282.516	591.224	-0.078	0.191
-281.501	-172.719	-0.096	-0.003
-280.486	-156.139	0.422	0.026
-279.472	-200.000	0.051	-0.336
-278.457	36.079	-0.037	-0.032
-277.443	-151.778	0.037	0.003
-276.428	267.719	-0.110	0.191
-275.413	-176.636	0.386	-0.010
-274.399	-63.605	0.152	-0.062
-273.384	365.269	-0.077	-0.154
-272.370	-24.324	0.075	0.044
-271.355	-83.760	-0.186	0.059
-270.340	438.936	-0.029	0.063
-269.326	-137.620	-0.116	-0.013
-268.311	294.759	0.090	0.163
-267.297	-125.800	-0.175	-0.026
-266.282	-200.000	0.029	-0.240
-265.267	-200.000	0.039	0.183
-264.253	-200.000	-0.001	-0.079
-263.238	-143.974	0.051	-0.005
-262.224	78.143	-0.049	0.052
-261.209	-200.000	-0.002	0.090
-260.195	-200.000	0.003	-0.051
-259.180	-170.615	-0.129	0.004
-258.165	-43.698	0.125	-0.062
-257.151	45.648	0.134	-0.122
-256.136	-200.000	-0.032	-0.339
-255.122	-42.283	-0.298	0.151
-254.107	236.663	-0.021	-0.034
-253.092	-77.834	0.271	0.093
-252.078	72.393	-0.052	-0.054
-251.063	-200.000	0.043	0.203
-250.049	-100.156	0.355	-0.087
-249.034	-152.579	0.249	-0.018
-248.019	-90.163	-0.202	0.058
-247.005	-200.000	0.031	0.343
-245.990	-200.000	0.045	0.589
-244.976	4.305	-0.083	-0.060
-243.961	-200.000	-0.021	0.108
-242.946	109.433	-0.099	0.117
-241.932	2.405	-0.070	0.050
-240.917	800.000	-0.036	0.112
-239.903	-142.499	-0.448	0.044
-238.888	800.000	0.081	-0.303
-237.873	172.442	0.176	0.251
-236.859	-99.830	0.131	-0.032
-235.844	-22.343	0.046	0.028
-234.830	-38.769	0.031	-0.016
-233.815	-200.000	0.004	-0.066
-232.800	-98.664	-0.126	0.032
-231.786	538.071	0.105	0.246
-230.771	-104.234	-0.300	0.069
-229.757	0.532	-0.244	-0.172
-228.742	645.751	0.048	0.122
-227.727	-99.338	0.256	0.064
-226.713	-6.503	-0.127	-0.086
-225.698	-200.000	0.298	0.001
-224.684	-200.000	0.017	-0.183
-223.669	-57.503	-0.111	-0.048
-222.655	-134.851	0.140	0.017
-221.640	-92.673	-0.135	-0.037
-220.625	277.259	-0.135	-0.238
-219.611	87.522	0.201	-0.220
-218.596	-200.000	-0.034	0.400
-217.582	590.006	-0.035	0.086
-216.567	-122.360	0.309	-0.050
-215.552	51.920	0.139	0.131
-214.538	-200.000	-0.011	0.399
-213.523	800.000	-0.044	0.152
-212.509	187.938	-0.169	0.249
-211.494	800.000	-0.066	0.240
-210.479	134.811	0.145	-0.186
-209.465	-58.887	-0.061	0.026
-208.450	-37.746	0.264	0.139
-207.436	-21.114	0.207	0.125
-206.421	-10.282	0.102	0.067
-205.406	-200.000	-0.074	-0.357
-204.392	800.000	-0.065	0.235
-203.377	10.854	-0.146	-0.110
-202.363	800.000	-0.049	0.137
-201.348	177.159	-0.150	-0.216
-200.333	-16.106	-0.027	-0.017
-199.319	712.590	-0.172	-0.451
-198.304	-104.182	0.272	-0.062
-197.290	-200.000	0.001	0.225
-196.275	147.539	-0.176	-0.234
-195.260	32.111	0.370	0.316
-194.246	-34.384	-0.098	-0.053
-193.231	208.819	0.045	-0.069
-192.217	16.508	0.249	-0.194
-191.202	-118.240	-0.160	-0.028
-190.187	800.000	0.114	-0.412
-189.173	800.000	-0.107	0.351
-188.158	-71.180	-0.306	0.113
-187.144	116.354	0.205	0.248
-186.129	-33.209	0.079	-0.043
-185.114	-10.979	-0.162	0.106
-184.100	122.900	-0.144	-0.178
-183.085	-178.981	0.155	-0.003
-182.071	-118.094	-0.297	0.052
-181.056	-46.323	-0.028	-0.014
-180.042	800.000	-0.041	0.126
-179.027	86.344	0.162	0.176
-178.012	-162.957	-0.461	0.022
-176.998	-78.205	-0.355	-0.120
-175.983	-6.294	-0.226	-0.152
-174.969	37.515	-0.270	0.236
-173.954	-161.165	0.372	0.019
-172.939	-200.000	0.015	-0.126
-171.925	800.000	-0.070	-0.214
-170.910	-88.070	-0.155	-0.046
-169.896	35.087	-0.072	0.063
-168.881	151.786	-0.094	0.126
-167.866	83.572	-0.054	0.059
-166.852	-128.494	0.085	-0.012
-165.837	-19.388	0.374	0.229
-164.823	329.358	0.016	0.030
-163.808	-185.046	0.144	-0.002
-162.793	-200.000	0.003	-0.038
-161.779	162.216	-0.125	-0.174
-160.764	-31.362	-0.241	-0.134
-159.750	77.433	0.162	0.170
-158.735	-65.801	0.182	-0.072
-157.720	55.764	-0.281	0.268
-156.706	-76.053	0.177	0.062
-155.691	-18.855	-0.107	-0.066
-154.677	800.000	-0.074	0.279
-153.662	-189.559	0.468	-0.005
-152.647	800.000	0.064	-0.275
-151.633	-74.704	0.199	0.070
-150.618	-97.720	0.284	-0.072
-149.604	58.134	-0.092	-0.089
-148.589	49.722	0.159	0.148
-147.574	-74.363	-0.316	0.113
-146.560	-173.486	-0.154	0.005
-145.545	-175.710	0.162	0.004
-144.531	-108.639	-0.049	-0.010
-143.516	-21.870	-0.144	-0.086
-142.502	242.299	0.066	-0.109
-141.487	-150.655	-0.174	0.013
-140.472	-200.000	0.004	-0.155
-139.458	-56.117	-0.344	0.151
-138.443	-39.514	0.288	-0.148
-137.429	-200.000	-0.021	0.141
-136.414	-81.720	-0.249	0.080
-135.399	-73.913	0.162	-0.058
-134.385	800.000	0.053	0.163
-133.370	-8.240	0.087	0.058
-132.356	-166.251	0.220	0.009
-131.341	-160.689	-0.218	0.011
-130.326	-72.048	-0.195	0.071
-129.312	-65.234	0.149	-0.059
-128.297	-128.073	0.042	0.006
-127.283	-9.225	0.169	-0.112
-126.268	-42.472	-0.150	0.075
-125.253	55.719	0.192	0.184
-124.239	-57.047	-0.081	-0.035
-123.224	523.779	0.176	-0.407
-122.210	-199.436	0.455	0.002
-121.195	227.949	0.239	0.384
-120.180	-153.589	-0.125	-0.008
-119.166	-200.000	0.054	0.352
-118.151	184.514	-0.027	-0.039
-117.137	32.178	-0.125	0.106
-116.122	13.106	0.156	-0.119
-115.107	286.032	-0.059	0.104
-114.093	-24.926	0.210	0.122
-113.078	39.330	0.026	-0.023
-112.064	-72.618	0.111	0.040
-111.049	393.856	-0.103	-0.210
-110.034	112.908	-0.129	0.154
-109.020	-31.522	0.227	-0.126
-108.005	-60.125	0.312	0.131
-106.991	-200.000	0.010	-0.073
-105.976	161.804	0.143	-0.197
-104.962	787.235	-0.017	-0.046
-103.947	-96.186	-0.100	0.026
-102.932	-71.741	-0.282	0.104
-101.918	133.839	0.119	0.152
-100.903	-183.150	0.120	-0.002
-99.889	-42.228	0.172	0.086
-98.874	14.366	-0.176	-0.135
-97.859	515.788	-0.040	0.092
-96.845	800.000	0.147	0.480
-95.830	16.001	0.053	-0.041
-94.816	110.838	0.045	0.054
-93.801	4.868	0.155	-0.112
-92.786	-84.364	0.062	0.019
-91.772	-112.129	0.080	-0.016
-90.757	131.343	-0.008	0.011
-89.743	-144.292	-0.124	0.011
-88.728	-47.570	0.213	0.102
-87.713	-200.000	-0.014	-0.211
-86.699	800.000	0.082	0.242
-85.684	46.258	0.122	-0.111
-84.670	81.417	0.061	0.065
-83.655	-41.228	0.210	-0.106
-82.640	187.771	-0.053	0.078
-81.626	-185.161	0.370	-0.006
-80.611	-85.921	0.126	-0.038
-79.597	711.440	-0.043	0.111
-78.582	272.594	0.093	0.161
-77.567	800.000	0.066	-0.192
-76.553	226.000	-0.144	-0.230
-75.538	377.580	0.144	-0.289
-74.524	760.938	-0.084	-0.223
-73.509	21.663	-0.171	0.137
-72.494	531.583	0.030	0.070
-71.480	221.142	0.230	0.364
-70.465	800.000	0.134	0.470
-69.451	-104.289	0.072	0.016
-68.436	-117.758	-0.137	0.024
-67.422	430.559	-0.061	-0.129
-66.407	-200.000	-0.011	-0.075
-65.392	-200.000	0.001	0.041
-64.378	82.108	-0.320	0.341
-63.363	-169.533	0.303	-0.011
-62.349	11.979	0.022	0.017
-61.334	104.350	-0.998	-1.154
-60.319	179.036	0.299	0.430
-59.305	800.000	-0.301	-1.003
-58.290	102.990	1.044	1.201
-57.276	274.273	0.632	1.099
-56.261	-200.000	103.709	564.901
-55.246	454.244	1459.836	3176.665
-54.232	147.227	2657.797	3513.943
-53.217	99.948	2303.669	2622.487
-52.203	39.003	1914.198	1680.693
-51.188	33.117	1701.972	1449.334
-50.173	30.543	1658.299	1392.833
-49.159	48.338	1709.691	1571.867
-48.144	48.835	1725.947	1590.534
-47.130	32.725	1684.528	1431.279
-46.115	30.112	1669.832	1399.043
-45.100	29.919	1664.918	1393.418
-44.086	29.866	1662.433	1390.886
-43.071	29.744	1660.026	1387.899
-42.057	29.824	1657.404	1386.250
-41.042	29.755	1655.418	1384.023
-40.027	29.893	1653.818	1383.659
-39.013	29.856	1651.646	1381.511
-37.998	29.801	1649.908	1379.593
-36.984	29.795	1648.832	1378.594
-35.969	29.928	1647.167	1378.140
-34.954	30.006	1645.809	1377.528
-33.940	29.938	1643.991	1375.442
-32.925	29.942	1642.122	1373.857
-31.911	29.919	1640.429	1372.216
-30.896	29.935	1638.145	1370.370
-29.881	29.909	1636.451	1368.701
-28.867	29.878	1635.675	1367.773
-27.852	29.861	1634.253	1366.401
-26.838	29.976	1632.158	1365.448
-25.823	29.953	1631.158	1364.383
-24.809	29.897	1629.809	1362.790
-23.794	29.999	1628.264	1362.194
-22.779	29.915	1627.047	1360.501
-21.765	29.932	1625.092	1358.942
-20.750	29.932	1623.690	1357.711
-19.736	29.963	1622.176	1356.624
-18.721	30.060	1620.255	1355.669
-17.706	29.977	1619.082	1354.030
-16.692	29.948	1617.636	1352.553
-15.677	29.999	1616.270	1351.731
-14.663	29.980	1615.432	1350.840
-13.648	29.988	1613.883	1349.548
-12.633	29.927	1612.239	1347.676
-11.619	29.924	1610.649	1346.269
-10.604	30.000	1608.948	1345.350
-9.590	30.007	1607.359	1344.018
-8.575	30.049	1606.620	1343.649
-7.560	29.963	1605.618	1342.132
-6.546	29.919	1604.654	1340.959
-5.531	30.033	1603.287	1340.584
-4.517	29.955	1602.204	1339.062
-3.502	29.901	1601.226	1337.806
-2.487	29.982	1599.163	1336.613
-1.473	29.791	1587.664	1325.580
-0.458	27.199	1568.301	1290.982
0.556	21.897	1569.556	1259.264
1.571	19.491	1593.717	1260.975
2.586	19.127	1607.059	1268.743
3.600	17.635	1554.709	1216.657
4.615	9.965	1443.136	1078.225
5.629	1.893	1377.701	977.640
6.644	0.309	1369.490	961.626
7.659	0.167	1368.066	959.638
8.673	0.191	1366.764	958.789
9.688	-0.026	1365.334	956.321
10.702	-0.057	1362.294	953.910
11.717	3.751	1368.552	982.453
12.731	12.327	1382.083	1046.953
13.746	17.300	1388.116	1083.195
14.761	17.151	1387.288	1081.500
15.775	16.308	1383.709	1073.258
16.790	15.268	1380.984	1064.450
17.804	14.477	1379.099	1057.885
18.819	14.183	1377.850	1054.972
19.834	13.858	1376.257	1051.596
20.848	13.507	1375.561	1048.755
21.863	13.355	1374.185	1046.650
22.877	13.265	1372.772	1044.909
23.892	13.060	1372.127	1043.035
24.907	13.088	1371.257	1042.456
25.921	13.168	1370.338	1042.166
26.936	13.106	1369.255	1040.861
27.950	13.253	1368.589	1041.192
28.965	13.129	1367.685	1039.627
29.980	13.295	1366.436	1039.633
30.994	13.311	1365.945	1039.268
32.009	13.353	1364.939	1038.671
33.023	13.350	1363.800	1037.695
34.038	13.343	1362.494	1036.565
35.053	13.303	1361.527	1035.487
36.067	13.391	1360.349	1035.053
37.082	13.354	1359.350	1033.967
38.096	13.377	1358.413	1033.306
39.111	13.342	1357.805	1032.535
40.126	13.263	1357.074	1031.395
41.140	13.174	1356.087	1029.998
42.155	13.172	1355.804	1029.682
43.169	13.144	1355.590	1029.250
44.184	13.145	1355.486	1029.086
45.199	13.094	1354.867	1028.209
46.213	13.171	1354.208	1028.101
47.228	13.298	1353.101	1027.955
48.242	13.296	1351.987	1027.008
49.257	13.238	1350.442	1025.380
50.271	13.307	1348.883	1024.537
51.286	13.277	1347.782	1023.426
52.301	13.256	1346.559	1022.276
53.315	13.130	1345.880	1020.892
54.330	13.190	1344.817	1020.364
55.344	13.262	1343.477	1019.701
56.359	13.112	1342.923	1018.262
57.374	13.118	1341.382	1017.044
58.388	13.145	1341.101	1016.906
59.403	13.170	1339.992	1016.131
60.417	13.124	1339.297	1015.227
61.432	13.086	1338.294	1014.149
62.447	12.992	1337.490	1012.870
63.461	12.975	1336.424	1011.871
64.476	13.067	1335.105	1011.343
65.490	13.136	1333.881	1010.751
66.505	12.987	1332.704	1008.861
67.520	13.130	1330.963	1008.324
68.534	13.118	1329.863	1007.330
69.549	13.032	1328.961	1006.033
70.563	13.107	1327.706	1005.448
71.578	13.066	1326.701	1004.352
72.593	12.904	1326.334	1003.001
73.607	12.938	1325.380	1002.394
74.622	12.998	1324.088	1001.691
75.636	13.096	1323.085	1001.439
76.651	12.965	1322.799	1000.337
77.666	12.981	1322.094	999.813
78.680	13.048	1321.411	999.616
79.695	13.044	1320.489	998.803
80.709	13.138	1319.747	998.726
81.724	13.118	1318.960	997.922
82.739	13.172	1318.056	997.474
83.753	13.186	1317.182	996.809
84.768	13.408	1315.588	996.850
85.782	13.304	1314.908	995.621
86.797	13.272	1313.336	994.151
87.812	13.248	1312.049	992.947
88.826	13.181	1311.041	991.695
89.841	13.302	1309.683	991.300
90.855	13.313	1308.993	990.761
91.870	13.387	1308.110	990.442
92.884	13.309	1307.444	989.385
93.899	13.244	1306.734	988.371
94.914	13.379	1305.289	987.997
95.928	13.307	1304.972	987.239
96.943	13.403	1303.667	986.743
97.957	13.417	1302.922	986.172
98.972	13.305	1302.122	984.812
99.987	13.373	1300.840	984.162
101.001	13.272	1300.044	982.871
102.016	13.364	1298.917	982.477
103.030	13.376	1298.023	981.787
104.045	13.362	1296.897	980.766
105.060	13.297	1296.090	979.681
106.074	13.115	1294.966	977.668
107.089	13.176	1293.138	976.560
108.103	13.170	1292.271	975.783
109.118	13.208	1290.815	974.827
110.133	13.205	1289.756	973.921
111.147	13.090	1288.394	972.129
112.162	13.181	1287.145	971.637
113.176	13.360	1285.886	971.653
114.191	13.326	1285.091	970.762
115.206	13.249	1284.290	969.623
116.220	13.285	1282.559	968.440
117.235	13.228	1281.699	967.373
118.249	13.189	1281.313	966.768
119.264	13.197	1279.474	965.340
120.279	13.187	1278.698	964.609
121.293	13.228	1277.584	963.924
122.308	13.248	1276.871	963.419
123.322	13.076	1276.040	961.706
124.337	13.130	1274.209	960.554
125.352	13.159	1273.480	960.087
126.366	13.215	1272.358	959.484
127.381	13.164	1271.796	958.679
128.395	13.142	1270.199	957.261
129.410	13.169	1269.594	956.875
130.424	13.310	1268.699	956.932
131.439	13.342	1267.196	955.900
132.454	13.290	1266.620	955.079
133.468	13.259	1265.769	954.176
134.483	13.219	1264.997	953.278
135.497	13.276	1263.586	952.457
136.512	13.314	1262.665	951.902
137.527	13.300	1261.144	950.586
138.541	13.300	1259.926	949.585
139.556	13.276	1258.396	948.212
140.570	13.366	1257.687	948.107
141.585	13.397	1256.107	947.014
142.600	13.419	1254.917	946.156
143.614	13.462	1254.042	945.659
144.629	13.434	1253.271	944.831
145.643	13.419	1251.894	943.626
146.658	13.429	1250.352	942.438
147.673	13.433	1248.968	941.335
148.687	13.413	1248.075	940.461
149.702	13.235	1246.948	938.517
150.716	13.374	1244.879	937.666
151.731	13.274	1244.338	936.612
152.746	13.358	1242.919	935.936
153.760	13.406	1241.485	935.047
154.775	13.494	1240.540	934.744
155.789	13.398	1239.881	933.624
156.804	13.449	1238.929	933.113
157.819	13.477	1237.605	932.193
158.833	13.446	1237.075	931.533
159.848	13.636	1235.762	931.530
160.862	13.508	1235.284	930.369
161.877	13.567	1233.466	929.252
162.892	13.374	1232.616	927.448
163.906	13.407	1231.968	927.058
164.921	13.551	1230.705	926.832
165.935	13.572	1229.900	926.263
166.950	13.519	1229.194	925.352
167.964	13.511	1228.253	924.519
168.979	13.481	1227.952	924.043
169.994	13.542	1227.043	923.615
171.008	13.566	1226.028	922.904
172.023	13.620	1225.312	922.583
173.037	13.649	1224.295	921.896
174.052	13.651	1223.603	921.305
175.067	13.733	1221.807	920.327
176.081	13.653	1221.601	919.646
177.096	13.577	1220.862	918.590
178.110	13.648	1219.654	917.993
179.125	13.540	1218.417	916.383
180.140	13.666	1217.094	916.005
181.154	13.641	1215.795	914.806
182.169	13.640	1214.940	914.077
183.183	13.695	1213.817	913.455
184.198	13.844	1212.482	913.188
185.213	13.818	1211.220	912.013
186.227	13.723	1210.373	910.773
187.242	13.886	1209.326	910.798
188.256	13.920	1208.084	909.969
189.271	13.879	1207.453	909.189
190.286	13.795	1206.408	907.864
191.300	13.656	1205.518	906.355
192.315	13.681	1204.900	905.943
193.329	13.642	1204.104	905.052
194.344	13.619	1203.750	904.582
195.359	13.696	1203.083	904.417
196.373	13.815	1202.551	904.590
197.388	13.865	1201.611	904.073
198.402	13.915	1201.397	904.102
199.417	13.894	1201.421	903.928
200.432	13.994	1199.844	903.206
201.446	14.059	1198.794	902.690
202.461	14.003	1197.906	901.637
203.475	14.141	1197.494	901.994
204.490	14.053	1195.781	900.148
205.504	13.979	1194.898	899.004
206.519	14.062	1193.347	898.207
207.534	13.995	1192.341	897.006
208.548	13.961	1191.799	896.335
209.563	13.984	1190.396	895.326
210.577	14.085	1189.900	895.420
211.592	14.056	1188.920	894.446
212.607	14.162	1187.801	894.091
213.621	14.204	1186.925	893.583
214.636	14.124	1186.024	892.394
215.650	14.160	1185.386	892.029
216.665	14.149	1184.596	891.295
217.680	14.227	1183.783	891.021
218.694	14.247	1182.782	890.296
219.709	14.300	1182.134	890.012
220.723	14.286	1181.164	889.131
221.738	14.133	1180.685	887.873
222.753	14.273	1179.472	887.627
223.767	14.264	1179.325	887.394
224.782	14.323	1178.462	886.980
225.796	14.368	1177.854	886.682
226.811	14.293	1177.491	885.929
227.826	14.371	1176.269	885.347
228.840	14.362	1175.688	884.787
229.855	14.461	1174.620	884.428
230.869	14.327	1174.396	883.473
231.884	14.387	1172.948	882.619
232.899	14.352	1172.333	881.897
233.913	14.379	1171.985	881.696
234.928	14.345	1171.070	880.753
235.942	14.413	1170.043	880.262
236.957	14.353	1169.612	879.543
237.972	14.315	1169.378	879.090
238.986	14.360	1168.328	878.459
240.001	14.410	1167.482	878.006
241.015	14.462	1166.298	877.313
242.030	14.510	1165.234	876.688
243.045	14.420	1164.878	875.868
244.059	14.490	1163.875	875.406
245.074	14.459	1163.469	874.860
246.088	14.347	1163.107	873.923
247.103	14.488	1162.111	873.836
248.117	14.554	1161.438	873.596
249.132	14.721	1160.288	873.530
250.147	14.723	1159.533	872.896
251.161	14.781	1158.901	872.643
252.176	14.839	1158.166	872.315
253.190	14.864	1157.560	871.912
254.205	14.899	1156.944	871.556
255.220	14.877	1156.232	870.824
256.234	14.922	1155.688	870.574
257.249	14.936	1154.763	869.873
258.263	14.857	1154.397	869.106
259.278	14.859	1153.836	868.622
260.293	14.929	1153.320	868.520
261.307	15.063	1152.318	868.384
262.322	14.988	1152.204	867.830
263.336	15.071	1151.128	867.373
264.351	15.098	1150.802	867.191
265.366	15.029	1150.166	866.275
266.380	15.064	1148.974	865.485
267.395	15.122	1148.385	865.261
268.409	14.985	1148.040	864.220
269.424	15.087	1146.851	863.772
270.439	15.027	1146.577	863.180
271.453	14.993	1146.055	862.538
272.468	15.106	1144.784	862.083
273.482	15.050	1144.407	861.436
274.497	15.113	1143.609	861.085
275.512	14.991	1143.001	859.925
276.526	15.113	1142.228	859.891
277.541	15.158	1141.425	859.444
278.555	15.147	1140.751	858.804
279.570	15.136	1139.848	857.991
280.585	15.193	1139.856	858.210
281.599	15.122	1138.497	856.751
282.614	15.206	1137.610	856.435
283.628	15.286	1136.314	855.795
284.643	15.181	1135.645	854.680
285.657	15.155	1134.878	853.893
286.672	15.264	1133.681	853.472
287.687	15.296	1132.660	852.792
288.701	15.268	1132.230	852.249
289.716	15.293	1131.283	851.585
290.730	15.337	1130.383	851.058
291.745	15.379	1130.047	850.942
292.760	15.447	1129.273	850.630
293.774	15.465	1128.688	850.201
294.789	15.444	1128.185	849.644
295.803	15.504	1127.190	849.122
296.818	15.373	1127.024	848.258
297.833	15.401	1125.871	847.460
298.847	15.375	1125.392	846.891
299.862	15.451	1124.577	846.586
300.876	15.473	1124.053	846.227
301.891	15.612	1122.907	845.992
302.906	15.578	1122.330	845.312
303.920	15.677	1121.608	845.190
304.935	15.639	1121.070	844.520
305.949	15.731	1120.317	844.338
306.964	15.772	1119.869	844.130
307.979	15.682	1119.249	843.138
308.993	15.706	1118.327	842.487
310.008	15.621	1117.095	841.058
311.022	15.691	1116.772	841.094
312.037	15.776	1115.764	840.685
313.052	15.653	1115.321	839.660
314.066	15.591	1114.224	838.451
315.081	15.627	1113.166	837.760
316.095	15.579	1112.803	837.174
317.110	15.646	1111.879	836.737
318.125	15.685	1111.040	836.229
319.139	15.709	1110.431	835.816
320.154	15.659	1109.721	834.961
321.168	15.683	1109.207	834.616
322.183	15.741	1108.581	834.358
323.197	15.785	1108.223	834.234
324.212	15.662	1107.611	833.092
325.227	15.784	1107.000	833.163
326.241	15.794	1106.115	832.473
327.256	15.837	1105.101	831.845
328.270	15.740	1104.607	830.924
329.285	15.773	1103.545	830.212
330.300	15.724	1103.088	829.554
331.314	15.933	1101.609	829.396
332.329	15.874	1101.060	828.618
333.343	15.986	1099.827	828.170
334.358	15.951	1099.143	827.412
335.373	15.822	1098.914	826.528
336.387	15.995	1097.822	826.484
337.402	15.858	1097.419	825.436
338.416	15.967	1096.621	825.295
339.431	15.932	1095.921	824.528
340.446	16.064	1095.051	824.442
341.460	16.113	1094.121	823.908
342.475	16.104	1093.390	823.242
343.489	16.098	1092.762	822.671
344.504	16.156	1091.731	822.100
345.519	16.179	1090.912	821.524
346.533	16.223	1090.052	821.021
347.548	16.289	1089.027	820.495
348.562	16.217	1088.614	819.762
349.577	16.247	1087.713	819.154
350.592	16.201	1086.770	818.148
351.606	16.073	1086.361	817.147
352.621	16.204	1085.402	816.989
353.635	16.165	1085.132	816.526
354.650	16.185	1084.396	815.998
355.665	16.194	1083.741	815.473
356.679	16.244	1082.868	814.985
357.694	16.247	1082.193	814.423
358.708	16.334	1081.662	814.371
359.723	16.307	1081.412	813.980
360.738	16.212	1080.699	812.911
361.752	16.305	1079.955	812.730
362.767	16.415	1079.072	812.523
363.781	16.438	1078.691	812.270
364.796	16.346	1077.993	811.235
365.810	16.524	1077.202	811.420
366.825	16.524	1076.822	811.062
367.840	16.543	1076.480	810.824
368.854	16.669	1075.645	810.727
369.869	16.610	1074.997	809.882
370.883	16.555	1074.329	809.046
371.898	16.607	1073.237	808.399
372.913	16.572	1072.746	807.794
373.927	16.581	1072.474	807.561
374.942	16.734	1071.368	807.386
375.956	16.691	1070.953	806.794
376.971	16.619	1070.840	806.295
377.986	16.697	1070.293	806.182
379.000	16.727	1069.819	805.899
380.015	16.695	1069.392	805.351
381.029	16.744	1068.294	804.690
382.044	16.724	1067.832	804.175
383.059	16.852	1067.057	804.126
384.073	16.828	1065.960	803.115
385.088	16.943	1065.004	802.868
386.102	16.936	1063.980	801.991
387.117	16.805	1063.337	800.819
388.132	16.766	1062.551	799.969
389.146	16.757	1061.710	799.224
390.161	16.714	1061.418	798.728
391.175	16.747	1060.457	798.092
392.190	16.789	1059.660	797.618
393.205	16.928	1058.790	797.547
394.219	16.875	1058.405	796.937
395.234	16.902	1056.818	795.800
396.248	16.875	1056.105	795.064
397.263	16.865	1055.192	794.263
398.278	16.996	1054.468	794.259
399.292	16.867	1054.013	793.243
400.307	16.859	1053.340	792.628
401.321	16.913	1052.474	792.158
402.336	16.943	1051.717	791.660
403.350	16.941	1051.065	791.086
404.365	16.922	1050.328	790.377
405.380	16.950	1050.184	790.329
406.394	17.066	1048.783	789.743
407.409	17.069	1048.270	789.302
408.423	17.156	1047.524	789.071
409.438	17.162	1046.675	788.392
410.453	17.212	1046.144	788.156
411.467	17.257	1045.109	787.513
412.482	17.243	1044.527	786.939
413.496	17.294	1043.837	786.586
414.511	17.245	1043.758	786.230
415.526	17.338	1043.140	786.126
416.540	17.337	1042.707	785.727
417.555	17.167	1042.262	784.537
418.569	17.351	1041.585	784.803
419.584	17.387	1041.019	784.475
420.599	17.488	1040.340	784.360
421.613	102.404	1321.843	1466.014
422.628	93.963	1362.840	1466.126
