DTS Sentinel unit serial number:	SN413079Multiplexer serial number:	ORYXHardware model number:	OX4-SRSoftware version number:	ORYX F/W v4.00 Oryx Data Collector v3.7.2.0data status	okinstallation	princeton_trtdifferential loss correction	single-endedforward channel	channel 2reverse channel	N/Adate	2019/09/14time	11:31:34forward acquisition time	60.00reverse acquisition time	0.00gamma	496.2192k internal	0.2311k external	0.2311temperature offset calibration	1.0154default loss term (dB/km)	0.3790temperature slope calibration	1.0000multiplexer offset coefficient	1.0000multiplexer slope coefficient	1.0000fibre end	0.00T internal ref (°C)	36.80T ext. ref 1 (°C)	4.55T ext. ref 2 (°C)	32.72length (m)	temperature (°C)	Stokes	anti-Stokes-747.200	-6.506	0.199	0.137
-746.185	162.946	-0.076	0.108
-745.171	181.625	0.032	-0.047
-744.156	105.254	-0.111	0.133
-743.142	38.094	0.240	0.216
-742.127	323.591	-0.073	-0.142
-741.112	-46.525	0.088	0.044
-740.098	-200.000	-0.099	0.538
-739.083	130.457	-0.204	0.265
-738.069	168.038	-0.226	0.326
-737.054	57.171	-0.097	0.096
-736.039	800.000	0.062	-0.264
-735.025	-8.757	0.163	0.111
-734.010	-200.000	-0.024	-0.328
-732.996	-114.082	-0.272	-0.053
-731.981	-151.367	-0.339	-0.026
-730.966	-200.000	0.010	-0.085
-729.952	-116.416	-0.376	-0.070
-728.937	610.603	-0.201	-0.509
-727.923	14.348	-0.264	-0.209
-726.908	-133.705	0.081	-0.010
-725.894	24.126	-0.189	-0.159
-724.879	-66.368	-0.473	-0.191
-723.864	-35.015	0.328	0.182
-722.850	20.480	-0.285	0.233
-721.835	-62.955	0.302	0.127
-720.821	-200.000	0.039	0.284
-719.806	277.156	0.113	-0.203
-718.791	-200.000	-0.026	-0.247
-717.777	-120.296	-0.317	-0.055
-716.762	-200.000	-0.017	-0.101
-715.748	-150.476	-0.139	-0.011
-714.733	156.888	-0.173	-0.243
-713.718	-101.681	0.230	-0.057
-712.704	-71.500	0.132	-0.050
-711.689	-88.587	0.131	0.039
-710.675	-0.927	0.235	0.168
-709.660	-158.563	-0.251	0.015
-708.645	12.060	0.046	-0.036
-707.631	95.963	0.137	0.159
-706.616	-29.754	-0.120	0.069
-705.602	48.508	-0.181	-0.172
-704.587	-68.519	0.135	-0.053
-703.572	631.310	0.041	-0.104
-702.558	-105.529	0.273	-0.063
-701.543	-125.790	0.025	0.004
-700.529	-200.000	0.031	0.279
-699.514	4.335	0.099	-0.073
-698.499	209.746	-0.188	-0.298
-697.485	-50.837	0.182	0.087
-696.470	-95.225	-0.087	-0.024
-695.456	46.588	-0.069	-0.065
-694.441	517.350	-0.028	0.066
-693.426	-47.074	0.158	0.078
-692.412	-1.737	0.252	-0.180
-691.397	-71.983	0.373	-0.140
-690.383	-200.000	-0.016	0.130
-689.368	349.119	-0.095	-0.190
-688.354	-31.573	0.437	0.249
-687.339	74.052	-0.192	-0.204
-686.324	-200.000	0.005	0.139
-685.310	-20.334	-0.280	-0.174
-684.295	-200.000	-0.008	0.045
-683.281	-170.309	0.195	-0.007
-682.266	-200.000	0.010	0.327
-681.251	-1.791	0.298	-0.213
-680.237	44.999	-0.091	0.085
-679.222	-153.358	0.192	0.014
-678.208	-189.046	0.461	-0.006
-677.193	800.000	-0.093	0.296
-676.178	-131.710	-0.135	0.018
-675.164	-200.000	-0.036	-0.165
-674.149	-0.722	-0.379	0.272
-673.135	2.021	0.154	0.113
-672.120	520.876	-0.109	-0.260
-671.105	-55.151	-0.046	-0.021
-670.091	-154.519	0.374	-0.025
-669.076	800.000	0.049	-0.205
-668.062	-75.748	-0.200	0.072
-667.047	289.098	0.160	0.293
-666.032	-64.663	0.244	-0.100
-665.018	48.289	-0.024	0.023
-664.003	-200.000	0.014	-0.107
-662.989	-158.511	0.365	-0.021
-661.974	-200.000	0.056	0.317
-660.959	-21.137	-0.269	-0.167
-659.945	2.010	-0.271	0.198
-658.930	80.978	-0.148	-0.161
-657.916	-179.334	0.356	-0.008
-656.901	293.658	-0.063	-0.117
-655.886	6.248	-0.122	-0.092
-654.872	77.659	0.107	-0.115
-653.857	800.000	0.082	-0.259
-652.843	-66.786	-0.211	-0.084
-651.828	194.551	-0.230	-0.353
-650.814	-21.904	0.147	0.090
-649.799	181.132	-0.104	-0.155
-648.784	-161.052	0.341	-0.018
-647.770	683.857	-0.122	-0.323
-646.755	-182.110	-0.297	0.006
-645.741	157.806	0.114	0.160
-644.726	-200.000	-0.013	-0.468
-643.711	-80.148	-0.197	-0.067
-642.697	-200.000	0.050	-0.268
-641.682	-135.520	-0.188	-0.023
-640.668	-133.908	0.159	-0.020
-639.653	-110.221	-0.122	-0.026
-638.638	-200.000	-0.005	-0.458
-637.624	133.567	0.237	0.310
-636.609	458.986	0.104	0.233
-635.595	-121.567	0.080	-0.013
-634.580	-2.664	0.156	0.110
-633.565	-22.607	0.136	-0.083
-632.551	-200.000	-0.008	0.066
-631.536	800.000	-0.097	-0.385
-630.522	146.615	-0.062	0.083
-629.507	-150.585	-0.061	-0.005
-628.492	-200.000	0.050	0.224
-627.478	-200.000	0.002	-0.397
-626.463	-130.108	0.177	-0.024
-625.449	-20.191	0.106	0.066
-624.434	-170.925	0.210	-0.007
-623.419	647.429	-0.091	0.236
-622.405	30.387	-0.229	-0.198
-621.390	68.020	0.120	0.124
-620.376	-35.170	-0.142	-0.078
-619.361	232.012	-0.153	-0.253
-618.346	-200.000	0.007	0.110
-617.332	260.220	0.156	0.272
-616.317	42.314	-0.138	0.127
-615.303	610.707	-0.027	-0.069
-614.288	122.367	-0.042	0.053
-613.273	-200.000	-0.002	-0.206
-612.259	52.742	-0.071	-0.069
-611.244	395.514	-0.083	-0.176
-610.230	33.039	0.399	-0.349
-609.215	262.586	-0.140	0.245
-608.201	480.004	0.082	-0.188
-607.186	-189.185	0.355	-0.004
-606.171	-59.381	-0.210	0.091
-605.157	-35.205	-0.025	-0.014
-604.142	-200.000	-0.031	0.398
-603.128	206.390	-0.029	-0.045
-602.113	180.531	0.177	0.263
-601.098	-27.123	-0.090	-0.053
-600.084	800.000	-0.026	0.080
-599.069	-52.745	0.203	-0.094
-598.055	79.890	-0.243	-0.263
-597.040	177.540	-0.131	-0.192
-596.025	-103.327	-0.297	-0.071
-595.011	6.859	-0.255	-0.192
-593.996	181.734	-0.082	-0.122
-592.982	-173.477	-0.123	0.004
-591.967	337.301	0.165	0.324
-590.952	-122.101	0.199	0.033
-589.938	-147.168	-0.138	-0.012
-588.923	-151.839	-0.421	-0.031
-587.909	-107.515	-0.449	0.099
-586.894	24.843	-0.036	0.030
-585.879	54.241	-0.309	-0.300
-584.865	-101.646	-0.270	0.066
-583.850	800.000	-0.064	-0.244
-582.836	-157.784	0.241	0.014
-581.821	800.000	-0.041	-0.139
-580.806	17.547	-0.320	0.257
-579.792	276.940	-0.076	0.137
-578.777	-42.062	0.020	-0.010
-577.763	800.000	0.063	0.265
-576.748	490.814	-0.040	0.092
-575.733	-73.906	-0.200	0.073
-574.719	-33.981	-0.044	-0.024
-573.704	-200.000	-0.020	-0.091
-572.690	118.326	0.124	-0.154
-571.675	-62.883	-0.168	0.070
-570.661	-103.201	-0.193	-0.046
-569.646	46.579	0.136	0.128
-568.631	-84.555	0.239	0.076
-567.617	-200.000	-0.007	0.160
-566.602	80.736	0.206	-0.224
-565.588	-56.224	-0.125	-0.056
-564.573	467.771	0.170	-0.383
-563.558	-64.677	-0.191	-0.078
-562.544	-65.627	0.237	0.096
-561.529	62.864	-0.111	0.112
-560.515	-72.147	-0.210	-0.078
-559.500	120.154	0.127	0.159
-558.485	530.348	-0.087	-0.208
-557.471	-74.267	-0.368	-0.134
-556.456	-9.954	-0.226	-0.151
-555.442	-200.000	-0.002	-0.139
-554.427	-61.631	-0.348	-0.147
-553.412	-200.000	-0.012	0.108
-552.398	748.460	0.021	0.058
-551.383	-200.000	0.001	-0.021
-550.369	152.075	0.258	0.355
-549.354	61.929	0.190	0.191
-548.339	-200.000	-0.012	0.117
-547.325	800.000	0.044	0.155
-546.310	-200.000	-0.010	-0.166
-545.296	34.671	0.373	0.328
-544.281	202.123	-0.171	-0.265
-543.266	800.000	-0.052	0.178
-542.252	-200.000	0.009	-0.205
-541.237	-20.402	-0.267	0.166
-540.223	-45.691	-0.338	0.169
-539.208	421.333	0.072	0.156
-538.193	800.000	-0.055	0.177
-537.179	142.889	0.139	0.186
-536.164	-200.000	0.035	-0.162
-535.150	194.467	0.186	-0.283
-534.135	55.789	0.204	-0.199
-533.121	-200.000	0.002	-0.334
-532.106	-85.043	-0.031	0.010
-531.091	-116.481	0.363	-0.067
-530.077	800.000	0.081	-0.303
-529.062	298.659	0.102	0.190
-528.048	-164.514	0.294	-0.013
-527.033	-184.137	0.231	0.004
-526.018	-19.238	0.186	-0.116
-525.004	408.353	0.074	-0.158
-523.989	-52.461	0.138	0.064
-522.975	-9.707	0.112	-0.075
-521.960	-133.705	0.192	-0.024
-520.945	-151.821	-0.372	-0.027
-519.931	64.211	0.084	0.085
-518.916	-108.486	-0.055	0.012
-517.902	56.842	-0.189	0.186
-516.887	188.381	-0.069	0.104
-515.872	501.224	-0.104	-0.241
-514.858	-125.742	-0.089	-0.013
-513.843	-96.071	-0.296	0.079
-512.829	-85.431	0.098	-0.031
-511.814	25.970	0.199	0.167
-510.799	379.748	-0.174	0.359
-509.785	-86.995	0.124	0.038
-508.770	9.326	-0.246	-0.187
-507.756	-11.411	-0.118	-0.078
-506.741	800.000	-0.019	0.071
-505.726	-200.000	-0.098	0.000
-504.712	177.814	0.285	0.418
-503.697	143.630	0.109	0.146
-502.683	-72.856	0.192	0.071
-501.668	-83.861	-0.178	0.057
-500.653	-200.000	0.092	0.483
-499.639	-17.390	0.281	0.178
-498.624	800.000	-0.047	-0.171
-497.610	48.611	0.064	0.060
-496.595	800.000	-0.060	-0.255
-495.581	545.121	-0.105	-0.252
-494.566	-111.784	0.301	-0.061
-493.551	-35.727	0.250	-0.136
-492.537	430.030	-0.101	0.219
-491.522	125.385	-0.065	-0.083
-490.508	55.203	0.204	0.198
-489.493	-200.000	-0.020	0.215
-488.478	-141.771	-0.261	0.026
-487.464	46.335	-0.157	0.147
-486.449	-103.083	0.433	-0.103
-485.435	-96.565	-0.499	0.132
-484.420	-68.464	-0.089	-0.035
-483.405	14.944	0.323	-0.254
-482.391	-46.379	0.288	0.142
-481.376	-38.701	-0.205	0.109
-480.362	-32.001	-0.151	-0.085
-479.347	-93.286	-0.272	-0.076
-478.332	-200.000	0.064	-0.391
-477.318	-200.000	0.004	0.424
-476.303	-83.729	-0.218	0.070
-475.289	-144.722	0.195	-0.018
-474.274	-92.233	0.035	-0.010
-473.259	-158.136	0.112	0.007
-472.245	717.986	0.107	-0.285
-471.230	188.839	0.055	-0.082
-470.216	-200.000	-0.030	-0.187
-469.201	800.000	-0.049	0.166
-468.186	800.000	-0.052	-0.163
-467.172	-50.239	0.111	0.053
-466.157	104.862	0.259	-0.306
-465.143	-200.000	-0.012	0.122
-464.128	-200.000	0.028	-0.299
-463.113	-108.612	0.296	0.064
-462.099	-86.255	0.068	0.021
-461.084	-21.364	0.210	0.129
-460.070	-52.680	0.162	-0.075
-459.055	48.371	0.253	0.237
-458.040	-200.000	-0.044	-0.220
-457.026	-200.000	0.044	0.204
-456.011	-8.149	0.204	0.138
-454.997	154.000	0.071	0.098
-453.982	0.656	-0.132	-0.095
-452.968	-200.000	-0.034	-0.303
-451.953	45.404	0.173	-0.160
-450.938	800.000	0.058	-0.213
-449.924	-129.401	0.290	0.040
-448.909	800.000	0.183	0.552
-447.895	-200.000	0.041	0.250
-446.880	-22.081	-0.081	-0.049
-445.865	16.306	0.241	-0.191
-444.851	530.975	0.105	-0.249
-443.836	68.447	0.135	0.139
-442.822	143.595	0.175	-0.234
-441.807	-200.000	-0.000	-0.079
-440.792	-78.222	0.202	-0.070
-439.778	-200.000	0.004	0.346
-438.763	-140.371	0.296	-0.031
-437.749	800.000	-0.161	-0.531
-436.734	-44.645	0.362	-0.181
-435.719	455.500	0.092	-0.206
-434.705	-139.542	0.193	0.021
-433.690	-30.102	0.224	0.128
-432.676	-171.845	-0.160	0.005
-431.661	-35.385	-0.175	0.096
-430.646	-200.000	-0.020	-0.268
-429.632	62.497	0.265	0.266
-428.617	-119.985	0.460	0.079
-427.603	316.600	0.165	-0.313
-426.588	-200.000	0.008	-0.237
-425.573	-133.765	0.133	-0.017
-424.559	95.568	0.067	-0.076
-423.544	37.598	-0.208	-0.185
-422.530	761.047	0.062	-0.169
-421.515	111.260	-0.323	0.390
-420.500	-158.125	-0.064	0.004
-419.486	221.231	-0.043	-0.069
-418.471	26.817	0.040	0.033
-417.457	-109.411	0.032	0.007
-416.442	-104.852	-0.026	0.006
-415.428	-106.352	0.286	-0.064
-414.413	-200.000	-0.015	0.097
-413.398	161.007	0.244	-0.341
-412.384	-79.564	-0.250	0.085
-411.369	-100.746	-0.141	-0.035
-410.355	-6.111	-0.335	0.229
-409.340	800.000	0.021	0.075
-408.325	364.473	0.115	0.233
-407.311	-154.371	-0.267	0.018
-406.296	-200.000	-0.013	0.297
-405.282	524.118	-0.151	0.357
-404.267	-67.777	-0.582	0.228
-403.252	752.407	0.039	0.106
-402.238	425.746	0.211	0.456
-401.223	51.408	-0.187	0.178
-400.209	-40.290	0.133	0.069
-399.194	163.666	-0.064	0.090
-398.179	800.000	0.038	-0.109
-397.165	13.164	-0.312	-0.242
-396.150	-102.392	0.229	-0.055
-395.136	800.000	0.073	0.225
-394.121	226.030	-0.059	-0.095
-393.106	187.255	-0.078	-0.116
-392.092	-200.000	-0.038	0.278
-391.077	-132.390	-0.088	-0.011
-390.063	56.395	0.087	0.085
-389.048	800.000	-0.066	0.201
-388.033	-49.826	-0.173	-0.082
-387.019	88.842	0.236	0.263
-386.004	212.043	0.073	-0.116
-384.990	800.000	0.072	-0.307
-383.975	43.652	0.046	-0.042
-382.960	-183.200	-0.379	0.007
-381.946	-125.788	0.244	0.037
-380.931	306.435	0.073	0.135
-379.917	800.000	0.027	-0.119
-378.902	-200.000	0.013	-0.094
-377.888	-162.167	0.274	-0.014
-376.873	-148.890	0.116	0.009
-375.858	-200.000	0.013	-0.163
-374.844	-200.000	0.031	-0.197
-373.829	61.584	0.154	0.153
-372.815	-1.577	0.321	-0.226
-371.800	467.029	-0.101	0.227
-370.785	-18.442	-0.416	0.260
-369.771	-200.000	0.022	-0.354
-368.756	-200.000	-0.007	0.207
-367.742	275.324	0.112	0.199
-366.727	-2.464	-0.215	-0.151
-365.712	-200.000	0.303	-0.001
-364.698	-102.650	0.187	-0.045
-363.683	-99.702	-0.326	0.082
-362.669	-7.614	-0.113	0.077
-361.654	-200.000	0.058	-0.518
-360.639	-32.796	-0.210	-0.117
-359.625	-172.442	-0.352	0.011
-358.610	-200.000	0.024	0.229
-357.596	-64.409	0.037	0.015
-356.581	-133.871	0.328	-0.041
-355.566	294.464	0.083	0.152
-354.552	800.000	0.022	-0.066
-353.537	800.000	-0.121	-0.344
-352.523	92.857	0.108	-0.122
-351.508	72.979	-0.108	0.113
-350.493	-12.922	-0.489	-0.318
-349.479	229.133	-0.191	-0.311
-348.464	169.857	-0.230	-0.328
-347.450	39.771	0.078	-0.070
-346.435	174.885	0.152	-0.220
-345.420	800.000	-0.119	-0.352
-344.406	-91.733	0.243	0.069
-343.391	-81.682	0.362	-0.119
-342.377	521.490	0.015	0.036
-341.362	-31.744	0.300	0.168
-340.348	-152.717	-0.081	-0.006
-339.333	800.000	-0.088	0.332
-338.318	-197.418	0.096	0.001
-337.304	182.672	-0.136	-0.200
-336.289	-142.323	0.102	0.010
-335.275	604.567	-0.034	-0.085
-334.260	16.022	-0.133	-0.105
-333.245	-200.000	0.065	0.292
-332.231	-123.600	-0.058	-0.009
-331.216	-114.147	-0.165	0.032
-330.202	207.460	0.084	-0.131
-329.187	133.988	-0.159	0.206
-328.172	-50.542	-0.140	-0.066
-327.158	800.000	0.002	0.008
-326.143	64.026	0.099	0.099
-325.129	249.083	-0.184	0.312
-324.114	634.307	0.092	0.234
-323.099	341.197	0.036	0.069
-322.085	167.450	0.137	-0.194
-321.070	-200.000	-0.031	0.224
-320.056	800.000	-0.024	0.083
-319.041	208.132	-0.167	-0.260
-318.026	195.269	-0.186	0.282
-317.012	-200.000	-0.015	-0.398
-315.997	-200.000	0.017	0.120
-314.983	302.124	0.256	0.472
-313.968	720.013	0.066	0.174
-312.953	-200.000	-0.011	-0.122
-311.939	-200.000	0.004	-0.139
-310.924	-105.526	-0.648	0.147
-309.910	-29.475	0.236	0.135
-308.895	-200.000	-0.004	0.093
-307.880	-159.502	-0.384	-0.021
-306.866	516.336	0.041	-0.095
-305.851	504.088	0.112	-0.259
-304.837	339.925	-0.180	0.349
-303.822	3.379	0.225	-0.163
-302.807	-34.621	0.288	0.157
-301.793	80.147	-0.226	-0.242
-300.778	-106.863	0.428	-0.095
-299.764	-109.665	-0.131	0.028
-298.749	116.152	0.033	-0.041
-297.735	18.880	0.286	0.228
-296.720	-117.386	0.219	0.040
-295.705	-40.770	-0.446	0.230
-294.691	-36.844	-0.389	0.208
-293.676	139.143	-0.166	0.218
-292.662	-60.192	0.139	-0.059
-291.647	-0.778	0.049	0.035
-290.632	-200.000	0.052	-0.279
-289.618	26.600	-0.040	-0.034
-288.603	-61.590	-0.197	-0.082
-287.589	800.000	-0.061	-0.181
-286.574	27.260	0.225	-0.188
-285.559	-150.640	0.100	0.008
-284.545	367.539	0.051	-0.103
-283.530	-200.000	0.012	-0.063
-282.516	800.000	0.158	0.471
-281.501	40.458	-0.133	0.119
-280.486	-66.009	0.050	-0.020
-279.472	-136.287	-0.250	-0.029
-278.457	-112.440	0.382	0.076
-277.443	229.335	0.074	0.120
-276.428	-68.155	-0.040	-0.016
-275.413	-200.000	-0.013	-0.199
-274.399	336.354	0.080	-0.155
-273.384	22.327	-0.147	0.119
-272.370	-108.492	0.246	-0.053
-271.355	-51.289	-0.066	-0.031
-270.340	142.133	-0.141	-0.186
-269.326	214.576	0.043	0.068
-268.311	246.832	-0.281	0.472
-267.297	334.849	0.069	-0.133
-266.282	72.409	0.382	-0.397
-265.267	-200.000	-0.035	-0.336
-264.253	-44.508	0.146	-0.073
-263.238	461.505	0.154	0.342
-262.224	-70.366	-0.336	-0.127
-261.209	94.978	0.160	0.181
-260.195	-18.370	0.299	0.186
-259.180	800.000	-0.074	0.265
-258.165	337.291	-0.091	0.176
-257.151	-200.000	-0.045	-0.251
-256.136	-200.000	0.049	-0.255
-255.122	-14.605	0.354	0.227
-254.107	69.491	0.184	0.188
-253.092	431.053	-0.049	0.105
-252.078	-200.000	-0.004	0.076
-251.063	253.365	-0.180	0.305
-250.049	-84.061	-0.298	0.094
-249.034	-79.181	-0.256	-0.086
-248.019	-72.273	-0.030	-0.011
-247.005	-1.342	0.151	-0.106
-245.990	-125.986	-0.298	-0.045
-244.976	800.000	-0.040	0.110
-243.961	146.419	0.142	-0.189
-242.946	-200.000	0.007	0.070
-241.932	-149.345	-0.294	0.023
-240.917	-200.000	0.023	-0.258
-239.903	-200.000	-0.000	-0.197
-238.888	-68.039	-0.123	-0.048
-237.873	-200.000	0.009	-0.068
-236.859	-158.454	-0.165	-0.009
-235.844	-41.383	-0.278	-0.143
-234.830	447.989	-0.202	0.442
-233.815	16.998	-0.122	0.096
-232.800	-48.171	-0.130	0.063
-231.786	154.203	0.115	0.157
-230.771	486.472	-0.141	-0.320
-229.757	-162.732	-0.062	0.003
-228.742	-200.000	-0.027	-0.221
-227.727	-115.510	-0.242	0.045
-226.713	-27.906	-0.136	0.078
-225.698	108.150	-0.161	-0.191
-224.684	-2.844	0.238	0.166
-223.669	64.041	-0.176	0.176
-222.655	-68.822	-0.015	-0.006
-221.640	-160.214	0.137	-0.007
-220.625	-128.401	-0.174	-0.025
-219.611	800.000	-0.050	-0.158
-218.596	-79.354	0.089	0.030
-217.582	-149.272	-0.290	0.023
-216.567	-200.000	0.014	-0.068
-215.552	370.081	0.086	0.173
-214.538	50.169	0.018	-0.017
-213.523	203.079	0.023	-0.035
-212.509	126.913	0.221	-0.278
-211.494	580.092	-0.062	0.150
-210.479	-39.318	0.136	0.071
-209.465	-92.421	0.111	-0.031
-208.450	55.244	-0.338	0.324
-207.436	84.130	-0.043	-0.047
-206.421	-200.000	-0.044	0.500
-205.406	-77.560	-0.246	-0.085
-204.392	-99.880	0.186	0.046
-203.377	-200.000	-0.023	0.353
-202.363	-156.904	0.200	0.012
-201.348	-200.000	-0.025	0.208
-200.333	239.989	-0.100	-0.165
-199.319	-129.504	-0.226	0.031
-198.304	-43.723	0.108	0.054
-197.290	-137.719	-0.207	-0.023
-196.275	60.336	-0.285	0.280
-195.260	82.100	-0.213	0.229
-194.246	794.385	-0.088	0.242
-193.231	-36.002	0.253	0.136
-192.217	160.953	0.097	0.134
-191.202	737.815	0.158	0.422
-190.187	158.709	-0.191	-0.264
-189.173	272.558	0.136	-0.238
-188.158	781.668	-0.055	0.151
-187.144	-200.000	-0.033	0.405
-186.129	-200.000	0.000	-0.203
-185.114	-89.207	0.177	0.052
-184.100	-200.000	0.025	0.239
-183.085	-28.990	-0.183	0.104
-182.071	-111.595	-0.100	0.020
-181.056	800.000	0.097	-0.402
-180.042	-27.211	0.156	0.090
-179.027	-200.000	-0.039	-0.201
-178.012	173.296	-0.060	0.085
-176.998	379.368	0.159	-0.323
-175.983	-66.082	0.309	-0.122
-174.969	141.591	0.045	-0.059
-173.954	-69.093	0.406	-0.155
-172.939	473.896	-0.171	0.382
-171.925	-200.000	0.026	0.334
-170.910	68.924	-0.266	-0.271
-169.896	616.316	0.179	-0.446
-168.881	24.427	-0.128	0.105
-167.866	323.702	0.109	-0.207
-166.852	-87.722	-0.110	-0.033
-165.837	800.000	0.037	0.117
-164.823	62.893	-0.204	0.203
-163.808	-140.129	-0.159	0.017
-162.793	-107.601	0.217	0.047
-161.779	116.086	-0.042	-0.051
-160.764	168.275	-0.043	-0.061
-159.750	-200.000	-0.021	-0.285
-158.735	43.919	0.166	0.150
-157.720	414.601	0.051	0.108
-156.706	84.159	-0.164	-0.178
-155.691	-96.424	0.193	-0.051
-154.677	-61.064	0.140	-0.059
-153.662	451.508	-0.079	-0.172
-152.647	-200.000	0.033	-0.207
-151.633	-200.000	0.003	-0.408
-150.618	-200.000	0.013	0.088
-149.604	221.415	0.071	0.113
-148.589	360.306	0.117	0.233
-147.574	-131.289	-0.401	0.053
-146.560	800.000	-0.124	-0.399
-145.545	-63.356	0.132	0.054
-144.531	82.649	0.093	0.100
-143.516	188.678	0.120	-0.177
-142.502	-200.000	-0.069	0.483
-141.487	800.000	-0.014	0.046
-140.472	530.485	-0.132	0.310
-139.458	-188.586	-0.266	0.003
-138.443	-200.000	0.086	-0.423
-137.429	-88.623	-0.293	0.086
-136.414	-47.002	0.141	0.068
-135.399	17.167	0.112	0.088
-134.385	-84.680	0.568	0.177
-133.370	35.003	0.155	-0.134
-132.356	324.571	0.162	0.307
-131.341	-165.248	-0.203	-0.009
-130.326	130.253	0.160	0.203
-129.312	-167.966	-0.287	0.011
-128.297	-165.421	-0.175	0.008
-127.283	-4.966	0.429	-0.293
-126.268	-126.710	-0.057	0.008
-125.253	124.281	0.248	-0.308
-124.239	316.106	-0.073	0.136
-123.224	267.457	0.090	0.157
-122.210	-19.735	-0.115	0.070
-121.195	-50.681	-0.276	-0.129
-120.180	-21.126	0.046	0.028
-119.166	-171.271	0.187	-0.006
-118.151	7.421	0.334	-0.247
-117.137	-126.106	-0.201	-0.030
-116.122	138.917	-0.106	-0.138
-115.107	105.081	-0.069	0.081
-114.093	8.264	0.194	-0.144
-113.078	-137.607	-0.069	0.008
-112.064	12.825	0.417	-0.319
-111.049	-98.901	0.160	-0.040
-110.034	-200.000	-0.005	0.155
-109.020	-146.026	0.293	-0.026
-108.005	-22.651	0.101	-0.060
-106.991	-200.000	-0.019	0.355
-105.976	-200.000	-0.039	-0.276
-104.962	345.650	0.174	0.339
-103.947	-200.000	0.033	-0.220
-102.932	-30.796	-0.130	0.073
-101.918	-71.634	0.114	0.042
-100.903	8.447	0.124	0.093
-99.889	300.324	0.168	0.307
-98.874	32.941	0.117	-0.100
-97.859	292.177	0.241	-0.434
-96.845	43.689	-0.179	0.162
-95.830	-89.073	0.176	0.052
-94.816	38.634	0.174	0.153
-93.801	290.770	0.097	0.174
-92.786	219.337	-0.158	0.251
-91.772	-127.523	0.089	-0.013
-90.757	-191.605	-0.390	-0.004
-89.743	-59.650	0.296	-0.126
-88.728	54.117	-0.297	-0.282
-87.713	800.000	0.055	0.183
-86.699	-77.205	0.397	0.137
-85.684	-89.787	0.401	-0.116
-84.670	-200.000	0.009	0.139
-83.655	236.031	0.086	-0.140
-82.640	-200.000	0.010	0.120
-81.626	-147.150	-0.101	-0.009
-80.611	-200.000	-0.005	0.290
-79.597	-103.228	-0.278	-0.065
-78.582	-81.936	0.354	0.114
-77.567	800.000	-0.062	0.168
-76.553	-79.056	0.263	-0.089
-75.538	35.351	-0.092	0.080
-74.524	-157.255	-0.302	0.018
-73.509	115.120	-0.077	0.093
-72.494	5.932	0.140	-0.102
-71.480	294.321	0.106	-0.192
-70.465	301.451	0.106	-0.194
-69.451	800.000	-0.047	0.175
-68.436	800.000	0.023	0.067
-67.422	-200.000	0.068	0.361
-66.407	493.510	-0.009	-0.019
-65.392	-179.154	-0.233	-0.005
-64.378	465.172	-0.061	-0.136
-63.363	-55.427	0.211	-0.094
-62.349	-147.509	0.299	-0.025
-61.334	-80.525	-0.847	-0.279
-60.319	17.394	0.340	0.267
-59.305	-200.000	-0.144	-0.704
-58.290	178.814	0.362	0.523
-57.276	488.107	0.680	1.535
-56.261	-200.000	89.253	495.460
-55.246	508.339	1412.264	3239.895
-54.232	180.739	2640.485	3830.424
-53.217	111.902	2364.639	2821.174
-52.203	45.838	1970.079	1799.776
-51.188	39.932	1755.908	1557.672
-50.173	37.194	1710.876	1496.588
-49.159	52.616	1754.798	1655.647
-48.144	55.925	1773.488	1699.036
-47.130	39.800	1732.034	1535.223
-46.115	36.849	1717.354	1499.343
-45.100	36.755	1712.091	1493.968
-44.086	36.604	1710.052	1490.965
-43.071	36.655	1707.234	1488.843
-42.057	36.722	1704.491	1486.902
-41.042	36.617	1702.849	1484.603
-40.027	36.694	1700.812	1483.360
-39.013	36.640	1698.736	1481.076
-37.998	36.609	1697.493	1479.698
-36.984	36.664	1695.767	1478.558
-35.969	36.824	1693.944	1478.126
-34.954	36.842	1692.305	1476.780
-33.940	36.797	1690.947	1475.188
-32.925	36.780	1688.707	1473.048
-31.911	36.788	1686.940	1471.513
-30.896	36.870	1684.962	1470.347
-29.881	36.853	1683.199	1468.620
-28.867	36.733	1682.016	1466.623
-27.852	36.772	1680.354	1465.411
-26.838	36.833	1678.606	1464.290
-25.823	36.833	1677.399	1463.178
-24.809	36.833	1675.932	1461.839
-23.794	36.840	1674.434	1460.528
-22.779	36.856	1672.883	1459.240
-21.765	36.820	1671.482	1457.690
-20.750	36.783	1669.683	1455.780
-19.736	36.858	1668.128	1454.929
-18.721	36.785	1666.704	1453.085
-17.706	36.752	1665.598	1451.814
-16.692	36.789	1663.937	1450.590
-15.677	36.820	1662.871	1449.837
-14.663	36.942	1660.927	1448.995
-13.648	36.761	1659.674	1446.490
-12.633	36.778	1658.497	1445.530
-11.619	36.904	1655.835	1444.098
-10.604	36.822	1654.839	1442.558
-9.590	36.843	1653.574	1441.556
-8.575	36.871	1652.401	1440.681
-7.560	36.857	1650.841	1439.158
-6.546	36.804	1649.992	1437.974
-5.531	36.788	1648.838	1436.788
-4.517	36.784	1647.465	1435.504
-3.502	36.810	1646.553	1434.845
-2.487	36.898	1644.640	1433.776
-1.473	36.700	1633.475	1422.527
-0.458	33.976	1613.698	1385.433
0.556	31.683	1612.569	1349.036
1.571	28.949	1636.252	1348.712
2.586	27.786	1648.919	1350.435
3.600	23.912	1593.280	1276.990
4.615	14.169	1476.401	1118.049
5.629	6.062	1407.447	1013.617
6.644	4.595	1398.909	997.965
7.659	4.521	1396.965	996.014
8.673	4.537	1395.816	995.207
9.688	4.558	1394.774	994.511
10.702	4.512	1391.797	992.009
11.717	7.985	1399.209	1019.461
12.731	16.921	1415.072	1088.541
13.746	21.786	1423.261	1126.071
14.761	21.188	1420.380	1119.861
15.775	20.184	1417.926	1111.397
16.790	19.058	1415.034	1101.822
17.804	18.232	1412.453	1094.437
18.819	17.930	1411.246	1091.475
19.834	17.623	1410.121	1088.547
20.848	17.381	1408.929	1085.981
21.863	17.192	1407.374	1083.485
22.877	17.019	1406.721	1081.783
23.892	17.012	1405.454	1080.668
24.907	16.986	1404.784	1079.891
25.921	17.031	1403.784	1079.311
26.936	17.168	1402.558	1079.149
27.950	17.101	1401.679	1077.950
28.965	17.174	1400.693	1077.556
29.980	17.320	1399.472	1077.448
30.994	17.413	1398.580	1077.258
32.009	17.456	1397.255	1076.414
33.023	17.487	1396.100	1075.625
34.038	17.334	1394.821	1073.574
35.053	17.177	1394.030	1071.883
36.067	17.205	1392.763	1070.988
37.082	17.227	1391.645	1070.172
38.096	17.299	1390.314	1069.510
39.111	17.331	1389.629	1069.089
40.126	17.264	1388.886	1067.999
41.140	17.031	1387.700	1065.528
42.155	17.012	1386.939	1064.733
43.169	16.927	1387.122	1064.244
44.184	16.935	1386.295	1063.569
45.199	16.837	1386.103	1062.711
46.213	17.106	1385.164	1063.581
47.228	17.118	1384.984	1063.427
48.242	17.201	1383.845	1062.978
49.257	17.128	1381.893	1060.929
50.271	17.162	1380.533	1059.999
51.286	17.147	1379.419	1058.960
52.301	17.167	1378.321	1058.150
53.315	17.059	1377.090	1056.435
54.330	17.033	1376.185	1055.486
55.344	16.938	1374.851	1053.777
56.359	17.010	1373.259	1052.910
57.374	16.948	1372.731	1052.033
58.388	16.897	1371.950	1051.025
59.403	16.840	1370.976	1049.829
60.417	16.901	1370.410	1049.680
61.432	16.813	1369.683	1048.487
62.447	16.799	1368.398	1047.322
63.461	16.832	1366.986	1046.353
64.476	16.768	1366.190	1045.256
65.490	16.657	1365.227	1043.742
66.505	16.737	1363.551	1042.865
67.520	16.757	1362.400	1042.014
68.534	16.755	1361.582	1041.283
69.549	16.743	1360.299	1040.135
70.563	16.816	1359.200	1039.653
71.578	16.757	1357.859	1038.176
72.593	16.581	1357.389	1036.643
73.607	16.629	1356.264	1035.984
74.622	16.647	1355.494	1035.415
75.636	16.559	1355.039	1034.442
76.651	16.699	1353.999	1034.411
77.666	16.662	1353.419	1033.646
78.680	16.765	1352.918	1033.806
79.695	16.768	1352.593	1033.480
80.709	16.718	1351.637	1032.353
81.724	16.864	1350.806	1032.519
82.739	16.968	1349.927	1032.387
83.753	17.105	1349.061	1032.465
84.768	17.194	1348.070	1032.160
85.782	17.228	1346.549	1031.110
86.797	17.227	1345.323	1030.073
87.812	17.112	1343.772	1028.097
88.826	17.132	1343.349	1027.803
89.841	17.118	1342.299	1026.826
90.855	17.217	1340.599	1026.030
91.870	17.298	1340.010	1025.981
92.884	17.330	1339.078	1025.369
93.899	17.175	1338.904	1024.209
94.914	17.383	1337.681	1024.436
95.928	17.414	1336.603	1023.704
96.943	17.290	1336.078	1022.466
97.957	17.127	1335.137	1020.678
98.972	17.225	1333.666	1020.051
99.987	17.279	1332.732	1019.574
101.001	17.279	1331.878	1018.827
102.016	17.293	1330.945	1018.105
103.030	17.234	1330.166	1017.066
104.045	17.173	1329.428	1016.048
105.060	17.133	1327.836	1014.502
106.074	16.973	1326.158	1012.178
107.089	16.827	1325.102	1010.412
108.103	16.845	1323.206	1008.985
109.118	16.789	1322.342	1007.901
110.133	16.761	1321.107	1006.702
111.147	16.903	1319.459	1006.204
112.162	16.871	1318.307	1005.047
113.176	16.928	1317.382	1004.590
114.191	16.975	1316.515	1004.115
115.206	16.917	1315.357	1002.800
116.220	16.937	1313.940	1001.752
117.235	16.918	1312.742	1000.638
118.249	16.977	1311.955	1000.296
119.264	16.897	1310.690	998.771
120.279	16.813	1309.688	997.428
121.293	16.789	1308.476	996.272
122.308	16.761	1307.267	995.101
123.322	16.698	1306.608	994.144
124.337	16.731	1305.109	993.105
125.352	16.757	1304.157	992.446
126.366	16.805	1302.653	991.494
127.381	16.700	1301.881	990.206
128.395	16.751	1300.928	989.691
129.410	16.855	1299.630	989.222
130.424	16.868	1298.929	988.680
131.439	16.936	1298.343	988.537
132.454	16.853	1298.071	987.764
133.468	16.993	1296.894	987.594
134.483	17.028	1295.831	986.902
135.497	17.060	1295.115	986.452
136.512	17.037	1293.543	985.034
137.527	17.056	1292.254	984.079
138.541	17.106	1290.866	983.221
139.556	17.049	1289.887	982.059
140.570	17.128	1289.237	981.935
141.585	17.252	1287.527	981.265
142.600	17.201	1286.749	980.287
143.614	17.296	1285.739	979.979
144.629	17.357	1284.618	979.390
145.643	17.330	1283.303	978.148
146.658	17.206	1281.695	976.122
147.673	17.194	1280.406	974.985
148.687	17.041	1279.613	973.415
149.702	16.998	1278.132	971.956
150.716	16.962	1276.708	970.582
151.731	17.049	1275.736	970.253
152.746	17.048	1274.277	969.057
153.760	17.125	1273.261	968.635
154.775	17.231	1271.992	968.189
155.789	17.281	1270.745	967.439
156.804	17.257	1270.004	966.653
157.819	17.190	1269.216	965.588
158.833	17.283	1268.370	965.384
159.848	17.363	1267.464	965.064
160.862	17.301	1266.329	963.763
161.877	17.194	1264.898	961.980
162.892	17.016	1264.323	960.453
163.906	17.085	1262.895	959.675
164.921	17.122	1262.460	959.463
165.935	17.165	1261.774	959.101
166.950	17.160	1260.556	958.063
167.964	17.143	1260.077	957.522
168.979	17.138	1259.250	956.779
169.994	17.157	1258.251	956.041
171.008	17.257	1257.390	955.868
172.023	17.379	1256.524	955.808
173.037	17.333	1255.752	954.875
174.052	17.318	1255.000	954.137
175.067	17.228	1253.917	952.724
176.081	17.150	1252.831	951.378
177.096	17.181	1251.655	950.572
178.110	17.135	1250.422	949.299
179.125	17.172	1249.404	948.644
180.140	17.182	1248.369	947.835
181.154	17.401	1246.648	947.660
182.169	17.308	1245.837	946.443
183.183	17.465	1244.507	946.225
184.198	17.561	1242.882	945.437
185.213	17.493	1242.253	944.498
186.227	17.446	1241.333	943.452
187.242	17.591	1239.810	943.016
188.256	17.619	1238.988	942.464
189.271	17.572	1238.225	941.540
190.286	17.543	1237.209	940.523
191.300	17.242	1236.367	938.136
192.315	17.079	1235.584	936.561
193.329	17.189	1234.730	936.439
194.344	17.285	1234.257	936.526
195.359	17.297	1233.691	936.078
196.373	17.320	1233.321	935.844
197.388	17.470	1233.157	936.461
198.402	17.636	1232.296	936.633
199.417	17.754	1231.619	936.686
200.432	17.790	1230.802	936.179
201.446	17.815	1230.067	935.677
202.461	17.852	1229.064	935.031
203.475	17.829	1228.078	934.074
204.490	17.696	1226.503	932.064
205.504	17.734	1225.002	931.050
206.519	17.618	1224.021	929.588
207.534	17.628	1222.711	928.567
208.548	17.646	1222.214	928.202
209.563	17.588	1221.345	927.146
210.577	17.685	1220.298	926.796
211.592	17.830	1218.898	926.441
212.607	17.844	1218.755	926.322
213.621	17.887	1217.396	925.440
214.636	17.780	1216.847	924.365
215.650	17.800	1215.711	923.525
216.665	18.012	1214.788	923.890
217.680	17.935	1214.324	923.038
218.694	18.047	1213.205	922.715
219.709	17.960	1212.317	921.489
220.723	17.974	1211.676	920.991
221.738	17.911	1210.938	920.011
222.753	17.978	1209.916	919.516
223.767	17.977	1209.421	919.050
224.782	18.015	1208.541	918.508
225.796	18.110	1208.503	918.903
226.811	18.087	1207.665	918.066
227.826	18.080	1206.700	917.213
228.840	18.077	1205.570	916.256
229.855	18.020	1205.046	915.472
230.869	17.970	1204.329	914.579
231.884	17.880	1203.918	913.701
232.899	17.978	1202.538	913.100
233.913	17.942	1201.675	912.171
234.928	17.849	1201.055	911.123
235.942	17.969	1200.056	910.921
236.957	17.788	1199.549	909.495
237.972	17.817	1199.003	909.153
238.986	17.978	1197.974	909.151
240.001	17.826	1197.690	908.042
241.015	17.900	1196.592	907.525
242.030	18.034	1195.748	907.515
243.045	18.064	1194.799	906.873
244.059	18.179	1193.666	906.547
245.074	18.023	1193.606	905.592
246.088	18.179	1192.695	905.650
247.103	18.304	1191.745	905.508
248.117	18.340	1191.144	905.159
249.132	18.386	1190.728	905.007
250.147	18.509	1189.833	904.895
251.161	18.593	1189.281	904.840
252.176	18.640	1188.397	904.337
253.190	18.663	1187.933	904.022
254.205	18.737	1187.302	903.852
255.220	18.700	1187.045	903.380
256.234	18.673	1186.261	902.565
257.249	18.732	1185.472	902.195
258.263	18.657	1184.593	901.049
259.278	18.765	1183.688	900.850
260.293	18.746	1183.349	900.410
261.307	18.757	1182.754	899.939
262.322	18.802	1182.215	899.684
263.336	18.835	1181.150	898.967
264.351	18.885	1181.009	899.040
265.366	18.889	1180.499	898.593
266.380	19.002	1179.293	898.187
267.395	18.847	1178.343	896.574
268.409	18.784	1177.593	895.593
269.424	18.724	1177.083	894.817
270.439	18.738	1176.573	894.419
271.453	18.769	1175.795	893.912
272.468	18.660	1174.709	892.439
273.482	18.718	1174.228	892.300
274.497	18.698	1173.502	891.561
275.512	18.711	1172.544	890.826
276.526	18.681	1172.051	890.214
277.541	18.611	1171.751	889.545
278.555	18.662	1171.238	889.342
279.570	18.919	1169.744	889.459
280.585	18.991	1169.447	889.524
281.599	18.953	1168.192	888.295
282.614	18.928	1166.811	887.041
283.628	18.908	1165.860	886.136
284.643	18.872	1164.657	884.958
285.657	18.943	1164.138	884.848
286.672	18.877	1163.199	883.719
287.687	19.017	1162.073	883.503
288.701	18.965	1161.364	882.619
289.716	19.136	1160.527	882.780
290.730	19.002	1160.194	881.763
291.745	18.984	1159.523	881.081
292.760	19.083	1158.666	880.859
293.774	18.993	1158.321	880.058
294.789	19.138	1157.845	880.364
295.803	19.063	1156.639	878.987
296.818	19.137	1156.122	878.891
297.833	19.092	1155.159	877.852
298.847	19.067	1154.636	877.248
299.862	18.969	1154.042	876.221
300.876	19.064	1153.158	875.954
301.891	19.243	1152.551	876.330
302.906	19.295	1151.609	875.801
303.920	19.223	1151.119	874.982
304.935	19.371	1150.449	875.145
305.949	19.449	1149.469	874.719
306.964	19.465	1149.085	874.428
307.979	19.453	1148.055	873.508
308.993	19.341	1147.627	872.540
310.008	19.365	1146.874	872.010
311.022	19.351	1146.232	871.373
312.037	19.405	1145.530	871.038
313.052	19.304	1144.067	869.339
314.066	19.182	1143.047	867.872
315.081	19.141	1142.272	866.998
316.095	19.156	1141.217	866.198
317.110	19.214	1140.202	865.640
318.125	19.240	1139.713	865.324
319.139	19.229	1139.218	864.817
320.154	19.245	1138.287	864.115
321.168	19.242	1137.803	863.655
322.183	19.252	1137.372	863.300
323.197	19.258	1136.721	862.760
324.212	19.409	1135.653	862.629
325.227	19.300	1135.351	861.781
326.241	19.413	1134.725	861.793
327.256	19.374	1133.721	860.761
328.270	19.309	1132.709	859.591
329.285	19.290	1131.975	858.861
330.300	19.328	1130.921	858.174
331.314	19.252	1129.888	856.937
332.329	19.323	1129.181	856.680
333.343	19.335	1128.383	856.055
334.358	19.413	1127.620	855.788
335.373	19.418	1127.057	855.312
336.387	19.671	1125.758	855.505
337.402	19.505	1125.174	854.160
338.416	19.547	1124.859	854.055
339.431	19.607	1123.972	853.605
340.446	19.707	1123.398	853.585
341.460	19.853	1122.456	853.515
342.475	19.861	1122.351	853.397
343.489	19.929	1121.072	852.687
344.504	19.898	1120.134	851.743
345.519	19.906	1119.406	851.153
346.533	19.840	1118.486	850.056
347.548	20.032	1117.722	850.344
348.562	19.905	1117.045	849.128
349.577	19.850	1115.849	847.874
350.592	19.755	1115.189	846.834
351.606	19.684	1114.205	845.662
352.621	19.656	1113.916	845.232
353.635	19.653	1113.051	844.488
354.650	19.688	1112.408	844.092
355.665	19.754	1111.771	843.860
356.679	19.803	1110.628	843.158
357.694	19.825	1110.399	843.011
358.708	19.903	1110.184	843.154
359.723	19.857	1109.345	842.222
360.738	20.001	1108.429	842.149
361.752	19.824	1108.197	841.040
362.767	19.939	1107.079	840.673
363.781	19.894	1106.641	840.052
364.796	20.023	1106.419	840.432
365.810	20.058	1105.963	840.183
366.825	20.182	1105.214	840.140
367.840	20.364	1104.661	840.525
368.854	20.292	1104.360	839.874
369.869	20.361	1103.091	839.166
370.883	20.272	1102.062	837.881
371.898	20.127	1101.483	836.667
372.913	20.285	1100.781	836.821
373.927	20.249	1100.402	836.287
374.942	20.236	1100.079	835.904
375.956	20.362	1099.443	835.954
376.971	20.223	1098.603	834.572
377.986	20.308	1098.122	834.541
379.000	20.401	1097.659	834.565
380.015	20.463	1097.319	834.526
381.029	20.428	1096.639	833.769
382.044	20.470	1095.660	833.151
383.059	20.490	1094.742	832.477
384.073	20.654	1093.715	832.405
385.088	20.509	1093.213	831.260
386.102	20.577	1092.224	830.759
387.117	20.436	1091.251	829.271
388.132	20.362	1090.263	828.093
389.146	20.318	1089.458	827.200
390.161	20.324	1088.572	826.483
391.175	20.356	1087.994	826.121
392.190	20.497	1087.455	826.308
393.205	20.540	1086.431	825.664
394.219	20.579	1085.612	825.152
395.234	20.515	1084.617	824.022
396.248	20.403	1083.368	822.468
397.263	20.465	1082.362	821.925
398.278	20.330	1081.862	820.834
399.292	20.297	1081.261	820.151
400.307	20.260	1080.451	819.286
401.321	20.314	1079.449	818.711
402.336	20.350	1078.975	818.445
403.350	20.286	1078.851	817.982
404.365	20.351	1077.922	817.507
405.380	20.532	1077.196	817.735
406.394	20.561	1076.188	817.034
407.409	20.590	1075.276	816.406
408.423	20.689	1074.705	816.366
409.438	20.742	1074.433	816.334
410.453	20.722	1073.707	815.618
411.467	20.787	1072.947	815.273
412.482	20.860	1072.134	814.923
413.496	20.838	1071.829	814.520
414.511	20.809	1071.464	814.035
415.526	20.951	1070.869	814.174
416.540	21.053	1070.163	814.040
417.555	21.049	1069.647	813.557
418.569	20.935	1069.272	812.670
419.584	21.025	1068.475	812.407
420.599	21.033	1067.814	811.870
421.613	150.214	1401.849	1783.113
422.628	138.287	1450.511	1783.220
