DTS Sentinel unit serial number:	SN413079Multiplexer serial number:	ORYXHardware model number:	OX4-SRSoftware version number:	ORYX F/W v4.00 Oryx Data Collector v3.7.2.0data status	okinstallation	princeton_trtdifferential loss correction	single-endedforward channel	channel 2reverse channel	N/Adate	2019/09/15time	12:55:34forward acquisition time	60.00reverse acquisition time	0.00gamma	496.2192k internal	0.2310k external	0.2310temperature offset calibration	1.0007default loss term (dB/km)	0.3790temperature slope calibration	1.0000multiplexer offset coefficient	1.0000multiplexer slope coefficient	1.0000fibre end	0.00T internal ref (°C)	36.23T ext. ref 1 (°C)	5.01T ext. ref 2 (°C)	34.19length (m)	temperature (°C)	Stokes	anti-Stokes-747.200	13.703	-0.362	0.286
-746.185	-200.000	-0.028	0.199
-745.171	800.000	-0.035	0.103
-744.156	6.007	-0.077	0.058
-743.142	-138.786	-0.172	-0.019
-742.127	800.000	-0.125	0.464
-741.112	-200.000	0.014	0.194
-740.098	-200.000	-0.033	0.179
-739.083	800.000	0.084	0.252
-738.069	-126.762	-0.298	0.045
-737.054	36.635	0.194	-0.174
-736.039	-72.118	-0.140	0.053
-735.025	155.102	0.192	0.269
-734.010	-200.000	0.011	0.235
-732.996	-95.761	-0.205	-0.056
-731.981	6.013	0.083	0.062
-730.966	351.101	-0.083	0.168
-729.952	-139.790	0.144	0.016
-728.937	-166.579	-0.445	0.019
-727.923	-48.545	-0.312	-0.152
-726.908	-188.962	-0.179	0.002
-725.894	-46.846	-0.336	-0.167
-724.879	90.873	-0.200	-0.228
-723.864	93.624	0.231	0.265
-722.850	-32.305	-0.399	0.226
-721.835	194.445	0.160	-0.246
-720.821	-200.000	0.022	0.215
-719.806	20.740	-0.108	0.088
-718.791	-200.000	0.032	-0.279
-717.777	-64.995	0.061	-0.025
-716.762	587.549	0.061	-0.152
-715.748	73.856	-0.040	-0.043
-714.733	247.034	0.266	0.456
-713.718	-60.925	-0.304	0.131
-712.704	800.000	0.062	0.273
-711.689	-200.000	-0.024	-0.111
-710.675	-147.287	-0.057	-0.005
-709.660	-200.000	0.114	0.000
-708.645	-200.000	0.019	-0.293
-707.631	-200.000	-0.018	-0.285
-706.616	280.289	0.200	-0.362
-705.602	-106.122	-0.164	0.037
-704.587	-200.000	0.008	0.264
-703.572	-42.076	0.139	-0.072
-702.558	800.000	-0.060	0.178
-701.543	-66.040	0.109	-0.044
-700.529	800.000	-0.076	0.252
-699.514	-67.142	-0.086	-0.034
-698.499	-29.130	-0.112	0.065
-697.485	319.993	0.105	0.202
-696.470	-23.259	-0.057	-0.035
-695.456	-200.000	-0.001	-0.368
-694.441	-200.000	-0.033	-0.208
-693.426	-200.000	0.038	-0.261
-692.412	-39.403	0.220	-0.117
-691.397	511.897	-0.017	-0.040
-690.383	-200.000	-0.000	-0.090
-689.368	-131.173	-0.136	-0.018
-688.354	41.049	-0.082	0.075
-687.339	800.000	0.021	-0.072
-686.324	-200.000	0.030	0.313
-685.310	-160.329	-0.343	-0.019
-684.295	-200.000	0.008	-0.081
-683.281	254.398	-0.129	0.223
-682.266	29.262	-0.382	-0.329
-681.251	-77.789	-0.230	0.080
-680.237	800.000	-0.119	-0.415
-679.222	184.487	0.148	0.222
-678.208	30.395	-0.128	-0.111
-677.193	70.677	0.060	0.063
-676.178	-76.601	-0.377	0.134
-675.164	28.823	-0.211	-0.181
-674.149	8.125	-0.256	0.195
-673.135	228.171	-0.203	0.334
-672.120	67.798	0.279	-0.289
-671.105	-123.394	-0.018	0.003
-670.091	383.358	0.041	0.086
-669.076	-101.670	0.197	-0.048
-668.062	558.430	0.187	-0.456
-667.047	-200.000	-0.013	-0.202
-666.032	598.866	-0.024	0.060
-665.018	-200.000	0.011	0.200
-664.003	-64.429	-0.038	0.016
-662.989	-16.755	-0.387	-0.248
-661.974	-200.000	-0.049	-0.304
-660.959	303.191	0.125	-0.234
-659.945	9.264	-0.125	0.096
-658.930	-160.174	-0.041	-0.002
-657.916	-23.560	-0.286	-0.174
-656.901	113.896	-0.238	0.293
-655.886	-120.260	-0.045	-0.008
-654.872	-112.317	0.198	0.040
-653.857	-60.887	-0.393	-0.168
-652.843	-33.707	0.131	-0.073
-651.828	202.532	0.062	-0.097
-650.814	800.000	-0.077	0.232
-649.799	-119.239	-0.088	-0.016
-648.784	69.539	-0.212	-0.221
-647.770	8.239	-0.109	0.083
-646.755	107.884	-0.063	0.076
-645.741	15.001	0.185	-0.147
-644.726	-63.561	-0.130	-0.054
-643.711	135.301	0.105	-0.138
-642.697	-200.000	-0.018	0.192
-641.682	269.889	-0.144	-0.257
-640.668	-135.674	0.308	-0.037
-639.653	796.362	0.089	-0.248
-638.638	302.688	0.045	-0.084
-637.624	15.072	0.088	0.070
-636.609	-124.859	0.163	0.025
-635.595	-76.238	-0.242	0.086
-634.580	800.000	0.049	-0.184
-633.565	-108.939	-0.240	0.052
-632.551	-23.889	-0.286	-0.173
-631.536	-200.000	-0.003	0.231
-630.522	-24.479	0.155	-0.093
-629.507	354.979	-0.137	0.276
-628.492	-13.532	0.173	-0.113
-627.478	800.000	0.075	-0.301
-626.463	-26.730	-0.315	-0.186
-625.449	384.402	-0.064	-0.132
-624.434	-200.000	-0.045	-0.278
-623.419	-121.887	0.095	-0.016
-622.405	-7.513	0.074	0.051
-621.390	160.645	0.165	-0.233
-620.376	-15.211	-0.179	0.116
-619.361	-71.038	-0.116	-0.044
-618.346	89.559	0.094	-0.107
-617.332	-36.227	0.037	-0.020
-616.317	-200.000	0.004	0.204
-615.303	-133.730	0.437	0.055
-614.288	489.613	-0.290	-0.669
-613.273	-102.180	-0.104	-0.025
-612.259	-99.681	-0.220	-0.056
-611.244	-142.013	-0.191	0.019
-610.230	-189.175	-0.095	0.001
-609.215	800.000	0.046	-0.161
-608.201	47.744	-0.120	0.114
-607.186	13.962	0.258	-0.202
-606.171	-200.000	0.006	-0.097
-605.157	-0.088	-0.111	0.080
-604.142	-51.270	0.234	0.111
-603.128	339.529	-0.017	-0.033
-602.113	45.102	0.142	0.132
-601.098	117.021	-0.054	0.068
-600.084	-4.843	-0.279	-0.194
-599.069	33.657	0.182	-0.160
-598.055	-40.658	-0.027	0.014
-597.040	-81.564	-0.238	-0.079
-596.025	-99.615	0.206	0.052
-595.011	-59.642	0.297	-0.129
-593.996	-200.000	0.000	0.184
-592.982	-36.281	-0.100	0.055
-591.967	-53.202	-0.254	-0.118
-590.952	-126.733	0.155	-0.023
-589.938	50.117	-0.130	0.124
-588.923	-200.000	-0.008	-0.191
-587.909	138.743	0.171	0.227
-586.894	-78.183	0.222	0.077
-585.879	-171.499	0.165	-0.006
-584.865	-8.665	-0.228	-0.155
-583.850	121.120	-0.088	0.111
-582.836	339.602	-0.104	-0.204
-581.821	219.396	-0.138	-0.223
-580.806	-200.000	-0.048	0.309
-579.792	67.569	0.066	0.068
-578.777	57.164	0.275	0.271
-577.763	-22.780	-0.276	0.168
-576.748	-200.000	0.052	0.249
-575.733	-200.000	0.085	-0.434
-574.719	-200.000	0.011	0.065
-573.704	-6.112	-0.241	0.166
-572.690	265.429	-0.135	-0.238
-571.675	298.195	0.115	-0.214
-570.661	174.660	-0.157	-0.229
-569.646	800.000	0.044	-0.131
-568.631	33.764	-0.257	-0.225
-567.617	-54.572	0.163	-0.074
-566.602	89.097	-0.102	-0.115
-565.588	17.868	-0.233	0.187
-564.573	43.898	0.096	-0.089
-563.558	227.573	-0.026	0.042
-562.544	-200.000	-0.038	-0.483
-561.529	348.004	-0.128	-0.255
-560.515	182.057	-0.208	-0.309
-559.500	-139.034	0.401	-0.044
-558.485	270.985	0.147	0.262
-557.471	29.189	-0.050	0.043
-556.456	-120.527	-0.477	0.082
-555.442	53.863	-0.235	-0.228
-554.427	246.951	-0.063	0.107
-553.412	93.170	-0.089	-0.102
-552.398	40.266	0.165	0.150
-551.383	-200.000	-0.009	-0.498
-550.369	96.592	0.081	-0.094
-549.354	418.036	0.070	-0.151
-548.339	800.000	0.084	0.236
-547.325	-125.989	0.122	-0.018
-546.310	-51.824	-0.219	0.103
-545.296	-200.000	-0.028	-0.259
-544.281	31.583	0.167	0.144
-543.266	-200.000	-0.001	-0.188
-542.252	93.353	0.028	-0.032
-541.237	-54.596	0.393	-0.179
-540.223	490.264	0.068	-0.156
-539.208	151.200	0.214	-0.293
-538.193	-81.421	0.326	-0.108
-537.179	-59.989	0.455	-0.196
-536.164	489.025	0.124	0.285
-535.150	232.821	0.104	-0.172
-534.135	-200.000	-0.004	0.172
-533.121	800.000	0.055	-0.230
-532.106	800.000	-0.125	-0.509
-531.091	72.840	-0.099	0.105
-530.077	800.000	-0.120	0.356
-529.062	-143.630	0.114	0.011
-528.048	51.411	-0.154	-0.148
-527.033	-102.247	-0.335	-0.081
-526.018	46.086	-0.090	-0.084
-525.004	-41.740	0.413	0.214
-523.989	-24.995	0.145	-0.086
-522.975	-173.260	0.153	0.005
-521.960	693.832	-0.069	0.181
-520.945	-74.690	0.072	0.026
-519.931	251.077	0.183	0.313
-518.916	114.397	-0.231	0.283
-517.902	70.956	-0.043	0.045
-516.887	-102.041	0.220	0.053
-515.872	586.532	-0.169	0.418
-514.858	48.674	-0.201	0.190
-513.843	684.056	0.049	0.128
-512.829	-162.843	0.066	0.003
-511.814	-200.000	-0.038	-0.227
-510.799	-37.220	0.392	-0.211
-509.785	-200.000	0.018	-0.190
-508.770	-200.000	0.023	-0.180
-507.756	108.128	0.111	0.134
-506.741	174.954	-0.218	0.318
-505.726	800.000	-0.020	0.069
-504.712	-177.644	-0.229	0.006
-503.697	-99.890	-0.143	0.036
-502.683	648.630	-0.116	-0.298
-501.668	-200.000	-0.010	0.070
-500.653	199.453	-0.247	0.382
-499.639	-129.972	-0.344	-0.047
-498.624	188.364	0.061	-0.092
-497.610	-58.846	0.270	-0.117
-496.595	254.631	0.048	0.082
-495.581	-91.709	-0.054	-0.015
-494.566	-77.799	-0.031	-0.011
-493.551	-61.386	-0.236	-0.100
-492.537	-183.635	-0.109	0.002
-491.522	-75.781	0.278	-0.099
-490.508	-48.033	0.158	-0.077
-489.493	-200.000	0.035	-0.176
-488.478	358.550	0.043	0.087
-487.464	-128.746	0.141	-0.020
-486.449	246.448	-0.110	-0.187
-485.435	207.531	0.130	-0.204
-484.420	538.491	0.147	-0.352
-483.405	-59.488	-0.412	0.178
-482.391	-11.925	-0.316	-0.208
-481.376	-70.699	-0.177	0.067
-480.362	-72.331	0.018	0.007
-479.347	-199.002	-0.021	0.000
-478.332	40.985	0.064	-0.058
-477.318	9.894	0.232	-0.177
-476.303	-200.000	0.010	0.049
-475.289	66.704	0.115	-0.118
-474.274	88.205	-0.227	0.253
-473.259	399.374	-0.068	-0.143
-472.245	-163.431	-0.398	-0.019
-471.230	-25.400	0.168	-0.100
-470.216	-200.000	0.004	-0.288
-469.201	-200.000	0.037	-0.172
-468.186	136.486	0.050	-0.065
-467.172	-166.154	0.272	-0.012
-466.157	-84.202	0.250	0.080
-465.143	-62.286	0.137	0.058
-464.128	800.000	0.084	0.270
-463.113	-65.767	-0.284	-0.114
-462.099	-200.000	0.050	0.278
-461.084	40.099	-0.018	0.016
-460.070	-91.927	0.149	-0.042
-459.055	800.000	0.150	0.423
-458.040	-103.442	0.296	0.070
-457.026	132.350	-0.209	-0.271
-456.011	-200.000	-0.038	-0.189
-454.997	108.822	-0.078	-0.094
-453.982	-17.426	-0.175	0.111
-452.968	-138.159	0.121	-0.014
-451.953	-23.551	0.116	0.070
-450.938	41.043	-0.025	0.023
-449.924	364.444	0.125	-0.253
-448.909	-69.007	-0.161	-0.062
-447.895	207.806	0.106	0.166
-446.880	-200.000	0.096	0.000
-445.865	33.369	0.085	-0.074
-444.851	-106.844	0.121	0.027
-443.836	-200.000	0.026	0.140
-442.822	-93.130	-0.238	0.067
-441.807	263.999	-0.205	-0.358
-440.792	-157.270	-0.184	-0.011
-439.778	-188.357	0.555	-0.007
-438.763	151.899	-0.071	-0.097
-437.749	-24.818	-0.191	0.114
-436.734	-138.758	0.283	0.031
-435.719	-73.854	-0.213	-0.078
-434.705	800.000	-0.042	-0.166
-433.690	-28.693	-0.019	-0.011
-432.676	-149.573	-0.297	0.024
-431.661	-89.790	-0.123	0.036
-430.646	-140.919	-0.273	0.028
-429.632	-29.179	-0.371	-0.213
-428.617	-58.568	0.145	-0.063
-427.603	-43.834	0.243	0.123
-426.588	800.000	0.022	0.061
-425.573	-112.472	-0.139	-0.028
-424.559	800.000	0.058	0.187
-423.544	-82.271	-0.408	-0.133
-422.530	800.000	-0.163	-0.458
-421.515	-104.694	-0.335	-0.077
-420.500	533.520	-0.144	0.341
-419.486	18.577	0.211	-0.169
-418.471	301.328	0.158	0.293
-417.457	122.355	0.210	0.263
-416.442	-102.000	-0.185	0.045
-415.428	73.979	-0.116	0.122
-414.413	416.014	0.176	0.377
-413.398	-200.000	-0.077	0.458
-412.384	-187.027	0.148	0.002
-411.369	417.952	-0.088	0.189
-410.355	22.488	-0.108	0.088
-409.340	8.359	0.091	-0.068
-408.325	102.854	0.050	0.058
-407.311	-27.442	-0.131	0.076
-406.296	10.072	0.343	0.262
-405.282	-130.309	0.057	0.008
-404.267	80.525	-0.159	0.172
-403.252	-137.111	-0.134	-0.015
-402.238	200.442	-0.106	-0.163
-401.223	-200.000	0.003	-0.296
-400.209	177.495	-0.157	0.229
-399.194	35.161	-0.059	0.052
-398.179	303.433	-0.094	0.175
-397.165	-103.059	-0.254	0.060
-396.150	-135.148	0.080	0.010
-395.136	800.000	-0.015	-0.050
-394.121	800.000	-0.012	-0.041
-393.106	800.000	0.073	0.215
-392.092	-133.856	-0.103	-0.013
-391.077	66.994	-0.157	0.160
-390.063	24.635	0.456	0.378
-389.048	143.465	-0.126	0.169
-388.033	-158.746	-0.139	0.008
-387.019	-200.000	0.061	0.282
-386.004	291.723	0.130	0.236
-384.990	107.919	0.099	0.118
-383.975	238.088	-0.073	-0.121
-382.960	800.000	-0.114	-0.396
-381.946	66.942	0.049	-0.050
-380.931	800.000	-0.040	0.130
-379.917	-67.234	0.285	-0.112
-378.902	83.043	-0.097	-0.105
-377.888	-200.000	0.003	0.141
-376.873	-85.083	-0.155	-0.049
-375.858	-200.000	0.045	-0.306
-374.844	-92.158	0.501	0.142
-373.829	-1.495	0.073	-0.052
-372.815	44.252	-0.144	0.133
-371.800	-122.175	0.344	0.056
-370.785	470.210	-0.085	-0.190
-369.771	800.000	0.052	-0.201
-368.756	72.955	-0.324	0.339
-367.742	-200.000	-0.019	0.215
-366.727	53.641	0.182	0.175
-365.712	-73.270	-0.229	0.084
-364.698	-104.604	0.216	0.050
-363.683	-200.000	0.008	0.053
-362.669	800.000	-0.057	0.219
-361.654	800.000	0.015	-0.055
-360.639	800.000	-0.112	0.361
-359.625	-200.000	-0.008	-0.218
-358.610	800.000	-0.046	0.143
-357.596	22.223	0.027	0.022
-356.581	8.820	-0.184	-0.139
-355.566	534.309	-0.009	-0.022
-354.552	800.000	0.077	-0.276
-353.537	-141.310	-0.323	0.033
-352.523	-150.708	-0.163	0.012
-351.508	-200.000	0.001	0.176
-350.493	83.977	0.138	0.150
-349.479	800.000	0.072	0.237
-348.464	538.152	0.028	0.066
-347.450	-45.882	-0.045	0.022
-346.435	53.557	-0.277	-0.265
-345.420	-67.500	-0.189	-0.074
-344.406	-97.880	0.310	-0.080
-343.391	-200.000	0.012	0.316
-342.377	-159.254	-0.020	0.001
-341.362	-42.190	0.153	-0.078
-340.348	-200.000	0.002	0.072
-339.333	-200.000	0.030	-0.135
-338.318	409.404	-0.066	-0.140
-337.304	-133.099	0.236	0.030
-336.289	13.092	0.046	0.036
-335.275	-200.000	-0.045	0.278
-334.260	-150.460	-0.581	0.045
-333.245	-39.180	0.288	0.151
-332.231	800.000	0.045	-0.161
-331.216	800.000	-0.067	-0.210
-330.202	-54.916	0.101	-0.046
-329.187	-29.254	-0.202	-0.115
-328.172	118.546	-0.159	-0.196
-327.158	161.594	0.245	-0.342
-326.143	-200.000	0.011	0.128
-325.129	92.567	-0.184	-0.207
-324.114	-200.000	0.011	0.335
-323.099	62.848	-0.305	0.304
-322.085	302.047	-0.090	-0.166
-321.070	-36.779	0.059	-0.031
-320.056	-10.016	0.077	0.051
-319.041	564.948	-0.069	-0.167
-318.026	199.447	0.152	0.234
-317.012	-121.473	-0.373	0.062
-315.997	800.000	0.050	-0.197
-314.983	630.706	-0.002	0.005
-313.968	-18.042	0.225	-0.140
-312.953	-20.458	0.145	0.089
-311.939	-97.109	0.418	0.109
-310.924	235.662	0.184	-0.303
-309.910	14.826	0.156	-0.122
-308.895	800.000	-0.065	0.198
-307.880	142.881	0.068	0.091
-306.866	-66.167	-0.228	0.091
-305.851	41.991	-0.140	-0.127
-304.837	-57.723	0.098	0.043
-303.822	-171.053	0.287	0.010
-302.807	-82.092	-0.057	-0.019
-301.793	-200.000	0.021	-0.201
-300.778	-121.913	0.340	0.056
-299.764	-200.000	0.015	0.293
-298.749	-96.311	0.146	0.039
-297.735	800.000	-0.014	0.058
-296.720	-200.000	0.005	0.273
-295.705	62.841	-0.133	0.133
-294.691	-200.000	-0.011	0.133
-293.676	-81.085	0.187	0.062
-292.662	-127.157	-0.139	-0.020
-291.647	800.000	0.066	0.244
-290.632	-200.000	-0.011	0.191
-289.618	-200.000	-0.010	0.118
-288.603	800.000	-0.038	-0.133
-287.589	-200.000	-0.061	0.436
-286.574	-200.000	0.018	-0.179
-285.559	409.945	0.064	0.136
-284.545	-200.000	0.000	0.066
-283.530	176.013	0.105	0.153
-282.516	352.274	0.203	0.401
-281.501	-68.912	-0.152	0.059
-280.486	54.433	-0.266	-0.256
-279.472	-200.000	0.022	-0.096
-278.457	20.212	0.026	-0.021
-277.443	800.000	0.042	-0.149
-276.428	-200.000	-0.024	-0.141
-275.413	306.677	0.053	-0.098
-274.399	-7.107	-0.236	-0.160
-273.384	0.578	0.157	-0.112
-272.370	-158.013	-0.017	0.001
-271.355	-135.822	0.436	-0.051
-270.340	-107.630	-0.231	-0.050
-269.326	97.758	0.058	-0.066
-268.311	-1.487	-0.241	0.169
-267.297	-200.000	-0.070	0.423
-266.282	-114.194	0.115	0.022
-265.267	316.762	-0.125	-0.236
-264.253	34.621	0.185	0.161
-263.238	-200.000	-0.016	0.547
-262.224	-200.000	0.049	0.249
-261.209	-90.889	-0.170	0.049
-260.195	-200.000	0.033	-0.173
-259.180	-200.000	-0.012	0.151
-258.165	-48.015	-0.241	0.116
-257.151	-200.000	-0.068	0.308
-256.136	800.000	0.041	-0.179
-255.122	-200.000	0.023	0.140
-254.107	481.563	0.191	0.433
-253.092	524.830	-0.183	0.429
-252.078	-71.864	0.197	-0.073
-251.063	-42.498	0.271	-0.138
-250.049	66.924	-0.302	-0.307
-249.034	-200.000	0.015	-0.075
-248.019	-39.681	-0.211	0.110
-247.005	-200.000	-0.007	-0.091
-245.990	33.247	0.087	-0.075
-244.976	-167.844	0.362	0.014
-243.961	-69.944	-0.271	0.103
-242.946	-55.507	0.207	-0.092
-241.932	13.701	0.112	-0.087
-240.917	-200.000	-0.004	-0.073
-239.903	-81.796	0.155	-0.050
-238.888	-104.409	0.097	-0.022
-237.873	-77.971	0.455	0.156
-236.859	-8.062	0.153	0.102
-235.844	161.988	-0.165	0.230
-234.830	800.000	-0.040	-0.131
-233.815	81.390	0.178	-0.192
-232.800	108.039	-0.169	0.200
-231.786	146.492	0.198	-0.265
-230.771	800.000	0.072	0.218
-229.757	185.399	0.120	0.177
-228.742	360.873	0.087	0.174
-227.727	800.000	0.053	-0.155
-226.713	-64.485	-0.031	0.012
-225.698	-152.282	-0.313	0.023
-224.684	800.000	-0.030	0.085
-223.669	-200.000	0.001	-0.278
-222.655	268.930	-0.136	-0.238
-221.640	24.872	0.235	-0.194
-220.625	-67.691	-0.081	-0.031
-219.611	129.069	-0.183	0.232
-218.596	-156.487	0.269	-0.017
-217.582	347.562	0.138	-0.270
-216.567	282.253	0.055	0.097
-215.552	9.198	-0.151	-0.113
-214.538	-65.511	-0.025	0.010
-213.523	-123.110	-0.406	0.065
-212.509	-200.000	0.007	0.158
-211.494	-13.619	-0.161	-0.103
-210.479	165.624	-0.097	0.137
-209.465	-42.273	-0.074	-0.038
-208.450	-3.681	0.174	0.120
-207.436	-100.779	0.540	-0.132
-206.421	800.000	0.042	-0.124
-205.406	-44.518	0.231	-0.115
-204.392	36.081	0.141	0.124
-203.377	-90.325	-0.323	-0.093
-202.363	-200.000	0.021	-0.263
-201.348	47.961	0.212	-0.197
-200.333	67.857	0.020	-0.020
-199.319	483.214	-0.065	0.148
-198.304	-132.265	-0.245	0.032
-197.290	-161.085	0.276	0.014
-196.275	97.089	-0.121	-0.138
-195.260	-109.933	-0.163	-0.034
-194.246	-110.748	0.198	-0.041
-193.231	-120.655	0.124	-0.021
-192.217	-56.070	0.121	-0.054
-191.202	-100.238	0.231	-0.057
-190.187	-68.229	0.037	-0.014
-189.173	30.783	0.278	0.236
-188.158	608.006	-0.102	-0.254
-187.144	800.000	-0.015	0.046
-186.129	800.000	-0.039	0.145
-185.114	-23.996	-0.342	0.203
-184.100	-200.000	0.009	0.127
-183.085	-102.124	-0.152	0.036
-182.071	184.251	-0.068	-0.100
-181.056	-200.000	0.005	-0.153
-180.042	-53.226	0.268	-0.122
-179.027	-200.000	-0.051	-0.322
-178.012	-97.279	-0.089	0.023
-176.998	800.000	0.077	0.325
-175.983	-102.687	-0.198	0.047
-174.969	-91.985	0.258	-0.073
-173.954	480.720	-0.135	-0.304
-172.939	125.216	-0.204	-0.255
-171.925	742.302	0.073	0.196
-170.910	-143.052	0.156	-0.015
-169.896	-118.516	-0.182	0.032
-168.881	729.963	0.119	0.315
-167.866	-200.000	-0.002	0.056
-166.852	585.149	0.053	-0.131
-165.837	800.000	-0.065	-0.261
-164.823	455.298	0.035	0.077
-163.808	300.664	-0.050	0.091
-162.793	159.317	-0.037	0.051
-161.779	-33.591	-0.226	-0.124
-160.764	800.000	-0.048	0.135
-159.750	582.800	-0.089	0.216
-158.735	-200.000	-0.031	0.149
-157.720	384.076	0.031	-0.063
-156.706	-171.762	0.233	-0.008
-155.691	167.398	0.283	0.399
-154.677	128.335	-0.297	0.375
-153.662	800.000	0.059	-0.179
-152.647	-200.000	0.014	-0.079
-151.633	296.846	-0.096	-0.174
-150.618	56.597	0.142	0.137
-149.604	-21.311	-0.186	0.113
-148.589	-200.000	0.027	-0.126
-147.574	800.000	-0.012	-0.050
-146.560	250.324	0.153	-0.258
-145.545	413.073	0.098	0.207
-144.531	-121.527	0.039	0.006
-143.516	800.000	-0.063	-0.197
-142.502	-200.000	0.033	0.194
-141.487	247.881	-0.285	-0.478
-140.472	-86.512	0.250	0.076
-139.458	365.841	-0.123	-0.245
-138.443	-200.000	0.064	0.284
-137.429	-200.000	-0.015	0.083
-136.414	-200.000	0.010	0.191
-135.399	-57.881	-0.195	-0.085
-134.385	-103.130	0.244	0.057
-133.370	111.583	0.142	0.169
-132.356	-200.000	0.049	0.214
-131.341	-60.780	-0.378	0.159
-130.326	289.595	-0.131	0.236
-129.312	-48.560	0.451	-0.215
-128.297	-200.000	-0.054	-0.300
-127.283	-35.038	0.078	-0.042
-126.268	-71.594	-0.369	0.137
-125.253	161.510	0.041	-0.057
-124.239	9.480	-0.122	-0.092
-123.224	-200.000	0.037	-0.199
-122.210	-1.522	-0.193	-0.135
-121.195	-66.450	0.374	0.147
-120.180	-48.887	-0.302	-0.143
-119.166	183.146	-0.064	0.094
-118.151	-99.790	-0.127	-0.032
-117.137	-127.310	-0.184	0.027
-116.122	-131.137	-0.230	-0.030
-115.107	37.918	0.245	0.215
-114.093	-59.413	0.127	-0.054
-113.078	800.000	-0.029	-0.103
-112.064	-55.965	-0.064	0.028
-111.049	-200.000	-0.028	-0.132
-110.034	-140.786	-0.297	0.030
-109.020	-200.000	0.047	0.287
-108.005	-75.151	-0.273	0.097
-106.991	121.123	0.244	-0.301
-105.976	-200.000	-0.015	-0.072
-104.962	-200.000	0.013	0.057
-103.947	800.000	0.039	0.155
-102.932	-200.000	-0.014	-0.088
-101.918	304.812	0.073	-0.134
-100.903	-200.000	0.035	-0.180
-99.889	101.894	0.154	-0.178
-98.874	83.526	-0.121	0.130
-97.859	8.310	0.260	0.194
-96.845	-65.694	-0.153	-0.061
-95.830	-130.617	-0.305	-0.041
-94.816	60.760	0.190	0.186
-93.801	242.736	0.104	0.172
-92.786	308.312	-0.216	0.399
-91.772	21.422	0.099	0.079
-90.757	-200.000	-0.149	0.000
-89.743	-130.937	0.179	0.024
-88.728	800.000	-0.122	-0.355
-87.713	-146.287	0.086	-0.007
-86.699	7.872	0.198	-0.147
-85.684	21.763	0.247	0.199
-84.670	296.875	0.123	0.223
-83.655	518.683	0.182	0.423
-82.640	-102.400	0.304	0.072
-81.626	-107.957	-0.068	-0.015
-80.611	506.799	0.077	0.177
-79.597	118.339	-0.163	0.200
-78.582	131.179	-0.219	-0.279
-77.567	-109.668	0.040	0.008
-76.553	-28.284	-0.113	0.064
-75.538	-56.429	0.168	0.074
-74.524	70.793	0.081	-0.082
-73.509	36.918	-0.249	0.218
-72.494	12.071	0.099	0.075
-71.480	-122.298	0.176	-0.029
-70.465	-83.293	-0.292	0.093
-69.451	800.000	-0.054	0.230
-68.436	-93.680	-0.195	0.053
-67.422	162.739	0.131	-0.182
-66.407	37.268	0.171	0.150
-65.392	-105.461	-0.034	-0.008
-64.378	-116.325	0.384	0.070
-63.363	247.581	-0.062	0.103
-62.349	163.189	0.208	0.290
-61.334	-2.108	-1.013	-0.704
-60.319	298.891	0.182	0.332
-59.305	-200.000	-0.250	-1.113
-58.290	67.373	0.734	0.741
-57.276	-200.000	0.314	1.702
-56.261	-200.000	88.955	500.175
-55.246	513.291	1406.593	3242.293
-54.232	183.734	2620.363	3831.504
-53.217	112.183	2342.281	2799.268
-52.203	45.167	1947.774	1774.936
-51.188	39.397	1733.804	1535.066
-50.173	36.681	1688.597	1474.324
-49.159	52.152	1732.881	1632.669
-48.144	55.543	1751.387	1676.207
-47.130	39.300	1709.875	1512.899
-46.115	36.194	1695.425	1476.320
-45.100	36.096	1689.967	1470.762
-44.086	36.092	1687.740	1468.735
-43.071	36.111	1685.016	1466.453
-42.057	35.996	1682.981	1463.746
-41.042	36.094	1680.279	1462.083
-40.027	36.192	1678.568	1461.278
-39.013	36.048	1677.155	1458.898
-37.998	35.989	1675.285	1456.770
-36.984	36.132	1673.902	1456.589
-35.969	36.223	1672.679	1456.152
-34.954	36.202	1671.096	1454.564
-33.940	36.271	1669.084	1453.273
-32.925	36.266	1667.102	1451.447
-31.911	36.205	1665.499	1449.536
-30.896	36.165	1663.789	1447.690
-29.881	36.233	1661.867	1446.474
-28.867	36.174	1660.849	1445.087
-27.852	36.310	1658.959	1444.405
-26.838	36.255	1657.297	1442.486
-25.823	36.218	1656.368	1441.348
-24.809	36.420	1654.116	1440.834
-23.794	36.237	1653.280	1438.684
-22.779	36.248	1651.827	1437.449
-21.765	36.243	1650.077	1435.831
-20.750	36.265	1648.289	1434.377
-19.736	36.231	1647.171	1433.100
-18.721	36.314	1645.379	1432.096
-17.706	36.273	1644.035	1430.567
-16.692	36.198	1642.729	1428.821
-15.677	36.324	1640.697	1427.929
-14.663	36.305	1639.503	1426.692
-13.648	36.380	1637.817	1425.719
-12.633	36.326	1636.511	1424.128
-11.619	36.258	1635.237	1422.466
-10.604	36.277	1633.884	1421.371
-9.590	36.247	1632.289	1419.707
-8.575	36.267	1631.081	1418.743
-7.560	36.255	1629.592	1417.301
-6.546	36.261	1628.872	1416.664
-5.531	36.208	1627.349	1414.895
-4.517	36.255	1626.058	1414.060
-3.502	36.200	1625.742	1413.329
-2.487	36.376	1623.740	1412.817
-1.473	36.404	1613.271	1403.858
-0.458	34.389	1594.460	1372.940
0.556	29.957	1595.008	1342.406
1.571	27.466	1619.553	1344.576
2.586	26.749	1633.245	1350.483
3.600	23.733	1579.610	1284.250
4.615	14.507	1465.347	1129.064
5.629	6.472	1397.307	1024.482
6.644	5.133	1388.305	1009.141
7.659	5.028	1386.843	1007.307
8.673	4.965	1385.741	1006.010
9.688	4.925	1384.376	1004.674
10.702	4.839	1381.330	1001.825
11.717	8.618	1388.604	1031.405
12.731	16.749	1404.040	1095.580
13.746	20.163	1408.813	1121.327
14.761	18.626	1404.360	1107.766
15.775	17.370	1401.420	1097.254
16.790	16.259	1398.565	1087.767
17.804	15.472	1396.120	1080.705
18.819	15.070	1394.301	1076.613
19.834	14.782	1393.245	1073.857
20.848	14.472	1392.153	1070.929
21.863	14.265	1390.859	1068.508
22.877	14.124	1389.608	1066.547
23.892	14.156	1388.840	1066.067
24.907	14.101	1388.137	1065.086
25.921	14.120	1386.879	1064.143
26.936	14.142	1386.189	1063.663
27.950	14.212	1385.012	1063.110
28.965	14.215	1383.932	1062.209
29.980	14.246	1382.923	1061.540
30.994	14.391	1381.692	1061.423
32.009	14.414	1380.474	1060.540
33.023	14.293	1379.503	1058.934
34.038	14.247	1378.337	1057.652
35.053	14.121	1376.946	1055.687
36.067	14.272	1375.873	1055.730
37.082	14.258	1374.599	1054.572
38.096	14.283	1373.389	1053.709
39.111	14.257	1372.726	1052.940
40.126	14.240	1371.800	1052.028
41.140	14.118	1370.896	1050.473
42.155	14.040	1370.386	1049.494
43.169	14.050	1370.435	1049.507
44.184	14.015	1369.679	1048.615
45.199	14.019	1369.986	1048.779
46.213	14.086	1368.889	1048.269
47.228	14.176	1367.824	1047.929
48.242	14.232	1366.329	1047.042
49.257	14.200	1365.462	1046.084
50.271	14.236	1363.636	1044.820
51.286	14.164	1362.797	1043.631
52.301	14.200	1361.011	1042.395
53.315	14.138	1359.792	1040.983
54.330	13.981	1359.388	1039.599
55.344	14.062	1357.832	1038.827
56.359	14.046	1356.870	1037.895
57.374	14.002	1355.834	1036.737
58.388	13.984	1354.994	1035.890
59.403	13.927	1354.744	1035.255
60.417	13.905	1354.026	1034.476
61.432	14.056	1352.776	1034.367
62.447	13.969	1351.879	1033.050
63.461	13.877	1350.758	1031.533
64.476	13.874	1349.954	1030.810
65.490	13.897	1348.724	1029.920
66.505	13.859	1346.889	1028.190
67.520	13.880	1345.663	1027.298
68.534	14.039	1344.563	1027.347
69.549	13.945	1343.444	1025.817
70.563	13.887	1342.388	1024.563
71.578	13.846	1341.139	1023.268
72.593	13.716	1340.722	1022.057
73.607	13.774	1339.977	1021.760
74.622	13.809	1339.103	1021.218
75.636	13.881	1338.145	1020.838
76.651	13.868	1337.331	1020.046
77.666	13.819	1337.300	1019.634
78.680	13.807	1336.543	1018.891
79.695	13.898	1335.871	1018.844
80.709	14.023	1334.908	1018.788
81.724	14.018	1334.259	1018.172
82.739	14.055	1333.353	1017.619
83.753	14.124	1332.655	1017.419
84.768	14.149	1331.269	1016.420
85.782	14.270	1330.367	1016.380
86.797	14.118	1329.347	1014.583
87.812	14.170	1327.694	1013.553
88.826	14.181	1326.677	1012.749
89.841	14.207	1325.941	1012.259
90.855	14.231	1324.638	1011.321
91.870	14.325	1323.504	1010.935
92.884	14.248	1323.227	1010.165
93.899	14.270	1321.947	1009.235
94.914	14.299	1321.261	1008.794
95.928	14.342	1320.514	1008.398
96.943	14.246	1319.843	1007.213
97.957	14.233	1318.375	1005.926
98.972	14.253	1317.764	1005.494
99.987	14.298	1316.472	1004.689
101.001	14.186	1316.007	1003.568
102.016	14.222	1314.759	1002.743
103.030	14.325	1313.661	1002.439
104.045	14.252	1312.986	1001.395
105.060	14.217	1311.448	999.925
106.074	14.054	1310.271	997.962
107.089	13.984	1308.556	996.149
108.103	13.957	1307.551	995.133
109.118	13.911	1306.591	994.039
110.133	13.882	1305.079	992.626
111.147	14.016	1303.615	992.222
112.162	13.972	1302.589	991.096
113.176	14.015	1301.019	990.069
114.191	14.123	1300.153	989.961
115.206	14.020	1299.089	988.455
116.220	14.073	1297.557	987.516
117.235	14.066	1296.531	986.604
118.249	13.944	1295.822	985.254
119.264	13.990	1294.715	984.598
120.279	13.911	1293.660	983.242
121.293	14.005	1292.680	982.969
122.308	13.877	1291.464	981.197
123.322	13.870	1290.157	980.078
124.337	13.972	1289.541	980.123
125.352	13.961	1288.135	978.904
126.366	13.971	1286.970	977.990
127.381	13.937	1285.872	976.872
128.395	13.958	1285.064	976.291
129.410	13.937	1284.064	975.322
130.424	14.046	1283.175	975.199
131.439	13.954	1282.524	974.081
132.454	14.064	1281.696	974.010
133.468	14.097	1280.919	973.528
134.483	14.104	1280.351	973.052
135.497	14.170	1278.866	972.224
136.512	14.115	1277.715	970.940
137.527	14.203	1276.401	970.368
138.541	14.189	1274.819	969.000
139.556	14.156	1273.413	967.652
140.570	14.164	1272.874	967.201
141.585	14.246	1271.237	966.350
142.600	14.246	1270.292	965.546
143.614	14.281	1269.523	965.078
144.629	14.413	1267.902	964.524
145.643	14.370	1266.961	963.478
146.658	14.252	1265.914	961.915
147.673	14.240	1264.101	960.379
148.687	14.175	1262.841	958.966
149.702	14.176	1261.501	957.866
150.716	14.169	1260.024	956.621
151.731	14.143	1259.121	955.698
152.746	14.188	1257.928	954.970
153.760	14.313	1256.383	954.426
154.775	14.172	1255.604	952.941
155.789	14.298	1254.438	952.698
156.804	14.251	1253.347	951.515
157.819	14.422	1252.604	951.841
158.833	14.418	1251.436	950.849
159.848	14.373	1250.849	950.064
160.862	14.331	1250.161	949.215
161.877	14.220	1248.602	947.314
162.892	14.251	1247.251	946.385
163.906	14.235	1246.579	945.700
164.921	14.302	1245.597	945.251
165.935	14.231	1244.855	944.203
166.950	14.302	1243.953	943.834
167.964	14.391	1243.213	943.696
168.979	14.366	1242.315	942.791
169.994	14.354	1241.608	942.098
171.008	14.340	1241.180	941.611
172.023	14.394	1240.579	941.379
173.037	14.550	1239.356	941.249
174.052	14.364	1238.418	939.403
175.067	14.328	1237.711	938.580
176.081	14.377	1236.532	937.879
177.096	14.294	1235.193	936.314
178.110	14.366	1234.243	935.919
179.125	14.416	1233.270	935.379
180.140	14.403	1231.895	934.179
181.154	14.378	1231.009	933.283
182.169	14.412	1229.864	932.525
183.183	14.495	1228.526	931.889
184.198	14.603	1227.321	931.497
185.213	14.613	1226.259	930.664
186.227	14.645	1224.669	929.555
187.242	14.575	1224.105	928.651
188.256	14.615	1223.242	928.140
189.271	14.749	1222.014	927.870
190.286	14.588	1220.865	926.019
191.300	14.352	1220.607	924.434
192.315	14.387	1219.409	923.636
193.329	14.403	1218.800	923.183
194.344	14.350	1218.225	922.373
195.359	14.490	1217.477	922.502
196.373	14.600	1216.957	922.631
197.388	14.565	1216.647	922.122
198.402	14.697	1216.159	922.400
199.417	14.798	1215.663	922.499
200.432	14.929	1214.191	922.027
201.446	14.896	1213.346	921.119
202.461	14.977	1212.686	920.982
203.475	14.838	1211.902	919.543
204.490	14.856	1210.797	918.721
205.504	14.779	1209.533	917.258
206.519	14.789	1208.409	916.378
207.534	14.861	1206.736	915.421
208.548	14.732	1206.144	914.188
209.563	14.717	1205.599	913.610
210.577	14.844	1204.311	913.248
211.592	14.779	1203.942	912.530
212.607	14.903	1203.129	912.514
213.621	14.881	1201.855	911.347
214.636	14.872	1201.110	910.653
215.650	14.949	1199.984	910.132
216.665	14.953	1199.248	909.518
217.680	15.044	1198.311	909.222
218.694	15.014	1197.670	908.492
219.709	14.992	1196.814	907.643
220.723	14.984	1195.948	906.864
221.738	14.932	1195.498	906.160
222.753	14.977	1194.798	905.792
223.767	15.052	1193.759	905.332
224.782	15.218	1192.867	905.471
225.796	15.075	1193.085	904.785
226.811	15.146	1191.876	904.167
227.826	15.136	1190.989	903.360
228.840	15.083	1190.303	902.479
229.855	15.199	1189.464	902.385
230.869	15.153	1188.789	901.548
231.884	15.212	1187.500	900.805
232.899	15.119	1187.023	899.863
233.913	15.056	1186.269	898.875
234.928	15.046	1185.758	898.352
235.942	15.008	1184.843	897.375
236.957	15.058	1183.733	896.724
237.972	15.061	1183.217	896.274
238.986	15.087	1182.416	895.727
240.001	15.089	1181.984	895.327
241.015	15.211	1180.797	895.001
242.030	15.104	1180.401	894.053
243.045	15.266	1179.452	894.118
244.059	15.252	1178.805	893.473
245.074	15.207	1178.062	892.589
246.088	15.295	1177.019	892.189
247.103	15.238	1176.436	891.365
248.117	15.216	1175.917	890.775
249.132	15.520	1174.883	891.530
250.147	15.576	1174.397	891.376
251.161	15.609	1173.218	890.581
252.176	15.600	1172.760	890.107
253.190	15.623	1172.203	889.727
254.205	15.643	1171.723	889.391
255.220	15.609	1171.546	888.994
256.234	15.694	1170.482	888.560
257.249	15.716	1169.898	888.156
258.263	15.651	1169.340	887.306
259.278	15.740	1168.674	887.192
260.293	15.735	1168.170	886.708
261.307	15.706	1167.535	885.991
262.322	15.841	1166.758	886.038
263.336	15.804	1165.942	885.145
264.351	15.878	1165.432	885.067
265.366	15.885	1164.738	884.497
266.380	15.848	1163.818	883.528
267.395	15.826	1163.026	882.733
268.409	15.730	1162.170	881.500
269.424	15.891	1161.503	881.759
270.439	15.887	1160.658	881.022
271.453	15.841	1160.107	880.283
272.468	15.821	1159.001	879.260
273.482	15.744	1158.411	878.334
274.497	15.726	1158.226	878.023
275.512	15.813	1157.188	877.610
276.526	15.834	1156.371	877.026
277.541	15.846	1155.760	876.546
278.555	15.908	1154.797	876.060
279.570	15.970	1153.884	875.610
280.585	16.008	1153.361	875.335
281.599	15.970	1152.979	874.773
282.614	16.003	1151.345	873.626
283.628	15.953	1150.328	872.515
284.643	15.959	1149.089	871.530
285.657	16.009	1148.655	871.385
286.672	15.984	1147.568	870.353
287.687	16.096	1146.551	870.079
288.701	15.888	1146.000	868.513
289.716	16.041	1144.935	868.416
290.730	16.062	1144.545	868.154
291.745	16.133	1143.896	867.949
292.760	16.093	1143.260	867.184
293.774	16.059	1142.874	866.638
294.789	16.141	1142.356	866.592
295.803	16.239	1141.767	866.570
296.818	16.125	1141.034	865.353
297.833	16.172	1139.879	864.642
298.847	16.214	1139.355	864.385
299.862	16.292	1137.923	863.617
300.876	16.212	1137.794	863.037
301.891	16.300	1137.056	862.851
302.906	16.378	1136.271	862.577
303.920	16.266	1135.658	861.462
304.935	16.438	1134.860	861.656
305.949	16.480	1134.088	861.212
306.964	16.477	1133.565	860.721
307.979	16.431	1132.976	859.963
308.993	16.500	1131.904	859.426
310.008	16.414	1131.342	858.483
311.022	16.475	1130.785	858.294
312.037	16.473	1129.773	857.444
313.052	16.432	1128.621	856.286
314.066	16.474	1127.110	855.272
315.081	16.446	1126.675	854.725
316.095	16.352	1126.123	853.758
317.110	16.403	1125.368	853.367
318.125	16.349	1124.741	852.542
319.139	16.444	1123.962	852.356
320.154	16.397	1123.129	851.411
321.168	16.371	1122.795	850.953
322.183	16.485	1121.871	850.750
323.197	16.391	1121.860	850.196
324.212	16.531	1120.573	849.846
325.227	16.501	1120.308	849.419
326.241	16.520	1119.503	848.833
327.256	16.472	1118.971	848.113
328.270	16.486	1117.530	847.015
329.285	16.553	1116.522	846.513
330.300	16.630	1115.583	846.107
331.314	16.479	1114.983	844.826
332.329	16.476	1114.189	844.134
333.343	16.599	1113.305	844.001
334.358	16.649	1112.050	843.226
335.373	16.697	1111.066	842.644
336.387	16.590	1111.187	842.128
337.402	16.748	1109.897	841.861
338.416	16.828	1109.454	841.849
339.431	16.836	1109.005	841.473
340.446	16.838	1108.248	840.836
341.460	16.897	1107.614	840.572
342.475	16.845	1106.838	839.652
343.489	16.875	1106.061	839.133
344.504	16.989	1104.885	838.732
345.519	17.052	1104.005	838.301
346.533	17.050	1103.370	837.736
347.548	17.145	1102.389	837.385
348.562	17.048	1101.842	836.417
349.577	16.924	1101.035	835.119
350.592	16.930	1100.328	834.540
351.606	16.856	1099.573	833.530
352.621	16.841	1099.107	833.028
353.635	16.818	1098.375	832.284
354.650	16.865	1097.597	831.854
355.665	16.921	1096.898	831.524
356.679	16.904	1096.227	830.857
357.694	16.860	1095.725	830.191
358.708	17.087	1094.756	830.492
359.723	17.103	1094.208	830.084
360.738	17.013	1093.915	829.347
361.752	17.052	1092.987	828.758
362.767	17.039	1092.704	828.409
363.781	17.033	1091.868	827.674
364.796	17.068	1091.344	827.372
365.810	17.175	1090.596	827.256
366.825	17.319	1089.901	827.355
367.840	17.319	1089.486	826.968
368.854	17.322	1088.849	826.421
369.869	17.304	1088.333	825.869
370.883	17.303	1087.131	824.883
371.898	17.203	1086.356	823.734
372.913	17.310	1085.903	823.836
373.927	17.393	1085.084	823.544
374.942	17.321	1085.044	823.094
375.956	17.338	1084.685	822.829
376.971	17.352	1083.828	822.176
377.986	17.484	1083.105	822.191
379.000	17.480	1082.957	821.985
380.015	17.593	1082.093	821.804
381.029	17.598	1081.328	821.174
382.044	17.597	1080.527	820.489
383.059	17.541	1079.885	819.658
384.073	17.548	1079.100	819.023
385.088	17.588	1078.433	818.638
386.102	17.671	1077.179	818.012
387.117	17.550	1076.397	816.767
388.132	17.436	1075.591	815.536
389.146	17.503	1074.541	814.989
390.161	17.436	1073.998	814.181
391.175	17.478	1072.994	813.551
392.190	17.561	1072.507	813.508
393.205	17.723	1071.854	813.710
394.219	17.726	1070.878	812.914
395.234	17.672	1069.961	811.889
396.248	17.634	1068.915	810.841
397.263	17.668	1067.634	809.961
398.278	17.553	1067.370	809.140
399.292	17.515	1066.673	808.361
400.307	17.478	1065.747	807.411
401.321	17.485	1065.651	807.300
402.336	17.543	1064.719	806.800
403.350	17.568	1064.037	806.326
404.365	17.548	1063.397	805.678
405.380	17.769	1062.209	805.752
406.394	17.774	1061.521	805.182
407.409	17.672	1061.305	804.465
408.423	17.821	1060.255	804.300
409.438	17.870	1059.674	804.019
410.453	17.964	1058.973	803.859
411.467	17.989	1058.159	803.288
412.482	18.016	1057.981	803.208
413.496	18.068	1056.676	802.390
414.511	17.986	1056.082	801.482
415.526	18.169	1055.907	802.140
416.540	18.145	1055.615	801.733
417.555	18.111	1055.080	801.093
418.569	18.011	1054.687	800.259
419.584	17.980	1054.445	799.857
420.599	17.989	1053.955	799.459
421.613	145.616	1399.466	1784.402
422.628	133.541	1449.807	1784.523
