DTS Sentinel unit serial number:	SN413079Multiplexer serial number:	ORYXHardware model number:	OX4-SRSoftware version number:	ORYX F/W v4.00 Oryx Data Collector v3.7.2.0data status	okinstallation	princeton_trtdifferential loss correction	single-endedforward channel	channel 2reverse channel	N/Adate	2019/09/17time	00:23:34forward acquisition time	60.00reverse acquisition time	0.00gamma	496.2192k internal	0.2329k external	0.2329temperature offset calibration	0.9974default loss term (dB/km)	0.3790temperature slope calibration	1.0000multiplexer offset coefficient	1.0000multiplexer slope coefficient	1.0000fibre end	0.00T internal ref (°C)	29.50T ext. ref 1 (°C)	0.10T ext. ref 2 (°C)	23.58length (m)	temperature (°C)	Stokes	anti-Stokes-747.200	-18.799	0.326	-0.204
-746.185	-200.000	0.064	0.369
-745.171	-200.000	0.024	-0.321
-744.156	31.858	0.048	0.041
-743.142	-113.004	0.334	0.066
-742.127	-143.656	-0.174	0.017
-741.112	30.952	0.122	0.105
-740.098	-44.886	-0.092	0.046
-739.083	-32.540	-0.152	-0.085
-738.069	218.938	0.132	0.213
-737.054	-168.028	-0.320	-0.013
-736.039	800.000	0.093	-0.274
-735.025	-130.699	0.259	-0.035
-734.010	-200.000	0.022	0.380
-732.996	446.182	0.073	0.160
-731.981	-200.000	-0.026	-0.185
-730.966	-200.000	0.049	-0.336
-729.952	-200.000	0.030	-0.253
-728.937	778.900	-0.085	-0.233
-727.923	164.720	-0.062	0.088
-726.908	-3.283	0.224	-0.157
-725.894	485.445	-0.067	-0.155
-724.879	-200.000	-0.295	0.001
-723.864	4.988	0.062	-0.046
-722.850	-200.000	-0.011	0.057
-721.835	-113.798	0.114	-0.022
-720.821	-117.625	-0.278	0.050
-719.806	-139.735	-0.289	-0.031
-718.791	-29.424	0.098	-0.056
-717.777	-93.042	-0.378	-0.106
-716.762	-17.368	-0.222	-0.141
-715.748	40.109	-0.490	-0.443
-714.733	10.092	-0.130	-0.099
-713.718	800.000	-0.038	0.128
-712.704	457.190	-0.044	0.099
-711.689	76.939	-0.213	-0.227
-710.675	-71.529	0.118	0.045
-709.660	-113.647	-0.309	-0.061
-708.645	9.186	0.024	-0.018
-707.631	800.000	0.072	-0.217
-706.616	-200.000	0.010	0.118
-705.602	-200.000	0.144	-0.001
-704.587	-103.780	-0.019	-0.004
-703.572	-197.382	-0.073	-0.000
-702.558	-122.961	0.160	0.026
-701.543	-200.000	-0.071	-0.354
-700.529	-91.381	0.248	0.071
-699.514	-200.000	0.014	-0.103
-698.499	-200.000	0.032	0.238
-697.485	-4.697	0.150	0.104
-696.470	-200.000	-0.020	-0.093
-695.456	-143.349	-0.206	0.020
-694.441	800.000	0.088	-0.325
-693.426	-190.124	-0.185	0.002
-692.412	115.225	-0.113	0.139
-691.397	173.850	0.102	-0.148
-690.383	-66.628	-0.248	-0.099
-689.368	61.558	0.274	-0.273
-688.354	-165.653	0.341	0.015
-687.339	18.877	-0.168	-0.136
-686.324	74.825	-0.193	0.204
-685.310	316.650	0.128	0.243
-684.295	800.000	-0.079	0.311
-683.281	-13.456	0.288	0.188
-682.266	-137.784	-0.404	0.046
-681.251	800.000	-0.076	-0.332
-680.237	-200.000	-0.057	0.252
-679.222	550.495	-0.085	-0.205
-678.208	-26.842	-0.083	-0.049
-677.193	-163.449	0.273	0.013
-676.178	-200.000	0.023	0.502
-675.164	-200.000	0.043	0.224
-674.149	96.098	-0.060	0.069
-673.135	-20.103	-0.168	-0.104
-672.120	17.960	0.181	-0.145
-671.105	-1.926	0.099	0.070
-670.091	-200.000	0.008	-0.045
-669.076	-109.001	0.184	0.039
-668.062	87.634	-0.218	-0.243
-667.047	800.000	0.101	-0.316
-666.032	800.000	-0.032	0.105
-665.018	416.554	0.141	-0.302
-664.003	800.000	0.081	0.342
-662.989	103.082	-0.106	-0.125
-661.974	-161.797	-0.032	0.002
-660.959	-30.629	-0.113	0.064
-659.945	-103.518	0.126	-0.030
-658.930	53.006	-0.216	-0.207
-657.916	-200.000	-0.243	0.000
-656.901	-60.961	-0.234	-0.099
-655.886	-127.330	-0.128	0.019
-654.872	-65.323	-0.133	0.054
-653.857	14.947	-0.158	-0.124
-652.843	71.765	-0.073	0.077
-651.828	24.268	-0.089	-0.073
-650.814	-145.986	0.207	-0.018
-649.799	-139.045	-0.075	-0.008
-648.784	-64.370	-0.479	0.195
-647.770	17.002	-0.307	0.244
-646.755	-39.568	-0.211	0.111
-645.741	-0.490	-0.222	0.158
-644.726	-63.527	-0.139	-0.057
-643.711	-200.000	0.013	0.119
-642.697	-15.912	-0.261	0.167
-641.682	-200.000	0.060	-0.301
-640.668	-75.083	0.250	-0.090
-639.653	-200.000	-0.040	-0.180
-638.638	-200.000	0.005	-0.339
-637.624	-200.000	-0.028	0.300
-636.609	-35.399	-0.185	-0.101
-635.595	800.000	-0.071	0.258
-634.580	-84.774	0.111	-0.035
-633.565	-138.316	0.324	-0.036
-632.551	-161.419	-0.120	0.006
-631.536	116.122	0.148	-0.181
-630.522	-56.124	-0.307	-0.137
-629.507	-6.162	0.099	-0.068
-628.492	-120.022	-0.093	0.016
-627.478	-84.526	-0.380	-0.120
-626.463	-73.821	0.095	-0.035
-625.449	40.855	0.252	-0.228
-624.434	-18.317	-0.097	0.061
-623.419	-144.288	-0.216	-0.020
-622.405	-200.000	0.026	-0.285
-621.390	-171.918	0.160	0.005
-620.376	-83.783	-0.407	-0.130
-619.361	-144.873	-0.087	0.008
-618.346	201.910	0.136	-0.211
-617.332	-83.173	-0.371	-0.120
-616.317	66.828	-0.203	-0.207
-615.303	-200.000	0.005	-0.108
-614.288	272.387	0.114	-0.202
-613.273	-2.746	-0.335	-0.235
-612.259	111.729	0.079	-0.096
-611.244	-162.343	-0.068	-0.003
-610.230	186.361	0.099	-0.147
-609.215	-165.509	0.064	-0.003
-608.201	-113.777	-0.181	-0.035
-607.186	800.000	-0.094	-0.271
-606.171	-29.259	-0.234	0.134
-605.157	-200.000	-0.053	0.360
-604.142	-8.852	-0.160	-0.108
-603.128	94.318	-0.187	-0.212
-602.113	800.000	0.087	-0.307
-601.098	-200.000	0.058	0.256
-600.084	224.600	0.049	0.080
-599.069	-114.426	0.204	0.039
-598.055	545.838	0.057	-0.135
-597.040	-65.456	-0.195	-0.079
-596.025	1.588	0.152	-0.110
-595.011	-76.354	0.182	0.064
-593.996	-200.000	-0.003	0.080
-592.982	-10.200	-0.176	-0.117
-591.967	-77.614	0.162	-0.056
-590.952	-95.528	-0.259	0.069
-589.938	-188.214	0.129	-0.002
-588.923	-196.150	-0.279	0.002
-587.909	-200.000	-0.066	0.289
-586.894	-9.471	0.245	0.163
-585.879	348.188	-0.040	0.079
-584.865	-44.046	0.153	-0.077
-583.850	-185.343	0.068	-0.001
-582.836	660.266	-0.057	0.148
-581.821	800.000	0.056	0.235
-580.806	38.529	-0.186	-0.166
-579.792	464.900	0.074	0.166
-578.777	11.317	-0.100	0.077
-577.763	800.000	0.039	0.131
-576.748	-74.205	-0.452	-0.164
-575.733	800.000	-0.132	-0.368
-574.719	-200.000	-0.044	0.366
-573.704	-200.000	-0.066	0.303
-572.690	448.265	-0.080	-0.177
-571.675	-70.120	0.008	-0.003
-570.661	-4.700	-0.087	0.060
-569.646	34.584	-0.290	0.253
-568.631	54.832	-0.218	-0.211
-567.617	-162.958	-0.260	-0.013
-566.602	86.166	0.090	-0.100
-565.588	-85.907	-0.230	0.071
-564.573	-144.491	0.296	0.027
-563.558	-200.000	-0.027	0.231
-562.544	-75.474	-0.178	-0.063
-561.529	-143.360	-0.335	-0.032
-560.515	-125.698	0.067	0.010
-559.500	800.000	0.034	-0.148
-558.485	-200.000	0.015	0.090
-557.471	-4.780	-0.114	0.079
-556.456	-200.000	0.027	-0.332
-555.442	44.444	-0.095	-0.087
-554.427	-200.000	0.031	-0.233
-553.412	-36.744	0.349	0.187
-552.398	-200.000	0.006	0.069
-551.383	13.224	-0.128	-0.099
-550.369	247.028	-0.036	-0.061
-549.354	586.901	-0.075	0.184
-548.339	-110.599	-0.081	0.017
-547.325	-173.085	-0.096	0.003
-546.310	800.000	0.015	-0.062
-545.296	-200.000	0.043	-0.249
-544.281	271.595	-0.075	-0.132
-543.266	244.272	-0.143	0.241
-542.252	-78.970	-0.167	0.057
-541.237	-200.000	-0.014	-0.285
-540.223	27.998	0.136	-0.114
-539.208	-200.000	0.196	0.001
-538.193	-200.000	-0.012	-0.085
-537.179	-61.494	-0.256	0.107
-536.164	-200.000	0.060	0.271
-535.150	535.196	0.285	0.676
-534.135	-110.674	0.275	0.057
-533.121	27.369	-0.208	0.174
-532.106	513.418	0.183	0.425
-531.091	-49.235	0.205	-0.098
-530.077	-104.100	0.195	-0.045
-529.062	341.331	-0.156	-0.304
-528.048	-26.742	0.107	0.062
-527.033	316.737	0.150	-0.283
-526.018	261.127	0.079	0.136
-525.004	409.345	0.018	0.038
-523.989	-34.434	-0.176	0.096
-522.975	-69.242	-0.116	-0.045
-521.960	363.838	-0.147	0.294
-520.945	123.935	0.124	0.156
-519.931	606.188	0.079	0.197
-518.916	674.337	0.168	0.435
-517.902	555.121	-0.002	0.005
-516.887	122.792	0.215	-0.268
-515.872	256.910	-0.110	-0.189
-514.858	495.690	-0.120	0.274
-513.843	517.312	0.053	0.123
-512.829	-174.992	-0.314	-0.009
-511.814	1.774	0.080	-0.058
-510.799	119.569	0.102	-0.126
-509.785	37.306	-0.101	0.089
-508.770	91.191	-0.044	0.049
-507.756	-200.000	0.130	0.000
-506.741	-9.974	0.086	-0.057
-505.726	-8.756	-0.324	-0.217
-504.712	252.869	0.087	-0.148
-503.697	112.313	-0.044	-0.053
-502.683	-44.564	0.071	-0.035
-501.668	-192.359	-0.396	0.004
-500.653	-175.425	0.310	0.008
-499.639	-200.000	-0.013	-0.168
-498.624	248.835	0.064	-0.108
-497.610	86.738	0.052	0.057
-496.595	172.420	-0.060	-0.086
-495.581	-25.943	0.422	0.248
-494.566	800.000	0.037	0.139
-493.551	800.000	0.016	-0.060
-492.537	81.295	-0.152	0.164
-491.522	89.351	0.217	-0.241
-490.508	-6.122	0.182	0.124
-489.493	-106.410	0.250	-0.056
-488.478	-200.000	0.029	0.136
-487.464	27.669	0.029	-0.024
-486.449	-200.000	0.029	-0.196
-485.435	-71.186	-0.108	0.040
-484.420	692.828	-0.005	-0.013
-483.405	-156.084	0.365	-0.023
-482.391	229.457	0.106	0.173
-481.376	-114.701	0.077	0.015
-480.362	66.975	0.074	-0.075
-479.347	79.958	0.125	0.134
-478.332	145.660	-0.081	0.109
-477.318	-47.678	0.239	-0.116
-476.303	800.000	0.007	-0.023
-475.289	457.685	-0.043	-0.095
-474.274	135.476	-0.124	-0.161
-473.259	-133.524	-0.249	-0.031
-472.245	9.361	0.217	0.163
-471.230	-200.000	0.020	-0.167
-470.216	556.592	0.012	0.029
-469.201	-32.690	-0.027	-0.015
-468.186	-200.000	-0.018	0.327
-467.172	-64.784	0.325	-0.131
-466.157	-200.000	0.010	0.253
-465.143	370.023	0.048	-0.097
-464.128	-138.871	-0.221	0.024
-463.113	-172.315	-0.187	0.006
-462.099	236.674	0.088	0.145
-461.084	-127.857	-0.262	-0.038
-460.070	189.063	0.203	-0.302
-459.055	800.000	0.024	-0.068
-458.040	55.427	-0.191	0.184
-457.026	-200.000	0.017	-0.211
-456.011	-200.000	-0.007	-0.040
-454.997	230.113	0.187	-0.305
-453.982	-200.000	0.021	0.171
-452.968	-111.872	-0.275	0.055
-451.953	-118.554	0.045	0.008
-450.938	800.000	0.040	-0.129
-449.924	216.615	0.051	-0.081
-448.909	122.620	0.131	0.164
-447.895	63.222	0.087	-0.086
-446.880	763.593	-0.078	-0.212
-445.865	-137.493	0.029	-0.003
-444.851	29.650	0.149	-0.127
-443.836	-200.000	-0.004	0.298
-442.822	546.801	-0.080	-0.190
-441.807	99.648	-0.155	0.179
-440.792	-189.896	-0.358	0.004
-439.778	-152.188	0.099	0.007
-438.763	-81.623	0.347	0.113
-437.749	74.530	0.296	0.310
-436.734	387.635	0.025	-0.052
-435.719	-64.188	-0.227	-0.092
-434.705	-116.972	-0.159	-0.029
-433.690	-59.885	0.202	0.086
-432.676	302.173	0.100	0.184
-431.661	225.997	-0.150	-0.242
-430.646	-200.000	0.002	0.208
-429.632	800.000	0.084	-0.237
-428.617	-103.270	0.334	-0.078
-427.603	-23.385	-0.197	0.118
-426.588	-34.819	-0.225	-0.122
-425.573	236.457	-0.079	0.130
-424.559	-180.530	0.302	-0.006
-423.544	-96.057	-0.330	-0.087
-422.530	-42.719	-0.175	-0.089
-421.515	144.062	0.204	-0.271
-420.500	-100.913	-0.088	0.022
-419.486	393.194	0.045	0.093
-418.471	246.556	-0.323	-0.542
-417.457	-70.908	0.215	-0.081
-416.442	-10.815	0.195	0.128
-415.428	-164.654	0.264	-0.012
-414.413	-200.000	0.027	-0.137
-413.398	195.351	0.084	-0.128
-412.384	210.634	0.113	0.176
-411.369	-177.274	0.295	0.007
-410.355	-200.000	-0.024	0.245
-409.340	323.406	-0.057	0.108
-408.325	124.147	0.104	-0.130
-407.311	-68.195	-0.062	0.024
-406.296	-23.736	0.152	-0.090
-405.282	712.610	-0.047	0.124
-404.267	24.757	-0.080	-0.066
-403.252	-151.848	-0.179	-0.013
-402.238	-151.148	0.211	-0.016
-401.223	177.948	0.168	-0.244
-400.209	-27.331	0.244	0.141
-399.194	464.337	-0.042	0.093
-398.179	125.181	-0.125	0.157
-397.165	800.000	-0.024	-0.089
-396.150	800.000	0.032	0.111
-395.136	26.123	0.095	0.079
-394.121	-200.000	0.029	-0.312
-393.106	-130.555	0.278	-0.037
-392.092	800.000	0.099	-0.419
-391.077	-200.000	0.008	-0.131
-390.063	-125.367	0.262	-0.040
-389.048	-200.000	0.011	0.165
-388.033	32.019	-0.256	0.219
-387.019	139.839	-0.099	0.130
-386.004	142.258	-0.198	0.261
-384.990	-200.000	0.034	-0.280
-383.975	-9.991	0.044	0.029
-382.960	800.000	-0.057	-0.201
-381.946	354.593	-0.122	0.241
-380.931	-52.928	0.232	-0.106
-379.917	-52.963	0.329	-0.150
-378.902	800.000	-0.150	0.484
-377.888	179.666	0.147	-0.214
-376.873	137.786	-0.033	-0.043
-375.858	-23.397	-0.247	-0.147
-374.844	-200.000	-0.012	0.084
-373.829	-127.596	0.194	0.028
-372.815	131.270	0.092	0.118
-371.800	114.460	-0.142	-0.172
-370.785	800.000	0.069	-0.301
-369.771	178.903	0.143	0.208
-368.756	-200.000	-0.006	0.221
-367.742	800.000	0.094	0.388
-366.727	15.609	0.124	0.096
-365.712	-200.000	-0.044	-0.528
-364.698	72.562	-0.082	0.085
-363.683	-111.756	-0.387	0.078
-362.669	-200.000	0.104	0.556
-361.654	-200.000	0.045	0.250
-360.639	584.656	0.037	0.091
-359.625	-200.000	0.038	0.413
-358.610	-51.116	-0.218	0.102
-357.596	-200.000	0.007	-0.094
-356.581	117.188	-0.187	0.228
-355.566	56.331	0.198	-0.191
-354.552	47.366	0.107	0.098
-353.537	111.504	-0.228	0.273
-352.523	526.292	0.048	0.112
-351.508	-106.319	0.140	-0.031
-350.493	189.059	-0.087	-0.130
-349.479	-200.000	0.016	-0.354
-348.464	-200.000	-0.075	-0.491
-347.450	-64.983	0.557	-0.223
-346.435	-200.000	-0.030	0.206
-345.420	180.613	0.083	0.121
-344.406	-200.000	-0.003	0.021
-343.391	-65.220	0.187	0.075
-342.377	-114.231	0.247	-0.047
-341.362	630.261	0.103	0.258
-340.348	-161.812	0.209	0.011
-339.333	-100.035	0.150	0.037
-338.318	-153.843	-0.394	-0.027
-337.304	-200.000	-0.019	0.157
-336.289	180.170	0.105	-0.153
-335.275	-200.000	0.037	0.205
-334.260	76.380	0.055	0.058
-333.245	-68.958	-0.244	0.093
-332.231	-8.968	0.368	0.244
-331.216	-72.489	0.143	0.053
-330.202	144.117	0.037	-0.049
-329.187	330.017	-0.118	0.225
-328.172	800.000	0.072	-0.234
-327.158	29.508	-0.082	-0.069
-326.143	248.915	0.074	-0.124
-325.129	800.000	-0.059	-0.199
-324.114	336.903	-0.218	0.420
-323.099	-61.947	-0.110	0.046
-322.085	-33.209	-0.162	-0.089
-321.070	800.000	0.083	0.280
-320.056	-200.000	-0.011	-0.131
-319.041	258.160	-0.140	-0.238
-318.026	-74.148	0.206	-0.074
-317.012	107.962	0.280	-0.330
-315.997	101.170	-0.220	0.253
-314.983	97.207	-0.206	0.234
-313.968	130.722	0.114	0.145
-312.953	599.472	-0.094	0.231
-311.939	413.998	-0.103	0.218
-310.924	-200.000	-0.026	0.176
-309.910	325.643	-0.125	-0.236
-308.895	-94.327	-0.288	0.078
-307.880	47.958	0.246	0.228
-306.866	-175.135	0.513	-0.014
-305.851	-71.974	-0.208	-0.077
-304.837	-136.600	0.268	0.031
-303.822	-5.281	-0.118	0.080
-302.807	142.278	-0.173	-0.227
-301.793	-173.731	0.402	0.012
-300.778	22.486	-0.196	0.159
-299.764	-200.000	0.003	-0.022
-298.749	-15.138	-0.284	-0.180
-297.735	628.914	0.046	-0.115
-296.720	-2.646	0.247	0.171
-295.705	30.680	-0.199	0.169
-294.691	16.292	0.114	-0.089
-293.676	529.994	0.248	-0.581
-292.662	-200.000	0.014	-0.142
-291.647	-45.122	0.381	-0.187
-290.632	195.928	0.031	0.046
-289.618	103.817	0.025	-0.029
-288.603	-57.879	-0.190	-0.082
-287.589	128.037	-0.217	-0.273
-286.574	-101.890	-0.257	-0.061
-285.559	-200.000	-0.007	0.075
-284.545	-2.321	0.092	0.064
-283.530	-27.770	-0.174	0.100
-282.516	-117.621	0.215	0.038
-281.501	81.594	-0.096	0.103
-280.486	800.000	-0.039	-0.143
-279.472	308.819	0.064	-0.118
-278.457	-200.000	0.061	0.289
-277.443	-63.512	-0.306	-0.124
-276.428	-125.335	-0.280	0.042
-275.413	-200.000	0.050	0.305
-274.399	11.830	-0.280	0.213
-273.384	174.538	-0.120	-0.172
-272.370	-125.843	0.287	0.043
-271.355	475.529	0.057	-0.127
-270.340	-200.000	0.001	-0.107
-269.326	800.000	0.091	0.264
-268.311	161.733	0.132	-0.182
-267.297	53.894	0.119	-0.113
-266.282	-5.297	-0.202	0.137
-265.267	-7.717	-0.194	0.130
-264.253	-12.128	-0.152	0.099
-263.238	290.870	-0.161	0.288
-262.224	-200.000	-0.020	0.090
-261.209	41.769	-0.052	0.047
-260.195	743.182	0.116	0.308
-259.180	22.391	-0.165	-0.134
-258.165	-39.309	0.142	-0.074
-257.151	-18.819	-0.180	-0.111
-256.136	-26.663	-0.178	0.103
-255.122	-115.875	0.148	-0.027
-254.107	800.000	-0.045	-0.125
-253.092	-67.734	-0.101	-0.039
-252.078	-46.180	0.174	-0.085
-251.063	628.293	0.076	-0.190
-250.049	-180.040	-0.425	0.009
-249.034	-55.989	-0.267	-0.118
-248.019	228.853	0.079	0.128
-247.005	178.074	-0.159	-0.229
-245.990	-87.619	-0.274	-0.082
-244.976	-82.368	0.488	0.157
-243.961	358.513	0.130	0.256
-242.946	-47.144	-0.083	0.040
-241.932	-85.775	0.269	0.082
-240.917	800.000	0.091	-0.392
-239.903	-77.614	-0.141	-0.048
-238.888	164.036	-0.051	0.071
-237.873	-79.644	-0.080	0.027
-236.859	144.728	0.147	-0.194
-235.844	236.327	0.068	-0.110
-234.830	800.000	0.024	-0.077
-233.815	-200.000	-0.099	-0.562
-232.800	237.799	-0.177	-0.290
-231.786	-19.883	0.127	0.078
-230.771	-22.393	-0.125	-0.075
-229.757	-80.822	0.100	-0.033
-228.742	-90.550	0.266	0.076
-227.727	-200.000	-0.017	-0.107
-226.713	217.837	0.097	0.152
-225.698	67.392	0.122	-0.123
-224.684	48.338	-0.054	0.050
-223.669	800.000	-0.015	-0.041
-222.655	-200.000	-0.027	0.292
-221.640	-200.000	-0.011	0.183
-220.625	-168.879	-0.152	0.006
-219.611	-7.447	-0.307	-0.205
-218.596	-150.544	0.241	0.018
-217.582	120.147	0.127	-0.155
-216.567	-200.000	0.047	-0.295
-215.552	-67.160	0.032	0.013
-214.538	-200.000	-0.003	-0.278
-213.523	445.305	0.069	0.149
-212.509	-123.899	0.208	-0.032
-211.494	-200.000	-0.037	-0.295
-210.479	709.321	0.033	-0.086
-209.465	23.481	-0.079	0.064
-208.450	222.214	0.095	-0.151
-207.436	-200.000	0.054	0.247
-206.421	800.000	0.074	0.303
-205.406	11.746	-0.314	0.238
-204.392	-200.000	0.005	-0.061
-203.377	-200.000	-0.008	-0.230
-202.363	128.363	-0.115	-0.144
-201.348	-151.988	0.254	0.018
-200.333	800.000	-0.048	0.158
-199.319	-70.629	-0.342	0.128
-198.304	-200.000	0.012	0.255
-197.290	800.000	0.085	-0.275
-196.275	800.000	0.073	-0.305
-195.260	18.580	-0.101	0.080
-194.246	-200.000	0.010	-0.075
-193.231	-200.000	-0.037	0.213
-192.217	-141.357	0.274	0.027
-191.202	800.000	-0.085	0.271
-190.187	-40.687	0.064	0.033
-189.173	-200.000	-0.002	-0.249
-188.158	-151.446	0.172	-0.013
-187.144	-200.000	0.034	-0.330
-186.129	253.174	0.036	-0.061
-185.114	-34.355	0.252	0.136
-184.100	64.858	-0.207	0.206
-183.085	-61.171	0.327	0.136
-182.071	-68.340	-0.111	0.043
-181.056	229.554	0.163	0.263
-180.042	19.496	-0.254	0.201
-179.027	8.586	0.060	-0.045
-178.012	800.000	0.094	-0.361
-176.998	-67.631	-0.129	-0.050
-175.983	596.074	-0.061	0.150
-174.969	-200.000	0.034	-0.181
-173.954	196.884	0.024	0.037
-172.939	127.984	-0.056	-0.071
-171.925	-178.212	0.231	-0.005
-170.910	-200.000	-0.045	0.232
-169.896	-162.866	0.053	-0.003
-168.881	24.317	0.026	-0.021
-167.866	800.000	0.106	-0.404
-166.852	87.300	-0.112	0.122
-165.837	24.252	0.193	0.157
-164.823	-62.240	0.293	0.120
-163.808	-200.000	-0.009	-0.112
-162.793	-200.000	0.022	0.329
-161.779	-68.202	-0.266	-0.102
-160.764	-42.641	0.262	-0.131
-159.750	217.691	0.114	-0.179
-158.735	800.000	-0.063	0.204
-157.720	800.000	0.080	0.278
-156.706	157.890	0.125	0.171
-155.691	-12.532	-0.170	0.109
-154.677	76.908	-0.089	-0.093
-153.662	96.747	0.210	-0.237
-152.647	-117.794	-0.165	0.029
-151.633	-200.000	-0.002	-0.039
-150.618	293.624	0.031	0.055
-149.604	58.019	0.168	-0.162
-148.589	-92.326	-0.348	0.097
-147.574	800.000	0.085	-0.309
-146.560	-200.000	0.322	0.000
-145.545	135.934	-0.126	0.161
-144.531	542.190	0.099	0.233
-143.516	121.750	-0.047	0.057
-142.502	172.862	0.091	0.129
-141.487	-27.225	-0.449	-0.257
-140.472	77.087	0.086	0.090
-139.458	2.660	0.025	-0.018
-138.443	-200.000	0.012	-0.319
-137.429	2.430	-0.195	0.139
-136.414	-200.000	-0.026	0.161
-135.399	-200.000	0.018	-0.283
-134.385	-86.148	-0.048	-0.015
-133.370	-200.000	-0.013	0.238
-132.356	-200.000	-0.032	-0.197
-131.341	-88.542	0.192	0.056
-130.326	-200.000	-0.033	0.209
-129.312	-64.574	0.391	-0.156
-128.297	281.885	0.229	0.404
-127.283	100.066	-0.068	0.078
-126.268	-109.601	0.366	0.076
-125.253	299.328	-0.091	0.164
-124.239	-200.000	0.013	-0.229
-123.224	-200.000	0.006	-0.032
-122.210	2.092	0.346	0.246
-121.195	134.935	-0.096	0.123
-120.180	485.994	0.153	0.343
-119.166	15.316	0.077	0.059
-118.151	-200.000	-0.008	0.040
-117.137	800.000	-0.064	0.198
-116.122	-200.000	0.006	0.314
-115.107	-69.162	-0.091	-0.035
-114.093	41.086	-0.194	-0.172
-113.078	-156.045	-0.150	0.009
-112.064	-200.000	-0.004	0.093
-111.049	-98.942	0.234	0.058
-110.034	-200.000	-0.057	0.447
-109.020	-4.949	0.034	0.023
-108.005	15.401	-0.247	-0.190
-106.991	246.863	-0.281	0.466
-105.976	-60.620	-0.131	0.054
-104.962	-33.407	0.176	0.095
-103.947	-200.000	-0.034	0.237
-102.932	164.572	-0.090	0.125
-101.918	186.273	0.052	-0.077
-100.903	-56.711	0.114	-0.049
-99.889	592.931	-0.111	0.269
-98.874	-200.000	0.020	0.254
-97.859	508.164	0.075	0.170
-96.845	800.000	-0.037	0.105
-95.830	-93.905	-0.062	0.017
-94.816	-200.000	-0.033	-0.219
-93.801	14.730	0.014	-0.010
-92.786	-19.488	0.257	-0.156
-91.772	-200.000	0.015	0.156
-90.757	800.000	0.083	-0.230
-89.743	441.382	0.067	-0.144
-88.728	-149.210	0.134	0.011
-87.713	-5.140	-0.143	-0.096
-86.699	-30.365	0.084	-0.047
-85.684	-11.937	0.212	0.136
-84.670	-62.433	0.350	0.143
-83.655	-43.668	-0.123	0.061
-82.640	-95.178	-0.155	0.041
-81.626	-183.417	0.182	-0.003
-80.611	238.642	-0.122	0.199
-79.597	-25.384	0.156	-0.090
-78.582	128.975	-0.132	0.165
-77.567	-109.632	0.266	0.055
-76.553	800.000	0.028	-0.077
-75.538	-48.340	0.140	-0.066
-74.524	-59.846	-0.208	0.087
-73.509	209.449	0.142	-0.219
-72.494	-200.000	-0.046	-0.198
-71.480	-200.000	-0.034	0.290
-70.465	-66.813	0.191	0.074
-69.451	-176.535	0.323	0.008
-68.436	-26.214	0.366	-0.211
-67.422	278.854	-0.046	-0.081
-66.407	141.449	0.216	-0.280
-65.392	131.729	-0.108	0.137
-64.378	-161.850	-0.084	-0.004
-63.363	-200.000	0.034	-0.284
-62.349	-200.000	-0.019	0.093
-61.334	217.871	-0.688	-1.076
-60.319	98.926	0.402	0.456
-59.305	-200.000	0.042	-1.071
-58.290	146.421	0.793	1.043
-57.276	250.403	0.704	1.173
-56.261	-200.000	108.763	591.949
-55.246	444.146	1487.845	3199.740
-54.232	145.737	2676.987	3516.866
-53.217	99.385	2286.370	2591.954
-52.203	38.415	1897.264	1657.248
-51.188	32.770	1686.060	1430.055
-50.173	30.116	1643.191	1373.998
-49.159	49.131	1696.831	1562.592
-48.144	49.525	1712.367	1579.802
-47.130	32.262	1669.984	1412.380
-46.115	29.554	1655.337	1379.736
-45.100	29.418	1650.117	1374.317
-44.086	29.343	1647.587	1371.595
-43.071	29.395	1644.889	1369.679
-42.057	29.290	1643.071	1367.334
-41.042	29.381	1640.236	1365.594
-40.027	29.405	1638.469	1364.247
-39.013	29.316	1636.880	1362.212
-37.998	29.287	1635.669	1360.939
-36.984	29.357	1633.969	1359.988
-35.969	29.462	1632.545	1359.522
-34.954	29.567	1630.547	1358.573
-33.940	29.566	1629.112	1357.318
-32.925	29.493	1627.521	1355.405
-31.911	29.551	1625.903	1354.424
-30.896	29.498	1624.222	1352.582
-29.881	29.512	1622.314	1351.039
-28.867	29.362	1620.907	1348.718
-27.852	29.486	1619.361	1348.283
-26.838	29.526	1617.866	1347.280
-25.823	29.578	1616.355	1346.348
-24.809	29.539	1615.335	1345.160
-23.794	29.533	1613.789	1343.777
-22.779	29.490	1612.331	1342.196
-21.765	29.428	1611.017	1340.597
-20.750	29.446	1609.232	1339.194
-19.736	29.565	1607.462	1338.525
-18.721	29.660	1605.472	1337.507
-17.706	29.533	1604.795	1335.966
-16.692	29.539	1602.895	1334.378
-15.677	29.616	1601.932	1334.076
-14.663	29.514	1600.443	1332.048
-13.648	29.482	1599.345	1330.850
-12.633	29.409	1597.975	1329.131
-11.619	29.619	1595.217	1328.294
-10.604	29.515	1594.593	1326.975
-9.590	29.521	1593.568	1326.118
-8.575	29.582	1592.229	1325.387
-7.560	29.515	1590.783	1323.647
-6.546	29.624	1589.764	1323.533
-5.531	29.563	1588.649	1322.110
-4.517	29.559	1587.144	1320.778
-3.502	29.476	1586.691	1319.756
-2.487	29.598	1584.602	1318.834
-1.473	29.224	1573.028	1306.500
-0.458	26.332	1554.163	1270.489
0.556	21.195	1554.556	1239.700
1.571	19.024	1578.071	1242.674
2.586	18.581	1590.517	1249.139
3.600	16.924	1538.077	1196.171
4.615	9.387	1428.846	1061.554
5.629	1.819	1364.328	965.705
6.644	0.269	1356.368	950.214
7.659	0.078	1355.221	948.124
8.673	0.048	1354.531	947.367
9.688	0.015	1352.054	945.348
10.702	-0.093	1348.843	942.339
11.717	3.522	1354.644	969.048
12.731	11.921	1368.344	1031.869
13.746	17.207	1374.872	1070.078
14.761	17.306	1373.456	1069.505
15.775	16.165	1370.850	1060.212
16.790	15.274	1368.047	1052.365
17.804	14.453	1366.102	1045.626
18.819	14.102	1364.791	1042.328
19.834	13.724	1363.782	1039.101
20.848	13.567	1362.575	1037.106
21.863	13.305	1361.031	1034.199
22.877	13.209	1359.565	1032.395
23.892	13.064	1358.800	1030.816
24.907	13.166	1357.800	1030.601
25.921	13.063	1357.298	1029.487
26.936	13.202	1356.247	1029.465
27.950	13.262	1355.385	1029.092
28.965	13.297	1354.515	1028.560
29.980	13.294	1353.269	1027.508
30.994	13.464	1352.503	1027.888
32.009	13.428	1351.678	1026.945
33.023	13.411	1350.690	1026.002
34.038	13.410	1349.175	1024.751
35.053	13.286	1348.440	1023.336
36.067	13.277	1347.603	1022.552
37.082	13.418	1345.994	1022.117
38.096	13.386	1345.293	1021.295
39.111	13.384	1344.515	1020.602
40.126	13.242	1343.701	1019.015
41.140	13.232	1342.541	1017.986
42.155	13.188	1342.612	1017.678
43.169	13.110	1342.654	1017.139
44.184	13.136	1342.303	1016.942
45.199	13.165	1341.779	1016.635
46.213	13.141	1341.507	1016.189
47.228	13.204	1340.238	1015.528
48.242	13.327	1338.355	1014.767
49.257	13.228	1337.654	1013.536
50.271	13.304	1335.807	1012.512
51.286	13.288	1334.412	1011.268
52.301	13.202	1333.453	1009.930
53.315	13.110	1333.133	1009.031
54.330	13.193	1331.647	1008.325
55.344	13.201	1330.138	1007.145
56.359	13.134	1329.512	1006.172
57.374	13.165	1328.505	1005.509
58.388	13.014	1328.581	1004.558
59.403	13.098	1327.446	1004.120
60.417	13.144	1326.471	1003.576
61.432	13.116	1325.248	1002.393
62.447	13.009	1324.845	1001.347
63.461	13.008	1323.474	1000.216
64.476	13.019	1322.284	999.295
65.490	13.117	1320.886	998.745
66.505	13.052	1319.651	997.330
67.520	13.001	1318.472	996.040
68.534	13.133	1317.214	995.801
69.549	13.132	1316.314	995.022
70.563	13.016	1315.810	993.854
71.578	12.972	1314.563	992.565
72.593	13.021	1313.217	991.752
73.607	12.908	1312.819	990.684
74.622	12.966	1311.932	990.275
75.636	12.941	1311.302	989.565
76.651	12.943	1310.492	988.875
77.666	13.084	1309.777	989.092
78.680	12.937	1309.530	987.941
79.695	12.984	1308.378	987.264
80.709	13.051	1307.412	986.847
81.724	13.008	1307.222	986.361
82.739	13.187	1305.504	986.045
83.753	13.257	1304.729	985.789
84.768	13.175	1304.172	984.796
85.782	13.318	1303.062	984.721
86.797	13.344	1301.543	983.642
87.812	13.143	1300.133	981.291
88.826	13.166	1299.356	980.754
89.841	13.187	1298.227	979.945
90.855	13.299	1297.274	979.801
91.870	13.358	1296.202	979.252
92.884	13.233	1295.624	977.990
93.899	13.294	1294.953	977.757
94.914	13.433	1293.936	977.723
95.928	13.334	1292.949	976.306
96.943	13.305	1292.018	975.347
97.957	13.335	1291.264	974.869
98.972	13.285	1290.255	973.729
99.987	13.267	1289.651	973.080
101.001	13.340	1287.665	971.926
102.016	13.390	1286.808	971.483
103.030	13.359	1286.261	970.801
104.045	13.204	1285.272	969.063
105.060	13.322	1283.708	968.488
106.074	13.182	1282.718	966.833
107.089	13.059	1281.446	965.074
108.103	13.078	1280.563	964.435
109.118	13.095	1278.689	963.033
110.133	13.140	1277.537	962.344
111.147	13.099	1276.284	961.079
112.162	13.206	1274.682	960.407
113.176	13.273	1273.812	960.057
114.191	13.189	1273.161	958.993
115.206	13.238	1271.954	958.282
116.220	13.140	1270.516	956.546
117.235	13.107	1269.665	955.634
118.249	13.204	1268.500	955.230
119.264	13.290	1267.186	954.655
120.279	13.205	1266.108	953.266
121.293	13.143	1265.133	952.093
122.308	13.114	1264.325	951.230
123.322	13.034	1263.343	949.949
124.337	13.066	1261.758	948.855
125.352	13.126	1260.717	948.336
126.366	13.144	1259.423	947.379
127.381	13.091	1258.518	946.310
128.395	13.177	1257.285	945.791
129.410	13.190	1256.503	945.198
130.424	13.187	1255.706	944.492
131.439	13.183	1255.273	944.061
132.454	13.192	1254.443	943.409
133.468	13.192	1253.070	942.290
134.483	13.259	1252.298	942.008
135.497	13.174	1251.505	940.844
136.512	13.233	1249.988	939.954
137.527	13.324	1248.425	939.216
138.541	13.215	1247.228	937.613
139.556	13.277	1246.013	936.968
140.570	13.285	1245.246	936.354
141.585	13.270	1243.983	935.234
142.600	13.433	1242.639	935.062
143.614	13.465	1241.309	934.163
144.629	13.325	1240.817	932.920
145.643	13.439	1239.320	932.354
146.658	13.447	1238.377	931.608
147.673	13.367	1237.165	930.165
148.687	13.399	1235.949	929.346
149.702	13.305	1234.294	927.493
150.716	13.284	1233.523	926.712
151.731	13.264	1232.643	925.858
152.746	13.298	1230.940	924.686
153.760	13.303	1230.139	924.029
154.775	13.253	1229.238	922.994
155.789	13.477	1227.589	922.921
156.804	13.498	1226.339	922.016
157.819	13.436	1225.599	921.034
158.833	13.546	1224.564	920.789
159.848	13.601	1224.067	920.638
160.862	13.510	1222.986	919.236
161.877	13.543	1221.765	918.419
162.892	13.429	1221.066	917.185
163.906	13.328	1220.148	915.851
164.921	13.451	1219.079	915.653
165.935	13.513	1217.910	915.035
166.950	13.540	1217.822	915.038
167.964	13.507	1217.080	914.217
168.979	13.547	1216.088	913.607
169.994	13.474	1215.381	912.597
171.008	13.510	1214.768	912.251
172.023	13.588	1213.986	912.016
173.037	13.660	1212.833	911.463
174.052	13.596	1211.922	910.347
175.067	13.542	1211.222	909.442
176.081	13.617	1209.818	908.722
177.096	13.479	1209.168	907.394
178.110	13.611	1208.039	907.193
179.125	13.573	1206.889	906.037
180.140	13.545	1205.477	904.744
181.154	13.583	1204.717	904.304
182.169	13.737	1203.256	903.964
183.183	13.733	1202.228	903.091
184.198	13.698	1201.069	901.948
185.213	13.731	1199.888	901.164
186.227	13.765	1198.528	900.245
187.242	13.810	1197.594	899.710
188.256	13.897	1196.782	899.490
189.271	13.856	1195.752	898.416
190.286	13.684	1194.804	896.695
191.300	13.577	1193.692	895.198
192.315	13.616	1193.421	895.130
193.329	13.702	1192.282	894.659
194.344	13.654	1191.873	894.016
195.359	13.703	1191.471	893.900
196.373	13.880	1190.711	894.201
197.388	13.797	1190.361	893.413
198.402	13.806	1190.220	893.278
199.417	13.959	1189.137	893.209
200.432	14.013	1188.197	892.713
201.446	14.021	1187.357	892.048
202.461	14.052	1185.887	891.029
203.475	14.067	1185.157	890.481
204.490	14.054	1183.937	889.419
205.504	14.087	1182.402	888.361
206.519	13.947	1181.938	887.188
207.534	14.006	1180.217	886.133
208.548	13.996	1179.522	885.476
209.563	13.971	1178.938	884.829
210.577	14.002	1177.981	884.197
211.592	14.184	1177.046	884.382
212.607	14.020	1176.250	882.835
213.621	14.060	1175.519	882.419
214.636	13.986	1175.009	881.570
215.650	14.113	1173.726	881.201
216.665	14.219	1172.793	880.985
217.680	14.299	1171.779	880.564
218.694	14.151	1171.094	879.194
219.709	14.203	1170.345	878.824
220.723	14.242	1169.319	878.183
221.738	14.166	1168.820	877.332
222.753	14.305	1168.168	877.497
223.767	14.250	1167.327	876.497
224.782	14.380	1166.827	876.727
225.796	14.374	1166.421	876.315
226.811	14.305	1165.603	875.261
227.826	14.402	1164.886	875.151
228.840	14.327	1163.899	873.937
229.855	14.339	1163.209	873.408
230.869	14.305	1162.541	872.649
231.884	14.312	1161.794	872.051
232.899	14.267	1160.972	871.118
233.913	14.237	1160.159	870.275
234.928	14.330	1159.293	870.036
235.942	14.312	1158.544	869.303
236.957	14.231	1158.087	868.462
237.972	14.350	1157.536	868.589
238.986	14.401	1156.418	867.941
240.001	14.403	1155.892	867.480
241.015	14.502	1154.857	867.142
242.030	14.430	1153.981	866.032
243.045	14.501	1153.114	865.673
244.059	14.413	1152.414	864.615
245.074	14.463	1151.777	864.318
246.088	14.563	1151.132	864.277
247.103	14.489	1150.595	863.415
248.117	14.569	1149.739	863.108
249.132	14.639	1148.884	862.752
250.147	14.708	1147.988	862.361
251.161	14.758	1147.628	862.269
252.176	14.685	1147.109	861.428
253.190	14.863	1146.097	861.509
254.205	14.902	1145.852	861.453
255.220	14.911	1145.289	860.998
256.234	14.971	1144.013	860.271
257.249	14.880	1143.398	859.263
258.263	14.876	1143.055	858.908
259.278	15.022	1141.798	858.638
260.293	14.980	1141.741	858.302
261.307	15.014	1141.266	858.046
262.322	15.013	1140.710	857.547
263.336	14.980	1139.869	856.668
264.351	14.930	1139.457	856.028
265.366	15.032	1138.652	855.869
266.380	14.923	1138.412	855.054
267.395	14.973	1137.074	854.228
268.409	15.024	1136.550	854.021
269.424	14.970	1136.081	853.319
270.439	15.004	1135.415	852.913
271.453	15.003	1134.763	852.346
272.468	15.043	1133.328	851.394
273.482	14.910	1133.064	850.444
274.497	14.938	1132.481	850.072
275.512	15.042	1131.483	849.780
276.526	14.967	1131.116	849.045
277.541	15.081	1130.182	848.849
278.555	15.199	1129.181	848.617
279.570	15.198	1128.888	848.317
280.585	15.204	1127.622	847.322
281.599	15.281	1126.869	847.068
282.614	15.238	1125.962	846.097
283.628	15.232	1124.470	844.871
284.643	15.180	1124.282	844.391
285.657	15.273	1123.111	843.909
286.672	15.261	1121.872	842.841
287.687	15.304	1121.334	842.579
288.701	15.388	1120.334	842.175
289.716	15.391	1119.631	841.584
290.730	15.276	1119.501	840.838
291.745	15.304	1118.592	840.221
292.760	15.423	1117.955	840.261
293.774	15.390	1117.363	839.580
294.789	15.464	1116.837	839.477
295.803	15.484	1116.044	838.909
296.818	15.332	1115.755	837.857
297.833	15.439	1114.355	837.265
298.847	15.528	1113.521	837.008
299.862	15.375	1113.381	836.069
300.876	15.441	1112.534	835.687
301.891	15.617	1111.675	835.842
302.906	15.557	1110.989	834.954
303.920	15.619	1110.293	834.664
304.935	15.735	1109.657	834.690
305.949	15.744	1108.868	834.067
306.964	15.628	1108.512	833.150
307.979	15.594	1107.655	832.262
308.993	15.627	1106.964	831.836
310.008	15.707	1106.213	831.594
311.022	15.684	1105.481	830.856
312.037	15.693	1104.878	830.374
313.052	15.644	1103.686	829.162
314.066	15.736	1102.636	828.754
315.081	15.564	1102.206	827.509
316.095	15.645	1101.322	827.171
317.110	15.663	1100.400	826.491
318.125	15.626	1099.682	825.700
319.139	15.649	1098.784	825.066
320.154	15.672	1098.079	824.577
321.168	15.794	1097.551	824.705
322.183	15.758	1096.953	824.006
323.197	15.681	1096.874	823.494
324.212	15.780	1095.842	823.134
325.227	15.877	1095.011	822.910
326.241	15.745	1095.114	822.267
327.256	15.690	1094.251	821.280
328.270	15.683	1093.412	820.543
329.285	15.689	1092.575	819.871
330.300	15.755	1091.167	819.063
331.314	15.658	1090.278	817.854
332.329	15.830	1089.509	818.037
333.343	15.848	1088.533	817.321
334.358	15.836	1088.030	816.811
335.373	15.844	1087.225	816.173
336.387	15.836	1086.759	815.716
337.402	15.976	1085.701	815.524
338.416	16.011	1084.802	814.947
339.431	16.039	1084.212	814.566
340.446	16.128	1083.546	814.424
341.460	16.191	1082.778	814.077
342.475	16.111	1081.999	813.038
343.489	16.193	1081.573	813.037
344.504	16.156	1080.455	811.949
345.519	16.076	1079.418	810.714
346.533	16.169	1078.893	810.692
347.548	16.192	1078.109	810.142
348.562	16.150	1077.965	809.762
349.577	16.200	1076.987	809.198
350.592	16.264	1075.995	808.686
351.606	16.139	1075.269	807.468
352.621	16.210	1074.387	807.075
353.635	16.210	1073.867	806.612
354.650	16.286	1073.167	806.378
355.665	16.086	1072.583	804.914
356.679	16.208	1071.728	804.785
357.694	16.269	1071.183	804.595
358.708	16.328	1070.798	804.516
359.723	16.312	1069.746	803.575
360.738	16.310	1069.306	803.165
361.752	16.241	1069.143	802.642
362.767	16.297	1068.394	802.278
363.781	16.309	1068.019	801.982
364.796	16.284	1067.161	801.148
365.810	16.412	1066.141	800.917
366.825	16.380	1066.099	800.661
367.840	16.525	1065.687	800.971
368.854	16.661	1064.867	800.928
369.869	16.489	1064.458	799.732
370.883	16.567	1063.557	799.356
371.898	16.638	1062.367	798.725
372.913	16.433	1062.189	797.553
373.927	16.691	1061.462	798.153
374.942	16.605	1061.122	797.423
375.956	16.601	1060.481	796.852
376.971	16.602	1059.885	796.336
377.986	16.622	1059.249	795.881
379.000	16.706	1058.667	795.769
380.015	16.735	1057.987	795.326
381.029	16.726	1057.674	794.976
382.044	16.812	1057.094	794.871
383.059	16.794	1056.121	793.988
384.073	16.797	1055.420	793.406
385.088	16.883	1054.422	792.984
386.102	16.971	1053.106	792.336
387.117	16.741	1052.350	790.624
388.132	16.782	1051.706	790.263
389.146	16.741	1051.038	789.498
390.161	16.741	1050.660	789.144
391.175	16.800	1049.629	788.575
392.190	16.838	1048.693	787.978
393.205	16.992	1047.667	787.856
394.219	16.849	1047.333	786.870
395.234	16.972	1046.181	786.503
396.248	16.933	1045.131	785.463
397.263	16.912	1044.086	784.512
398.278	16.884	1043.631	783.973
399.292	16.748	1043.426	783.122
400.307	16.771	1042.387	782.377
401.321	16.884	1041.889	782.453
402.336	16.857	1041.232	781.768
403.350	16.918	1040.236	781.231
404.365	16.976	1039.789	781.095
405.380	16.889	1039.250	780.220
406.394	16.949	1038.573	779.919
407.409	16.998	1037.531	779.294
408.423	17.120	1036.998	779.385
409.438	17.159	1036.280	778.955
410.453	17.191	1035.376	778.353
411.467	17.193	1034.751	777.823
412.482	17.294	1034.207	777.808
413.496	17.326	1033.309	777.209
414.511	17.302	1033.205	776.952
415.526	17.324	1032.791	776.672
416.540	17.327	1032.259	776.218
417.555	17.284	1031.504	775.384
418.569	17.230	1031.374	774.974
419.584	17.339	1030.883	775.031
420.599	17.310	1030.378	774.450
421.613	103.459	1322.354	1469.015
422.628	94.678	1364.835	1469.125
