DTS Sentinel unit serial number:	SN413079Multiplexer serial number:	ORYXHardware model number:	OX4-SRSoftware version number:	ORYX F/W v4.00 Oryx Data Collector v3.7.2.0data status	okinstallation	princeton_trtdifferential loss correction	single-endedforward channel	channel 2reverse channel	N/Adate	2019/09/18time	13:47:35forward acquisition time	60.00reverse acquisition time	0.00gamma	496.2192k internal	0.2319k external	0.2319temperature offset calibration	0.9994default loss term (dB/km)	0.3790temperature slope calibration	1.0000multiplexer offset coefficient	1.0000multiplexer slope coefficient	1.0000fibre end	0.00T internal ref (°C)	34.50T ext. ref 1 (°C)	0.64T ext. ref 2 (°C)	30.05length (m)	temperature (°C)	Stokes	anti-Stokes-747.200	-47.107	0.218	-0.108
-746.185	141.134	-0.178	0.238
-745.171	-76.516	-0.282	0.100
-744.156	705.190	-0.173	0.462
-743.142	800.000	0.048	0.145
-742.127	196.449	0.036	0.056
-741.112	506.565	0.109	-0.255
-740.098	-48.860	-0.271	0.131
-739.083	-200.000	0.003	0.641
-738.069	-158.064	0.261	0.016
-737.054	800.000	-0.104	-0.338
-736.039	735.940	-0.149	-0.404
-735.025	-104.473	-0.346	0.081
-734.010	513.592	0.030	-0.071
-732.996	-81.093	-0.243	-0.081
-731.981	142.093	0.160	0.215
-730.966	-15.285	-0.401	-0.259
-729.952	-149.197	-0.116	-0.009
-728.937	410.102	-0.101	-0.217
-727.923	-200.000	0.060	-0.269
-726.908	132.023	-0.210	0.273
-725.894	-110.417	-0.452	0.095
-724.879	538.883	0.158	0.381
-723.864	-11.718	0.187	-0.124
-722.850	800.000	-0.017	-0.073
-721.835	-77.605	0.008	0.003
-720.821	184.207	-0.226	0.339
-719.806	72.759	0.053	0.055
-718.791	800.000	-0.058	-0.234
-717.777	280.083	-0.093	0.168
-716.762	79.615	-0.116	-0.125
-715.748	211.768	-0.178	0.283
-714.733	800.000	-0.128	-0.503
-713.718	28.903	0.401	-0.343
-712.704	-141.307	-0.275	-0.028
-711.689	-200.000	-0.019	-0.264
-710.675	-85.094	-0.167	0.053
-709.660	-127.747	0.195	-0.028
-708.645	-176.225	-0.282	-0.007
-707.631	333.212	0.043	0.084
-706.616	68.814	-0.084	-0.087
-705.602	-135.868	0.234	0.028
-704.587	-200.000	0.021	0.187
-703.572	-200.000	-0.008	-0.207
-702.558	-17.889	-0.220	-0.139
-701.543	-86.570	0.220	0.068
-700.529	800.000	0.144	0.434
-699.514	-77.730	-0.206	-0.072
-698.499	165.915	0.175	0.251
-697.485	122.345	0.252	0.318
-696.470	-200.000	0.012	0.079
-695.456	1.579	-0.540	-0.392
-694.441	-140.681	0.135	-0.014
-693.426	-169.785	0.141	0.005
-692.412	-146.699	-0.175	-0.015
-691.397	292.985	-0.197	-0.364
-690.383	469.118	0.103	-0.233
-689.368	-35.733	-0.327	0.179
-688.354	263.442	0.132	0.232
-687.339	290.315	0.114	-0.209
-686.324	182.365	0.038	-0.057
-685.310	421.085	-0.032	0.068
-684.295	105.481	-0.185	-0.221
-683.281	-35.634	-0.143	0.078
-682.266	376.302	0.043	0.089
-681.251	16.063	0.383	-0.305
-680.237	-6.057	-0.217	0.149
-679.222	-200.000	0.008	-0.122
-678.208	-80.646	-0.155	-0.052
-677.193	48.602	-0.302	-0.285
-676.178	34.386	0.323	0.284
-675.164	-72.305	-0.342	-0.128
-674.149	-200.000	-0.013	0.176
-673.135	800.000	-0.021	-0.063
-672.120	-45.161	0.299	0.150
-671.105	148.052	0.114	0.155
-670.091	249.754	-0.178	-0.305
-669.076	-200.000	-0.006	-0.105
-668.062	753.598	0.085	0.230
-667.047	-200.000	-0.013	-0.103
-666.032	299.488	-0.253	-0.470
-665.018	-81.366	0.464	-0.154
-664.003	-72.006	0.196	-0.073
-662.989	-72.575	-0.194	0.072
-661.974	0.622	-0.230	0.166
-660.959	82.758	0.134	-0.146
-659.945	800.000	0.129	-0.404
-658.930	-11.107	0.238	-0.158
-657.916	-200.000	0.019	-0.182
-656.901	80.841	-0.154	-0.167
-655.886	6.524	-0.115	0.086
-654.872	584.931	-0.112	0.277
-653.857	-77.072	-0.402	0.141
-652.843	640.709	0.082	0.211
-651.828	-89.854	-0.061	-0.018
-650.814	83.870	0.137	-0.150
-649.799	800.000	-0.091	-0.338
-648.784	-160.149	0.107	0.006
-647.770	-200.000	0.014	0.104
-646.755	175.854	-0.154	0.226
-645.741	31.905	-0.197	-0.171
-644.726	800.000	-0.103	-0.367
-643.711	-143.540	-0.107	-0.010
-642.697	128.456	-0.118	0.152
-641.682	800.000	0.078	-0.332
-640.668	-48.378	0.267	-0.129
-639.653	-154.089	-0.144	-0.010
-638.638	149.344	0.120	0.164
-637.624	630.924	-0.179	-0.457
-636.609	-200.000	-0.011	0.253
-635.595	10.399	0.366	-0.280
-634.580	173.320	0.194	0.282
-633.565	-50.220	-0.237	0.113
-632.551	-60.878	-0.167	0.071
-631.536	-200.000	-0.018	-0.143
-630.522	-163.311	-0.044	-0.002
-629.507	-147.648	0.240	0.020
-628.492	800.000	0.011	-0.036
-627.478	-200.000	0.019	0.265
-626.463	800.000	-0.033	-0.127
-625.449	-72.309	0.262	-0.098
-624.434	-89.414	-0.403	-0.119
-623.419	-129.257	0.214	-0.030
-622.405	-198.778	0.170	-0.001
-621.390	-56.034	-0.279	-0.125
-620.376	-66.580	-0.201	-0.080
-619.361	114.182	-0.198	-0.243
-618.346	304.587	-0.089	0.167
-617.332	-137.702	0.177	0.020
-616.317	192.059	0.055	-0.084
-615.303	-20.428	0.265	0.164
-614.288	20.527	0.103	0.083
-613.273	120.767	-0.111	0.139
-612.259	-18.981	0.042	0.026
-611.244	-200.000	0.018	-0.155
-610.230	732.779	-0.081	-0.218
-609.215	-200.000	-0.020	-0.132
-608.201	-200.000	0.052	-0.379
-607.186	459.040	-0.046	-0.102
-606.171	-182.376	0.355	0.007
-605.157	-102.844	-0.308	-0.074
-604.142	-93.003	-0.240	0.067
-603.128	65.030	0.274	0.278
-602.113	656.941	-0.121	-0.313
-601.098	39.231	-0.210	-0.189
-600.084	-183.093	-0.213	0.004
-599.069	-29.277	0.148	-0.085
-598.055	-9.562	-0.288	0.193
-597.040	-3.438	0.026	0.018
-596.025	800.000	-0.040	-0.147
-595.011	87.149	-0.116	0.129
-593.996	45.053	-0.271	0.251
-592.982	-63.714	0.324	-0.134
-591.967	-44.642	0.181	-0.091
-590.952	-200.000	0.058	-0.277
-589.938	-198.262	-0.340	-0.002
-588.923	179.788	0.083	-0.123
-587.909	800.000	-0.019	0.073
-586.894	291.875	0.071	0.131
-585.879	376.633	-0.024	-0.050
-584.865	800.000	0.060	-0.168
-583.850	276.369	0.058	-0.104
-582.836	16.265	-0.348	-0.276
-581.821	293.040	-0.189	0.347
-580.806	132.685	0.151	0.196
-579.792	173.076	-0.107	0.155
-578.777	44.050	-0.225	-0.207
-577.763	-65.458	0.476	-0.192
-576.748	56.605	0.042	-0.041
-575.733	308.097	0.131	-0.245
-574.719	800.000	-0.034	0.148
-573.704	509.987	0.043	0.100
-572.690	-8.005	-0.228	0.154
-571.675	-200.000	0.001	-0.056
-570.661	155.386	0.057	-0.079
-569.646	195.320	-0.116	-0.177
-568.631	63.813	-0.191	0.193
-567.617	800.000	0.118	-0.420
-566.602	800.000	0.067	0.226
-565.588	31.041	0.118	0.102
-564.573	-50.049	-0.126	-0.060
-563.558	545.451	0.146	-0.351
-562.544	42.945	-0.015	0.014
-561.529	-200.000	0.030	-0.171
-560.515	-27.203	0.149	-0.087
-559.500	-200.000	-0.024	0.242
-558.485	-200.000	-0.019	-0.195
-557.471	-86.324	-0.205	-0.063
-556.456	-174.235	-0.048	-0.001
-555.442	103.661	-0.107	-0.126
-554.427	-111.256	0.193	-0.040
-553.412	-200.000	-0.011	-0.183
-552.398	-200.000	-0.084	0.423
-551.383	-102.299	0.209	0.050
-550.369	-200.000	-0.012	-0.181
-549.354	332.472	0.007	-0.014
-548.339	-60.472	0.309	-0.132
-547.325	-200.000	-0.003	-0.072
-546.310	-96.232	-0.136	0.036
-545.296	231.970	-0.024	0.039
-544.281	45.591	-0.138	0.128
-543.266	-98.182	0.193	-0.050
-542.252	-55.937	-0.061	0.027
-541.237	95.350	0.082	0.094
-540.223	138.430	0.087	0.114
-539.208	-148.423	0.427	0.035
-538.193	-78.651	-0.081	0.028
-537.179	-200.000	-0.043	-0.218
-536.164	-138.648	0.209	0.023
-535.150	53.291	-0.182	0.175
-534.135	7.005	-0.138	-0.103
-533.121	13.462	-0.072	0.056
-532.106	751.401	0.024	0.064
-531.091	650.993	-0.122	0.313
-530.077	226.130	-0.088	0.144
-529.062	178.694	0.120	-0.177
-528.048	-5.802	-0.228	0.156
-527.033	103.408	-0.171	-0.201
-526.018	-15.505	-0.130	0.083
-525.004	-109.422	-0.086	-0.018
-523.989	800.000	0.032	0.099
-522.975	-98.810	-0.330	-0.084
-521.960	533.848	0.109	-0.258
-520.945	712.989	-0.089	0.236
-519.931	132.335	-0.157	-0.203
-518.916	578.681	-0.089	-0.219
-517.902	-191.278	-0.251	-0.003
-516.887	-200.000	0.012	0.083
-515.872	-144.244	-0.369	0.035
-514.858	-158.123	0.094	-0.006
-513.843	546.675	-0.211	0.506
-512.829	-200.000	-0.048	-0.241
-511.814	-21.269	0.138	0.085
-510.799	800.000	-0.026	0.108
-509.785	-200.000	0.071	0.357
-508.770	-200.000	-0.011	-0.129
-507.756	-200.000	-0.015	0.332
-506.741	41.236	0.424	-0.384
-505.726	642.080	-0.133	-0.339
-504.712	186.275	-0.062	0.092
-503.697	53.576	-0.173	0.166
-502.683	175.389	0.197	-0.287
-501.668	-140.371	-0.026	-0.003
-500.653	403.504	-0.020	0.043
-499.639	-21.519	0.107	-0.065
-498.624	10.788	-0.108	0.083
-497.610	6.273	0.042	-0.032
-496.595	-31.979	0.086	-0.048
-495.581	101.971	0.069	0.081
-494.566	256.885	-0.159	0.274
-493.551	773.085	0.019	0.052
-492.537	28.134	0.024	-0.020
-491.522	-200.000	-0.009	-0.249
-490.508	187.060	0.114	-0.169
-489.493	-29.281	0.173	0.099
-488.478	-103.617	-0.269	-0.063
-487.464	-114.075	0.359	-0.070
-486.449	-200.000	-0.029	-0.160
-485.435	-59.801	-0.248	0.106
-484.420	-133.514	-0.202	-0.025
-483.405	51.294	-0.183	-0.174
-482.391	422.233	0.058	-0.124
-481.376	-200.000	0.017	0.307
-480.362	-81.720	0.214	0.070
-479.347	800.000	0.095	-0.348
-478.332	404.343	-0.072	-0.151
-477.318	800.000	0.061	0.210
-476.303	443.813	-0.048	0.106
-475.289	-100.540	-0.457	0.113
-474.274	2.000	0.178	-0.129
-473.259	800.000	0.031	0.086
-472.245	640.973	0.161	0.411
-471.230	36.473	0.287	0.253
-470.216	-35.400	-0.098	-0.053
-469.201	-63.658	-0.133	-0.055
-468.186	47.983	-0.134	-0.125
-467.172	159.332	-0.167	-0.233
-466.157	150.058	-0.192	0.260
-465.143	323.069	0.192	-0.367
-464.128	800.000	0.031	0.113
-463.113	-81.577	0.489	0.161
-462.099	355.221	0.090	-0.178
-461.084	-84.868	0.294	-0.092
-460.070	73.643	0.059	-0.062
-459.055	44.506	0.044	0.040
-458.040	-47.306	-0.262	0.127
-457.026	-9.308	-0.127	0.085
-456.011	-112.512	-0.065	0.013
-454.997	662.608	0.090	-0.231
-453.982	624.525	-0.048	0.121
-452.968	-142.486	-0.239	-0.023
-451.953	-49.719	-0.255	-0.121
-450.938	-15.436	0.054	-0.034
-449.924	257.748	0.044	0.076
-448.909	103.835	-0.261	0.306
-447.895	-74.328	-0.179	0.065
-446.880	336.215	-0.048	0.093
-445.865	800.000	-0.051	-0.171
-444.851	537.346	0.029	0.069
-443.836	-58.036	-0.151	0.066
-442.822	15.906	0.147	0.116
-441.807	346.601	0.184	-0.361
-440.792	52.093	-0.221	0.211
-439.778	-149.246	-0.200	0.016
-438.763	-155.361	0.118	0.008
-437.749	800.000	0.050	0.204
-436.734	-68.676	-0.364	-0.141
-435.719	484.612	-0.048	-0.110
-434.705	365.434	0.037	0.075
-433.690	-200.000	-0.071	0.333
-432.676	44.934	0.074	0.068
-431.661	-53.056	-0.237	0.109
-430.646	-92.571	0.182	-0.051
-429.632	-200.000	0.003	-0.350
-428.617	-93.366	0.439	-0.122
-427.603	327.544	-0.153	0.293
-426.588	800.000	0.026	-0.082
-425.573	146.977	-0.252	-0.339
-424.559	-10.508	0.224	-0.148
-423.544	97.657	0.199	-0.229
-422.530	-0.673	-0.178	-0.126
-421.515	-55.511	0.187	0.084
-420.500	800.000	0.030	-0.113
-419.486	160.510	-0.163	-0.227
-418.471	800.000	0.101	-0.311
-417.457	-162.967	0.301	-0.015
-416.442	76.910	0.107	-0.114
-415.428	-200.000	-0.014	-0.290
-414.413	439.685	0.050	-0.109
-413.398	-144.024	-0.343	0.032
-412.384	-25.527	0.317	0.187
-411.369	-200.000	-0.007	0.032
-410.355	-78.897	0.714	-0.243
-409.340	28.973	0.123	-0.104
-408.325	-200.000	-0.051	-0.333
-407.311	-200.000	-0.032	-0.166
-406.296	800.000	0.050	-0.141
-405.282	139.363	0.172	-0.226
-404.267	12.552	-0.207	0.159
-403.252	680.078	0.023	-0.061
-402.238	63.263	-0.333	0.333
-401.223	-8.398	0.262	-0.176
-400.209	28.245	-0.302	-0.255
-399.194	-200.000	-0.038	0.207
-398.179	-13.715	-0.294	0.190
-397.165	-115.522	-0.261	0.049
-396.150	-70.054	0.226	0.086
-395.136	249.314	-0.051	0.086
-394.121	-200.000	0.008	-0.156
-393.106	74.852	-0.113	-0.119
-392.092	-49.029	0.249	-0.119
-391.077	-200.000	-0.022	-0.164
-390.063	-160.247	-0.037	-0.002
-389.048	-200.000	0.026	0.291
-388.033	128.271	-0.184	-0.234
-387.019	643.748	0.029	-0.073
-386.004	17.504	0.470	0.373
-384.990	-159.650	-0.173	-0.010
-383.975	-83.634	0.114	0.036
-382.960	800.000	0.066	-0.187
-381.946	343.624	-0.115	0.225
-380.931	662.943	0.102	0.261
-379.917	-139.810	0.278	-0.029
-378.902	-147.631	0.215	0.018
-377.888	116.827	-0.217	0.265
-376.873	406.817	-0.029	0.062
-375.858	800.000	0.096	-0.376
-374.844	-200.000	-0.089	-0.430
-373.829	-82.307	0.226	0.073
-372.815	-200.000	-0.007	0.141
-371.800	-200.000	0.027	-0.409
-370.785	41.293	-0.273	0.246
-369.771	800.000	0.125	0.371
-368.756	-57.259	0.243	0.106
-367.742	800.000	0.063	-0.243
-366.727	-46.080	-0.289	0.142
-365.712	702.092	0.097	0.254
-364.698	-26.272	0.069	0.040
-363.683	26.054	-0.113	-0.094
-362.669	83.391	0.169	0.183
-361.654	-200.000	0.044	0.276
-360.639	-200.000	0.002	0.186
-359.625	25.576	0.172	-0.143
-358.610	-200.000	0.015	-0.109
-357.596	98.051	-0.192	0.220
-356.581	-89.615	0.162	-0.047
-355.566	-200.000	0.008	0.190
-354.552	129.282	-0.030	0.039
-353.537	-63.063	0.227	0.093
-352.523	-142.305	-0.201	0.020
-351.508	-200.000	0.016	0.103
-350.493	-174.866	-0.178	0.005
-349.479	-51.864	-0.232	0.108
-348.464	-21.403	0.136	-0.083
-347.450	477.823	-0.038	-0.086
-346.435	99.359	0.169	0.194
-345.420	1.058	-0.220	-0.157
-344.406	-16.624	0.379	0.239
-343.391	27.054	0.197	-0.165
-342.377	-161.898	0.102	0.005
-341.362	-200.000	-0.010	-0.073
-340.348	800.000	0.087	0.330
-339.333	-200.000	-0.040	0.222
-338.318	-118.850	-0.201	0.035
-337.304	308.825	-0.047	-0.087
-336.289	154.883	0.237	0.324
-335.275	289.288	0.050	-0.091
-334.260	800.000	0.081	-0.322
-333.245	-151.219	-0.194	-0.014
-332.231	-79.076	0.228	0.077
-331.216	-129.318	0.188	0.026
-330.202	-117.619	0.153	0.028
-329.187	-200.000	-0.005	-0.068
-328.172	72.805	0.092	-0.096
-327.158	-6.161	-0.170	0.116
-326.143	-52.694	0.274	0.126
-325.129	101.477	0.192	-0.223
-324.114	-126.301	0.096	0.014
-323.099	800.000	0.008	0.032
-322.085	800.000	-0.065	-0.230
-321.070	-200.000	0.240	0.000
-320.056	800.000	0.093	-0.287
-319.041	-200.000	0.055	0.262
-318.026	-123.114	-0.278	0.044
-317.012	-200.000	0.002	-0.161
-315.997	-77.290	0.305	-0.105
-314.983	7.484	-0.289	0.215
-313.968	-200.000	-0.015	0.115
-312.953	766.949	-0.135	-0.365
-311.939	-46.285	0.183	0.090
-310.924	-200.000	-0.029	0.140
-309.910	23.306	-0.170	0.139
-308.895	-95.052	-0.219	0.059
-307.880	-200.000	-0.006	0.187
-306.866	-200.000	-0.039	-0.185
-305.851	283.964	0.197	-0.353
-304.837	800.000	0.073	-0.260
-303.822	-26.151	0.249	-0.146
-302.807	-63.205	-0.186	-0.076
-301.793	21.701	0.287	0.232
-300.778	-120.296	-0.101	-0.017
-299.764	499.858	0.124	0.284
-298.749	-141.553	-0.359	0.036
-297.735	-122.998	-0.086	-0.014
-296.720	-200.000	0.035	-0.204
-295.705	-200.000	-0.011	-0.155
-294.691	-200.000	-0.083	-0.000
-293.676	-173.670	0.453	0.013
-292.662	-56.035	-0.118	-0.052
-291.647	434.294	0.038	0.083
-290.632	75.854	-0.106	0.112
-289.618	-200.000	0.007	0.034
-288.603	-31.926	0.269	-0.150
-287.589	392.653	0.014	0.029
-286.574	48.052	-0.093	0.087
-285.559	94.630	0.251	0.284
-284.545	1.585	-0.218	-0.156
-283.530	-200.000	0.019	-0.132
-282.516	-200.000	-0.056	0.305
-281.501	361.141	0.177	-0.352
-280.486	800.000	-0.137	-0.468
-279.472	180.157	-0.068	-0.099
-278.457	44.126	-0.183	0.167
-277.443	325.109	-0.113	0.215
-276.428	800.000	0.063	0.243
-275.413	218.261	0.047	-0.075
-274.399	-140.537	0.116	-0.012
-273.384	-83.944	-0.427	-0.135
-272.370	35.525	-0.204	-0.178
-271.355	80.255	-0.168	0.180
-270.340	204.946	-0.217	0.334
-269.326	-200.000	0.045	-0.275
-268.311	-49.334	0.091	-0.043
-267.297	389.920	0.090	0.185
-266.282	122.622	-0.126	0.156
-265.267	-57.922	-0.253	0.110
-264.253	800.000	0.104	0.355
-263.238	-29.869	-0.279	0.158
-262.224	47.415	0.228	0.211
-261.209	43.846	0.172	0.157
-260.195	55.696	-0.080	0.077
-259.180	49.063	-0.032	-0.030
-258.165	85.274	0.203	0.221
-257.151	124.842	0.187	-0.233
-256.136	-14.165	-0.320	0.205
-255.122	541.165	0.115	-0.273
-254.107	-200.000	-0.060	-0.345
-253.092	-46.487	-0.269	-0.131
-252.078	-124.161	0.230	-0.036
-251.063	-109.403	-0.158	-0.033
-250.049	140.138	-0.017	0.022
-249.034	101.478	-0.279	0.323
-248.019	113.543	-0.130	0.156
-247.005	209.252	0.141	0.219
-245.990	-138.345	-0.245	0.027
-244.976	75.411	0.175	-0.183
-243.961	88.480	-0.150	-0.165
-242.946	19.741	-0.293	0.234
-241.932	223.780	-0.010	0.016
-240.917	-117.819	-0.085	-0.015
-239.903	-200.000	0.051	-0.336
-238.888	-200.000	0.026	0.131
-237.873	8.539	-0.277	0.207
-236.859	-200.000	0.007	0.130
-235.844	-27.420	0.107	0.062
-234.830	-75.051	-0.133	0.047
-233.815	338.927	0.047	0.090
-232.800	-200.000	-0.013	0.605
-231.786	-200.000	-0.013	0.200
-230.771	-176.137	0.196	-0.005
-229.757	304.954	0.123	0.227
-228.742	-200.000	-0.004	0.257
-227.727	-18.086	0.164	0.102
-226.713	64.871	0.256	-0.256
-225.698	-200.000	0.013	0.120
-224.684	91.430	-0.099	0.110
-223.669	-86.916	0.161	-0.049
-222.655	306.537	0.144	0.266
-221.640	-76.096	0.202	0.071
-220.625	-40.187	-0.066	0.034
-219.611	7.367	-0.126	0.093
-218.596	-128.039	-0.116	-0.017
-217.582	-200.000	0.042	-0.226
-216.567	-3.462	0.238	0.164
-215.552	-2.549	0.298	0.206
-214.538	211.007	0.116	-0.180
-213.523	-200.000	0.027	-0.561
-212.509	800.000	0.033	-0.119
-211.494	-200.000	-0.040	0.215
-210.479	21.726	0.199	-0.160
-209.465	413.444	-0.054	0.114
-208.450	-200.000	-0.035	-0.195
-207.436	-138.574	-0.431	0.047
-206.421	-48.323	0.280	0.134
-205.406	-29.683	-0.302	-0.171
-204.392	645.384	-0.104	0.263
-203.377	50.178	0.101	0.094
-202.363	-57.662	0.117	-0.051
-201.348	134.181	-0.080	0.102
-200.333	206.739	-0.058	0.090
-199.319	-101.765	0.579	-0.139
-198.304	-157.823	-0.201	0.012
-197.290	-191.653	0.296	0.003
-196.275	207.227	-0.108	-0.166
-195.260	20.071	0.118	0.094
-194.246	-200.000	0.000	0.189
-193.231	478.025	-0.111	0.250
-192.217	250.566	0.099	-0.167
-191.202	-128.742	-0.287	-0.040
-190.187	-68.063	-0.096	0.037
-189.173	-200.000	-0.016	-0.303
-188.158	-142.732	0.027	-0.003
-187.144	-80.179	-0.194	0.064
-186.129	570.750	0.102	-0.245
-185.114	-200.000	0.011	0.221
-184.100	233.152	-0.198	0.323
-183.085	-144.829	0.240	0.022
-182.071	-51.002	-0.199	-0.092
-181.056	-145.089	0.051	0.005
-180.042	-131.586	0.212	-0.028
-179.027	800.000	-0.014	0.044
-178.012	-97.612	-0.415	0.107
-176.998	-114.457	0.151	0.029
-175.983	81.260	0.061	0.066
-174.969	-32.362	0.567	0.313
-173.954	-38.048	-0.259	-0.136
-172.939	46.894	-0.153	-0.141
-171.925	-90.590	-0.242	-0.069
-170.910	51.539	0.201	0.189
-169.896	276.779	-0.128	-0.225
-168.881	-200.000	0.021	0.111
-167.866	-200.000	0.041	0.299
-166.852	85.284	0.128	-0.139
-165.837	11.142	-0.075	-0.056
-164.823	-200.000	0.060	0.431
-163.808	-41.481	0.236	0.120
-162.793	175.715	-0.116	-0.166
-161.779	-75.897	0.277	-0.097
-160.764	366.923	-0.112	-0.223
-159.750	-47.734	0.214	-0.102
-158.735	-200.000	0.026	-0.191
-157.720	800.000	-0.046	0.179
-156.706	-200.000	0.015	-0.090
-155.691	185.532	-0.097	0.142
-154.677	-200.000	0.018	-0.191
-153.662	-200.000	0.022	-0.121
-152.647	-124.752	-0.218	0.033
-151.633	564.805	0.132	0.316
-150.618	-200.000	0.010	-0.146
-149.604	625.529	0.097	-0.242
-148.589	-167.131	0.286	-0.011
-147.574	-200.000	-0.008	0.311
-146.560	34.064	-0.208	-0.179
-145.545	-153.559	0.223	0.015
-144.531	-200.000	-0.005	-0.044
-143.516	-200.000	0.035	-0.189
-142.502	-200.000	-0.015	0.250
-141.487	-16.949	-0.148	-0.092
-140.472	-50.611	0.410	0.191
-139.458	41.389	-0.100	0.089
-138.443	-162.987	-0.323	-0.015
-137.429	-172.287	-0.495	-0.016
-136.414	800.000	0.064	-0.234
-135.399	-156.288	0.262	-0.016
-134.385	-127.982	0.418	-0.059
-133.370	757.028	0.123	-0.328
-132.356	705.117	0.189	0.493
-131.341	329.299	0.070	0.133
-130.326	124.678	-0.136	0.169
-129.312	-18.684	-0.096	0.059
-128.297	46.392	0.066	-0.060
-127.283	-171.435	-0.151	0.005
-126.268	-200.000	-0.408	0.001
-125.253	-159.792	0.439	0.024
-124.239	46.380	-0.133	0.122
-123.224	67.256	-0.186	0.187
-122.210	-89.692	0.283	0.082
-121.195	-200.000	0.015	-0.271
-120.180	-107.215	0.286	-0.062
-119.166	-72.993	0.060	0.022
-118.151	-159.170	-0.170	0.009
-117.137	-0.582	0.181	0.127
-116.122	301.406	0.133	0.243
-115.107	-110.665	0.354	-0.072
-114.093	-96.288	0.190	0.050
-113.078	-200.000	0.010	-0.189
-112.064	-144.325	-0.034	-0.003
-111.049	-158.230	-0.315	-0.018
-110.034	112.868	-0.290	-0.346
-109.020	118.445	-0.149	0.182
-108.005	-8.920	0.055	-0.037
-106.991	800.000	0.073	-0.207
-105.976	-200.000	-0.021	0.195
-104.962	101.441	-0.181	0.209
-103.947	-142.725	0.163	0.016
-102.932	800.000	0.049	0.147
-101.918	244.213	0.055	0.091
-100.903	-166.245	0.233	-0.010
-99.889	-67.224	-0.180	-0.070
-98.874	-46.965	0.265	0.128
-97.859	-56.291	0.471	-0.207
-96.845	-128.550	-0.466	0.065
-95.830	-200.000	0.045	0.317
-94.816	-200.000	-0.017	-0.360
-93.801	800.000	0.046	0.152
-92.786	800.000	-0.076	0.250
-91.772	506.420	0.081	-0.186
-90.757	-128.446	0.357	-0.050
-89.743	-110.991	-0.138	0.028
-88.728	-21.037	-0.229	0.138
-87.713	-200.000	0.042	-0.353
-86.699	222.464	-0.145	-0.230
-85.684	-66.709	0.140	0.055
-84.670	158.169	0.194	-0.265
-83.655	69.435	-0.073	0.074
-82.640	-200.000	0.000	0.084
-81.626	-53.693	0.202	0.091
-80.611	-196.509	0.321	-0.002
-79.597	-26.118	0.294	-0.171
-78.582	800.000	0.049	0.133
-77.567	-200.000	0.020	-0.197
-76.553	-74.883	-0.390	0.138
-75.538	429.014	0.061	0.130
-74.524	62.521	0.161	-0.159
-73.509	-51.102	-0.153	0.071
-72.494	-63.795	-0.137	-0.055
-71.480	243.056	0.105	0.173
-70.465	215.490	0.195	0.305
-69.451	516.474	-0.093	-0.215
-68.436	-34.691	0.096	0.052
-67.422	42.730	0.089	-0.079
-66.407	-76.659	-0.184	0.063
-65.392	86.146	0.157	-0.170
-64.378	-126.522	0.086	0.013
-63.363	1.536	0.126	0.090
-62.349	52.500	0.072	-0.067
-61.334	65.402	-0.907	-0.904
-60.319	-200.000	0.047	0.685
-59.305	575.204	-0.477	-1.147
-58.290	502.257	0.575	1.308
-57.276	639.330	0.772	1.934
-56.261	-200.000	96.158	549.185
-55.246	507.921	1421.236	3248.675
-54.232	144.928	2654.354	3494.822
-53.217	104.679	2351.902	2728.712
-52.203	43.688	1958.484	1764.588
-51.188	37.825	1742.513	1524.259
-50.173	34.965	1698.081	1463.495
-49.159	50.665	1745.289	1626.278
-48.144	53.377	1762.316	1663.110
-47.130	37.380	1719.368	1500.335
-46.115	34.609	1704.656	1466.194
-45.100	34.440	1699.425	1460.345
-44.086	34.356	1696.744	1457.336
-43.071	34.350	1694.221	1455.069
-42.057	34.425	1691.525	1453.262
-41.042	34.428	1689.000	1451.065
-40.027	34.386	1687.950	1449.783
-39.013	34.476	1685.494	1448.297
-37.998	34.358	1683.679	1445.789
-36.984	34.416	1682.488	1445.146
-35.969	34.532	1681.046	1444.726
-34.954	34.575	1679.136	1443.357
-33.940	34.561	1676.860	1441.233
-32.925	34.501	1675.431	1439.498
-31.911	34.415	1673.829	1437.418
-30.896	34.463	1672.090	1436.229
-29.881	34.386	1670.586	1434.299
-28.867	34.512	1668.699	1433.568
-27.852	34.502	1666.950	1431.932
-26.838	34.473	1665.594	1430.498
-25.823	34.509	1664.453	1429.730
-24.809	34.524	1662.822	1428.381
-23.794	34.542	1661.545	1427.362
-22.779	34.515	1659.516	1425.361
-21.765	34.511	1658.233	1424.172
-20.750	34.386	1656.965	1422.100
-19.736	34.541	1655.113	1421.608
-18.721	34.589	1653.295	1420.342
-17.706	34.480	1652.184	1418.521
-16.692	34.507	1650.066	1416.850
-15.677	34.498	1649.089	1415.883
-14.663	34.506	1647.486	1414.511
-13.648	34.622	1645.851	1413.913
-12.633	34.559	1644.490	1412.221
-11.619	34.540	1643.394	1411.080
-10.604	34.598	1641.249	1409.612
-9.590	34.652	1639.896	1408.797
-8.575	34.492	1638.612	1406.457
-7.560	34.452	1637.592	1405.226
-6.546	34.523	1636.277	1404.565
-5.531	34.543	1635.215	1403.750
-4.517	34.545	1633.872	1402.555
-3.502	34.568	1632.569	1401.546
-2.487	34.587	1631.487	1400.705
-1.473	34.368	1619.919	1389.124
-0.458	31.535	1598.948	1350.667
0.556	26.075	1598.084	1313.155
1.571	23.028	1622.122	1310.241
2.586	21.975	1634.001	1311.856
3.600	19.474	1580.471	1250.664
4.615	11.182	1465.905	1103.940
5.629	2.563	1397.877	996.723
6.644	0.775	1388.219	978.190
7.659	0.661	1386.604	976.233
8.673	0.577	1385.760	975.006
9.688	0.547	1384.296	973.699
10.702	0.328	1381.328	970.117
11.717	4.096	1387.707	998.839
12.731	12.681	1401.279	1064.219
13.746	17.609	1406.783	1100.206
14.761	17.348	1405.402	1097.342
15.775	16.638	1403.134	1090.902
16.790	15.614	1400.579	1082.222
17.804	14.840	1397.782	1074.991
18.819	14.456	1396.401	1071.369
19.834	14.133	1395.130	1068.220
20.848	13.787	1394.523	1065.444
21.863	13.617	1392.368	1062.610
22.877	13.402	1391.703	1060.632
23.892	13.406	1390.538	1059.673
24.907	13.324	1389.805	1058.500
25.921	13.461	1388.502	1058.288
26.936	13.440	1387.608	1057.378
27.950	13.465	1386.948	1056.944
28.965	13.442	1386.132	1056.078
29.980	13.519	1385.039	1055.648
30.994	13.580	1384.030	1055.173
32.009	13.607	1383.260	1054.661
33.023	13.564	1382.318	1053.575
34.038	13.555	1380.590	1052.111
35.053	13.441	1380.297	1051.072
36.067	13.494	1378.743	1050.131
37.082	13.511	1377.483	1049.187
38.096	13.551	1376.731	1048.775
39.111	13.573	1375.561	1047.928
40.126	13.419	1375.085	1046.496
41.140	13.340	1374.382	1045.369
42.155	13.421	1373.560	1045.166
43.169	13.314	1373.498	1044.353
44.184	13.372	1373.160	1044.366
45.199	13.365	1372.739	1043.912
46.213	13.361	1372.152	1043.345
47.228	13.479	1371.282	1043.337
48.242	13.494	1369.931	1042.311
49.257	13.369	1368.512	1040.351
50.271	13.468	1367.011	1039.739
51.286	13.572	1365.520	1039.170
52.301	13.542	1364.215	1037.894
53.315	13.460	1362.877	1036.272
54.330	13.436	1362.083	1035.427
55.344	13.436	1360.738	1034.309
56.359	13.423	1359.876	1033.482
57.374	13.381	1359.272	1032.670
58.388	13.331	1358.423	1031.622
59.403	13.363	1357.673	1031.160
60.417	13.253	1356.957	1029.839
61.432	13.382	1355.825	1029.692
62.447	13.238	1355.668	1028.590
63.461	13.255	1353.783	1027.170
64.476	13.312	1352.985	1026.831
65.490	13.229	1351.543	1025.131
66.505	13.313	1350.051	1024.427
67.520	13.349	1348.974	1023.742
68.534	13.330	1347.782	1022.630
69.549	13.340	1346.662	1021.752
70.563	13.352	1345.626	1020.951
71.578	13.247	1344.460	1019.324
72.593	13.233	1343.622	1018.512
73.607	13.176	1342.702	1017.378
74.622	13.142	1342.008	1016.550
75.636	13.211	1341.034	1016.148
76.651	13.228	1340.750	1015.950
77.666	13.225	1339.841	1015.147
78.680	13.269	1339.328	1014.939
79.695	13.175	1338.679	1013.786
80.709	13.214	1337.713	1013.199
81.724	13.282	1336.938	1012.940
82.739	13.373	1335.653	1012.434
83.753	13.446	1334.961	1012.267
84.768	13.423	1333.552	1010.966
85.782	13.531	1331.996	1010.358
86.797	13.520	1330.962	1009.415
87.812	13.453	1329.766	1008.010
88.826	13.449	1328.241	1006.742
89.841	13.508	1327.443	1006.406
90.855	13.494	1326.271	1005.347
91.870	13.474	1325.771	1004.756
92.884	13.442	1325.087	1003.956
93.899	13.522	1323.918	1003.463
94.914	13.494	1323.629	1002.986
95.928	13.530	1322.654	1002.376
96.943	13.451	1321.663	1001.061
97.957	13.525	1320.506	1000.541
98.972	13.580	1319.421	999.961
99.987	13.605	1318.532	999.353
101.001	13.535	1317.139	997.787
102.016	13.474	1316.752	997.038
103.030	13.528	1315.944	996.664
104.045	13.553	1314.668	995.757
105.060	13.495	1313.033	994.086
106.074	13.540	1311.666	993.230
107.089	13.390	1310.407	991.293
108.103	13.498	1308.977	990.766
109.118	13.315	1308.160	988.970
110.133	13.381	1307.016	988.409
111.147	13.436	1305.460	987.475
112.162	13.430	1304.367	986.522
113.176	13.398	1303.305	985.442
114.191	13.438	1302.142	984.713
115.206	13.378	1301.206	983.562
116.220	13.371	1300.379	982.807
117.235	13.416	1299.015	981.961
118.249	13.488	1297.771	981.355
119.264	13.336	1296.997	979.782
120.279	13.411	1295.748	979.198
121.293	13.358	1295.023	978.252
122.308	13.388	1293.372	977.093
123.322	13.487	1292.420	976.871
124.337	13.205	1291.957	974.774
125.352	13.345	1290.324	974.280
126.366	13.384	1289.212	973.583
127.381	13.430	1288.076	972.912
128.395	13.443	1287.221	972.256
129.410	13.455	1285.950	971.276
130.424	13.405	1285.408	970.491
131.439	13.468	1284.346	969.972
132.454	13.468	1283.389	969.163
133.468	13.455	1282.488	968.320
134.483	13.471	1281.709	967.742
135.497	13.457	1280.733	966.837
136.512	13.395	1279.701	965.612
137.527	13.531	1278.197	965.184
138.541	13.474	1276.424	963.428
139.556	13.508	1274.732	962.261
140.570	13.435	1274.241	961.383
141.585	13.526	1272.735	960.687
142.600	13.542	1271.992	960.136
143.614	13.604	1270.884	959.572
144.629	13.635	1269.550	958.658
145.643	13.680	1268.034	957.691
146.658	13.465	1267.169	955.713
147.673	13.570	1265.912	955.286
148.687	13.445	1264.989	953.784
149.702	13.532	1263.526	953.094
150.716	13.516	1262.057	951.810
151.731	13.547	1260.594	950.805
152.746	13.562	1259.614	950.064
153.760	13.618	1258.194	949.230
154.775	13.550	1257.188	948.000
155.789	13.584	1256.444	947.550
156.804	13.634	1255.314	946.899
157.819	13.698	1253.940	946.143
158.833	13.680	1252.942	945.205
159.848	13.633	1251.902	944.065
160.862	13.805	1250.750	944.092
161.877	13.695	1249.537	942.470
162.892	13.656	1248.543	941.415
163.906	13.649	1247.643	940.614
164.921	13.673	1246.914	940.119
165.935	13.738	1245.813	939.569
166.950	13.681	1245.475	938.910
167.964	13.707	1244.500	938.241
168.979	13.771	1243.578	937.826
169.994	13.679	1243.337	937.037
171.008	13.700	1242.301	936.297
172.023	13.829	1241.263	936.155
173.037	13.883	1240.633	935.901
174.052	13.770	1239.894	934.626
175.067	13.701	1238.830	933.354
176.081	13.831	1237.642	933.104
177.096	13.649	1237.204	931.672
178.110	13.799	1236.050	931.563
179.125	13.797	1234.842	930.557
180.140	13.764	1233.193	929.046
181.154	13.894	1231.937	928.747
182.169	13.876	1230.715	927.643
183.183	13.842	1229.850	926.718
184.198	13.943	1228.710	926.338
185.213	13.999	1227.052	925.321
186.227	14.074	1226.131	924.960
187.242	14.027	1225.160	923.885
188.256	14.020	1224.020	922.905
189.271	13.956	1223.367	921.979
190.286	13.887	1222.152	920.594
191.300	13.795	1221.406	919.442
192.315	13.824	1220.892	919.138
193.329	13.836	1219.810	918.305
194.344	13.834	1219.374	917.884
195.359	14.016	1218.625	918.245
196.373	14.031	1218.040	917.809
197.388	14.028	1217.671	917.433
198.402	14.082	1216.989	917.133
199.417	14.139	1216.432	916.948
200.432	14.104	1215.709	916.129
201.446	14.130	1215.058	915.699
202.461	14.263	1214.008	915.560
203.475	14.218	1212.811	914.330
204.490	14.262	1211.469	913.479
205.504	14.153	1210.827	912.315
206.519	14.184	1209.426	911.347
207.534	14.042	1208.507	909.796
208.548	14.154	1206.996	909.194
209.563	14.127	1206.671	908.720
210.577	14.118	1205.707	907.863
211.592	14.208	1205.294	907.961
212.607	14.294	1204.070	907.427
213.621	14.242	1203.302	906.487
214.636	14.283	1202.169	905.776
215.650	14.290	1201.197	905.004
216.665	14.326	1200.445	904.553
217.680	14.414	1199.618	904.323
218.694	14.384	1198.606	903.322
219.709	14.344	1197.712	902.349
220.723	14.493	1196.615	902.249
221.738	14.473	1195.796	901.446
222.753	14.474	1195.430	901.096
223.767	14.468	1194.573	900.337
224.782	14.507	1194.037	900.063
225.796	14.510	1193.599	899.669
226.811	14.680	1192.625	899.770
227.826	14.526	1192.291	898.612
228.840	14.468	1191.660	897.745
229.855	14.613	1190.049	897.230
230.869	14.678	1189.245	896.893
231.884	14.533	1188.683	895.614
232.899	14.451	1188.567	895.005
233.913	14.508	1187.507	894.433
234.928	14.484	1186.654	893.582
235.942	14.523	1185.933	893.169
236.957	14.658	1184.603	892.811
237.972	14.552	1184.158	891.832
238.986	14.598	1183.684	891.640
240.001	14.496	1183.134	890.603
241.015	14.537	1182.085	889.953
242.030	14.577	1181.203	889.423
243.045	14.715	1180.205	889.325
244.059	14.645	1179.416	888.281
245.074	14.681	1178.493	887.701
246.088	14.705	1177.914	887.312
247.103	14.693	1176.896	886.404
248.117	14.747	1176.697	886.463
249.132	14.865	1175.659	886.228
250.147	14.883	1175.043	885.778
251.161	15.142	1173.492	885.901
252.176	14.977	1173.221	884.744
253.190	15.010	1172.660	884.420
254.205	14.912	1172.321	883.565
255.220	15.025	1171.513	883.475
256.234	15.144	1170.916	883.578
257.249	15.093	1169.937	882.488
258.263	15.084	1169.542	882.068
259.278	15.167	1168.696	881.790
260.293	15.157	1168.253	881.322
261.307	15.129	1167.842	880.786
262.322	15.139	1167.104	880.207
263.336	15.083	1166.605	879.455
264.351	15.029	1165.845	878.525
265.366	15.160	1164.983	878.483
266.380	15.113	1164.785	878.007
267.395	15.241	1163.949	877.971
268.409	15.185	1163.284	877.101
269.424	15.184	1162.288	876.264
270.439	15.193	1161.782	875.852
271.453	15.188	1161.150	875.272
272.468	15.232	1159.629	874.279
273.482	15.174	1158.943	873.383
274.497	15.211	1158.868	873.443
275.512	15.283	1158.018	873.095
276.526	15.180	1157.308	871.950
277.541	15.299	1156.298	871.730
278.555	15.316	1155.566	871.190
279.570	15.390	1154.738	870.871
280.585	15.371	1154.443	870.474
281.599	15.462	1153.059	869.826
282.614	15.431	1152.427	869.110
283.628	15.298	1151.087	867.338
284.643	15.386	1150.285	867.108
285.657	15.476	1149.018	866.544
286.672	15.434	1148.468	865.833
287.687	15.520	1147.352	865.362
288.701	15.550	1147.101	865.249
289.716	15.487	1146.206	864.174
290.730	15.488	1145.255	863.385
291.745	15.570	1144.692	863.305
292.760	15.551	1143.880	862.519
293.774	15.571	1143.228	862.055
294.789	15.504	1143.095	861.533
295.803	15.687	1141.766	861.394
296.818	15.550	1141.313	860.275
297.833	15.588	1140.666	859.902
298.847	15.589	1139.809	859.185
299.862	15.708	1138.783	858.944
300.876	15.590	1138.238	857.854
301.891	15.658	1137.221	857.362
302.906	15.679	1136.850	857.111
303.920	15.808	1135.849	856.938
304.935	15.715	1135.641	856.233
305.949	15.865	1134.700	856.210
306.964	15.747	1134.224	855.172
307.979	15.790	1133.386	854.684
308.993	15.801	1132.665	854.122
310.008	15.900	1132.062	854.093
311.022	15.892	1131.122	853.270
312.037	16.014	1129.958	852.935
313.052	15.848	1129.508	851.677
314.066	15.845	1128.454	850.791
315.081	15.827	1127.425	849.850
316.095	15.941	1126.561	849.700
317.110	15.792	1126.354	848.714
318.125	15.841	1125.640	848.349
319.139	15.783	1125.059	847.546
320.154	15.903	1123.743	847.080
321.168	15.963	1123.160	846.867
322.183	15.910	1122.747	846.215
323.197	15.927	1122.209	845.823
324.212	15.971	1121.257	845.251
325.227	16.048	1120.817	845.231
326.241	16.023	1120.169	844.543
327.256	15.990	1119.507	843.801
328.270	16.023	1118.593	843.205
329.285	16.028	1117.246	842.136
330.300	16.067	1116.625	841.793
331.314	15.932	1115.953	840.537
332.329	16.074	1114.716	840.237
333.343	16.063	1113.619	839.279
334.358	16.024	1112.992	838.539
335.373	16.094	1112.107	838.150
336.387	16.143	1111.221	837.650
337.402	16.085	1110.691	836.887
338.416	16.124	1110.433	836.815
339.431	16.152	1109.490	836.167
340.446	16.232	1108.724	835.911
341.460	16.177	1108.034	835.046
342.475	16.263	1107.007	834.625
343.489	16.381	1106.169	834.498
344.504	16.295	1105.454	833.463
345.519	16.343	1104.495	832.903
346.533	16.316	1103.928	832.268
347.548	16.380	1103.041	831.840
348.562	16.407	1101.963	831.085
349.577	16.483	1101.378	830.946
350.592	16.355	1100.679	829.716
351.606	16.300	1100.013	828.870
352.621	16.322	1099.426	828.464
353.635	16.374	1098.880	828.232
354.650	16.233	1098.232	826.982
355.665	16.322	1097.523	826.809
356.679	16.406	1096.685	826.514
357.694	16.390	1096.238	826.026
358.708	16.453	1095.390	825.623
359.723	16.564	1094.965	825.770
360.738	16.465	1094.176	824.620
361.752	16.616	1093.095	824.470
362.767	16.590	1092.869	824.098
363.781	16.589	1092.479	823.728
364.796	16.476	1092.154	822.859
365.810	16.550	1091.394	822.573
366.825	16.582	1090.364	821.882
367.840	16.705	1090.057	822.176
368.854	16.872	1089.112	822.198
369.869	16.693	1088.607	820.877
370.883	16.658	1087.887	820.092
371.898	16.688	1087.047	819.532
372.913	16.701	1086.042	818.761
373.927	16.826	1085.671	819.017
374.942	16.755	1085.417	818.408
375.956	16.811	1084.815	818.153
376.971	16.786	1084.114	817.428
377.986	16.705	1083.731	816.679
379.000	16.883	1082.963	816.885
380.015	17.023	1082.242	816.943
381.029	16.976	1081.601	816.160
382.044	16.970	1081.104	815.687
383.059	17.037	1080.082	815.165
384.073	17.100	1079.362	814.849
385.088	16.913	1078.851	813.495
386.102	17.135	1077.607	813.551
387.117	16.985	1076.649	812.037
388.132	16.939	1075.820	811.120
389.146	17.023	1075.031	810.854
390.161	17.020	1074.052	810.028
391.175	16.928	1073.870	809.383
392.190	17.070	1072.771	809.158
393.205	17.178	1071.798	808.868
394.219	17.020	1071.448	807.779
395.234	17.094	1070.550	807.385
396.248	17.144	1069.091	806.448
397.263	17.037	1068.672	805.553
398.278	17.039	1067.721	804.775
399.292	17.160	1066.584	804.420
400.307	17.089	1066.387	803.863
401.321	17.015	1065.834	803.026
402.336	17.097	1065.162	802.837
403.350	16.966	1064.280	801.480
404.365	17.113	1063.353	801.405
405.380	17.218	1063.059	801.609
406.394	17.211	1062.418	801.019
407.409	17.191	1061.552	800.205
408.423	17.247	1060.665	799.725
409.438	17.338	1059.400	799.130
410.453	17.325	1059.348	798.961
411.467	17.395	1058.307	798.434
412.482	17.403	1057.746	797.975
413.496	17.426	1056.909	797.382
414.511	17.516	1056.399	797.349
415.526	17.418	1056.096	796.588
416.540	17.438	1056.059	796.583
417.555	17.523	1055.123	796.208
418.569	17.449	1054.743	795.502
419.584	17.510	1054.267	795.360
420.599	17.608	1053.641	795.274
421.613	99.938	1315.403	1446.777
422.628	92.133	1353.538	1446.880
