DTS Sentinel unit serial number:	SN413079Multiplexer serial number:	ORYXHardware model number:	OX4-SRSoftware version number:	ORYX F/W v4.00 Oryx Data Collector v3.7.2.0data status	okinstallation	princeton_trtdifferential loss correction	single-endedforward channel	channel 2reverse channel	N/Adate	2019/09/11time	13:37:11forward acquisition time	60.00reverse acquisition time	0.00gamma	496.2192k internal	0.2292k external	0.2292temperature offset calibration	1.0007default loss term (dB/km)	0.3790temperature slope calibration	1.0000multiplexer offset coefficient	1.0000multiplexer slope coefficient	1.0000fibre end	0.00T internal ref (°C)	41.94T ext. ref 1 (°C)	0.84T ext. ref 2 (°C)	35.69length (m)	temperature (°C)	Stokes	anti-Stokes-747.200	800.000	-0.106	0.400
-746.185	-99.058	-0.560	0.145
-745.171	800.000	0.058	0.195
-744.156	168.246	-0.103	0.150
-743.142	-171.038	0.089	0.003
-742.127	69.608	-0.174	0.183
-741.112	-31.182	0.263	0.152
-740.098	710.434	0.102	0.275
-739.083	72.705	0.110	-0.118
-738.069	83.027	0.394	0.438
-737.054	-61.704	0.242	0.104
-736.039	-200.000	0.018	-0.236
-735.025	740.484	0.036	-0.100
-734.010	12.160	-0.200	0.158
-732.996	92.180	-0.027	0.031
-731.981	4.588	-0.107	-0.081
-730.966	-2.543	-0.233	0.167
-729.952	-200.000	-0.015	-0.169
-728.937	-0.906	0.094	-0.068
-727.923	-145.842	-0.317	0.029
-726.908	-75.647	-0.185	-0.067
-725.894	-200.000	-0.010	0.052
-724.879	61.896	-0.405	-0.413
-723.864	-126.755	-0.427	0.065
-722.850	-200.000	0.002	0.265
-721.835	-125.874	0.330	-0.051
-720.821	-10.764	-0.184	0.124
-719.806	-200.000	-0.019	0.159
-718.791	105.235	0.193	-0.233
-717.777	36.464	-0.042	0.037
-716.762	112.996	0.228	-0.283
-715.748	-145.115	-0.373	0.035
-714.733	263.095	-0.073	0.129
-713.718	-35.837	-0.301	-0.167
-712.704	-131.001	0.302	0.041
-711.689	-200.000	0.062	-0.410
-710.675	-141.692	0.134	0.014
-709.660	-200.000	-0.023	0.138
-708.645	-174.736	-0.344	-0.010
-707.631	-0.484	0.514	-0.373
-706.616	800.000	0.049	0.186
-705.602	-91.282	0.461	0.135
-704.587	-26.776	-0.174	0.104
-703.572	400.578	-0.115	0.247
-702.558	65.577	-0.222	-0.230
-701.543	-64.297	0.174	0.072
-700.529	-0.701	0.245	0.178
-699.514	260.300	0.103	0.182
-698.499	800.000	-0.012	-0.037
-697.485	32.574	-0.196	0.173
-696.470	-150.953	-0.031	-0.002
-695.456	18.326	0.241	-0.197
-694.441	-200.000	0.029	-0.281
-693.426	-200.000	-0.024	-0.140
-692.412	-72.131	0.137	-0.052
-691.397	-117.599	-0.057	-0.010
-690.383	-70.844	-0.132	0.051
-689.368	505.789	-0.123	-0.291
-688.354	564.670	-0.033	0.080
-687.339	107.569	-0.057	-0.069
-686.324	320.481	-0.058	-0.112
-685.310	-124.153	-0.152	-0.024
-684.295	-39.577	0.176	0.094
-683.281	-200.000	-0.058	-0.304
-682.266	448.850	0.059	-0.133
-681.251	-46.325	-0.255	-0.128
-680.237	800.000	-0.046	0.147
-679.222	77.093	0.188	-0.204
-678.208	-89.392	-0.295	-0.089
-677.193	243.295	0.107	0.182
-676.178	130.264	0.112	-0.146
-675.164	-200.000	0.009	-0.275
-674.149	-13.110	-0.063	0.042
-673.135	24.978	-0.072	0.061
-672.120	-200.000	-0.012	-0.068
-671.105	83.542	0.047	-0.052
-670.091	334.726	-0.086	-0.170
-669.076	-3.808	0.186	0.132
-668.062	194.972	-0.087	-0.134
-667.047	-52.923	0.189	0.089
-666.032	168.555	0.169	-0.246
-665.018	-160.081	0.074	-0.004
-664.003	430.465	-0.121	-0.268
-662.989	-56.008	0.253	-0.115
-661.974	-200.000	0.004	0.247
-660.959	-159.728	-0.144	0.008
-659.945	800.000	-0.054	0.214
-658.930	-200.000	-0.038	0.280
-657.916	457.895	-0.112	-0.255
-656.901	-175.865	0.177	-0.005
-655.886	-200.000	-0.016	-0.199
-654.872	-114.186	0.232	-0.046
-653.857	115.874	0.174	-0.217
-652.843	-140.808	0.334	0.035
-651.828	-83.648	0.066	0.021
-650.814	-121.987	0.065	0.011
-649.799	331.021	0.018	-0.035
-648.784	-200.000	0.007	0.041
-647.770	16.191	0.214	0.172
-646.755	199.296	-0.227	-0.355
-645.741	26.625	0.044	0.038
-644.726	-200.000	0.033	-0.289
-643.711	-77.854	-0.374	-0.132
-642.697	-71.118	0.189	0.072
-641.682	-200.000	-0.017	-0.177
-640.668	-77.745	-0.224	-0.079
-639.653	53.869	0.185	0.181
-638.638	-27.660	0.363	-0.215
-637.624	46.731	0.071	-0.067
-636.609	-158.020	-0.288	-0.017
-635.595	-4.207	0.152	0.107
-634.580	-114.010	0.190	0.038
-633.565	-38.129	-0.262	0.142
-632.551	-133.920	-0.352	0.045
-631.536	141.116	-0.156	-0.210
-630.522	-95.321	0.106	0.029
-629.507	220.468	-0.161	0.262
-628.492	129.001	-0.009	-0.011
-627.478	57.483	0.056	0.055
-626.463	12.045	-0.214	-0.168
-625.449	-54.735	-0.224	-0.103
-624.434	-200.000	0.024	-0.325
-623.419	-200.000	0.035	0.310
-622.405	-81.930	-0.130	0.043
-621.390	800.000	0.072	0.301
-620.376	-200.000	-0.013	0.229
-619.361	-200.000	-0.001	0.069
-618.346	-114.724	0.130	-0.025
-617.332	178.514	-0.332	-0.494
-616.317	-119.546	0.078	0.014
-615.303	9.288	0.144	0.111
-614.288	-81.105	-0.223	0.075
-613.273	-147.249	-0.195	-0.017
-612.259	-200.000	-0.072	-0.351
-611.244	-32.819	-0.113	0.064
-610.230	154.116	0.139	0.194
-609.215	60.445	0.098	0.099
-608.201	-51.182	0.180	-0.086
-607.186	-200.000	-0.026	-0.296
-606.171	42.599	0.150	-0.139
-605.157	-122.609	0.235	-0.039
-604.142	288.751	0.087	-0.161
-603.128	-78.420	0.369	-0.129
-602.113	800.000	-0.074	-0.235
-601.098	-200.000	0.040	0.398
-600.084	-200.000	-0.064	-0.456
-599.069	260.765	-0.172	-0.303
-598.055	-42.414	-0.230	0.119
-597.040	113.655	0.055	-0.068
-596.025	579.210	-0.116	-0.290
-595.011	110.510	-0.130	0.159
-593.996	-25.617	0.167	0.100
-592.982	800.000	0.075	-0.316
-591.967	2.682	-0.091	-0.067
-590.952	600.859	-0.108	-0.272
-589.938	320.956	0.202	0.391
-588.923	134.266	-0.147	0.194
-587.909	-200.000	0.063	0.287
-586.894	189.310	-0.120	-0.184
-585.879	31.195	0.328	0.287
-584.865	800.000	-0.081	-0.354
-583.850	-200.000	-0.065	0.364
-582.836	-175.424	-0.054	-0.002
-581.821	656.842	0.022	0.057
-580.806	-7.792	0.200	0.137
-579.792	-102.993	0.152	-0.037
-578.777	-62.561	0.180	0.076
-577.763	-72.838	0.248	0.093
-576.748	-118.637	-0.153	-0.027
-575.733	800.000	0.083	0.243
-574.719	-108.936	-0.273	-0.059
-573.704	190.242	0.049	-0.075
-572.690	-53.278	0.574	0.267
-571.675	-88.514	0.078	0.024
-570.661	201.046	0.041	-0.064
-569.646	143.509	0.248	0.336
-568.631	-2.219	0.160	0.114
-567.617	282.325	0.041	0.074
-566.602	-45.013	0.215	0.109
-565.588	-125.240	0.097	-0.015
-564.573	-200.000	-0.049	0.263
-563.558	-6.883	-0.035	-0.024
-562.544	-28.770	0.343	0.201
-561.529	252.044	-0.079	-0.138
-560.515	-200.000	0.070	-0.322
-559.500	-35.254	0.141	0.078
-558.485	26.303	0.069	-0.059
-557.471	-133.082	0.090	0.012
-556.456	-151.968	-0.286	0.021
-555.442	490.121	0.061	-0.142
-554.427	45.971	-0.144	-0.135
-553.412	-20.577	0.191	0.119
-552.398	-54.052	0.123	0.057
-551.383	-200.000	-0.004	0.031
-550.369	-200.000	0.028	-0.190
-549.354	-63.455	0.202	-0.084
-548.339	300.107	-0.207	-0.387
-547.325	-200.000	0.011	0.292
-546.310	288.946	0.148	0.273
-545.296	16.411	-0.380	-0.305
-544.281	268.029	0.196	-0.348
-543.266	-78.165	-0.193	-0.067
-542.252	-200.000	0.020	0.150
-541.237	158.841	-0.086	-0.121
-540.223	39.577	-0.268	-0.244
-539.208	-200.000	0.072	-0.363
-538.193	65.211	-0.115	0.118
-537.179	-146.407	-0.223	0.020
-536.164	800.000	-0.033	-0.095
-535.150	231.660	-0.123	-0.205
-534.135	143.961	0.176	0.239
-533.121	-200.000	-0.038	0.262
-532.106	-200.000	0.018	-0.171
-531.091	-173.743	0.046	0.001
-530.077	25.393	0.202	0.170
-529.062	-34.061	-0.049	-0.027
-528.048	-21.167	-0.155	0.096
-527.033	-37.330	0.316	0.171
-526.018	800.000	0.070	-0.233
-525.004	192.301	0.212	0.325
-523.989	-195.410	-0.076	0.001
-522.975	-200.000	0.022	0.294
-521.960	-27.891	-0.122	-0.072
-520.945	-141.213	0.259	-0.027
-519.931	-44.820	-0.188	-0.095
-518.916	593.985	0.124	-0.311
-517.902	-200.000	-0.015	0.084
-516.887	-96.585	0.335	0.089
-515.872	-200.000	0.048	0.245
-514.858	-29.980	-0.082	0.048
-513.843	745.611	0.106	-0.288
-512.829	58.112	-0.079	0.079
-511.814	24.402	0.086	0.072
-510.799	79.863	-0.188	0.205
-509.785	-36.486	0.205	-0.112
-508.770	-139.773	-0.331	-0.036
-507.756	64.756	0.299	-0.306
-506.741	-200.000	0.002	-0.168
-505.726	-64.343	-0.501	0.207
-504.712	101.159	-0.243	-0.286
-503.697	-34.641	0.382	-0.212
-502.683	-91.337	-0.050	-0.015
-501.668	-200.000	0.014	0.073
-500.653	183.755	0.262	0.393
-499.639	-129.044	0.084	0.012
-498.624	-200.000	-0.005	-0.377
-497.610	800.000	-0.113	-0.349
-496.595	800.000	0.071	-0.293
-495.581	-122.698	-0.300	0.049
-494.566	-112.350	0.315	-0.064
-493.551	-21.634	-0.133	0.082
-492.537	-200.000	0.000	0.370
-491.522	-200.000	0.020	-0.166
-490.508	-168.604	0.367	0.014
-489.493	-200.000	-0.026	-0.267
-488.478	79.730	-0.281	0.305
-487.464	629.902	-0.052	0.133
-486.449	158.599	-0.254	-0.357
-485.435	13.805	-0.240	-0.189
-484.420	-4.002	0.306	-0.215
-483.405	-200.000	-0.019	0.378
-482.391	334.402	0.179	0.351
-481.376	22.050	-0.249	0.206
-480.362	-97.465	-0.349	0.092
-479.347	221.150	0.094	-0.153
-478.332	263.535	0.122	-0.214
-477.318	585.874	-0.110	0.274
-476.303	-78.450	0.198	-0.069
-475.289	800.000	-0.067	-0.223
-474.274	170.185	-0.195	0.283
-473.259	239.075	0.171	0.288
-472.245	261.672	-0.090	0.157
-471.230	-200.000	0.018	-0.221
-470.216	-200.000	-0.019	0.109
-469.201	112.520	-0.143	0.175
-468.186	65.942	0.241	-0.247
-467.172	23.402	-0.021	-0.018
-466.157	17.336	0.219	-0.176
-465.143	-200.000	0.003	0.353
-464.128	-86.767	-0.308	0.095
-463.113	800.000	0.019	-0.081
-462.099	113.481	0.016	-0.020
-461.084	-84.169	0.117	0.037
-460.070	706.313	-0.140	0.375
-459.055	-138.725	-0.303	0.033
-458.040	-35.230	-0.106	0.059
-457.026	701.100	0.059	0.157
-456.011	457.091	-0.113	-0.253
-454.997	104.219	0.171	-0.203
-453.982	98.754	0.130	0.152
-452.968	204.375	0.070	0.110
-451.953	90.051	0.198	0.224
-450.938	55.184	-0.098	0.096
-449.924	-35.546	0.110	-0.060
-448.909	800.000	0.092	-0.354
-447.895	-71.128	-0.151	-0.057
-446.880	-2.397	-0.178	-0.126
-445.865	-85.139	-0.069	0.022
-444.851	-119.679	-0.265	0.046
-443.836	-126.578	0.417	0.063
-442.822	-7.446	0.283	0.194
-441.807	-121.125	-0.084	-0.014
-440.792	-54.520	0.108	-0.050
-439.778	-108.486	0.148	0.032
-438.763	300.280	-0.138	-0.257
-437.749	-143.991	0.289	0.028
-436.734	-200.000	-0.004	0.105
-435.719	57.074	-0.405	0.400
-434.705	-200.000	0.002	0.276
-433.690	0.006	-0.243	-0.175
-432.676	27.504	0.178	-0.151
-431.661	206.003	-0.018	-0.028
-430.646	84.602	-0.360	-0.398
-429.632	-113.850	0.220	-0.043
-428.617	-32.224	0.078	0.044
-427.603	-41.910	-0.305	-0.158
-426.588	121.563	-0.195	-0.246
-425.573	-200.000	-0.052	0.441
-424.559	253.640	0.123	0.213
-423.544	-116.827	-0.236	0.044
-422.530	-200.000	0.002	-0.201
-421.515	6.433	-0.200	0.150
-420.500	171.337	0.100	0.144
-419.486	-200.000	-0.023	0.188
-418.471	-9.856	-0.314	0.211
-417.457	780.560	-0.085	-0.235
-416.442	6.050	-0.440	-0.330
-415.428	-60.380	0.095	-0.041
-414.413	-115.494	-0.061	0.012
-413.398	154.882	-0.161	-0.223
-412.384	92.610	-0.120	0.137
-411.369	747.652	-0.072	-0.195
-410.355	137.225	0.080	-0.106
-409.340	308.495	0.196	0.369
-408.325	24.650	-0.207	0.173
-407.311	-68.908	0.092	-0.036
-406.296	148.859	-0.131	0.179
-405.282	151.367	-0.187	-0.256
-404.267	-170.297	-0.092	-0.003
-403.252	-200.000	-0.027	-0.392
-402.238	-67.875	-0.067	0.027
-401.223	143.664	0.078	0.105
-400.209	-131.640	-0.381	-0.051
-399.194	22.636	-0.207	-0.171
-398.179	-112.589	0.264	0.053
-397.165	641.787	0.097	0.250
-396.150	17.782	-0.048	0.039
-395.136	329.000	-0.122	-0.237
-394.121	-85.144	0.133	-0.042
-393.106	800.000	-0.125	-0.394
-392.092	-92.251	-0.059	0.017
-391.077	-86.105	0.208	0.065
-390.063	-91.929	0.269	0.077
-389.048	800.000	-0.019	-0.070
-388.033	92.594	0.068	0.077
-387.019	482.435	0.132	0.302
-386.004	27.435	-0.214	0.181
-384.990	18.064	0.293	-0.236
-383.975	-176.650	-0.179	-0.005
-382.960	-200.000	-0.033	0.199
-381.946	133.666	0.043	-0.056
-380.931	-81.820	-0.109	-0.036
-379.917	87.838	-0.186	0.208
-378.902	-118.334	0.028	-0.005
-377.888	-137.243	-0.284	-0.033
-376.873	-68.520	0.432	-0.169
-375.858	-34.534	0.109	0.060
-374.844	29.624	-0.124	0.106
-373.829	-200.000	0.037	-0.244
-372.815	32.413	-0.233	-0.203
-371.800	23.795	-0.020	-0.017
-370.785	-200.000	-0.031	-0.266
-369.771	-200.000	-0.057	0.261
-368.756	-44.039	-0.170	-0.086
-367.742	-166.690	0.198	0.008
-366.727	-4.375	-0.157	0.110
-365.712	800.000	-0.088	0.271
-364.698	-110.396	-0.106	-0.022
-363.683	-115.589	0.275	-0.052
-362.669	-62.950	-0.218	0.091
-361.654	-112.394	0.297	0.060
-360.639	-200.000	0.009	-0.497
-359.625	327.989	-0.024	-0.047
-358.610	-81.920	-0.114	-0.038
-357.596	-107.786	0.210	0.046
-356.581	-200.000	0.000	-0.108
-355.566	-43.192	-0.336	0.172
-354.552	-127.003	0.068	-0.010
-353.537	73.869	0.019	0.020
-352.523	30.723	-0.174	-0.150
-351.508	800.000	0.084	-0.350
-350.493	95.432	-0.130	-0.149
-349.479	800.000	-0.045	-0.159
-348.464	-116.601	0.284	0.053
-347.450	-200.000	0.025	-0.179
-346.435	-93.112	0.221	-0.062
-345.420	6.450	-0.063	0.047
-344.406	34.331	0.134	-0.118
-343.391	-192.600	-0.464	-0.004
-342.377	-47.608	-0.190	0.093
-341.362	625.928	-0.024	-0.061
-340.348	800.000	0.062	0.214
-339.333	527.159	0.134	-0.318
-338.318	411.935	-0.159	0.339
-337.304	-200.000	-0.030	0.250
-336.289	-31.257	0.043	0.024
-335.275	141.320	0.232	-0.309
-334.260	-102.606	-0.355	0.085
-333.245	-73.268	-0.107	-0.039
-332.231	123.496	0.159	0.200
-331.216	-103.241	0.312	0.074
-330.202	800.000	0.015	0.066
-329.187	125.050	0.087	-0.110
-328.172	800.000	0.074	-0.307
-327.158	800.000	0.086	0.238
-326.143	65.793	0.148	0.151
-325.129	-41.321	-0.438	-0.227
-324.114	-200.000	-0.051	0.322
-323.099	800.000	-0.041	-0.171
-322.085	172.271	-0.320	0.464
-321.070	-88.013	-0.296	0.090
-320.056	-26.700	0.157	-0.092
-319.041	70.282	-0.147	0.153
-318.026	46.510	-0.308	0.288
-317.012	534.511	-0.129	-0.309
-315.997	566.971	-0.081	-0.198
-314.983	-200.000	0.004	0.299
-313.968	-154.405	0.214	0.014
-312.953	144.326	-0.195	0.262
-311.939	56.342	-0.110	-0.107
-310.924	-123.050	-0.130	-0.021
-309.910	800.000	-0.056	-0.236
-308.895	2.713	0.174	0.127
-307.880	38.826	-0.150	0.134
-306.866	-129.195	0.209	0.029
-305.851	-3.980	-0.228	0.159
-304.837	95.460	-0.086	0.099
-303.822	5.043	0.071	-0.053
-302.807	31.317	0.232	0.200
-301.793	-200.000	0.025	0.247
-300.778	-200.000	0.017	0.094
-299.764	30.668	-0.181	0.156
-298.749	-60.317	-0.096	-0.041
-297.735	5.422	0.275	-0.204
-296.720	33.397	-0.017	0.015
-295.705	244.879	-0.103	0.174
-294.691	800.000	0.067	-0.253
-293.676	-179.973	-0.225	-0.005
-292.662	384.393	0.074	0.153
-291.647	142.734	-0.125	0.167
-290.632	-28.803	-0.122	0.070
-289.618	281.046	-0.057	-0.103
-288.603	95.162	0.037	-0.043
-287.589	-200.000	0.244	-0.001
-286.574	-200.000	-0.033	-0.227
-285.559	-28.533	-0.444	-0.257
-284.545	-116.116	0.052	-0.010
-283.530	361.064	-0.082	-0.165
-282.516	79.341	0.032	-0.034
-281.501	56.732	0.087	-0.085
-280.486	-81.138	0.186	0.062
-279.472	-66.583	-0.157	0.063
-278.457	-123.923	0.100	-0.016
-277.443	-200.000	0.012	0.308
-276.428	-200.000	0.055	-0.354
-275.413	285.246	-0.125	0.227
-274.399	-200.000	0.023	0.158
-273.384	-81.092	0.139	0.046
-272.370	4.977	-0.047	-0.035
-271.355	-200.000	-0.151	-0.001
-270.340	-200.000	0.001	0.343
-269.326	82.785	0.039	0.043
-268.311	-99.971	-0.053	0.013
-267.297	-92.950	0.175	-0.049
-266.282	-105.087	0.398	-0.091
-265.267	46.442	-0.200	0.187
-264.253	-186.955	0.244	0.003
-263.238	521.520	0.075	-0.178
-262.224	43.978	0.162	0.149
-261.209	-52.470	0.280	0.130
-260.195	109.743	0.121	0.145
-259.180	26.780	-0.144	0.121
-258.165	616.937	0.139	0.349
-257.151	-3.959	0.419	0.292
-256.136	-200.000	0.001	0.018
-255.122	-109.701	-0.376	0.080
-254.107	542.111	0.045	-0.108
-253.092	63.934	-0.138	-0.139
-252.078	55.044	0.235	0.228
-251.063	-50.867	-0.229	-0.108
-250.049	-5.663	0.153	-0.105
-249.034	211.874	0.264	-0.417
-248.019	50.429	0.307	-0.291
-247.005	147.410	0.210	-0.284
-245.990	-39.654	-0.065	-0.034
-244.976	-133.180	-0.133	0.017
-243.961	-150.108	-0.268	0.021
-242.946	-52.231	-0.107	0.050
-241.932	-200.000	0.013	-0.201
-240.917	-66.208	0.313	0.125
-239.903	191.186	-0.104	-0.158
-238.888	-126.340	0.204	-0.030
-237.873	-200.000	0.030	-0.187
-236.859	45.985	-0.231	-0.215
-235.844	-169.017	-0.088	-0.003
-234.830	-200.000	-0.032	0.243
-233.815	-200.000	0.034	0.319
-232.800	-166.793	0.088	-0.004
-231.786	375.213	0.043	-0.088
-230.771	800.000	-0.078	0.217
-229.757	-97.207	-0.265	0.070
-228.742	-200.000	-0.013	0.424
-227.727	58.158	0.056	-0.055
-226.713	-153.900	0.430	-0.029
-225.698	-200.000	0.007	-0.124
-224.684	-68.319	0.149	-0.058
-223.669	243.214	0.170	-0.285
-222.655	36.961	0.211	0.187
-221.640	-200.000	-0.017	0.171
-220.625	757.484	-0.107	0.289
-219.611	-144.569	0.123	0.011
-218.596	-53.698	-0.281	-0.129
-217.582	-159.596	0.216	0.012
-216.567	-137.925	0.288	-0.032
-215.552	-200.000	0.006	0.487
-214.538	197.961	-0.121	0.186
-213.523	-200.000	-0.046	-0.215
-212.509	24.493	0.213	-0.177
-211.494	435.604	0.113	0.246
-210.479	-20.751	-0.209	-0.129
-209.465	-28.115	0.159	0.092
-208.450	-155.753	0.221	0.014
-207.436	800.000	-0.109	-0.445
-206.421	800.000	-0.055	0.179
-205.406	-54.760	0.457	0.207
-204.392	-50.389	-0.114	0.054
-203.377	-200.000	0.016	0.283
-202.363	-79.457	0.279	-0.094
-201.348	83.405	0.131	0.144
-200.333	317.493	0.063	-0.119
-199.319	239.192	-0.073	0.121
-198.304	548.814	0.092	-0.220
-197.290	-8.440	-0.291	-0.196
-196.275	-200.000	-0.035	-0.196
-195.260	280.338	-0.058	-0.105
-194.246	-162.604	0.248	-0.012
-193.231	67.479	-0.142	0.145
-192.217	356.608	0.094	-0.187
-191.202	57.434	-0.085	0.083
-190.187	184.566	0.030	0.044
-189.173	-46.431	-0.081	-0.040
-188.158	125.631	-0.192	-0.242
-187.144	-12.063	0.063	0.041
-186.129	-200.000	0.049	-0.435
-185.114	-125.713	0.164	0.025
-184.100	-36.213	-0.061	-0.033
-183.085	11.504	-0.096	0.074
-182.071	15.389	-0.186	-0.146
-181.056	775.816	0.066	0.179
-180.042	-75.035	0.329	-0.118
-179.027	-111.665	0.197	-0.040
-178.012	38.485	0.106	0.094
-176.998	253.404	-0.075	-0.129
-175.983	-78.254	-0.111	0.038
-174.969	800.000	-0.074	-0.283
-173.954	800.000	0.060	-0.205
-172.939	-98.366	-0.202	-0.052
-171.925	-135.403	-0.065	0.008
-170.910	-65.177	-0.232	0.093
-169.896	-200.000	-0.015	0.155
-168.881	461.029	0.082	0.183
-167.866	468.256	-0.084	0.188
-166.852	47.112	0.240	0.224
-165.837	-60.910	-0.117	-0.049
-164.823	243.615	0.126	-0.212
-163.808	-86.222	-0.182	-0.056
-162.793	-159.863	-0.175	0.010
-161.779	-128.731	-0.050	-0.007
-160.764	-200.000	0.029	-0.167
-159.750	425.985	-0.031	-0.067
-158.735	517.777	0.149	-0.348
-157.720	109.770	-0.131	0.158
-156.706	-200.000	-0.061	0.345
-155.691	800.000	0.035	0.126
-154.677	-52.129	0.261	-0.121
-153.662	27.924	-0.100	0.084
-152.647	-134.465	0.148	0.018
-151.633	-200.000	0.006	0.073
-150.618	-88.186	-0.256	-0.077
-149.604	-83.170	-0.253	-0.081
-148.589	-186.172	-0.378	-0.006
-147.574	97.428	-0.114	-0.131
-146.560	800.000	-0.018	0.051
-145.545	-200.000	0.001	-0.096
-144.531	-91.921	0.103	0.029
-143.516	11.614	-0.171	-0.131
-142.502	-200.000	-0.076	0.407
-141.487	800.000	-0.043	0.184
-140.472	800.000	0.068	-0.274
-139.458	267.431	0.220	-0.385
-138.443	-173.245	-0.220	-0.007
-137.429	-23.597	0.130	0.078
-136.414	510.457	0.090	0.210
-135.399	252.312	0.062	0.106
-134.385	551.464	-0.134	-0.322
-133.370	27.628	0.092	-0.077
-132.356	-200.000	0.018	0.124
-131.341	-200.000	0.039	-0.220
-130.326	347.659	0.162	0.319
-129.312	-114.853	-0.292	0.056
-128.297	241.893	-0.131	0.219
-127.283	-136.121	-0.025	-0.003
-126.268	27.734	-0.320	-0.269
-125.253	-139.095	0.388	-0.042
-124.239	118.843	0.201	-0.248
-123.224	800.000	-0.054	-0.183
-122.210	-109.365	0.447	0.095
-121.195	209.406	-0.104	0.163
-120.180	-92.200	0.264	-0.074
-119.166	-106.943	0.269	-0.059
-118.151	-98.103	-0.319	-0.082
-117.137	81.584	0.344	0.372
-116.122	-200.000	-0.048	-0.241
-115.107	111.766	-0.151	-0.182
-114.093	-200.000	-0.040	-0.238
-113.078	-147.282	-0.228	-0.019
-112.064	-105.821	-0.174	0.039
-111.049	613.012	0.097	-0.242
-110.034	-63.756	0.421	0.172
-109.020	122.926	0.045	-0.056
-108.005	155.129	-0.065	-0.089
-106.991	209.189	0.091	-0.142
-105.976	-200.000	-0.025	0.294
-104.962	124.477	0.156	-0.196
-103.947	180.421	-0.086	0.126
-102.932	-34.081	-0.134	-0.074
-101.918	-54.166	0.182	0.083
-100.903	-26.750	0.151	0.088
-99.889	-200.000	0.027	0.276
-98.874	287.414	-0.146	-0.264
-97.859	-112.644	0.149	-0.030
-96.845	-73.417	-0.431	-0.157
-95.830	-128.736	0.306	0.043
-94.816	-61.596	0.252	-0.106
-93.801	-16.392	-0.139	0.088
-92.786	-169.577	0.063	-0.002
-91.772	151.551	-0.186	-0.253
-90.757	25.864	0.031	-0.026
-89.743	451.712	0.046	-0.102
-88.728	84.742	-0.134	0.146
-87.713	11.365	-0.332	0.254
-86.699	-112.734	-0.224	0.044
-85.684	39.019	0.120	0.107
-84.670	331.419	0.212	-0.407
-83.655	800.000	-0.016	-0.046
-82.640	-70.070	-0.084	-0.032
-81.626	-20.768	0.236	0.145
-80.611	122.811	0.115	0.144
-79.597	-46.638	0.178	-0.087
-78.582	473.356	0.091	0.204
-77.567	149.107	0.174	-0.234
-76.553	74.665	-0.081	0.084
-75.538	63.715	0.131	0.132
-74.524	86.871	0.167	0.184
-73.509	536.267	0.083	0.196
-72.494	-111.910	0.218	0.044
-71.480	-65.577	0.080	0.032
-70.465	-79.833	0.211	-0.071
-69.451	-200.000	-0.014	0.147
-68.436	66.987	0.254	0.258
-67.422	-38.799	-0.119	-0.062
-66.407	110.447	-0.120	0.144
-65.392	-52.379	0.102	-0.047
-64.378	11.756	0.217	0.166
-63.363	476.659	-0.111	0.250
-62.349	-73.276	0.124	-0.045
-61.334	1.190	-0.938	-0.671
-60.319	61.885	0.340	0.338
-59.305	800.000	0.230	-0.860
-58.290	216.813	0.463	0.734
-57.276	569.117	0.521	1.261
-56.261	-200.000	75.609	531.536
-55.246	558.060	1308.210	3143.372
-54.232	144.580	2557.220	3402.826
-53.217	112.556	2359.080	2844.228
-52.203	51.527	1973.495	1868.171
-51.188	45.366	1761.008	1618.399
-50.173	42.374	1714.577	1552.558
-49.159	56.929	1747.881	1696.304
-48.144	62.667	1766.228	1758.638
-47.130	45.270	1729.757	1588.680
-46.115	41.980	1716.420	1550.927
-45.100	41.793	1711.518	1544.991
-44.086	41.780	1708.904	1542.469
-43.071	41.885	1705.707	1540.331
-42.057	41.891	1703.240	1538.094
-41.042	41.817	1701.637	1536.011
-40.027	41.799	1699.762	1534.127
-39.013	41.917	1697.001	1532.474
-37.998	41.759	1695.876	1530.188
-36.984	41.864	1693.834	1529.089
-35.969	41.980	1692.409	1528.629
-34.954	41.983	1691.221	1527.517
-33.940	41.987	1688.928	1525.413
-32.925	41.953	1687.266	1523.595
-31.911	42.061	1685.110	1522.406
-30.896	42.000	1683.364	1520.306
-29.881	41.932	1681.980	1518.477
-28.867	41.940	1680.276	1516.945
-27.852	41.925	1678.625	1515.280
-26.838	41.901	1677.110	1513.669
-25.823	41.960	1675.594	1512.689
-24.809	42.054	1674.312	1512.176
-23.794	41.927	1672.872	1509.863
-22.779	42.033	1670.599	1508.544
-21.765	41.951	1669.206	1506.615
-20.750	41.925	1667.746	1505.041
-19.736	41.907	1666.742	1503.936
-18.721	41.937	1665.263	1502.769
-17.706	41.906	1663.247	1500.660
-16.692	41.827	1662.040	1498.914
-15.677	41.932	1660.272	1498.050
-14.663	42.006	1659.111	1497.497
-13.648	41.927	1657.686	1495.559
-12.633	42.021	1655.788	1494.488
-11.619	42.021	1654.092	1492.902
-10.604	41.820	1652.944	1490.304
-9.590	41.971	1651.032	1489.650
-8.575	41.912	1650.485	1488.657
-7.560	41.958	1649.034	1487.630
-6.546	41.971	1647.311	1486.112
-5.531	41.954	1646.305	1485.017
-4.517	41.920	1645.004	1483.539
-3.502	41.900	1644.316	1482.707
-2.487	42.096	1642.443	1482.410
-1.473	41.950	1630.679	1470.663
-0.458	39.206	1611.064	1432.952
0.556	34.333	1609.283	1396.841
1.571	31.748	1634.236	1399.095
2.586	31.108	1648.885	1406.689
3.600	27.346	1594.895	1333.012
4.615	14.812	1472.351	1145.142
5.629	3.144	1395.659	1009.216
6.644	1.056	1384.958	987.786
7.659	0.889	1383.404	985.503
8.673	0.699	1382.728	983.700
9.688	0.707	1380.661	982.195
10.702	0.503	1378.121	978.979
11.717	4.738	1387.052	1012.841
12.731	16.417	1410.730	1106.958
13.746	24.269	1422.554	1167.793
14.761	24.408	1421.923	1168.085
15.775	24.435	1420.935	1167.344
16.790	24.399	1420.621	1166.749
17.804	24.480	1420.176	1166.812
18.819	24.702	1419.597	1167.683
19.834	24.750	1418.978	1167.380
20.848	24.595	1418.807	1166.123
21.863	24.679	1417.741	1165.693
22.877	24.790	1416.201	1165.048
23.892	24.725	1415.610	1164.038
24.907	24.615	1415.173	1162.861
25.921	24.724	1413.887	1162.406
26.936	24.726	1412.513	1161.189
27.950	24.645	1411.594	1159.801
28.965	24.684	1410.628	1159.162
29.980	24.780	1408.752	1158.139
30.994	24.838	1407.585	1157.452
32.009	24.725	1406.582	1155.794
33.023	24.719	1405.396	1154.678
34.038	24.698	1404.333	1153.564
35.053	24.754	1403.127	1152.837
36.067	24.769	1402.502	1152.314
37.082	24.743	1401.111	1150.907
38.096	24.708	1400.413	1150.005
39.111	24.744	1399.717	1149.559
40.126	24.663	1398.721	1148.120
41.140	24.731	1398.373	1148.168
42.155	24.677	1397.985	1147.403
43.169	24.802	1397.891	1148.029
44.184	24.798	1397.445	1147.534
45.199	24.821	1396.803	1147.055
46.213	24.838	1396.561	1146.862
47.228	24.692	1395.641	1145.067
48.242	24.672	1394.733	1144.098
49.257	24.744	1393.155	1143.159
50.271	24.725	1391.284	1141.401
51.286	24.732	1390.206	1140.459
52.301	24.815	1388.741	1139.686
53.315	24.645	1388.378	1138.204
54.330	24.757	1387.044	1137.723
55.344	24.782	1385.785	1136.748
56.359	24.814	1384.552	1135.843
57.374	24.736	1384.286	1135.026
58.388	24.693	1383.707	1134.176
59.403	24.724	1383.323	1133.962
60.417	24.706	1382.536	1133.101
61.432	24.735	1381.643	1132.456
62.447	24.800	1380.741	1132.022
63.461	24.759	1379.876	1130.955
64.476	24.702	1378.734	1129.561
65.490	24.768	1377.891	1129.187
66.505	24.771	1375.816	1127.402
67.520	24.781	1374.388	1126.200
68.534	24.721	1373.516	1125.005
69.549	24.820	1372.512	1124.703
70.563	24.756	1371.859	1123.670
71.578	24.728	1370.790	1122.516
72.593	24.804	1369.886	1122.155
73.607	24.710	1369.406	1121.075
74.622	24.860	1368.269	1120.985
75.636	24.691	1368.039	1119.639
76.651	24.805	1367.152	1119.526
77.666	24.796	1366.583	1118.908
78.680	24.730	1366.248	1118.116
79.695	24.744	1365.466	1117.468
80.709	24.677	1364.546	1116.195
81.724	24.727	1363.592	1115.628
82.739	24.783	1362.189	1114.730
83.753	24.731	1361.485	1113.734
84.768	24.727	1360.479	1112.787
85.782	24.820	1359.072	1112.119
86.797	24.735	1358.376	1110.921
87.812	24.776	1357.184	1110.102
88.826	24.776	1355.790	1108.863
89.841	24.721	1354.872	1107.673
90.855	24.761	1353.802	1106.949
91.870	24.746	1352.797	1105.939
92.884	24.823	1352.064	1105.717
93.899	24.887	1351.096	1105.223
94.914	24.805	1350.924	1104.478
95.928	24.710	1350.112	1103.130
96.943	24.865	1349.053	1103.122
97.957	24.787	1348.413	1102.021
98.972	24.819	1347.406	1101.295
99.987	24.740	1346.425	1099.910
101.001	24.889	1344.857	1099.444
102.016	24.741	1344.451	1098.109
103.030	24.769	1343.471	1097.382
104.045	24.798	1343.025	1097.097
105.060	24.906	1341.601	1096.500
106.074	24.849	1340.418	1095.091
107.089	24.856	1339.494	1094.282
108.103	24.825	1338.503	1093.182
109.118	24.870	1337.352	1092.422
110.133	24.874	1336.134	1091.354
111.147	24.951	1334.936	1090.750
112.162	24.918	1333.926	1089.625
113.176	24.806	1333.072	1088.154
114.191	24.889	1332.271	1087.905
115.206	24.903	1331.089	1086.929
116.220	24.820	1330.007	1085.445
117.235	24.834	1328.805	1084.454
118.249	24.783	1328.588	1083.874
119.264	24.872	1327.442	1083.377
120.279	24.875	1326.817	1082.794
121.293	24.933	1325.677	1082.119
122.308	24.974	1324.629	1081.412
123.322	24.906	1324.165	1080.530
124.337	24.880	1323.207	1079.492
125.352	24.867	1322.815	1078.999
126.366	24.951	1321.468	1078.312
127.381	24.875	1320.500	1076.970
128.395	25.036	1319.625	1077.130
129.410	24.948	1318.824	1075.847
130.424	24.891	1318.235	1074.931
131.439	24.897	1317.561	1074.322
132.454	24.888	1316.538	1073.337
133.468	24.916	1315.793	1072.803
134.483	24.963	1315.275	1072.570
135.497	24.973	1314.771	1072.124
136.512	24.907	1313.400	1070.514
137.527	24.915	1312.210	1069.500
138.541	24.939	1310.925	1068.498
139.556	24.884	1310.178	1067.470
140.570	24.861	1308.911	1066.208
141.585	24.967	1307.203	1065.349
142.600	24.961	1306.544	1064.683
143.614	24.883	1305.895	1063.600
144.629	24.876	1304.768	1062.542
145.643	24.913	1303.269	1061.447
146.658	24.879	1302.320	1060.378
147.673	24.820	1301.950	1059.635
148.687	24.844	1301.017	1058.925
149.702	24.817	1299.385	1057.345
150.716	24.825	1298.163	1056.303
151.731	24.874	1297.474	1055.938
152.746	24.882	1296.366	1054.987
153.760	24.887	1295.333	1054.086
154.775	24.941	1294.180	1053.372
155.789	24.823	1293.477	1052.012
156.804	24.781	1292.718	1051.057
157.819	24.907	1291.633	1050.820
158.833	24.906	1290.772	1050.021
159.848	24.933	1289.979	1049.437
160.862	25.017	1289.152	1049.166
161.877	24.982	1288.422	1048.277
162.892	24.925	1287.564	1047.150
163.906	24.898	1287.085	1046.511
164.921	24.996	1286.044	1046.143
165.935	25.009	1285.300	1045.519
166.950	24.970	1285.059	1045.003
167.964	24.906	1284.212	1043.851
168.979	24.999	1283.646	1043.839
169.994	25.086	1282.573	1043.379
171.008	24.926	1282.230	1042.081
172.023	24.996	1281.458	1041.767
173.037	24.986	1280.604	1040.919
174.052	25.125	1279.100	1040.414
175.067	25.096	1278.945	1040.030
176.081	25.061	1278.030	1038.990
177.096	25.002	1277.515	1038.135
178.110	25.091	1276.551	1037.776
179.125	25.009	1275.324	1036.213
180.140	25.130	1273.912	1035.675
181.154	24.921	1273.795	1034.280
182.169	25.058	1272.237	1033.713
183.183	24.979	1271.051	1032.205
184.198	25.136	1269.618	1031.851
185.213	25.130	1269.194	1031.382
186.227	25.071	1268.399	1030.303
187.242	24.953	1267.658	1028.935
188.256	25.094	1266.280	1028.532
189.271	25.145	1265.705	1028.267
190.286	25.119	1265.133	1027.565
191.300	25.094	1264.153	1026.534
192.315	25.149	1263.764	1026.440
193.329	25.012	1263.611	1025.444
194.344	25.188	1262.630	1025.563
195.359	25.101	1262.521	1024.884
196.373	25.092	1261.757	1024.121
197.388	25.082	1261.465	1023.737
198.402	25.077	1261.105	1023.329
199.417	25.157	1260.568	1023.258
200.432	25.089	1260.222	1022.494
201.446	25.149	1259.198	1021.916
202.461	25.158	1258.744	1021.509
203.475	25.199	1257.900	1020.968
204.490	25.151	1256.488	1019.461
205.504	25.126	1255.741	1018.617
206.519	25.252	1254.898	1018.563
207.534	25.153	1253.866	1017.075
208.548	25.054	1253.347	1015.998
209.563	25.091	1252.528	1015.455
210.577	25.169	1251.524	1014.991
211.592	25.114	1250.598	1013.841
212.607	25.183	1249.819	1013.513
213.621	25.140	1249.267	1012.732
214.636	25.206	1248.006	1011.991
215.650	25.218	1247.628	1011.663
216.665	25.253	1246.011	1010.461
217.680	25.262	1245.498	1010.003
218.694	25.313	1244.799	1009.637
219.709	25.182	1244.108	1008.248
220.723	25.182	1243.736	1007.858
221.738	25.240	1242.403	1007.012
222.753	25.294	1241.604	1006.583
223.767	25.280	1240.794	1005.756
224.782	25.302	1240.553	1005.595
225.796	25.311	1240.040	1005.138
226.811	25.317	1239.942	1005.005
227.826	25.222	1239.263	1003.835
228.840	25.332	1238.129	1003.441
229.855	25.305	1237.720	1002.873
230.869	25.221	1237.291	1001.963
231.884	25.234	1236.320	1001.162
232.899	25.349	1235.278	1000.874
233.913	25.325	1235.125	1000.523
234.928	25.367	1234.401	1000.087
235.942	25.391	1233.973	999.781
236.957	25.416	1233.068	999.103
237.972	25.484	1232.014	998.538
238.986	25.374	1231.422	997.358
240.001	25.460	1231.024	997.426
241.015	25.411	1230.459	996.608
242.030	25.449	1229.849	996.235
243.045	25.454	1229.095	995.565
244.059	25.480	1228.235	994.922
245.074	25.469	1227.197	993.933
246.088	25.493	1226.075	993.070
247.103	25.481	1225.470	992.426
248.117	25.603	1224.777	992.450
249.132	25.518	1224.214	991.435
250.147	25.596	1223.334	991.065
251.161	25.705	1222.504	990.904
252.176	25.711	1221.536	990.065
253.190	25.581	1221.282	989.059
254.205	25.584	1220.572	988.409
255.220	25.646	1219.939	988.151
256.234	25.612	1219.573	987.582
257.249	25.671	1218.752	987.150
258.263	25.675	1218.012	986.488
259.278	25.653	1217.499	985.865
260.293	25.680	1217.194	985.678
261.307	25.599	1216.835	984.858
262.322	25.512	1216.099	983.698
263.336	25.597	1215.375	983.488
264.351	25.632	1214.745	983.082
265.366	25.712	1214.017	982.843
266.380	25.610	1213.356	981.664
267.395	25.605	1212.386	980.767
268.409	25.585	1212.263	980.474
269.424	25.578	1211.881	980.040
270.439	25.599	1211.319	979.612
271.453	25.705	1210.663	979.569
272.468	25.687	1209.456	978.410
273.482	25.645	1208.981	977.708
274.497	25.524	1208.740	976.772
275.512	25.601	1208.182	976.650
276.526	25.648	1207.246	976.067
277.541	25.678	1206.458	975.502
278.555	25.788	1205.850	975.521
279.570	25.737	1204.969	974.448
280.585	25.646	1204.637	973.599
281.599	25.754	1203.268	972.990
282.614	25.706	1202.637	972.137
283.628	25.775	1201.415	971.432
284.643	25.751	1201.071	970.940
285.657	25.808	1200.490	970.693
286.672	25.853	1198.782	969.465
287.687	25.779	1198.115	968.444
288.701	25.852	1198.008	968.665
289.716	25.882	1197.300	968.169
290.730	25.799	1196.282	966.811
291.745	25.827	1195.517	966.259
292.760	25.925	1194.718	966.055
293.774	25.843	1194.905	965.681
294.789	26.033	1193.743	965.672
295.803	25.957	1193.296	964.818
296.818	25.862	1192.768	963.799
297.833	25.895	1191.660	962.992
298.847	25.993	1191.287	963.131
299.862	25.995	1190.018	962.032
300.876	26.027	1189.693	961.852
301.891	26.029	1189.391	961.534
302.906	26.056	1188.217	960.645
303.920	26.066	1188.180	960.583
304.935	26.010	1187.169	959.381
305.949	26.029	1186.443	958.811
306.964	26.071	1185.795	958.425
307.979	26.047	1185.416	957.906
308.993	26.011	1184.869	957.188
310.008	26.046	1184.105	956.671
311.022	26.079	1183.581	956.338
312.037	26.078	1182.439	955.325
313.052	26.053	1181.858	954.641
314.066	26.055	1181.084	953.943
315.081	26.077	1180.030	953.121
316.095	25.996	1179.245	951.976
317.110	26.149	1178.719	952.272
318.125	26.097	1178.190	951.489
319.139	26.131	1177.591	951.098
320.154	26.165	1176.615	950.409
321.168	26.170	1176.603	950.338
322.183	26.032	1176.372	949.343
323.197	26.100	1175.206	948.675
324.212	26.112	1174.443	948.040
325.227	26.287	1173.775	948.332
326.241	26.191	1173.346	947.398
327.256	26.233	1172.883	947.161
328.270	26.182	1172.272	946.315
329.285	26.222	1171.590	945.893
330.300	26.239	1170.472	944.996
331.314	26.139	1169.587	943.674
332.329	26.273	1168.600	943.495
333.343	26.411	1167.642	943.355
334.358	26.353	1167.100	942.535
335.373	26.396	1166.586	942.258
336.387	26.319	1165.946	941.258
337.402	26.318	1164.932	940.351
338.416	26.207	1164.881	939.650
339.431	26.405	1163.841	939.756
340.446	26.351	1163.383	939.022
341.460	26.347	1162.808	938.456
342.475	26.497	1161.898	938.413
343.489	26.527	1160.889	937.674
344.504	26.394	1160.281	936.412
345.519	26.535	1158.930	935.966
346.533	26.468	1158.331	935.055
347.548	26.479	1157.945	934.716
348.562	26.497	1157.122	934.060
349.577	26.516	1155.976	933.150
350.592	26.367	1155.855	932.205
351.606	26.327	1155.307	931.472
352.621	26.517	1154.323	931.575
353.635	26.423	1154.113	930.837
354.650	26.522	1153.124	930.467
355.665	26.437	1152.507	929.453
356.679	26.534	1152.057	929.505
357.694	26.524	1151.536	928.952
358.708	26.560	1151.109	928.709
359.723	26.573	1149.876	927.695
360.738	26.506	1149.321	926.822
361.752	26.553	1149.043	926.759
362.767	26.641	1148.358	926.576
363.781	26.601	1147.407	925.520
364.796	26.720	1146.945	925.673
365.810	26.588	1146.310	924.406
366.825	26.665	1145.634	924.171
367.840	26.698	1145.708	924.316
368.854	26.669	1144.713	923.286
369.869	26.799	1143.708	923.056
370.883	26.919	1142.711	922.780
371.898	26.770	1142.137	921.477
372.913	26.702	1141.629	920.639
373.927	26.699	1141.421	920.374
374.942	26.848	1140.532	920.335
375.956	26.859	1140.038	919.910
376.971	26.767	1139.804	919.174
377.986	26.784	1139.080	918.593
379.000	26.872	1138.738	918.680
380.015	26.812	1138.036	917.732
381.029	26.771	1137.745	917.206
382.044	26.851	1136.650	916.646
383.059	26.853	1135.735	915.837
384.073	26.767	1135.625	915.234
385.088	26.937	1134.369	914.997
386.102	26.874	1133.689	914.052
387.117	26.802	1132.776	912.872
388.132	26.784	1132.194	912.231
389.146	26.954	1131.082	912.112
390.161	26.974	1130.502	911.663
391.175	26.982	1129.921	911.152
392.190	26.951	1129.145	910.293
393.205	26.896	1128.624	909.514
394.219	26.947	1127.778	909.008
395.234	27.136	1126.943	909.200
396.248	27.026	1126.104	907.895
397.263	26.995	1125.209	906.939
398.278	27.123	1124.448	906.882
399.292	27.068	1124.195	906.325
400.307	27.117	1123.659	906.055
401.321	27.050	1123.090	905.184
402.336	26.944	1122.292	903.928
403.350	27.125	1121.253	903.915
404.365	27.212	1120.868	903.958
405.380	27.163	1120.361	903.223
406.394	27.140	1119.872	902.636
407.409	27.195	1118.847	902.005
408.423	27.283	1117.858	901.560
409.438	27.226	1117.300	900.747
410.453	27.280	1116.837	900.565
411.467	27.207	1116.044	899.483
412.482	27.196	1115.216	898.682
413.496	27.197	1114.423	897.966
414.511	27.241	1114.045	897.801
415.526	27.232	1113.541	897.274
416.540	27.283	1113.090	897.082
417.555	27.410	1112.822	897.413
418.569	27.167	1112.383	895.782
419.584	27.309	1111.817	895.945
420.599	27.356	1110.928	895.378
421.613	83.890	1294.269	1354.752
422.628	78.758	1321.003	1354.872
