DTS Sentinel unit serial number:	SN413079Multiplexer serial number:	ORYXHardware model number:	OX4-SRSoftware version number:	ORYX F/W v4.00 Oryx Data Collector v3.7.2.0data status	okinstallation	princeton_trtdifferential loss correction	single-endedforward channel	channel 2reverse channel	N/Adate	2019/09/13time	04:59:34forward acquisition time	60.00reverse acquisition time	0.00gamma	496.2192k internal	0.2337k external	0.2337temperature offset calibration	1.0188default loss term (dB/km)	0.3790temperature slope calibration	1.0000multiplexer offset coefficient	1.0000multiplexer slope coefficient	1.0000fibre end	0.00T internal ref (°C)	26.50T ext. ref 1 (°C)	4.06T ext. ref 2 (°C)	20.97length (m)	temperature (°C)	Stokes	anti-Stokes-747.200	744.369	0.070	0.189
-746.185	88.498	0.099	-0.111
-745.171	165.753	0.071	0.101
-744.156	-14.788	0.072	-0.046
-743.142	-200.000	-0.001	-0.483
-742.127	69.233	0.235	0.243
-741.112	-38.678	-0.053	-0.028
-740.098	-200.000	-0.002	0.172
-739.083	-132.082	0.267	0.035
-738.069	290.337	0.043	0.078
-737.054	-116.418	0.261	-0.048
-736.039	-200.000	0.025	-0.160
-735.025	429.401	0.069	0.150
-734.010	800.000	-0.068	-0.269
-732.996	49.003	-0.158	-0.149
-731.981	-60.144	-0.296	-0.127
-730.966	59.004	0.184	-0.181
-729.952	-158.884	0.101	-0.006
-728.937	800.000	-0.071	-0.207
-727.923	-91.793	-0.214	-0.061
-726.908	84.933	-0.303	-0.333
-725.894	-130.710	-0.168	-0.023
-724.879	429.951	0.161	0.350
-723.864	6.356	0.079	0.059
-722.850	-200.000	-0.084	0.419
-721.835	73.224	-0.379	-0.397
-720.821	-12.021	-0.093	0.061
-719.806	26.016	0.194	0.162
-718.791	-4.878	0.118	-0.082
-717.777	100.071	0.143	-0.167
-716.762	188.822	-0.211	-0.317
-715.748	-200.000	0.014	0.190
-714.733	800.000	-0.056	-0.167
-713.718	-115.077	-0.124	0.024
-712.704	-168.638	-0.125	0.005
-711.689	800.000	0.019	0.073
-710.675	31.811	0.110	-0.095
-709.660	-7.537	0.123	-0.083
-708.645	226.181	-0.119	-0.193
-707.631	47.580	-0.100	-0.093
-706.616	17.686	0.033	0.026
-705.602	-200.000	0.025	-0.192
-704.587	-181.381	-0.257	0.005
-703.572	-82.867	0.121	-0.039
-702.558	-47.015	-0.199	-0.098
-701.543	-135.320	-0.203	-0.024
-700.529	-10.970	-0.267	0.177
-699.514	-24.871	-0.238	-0.142
-698.499	82.936	-0.100	-0.109
-697.485	-80.910	0.077	-0.026
-696.470	420.735	0.052	0.111
-695.456	113.954	-0.196	0.239
-694.441	-161.104	0.122	0.006
-693.426	-124.151	-0.338	-0.053
-692.412	-200.000	0.003	-0.203
-691.397	55.749	-0.142	-0.137
-690.383	13.042	0.242	0.188
-689.368	-106.649	-0.131	-0.029
-688.354	-60.261	-0.244	0.104
-687.339	-200.000	0.001	-0.081
-686.324	800.000	-0.062	-0.272
-685.310	252.651	0.119	-0.203
-684.295	123.069	-0.296	-0.372
-683.281	164.178	-0.074	-0.105
-682.266	85.974	0.247	-0.272
-681.251	47.241	-0.098	-0.091
-680.237	-166.473	0.258	-0.011
-679.222	185.032	0.214	0.317
-678.208	488.490	-0.151	-0.344
-677.193	-100.514	0.149	0.037
-676.178	-127.230	-0.108	-0.016
-675.164	50.533	-0.187	0.177
-674.149	-155.523	0.315	0.020
-673.135	246.041	-0.218	0.368
-672.120	-200.000	-0.042	0.250
-671.105	103.046	-0.056	0.066
-670.091	-55.058	0.197	0.089
-669.076	5.063	-0.145	0.107
-668.062	-132.814	-0.388	0.050
-667.047	-131.193	0.272	0.036
-666.032	-200.000	0.006	-0.312
-665.018	-200.000	0.024	-0.143
-664.003	56.455	0.208	0.203
-662.989	-73.500	0.224	0.082
-661.974	40.452	-0.303	-0.273
-660.959	-200.000	-0.031	0.146
-659.945	-72.666	-0.246	-0.091
-658.930	-136.500	0.310	-0.036
-657.916	-164.970	0.312	-0.014
-656.901	557.420	-0.042	0.101
-655.886	339.819	-0.055	0.107
-654.872	-200.000	0.037	-0.234
-653.857	-200.000	0.061	0.278
-652.843	800.000	-0.090	0.282
-651.828	-200.000	0.030	-0.169
-650.814	355.295	0.147	0.293
-649.799	458.067	0.144	0.319
-648.784	800.000	0.036	0.130
-647.770	13.111	-0.210	-0.163
-646.755	81.921	-0.020	-0.022
-645.741	-109.765	-0.124	0.026
-644.726	-130.187	0.165	-0.023
-643.711	-62.773	0.105	-0.043
-642.697	399.492	0.031	0.066
-641.682	167.539	-0.117	-0.167
-640.668	210.036	0.193	0.303
-639.653	174.890	-0.140	0.202
-638.638	-200.000	0.015	0.120
-637.624	6.263	-0.461	0.342
-636.609	-111.163	0.247	-0.051
-635.595	16.232	-0.219	0.173
-634.580	94.928	0.116	0.132
-633.565	-27.630	0.545	-0.316
-632.551	15.919	0.055	-0.043
-631.536	-200.000	-0.000	-0.038
-630.522	-45.712	-0.201	-0.099
-629.507	-200.000	0.026	0.204
-628.492	-73.205	-0.308	-0.113
-627.478	-11.046	-0.047	0.031
-626.463	290.717	0.246	0.447
-625.449	-97.838	-0.220	-0.057
-624.434	203.801	-0.075	0.116
-623.419	337.025	0.091	-0.177
-622.405	-81.055	0.067	-0.022
-621.390	-24.630	0.212	-0.126
-620.376	13.315	0.160	-0.124
-619.361	47.716	0.188	0.175
-618.346	800.000	-0.063	0.213
-617.332	-150.096	-0.147	0.011
-616.317	800.000	-0.067	0.282
-615.303	-21.976	-0.078	0.047
-614.288	-129.501	-0.362	0.050
-613.273	-200.000	-0.017	-0.084
-612.259	10.374	0.112	-0.085
-611.244	-0.986	-0.152	0.107
-610.230	-83.462	0.130	0.042
-609.215	-114.966	0.104	0.020
-608.201	-98.915	-0.149	0.038
-607.186	-200.000	-0.095	-0.428
-606.171	-18.619	0.321	0.200
-605.157	-82.139	-0.217	0.071
-604.142	261.075	-0.122	0.211
-603.128	-37.199	-0.084	-0.045
-602.113	147.969	0.326	-0.439
-601.098	-0.630	-0.145	-0.103
-600.084	-106.534	-0.235	0.052
-599.069	15.942	0.197	0.155
-598.055	282.737	0.065	0.117
-597.040	800.000	-0.025	0.084
-596.025	-16.217	0.159	0.101
-595.011	706.225	0.109	-0.287
-593.996	309.827	-0.105	-0.196
-592.982	-200.000	-0.063	-0.503
-591.967	41.284	0.113	-0.102
-590.952	-128.218	-0.245	0.035
-589.938	-7.051	-0.067	-0.046
-588.923	-33.372	0.249	0.137
-587.909	-66.196	0.105	0.042
-586.894	164.100	-0.136	-0.191
-585.879	637.061	0.121	-0.307
-584.865	800.000	0.102	-0.366
-583.850	-160.330	0.224	0.012
-582.836	-200.000	0.012	0.086
-581.821	141.992	0.103	-0.136
-580.806	152.716	0.107	0.147
-579.792	-23.240	0.191	0.114
-578.777	204.567	-0.119	0.183
-577.763	174.245	-0.177	0.256
-576.748	-149.105	-0.205	-0.016
-575.733	-200.000	0.002	-0.350
-574.719	800.000	0.095	-0.276
-573.704	-168.936	0.159	0.006
-572.690	-200.000	0.055	-0.381
-571.675	-34.271	-0.105	-0.058
-570.661	-138.351	0.036	-0.004
-569.646	407.913	0.063	-0.133
-568.631	38.236	0.278	-0.246
-567.617	123.385	-0.086	-0.107
-566.602	-180.118	-0.240	0.005
-565.588	-200.000	-0.018	0.085
-564.573	800.000	0.072	0.256
-563.558	158.126	0.138	-0.191
-562.544	-80.822	-0.263	-0.087
-561.529	313.419	-0.168	-0.315
-560.515	-35.842	-0.085	-0.046
-559.500	554.900	-0.072	-0.172
-558.485	800.000	-0.049	-0.141
-557.471	441.113	0.065	0.142
-556.456	87.144	-0.354	-0.390
-555.442	-200.000	-0.025	-0.363
-554.427	59.162	-0.049	-0.048
-553.412	-178.972	0.171	-0.004
-552.398	47.614	-0.121	-0.112
-551.383	-200.000	-0.030	-0.303
-550.369	83.240	-0.227	0.246
-549.354	-200.000	-0.023	-0.278
-548.339	800.000	-0.045	-0.194
-547.325	-200.000	-0.005	-0.330
-546.310	189.760	0.084	0.125
-545.296	-91.875	-0.146	-0.041
-544.281	800.000	-0.020	-0.066
-543.266	-95.294	-0.294	0.079
-542.252	142.924	-0.192	-0.255
-541.237	-200.000	0.005	-0.150
-540.223	-125.306	0.246	-0.037
-539.208	55.797	0.221	0.213
-538.193	-200.000	-0.034	0.157
-537.179	-200.000	0.031	0.145
-536.164	219.711	-0.120	-0.192
-535.150	-200.000	0.044	0.194
-534.135	292.164	-0.074	0.135
-533.121	-157.462	0.230	-0.014
-532.106	-6.900	0.429	0.290
-531.091	-10.640	0.170	0.112
-530.077	800.000	-0.037	-0.133
-529.062	-66.424	-0.117	-0.046
-528.048	-85.582	-0.197	0.061
-527.033	-53.652	-0.157	-0.071
-526.018	800.000	0.037	0.152
-525.004	-55.302	0.166	-0.074
-523.989	-200.000	0.042	-0.436
-522.975	-164.130	-0.042	-0.002
-521.960	-109.759	0.142	-0.030
-520.945	-200.000	0.003	0.242
-519.931	800.000	0.091	-0.343
-518.916	800.000	-0.080	0.311
-517.902	-200.000	-0.006	-0.406
-516.887	-147.651	0.257	-0.021
-515.872	-200.000	-0.009	0.129
-514.858	-21.694	-0.194	-0.118
-513.843	122.586	0.101	0.126
-512.829	-160.259	-0.094	-0.005
-511.814	800.000	0.024	-0.076
-510.799	-82.727	-0.370	-0.119
-509.785	14.331	-0.368	0.285
-508.770	-58.461	-0.052	0.022
-507.756	269.981	-0.091	-0.159
-506.741	30.619	0.213	0.182
-505.726	659.406	-0.077	-0.196
-504.712	-19.747	0.403	-0.248
-503.697	-92.798	-0.097	0.027
-502.683	-200.000	-0.048	0.307
-501.668	-200.000	-0.011	-0.268
-500.653	800.000	-0.003	0.010
-499.639	-104.387	0.225	-0.052
-498.624	-124.526	-0.113	0.018
-497.610	-200.000	-0.005	0.156
-496.595	106.805	-0.175	0.206
-495.581	-39.442	0.118	-0.062
-494.566	13.912	0.085	-0.066
-493.551	-21.505	-0.269	-0.163
-492.537	800.000	-0.051	-0.152
-491.522	-67.936	-0.018	-0.007
-490.508	-140.579	-0.094	0.010
-489.493	218.829	-0.050	0.080
-488.478	7.295	0.382	0.284
-487.464	-179.926	-0.383	-0.008
-486.449	52.179	-0.120	-0.114
-485.435	3.327	-0.273	-0.197
-484.420	70.158	-0.206	-0.211
-483.405	-81.214	0.187	-0.061
-482.391	-12.109	-0.214	-0.139
-481.376	284.110	-0.101	0.181
-480.362	-200.000	-0.077	-0.350
-479.347	264.459	0.014	-0.025
-478.332	482.347	-0.253	-0.572
-477.318	-3.741	-0.163	-0.112
-476.303	-65.459	-0.089	-0.035
-475.289	5.536	0.207	0.152
-474.274	-88.746	-0.378	-0.112
-473.259	479.024	0.047	-0.105
-472.245	-39.145	-0.580	-0.303
-471.230	-22.699	-0.147	-0.088
-470.216	-70.750	0.257	-0.096
-469.201	-85.736	0.241	0.074
-468.186	800.000	0.100	0.318
-467.172	-200.000	0.018	-0.355
-466.157	303.140	0.136	-0.250
-465.143	106.038	-0.175	0.205
-464.128	800.000	0.107	0.382
-463.113	-200.000	-0.045	0.298
-462.099	-200.000	0.034	-0.188
-461.084	479.937	0.089	0.200
-460.070	517.699	0.068	-0.158
-459.055	26.469	0.211	-0.175
-458.040	-23.264	-0.209	-0.125
-457.026	-105.583	0.225	0.051
-456.011	800.000	0.103	0.385
-454.997	117.342	0.114	-0.139
-453.982	800.000	0.057	0.208
-452.968	537.581	-0.058	0.137
-451.953	136.462	-0.108	-0.140
-450.938	-61.383	-0.155	-0.065
-449.924	-200.000	0.017	-0.249
-448.909	-48.309	0.426	0.204
-447.895	51.995	-0.240	-0.227
-446.880	180.063	-0.093	-0.136
-445.865	111.098	0.253	0.302
-444.851	800.000	-0.139	-0.446
-443.836	-69.597	0.248	-0.094
-442.822	-31.321	-0.161	-0.090
-441.807	-200.000	-0.012	0.130
-440.792	116.555	-0.219	-0.267
-439.778	279.048	-0.155	0.275
-438.763	800.000	-0.054	-0.152
-437.749	87.619	0.342	-0.376
-436.734	-188.119	0.092	-0.001
-435.719	-0.808	-0.119	0.084
-434.705	80.199	0.157	-0.167
-433.690	-86.157	-0.375	-0.115
-432.676	-200.000	-0.031	0.269
-431.661	30.063	0.010	0.008
-430.646	728.313	0.051	0.134
-429.632	75.100	-0.061	0.063
-428.617	-200.000	0.000	-0.109
-427.603	-68.194	0.310	-0.120
-426.588	47.215	-0.130	-0.120
-425.573	-54.590	0.151	-0.068
-424.559	-14.085	-0.221	-0.141
-423.544	-172.119	0.241	0.008
-422.530	29.882	-0.189	-0.159
-421.515	-101.492	-0.180	0.043
-420.500	-87.443	0.424	0.127
-419.486	-200.000	-0.047	0.281
-418.471	278.048	0.202	0.357
-417.457	74.583	0.246	-0.256
-416.442	104.452	0.311	0.363
-415.428	-113.128	0.171	0.034
-414.413	86.927	-0.155	0.170
-413.398	800.000	-0.131	0.501
-412.384	4.790	0.330	0.240
-411.369	191.846	-0.115	-0.172
-410.355	800.000	-0.052	-0.197
-409.340	-200.000	-0.012	0.322
-408.325	115.860	-0.066	0.080
-407.311	29.743	0.161	0.136
-406.296	-200.000	0.065	0.292
-405.282	-41.118	0.101	0.052
-404.267	-193.480	-0.228	0.002
-403.252	-68.318	0.263	-0.101
-402.238	507.536	0.089	0.203
-401.223	-200.000	0.014	-0.297
-400.209	-102.274	0.118	-0.028
-399.194	-200.000	0.017	-0.138
-398.179	387.145	0.061	0.125
-397.165	-66.116	-0.114	-0.045
-396.150	-173.859	0.112	0.003
-395.136	-123.413	-0.235	-0.037
-394.121	800.000	0.010	0.031
-393.106	-36.253	-0.133	-0.071
-392.092	-78.586	0.033	0.011
-391.077	-31.402	-0.061	-0.034
-390.063	800.000	0.182	0.530
-389.048	-60.617	-0.236	0.099
-388.033	-156.291	0.440	0.027
-387.019	800.000	-0.017	0.074
-386.004	-154.584	-0.335	0.022
-384.990	800.000	-0.065	0.281
-383.975	182.017	0.199	0.290
-382.960	184.336	-0.116	-0.169
-381.946	48.852	0.192	-0.178
-380.931	224.389	0.102	-0.164
-379.917	-70.791	-0.228	0.085
-378.902	800.000	-0.115	0.457
-377.888	800.000	-0.071	0.248
-376.873	-106.989	0.262	0.057
-375.858	106.499	0.181	-0.213
-374.844	-35.124	-0.402	0.217
-373.829	-157.668	-0.057	-0.003
-372.815	-200.000	0.037	0.312
-371.800	-200.000	0.028	0.314
-370.785	-26.039	0.305	0.178
-369.771	800.000	0.052	0.185
-368.756	34.851	-0.098	0.085
-367.742	198.548	-0.132	0.201
-366.727	-200.000	0.032	0.192
-365.712	193.076	-0.173	0.259
-364.698	-200.000	-0.030	0.369
-363.683	82.799	0.131	0.141
-362.669	587.579	-0.100	-0.245
-361.654	-200.000	-0.019	0.093
-360.639	-200.000	-0.044	-0.234
-359.625	27.616	0.346	-0.288
-358.610	-134.527	0.427	-0.052
-357.596	-39.556	0.492	-0.255
-356.581	-200.000	0.062	-0.359
-355.566	-116.212	-0.260	-0.048
-354.552	-4.501	-0.244	-0.167
-353.537	-22.826	0.078	-0.047
-352.523	231.846	-0.055	-0.089
-351.508	-47.943	0.146	0.070
-350.493	317.113	-0.171	0.319
-349.479	759.059	0.069	0.185
-348.464	3.705	0.281	0.203
-347.450	-29.746	-0.430	0.243
-346.435	-200.000	0.046	0.221
-345.420	-200.000	0.011	-0.091
-344.406	800.000	-0.049	-0.184
-343.391	-62.238	0.216	-0.089
-342.377	-200.000	-0.002	-0.412
-341.362	-200.000	-0.020	0.092
-340.348	800.000	0.024	0.083
-339.333	40.668	0.125	0.111
-338.318	-112.339	0.134	-0.027
-337.304	800.000	0.016	-0.069
-336.289	-200.000	0.026	-0.191
-335.275	800.000	0.056	-0.184
-334.260	60.519	0.127	-0.125
-333.245	-20.134	-0.086	0.053
-332.231	-72.467	-0.254	0.093
-331.216	-176.306	0.185	0.005
-330.202	95.270	-0.161	-0.181
-329.187	-200.000	0.014	0.111
-328.172	-72.690	0.239	0.087
-327.158	800.000	-0.048	-0.193
-326.143	-80.120	0.459	-0.152
-325.129	793.449	-0.053	0.143
-324.114	129.081	0.126	0.159
-323.099	-200.000	-0.003	0.119
-322.085	-192.413	-0.095	-0.001
-321.070	433.330	-0.169	0.363
-320.056	-19.632	-0.383	0.234
-319.041	-200.000	0.028	0.249
-318.026	-44.003	-0.150	-0.074
-317.012	100.866	-0.331	-0.381
-315.997	-139.604	0.084	-0.009
-314.983	23.648	0.035	0.029
-313.968	143.130	0.006	0.008
-312.953	37.337	-0.237	-0.208
-311.939	-44.697	0.244	-0.120
-310.924	800.000	-0.081	0.260
-309.910	-12.403	-0.039	0.025
-308.895	-31.870	-0.242	-0.134
-307.880	-200.000	-0.024	-0.220
-306.866	180.432	-0.139	0.201
-305.851	-128.153	0.244	-0.034
-304.837	467.725	-0.092	0.205
-303.822	336.880	0.089	0.171
-302.807	-3.965	0.131	-0.089
-301.793	-65.967	-0.359	-0.141
-300.778	19.781	0.120	0.095
-299.764	580.584	-0.086	-0.207
-298.749	172.544	0.149	0.212
-297.735	-200.000	0.010	-0.196
-296.720	-11.433	0.150	0.098
-295.705	800.000	-0.070	0.225
-294.691	394.979	-0.143	-0.293
-293.676	492.060	0.100	-0.227
-292.662	-70.623	-0.158	-0.059
-291.647	-63.678	-0.226	0.092
-290.632	800.000	0.131	0.398
-289.618	-200.000	-0.003	0.204
-288.603	-65.829	0.236	0.093
-287.589	-48.475	0.312	-0.148
-286.574	176.724	-0.276	-0.396
-285.559	-68.359	-0.192	0.074
-284.545	721.171	0.145	0.380
-283.530	-40.945	-0.115	-0.059
-282.516	605.343	-0.049	0.121
-281.501	407.164	0.057	0.119
-280.486	-200.000	0.022	0.380
-279.472	17.782	0.159	0.125
-278.457	-149.026	-0.220	-0.017
-277.443	-200.000	0.006	0.034
-276.428	800.000	0.077	0.246
-275.413	-58.713	0.198	-0.084
-274.399	-2.574	0.067	-0.046
-273.384	800.000	-0.043	-0.164
-272.370	-12.236	-0.189	0.122
-271.355	-90.185	0.276	0.079
-270.340	-200.000	-0.001	0.039
-269.326	765.239	-0.105	0.282
-268.311	-83.458	0.239	-0.075
-267.297	-97.670	-0.222	-0.057
-266.282	250.435	0.108	-0.180
-265.267	46.862	0.018	0.017
-264.253	800.000	-0.124	-0.386
-263.238	800.000	0.026	-0.091
-262.224	83.704	0.129	-0.139
-261.209	-107.556	-0.152	-0.033
-260.195	-60.613	-0.149	0.062
-259.180	-35.358	-0.223	-0.120
-258.165	-138.872	-0.390	-0.042
-257.151	-200.000	0.012	0.227
-256.136	-200.000	0.061	0.275
-255.122	627.642	-0.079	-0.196
-254.107	230.857	0.221	-0.356
-253.092	493.768	0.100	-0.226
-252.078	-144.339	0.369	-0.034
-251.063	-165.224	-0.590	-0.026
-250.049	104.627	0.153	0.178
-249.034	-200.000	-0.008	-0.203
-248.019	800.000	0.057	-0.220
-247.005	561.496	-0.012	-0.030
-245.990	71.080	0.117	0.120
-244.976	-135.554	0.120	0.014
-243.961	66.858	0.121	-0.121
-242.946	-35.001	-0.103	-0.055
-241.932	-50.660	-0.492	0.228
-240.917	-200.000	0.029	0.235
-239.903	-91.022	0.175	0.049
-238.888	-200.000	-0.007	0.191
-237.873	205.563	0.158	-0.241
-236.859	-73.035	0.041	-0.015
-235.844	158.812	-0.082	0.112
-234.830	-200.000	0.049	0.399
-233.815	-179.264	-0.148	-0.003
-232.800	800.000	0.024	-0.103
-231.786	110.413	0.073	-0.086
-230.771	-2.673	-0.029	-0.020
-229.757	152.048	0.213	0.286
-228.742	-200.000	0.008	-0.140
-227.727	-200.000	-0.036	-0.204
-226.713	148.862	-0.070	-0.093
-225.698	-77.388	0.203	-0.070
-224.684	-200.000	-0.049	0.277
-223.669	48.846	0.183	-0.169
-222.655	131.292	0.043	0.054
-221.640	188.013	0.130	0.191
-220.625	313.554	0.066	0.122
-219.611	-122.084	-0.291	-0.047
-218.596	657.888	0.035	0.089
-217.582	-58.793	-0.199	0.085
-216.567	36.419	0.167	0.145
-215.552	-200.000	-0.061	0.272
-214.538	-34.566	0.100	0.054
-213.523	-100.027	0.134	0.033
-212.509	800.000	0.125	0.465
-211.494	529.330	-0.128	0.296
-210.479	-200.000	-0.029	0.517
-209.465	-101.891	-0.086	0.020
-208.450	-200.000	0.030	-0.193
-207.436	693.013	0.053	-0.136
-206.421	800.000	-0.125	-0.471
-205.406	16.532	-0.166	-0.129
-204.392	800.000	0.102	0.290
-203.377	76.746	-0.165	-0.172
-202.363	-200.000	-0.065	-0.281
-201.348	-113.084	0.144	0.028
-200.333	-200.000	-0.042	-0.212
-199.319	459.071	-0.064	0.140
-198.304	-76.054	-0.250	0.087
-197.290	-200.000	-0.016	0.266
-196.275	-168.268	-0.414	0.016
-195.260	-200.000	-0.012	-0.147
-194.246	797.597	0.040	-0.109
-193.231	341.232	0.099	0.190
-192.217	-83.634	-0.099	-0.031
-191.202	-40.473	-0.088	0.045
-190.187	-116.898	-0.190	0.034
-189.173	174.336	0.182	-0.259
-188.158	164.181	0.232	0.322
-187.144	43.381	-0.158	-0.142
-186.129	-101.590	0.216	0.052
-185.114	-4.354	0.290	-0.197
-184.100	-200.000	-0.008	-0.172
-183.085	-141.880	-0.179	-0.018
-182.071	-200.000	-0.008	-0.148
-181.056	-200.000	-0.008	-0.091
-180.042	-122.138	0.124	-0.020
-179.027	-139.411	-0.239	-0.025
-178.012	433.148	0.145	0.309
-176.998	-52.272	-0.096	-0.044
-175.983	-155.207	0.393	-0.025
-174.969	-76.926	0.210	0.072
-173.954	25.718	-0.202	0.165
-172.939	-7.312	0.222	-0.148
-171.925	-200.000	0.025	-0.123
-170.910	-32.570	0.199	0.109
-169.896	-200.000	0.109	-0.685
-168.881	-170.174	0.291	0.010
-167.866	-94.115	-0.418	-0.113
-166.852	-83.427	0.201	-0.063
-165.837	129.017	0.214	0.268
-164.823	380.169	-0.108	0.218
-163.808	45.579	-0.037	-0.034
-162.793	-132.753	0.452	0.057
-161.779	-200.000	0.023	0.174
-160.764	-163.485	-0.210	-0.010
-159.750	113.140	-0.295	0.351
-158.735	127.292	-0.112	-0.139
-157.720	800.000	-0.056	0.174
-156.706	-111.072	-0.133	0.027
-155.691	-200.000	0.021	-0.146
-154.677	-200.000	-0.096	-0.414
-153.662	800.000	-0.083	-0.253
-152.647	-110.708	0.163	-0.033
-151.633	-200.000	0.016	0.243
-150.618	-18.958	0.132	-0.081
-149.604	621.627	0.047	0.117
-148.589	359.434	0.122	0.238
-147.574	-200.000	-0.086	0.427
-146.560	11.426	-0.416	-0.312
-145.545	148.198	0.212	-0.280
-144.531	-200.000	-0.006	0.272
-143.516	456.451	-0.092	-0.201
-142.502	-179.037	0.203	0.004
-141.487	-200.000	-0.061	-0.355
-140.472	-95.112	0.212	0.056
-139.458	800.000	-0.033	0.137
-138.443	322.020	-0.030	-0.057
-137.429	406.758	-0.121	-0.251
-136.414	193.181	-0.021	0.031
-135.399	-200.000	-0.002	-0.057
-134.385	-181.848	0.057	0.001
-133.370	-200.000	-0.065	0.357
-132.356	-79.609	0.389	-0.129
-131.341	-99.508	0.313	0.077
-130.326	34.962	-0.242	0.208
-129.312	495.819	-0.131	0.296
-128.297	-51.078	-0.154	0.071
-127.283	314.387	0.161	-0.297
-126.268	-200.000	-0.067	-0.303
-125.253	20.783	0.050	0.040
-124.239	-106.373	0.113	0.025
-123.224	-155.618	0.188	-0.012
-122.210	-118.776	0.169	0.029
-121.195	215.904	-0.102	0.158
-120.180	-28.276	0.162	-0.092
-119.166	-33.836	-0.248	-0.134
-118.151	800.000	0.071	0.193
-117.137	-200.000	-0.004	0.377
-116.122	111.589	0.092	0.109
-115.107	-200.000	0.025	-0.272
-114.093	-114.790	-0.287	-0.054
-113.078	-98.135	0.408	-0.103
-112.064	342.922	-0.080	-0.154
-111.049	248.677	-0.103	0.171
-110.034	348.295	-0.083	-0.160
-109.020	800.000	0.062	-0.244
-108.005	315.391	-0.162	0.299
-106.991	-103.625	0.161	-0.037
-105.976	348.106	-0.102	0.198
-104.962	139.595	-0.245	-0.315
-103.947	60.745	-0.111	0.108
-102.932	-88.244	0.321	-0.094
-101.918	-200.000	0.016	-0.124
-100.903	-200.000	-0.044	-0.228
-99.889	10.627	-0.239	0.179
-98.874	362.270	-0.201	0.395
-97.859	-200.000	0.047	0.290
-96.845	-59.722	-0.003	0.001
-95.830	-200.000	-0.060	0.363
-94.816	287.377	0.049	0.088
-93.801	-28.462	0.149	-0.084
-92.786	79.416	0.240	-0.252
-91.772	-162.591	0.271	0.013
-90.757	-28.056	0.078	-0.044
-89.743	80.589	0.036	0.038
-88.728	1.763	-0.183	-0.129
-87.713	-108.533	0.267	0.056
-86.699	800.000	-0.072	0.299
-85.684	35.027	0.090	-0.077
-84.670	-89.359	0.056	0.016
-83.655	-144.140	0.466	-0.043
-82.640	-200.000	0.076	0.351
-81.626	108.697	0.173	-0.202
-80.611	-106.967	0.274	0.059
-79.597	33.857	0.034	0.029
-78.582	162.250	0.130	0.178
-77.567	-155.600	-0.276	0.017
-76.553	-52.066	-0.179	0.081
-75.538	-36.701	-0.152	0.080
-74.524	464.098	0.077	-0.169
-73.509	-116.001	-0.162	-0.029
-72.494	-200.000	-0.029	-0.213
-71.480	22.438	0.316	-0.253
-70.465	-107.590	-0.446	-0.095
-69.451	-200.000	-0.004	-0.306
-68.436	38.086	0.024	0.021
-67.422	-87.385	-0.020	0.006
-66.407	-200.000	0.038	0.165
-65.392	157.471	-0.092	0.124
-64.378	221.329	-0.138	0.217
-63.363	-143.020	0.389	-0.037
-62.349	756.778	0.049	-0.129
-61.334	31.026	-0.924	-0.775
-60.319	165.964	0.552	0.764
-59.305	-200.000	-0.214	-1.040
-58.290	800.000	0.421	1.149
-57.276	718.209	0.536	1.392
-56.261	-200.000	117.064	655.943
-55.246	508.997	1543.188	3503.959
-54.232	174.442	2720.186	3843.925
-53.217	99.589	2291.770	2592.035
-52.203	35.542	1897.663	1628.223
-51.188	29.571	1691.321	1405.832
-50.173	27.148	1650.046	1353.452
-49.159	47.660	1707.385	1556.481
-48.144	46.192	1721.217	1557.916
-47.130	29.134	1678.262	1391.457
-46.115	26.531	1663.844	1359.914
-45.100	26.421	1658.573	1354.730
-44.086	26.390	1656.505	1352.755
-43.071	26.291	1654.290	1350.153
-42.057	26.292	1651.321	1347.681
-41.042	26.412	1649.065	1346.682
-40.027	26.434	1647.097	1345.186
-39.013	26.309	1645.280	1342.718
-37.998	26.344	1643.933	1341.824
-36.984	26.317	1642.556	1340.454
-35.969	26.449	1641.499	1340.513
-34.954	26.457	1639.912	1339.222
-33.940	26.489	1637.472	1337.412
-32.925	26.504	1635.893	1336.181
-31.911	26.518	1634.127	1334.786
-30.896	26.496	1632.268	1333.055
-29.881	26.498	1631.024	1332.006
-28.867	26.583	1629.299	1331.166
-27.852	26.525	1628.070	1329.682
-26.838	26.454	1626.789	1328.058
-25.823	26.547	1625.097	1327.313
-24.809	26.565	1623.580	1326.146
-23.794	26.479	1622.782	1324.813
-22.779	26.473	1621.395	1323.588
-21.765	26.497	1619.603	1322.244
-20.750	26.553	1617.379	1320.786
-19.736	26.526	1616.302	1319.656
-18.721	26.568	1615.061	1318.898
-17.706	26.508	1613.336	1316.998
-16.692	26.525	1611.752	1315.783
-15.677	26.495	1610.356	1314.367
-14.663	26.555	1609.139	1313.761
-13.648	26.717	1607.149	1313.258
-12.633	26.515	1606.362	1311.097
-11.619	26.517	1604.820	1309.805
-10.604	26.558	1602.932	1308.510
-9.590	26.600	1601.824	1307.853
-8.575	26.525	1600.601	1306.263
-7.560	26.540	1598.986	1304.998
-6.546	26.542	1597.852	1304.039
-5.531	26.503	1596.960	1302.973
-4.517	26.524	1596.199	1302.453
-3.502	26.542	1594.498	1301.143
-2.487	26.614	1593.263	1300.600
-1.473	26.131	1581.105	1287.184
-0.458	23.320	1562.221	1251.921
0.556	21.675	1563.036	1219.890
1.571	19.112	1586.668	1220.078
2.586	18.712	1599.229	1226.772
3.600	16.971	1545.821	1173.661
4.615	10.680	1439.085	1051.883
5.629	5.016	1379.965	973.307
6.644	3.977	1372.366	961.413
7.659	4.040	1371.289	960.963
8.673	4.101	1370.441	960.665
9.688	4.131	1367.953	959.022
10.702	4.081	1365.176	956.680
11.717	6.804	1370.500	977.190
12.731	14.210	1384.492	1033.217
13.746	20.837	1395.028	1082.308
14.761	22.694	1397.427	1095.621
15.775	22.241	1395.472	1091.180
16.790	21.290	1392.885	1083.165
17.804	20.538	1390.989	1076.937
18.819	20.289	1389.529	1074.173
19.834	20.264	1389.146	1073.627
20.848	20.117	1388.575	1072.183
21.863	20.071	1387.063	1070.635
22.877	19.938	1385.893	1068.816
23.892	19.805	1385.027	1067.231
24.907	19.781	1384.414	1066.518
25.921	19.786	1382.728	1065.155
26.936	19.782	1382.548	1064.900
27.950	19.839	1381.260	1064.164
28.965	20.029	1380.091	1064.332
29.980	20.259	1378.851	1064.696
30.994	20.310	1378.657	1064.767
32.009	20.340	1377.477	1063.941
33.023	20.225	1376.022	1062.022
34.038	20.225	1374.475	1060.731
35.053	20.005	1373.334	1058.417
36.067	20.095	1372.094	1057.917
37.082	20.124	1371.309	1057.393
38.096	20.074	1370.884	1056.667
39.111	20.096	1370.147	1056.137
40.126	20.038	1368.613	1054.511
41.140	19.677	1367.719	1051.529
42.155	19.537	1366.698	1049.803
43.169	19.434	1367.264	1049.515
44.184	19.412	1366.525	1048.726
45.199	19.586	1365.914	1049.219
46.213	19.670	1365.846	1049.581
47.228	19.967	1365.316	1050.889
48.242	20.010	1364.226	1050.215
49.257	19.985	1362.338	1048.520
50.271	19.886	1361.535	1047.211
51.286	19.846	1360.226	1045.870
52.301	19.929	1358.518	1044.965
53.315	19.749	1357.470	1042.977
54.330	19.686	1356.281	1041.590
55.344	19.598	1354.974	1039.965
56.359	19.616	1354.177	1039.370
57.374	19.520	1353.395	1038.104
58.388	19.391	1352.724	1036.719
59.403	19.370	1351.963	1035.920
60.417	19.280	1351.532	1034.959
61.432	19.391	1349.981	1034.344
62.447	19.210	1349.385	1032.710
63.461	19.110	1347.853	1030.844
64.476	19.188	1346.684	1030.327
65.490	19.256	1345.428	1029.681
66.505	19.162	1344.105	1028.020
67.520	19.259	1343.230	1027.835
68.534	19.256	1342.281	1026.999
69.549	19.195	1341.160	1025.688
70.563	19.209	1339.500	1024.414
71.578	19.022	1338.942	1022.781
72.593	19.014	1337.492	1021.537
73.607	18.946	1336.876	1020.572
74.622	18.973	1336.340	1020.236
75.636	19.150	1334.891	1020.084
76.651	19.144	1335.224	1020.213
77.666	19.003	1334.859	1019.012
78.680	19.259	1334.291	1020.001
79.695	19.323	1333.583	1019.752
80.709	19.405	1333.419	1020.020
81.724	19.588	1332.158	1020.048
82.739	19.727	1331.239	1020.069
83.753	19.781	1331.118	1020.207
84.768	20.010	1329.724	1020.400
85.782	20.081	1328.945	1020.127
86.797	20.062	1328.153	1019.315
87.812	20.023	1326.623	1017.826
88.826	19.974	1325.285	1016.420
89.841	20.061	1324.319	1016.098
90.855	20.142	1324.058	1016.283
91.870	20.147	1322.891	1015.326
92.884	20.205	1322.408	1015.208
93.899	20.153	1321.480	1014.100
94.914	20.228	1320.801	1013.928
95.928	20.255	1319.895	1013.298
96.943	20.102	1318.989	1011.619
97.957	20.014	1317.974	1010.244
98.972	20.083	1317.238	1009.989
99.987	20.112	1315.746	1008.923
101.001	20.189	1314.451	1008.289
102.016	20.158	1313.495	1007.287
103.030	20.086	1313.063	1006.450
104.045	20.049	1312.091	1005.398
105.060	19.868	1310.809	1003.282
106.074	19.587	1309.231	1000.358
107.089	19.289	1307.511	997.230
108.103	19.177	1305.767	995.165
109.118	19.231	1305.048	994.840
110.133	19.270	1303.463	993.767
111.147	19.222	1302.138	992.394
112.162	19.273	1300.879	991.641
113.176	19.494	1300.113	992.240
114.191	19.445	1299.344	991.285
115.206	19.465	1297.889	990.199
116.220	19.378	1296.860	988.830
117.235	19.396	1295.778	988.019
118.249	19.370	1294.589	986.875
119.264	19.298	1293.151	985.282
120.279	19.153	1292.354	983.756
121.293	19.117	1291.261	982.634
122.308	18.938	1290.217	980.732
123.322	18.918	1289.007	979.611
124.337	18.868	1287.738	978.276
125.352	18.925	1286.873	977.856
126.366	18.940	1285.776	977.019
127.381	18.855	1284.931	975.810
128.395	18.950	1283.239	974.975
129.410	18.949	1282.734	974.501
130.424	19.081	1282.357	974.874
131.439	19.126	1281.883	974.685
132.454	19.291	1280.758	974.678
133.468	19.333	1279.723	974.038
134.483	19.369	1279.332	973.862
135.497	19.424	1278.495	973.447
136.512	19.460	1277.046	972.460
137.527	19.353	1276.046	971.012
138.541	19.430	1274.354	970.068
139.556	19.552	1273.401	969.942
140.570	19.682	1272.685	970.044
141.585	19.707	1271.730	969.371
142.600	19.877	1270.750	969.490
143.614	20.038	1269.864	969.625
144.629	20.077	1268.605	968.797
145.643	20.048	1267.560	967.756
146.658	19.834	1265.830	965.150
147.673	19.621	1265.050	963.287
148.687	19.613	1263.379	961.883
149.702	19.458	1261.915	959.820
150.716	19.307	1260.677	957.958
151.731	19.335	1259.634	957.234
152.746	19.394	1258.694	956.764
153.760	19.585	1257.362	956.723
154.775	19.640	1256.759	956.483
155.789	19.744	1255.408	955.949
156.804	19.714	1254.692	955.152
157.819	19.856	1253.648	955.055
158.833	19.907	1253.185	954.901
159.848	20.051	1252.681	955.223
160.862	20.057	1251.249	954.082
161.877	19.691	1249.985	951.022
162.892	19.517	1248.123	948.563
163.906	19.410	1247.408	947.346
164.921	19.371	1246.355	946.251
165.935	19.513	1245.948	946.638
166.950	19.677	1245.463	947.083
167.964	19.605	1244.489	945.864
168.979	19.492	1243.927	944.735
169.994	19.535	1242.783	944.018
171.008	19.555	1242.420	943.767
172.023	19.630	1241.417	943.331
173.037	19.949	1240.929	944.618
174.052	19.846	1239.983	943.254
175.067	19.640	1238.577	940.981
176.081	19.450	1237.367	938.944
177.096	19.369	1236.220	937.547
178.110	19.391	1235.362	936.933
179.125	19.465	1234.329	936.471
180.140	19.627	1233.324	936.502
181.154	19.836	1232.461	936.894
182.169	19.885	1231.479	936.334
183.183	20.015	1230.247	936.014
184.198	19.944	1229.347	934.864
185.213	19.916	1228.463	933.959
186.227	20.104	1227.322	934.022
187.242	20.180	1225.998	933.339
188.256	20.204	1225.546	933.042
189.271	20.331	1224.129	932.562
190.286	20.004	1222.756	929.681
191.300	19.475	1221.610	925.886
192.315	19.339	1221.390	924.913
193.329	19.537	1220.194	924.985
194.344	19.531	1219.926	924.667
195.359	19.582	1219.463	924.507
196.373	19.579	1219.210	924.216
197.388	19.934	1218.711	925.658
198.402	20.021	1218.949	926.221
199.417	20.171	1218.629	926.700
200.432	20.449	1217.406	927.167
201.446	20.453	1216.890	926.716
202.461	20.597	1216.141	926.829
203.475	20.438	1215.304	925.262
204.490	20.340	1213.065	922.958
205.504	19.946	1212.345	920.233
206.519	19.974	1210.741	919.085
207.534	19.914	1210.041	918.152
208.548	19.964	1208.689	917.310
209.563	19.925	1208.334	916.752
210.577	19.953	1207.452	916.151
211.592	20.017	1206.604	915.764
212.607	20.312	1205.854	916.670
213.621	20.231	1204.977	915.499
214.636	20.193	1204.007	914.479
215.650	20.251	1203.150	914.053
216.665	20.382	1202.270	913.993
217.680	20.523	1201.707	914.228
218.694	20.475	1201.164	913.480
219.709	20.486	1200.084	912.635
220.723	20.426	1199.507	911.799
221.738	20.418	1198.404	910.838
222.753	20.321	1197.733	909.739
223.767	20.398	1196.821	909.372
224.782	20.529	1196.844	909.992
225.796	20.714	1195.955	910.206
226.811	20.525	1195.389	908.703
227.826	20.381	1194.474	907.177
228.840	20.237	1193.707	905.761
229.855	20.305	1192.553	905.159
230.869	20.290	1191.599	904.277
231.884	20.370	1190.570	903.836
232.899	20.021	1190.380	901.793
233.913	20.170	1189.176	901.579
234.928	19.952	1188.384	899.765
235.942	20.024	1187.312	899.248
236.957	19.950	1187.092	898.618
237.972	20.010	1186.197	898.168
238.986	20.112	1185.382	897.999
240.001	20.168	1184.491	897.537
241.015	20.228	1183.660	897.136
242.030	20.261	1183.420	897.047
243.045	20.365	1182.746	896.995
244.059	20.340	1181.887	896.134
245.074	20.369	1181.558	895.958
246.088	20.559	1180.516	896.066
247.103	20.580	1179.869	895.605
248.117	20.691	1179.317	895.677
249.132	20.840	1179.354	896.391
250.147	21.060	1178.742	896.980
251.161	21.352	1177.771	897.663
252.176	21.372	1177.155	897.217
253.190	21.496	1176.576	897.330
254.205	21.429	1176.580	896.912
255.220	21.494	1175.966	896.695
256.234	21.391	1175.123	895.444
257.249	21.439	1174.080	894.816
258.263	21.465	1172.956	894.015
259.278	21.325	1173.229	893.429
260.293	21.399	1172.509	893.181
261.307	21.452	1172.137	893.089
262.322	21.538	1171.244	892.766
263.336	21.460	1170.868	892.002
264.351	21.555	1170.176	891.882
265.366	21.583	1169.058	891.095
266.380	21.536	1168.621	890.439
267.395	21.473	1167.477	889.172
268.409	21.249	1166.654	887.325
269.424	21.351	1165.833	887.141
270.439	21.345	1165.501	886.778
271.453	21.296	1164.446	885.650
272.468	21.058	1163.389	883.563
273.482	20.985	1162.727	882.613
274.497	21.008	1162.472	882.458
275.512	21.082	1161.287	881.851
276.526	21.072	1160.392	881.044
277.541	21.207	1159.410	880.901
278.555	21.224	1159.054	880.640
279.570	21.354	1159.027	881.196
280.585	21.583	1158.693	882.022
281.599	21.563	1157.356	880.821
282.614	21.436	1155.596	878.770
283.628	21.227	1154.554	876.849
284.643	21.301	1153.343	876.222
285.657	21.302	1152.886	875.804
286.672	21.288	1151.856	874.871
287.687	21.280	1151.222	874.275
288.701	21.218	1150.783	873.553
289.716	21.206	1150.049	872.860
290.730	21.301	1149.184	872.599
291.745	21.258	1148.947	872.126
292.760	21.360	1148.161	871.964
293.774	21.433	1147.395	871.669
294.789	21.568	1147.330	872.213
295.803	21.572	1146.298	871.370
296.818	21.417	1145.543	869.949
297.833	21.333	1144.284	868.501
298.847	21.348	1143.712	868.064
299.862	21.352	1143.222	867.634
300.876	21.400	1142.204	867.020
301.891	21.427	1142.158	867.044
302.906	21.620	1141.449	867.388
303.920	21.827	1140.822	867.859
304.935	21.839	1140.715	867.757
305.949	21.983	1139.848	867.736
306.964	21.937	1139.316	867.027
307.979	21.854	1137.900	865.459
308.993	21.681	1137.571	864.282
310.008	21.941	1136.469	864.648
311.022	21.948	1135.860	864.144
312.037	21.895	1135.025	863.170
313.052	21.681	1134.058	861.306
314.066	21.448	1133.147	859.392
315.081	21.140	1132.157	857.056
316.095	21.268	1130.908	856.663
317.110	21.310	1130.366	856.378
318.125	21.232	1129.722	855.435
319.139	21.369	1128.952	855.446
320.154	21.201	1128.482	854.194
321.168	21.222	1127.725	853.648
322.183	21.321	1127.303	853.737
323.197	21.267	1126.755	852.979
324.212	21.459	1126.229	853.447
325.227	21.471	1125.236	852.675
326.241	21.522	1125.013	852.681
327.256	21.503	1123.691	851.507
328.270	21.499	1122.702	850.667
329.285	21.365	1122.043	849.437
330.300	21.388	1121.172	848.817
331.314	21.322	1120.138	847.639
332.329	21.431	1119.398	847.530
333.343	21.515	1118.331	847.054
334.358	21.667	1117.860	847.360
335.373	21.767	1117.487	847.485
336.387	21.775	1116.286	846.540
337.402	21.824	1115.560	846.150
338.416	21.943	1115.411	846.537
339.431	22.112	1114.172	846.334
340.446	22.104	1114.077	846.146
341.460	22.265	1113.646	846.519
342.475	22.349	1113.014	846.371
343.489	22.441	1112.213	846.126
344.504	22.423	1111.074	845.100
345.519	22.456	1110.399	844.670
346.533	22.532	1109.410	844.209
347.548	22.652	1108.603	844.094
348.562	22.554	1107.742	842.892
349.577	22.313	1106.771	840.927
350.592	21.962	1105.889	838.509
351.606	21.953	1104.851	837.602
352.621	21.761	1104.189	836.111
353.635	21.675	1103.841	835.365
354.650	21.771	1102.950	835.075
355.665	21.877	1102.314	835.023
356.679	21.964	1101.798	834.970
357.694	22.017	1101.101	834.624
358.708	22.217	1100.592	835.111
359.723	22.133	1099.995	834.186
360.738	22.121	1099.179	833.436
361.752	22.038	1099.065	832.884
362.767	22.102	1098.564	832.733
363.781	22.268	1097.754	832.831
364.796	22.433	1097.500	833.346
365.810	22.486	1097.125	833.239
366.825	22.706	1096.392	833.649
367.840	22.879	1096.136	834.195
368.854	22.933	1095.401	833.820
369.869	22.791	1094.535	832.418
370.883	22.710	1093.767	831.379
371.898	22.572	1092.543	829.722
372.913	22.596	1091.911	829.284
373.927	22.484	1092.381	829.036
374.942	22.666	1091.602	829.231
375.956	22.661	1090.787	828.515
376.971	22.647	1089.925	827.718
377.986	22.690	1089.733	827.704
379.000	22.790	1089.412	827.857
380.015	23.053	1088.864	828.597
381.029	22.968	1088.142	827.575
382.044	22.971	1087.263	826.850
383.059	22.974	1086.726	826.380
384.073	22.931	1085.596	825.250
385.088	23.020	1084.631	824.859
386.102	22.992	1083.519	823.806
387.117	22.718	1082.246	821.492
388.132	22.617	1081.206	820.162
389.146	22.477	1080.925	819.225
390.161	22.415	1079.992	818.157
391.175	22.532	1079.565	818.301
392.190	22.608	1079.197	818.302
393.205	22.765	1078.498	818.430
394.219	22.843	1077.650	818.076
395.234	22.640	1076.518	816.206
396.248	22.417	1075.713	814.489
397.263	22.580	1074.342	814.131
398.278	22.480	1073.517	812.974
399.292	22.376	1072.697	811.803
400.307	22.268	1071.835	810.577
401.321	22.298	1071.689	810.535
402.336	22.235	1070.538	809.301
403.350	22.274	1070.184	809.145
404.365	22.322	1069.957	809.123
405.380	22.565	1068.706	809.222
406.394	22.661	1068.150	809.166
407.409	22.740	1067.796	809.188
408.423	22.961	1067.136	809.631
409.438	23.066	1066.136	809.283
410.453	23.092	1065.672	808.975
411.467	23.075	1065.286	808.534
412.482	23.156	1064.893	808.534
413.496	23.337	1064.154	808.726
414.511	23.325	1063.865	808.383
415.526	23.395	1063.402	808.277
416.540	23.346	1063.203	807.831
417.555	23.457	1061.923	807.293
418.569	23.232	1061.561	805.922
419.584	23.227	1061.244	805.587
420.599	23.325	1060.583	805.462
421.613	157.691	1405.131	1798.343
422.628	145.004	1455.282	1798.411
