DTS Sentinel unit serial number:	SN413079Multiplexer serial number:	ORYXHardware model number:	OX4-SRSoftware version number:	ORYX F/W v4.00 Oryx Data Collector v3.7.2.0data status	okinstallation	princeton_trtdifferential loss correction	single-endedforward channel	channel 2reverse channel	N/Adate	2019/09/15time	00:43:34forward acquisition time	60.00reverse acquisition time	0.00gamma	496.2192k internal	0.2323k external	0.2323temperature offset calibration	1.0043default loss term (dB/km)	0.3790temperature slope calibration	1.0000multiplexer offset coefficient	1.0000multiplexer slope coefficient	1.0000fibre end	0.00T internal ref (°C)	32.06T ext. ref 1 (°C)	4.58T ext. ref 2 (°C)	27.04length (m)	temperature (°C)	Stokes	anti-Stokes-747.200	-11.934	-0.365	-0.242
-746.185	-63.165	0.195	-0.081
-745.171	390.646	-0.090	-0.189
-744.156	-58.225	0.206	0.090
-743.142	-2.633	-0.204	-0.144
-742.127	-94.095	-0.183	0.051
-741.112	109.065	0.245	0.295
-740.098	299.909	-0.301	0.561
-739.083	-200.000	0.026	0.282
-738.069	-70.052	-0.423	0.163
-737.054	-51.593	-0.150	-0.071
-736.039	-183.597	-0.467	-0.008
-735.025	-200.000	-0.012	0.087
-734.010	800.000	0.094	-0.297
-732.996	-66.078	0.092	0.037
-731.981	259.020	-0.227	-0.394
-730.966	-7.997	-0.088	-0.060
-729.952	-32.241	0.181	0.102
-728.937	800.000	-0.041	-0.160
-727.923	467.636	0.047	0.105
-726.908	379.433	-0.135	0.279
-725.894	-146.043	0.419	-0.037
-724.879	110.372	0.030	-0.036
-723.864	-200.000	-0.037	0.200
-722.850	66.252	-0.105	-0.108
-721.835	99.869	0.038	-0.045
-720.821	-200.000	-0.019	0.284
-719.806	-144.063	-0.084	0.008
-718.791	-101.031	0.216	0.054
-717.777	265.025	-0.048	-0.084
-716.762	-200.000	0.026	-0.184
-715.748	-146.045	0.372	-0.033
-714.733	413.204	-0.115	0.246
-713.718	767.489	-0.007	0.019
-712.704	31.614	0.111	0.096
-711.689	-200.000	-0.029	0.244
-710.675	457.383	-0.143	-0.321
-709.660	385.363	-0.166	0.345
-708.645	98.094	-0.230	-0.267
-707.631	-39.669	-0.169	0.089
-706.616	-200.000	0.024	-0.341
-705.602	-75.122	0.142	-0.051
-704.587	-200.000	0.069	0.340
-703.572	-24.159	-0.259	-0.156
-702.558	-71.080	0.142	0.054
-701.543	-36.228	0.083	-0.045
-700.529	-20.279	-0.154	-0.096
-699.514	-9.310	-0.020	-0.014
-698.499	351.794	0.076	-0.151
-697.485	-90.805	-0.020	0.006
-696.470	-100.985	0.341	-0.084
-695.456	-200.000	-0.013	-0.087
-694.441	483.857	0.065	0.150
-693.426	143.693	-0.066	-0.089
-692.412	322.779	0.070	-0.135
-691.397	-198.347	-0.188	0.001
-690.383	81.766	0.096	0.104
-689.368	621.822	-0.184	-0.467
-688.354	91.151	0.232	-0.262
-687.339	-200.000	-0.015	-0.069
-686.324	-57.440	0.158	0.070
-685.310	800.000	0.043	-0.152
-684.295	488.354	0.176	0.405
-683.281	-200.000	-0.009	-0.117
-682.266	-194.165	-0.540	0.004
-681.251	-35.773	0.247	0.135
-680.237	710.787	-0.085	-0.227
-679.222	524.193	-0.088	0.209
-678.208	71.051	-0.157	0.164
-677.193	-200.000	-0.019	-0.173
-676.178	15.029	-0.175	0.138
-675.164	20.244	-0.174	-0.142
-674.149	290.551	-0.080	-0.147
-673.135	150.912	-0.081	0.111
-672.120	-117.113	0.099	-0.018
-671.105	-33.582	0.206	-0.114
-670.091	-200.000	0.049	-0.271
-669.076	53.233	-0.185	-0.179
-668.062	494.367	0.035	-0.082
-667.047	762.090	0.160	-0.436
-666.032	800.000	0.054	0.208
-665.018	799.552	0.066	-0.183
-664.003	495.520	-0.072	0.166
-662.989	-158.954	0.099	0.006
-661.974	151.271	0.040	-0.054
-660.959	319.411	0.126	0.240
-659.945	96.808	-0.090	0.103
-658.930	56.283	-0.209	-0.205
-657.916	-200.000	0.034	-0.215
-656.901	95.638	-0.160	0.184
-655.886	-200.000	-0.017	-0.081
-654.872	-173.703	0.150	0.005
-653.857	36.798	-0.069	-0.061
-652.843	-200.000	-0.051	0.245
-651.828	587.078	-0.052	-0.129
-650.814	-34.801	0.190	-0.104
-649.799	-200.000	-0.013	-0.352
-648.784	-200.000	0.051	-0.306
-647.770	-39.590	0.046	0.024
-646.755	105.278	0.144	0.171
-645.741	93.333	0.020	-0.023
-644.726	-31.421	-0.268	0.152
-643.711	-34.602	-0.129	0.071
-642.697	-194.285	-0.152	0.001
-641.682	-148.264	-0.295	-0.024
-640.668	-153.279	0.066	0.005
-639.653	-9.375	-0.193	0.129
-638.638	184.230	0.282	0.419
-637.624	-60.054	0.018	-0.008
-636.609	-134.935	-0.070	-0.009
-635.595	786.589	-0.143	0.394
-634.580	800.000	0.039	0.135
-633.565	20.401	0.091	-0.074
-632.551	7.303	0.311	-0.234
-631.536	-90.750	0.168	0.049
-630.522	517.833	0.162	-0.380
-629.507	42.500	0.143	0.131
-628.492	-73.778	0.339	0.124
-627.478	-96.034	0.146	0.039
-626.463	2.271	-0.089	0.065
-625.449	160.207	0.226	-0.316
-624.434	800.000	0.095	0.410
-623.419	-200.000	0.019	0.096
-622.405	672.907	0.143	-0.373
-621.390	800.000	-0.047	0.140
-620.376	-169.449	0.126	0.005
-619.361	800.000	0.050	0.219
-618.346	111.035	-0.112	0.135
-617.332	105.819	0.056	-0.067
-616.317	-104.540	0.294	-0.068
-615.303	-200.000	0.017	0.189
-614.288	291.380	-0.061	-0.111
-613.273	236.849	-0.111	-0.185
-612.259	33.290	-0.185	-0.162
-611.244	-11.119	-0.223	-0.148
-610.230	48.380	-0.061	-0.057
-609.215	-41.151	0.144	0.074
-608.201	144.916	0.176	-0.237
-607.186	478.502	0.022	0.049
-606.171	-200.000	-0.026	-0.139
-605.157	800.000	-0.092	-0.259
-604.142	37.820	0.377	-0.337
-603.128	-21.105	0.140	-0.086
-602.113	66.163	-0.102	0.104
-601.098	-200.000	-0.002	-0.160
-600.084	75.388	0.069	-0.073
-599.069	-74.667	-0.318	0.115
-598.055	-92.529	0.370	0.104
-597.040	130.942	-0.055	-0.071
-596.025	-100.118	0.316	-0.079
-595.011	-63.685	0.146	0.060
-593.996	-64.506	0.183	0.075
-592.982	113.959	0.090	-0.110
-591.967	711.268	0.086	0.228
-590.952	-94.242	0.280	-0.077
-589.938	87.411	0.128	-0.143
-588.923	132.324	0.256	-0.331
-587.909	-200.000	0.001	-0.130
-586.894	109.700	-0.203	-0.244
-585.879	-5.509	0.197	0.136
-584.865	-82.986	-0.254	0.082
-583.850	-200.000	-0.015	-0.293
-582.836	-165.634	0.191	-0.008
-581.821	-52.448	0.264	-0.122
-580.806	-55.810	0.301	0.135
-579.792	5.477	0.199	-0.147
-578.777	-200.000	0.005	-0.135
-577.763	800.000	0.074	0.313
-576.748	-143.998	-0.131	0.012
-575.733	800.000	0.045	0.186
-574.719	-131.204	-0.216	-0.029
-573.704	-138.235	0.105	-0.012
-572.690	75.976	-0.218	-0.231
-571.675	114.853	-0.294	-0.360
-570.661	227.905	0.065	0.106
-569.646	-200.000	0.017	-0.083
-568.631	800.000	-0.048	0.146
-567.617	767.888	-0.061	-0.166
-566.602	168.430	-0.202	0.289
-565.588	323.582	-0.083	0.159
-564.573	58.572	-0.090	0.089
-563.558	-101.240	0.226	0.055
-562.544	106.487	-0.011	0.013
-561.529	230.498	0.038	0.062
-560.515	-6.834	0.186	-0.127
-559.500	255.962	0.107	0.184
-558.485	-93.778	0.231	0.064
-557.471	-200.000	-0.049	0.299
-556.456	-141.604	0.185	0.019
-555.442	33.417	0.148	-0.129
-554.427	-164.591	-0.170	0.008
-553.412	-200.000	0.005	-0.141
-552.398	138.694	-0.127	0.168
-551.383	103.123	0.241	0.283
-550.369	83.962	0.103	0.113
-549.354	9.304	-0.130	0.098
-548.339	-40.710	-0.376	0.195
-547.325	-78.878	-0.258	-0.088
-546.310	-99.976	-0.265	-0.066
-545.296	146.409	0.208	0.280
-544.281	-97.834	-0.321	0.083
-543.266	99.833	-0.177	0.205
-542.252	-200.000	-0.018	-0.152
-541.237	8.253	0.281	-0.211
-540.223	26.945	-0.116	-0.098
-539.208	430.224	0.116	0.250
-538.193	800.000	-0.049	-0.205
-537.179	-156.914	-0.155	0.010
-536.164	331.485	0.034	0.066
-535.150	-191.683	0.233	-0.002
-534.135	-6.146	0.165	0.113
-533.121	-85.817	-0.036	0.011
-532.106	26.653	0.113	0.095
-531.091	18.373	0.272	0.218
-530.077	-21.197	-0.415	-0.254
-529.062	800.000	-0.061	-0.182
-528.048	114.623	0.087	-0.106
-527.033	-200.000	-0.005	-0.081
-526.018	800.000	-0.083	0.259
-525.004	72.342	-0.166	0.173
-523.989	169.297	-0.016	-0.023
-522.975	44.343	-0.259	0.238
-521.960	87.885	-0.136	-0.151
-520.945	-156.794	0.401	-0.025
-519.931	19.588	-0.259	-0.209
-518.916	518.625	-0.058	0.135
-517.902	473.953	0.053	0.120
-516.887	-127.630	-0.307	0.045
-515.872	-200.000	-0.015	0.127
-514.858	-200.000	-0.026	0.122
-513.843	263.061	0.043	0.075
-512.829	-83.141	0.401	0.129
-511.814	195.242	-0.162	-0.246
-510.799	-89.898	-0.520	-0.152
-509.785	29.703	-0.141	0.120
-508.770	800.000	-0.027	0.103
-507.756	64.317	-0.048	-0.049
-506.741	-188.737	0.165	-0.002
-505.726	96.476	0.176	0.201
-504.712	601.084	0.024	0.059
-503.697	-44.677	0.206	-0.103
-502.683	581.680	0.205	0.503
-501.668	-52.511	0.044	-0.020
-500.653	-200.000	0.042	0.419
-499.639	-50.965	0.111	0.052
-498.624	19.108	-0.236	0.189
-497.610	23.874	0.094	-0.078
-496.595	248.508	-0.262	0.444
-495.581	-200.000	-0.044	0.000
-494.566	-53.933	-0.239	0.109
-493.551	41.842	-0.041	0.037
-492.537	-200.000	-0.019	-0.085
-491.522	114.191	0.163	0.198
-490.508	-86.265	0.066	0.020
-489.493	800.000	-0.016	-0.060
-488.478	196.120	-0.021	-0.032
-487.464	-88.205	-0.213	-0.064
-486.449	-79.193	-0.060	0.020
-485.435	-110.558	-0.125	0.026
-484.420	-200.000	-0.006	0.391
-483.405	-200.000	0.005	0.163
-482.391	-142.464	-0.347	-0.034
-481.376	110.226	-0.111	0.133
-480.362	-200.000	0.236	0.000
-479.347	-12.175	0.237	0.155
-478.332	-119.766	-0.031	0.005
-477.318	398.257	0.101	-0.212
-476.303	-25.274	-0.322	0.190
-475.289	-200.000	0.010	-0.130
-474.274	-108.073	-0.217	-0.047
-473.259	800.000	-0.016	0.071
-472.245	-90.610	0.454	-0.131
-471.230	-63.608	0.111	0.045
-470.216	94.691	0.015	0.017
-469.201	-140.890	0.121	-0.012
-468.186	-44.339	0.158	0.079
-467.172	300.556	-0.113	-0.209
-466.157	23.416	-0.230	0.189
-465.143	-168.738	-0.204	-0.008
-464.128	-110.837	0.258	-0.053
-463.113	94.394	-0.285	0.324
-462.099	-38.589	-0.218	-0.115
-461.084	789.399	0.046	-0.127
-460.070	-97.789	0.294	-0.076
-459.055	800.000	-0.069	0.302
-458.040	497.400	0.112	-0.257
-457.026	-169.252	-0.237	-0.009
-456.011	-155.620	0.239	0.015
-454.997	-64.525	-0.467	0.189
-453.982	109.911	-0.340	-0.408
-452.968	15.353	0.434	-0.340
-451.953	47.491	-0.151	-0.140
-450.938	168.779	-0.006	-0.009
-449.924	-112.527	-0.616	-0.123
-448.909	-104.770	0.233	0.054
-447.895	-200.000	-0.010	-0.625
-446.880	109.633	-0.173	-0.207
-445.865	223.727	-0.069	0.112
-444.851	-179.785	-0.097	0.002
-443.836	24.404	-0.073	-0.060
-442.822	-119.010	-0.389	0.068
-441.807	-101.119	0.199	0.049
-440.792	-80.010	0.243	0.081
-439.778	-87.485	-0.402	-0.121
-438.763	-200.000	0.037	-0.329
-437.749	370.885	-0.100	-0.201
-436.734	-200.000	-0.005	-0.051
-435.719	-10.729	0.284	0.187
-434.705	800.000	-0.070	0.293
-433.690	139.980	0.188	0.247
-432.676	-101.577	0.173	-0.042
-431.661	800.000	-0.024	0.083
-430.646	141.365	0.137	0.181
-429.632	31.243	0.240	-0.206
-428.617	761.106	0.045	-0.121
-427.603	-56.446	-0.185	0.082
-426.588	-200.000	-0.014	-0.245
-425.573	-102.833	-0.048	-0.011
-424.559	-200.000	0.011	0.136
-423.544	217.770	0.073	0.116
-422.530	-49.327	-0.153	-0.073
-421.515	800.000	0.048	-0.150
-420.500	-140.028	0.230	0.024
-419.486	-9.933	-0.142	-0.094
-418.471	-125.617	0.273	-0.041
-417.457	58.306	-0.182	0.178
-416.442	-144.802	-0.039	0.004
-415.428	439.898	-0.137	-0.299
-414.413	-10.455	-0.130	-0.086
-413.398	-141.515	-0.047	-0.005
-412.384	-200.000	0.015	0.150
-411.369	96.525	0.189	-0.216
-410.355	196.139	0.069	0.105
-409.340	7.150	-0.148	-0.110
-408.325	-26.355	0.163	-0.096
-407.311	-200.000	0.011	-0.290
-406.296	-14.001	-0.075	0.048
-405.282	-200.000	0.062	-0.283
-404.267	26.994	0.049	-0.041
-403.252	-122.057	0.358	0.059
-402.238	52.279	-0.124	-0.118
-401.223	-200.000	-0.051	-0.317
-400.209	213.471	-0.061	-0.096
-399.194	13.327	0.277	0.214
-398.179	-200.000	0.006	-0.119
-397.165	-128.158	0.127	-0.018
-396.150	94.286	0.151	-0.171
-395.136	-94.444	0.219	0.059
-394.121	-200.000	-0.011	0.227
-393.106	-7.538	0.293	0.198
-392.092	24.327	0.310	0.255
-391.077	-136.783	-0.347	0.040
-390.063	10.720	-0.112	0.085
-389.048	47.048	-0.303	-0.281
-388.033	-114.658	-0.329	-0.063
-387.019	499.118	-0.094	0.215
-386.004	276.133	-0.023	-0.041
-384.990	800.000	-0.053	0.193
-383.975	115.844	0.061	-0.074
-382.960	800.000	0.035	-0.133
-381.946	711.750	-0.041	-0.107
-380.931	-175.699	0.351	0.009
-379.917	-128.815	0.268	0.038
-378.902	-94.557	0.013	0.004
-377.888	67.265	0.044	-0.045
-376.873	-74.360	-0.076	0.027
-375.858	-130.831	-0.166	0.022
-374.844	351.530	-0.054	0.107
-373.829	-46.263	0.186	-0.091
-372.815	479.522	0.113	-0.254
-371.800	16.586	-0.157	0.123
-370.785	-200.000	0.059	0.323
-369.771	39.374	0.131	-0.117
-368.756	30.619	-0.160	-0.136
-367.742	-1.502	0.091	0.064
-366.727	43.781	-0.147	-0.134
-365.712	-200.000	0.050	0.251
-364.698	36.294	-0.140	-0.123
-363.683	52.986	-0.094	-0.090
-362.669	-176.704	0.150	-0.004
-361.654	70.337	0.259	0.266
-360.639	206.912	0.068	0.105
-359.625	-95.533	0.299	0.080
-358.610	25.618	0.056	0.047
-357.596	446.350	0.079	-0.172
-356.581	-134.207	0.314	0.038
-355.566	24.671	-0.282	-0.232
-354.552	-200.000	0.018	-0.272
-353.537	-109.303	0.158	-0.033
-352.523	-200.000	-0.009	-0.119
-351.508	35.002	0.068	-0.059
-350.493	-200.000	0.011	0.092
-349.479	64.962	-0.126	-0.126
-348.464	-102.179	-0.367	-0.088
-347.450	-27.923	0.184	0.106
-346.435	-200.000	0.008	-0.142
-345.420	-67.630	-0.316	0.123
-344.406	-180.886	-0.209	0.004
-343.391	-184.887	-0.075	0.001
-342.377	-61.202	-0.075	-0.031
-341.362	161.909	-0.156	0.217
-340.348	407.649	-0.012	-0.026
-339.333	13.706	-0.116	0.090
-338.318	170.477	-0.109	-0.154
-337.304	-200.000	-0.025	-0.161
-336.289	37.006	-0.100	-0.088
-335.275	800.000	-0.033	0.139
-334.260	-46.461	0.122	0.060
-333.245	-200.000	-0.024	0.265
-332.231	493.476	0.054	0.123
-331.216	12.178	0.328	0.251
-330.202	370.320	0.107	0.215
-329.187	-200.000	-0.010	-0.121
-328.172	-136.933	0.121	-0.014
-327.158	-137.093	-0.243	0.028
-326.143	-151.028	-0.086	-0.006
-325.129	144.758	0.058	-0.077
-324.114	-27.542	-0.302	-0.174
-323.099	-165.688	-0.128	-0.005
-322.085	-135.219	0.144	0.017
-321.070	-51.432	-0.125	0.058
-320.056	-134.457	-0.114	0.014
-319.041	134.818	-0.169	0.218
-318.026	702.951	0.062	0.163
-317.012	-104.042	0.245	0.057
-315.997	16.357	-0.234	0.184
-314.983	-76.633	-0.098	0.034
-313.968	-192.058	-0.149	-0.001
-312.953	402.707	-0.113	0.236
-311.939	16.265	0.118	0.092
-310.924	-200.000	-0.016	0.140
-309.910	-12.067	-0.115	-0.075
-308.895	-200.000	-0.025	-0.258
-307.880	-19.801	0.115	-0.071
-306.866	537.253	0.154	0.364
-305.851	577.346	0.091	-0.222
-304.837	167.739	0.383	-0.540
-303.822	100.690	-0.131	-0.151
-302.807	-200.000	-0.023	-0.139
-301.793	366.637	-0.159	0.319
-300.778	-147.175	-0.464	-0.039
-299.764	112.264	-0.126	0.152
-298.749	33.738	-0.163	-0.141
-297.735	-67.749	-0.302	-0.117
-296.720	-200.000	0.052	0.226
-295.705	-150.005	0.206	0.016
-294.691	-123.828	0.105	-0.016
-293.676	577.531	-0.073	0.176
-292.662	-59.664	-0.083	-0.035
-291.647	-63.606	0.217	0.088
-290.632	-139.072	-0.227	-0.024
-289.618	-200.000	0.047	-0.221
-288.603	-200.000	0.053	-0.364
-287.589	-47.153	-0.483	-0.234
-286.574	-158.911	0.258	0.015
-285.559	94.462	-0.134	-0.151
-284.545	21.688	-0.051	0.041
-283.530	-96.864	0.328	-0.086
-282.516	-200.000	0.009	-0.117
-281.501	-6.898	-0.266	-0.179
-280.486	49.566	-0.180	0.168
-279.472	-200.000	0.013	-0.183
-278.457	-121.698	-0.042	0.007
-277.443	688.442	-0.080	0.208
-276.428	252.960	-0.142	0.240
-275.413	41.615	-0.223	0.200
-274.399	-31.934	-0.257	0.143
-273.384	-122.072	0.132	-0.021
-272.370	357.214	0.133	0.263
-271.355	-24.331	0.207	0.123
-270.340	14.747	-0.091	-0.071
-269.326	-65.627	0.059	0.023
-268.311	-200.000	-0.019	0.212
-267.297	-200.000	-0.023	-0.331
-266.282	-200.000	-0.003	0.217
-265.267	-84.657	-0.206	-0.064
-264.253	-116.183	0.269	-0.050
-263.238	-94.227	0.187	-0.051
-262.224	169.336	-0.039	-0.055
-261.209	26.467	0.270	0.224
-260.195	-72.624	-0.097	-0.036
-259.180	79.698	0.150	0.159
-258.165	-152.909	0.171	-0.012
-257.151	385.475	-0.183	-0.373
-256.136	249.066	-0.171	-0.286
-255.122	693.376	-0.096	0.250
-254.107	16.641	0.137	-0.107
-253.092	-74.140	-0.166	0.060
-252.078	-97.983	-0.196	0.050
-251.063	800.000	-0.054	0.204
-250.049	-45.760	0.242	0.118
-249.034	741.287	-0.053	0.140
-248.019	-119.293	0.356	0.061
-247.005	-31.238	0.075	0.042
-245.990	173.067	-0.075	-0.107
-244.976	-163.196	-0.142	-0.007
-243.961	219.189	-0.086	-0.135
-242.946	19.009	-0.457	-0.363
-241.932	-39.342	-0.066	-0.034
-240.917	714.301	-0.087	0.229
-239.903	-42.437	0.176	0.089
-238.888	-119.898	0.394	-0.067
-237.873	-88.364	0.414	-0.122
-236.859	-200.000	-0.029	0.220
-235.844	75.177	0.067	0.070
-234.830	-142.064	-0.207	-0.020
-233.815	353.327	-0.083	0.163
-232.800	800.000	0.068	0.212
-231.786	52.830	0.214	-0.202
-230.771	8.637	-0.092	-0.069
-229.757	-16.430	0.275	-0.173
-228.742	62.480	0.069	-0.068
-227.727	-64.533	-0.129	0.052
-226.713	-200.000	-0.019	-0.182
-225.698	145.909	0.259	-0.343
-224.684	-74.639	0.112	0.040
-223.669	27.717	-0.346	-0.288
-222.655	232.738	-0.041	0.067
-221.640	291.475	0.111	0.200
-220.625	47.387	0.069	-0.063
-219.611	543.079	-0.108	-0.255
-218.596	-200.000	-0.006	-0.230
-217.582	-155.484	0.253	0.016
-216.567	-200.000	-0.011	-0.080
-215.552	-83.483	-0.091	-0.029
-214.538	-118.006	0.087	0.015
-213.523	452.109	-0.030	0.066
-212.509	800.000	-0.047	0.182
-211.494	8.716	0.223	-0.166
-210.479	-83.329	-0.195	-0.062
-209.465	-147.990	0.182	-0.015
-208.450	-122.003	0.207	0.034
-207.436	-91.787	-0.371	-0.104
-206.421	-35.542	-0.094	0.051
-205.406	-115.094	0.300	0.056
-204.392	323.994	0.141	-0.266
-203.377	-200.000	0.050	-0.267
-202.363	86.150	-0.118	-0.129
-201.348	-61.538	0.298	-0.124
-200.333	784.151	-0.064	0.174
-199.319	245.317	-0.053	-0.089
-198.304	-144.717	-0.177	0.016
-197.290	61.185	-0.142	-0.140
-196.275	800.000	0.018	-0.058
-195.260	288.009	0.054	-0.096
-194.246	90.545	0.028	0.031
-193.231	67.619	0.230	0.232
-192.217	-139.169	-0.291	0.031
-191.202	1.970	-0.099	0.071
-190.187	-200.000	0.015	-0.293
-189.173	800.000	-0.066	-0.184
-188.158	-52.426	-0.035	0.016
-187.144	497.002	-0.114	0.259
-186.129	309.492	-0.066	0.121
-185.114	-56.712	0.246	0.108
-184.100	-200.000	-0.021	0.126
-183.085	-13.354	0.211	-0.135
-182.071	24.878	0.036	0.030
-181.056	154.344	-0.148	0.200
-180.042	104.313	0.208	-0.242
-179.027	-32.373	0.073	0.040
-178.012	-66.147	0.318	-0.125
-176.998	-65.368	0.041	0.016
-175.983	4.990	-0.215	-0.156
-174.969	-101.135	0.168	-0.041
-173.954	800.000	0.080	0.255
-172.939	800.000	-0.033	0.140
-171.925	-200.000	0.012	-0.148
-170.910	174.974	-0.055	0.079
-169.896	-137.837	-0.243	0.027
-168.881	144.434	-0.119	-0.156
-167.866	-67.617	0.157	-0.061
-166.852	-200.000	-0.058	0.291
-165.837	-67.693	-0.302	-0.117
-164.823	754.769	0.096	-0.257
-163.808	-0.971	-0.141	0.099
-162.793	462.364	-0.086	0.190
-161.779	45.712	-0.119	0.109
-160.764	-137.120	0.299	0.034
-159.750	-200.000	-0.085	-0.392
-158.735	-92.125	0.157	0.044
-157.720	-200.000	-0.092	0.433
-156.706	299.223	-0.037	-0.066
-155.691	81.156	0.150	0.160
-154.677	65.465	-0.163	0.163
-153.662	351.318	-0.039	-0.077
-152.647	-50.736	-0.261	-0.121
-151.633	379.892	-0.164	0.331
-150.618	127.728	-0.104	-0.130
-149.604	-59.164	0.193	-0.082
-148.589	-37.721	-0.281	0.147
-147.574	800.000	-0.070	0.204
-146.560	368.860	0.060	-0.119
-145.545	-200.000	-0.007	0.132
-144.531	-106.534	0.303	0.067
-143.516	800.000	-0.021	-0.080
-142.502	295.203	-0.086	0.155
-141.487	130.728	-0.330	0.417
-140.472	-75.227	-0.035	0.012
-139.458	800.000	-0.061	-0.189
-138.443	21.708	-0.211	-0.170
-137.429	95.819	-0.106	-0.119
-136.414	248.349	0.057	0.095
-135.399	-47.560	0.113	0.054
-134.385	-112.943	0.173	-0.034
-133.370	113.224	0.063	0.076
-132.356	6.335	-0.156	0.114
-131.341	-153.753	0.190	-0.013
-130.326	3.186	0.161	0.116
-129.312	-148.266	0.127	0.010
-128.297	-200.000	0.023	0.218
-127.283	-200.000	-0.027	0.366
-126.268	-17.558	0.772	0.479
-125.253	-200.000	0.037	0.274
-124.239	-200.000	-0.016	0.175
-123.224	17.252	-0.058	0.046
-122.210	1.366	-0.138	0.097
-121.195	-104.177	-0.176	-0.040
-120.180	-68.090	-0.381	0.146
-119.166	217.330	-0.095	-0.149
-118.151	-14.330	0.272	0.172
-117.137	-200.000	-0.088	0.473
-116.122	355.192	-0.063	0.123
-115.107	28.907	0.194	-0.162
-114.093	800.000	0.004	0.017
-113.078	-76.169	0.247	0.086
-112.064	624.310	0.084	-0.207
-111.049	-107.565	-0.205	0.044
-110.034	50.060	-0.195	0.181
-109.020	26.387	0.250	-0.205
-108.005	202.582	0.143	0.217
-106.991	-13.096	0.265	-0.170
-105.976	491.887	-0.141	0.318
-104.962	-36.138	-0.063	-0.034
-103.947	-58.778	0.369	-0.157
-102.932	-67.844	-0.268	-0.103
-101.918	-79.881	0.095	0.031
-100.903	15.261	-0.158	0.122
-99.889	94.776	-0.155	-0.174
-98.874	-43.516	-0.184	0.092
-97.859	-135.949	0.317	-0.037
-96.845	282.798	-0.059	-0.105
-95.830	-81.760	-0.212	-0.069
-94.816	-200.000	-0.001	0.164
-93.801	9.956	0.077	-0.058
-92.786	195.769	-0.011	0.017
-91.772	17.458	0.220	-0.172
-90.757	-200.000	0.037	0.396
-89.743	-80.065	-0.341	0.112
-88.728	-109.917	0.195	-0.040
-87.713	800.000	0.091	-0.276
-86.699	366.774	0.054	-0.107
-85.684	505.744	-0.049	0.112
-84.670	-200.000	0.068	0.341
-83.655	-78.539	0.361	0.121
-82.640	-200.000	-0.060	-0.259
-81.626	238.878	0.134	-0.220
-80.611	298.354	0.022	-0.040
-79.597	29.179	-0.160	0.133
-78.582	15.428	-0.187	0.145
-77.567	398.962	0.040	-0.082
-76.553	142.381	0.057	-0.075
-75.538	-82.656	0.205	0.065
-74.524	36.415	-0.138	-0.120
-73.509	-167.999	-0.212	0.008
-72.494	15.125	-0.367	-0.283
-71.480	-200.000	0.025	0.204
-70.465	674.456	0.071	0.181
-69.451	520.373	-0.098	0.226
-68.436	-158.825	0.247	0.014
-67.422	800.000	0.058	-0.224
-66.407	-200.000	-0.010	0.244
-65.392	800.000	0.042	0.178
-64.378	257.438	-0.142	-0.240
-63.363	106.715	0.008	0.009
-62.349	189.603	0.112	0.165
-61.334	65.326	-0.802	-0.798
-60.319	-29.529	0.551	0.310
-59.305	800.000	-0.348	-1.065
-58.290	800.000	0.366	1.143
-57.276	306.235	0.890	1.627
-56.261	-200.000	95.453	592.828
-55.246	663.279	1365.917	3462.727
-54.232	199.236	2550.106	3841.175
-53.217	113.523	2268.167	2706.687
-52.203	41.511	1896.348	1686.999
-51.188	35.278	1686.764	1453.424
-50.173	32.614	1642.518	1395.544
-49.159	50.225	1688.114	1566.757
-48.144	51.905	1704.354	1594.367
-47.130	35.090	1665.542	1433.507
-46.115	32.274	1651.524	1400.446
-45.100	32.063	1647.048	1395.022
-44.086	31.893	1644.489	1391.540
-43.071	31.980	1641.471	1389.571
-42.057	31.915	1639.565	1387.428
-41.042	32.053	1637.117	1386.317
-40.027	32.011	1635.368	1384.475
-39.013	31.955	1633.520	1382.440
-37.998	31.935	1631.473	1380.505
-36.984	31.891	1630.676	1379.455
-35.969	32.113	1629.128	1379.716
-34.954	32.168	1627.006	1378.268
-33.940	32.007	1625.835	1376.042
-32.925	31.935	1624.158	1374.044
-31.911	31.998	1622.482	1373.029
-30.896	32.146	1620.089	1372.030
-29.881	32.102	1618.379	1370.212
-28.867	32.173	1616.778	1369.315
-27.852	32.112	1615.484	1367.721
-26.838	32.032	1614.248	1366.042
-25.823	32.023	1612.415	1364.370
-24.809	32.111	1611.120	1363.856
-23.794	31.988	1609.665	1361.676
-22.779	32.067	1608.556	1361.256
-21.765	32.010	1606.850	1359.353
-20.750	32.077	1605.334	1358.500
-19.736	32.043	1604.302	1357.322
-18.721	32.180	1602.617	1356.835
-17.706	32.102	1600.765	1354.650
-16.692	32.093	1599.290	1353.285
-15.677	32.097	1598.070	1352.228
-14.663	32.043	1596.714	1350.637
-13.648	32.203	1595.272	1350.517
-12.633	32.100	1594.135	1348.754
-11.619	32.088	1592.363	1347.117
-10.604	32.148	1590.622	1346.021
-9.590	32.036	1589.714	1344.395
-8.575	32.138	1588.095	1343.708
-7.560	32.139	1587.036	1342.764
-6.546	32.078	1586.572	1341.880
-5.531	32.033	1584.875	1340.071
-4.517	32.085	1584.018	1339.668
-3.502	32.120	1582.320	1338.428
-2.487	32.214	1580.525	1337.520
-1.473	31.886	1568.959	1325.364
-0.458	29.121	1549.617	1289.639
0.556	25.049	1550.505	1258.258
1.571	22.804	1573.190	1260.544
2.586	22.235	1586.367	1266.887
3.600	19.803	1532.987	1207.195
4.615	12.068	1425.152	1071.797
5.629	5.513	1363.754	984.409
6.644	4.717	1355.716	973.543
7.659	4.548	1354.081	971.226
8.673	4.516	1353.377	970.433
9.688	4.539	1351.751	969.324
10.702	4.486	1348.818	966.808
11.717	7.399	1354.460	988.948
12.731	14.671	1367.906	1044.318
13.746	19.269	1374.356	1077.981
14.761	18.981	1373.045	1075.057
15.775	18.004	1369.981	1066.470
16.790	16.984	1367.128	1057.796
17.804	16.126	1365.016	1050.725
18.819	15.682	1364.184	1047.226
19.834	15.490	1362.432	1044.592
20.848	15.241	1361.407	1042.165
21.863	14.963	1360.065	1039.321
22.877	14.873	1359.102	1037.937
23.892	14.893	1357.707	1036.900
24.907	14.804	1357.257	1035.914
25.921	14.825	1357.078	1035.817
26.936	14.961	1355.454	1035.326
27.950	14.932	1354.454	1034.292
28.965	15.010	1353.446	1033.910
29.980	15.141	1352.329	1033.775
30.994	15.180	1351.716	1033.456
32.009	15.274	1349.524	1032.268
33.023	15.171	1349.175	1031.278
34.038	15.049	1347.641	1029.264
35.053	15.008	1346.382	1027.959
36.067	15.012	1345.333	1027.091
37.082	15.066	1344.336	1026.567
38.096	15.017	1343.593	1025.612
39.111	15.027	1342.730	1024.920
40.126	14.908	1341.935	1023.499
41.140	14.867	1340.928	1022.385
42.155	14.723	1340.503	1021.094
43.169	14.729	1340.147	1020.765
44.184	14.786	1339.971	1020.893
45.199	14.697	1340.274	1020.488
46.213	14.910	1338.894	1020.648
47.228	14.814	1338.373	1019.571
48.242	14.962	1336.919	1019.280
49.257	14.970	1335.020	1017.791
50.271	14.993	1333.788	1016.898
51.286	14.861	1332.911	1015.337
52.301	14.991	1331.262	1014.784
53.315	14.894	1330.294	1013.365
54.330	14.759	1329.374	1011.756
55.344	14.833	1328.107	1011.151
56.359	14.892	1326.514	1010.205
57.374	14.687	1326.017	1008.500
58.388	14.689	1325.548	1008.066
59.403	14.821	1324.187	1007.737
60.417	14.802	1323.420	1006.953
61.432	14.695	1322.993	1005.890
62.447	14.638	1322.250	1004.895
63.461	14.532	1321.180	1003.358
64.476	14.443	1320.127	1001.930
65.490	14.616	1318.880	1001.933
66.505	14.659	1316.889	1000.591
67.520	14.599	1316.145	999.579
68.534	14.702	1314.660	998.976
69.549	14.658	1314.000	998.124
70.563	14.608	1312.829	996.851
71.578	14.519	1312.101	995.675
72.593	14.581	1310.324	994.611
73.607	14.478	1309.859	993.557
74.622	14.452	1309.567	993.093
75.636	14.531	1308.475	992.648
76.651	14.569	1307.987	992.412
77.666	14.411	1307.494	991.012
78.680	14.609	1306.746	991.537
79.695	14.657	1305.973	991.144
80.709	14.663	1305.096	990.425
81.724	14.724	1304.391	990.169
82.739	14.817	1303.469	989.932
83.753	14.840	1303.222	989.792
84.768	14.881	1302.164	989.139
85.782	15.042	1300.863	989.016
86.797	15.005	1299.746	987.861
87.812	14.922	1298.739	986.520
88.826	14.923	1297.345	985.378
89.841	14.951	1296.524	984.834
90.855	15.008	1295.278	984.136
91.870	15.024	1294.772	983.757
92.884	15.069	1293.761	983.165
93.899	15.042	1293.106	982.427
94.914	15.129	1291.922	981.950
95.928	15.036	1291.370	980.898
96.943	15.055	1290.492	980.254
97.957	15.048	1289.470	979.347
98.972	15.011	1288.562	978.357
99.987	15.068	1287.351	977.682
101.001	14.995	1286.324	976.390
102.016	15.050	1285.441	975.958
103.030	15.026	1284.350	974.898
104.045	14.997	1283.740	974.185
105.060	14.941	1282.442	972.788
106.074	14.865	1280.811	971.022
107.089	14.728	1279.408	969.076
108.103	14.683	1278.618	968.132
109.118	14.733	1276.797	966.960
110.133	14.616	1276.022	965.606
111.147	14.668	1274.296	964.514
112.162	14.656	1273.246	963.569
113.176	14.794	1272.271	963.538
114.191	14.833	1271.283	962.930
115.206	14.759	1270.577	961.888
116.220	14.706	1268.908	960.230
117.235	14.726	1267.633	959.298
118.249	14.695	1266.797	958.401
119.264	14.753	1265.868	957.948
120.279	14.817	1264.196	956.962
121.293	14.789	1263.026	955.832
122.308	14.626	1262.452	954.380
123.322	14.721	1260.954	953.709
124.337	14.498	1260.664	952.131
125.352	14.596	1259.558	951.770
126.366	14.677	1257.901	950.893
127.381	14.736	1257.493	950.841
128.395	14.732	1256.134	949.703
129.410	14.613	1255.508	948.468
130.424	14.757	1254.748	948.632
131.439	14.826	1253.419	947.932
132.454	14.649	1252.969	946.507
133.468	14.893	1251.393	946.611
134.483	14.757	1251.364	945.737
135.497	14.838	1249.939	945.033
136.512	14.750	1248.619	943.456
137.527	14.869	1247.318	943.060
138.541	14.880	1245.866	941.938
139.556	14.913	1244.676	941.146
140.570	15.008	1243.519	940.717
141.585	14.960	1242.629	939.695
142.600	14.985	1241.478	938.881
143.614	14.980	1241.072	938.462
144.629	15.035	1239.737	937.677
145.643	15.110	1238.161	936.824
146.658	14.948	1237.098	935.027
147.673	14.967	1235.822	934.088
148.687	15.010	1234.246	933.051
149.702	14.791	1233.367	931.087
150.716	14.853	1231.877	930.223
151.731	14.902	1230.783	929.588
152.746	14.860	1229.677	928.436
153.760	14.905	1228.868	927.994
154.775	15.011	1227.887	927.761
155.789	15.105	1226.538	927.178
156.804	15.028	1226.000	926.263
157.819	15.105	1224.516	925.484
158.833	15.155	1223.640	925.019
159.848	15.222	1223.084	924.884
160.862	15.122	1222.393	923.732
161.877	15.054	1221.101	922.298
162.892	14.918	1219.827	920.502
163.906	14.934	1219.187	920.029
164.921	15.027	1217.874	919.466
165.935	15.135	1217.190	919.464
166.950	15.060	1216.444	918.405
167.964	15.147	1215.420	918.032
168.979	15.151	1214.806	917.508
169.994	15.120	1214.460	916.993
171.008	15.152	1213.337	916.237
172.023	15.221	1213.120	916.375
173.037	15.303	1211.809	915.746
174.052	15.359	1210.774	915.189
175.067	15.191	1209.810	913.463
176.081	15.093	1208.599	911.934
177.096	15.103	1208.252	911.650
178.110	15.231	1206.683	911.082
179.125	15.096	1206.010	909.756
180.140	15.206	1204.678	909.267
181.154	15.233	1203.234	908.245
182.169	15.276	1202.259	907.660
183.183	15.324	1201.279	907.101
184.198	15.382	1199.762	906.188
185.213	15.452	1198.193	905.303
186.227	15.472	1197.630	904.903
187.242	15.374	1196.719	903.609
188.256	15.424	1195.921	903.195
189.271	15.497	1195.016	902.825
190.286	15.308	1193.886	900.873
191.300	15.087	1193.097	899.011
192.315	15.162	1192.267	898.708
193.329	15.058	1191.857	897.762
194.344	15.132	1191.255	897.625
195.359	15.118	1190.740	897.083
196.373	15.332	1190.054	897.636
197.388	15.404	1189.947	897.859
198.402	15.581	1189.077	898.070
199.417	15.720	1188.398	898.220
200.432	15.703	1187.761	897.567
201.446	15.708	1187.013	896.948
202.461	15.836	1185.310	896.264
203.475	15.789	1184.814	895.563
204.490	15.563	1183.357	893.180
205.504	15.537	1182.538	892.343
206.519	15.475	1181.397	891.074
207.534	15.552	1180.210	890.510
208.548	15.587	1179.089	889.767
209.563	15.582	1178.488	889.212
210.577	15.610	1177.430	888.483
211.592	15.634	1176.676	887.960
212.607	15.691	1175.919	887.614
213.621	15.745	1174.841	887.004
214.636	15.638	1174.234	885.907
215.650	15.637	1173.417	885.203
216.665	15.812	1172.330	885.224
217.680	15.808	1171.934	884.827
218.694	15.844	1171.026	884.256
219.709	15.962	1169.716	883.804
220.723	15.871	1169.105	882.790
221.738	15.757	1168.672	881.787
222.753	15.869	1167.611	881.492
223.767	15.975	1166.884	881.420
224.782	15.888	1166.491	880.593
225.796	15.926	1165.810	880.196
226.811	15.984	1165.166	879.938
227.826	15.935	1164.378	879.007
228.840	15.944	1163.545	878.346
229.855	15.930	1162.764	877.610
230.869	15.958	1162.294	877.322
231.884	15.863	1161.593	876.220
232.899	15.807	1160.777	875.234
233.913	15.809	1159.622	874.298
234.928	15.706	1159.051	873.255
235.942	15.767	1158.543	873.113
236.957	15.739	1157.535	872.129
237.972	15.838	1157.098	872.238
238.986	15.762	1156.282	871.149
240.001	15.846	1155.261	870.741
241.015	15.857	1154.444	870.101
242.030	15.989	1153.704	870.152
243.045	15.973	1153.173	869.590
244.059	16.119	1152.174	869.512
245.074	16.035	1151.264	868.317
246.088	16.048	1150.517	867.742
247.103	16.077	1150.000	867.427
248.117	16.186	1149.320	867.396
249.132	16.302	1148.484	867.282
250.147	16.318	1148.025	866.943
251.161	16.477	1147.175	867.041
252.176	16.487	1146.613	866.590
253.190	16.441	1146.384	866.102
254.205	16.500	1145.537	865.691
255.220	16.618	1144.792	865.651
256.234	16.507	1144.164	864.537
257.249	16.554	1143.185	863.956
258.263	16.560	1142.164	863.139
259.278	16.549	1142.060	862.928
260.293	16.559	1141.544	862.514
261.307	16.742	1140.813	862.816
262.322	16.659	1140.436	862.036
263.336	16.733	1139.322	861.492
264.351	16.747	1139.011	861.250
265.366	16.701	1138.187	860.319
266.380	16.774	1137.725	860.267
267.395	16.782	1136.860	859.573
268.409	16.677	1136.237	858.498
269.424	16.647	1135.632	857.809
270.439	16.594	1135.216	857.153
271.453	16.649	1134.231	856.609
272.468	16.477	1133.527	855.135
273.482	16.484	1132.965	854.667
274.497	16.635	1132.071	854.683
275.512	16.688	1131.497	854.440
276.526	16.660	1130.143	853.199
277.541	16.662	1129.802	852.878
278.555	16.592	1129.508	852.229
279.570	16.754	1128.384	852.117
280.585	16.818	1127.784	851.914
281.599	16.806	1126.802	851.036
282.614	16.720	1125.940	849.878
283.628	16.735	1124.637	848.895
284.643	16.720	1123.487	847.875
285.657	16.820	1122.921	847.874
286.672	16.753	1122.382	847.058
287.687	16.712	1121.482	846.101
288.701	16.761	1120.834	845.781
289.716	16.902	1119.570	845.455
290.730	16.833	1119.107	844.687
291.745	16.928	1118.120	844.338
292.760	16.849	1118.035	843.808
293.774	16.960	1117.083	843.567
294.789	16.898	1117.042	843.149
295.803	16.877	1116.419	842.503
296.818	17.059	1114.785	842.097
297.833	16.947	1114.183	841.016
298.847	16.914	1113.889	840.556
299.862	16.870	1113.116	839.680
300.876	16.964	1112.311	839.463
301.891	17.085	1111.823	839.618
302.906	17.070	1111.291	839.067
303.920	17.138	1110.483	838.717
304.935	17.232	1109.696	838.516
305.949	17.293	1109.114	838.299
306.964	17.243	1108.680	837.651
307.979	17.325	1107.359	836.981
308.993	17.249	1107.064	836.311
310.008	17.322	1106.275	836.001
311.022	17.386	1105.269	835.480
312.037	17.365	1104.371	834.624
313.052	17.186	1103.776	833.226
314.066	17.110	1102.695	831.963
315.081	17.044	1101.967	831.017
316.095	17.043	1101.216	830.369
317.110	17.099	1100.452	829.998
318.125	17.081	1099.833	829.366
319.139	17.175	1098.989	829.118
320.154	17.209	1098.453	828.806
321.168	17.191	1097.951	828.264
322.183	17.175	1097.375	827.681
323.197	17.113	1096.852	826.911
324.212	17.271	1096.190	827.103
325.227	17.314	1095.454	826.685
326.241	17.233	1094.812	825.735
327.256	17.167	1094.161	824.851
328.270	17.257	1092.845	824.219
329.285	17.182	1092.202	823.301
330.300	17.238	1091.292	822.813
331.314	17.184	1090.632	821.979
332.329	17.363	1089.498	821.920
333.343	17.215	1088.593	820.449
334.358	17.449	1087.777	820.892
335.373	17.456	1087.182	820.401
336.387	17.435	1086.495	819.709
337.402	17.421	1085.898	819.121
338.416	17.500	1085.132	818.848
339.431	17.534	1084.595	818.538
340.446	17.578	1084.427	818.545
341.460	17.549	1083.596	817.709
342.475	17.739	1082.158	817.462
343.489	17.823	1081.236	817.095
344.504	17.804	1080.668	816.504
345.519	17.740	1079.934	815.568
346.533	17.852	1079.131	815.426
347.548	17.850	1078.490	814.860
348.562	17.898	1077.570	814.322
349.577	17.778	1076.801	813.096
350.592	17.705	1076.036	812.100
351.606	17.651	1075.259	811.185
352.621	17.422	1075.096	809.901
353.635	17.604	1074.135	809.970
354.650	17.666	1073.233	809.510
355.665	17.587	1072.824	808.759
356.679	17.765	1071.892	808.829
357.694	17.772	1071.407	808.423
358.708	17.804	1070.718	807.981
359.723	17.671	1070.272	806.945
360.738	17.893	1069.342	807.224
361.752	17.946	1068.537	806.793
362.767	17.760	1068.364	805.712
363.781	17.791	1067.800	805.361
364.796	17.917	1067.208	805.440
365.810	18.135	1066.481	805.849
366.825	18.091	1066.145	805.313
367.840	18.142	1065.470	804.974
368.854	18.273	1064.885	805.075
369.869	18.256	1064.147	804.369
370.883	18.213	1063.151	803.340
371.898	18.092	1062.676	802.345
372.913	18.092	1062.257	801.955
373.927	18.247	1061.598	802.116
374.942	18.276	1061.205	801.881
375.956	18.214	1060.684	801.128
376.971	18.237	1059.974	800.630
377.986	18.184	1059.478	799.934
379.000	18.341	1058.839	800.116
380.015	18.307	1058.516	799.642
381.029	18.446	1057.665	799.577
382.044	18.355	1057.287	798.794
383.059	18.384	1056.515	798.279
384.073	18.427	1055.337	797.516
385.088	18.314	1054.777	796.495
386.102	18.399	1053.326	795.725
387.117	18.472	1052.443	795.327
388.132	18.245	1051.964	793.843
389.146	18.220	1051.067	792.978
390.161	18.215	1050.395	792.378
391.175	18.314	1049.201	791.867
392.190	18.291	1049.049	791.576
393.205	18.495	1048.366	791.931
394.219	18.565	1047.483	791.517
395.234	18.401	1046.549	789.983
396.248	18.298	1045.510	788.657
397.263	18.342	1044.604	788.106
398.278	18.325	1043.887	787.417
399.292	18.361	1043.210	787.002
400.307	18.382	1042.373	786.398
401.321	18.208	1041.865	785.145
402.336	18.297	1041.253	785.022
403.350	18.403	1040.456	784.838
404.365	18.309	1039.864	783.891
405.380	18.448	1039.042	783.839
406.394	18.467	1038.147	783.182
407.409	18.555	1037.592	783.097
408.423	18.566	1037.251	782.819
409.438	18.698	1036.484	782.771
410.453	18.769	1035.892	782.579
411.467	18.881	1034.754	782.161
412.482	18.764	1034.307	781.223
413.496	18.837	1033.921	781.195
414.511	18.875	1033.086	780.668
415.526	18.970	1032.745	780.769
416.540	18.811	1032.574	779.849
417.555	18.940	1031.961	779.901
418.569	18.895	1031.127	778.999
419.584	18.823	1030.653	778.248
420.599	18.903	1030.389	778.340
421.613	150.609	1400.620	1793.876
422.628	137.414	1454.543	1793.970
