DTS Sentinel unit serial number:	SN413079Multiplexer serial number:	ORYXHardware model number:	OX4-SRSoftware version number:	ORYX F/W v4.00 Oryx Data Collector v3.7.2.0data status	okinstallation	princeton_trtdifferential loss correction	single-endedforward channel	channel 2reverse channel	N/Adate	2019/09/14time	20:47:35forward acquisition time	60.00reverse acquisition time	0.00gamma	496.2192k internal	0.2323k external	0.2323temperature offset calibration	1.0079default loss term (dB/km)	0.3790temperature slope calibration	1.0000multiplexer offset coefficient	1.0000multiplexer slope coefficient	1.0000fibre end	0.00T internal ref (°C)	33.31T ext. ref 1 (°C)	4.81T ext. ref 2 (°C)	27.94length (m)	temperature (°C)	Stokes	anti-Stokes-747.200	-28.258	-0.127	-0.074
-746.185	-200.000	0.027	0.464
-745.171	-110.891	0.165	-0.034
-744.156	-92.336	-0.274	0.078
-743.142	102.495	-0.023	-0.027
-742.127	-200.000	-0.013	0.527
-741.112	339.460	-0.051	-0.101
-740.098	204.838	-0.138	0.216
-739.083	-200.000	0.015	0.079
-738.069	14.725	-0.320	0.252
-737.054	800.000	-0.046	-0.182
-736.039	148.067	-0.092	-0.126
-735.025	-126.422	0.423	0.064
-734.010	239.605	-0.030	-0.050
-732.996	800.000	0.032	-0.125
-731.981	131.881	-0.143	0.185
-730.966	-95.318	-0.576	0.156
-729.952	99.985	0.110	0.129
-728.937	505.073	-0.079	0.184
-727.923	800.000	-0.040	-0.131
-726.908	-183.970	0.644	0.011
-725.894	-72.024	-0.204	-0.077
-724.879	-117.668	-0.502	0.091
-723.864	-63.577	-0.182	-0.075
-722.850	-86.697	-0.197	0.061
-721.835	-200.000	0.001	-0.090
-720.821	212.187	0.029	-0.047
-719.806	85.699	0.116	0.129
-718.791	31.179	0.083	-0.072
-717.777	113.047	-0.090	-0.110
-716.762	-30.305	-0.056	0.032
-715.748	280.250	-0.140	0.252
-714.733	9.802	0.062	-0.048
-713.718	-200.000	-0.012	-0.076
-712.704	-134.721	0.023	0.003
-711.689	17.991	0.387	-0.311
-710.675	238.834	-0.007	0.011
-709.660	20.493	0.180	0.147
-708.645	194.055	0.143	-0.219
-707.631	-75.457	-0.111	-0.040
-706.616	-200.000	-0.053	-0.450
-705.602	-200.000	0.015	-0.202
-704.587	-200.000	0.029	-0.139
-703.572	28.839	0.266	0.228
-702.558	-14.959	0.434	-0.281
-701.543	-107.840	-0.210	-0.046
-700.529	-75.982	0.007	-0.002
-699.514	351.779	0.104	0.208
-698.499	-74.071	0.303	-0.111
-697.485	144.302	0.084	-0.114
-696.470	-97.984	0.196	0.051
-695.456	800.000	0.044	0.179
-694.441	-38.830	-0.188	-0.100
-693.426	3.598	0.173	0.127
-692.412	-200.000	0.418	0.001
-691.397	-30.884	-0.166	-0.095
-690.383	471.582	-0.072	-0.163
-689.368	-200.000	-0.031	-0.152
-688.354	74.933	-0.410	-0.436
-687.339	800.000	0.048	-0.206
-686.324	-200.000	-0.016	0.456
-685.310	-200.000	-0.024	-0.293
-684.295	800.000	-0.073	-0.232
-683.281	-200.000	0.036	-0.167
-682.266	800.000	0.026	-0.089
-681.251	-172.996	-0.106	0.003
-680.237	138.719	0.131	-0.173
-679.222	88.123	-0.089	-0.099
-678.208	-74.515	-0.453	-0.164
-677.193	30.808	-0.171	-0.148
-676.178	338.783	0.033	-0.064
-675.164	-70.519	0.224	-0.085
-674.149	-200.000	-0.000	-0.314
-673.135	71.692	-0.178	0.186
-672.120	-148.487	0.170	-0.014
-671.105	541.115	0.091	-0.219
-670.091	-200.000	0.032	-0.279
-669.076	225.751	-0.238	0.389
-668.062	-142.571	0.315	0.031
-667.047	-104.493	0.173	0.040
-666.032	800.000	-0.082	-0.249
-665.018	61.988	0.105	0.105
-664.003	800.000	-0.179	0.524
-662.989	-126.836	0.068	-0.010
-661.974	124.685	-0.250	-0.317
-660.959	-45.424	-0.234	0.117
-659.945	119.282	0.189	0.235
-658.930	-200.000	0.002	0.085
-657.916	-200.000	0.015	0.072
-656.901	-146.783	0.356	-0.031
-655.886	-200.000	0.125	0.000
-654.872	-116.009	-0.128	0.024
-653.857	-158.799	-0.207	-0.012
-652.843	-153.883	0.113	0.008
-651.828	42.628	-0.013	0.012
-650.814	-13.499	-0.215	0.140
-649.799	-200.000	-0.076	-0.380
-648.784	800.000	0.096	-0.415
-647.770	243.602	0.092	0.156
-646.755	333.126	-0.102	-0.198
-645.741	-83.638	0.304	-0.098
-644.726	16.331	-0.312	0.248
-643.711	-147.408	-0.149	0.013
-642.697	800.000	0.070	0.230
-641.682	112.882	-0.235	0.287
-640.668	-26.147	0.161	-0.095
-639.653	313.423	0.163	0.308
-638.638	-200.000	0.062	0.345
-637.624	-4.246	-0.053	0.037
-636.609	-116.308	-0.215	0.040
-635.595	-73.800	-0.050	-0.018
-634.580	348.531	-0.066	0.131
-633.565	-147.747	-0.100	0.008
-632.551	-200.000	0.036	-0.220
-631.536	-43.245	-0.096	-0.049
-630.522	-86.627	0.054	-0.017
-629.507	94.026	0.081	0.092
-628.492	-62.697	0.197	-0.082
-627.478	311.285	-0.041	0.077
-626.463	285.758	-0.154	-0.279
-625.449	26.458	-0.145	-0.122
-624.434	-92.825	0.215	-0.060
-623.419	-140.152	-0.094	0.010
-622.405	-0.234	-0.151	0.108
-621.390	101.380	0.021	0.024
-620.376	175.959	-0.149	-0.217
-619.361	38.572	-0.082	0.074
-618.346	800.000	-0.067	-0.238
-617.332	-200.000	0.015	-0.259
-616.317	-200.000	-0.031	0.136
-615.303	163.803	0.061	0.086
-614.288	95.314	-0.178	-0.204
-613.273	-200.000	0.287	0.001
-612.259	344.507	0.014	-0.028
-611.244	150.271	-0.142	0.193
-610.230	83.963	-0.208	-0.228
-609.215	156.376	0.111	0.155
-608.201	-39.149	-0.230	-0.121
-607.186	-148.950	0.162	-0.013
-606.171	42.048	-0.124	0.113
-605.157	320.565	0.049	-0.094
-604.142	356.036	0.124	-0.249
-603.128	-200.000	-0.008	-0.106
-602.113	515.155	-0.078	0.183
-601.098	-200.000	0.019	0.166
-600.084	2.504	0.311	0.226
-599.069	-114.817	0.082	-0.016
-598.055	-200.000	0.021	0.094
-597.040	273.546	-0.166	0.295
-596.025	233.624	0.077	-0.127
-595.011	126.427	0.237	-0.302
-593.996	-48.643	0.057	-0.027
-592.982	800.000	-0.065	-0.213
-591.967	-200.000	-0.024	-0.183
-590.952	-200.000	0.030	-0.160
-589.938	-113.241	-0.178	0.035
-588.923	-49.699	-0.169	-0.081
-587.909	-69.807	0.101	-0.039
-586.894	56.976	0.203	-0.198
-585.879	313.026	0.103	-0.194
-584.865	133.892	-0.099	0.129
-583.850	59.940	-0.086	0.086
-582.836	-200.000	-0.036	-0.314
-581.821	-121.747	0.056	0.009
-580.806	230.828	0.175	-0.288
-579.792	-122.138	-0.230	0.038
-578.777	-79.216	-0.309	-0.105
-577.763	-200.000	-0.073	0.368
-576.748	-169.578	-0.210	0.008
-575.733	524.618	0.049	0.116
-574.719	216.646	0.140	-0.224
-573.704	100.495	-0.150	-0.175
-572.690	266.025	-0.047	-0.082
-571.675	-123.197	0.291	0.047
-570.661	403.392	-0.129	0.272
-569.646	94.383	0.191	0.218
-568.631	-200.000	-0.044	-0.295
-567.617	158.704	0.074	0.103
-566.602	800.000	0.095	-0.268
-565.588	270.804	0.052	0.093
-564.573	-126.268	-0.348	0.052
-563.558	800.000	-0.079	0.236
-562.544	-7.490	0.141	-0.095
-561.529	-38.242	0.334	-0.177
-560.515	-107.431	0.167	-0.037
-559.500	660.012	-0.188	-0.484
-558.485	-78.422	-0.124	-0.043
-557.471	265.758	-0.146	0.255
-556.456	-200.000	0.009	-0.178
-555.442	800.000	0.104	0.330
-554.427	31.957	-0.091	0.079
-553.412	136.437	-0.133	0.174
-552.398	-118.646	-0.103	-0.018
-551.383	194.448	-0.187	-0.285
-550.369	-66.405	-0.355	0.141
-549.354	-200.000	0.072	0.321
-548.339	-121.814	-0.209	0.034
-547.325	-125.986	0.163	0.025
-546.310	-200.000	-0.028	-0.207
-545.296	205.149	-0.080	0.125
-544.281	467.188	0.080	-0.181
-543.266	207.614	0.055	0.086
-542.252	-200.000	-0.057	-0.257
-541.237	121.330	-0.054	-0.067
-540.223	-76.530	-0.205	-0.072
-539.208	800.000	-0.046	-0.141
-538.193	11.190	-0.134	0.103
-537.179	58.966	0.054	0.054
-536.164	-140.236	0.047	-0.005
-535.150	-200.000	-0.005	0.031
-534.135	800.000	-0.072	-0.230
-533.121	-73.172	0.074	0.027
-532.106	-33.713	0.215	0.119
-531.091	-6.830	-0.249	-0.170
-530.077	-113.673	-0.217	-0.042
-529.062	-74.813	-0.148	-0.053
-528.048	155.158	-0.067	0.093
-527.033	-200.000	-0.013	0.143
-526.018	-65.051	-0.129	-0.052
-525.004	13.540	0.379	-0.294
-523.989	-132.680	0.081	0.010
-522.975	-129.421	-0.415	-0.058
-521.960	-86.623	0.095	0.029
-520.945	449.474	-0.024	0.053
-519.931	-30.173	0.133	0.076
-518.916	-120.639	-0.349	0.059
-517.902	-200.000	0.003	-0.128
-516.887	168.713	0.154	0.219
-515.872	-35.795	0.289	0.157
-514.858	-80.281	0.392	0.131
-513.843	700.074	0.024	-0.064
-512.829	149.613	-0.151	-0.205
-511.814	-9.270	-0.020	-0.013
-510.799	-147.549	-0.198	-0.017
-509.785	203.395	-0.147	0.227
-508.770	-81.169	-0.044	0.014
-507.756	-141.235	-0.155	0.016
-506.741	-62.606	0.097	-0.040
-505.726	206.565	0.068	0.106
-504.712	-37.060	0.161	0.086
-503.697	668.369	0.106	-0.274
-502.683	-101.564	-0.183	-0.044
-501.668	162.903	0.162	0.227
-500.653	180.988	-0.251	-0.369
-499.639	-141.512	0.303	0.031
-498.624	-66.861	0.051	0.020
-497.610	800.000	-0.040	0.123
-496.595	-10.379	0.321	-0.213
-495.581	-49.231	0.296	-0.141
-494.566	-32.438	-0.107	0.060
-493.551	87.416	-0.205	0.227
-492.537	316.893	0.139	0.263
-491.522	143.192	0.277	0.368
-490.508	-43.207	0.263	-0.133
-489.493	-200.000	-0.074	-0.463
-488.478	405.585	-0.087	-0.183
-487.464	727.611	-0.103	0.274
-486.449	-149.167	-0.345	0.028
-485.435	-49.216	0.154	-0.074
-484.420	-101.694	-0.166	-0.040
-483.405	-200.000	0.036	-0.202
-482.391	721.986	0.071	-0.188
-481.376	-26.226	-0.228	-0.134
-480.362	800.000	-0.113	-0.322
-479.347	-114.428	-0.057	0.011
-478.332	299.451	0.085	0.157
-477.318	-100.401	0.298	0.074
-476.303	-200.000	-0.056	-0.301
-475.289	-137.441	0.215	0.024
-474.274	-17.541	-0.213	0.134
-473.259	-55.832	0.090	-0.040
-472.245	-115.692	-0.162	-0.030
-471.230	-77.515	-0.135	-0.047
-470.216	-119.636	0.340	0.059
-469.201	-200.000	0.006	-0.147
-468.186	27.644	0.132	0.111
-467.172	6.207	-0.260	0.193
-466.157	800.000	-0.076	0.282
-465.143	-200.000	-0.057	-0.341
-464.128	-200.000	-0.002	-0.165
-463.113	-200.000	0.058	0.377
-462.099	-200.000	0.116	0.565
-461.084	-114.629	0.191	-0.037
-460.070	-102.615	0.098	0.023
-459.055	-200.000	-0.022	0.341
-458.040	-200.000	-0.011	0.187
-457.026	-70.389	-0.549	0.208
-456.011	187.475	0.223	0.332
-454.997	46.337	0.113	0.104
-453.982	-60.053	-0.220	-0.094
-452.968	-53.648	-0.320	-0.146
-451.953	-116.169	-0.181	-0.034
-450.938	-74.478	-0.200	-0.072
-449.924	-88.971	0.231	-0.068
-448.909	-126.543	-0.272	-0.040
-447.895	-129.187	-0.263	0.037
-446.880	-54.015	0.075	-0.034
-445.865	-63.411	0.140	-0.057
-444.851	314.596	-0.099	0.185
-443.836	-72.772	-0.134	0.049
-442.822	-11.398	-0.190	0.125
-441.807	258.949	-0.230	0.397
-440.792	108.605	0.202	-0.241
-439.778	192.478	0.093	-0.140
-438.763	-81.153	-0.143	-0.047
-437.749	-91.859	0.176	0.050
-436.734	-140.699	0.136	0.014
-435.719	-71.314	-0.112	0.042
-434.705	14.218	-0.070	-0.054
-433.690	-60.290	-0.107	0.046
-432.676	216.654	-0.180	0.285
-431.661	164.824	0.236	-0.333
-430.646	166.498	0.091	-0.129
-429.632	-200.000	-0.019	-0.130
-428.617	-28.079	0.081	0.047
-427.603	88.158	0.105	0.116
-426.588	136.481	-0.169	0.220
-425.573	-45.852	-0.116	0.057
-424.559	-200.000	-0.070	0.331
-423.544	397.796	0.098	0.204
-422.530	-41.740	-0.338	-0.173
-421.515	392.195	-0.077	-0.160
-420.500	102.408	-0.095	0.111
-419.486	800.000	0.062	-0.262
-418.471	5.520	0.230	0.169
-417.457	-11.962	-0.158	0.103
-416.442	-35.178	-0.260	-0.141
-415.428	-200.000	-0.011	-0.129
-414.413	800.000	-0.030	0.087
-413.398	-142.297	0.149	-0.015
-412.384	-60.700	-0.438	-0.185
-411.369	-71.443	-0.343	-0.128
-410.355	348.837	0.011	-0.022
-409.340	681.979	-0.102	0.265
-408.325	-35.959	-0.348	-0.187
-407.311	271.261	0.096	0.168
-406.296	43.865	-0.212	0.194
-405.282	800.000	-0.084	0.322
-404.267	11.967	0.278	0.213
-403.252	-200.000	-0.026	-0.127
-402.238	483.559	0.048	-0.108
-401.223	133.496	-0.247	0.318
-400.209	-200.000	0.038	-0.305
-399.194	66.466	-0.184	0.186
-398.179	-200.000	-0.023	-0.143
-397.165	139.881	-0.000	0.001
-396.150	-137.415	0.374	0.042
-395.136	-82.576	0.138	-0.044
-394.121	482.258	0.115	-0.259
-393.106	-63.441	0.201	0.082
-392.092	-200.000	0.007	0.137
-391.077	800.000	0.072	-0.205
-390.063	-12.911	0.252	0.163
-389.048	-131.260	0.190	-0.025
-388.033	-142.895	-0.200	-0.019
-387.019	10.330	0.205	-0.155
-386.004	-77.536	-0.317	0.109
-384.990	519.752	-0.071	0.167
-383.975	-56.204	0.332	0.147
-382.960	-184.942	0.138	-0.002
-381.946	-200.000	-0.001	-0.083
-380.931	-24.453	-0.085	0.051
-379.917	-32.909	-0.045	0.025
-378.902	510.799	0.030	-0.069
-377.888	-40.137	0.216	0.112
-376.873	800.000	-0.077	0.285
-375.858	-45.723	-0.151	0.074
-374.844	-200.000	0.035	0.277
-373.829	-126.632	0.389	-0.057
-372.815	-200.000	-0.027	0.187
-371.800	2.825	-0.141	0.102
-370.785	-200.000	0.067	0.321
-369.771	348.088	0.173	0.340
-368.756	-173.832	-0.285	-0.008
-367.742	-55.855	0.097	0.043
-366.727	-146.477	-0.263	-0.023
-365.712	252.884	0.217	-0.369
-364.698	711.164	-0.073	-0.192
-363.683	-200.000	0.205	0.001
-362.669	156.956	0.100	-0.137
-361.654	800.000	0.049	-0.193
-360.639	-31.202	-0.253	-0.142
-359.625	159.708	-0.046	0.064
-358.610	-200.000	-0.014	-0.116
-357.596	7.023	-0.272	0.202
-356.581	27.910	0.095	0.080
-355.566	-200.000	-0.014	-0.073
-354.552	-189.458	0.175	-0.002
-353.537	461.463	-0.161	-0.358
-352.523	455.355	0.138	0.305
-351.508	472.391	-0.058	-0.129
-350.493	147.185	0.156	0.209
-349.479	800.000	-0.102	-0.306
-348.464	-147.788	-0.141	0.012
-347.450	141.099	0.144	-0.189
-346.435	-121.678	0.226	-0.037
-345.420	-4.133	0.246	-0.169
-344.406	-200.000	0.129	0.580
-343.391	-89.003	0.097	-0.029
-342.377	182.731	0.120	0.176
-341.362	-105.985	0.429	-0.096
-340.348	-75.661	0.173	-0.061
-339.333	50.937	0.162	0.153
-338.318	83.311	-0.205	-0.222
-337.304	-18.320	0.128	-0.079
-336.289	-106.127	0.058	-0.013
-335.275	53.651	0.234	-0.224
-334.260	-92.705	0.183	-0.051
-333.245	-200.000	0.034	0.221
-332.231	800.000	-0.016	0.065
-331.216	-33.211	0.102	0.056
-330.202	182.832	-0.253	-0.371
-329.187	-200.000	0.004	-0.153
-328.172	-156.174	0.136	0.009
-327.158	800.000	-0.071	0.215
-326.143	-90.901	0.154	-0.044
-325.129	-200.000	0.046	0.305
-324.114	-62.063	-0.065	-0.027
-323.099	12.856	-0.409	0.314
-322.085	800.000	0.065	0.250
-321.070	-81.598	-0.422	0.138
-320.056	-186.690	0.208	-0.003
-319.041	-43.368	0.079	0.040
-318.026	-81.453	-0.143	0.047
-317.012	-200.000	0.070	-0.355
-315.997	94.605	0.051	-0.057
-314.983	-120.653	0.250	-0.042
-313.968	469.177	0.081	0.181
-312.953	-200.000	0.012	0.244
-311.939	43.679	-0.180	0.164
-310.924	31.541	-0.221	0.188
-309.910	219.529	-0.107	0.170
-308.895	176.265	0.102	0.147
-307.880	-5.938	-0.294	-0.200
-306.866	229.777	-0.046	-0.074
-305.851	364.478	0.051	-0.101
-304.837	-200.000	-0.011	0.127
-303.822	455.206	0.111	0.245
-302.807	-41.817	-0.150	-0.076
-301.793	-200.000	0.004	0.159
-300.778	-126.077	0.179	-0.027
-299.764	-200.000	0.028	-0.176
-298.749	-200.000	-0.016	0.172
-297.735	145.581	0.334	-0.444
-296.720	-94.976	-0.338	0.091
-295.705	-200.000	-0.011	-0.088
-294.691	696.140	-0.023	0.060
-293.676	304.054	0.088	0.163
-292.662	40.854	0.181	-0.162
-291.647	-155.591	-0.327	-0.021
-290.632	62.691	0.105	-0.104
-289.618	270.227	0.075	-0.131
-288.603	-146.312	-0.197	0.017
-287.589	535.438	0.069	-0.162
-286.574	170.814	0.183	-0.260
-285.559	740.447	0.076	0.202
-284.545	-200.000	-0.008	0.267
-283.530	-20.051	-0.231	0.141
-282.516	338.676	-0.019	-0.037
-281.501	797.163	-0.142	-0.387
-280.486	319.813	-0.140	-0.263
-279.472	206.131	0.148	-0.228
-278.457	-22.652	-0.290	0.174
-277.443	103.124	-0.080	-0.093
-276.428	-153.677	0.324	-0.022
-275.413	-145.463	0.297	0.026
-274.399	800.000	0.064	-0.198
-273.384	-200.000	0.057	-0.309
-272.370	-21.406	0.205	-0.124
-271.355	-87.249	-0.227	-0.068
-270.340	-47.104	-0.349	0.169
-269.326	-28.587	0.221	-0.126
-268.311	-37.433	0.019	0.010
-267.297	197.174	0.170	0.257
-266.282	-200.000	0.026	-0.276
-265.267	495.671	0.095	0.217
-264.253	-87.895	-0.109	0.032
-263.238	104.903	0.056	0.065
-262.224	-200.000	-0.040	-0.233
-261.209	53.025	0.125	0.119
-260.195	-200.000	0.009	0.112
-259.180	254.714	-0.128	-0.217
-258.165	172.670	0.119	-0.170
-257.151	390.328	0.072	0.148
-256.136	-34.359	-0.200	0.108
-255.122	-148.205	-0.142	0.012
-254.107	-43.074	0.249	-0.125
-253.092	-94.100	0.188	-0.051
-252.078	322.743	-0.172	-0.324
-251.063	15.095	-0.155	-0.121
-250.049	-145.060	0.055	0.005
-249.034	24.740	-0.065	-0.053
-248.019	59.380	0.157	0.153
-247.005	15.325	0.250	-0.194
-245.990	-200.000	-0.024	-0.250
-244.976	202.452	-0.056	0.085
-243.961	280.331	0.157	-0.278
-242.946	14.780	-0.250	-0.193
-241.932	131.847	-0.148	0.189
-240.917	800.000	0.066	-0.252
-239.903	152.188	-0.142	0.191
-238.888	-200.000	0.035	0.322
-237.873	-56.465	-0.055	-0.024
-236.859	-96.930	0.134	-0.035
-235.844	229.336	0.077	-0.124
-234.830	256.829	0.168	0.285
-233.815	-200.000	0.038	0.307
-232.800	585.969	-0.011	0.027
-231.786	136.307	-0.100	0.129
-230.771	-147.466	0.153	0.013
-229.757	-41.842	0.042	0.021
-228.742	-68.553	0.207	-0.079
-227.727	329.533	0.219	0.418
-226.713	-188.335	-0.067	-0.001
-225.698	-103.947	-0.153	-0.035
-224.684	-200.000	0.045	-0.216
-223.669	-56.527	0.026	0.012
-222.655	201.818	0.143	-0.219
-221.640	-161.306	-0.333	-0.017
-220.625	-37.898	-0.157	-0.082
-219.611	-120.244	0.168	-0.028
-218.596	-14.757	0.228	-0.145
-217.582	504.183	0.052	-0.120
-216.567	562.416	-0.107	0.256
-215.552	-200.000	0.008	-0.055
-214.538	-200.000	-0.036	-0.255
-213.523	-200.000	0.004	-0.130
-212.509	51.083	0.122	-0.115
-211.494	-200.000	-0.001	0.252
-210.479	-120.149	-0.261	-0.044
-209.465	800.000	0.069	-0.233
-208.450	-200.000	-0.011	0.085
-207.436	-80.146	-0.249	-0.082
-206.421	657.579	0.101	0.256
-205.406	-41.072	0.219	-0.112
-204.392	100.217	-0.207	0.237
-203.377	-115.565	0.262	0.049
-202.363	-29.552	0.217	-0.123
-201.348	800.000	0.052	0.209
-200.333	-81.812	-0.327	-0.106
-199.319	70.539	0.103	0.106
-198.304	87.716	-0.231	-0.253
-197.290	73.519	0.195	-0.202
-196.275	-200.000	-0.259	-0.001
-195.260	-10.615	-0.113	0.074
-194.246	800.000	0.059	0.177
-193.231	-108.384	0.219	-0.047
-192.217	31.205	0.191	0.162
-191.202	186.837	-0.145	-0.214
-190.187	102.494	-0.177	-0.205
-189.173	794.840	0.108	-0.293
-188.158	-200.000	0.016	0.081
-187.144	-3.983	0.151	0.104
-186.129	-200.000	-0.030	-0.190
-185.114	-46.406	0.084	0.041
-184.100	186.508	0.127	0.186
-183.085	-142.774	-0.018	-0.002
-182.071	129.858	0.257	-0.325
-181.056	-94.819	0.152	-0.041
-180.042	-200.000	0.042	-0.208
-179.027	94.332	0.084	0.094
-178.012	-200.000	-0.045	0.414
-176.998	34.087	-0.234	0.201
-175.983	91.382	0.128	0.142
-174.969	-200.000	0.021	0.244
-173.954	372.120	0.156	-0.313
-172.939	-99.783	0.431	0.107
-171.925	65.234	0.147	0.147
-170.910	-9.956	-0.042	0.027
-169.896	-112.367	-0.138	-0.027
-168.881	-92.327	0.214	0.059
-167.866	-65.800	-0.224	0.089
-166.852	-200.000	0.086	-0.384
-165.837	2.421	0.260	-0.186
-164.823	-107.332	-0.329	-0.071
-163.808	680.565	-0.012	0.030
-162.793	-200.000	0.062	0.334
-161.779	800.000	0.020	0.083
-160.764	-200.000	-0.004	0.166
-159.750	-200.000	-0.012	-0.336
-158.735	800.000	0.036	0.099
-157.720	330.224	0.044	-0.084
-156.706	92.843	-0.143	0.159
-155.691	-7.660	-0.038	-0.025
-154.677	-200.000	0.005	0.461
-153.662	669.346	0.124	-0.316
-152.647	192.678	0.205	0.305
-151.633	5.286	-0.280	0.204
-150.618	-89.082	0.190	-0.056
-149.604	-179.345	-0.043	0.001
-148.589	-93.712	-0.156	-0.042
-147.574	-136.896	0.138	0.016
-146.560	-118.467	0.469	0.082
-145.545	4.830	-0.154	0.112
-144.531	763.805	-0.012	0.033
-143.516	125.552	-0.056	0.070
-142.502	800.000	0.037	0.106
-141.487	-200.000	0.065	0.421
-140.472	-45.034	-0.117	-0.058
-139.458	-13.119	-0.270	0.173
-138.443	-68.483	0.465	0.178
-137.429	800.000	-0.053	-0.162
-136.414	-114.817	-0.131	-0.025
-135.399	-200.000	0.016	-0.118
-134.385	-200.000	0.000	-0.045
-133.370	368.671	0.047	-0.094
-132.356	-102.199	-0.172	-0.041
-131.341	800.000	-0.063	0.230
-130.326	162.473	-0.268	0.370
-129.312	-31.854	0.070	-0.039
-128.297	-200.000	-0.011	0.086
-127.283	260.752	0.100	0.170
-126.268	-200.000	-0.009	0.074
-125.253	32.331	0.214	-0.182
-124.239	582.376	0.185	-0.449
-123.224	134.870	0.121	-0.154
-122.210	-44.389	-0.085	-0.042
-121.195	-200.000	-0.023	-0.238
-120.180	-200.000	-0.012	-0.341
-119.166	800.000	-0.060	-0.198
-118.151	-200.000	0.015	-0.322
-117.137	-43.211	0.176	-0.088
-116.122	-15.930	0.060	0.038
-115.107	369.534	0.084	-0.167
-114.093	36.496	0.278	0.242
-113.078	22.087	0.085	0.068
-112.064	-28.362	0.193	-0.110
-111.049	-200.000	0.055	0.267
-110.034	800.000	-0.034	0.108
-109.020	-102.334	0.315	-0.075
-108.005	-200.000	-0.016	-0.166
-106.991	-35.288	0.270	0.145
-105.976	587.587	-0.145	-0.351
-104.962	39.896	-0.160	-0.142
-103.947	573.974	0.068	0.164
-102.932	-35.784	-0.155	-0.083
-101.918	360.419	0.087	-0.172
-100.903	800.000	0.037	-0.126
-99.889	116.680	-0.244	-0.294
-98.874	-91.684	0.269	0.075
-97.859	-200.000	0.009	0.116
-96.845	236.160	0.144	-0.235
-95.830	-111.075	0.363	0.073
-94.816	464.777	-0.064	0.142
-93.801	-69.688	0.254	0.096
-92.786	-200.000	-0.003	-0.085
-91.772	-88.987	-0.045	-0.013
-90.757	-151.458	-0.084	0.006
-89.743	141.377	-0.087	-0.114
-88.728	-99.289	-0.089	-0.022
-87.713	-97.593	-0.283	0.072
-86.699	148.206	-0.206	0.274
-85.684	-103.063	0.193	0.045
-84.670	-69.686	-0.270	0.101
-83.655	82.838	-0.153	-0.164
-82.640	152.276	0.120	-0.161
-81.626	800.000	0.082	-0.282
-80.611	209.635	-0.229	-0.353
-79.597	-159.980	0.195	0.010
-78.582	-105.377	-0.373	0.084
-77.567	-141.742	0.264	0.026
-76.553	-28.436	0.181	-0.103
-75.538	-122.816	0.150	0.024
-74.524	70.974	-0.252	0.257
-73.509	-200.000	0.026	0.117
-72.494	275.282	0.161	0.280
-71.480	86.839	-0.086	-0.094
-70.465	281.212	-0.102	-0.179
-69.451	-200.000	0.023	0.191
-68.436	306.386	-0.042	0.077
-67.422	-63.996	0.234	-0.094
-66.407	-82.354	-0.225	0.072
-65.392	-57.699	-0.258	-0.111
-64.378	-200.000	0.027	-0.235
-63.363	35.923	-0.091	-0.079
-62.349	-156.420	0.178	-0.011
-61.334	3.954	-0.860	-0.618
-60.319	85.178	0.351	0.379
-59.305	-200.000	-0.007	-0.914
-58.290	10.169	0.732	0.548
-57.276	493.817	0.842	1.899
-56.261	-200.000	95.222	562.343
-55.246	631.635	1380.719	3437.186
-54.232	195.632	2569.345	3840.376
-53.217	112.491	2275.491	2707.068
-52.203	42.561	1898.328	1698.240
-51.188	36.723	1687.778	1465.770
-50.173	33.881	1643.952	1406.640
-49.159	51.521	1689.696	1578.420
-48.144	53.235	1706.564	1606.959
-47.130	36.177	1666.865	1443.292
-46.115	33.373	1652.445	1409.901
-45.100	33.205	1647.192	1404.122
-44.086	33.236	1644.885	1402.329
-43.071	33.217	1641.973	1399.644
-42.057	33.125	1639.798	1397.061
-41.042	33.263	1637.276	1395.875
-40.027	33.183	1635.801	1393.973
-39.013	33.219	1633.429	1392.158
-37.998	33.038	1632.469	1389.955
-36.984	33.185	1630.741	1389.505
-35.969	33.350	1629.349	1389.478
-34.954	33.381	1627.367	1387.956
-33.940	33.365	1625.543	1386.230
-32.925	33.246	1624.591	1384.496
-31.911	33.251	1622.811	1382.955
-30.896	33.290	1620.737	1381.421
-29.881	33.319	1619.026	1380.118
-28.867	33.394	1617.111	1378.978
-27.852	33.312	1615.775	1377.189
-26.838	33.329	1614.264	1375.965
-25.823	33.292	1613.481	1374.976
-24.809	33.361	1611.492	1373.726
-23.794	33.349	1610.323	1372.587
-22.779	33.289	1609.146	1371.101
-21.765	33.401	1606.869	1369.916
-20.750	33.316	1605.598	1368.163
-19.736	33.296	1604.276	1366.836
-18.721	33.477	1602.166	1366.287
-17.706	33.268	1601.322	1364.012
-16.692	33.360	1599.768	1363.292
-15.677	33.276	1598.342	1361.421
-14.663	33.400	1596.719	1360.875
-13.648	33.361	1595.478	1359.485
-12.633	33.374	1593.835	1358.119
-11.619	33.310	1592.559	1356.522
-10.604	33.315	1591.096	1355.260
-9.590	33.327	1589.929	1354.294
-8.575	33.349	1588.498	1353.185
-7.560	33.395	1586.885	1352.084
-6.546	33.308	1586.071	1350.717
-5.531	33.362	1584.812	1349.971
-4.517	33.307	1583.695	1348.573
-3.502	33.370	1582.369	1347.846
-2.487	33.350	1581.109	1346.573
-1.473	33.108	1569.089	1334.577
-0.458	30.189	1549.956	1297.854
0.556	26.745	1549.313	1265.027
1.571	24.162	1572.681	1265.668
2.586	23.578	1585.321	1271.549
3.600	20.902	1532.117	1210.208
4.615	12.719	1423.824	1071.532
5.629	5.843	1359.959	980.522
6.644	4.886	1352.052	968.787
7.659	4.756	1350.801	966.998
8.673	4.781	1349.253	965.959
9.688	4.816	1347.856	965.092
10.702	4.674	1345.081	962.142
11.717	7.712	1351.027	985.156
12.731	15.251	1364.852	1042.185
13.746	19.986	1372.196	1077.231
14.761	19.733	1369.674	1073.583
15.775	18.623	1367.135	1064.613
16.790	17.684	1364.563	1056.700
17.804	16.843	1361.997	1049.416
18.819	16.367	1361.072	1045.661
19.834	16.223	1359.744	1043.658
20.848	15.843	1358.629	1040.363
21.863	15.640	1357.242	1037.954
22.877	15.597	1356.260	1036.849
23.892	15.531	1355.277	1035.598
24.907	15.511	1354.577	1034.849
25.921	15.518	1353.984	1034.344
26.936	15.586	1352.546	1033.571
27.950	15.607	1351.625	1032.908
28.965	15.641	1351.098	1032.622
29.980	15.834	1349.483	1032.478
30.994	15.948	1348.560	1032.381
32.009	15.973	1347.323	1031.497
33.023	15.854	1345.728	1029.458
34.038	15.766	1344.945	1028.225
35.053	15.717	1343.764	1026.935
36.067	15.705	1342.554	1025.846
37.082	15.763	1341.467	1025.281
38.096	15.684	1341.182	1024.488
39.111	15.832	1339.958	1024.366
40.126	15.698	1339.410	1023.040
41.140	15.505	1338.368	1020.981
42.155	15.501	1337.034	1019.850
43.169	15.364	1337.994	1019.656
44.184	15.437	1337.340	1019.509
45.199	15.467	1336.564	1019.012
46.213	15.560	1336.152	1019.169
47.228	15.630	1335.222	1018.796
48.242	15.736	1333.799	1018.262
49.257	15.719	1332.746	1017.267
50.271	15.632	1330.891	1015.236
51.286	15.638	1330.078	1014.563
52.301	15.663	1328.826	1013.668
53.315	15.627	1327.456	1012.316
54.330	15.504	1326.800	1010.982
55.344	15.526	1325.407	1009.967
56.359	15.519	1324.242	1008.946
57.374	15.540	1323.776	1008.629
58.388	15.395	1322.908	1007.009
59.403	15.370	1322.316	1006.320
60.417	15.281	1321.631	1005.174
61.432	15.261	1321.056	1004.529
62.447	15.359	1319.698	1003.991
63.461	15.326	1318.356	1002.684
64.476	15.234	1317.294	1001.239
65.490	15.251	1316.453	1000.616
66.505	15.206	1315.106	999.233
67.520	15.408	1313.041	998.775
68.534	15.388	1312.163	997.901
69.549	15.289	1311.673	996.852
70.563	15.305	1310.563	996.014
71.578	15.252	1309.516	994.817
72.593	15.217	1308.087	993.437
73.607	15.241	1307.658	993.165
74.622	15.157	1306.756	991.897
75.636	15.296	1306.027	992.079
76.651	15.178	1305.685	991.029
77.666	15.267	1305.129	991.047
78.680	15.246	1304.723	990.530
79.695	15.302	1303.677	989.975
80.709	15.384	1303.208	990.014
81.724	15.363	1302.281	989.099
82.739	15.391	1301.891	988.882
83.753	15.583	1300.344	988.747
84.768	15.571	1300.160	988.451
85.782	15.771	1298.707	988.434
86.797	15.650	1297.638	986.823
87.812	15.618	1296.335	985.558
88.826	15.555	1295.250	984.277
89.841	15.601	1294.196	983.658
90.855	15.689	1293.122	983.271
91.870	15.764	1292.146	982.876
92.884	15.742	1291.574	982.227
93.899	15.750	1290.617	981.459
94.914	15.866	1290.111	981.664
95.928	15.733	1289.189	980.102
96.943	15.748	1288.508	979.583
97.957	15.687	1287.394	978.294
98.972	15.663	1285.812	976.869
99.987	15.736	1285.026	976.607
101.001	15.741	1284.221	975.941
102.016	15.667	1282.773	974.324
103.030	15.801	1282.312	974.663
104.045	15.695	1281.643	973.454
105.060	15.587	1280.177	971.629
106.074	15.492	1278.844	969.986
107.089	15.497	1276.869	968.430
108.103	15.390	1275.706	966.841
109.118	15.399	1274.664	966.021
110.133	15.323	1273.834	964.870
111.147	15.493	1272.114	964.458
112.162	15.466	1271.368	963.650
113.176	15.440	1269.894	962.297
114.191	15.484	1269.030	961.814
115.206	15.539	1267.414	960.819
116.220	15.482	1266.195	959.484
117.235	15.445	1265.381	958.568
118.249	15.523	1264.354	958.149
119.264	15.467	1262.925	956.664
120.279	15.497	1261.979	956.034
121.293	15.249	1261.175	953.929
122.308	15.407	1259.748	953.666
123.322	15.282	1259.172	952.431
124.337	15.256	1258.239	951.495
125.352	15.247	1256.939	950.378
126.366	15.330	1255.412	949.606
127.381	15.375	1254.645	949.201
128.395	15.329	1253.829	948.240
129.410	15.307	1253.199	947.556
130.424	15.436	1252.399	947.591
131.439	15.476	1250.768	946.499
132.454	15.418	1250.037	945.536
133.468	15.515	1249.616	945.682
134.483	15.568	1248.509	945.057
135.497	15.442	1247.803	943.733
136.512	15.478	1246.255	942.680
137.527	15.514	1245.024	941.868
138.541	15.547	1243.433	940.763
139.556	15.591	1242.615	940.308
140.570	15.613	1241.561	939.553
141.585	15.661	1240.369	938.834
142.600	15.715	1239.386	938.305
143.614	15.747	1238.735	937.910
144.629	15.939	1237.394	937.883
145.643	15.776	1236.615	936.299
146.658	15.716	1234.811	934.516
147.673	15.684	1233.830	933.516
148.687	15.625	1232.470	932.080
149.702	15.563	1231.075	930.598
150.716	15.604	1229.635	929.652
151.731	15.567	1228.782	928.719
152.746	15.577	1227.666	927.853
153.760	15.570	1226.865	927.127
154.775	15.772	1225.455	927.089
155.789	15.791	1224.607	926.472
156.804	15.762	1223.177	925.149
157.819	15.820	1222.656	924.993
158.833	15.787	1221.869	924.133
159.848	15.962	1220.491	923.968
160.862	15.909	1219.540	922.875
161.877	15.748	1218.876	921.411
162.892	15.703	1216.962	919.637
163.906	15.709	1216.173	918.990
164.921	15.712	1215.238	918.219
165.935	15.719	1215.104	918.076
166.950	15.867	1214.234	918.143
167.964	15.730	1213.640	916.869
168.979	15.690	1213.103	916.163
169.994	15.872	1211.774	916.067
171.008	15.803	1211.297	915.249
172.023	15.912	1210.628	915.259
173.037	15.981	1209.803	914.924
174.052	15.885	1208.830	913.591
175.067	15.759	1207.977	912.183
176.081	15.747	1206.295	910.764
177.096	15.729	1205.750	910.177
178.110	15.814	1204.681	909.749
179.125	15.801	1203.686	908.843
180.140	15.813	1202.210	907.716
181.154	15.916	1201.200	907.429
182.169	15.943	1200.136	906.689
183.183	16.025	1199.038	906.222
184.198	16.064	1197.857	905.457
185.213	15.975	1197.312	904.488
186.227	16.190	1195.978	904.550
187.242	16.139	1194.980	903.445
188.256	16.289	1193.864	903.321
189.271	16.077	1193.727	902.003
190.286	16.024	1192.328	900.586
191.300	15.881	1191.123	898.834
192.315	15.758	1190.481	897.608
193.329	15.792	1189.709	897.129
194.344	15.773	1189.367	896.691
195.359	15.826	1188.696	896.388
196.373	16.030	1188.034	896.898
197.388	16.088	1187.714	896.882
198.402	16.129	1187.131	896.583
199.417	16.343	1186.372	897.068
200.432	16.322	1185.656	896.337
201.446	16.329	1185.261	895.992
202.461	16.447	1184.112	895.670
203.475	16.390	1183.461	894.800
204.490	16.399	1181.821	893.527
205.504	16.372	1180.615	892.394
206.519	16.216	1179.066	890.320
207.534	16.279	1178.087	889.832
208.548	16.258	1177.356	889.092
209.563	16.205	1176.835	888.341
210.577	16.256	1175.757	887.715
211.592	16.394	1175.234	887.969
212.607	16.374	1174.204	887.006
213.621	16.357	1173.443	886.268
214.636	16.354	1172.484	885.448
215.650	16.303	1171.751	884.550
216.665	16.439	1170.812	884.470
217.680	16.467	1169.882	883.835
218.694	16.488	1169.315	883.441
219.709	16.484	1168.695	882.875
220.723	16.517	1167.748	882.251
221.738	16.494	1166.852	881.377
222.753	16.575	1166.476	881.436
223.767	16.504	1165.770	880.457
224.782	16.609	1164.801	880.194
225.796	16.737	1164.003	880.177
226.811	16.713	1163.467	879.567
227.826	16.644	1162.657	878.519
228.840	16.694	1161.770	878.031
229.855	16.659	1160.915	877.129
230.869	16.601	1160.461	876.405
231.884	16.660	1159.184	875.671
232.899	16.573	1159.057	875.048
233.913	16.500	1158.270	873.995
234.928	16.487	1157.089	872.960
235.942	16.540	1156.269	872.537
236.957	16.466	1155.912	871.811
237.972	16.490	1155.162	871.290
238.986	16.548	1154.617	871.103
240.001	16.546	1154.022	870.564
241.015	16.570	1152.923	869.783
242.030	16.597	1151.961	869.120
243.045	16.576	1151.241	868.393
244.059	16.643	1150.693	868.244
245.074	16.599	1150.058	867.464
246.088	16.753	1148.936	867.327
247.103	16.767	1148.520	867.007
248.117	16.891	1147.830	867.045
249.132	17.055	1146.775	867.011
250.147	17.100	1146.467	866.931
251.161	17.129	1145.783	866.487
252.176	17.093	1145.155	865.750
253.190	17.179	1144.401	865.540
254.205	17.259	1143.895	865.491
255.220	17.332	1142.967	865.082
256.234	17.207	1142.802	864.247
257.249	17.154	1142.012	863.303
258.263	17.231	1141.321	863.093
259.278	17.241	1141.056	862.867
260.293	17.214	1140.372	862.137
261.307	17.288	1139.532	861.803
262.322	17.430	1138.374	861.567
263.336	17.341	1138.214	860.917
264.351	17.281	1137.799	860.227
265.366	17.368	1137.073	860.041
266.380	17.390	1136.117	859.354
267.395	17.457	1135.356	859.037
268.409	17.324	1134.500	857.645
269.424	17.195	1134.310	856.778
270.439	17.386	1133.433	856.997
271.453	17.304	1132.676	855.936
272.468	17.259	1131.782	854.961
273.482	17.185	1130.848	853.806
274.497	17.242	1130.586	853.821
275.512	17.289	1129.693	853.307
276.526	17.370	1129.001	853.112
277.541	17.261	1128.518	852.125
278.555	17.357	1127.815	852.001
279.570	17.398	1127.119	851.606
280.585	17.517	1126.285	851.497
281.599	17.569	1125.154	850.823
282.614	17.481	1124.295	849.662
283.628	17.338	1123.222	848.062
284.643	17.330	1122.303	847.254
285.657	17.419	1121.453	846.980
286.672	17.479	1119.922	846.048
287.687	17.587	1119.320	846.052
288.701	17.613	1118.468	845.462
289.716	17.484	1117.904	844.322
290.730	17.533	1117.316	844.047
291.745	17.601	1116.550	843.731
292.760	17.522	1116.020	842.865
293.774	17.684	1115.561	843.244
294.789	17.768	1114.765	842.983
295.803	17.683	1114.646	842.400
296.818	17.644	1113.744	841.448
297.833	17.616	1112.710	840.457
298.847	17.657	1111.802	839.899
299.862	17.606	1111.061	839.012
300.876	17.654	1110.434	838.701
301.891	17.755	1109.985	838.787
302.906	17.676	1109.399	837.881
303.920	17.878	1108.701	838.269
304.935	17.925	1108.271	838.103
305.949	18.045	1107.074	837.712
306.964	17.976	1106.511	836.870
307.979	17.922	1106.178	836.284
308.993	17.813	1105.267	834.988
310.008	18.054	1104.136	835.236
311.022	17.944	1103.831	834.394
312.037	18.034	1103.098	834.204
313.052	17.952	1102.159	833.020
314.066	17.861	1100.929	831.575
315.081	17.750	1099.977	830.241
316.095	17.813	1099.389	830.031
317.110	17.872	1098.786	829.788
318.125	17.859	1098.217	829.223
319.139	17.826	1097.114	828.158
320.154	17.814	1096.491	827.555
321.168	17.834	1095.977	827.189
322.183	17.869	1095.089	826.617
323.197	17.790	1094.769	825.921
324.212	17.834	1094.438	825.810
325.227	17.794	1093.818	825.073
326.241	17.933	1092.692	824.827
327.256	17.986	1092.158	824.605
328.270	17.965	1091.312	823.793
329.285	17.832	1090.331	822.337
330.300	17.918	1089.349	821.938
331.314	17.960	1088.255	821.239
332.329	17.884	1087.786	820.449
333.343	17.923	1086.980	819.957
334.358	18.062	1085.914	819.746
335.373	18.230	1085.265	819.991
336.387	18.037	1084.694	818.562
337.402	18.160	1083.877	818.460
338.416	18.112	1083.666	817.998
339.431	18.215	1082.703	817.694
340.446	18.191	1081.960	816.943
341.460	18.321	1081.589	817.211
342.475	18.360	1080.540	816.532
343.489	18.418	1079.822	816.196
344.504	18.489	1078.674	815.590
345.519	18.409	1078.021	814.645
346.533	18.548	1077.395	814.760
347.548	18.613	1076.324	814.189
348.562	18.579	1075.741	813.515
349.577	18.514	1075.149	812.685
350.592	18.316	1074.039	810.838
351.606	18.362	1073.412	810.509
352.621	18.387	1072.908	810.174
353.635	18.285	1072.152	809.049
354.650	18.444	1071.296	809.085
355.665	18.448	1070.514	808.440
356.679	18.467	1069.949	808.031
357.694	18.470	1069.361	807.533
358.708	18.504	1069.020	807.361
359.723	18.349	1068.425	806.111
360.738	18.481	1067.708	806.119
361.752	18.393	1067.167	805.226
362.767	18.549	1066.606	805.465
363.781	18.583	1065.929	805.041
364.796	18.508	1065.900	804.597
365.810	18.719	1065.127	804.930
366.825	18.754	1064.656	804.668
367.840	18.916	1063.786	804.698
368.854	18.912	1063.384	804.304
369.869	18.861	1062.864	803.599
370.883	18.885	1061.487	802.602
371.898	18.763	1060.838	801.469
372.913	18.771	1060.323	801.048
373.927	18.873	1059.816	801.069
374.942	18.841	1059.495	800.608
375.956	18.970	1058.717	800.546
376.971	18.924	1058.065	799.768
377.986	18.939	1057.899	799.642
379.000	18.910	1057.398	799.058
380.015	19.018	1057.052	799.231
381.029	19.045	1056.118	798.578
382.044	19.023	1055.789	798.157
383.059	19.149	1054.498	797.692
384.073	19.059	1053.596	796.524
385.088	19.066	1053.253	796.228
386.102	19.021	1052.355	795.270
387.117	18.932	1051.496	794.138
388.132	18.933	1050.550	793.360
389.146	18.915	1049.527	792.431
390.161	18.996	1048.353	791.848
391.175	19.018	1047.809	791.468
392.190	19.028	1047.347	791.096
393.205	19.049	1046.785	790.699
394.219	19.074	1046.157	790.269
395.234	19.020	1044.983	789.064
396.248	19.070	1044.233	788.657
397.263	19.106	1042.894	787.740
398.278	18.996	1042.497	786.866
399.292	18.969	1041.529	785.944
400.307	18.843	1040.893	784.818
401.321	18.976	1040.214	784.843
402.336	18.987	1039.540	784.318
403.350	18.959	1038.930	783.663
404.365	18.947	1038.317	783.074
405.380	19.066	1037.635	783.033
406.394	19.058	1036.761	782.267
407.409	19.180	1036.202	782.331
408.423	19.200	1035.613	781.905
409.438	19.338	1034.954	781.966
410.453	19.267	1034.426	781.178
411.467	19.509	1033.517	781.518
412.482	19.430	1032.979	780.681
413.496	19.398	1032.361	780.004
414.511	19.601	1031.632	780.298
415.526	19.586	1031.285	779.902
416.540	19.611	1031.023	779.747
417.555	19.578	1030.315	778.992
418.569	19.561	1029.875	778.516
419.584	19.707	1028.921	778.382
420.599	19.545	1028.859	777.536
421.613	151.636	1400.990	1793.550
422.628	138.321	1455.176	1793.658
