DTS Sentinel unit serial number:	SN413079Multiplexer serial number:	ORYXHardware model number:	OX4-SRSoftware version number:	ORYX F/W v4.00 Oryx Data Collector v3.7.2.0data status	okinstallation	princeton_trtdifferential loss correction	single-endedforward channel	channel 2reverse channel	N/Adate	2019/09/19time	13:47:35forward acquisition time	60.00reverse acquisition time	0.00gamma	496.2192k internal	0.2325k external	0.2325temperature offset calibration	1.0019default loss term (dB/km)	0.3790temperature slope calibration	1.0000multiplexer offset coefficient	1.0000multiplexer slope coefficient	1.0000fibre end	0.00T internal ref (°C)	30.62T ext. ref 1 (°C)	1.00T ext. ref 2 (°C)	27.95length (m)	temperature (°C)	Stokes	anti-Stokes-747.200	-200.000	-0.012	-0.078
-746.185	13.980	-0.152	0.119
-745.171	168.803	0.149	-0.214
-744.156	248.217	-0.233	0.398
-743.142	-46.125	-0.156	0.077
-742.127	-200.000	0.042	0.240
-741.112	-37.415	-0.191	-0.103
-740.098	-19.937	-0.214	0.133
-739.083	-152.381	0.200	0.015
-738.069	415.496	-0.121	0.261
-737.054	523.222	-0.097	-0.230
-736.039	-134.380	-0.360	-0.045
-735.025	800.000	0.076	0.238
-734.010	221.863	0.137	0.222
-732.996	-126.874	-0.354	-0.053
-731.981	0.496	0.067	0.048
-730.966	-155.468	0.209	0.014
-729.952	544.537	-0.015	0.037
-728.937	2.586	0.126	0.092
-727.923	-99.722	-0.128	-0.032
-726.908	-27.495	-0.149	0.087
-725.894	-194.402	-0.216	0.002
-724.879	-35.853	-0.176	-0.096
-723.864	-57.370	-0.207	-0.092
-722.850	-57.939	0.242	-0.107
-721.835	800.000	-0.058	0.177
-720.821	-200.000	0.051	-0.380
-719.806	-200.000	-0.066	-0.298
-718.791	-56.955	0.173	-0.077
-717.777	-77.528	-0.250	0.087
-716.762	268.804	0.118	0.208
-715.748	-0.316	0.113	-0.081
-714.733	411.840	0.046	-0.099
-713.718	421.837	-0.168	-0.364
-712.704	22.465	0.176	-0.145
-711.689	-53.596	-0.402	0.185
-710.675	800.000	-0.053	0.169
-709.660	-158.497	0.160	0.009
-708.645	-200.000	0.093	0.581
-707.631	60.382	-0.092	0.092
-706.616	23.495	0.247	0.204
-705.602	-89.284	0.040	0.012
-704.587	-200.000	-0.006	-0.242
-703.572	-87.133	-0.285	-0.087
-702.558	235.564	0.040	-0.067
-701.543	-83.018	0.115	0.037
-700.529	517.655	0.133	-0.312
-699.514	-69.272	-0.286	-0.111
-698.499	-134.672	0.254	-0.031
-697.485	-53.152	0.083	0.039
-696.470	-193.773	0.262	0.002
-695.456	150.588	0.082	0.113
-694.441	800.000	0.068	-0.227
-693.426	-145.311	-0.550	-0.050
-692.412	-91.860	-0.106	-0.030
-691.397	-58.178	-0.205	0.090
-690.383	108.181	-0.229	-0.274
-689.368	-200.000	-0.004	-0.046
-688.354	416.487	0.136	-0.292
-687.339	710.175	0.027	-0.072
-686.324	-44.826	-0.275	0.138
-685.310	-112.421	-0.319	-0.064
-684.295	800.000	-0.088	0.279
-683.281	29.520	-0.333	-0.285
-682.266	-200.000	0.029	-0.265
-681.251	-200.000	0.000	-0.105
-680.237	14.626	0.201	-0.158
-679.222	-90.815	0.132	0.038
-678.208	-79.865	0.555	0.188
-677.193	22.317	0.037	-0.030
-676.178	-200.000	0.019	-0.185
-675.164	800.000	-0.045	0.132
-674.149	-89.142	-0.245	-0.073
-673.135	-200.000	-0.041	-0.252
-672.120	-200.000	-0.031	0.153
-671.105	-55.424	-0.046	0.021
-670.091	-67.349	0.186	0.074
-669.076	-98.152	-0.186	0.048
-668.062	-29.982	-0.182	-0.104
-667.047	-84.595	0.220	-0.070
-666.032	-69.775	0.305	0.117
-665.018	-64.995	-0.122	-0.050
-664.003	-200.000	0.015	-0.324
-662.989	800.000	-0.020	-0.077
-661.974	-14.145	-0.099	-0.065
-660.959	16.307	-0.088	-0.070
-659.945	800.000	-0.087	0.265
-658.930	406.844	0.168	-0.358
-657.916	-200.000	-0.007	-0.063
-656.901	-55.430	0.213	-0.096
-655.886	-126.149	0.112	0.017
-654.872	-139.651	-0.195	0.021
-653.857	-200.000	-0.001	-0.069
-652.843	347.687	0.081	0.161
-651.828	-33.830	0.256	-0.142
-650.814	61.982	0.181	-0.182
-649.799	99.951	-0.080	-0.094
-648.784	-128.047	-0.234	-0.034
-647.770	-90.899	0.097	0.028
-646.755	-44.368	0.129	0.065
-645.741	-90.576	-0.261	-0.076
-644.726	-200.000	-0.035	-0.234
-643.711	-28.508	-0.179	-0.104
-642.697	20.509	-0.160	0.130
-641.682	-16.055	-0.111	0.071
-640.668	117.625	0.232	-0.287
-639.653	-95.780	0.118	0.032
-638.638	-200.000	0.017	0.129
-637.624	-49.181	-0.398	-0.191
-636.609	-200.000	0.014	-0.205
-635.595	800.000	0.048	-0.182
-634.580	-91.627	-0.258	-0.074
-633.565	-200.000	0.024	-0.253
-632.551	5.793	0.080	-0.060
-631.536	280.107	-0.235	-0.422
-630.522	-200.000	0.030	0.171
-629.507	61.583	0.208	-0.208
-628.492	-89.566	-0.222	0.065
-627.478	-42.341	-0.126	0.064
-626.463	-147.349	-0.078	0.007
-625.449	-57.222	-0.111	-0.049
-624.434	-172.455	-0.327	-0.010
-623.419	26.113	-0.138	-0.116
-622.405	406.009	-0.075	-0.159
-621.390	86.344	0.055	0.061
-620.376	-200.000	-0.024	-0.359
-619.361	-84.944	-0.288	0.091
-618.346	-200.000	-0.011	0.241
-617.332	-90.807	-0.211	-0.061
-616.317	39.353	0.180	0.162
-615.303	-9.225	0.239	0.160
-614.288	800.000	0.114	-0.327
-613.273	-160.551	-0.191	-0.010
-612.259	-68.745	-0.316	0.123
-611.244	12.272	-0.086	0.066
-610.230	-103.582	0.245	0.058
-609.215	-200.000	0.034	0.177
-608.201	23.468	-0.192	0.158
-607.186	598.129	-0.064	0.160
-606.171	-95.233	-0.177	-0.048
-605.157	800.000	0.117	0.360
-604.142	-22.406	0.025	-0.015
-603.128	-17.993	0.219	-0.138
-602.113	-56.902	0.109	-0.048
-601.098	132.153	-0.166	0.214
-600.084	-200.000	-0.012	0.153
-599.069	61.173	-0.106	-0.105
-598.055	640.814	0.057	-0.145
-597.040	-57.844	-0.102	0.045
-596.025	800.000	-0.063	-0.230
-595.011	-169.729	0.184	0.007
-593.996	-86.076	0.311	0.096
-592.982	-62.350	-0.083	-0.035
-591.967	66.797	-0.066	0.067
-590.952	30.249	0.182	0.156
-589.938	271.715	-0.116	0.206
-588.923	-126.985	-0.207	0.031
-587.909	-200.000	-0.005	0.129
-586.894	-56.101	-0.250	-0.112
-585.879	-84.218	0.186	0.059
-584.865	-200.000	-0.041	0.536
-583.850	800.000	0.030	0.130
-582.836	800.000	-0.055	0.234
-581.821	-200.000	0.027	0.230
-580.806	800.000	-0.051	0.205
-579.792	456.082	0.088	-0.196
-578.777	630.905	-0.057	-0.145
-577.763	800.000	-0.132	-0.386
-576.748	365.711	-0.045	0.091
-575.733	800.000	-0.015	-0.063
-574.719	31.573	-0.081	-0.070
-573.704	128.729	0.132	0.168
-572.690	186.603	0.196	-0.293
-571.675	242.836	0.318	-0.534
-570.661	-145.755	-0.183	0.016
-569.646	800.000	0.119	-0.329
-568.631	-200.000	-0.008	-0.471
-567.617	134.221	-0.101	-0.131
-566.602	221.966	0.180	-0.290
-565.588	226.945	0.153	-0.249
-564.573	340.982	0.118	-0.231
-563.558	-97.408	-0.287	-0.075
-562.544	62.471	-0.095	-0.095
-561.529	316.329	-0.068	-0.129
-560.515	220.781	0.191	0.308
-559.500	-200.000	0.021	-0.126
-558.485	-24.180	-0.119	0.071
-557.471	154.546	-0.021	-0.029
-556.456	-109.102	0.517	0.110
-555.442	-112.758	-0.266	-0.053
-554.427	-67.360	-0.220	0.087
-553.412	180.597	0.120	0.176
-552.398	-200.000	0.015	-0.134
-551.383	-121.716	0.193	0.032
-550.369	-83.082	-0.111	0.036
-549.354	206.581	0.151	-0.236
-548.339	-200.000	0.045	0.215
-547.325	316.011	-0.066	0.125
-546.310	800.000	-0.091	0.375
-545.296	-200.000	-0.003	-0.031
-544.281	-4.601	0.146	0.101
-543.266	-200.000	-0.043	0.235
-542.252	292.220	-0.124	-0.226
-541.237	-200.000	0.044	-0.315
-540.223	-46.023	0.109	0.054
-539.208	227.523	0.147	0.239
-538.193	-102.040	0.148	-0.036
-537.179	266.992	0.052	0.091
-536.164	676.094	-0.052	0.134
-535.150	-36.849	-0.214	0.115
-534.135	-155.521	0.120	0.008
-533.121	-200.000	0.044	-0.506
-532.106	-128.322	0.249	-0.035
-531.091	-185.714	-0.165	0.002
-530.077	265.624	-0.153	-0.267
-529.062	5.930	-0.155	0.115
-528.048	-200.000	-0.006	-0.033
-527.033	120.218	0.022	-0.027
-526.018	-179.285	0.348	0.008
-525.004	-200.000	0.114	0.000
-523.989	800.000	0.106	-0.357
-522.975	-200.000	-0.024	0.146
-521.960	25.378	-0.059	0.049
-520.945	-99.000	0.296	0.075
-519.931	-178.922	0.295	0.007
-518.916	29.508	0.067	0.057
-517.902	-127.256	-0.385	0.056
-516.887	695.489	0.150	-0.395
-515.872	219.716	0.131	0.210
-514.858	-135.568	-0.305	-0.036
-513.843	-49.785	-0.043	0.020
-512.829	800.000	0.018	0.076
-511.814	800.000	-0.095	-0.321
-510.799	-75.927	0.352	0.125
-509.785	159.119	-0.108	-0.150
-508.770	449.135	0.058	0.128
-507.756	313.880	0.060	-0.113
-506.741	-200.000	0.247	-0.001
-505.726	-16.081	0.039	-0.024
-504.712	-43.297	-0.311	0.157
-503.697	-200.000	-0.041	-0.416
-502.683	-200.000	-0.022	-0.335
-501.668	0.647	0.187	-0.134
-500.653	-120.232	-0.345	-0.059
-499.639	-200.000	0.011	-0.145
-498.624	-200.000	-0.007	-0.230
-497.610	100.005	0.168	0.195
-496.595	-134.505	-0.291	0.036
-495.581	166.030	-0.164	-0.232
-494.566	302.543	0.058	0.108
-493.551	14.940	-0.167	0.131
-492.537	-200.000	-0.037	0.386
-491.522	22.495	0.132	0.108
-490.508	-4.889	0.048	0.033
-489.493	621.830	-0.101	-0.255
-488.478	-200.000	-0.034	0.173
-487.464	800.000	-0.024	-0.093
-486.449	-151.162	-0.202	-0.015
-485.435	42.648	0.212	0.193
-484.420	-83.063	0.252	0.081
-483.405	-8.099	-0.263	-0.177
-482.391	-123.808	-0.248	-0.039
-481.376	333.548	0.148	-0.285
-480.362	-200.000	-0.000	0.011
-479.347	-85.376	-0.161	-0.050
-478.332	80.145	0.372	0.400
-477.318	-200.000	0.013	-0.187
-476.303	-38.048	-0.099	0.052
-475.289	-200.000	-0.014	0.231
-474.274	222.456	-0.257	0.413
-473.259	352.202	0.112	-0.222
-472.245	59.140	-0.169	0.166
-471.230	-125.765	-0.264	0.040
-470.216	-37.820	0.043	0.023
-469.201	-50.720	-0.206	0.097
-468.186	-98.560	0.308	0.079
-467.172	171.800	0.205	-0.294
-466.157	17.426	0.396	-0.314
-465.143	-101.989	-0.351	0.084
-464.128	800.000	-0.075	0.318
-463.113	-200.000	-0.002	-0.074
-462.099	-200.000	-0.032	0.140
-461.084	66.212	-0.263	-0.266
-460.070	444.391	0.108	-0.236
-459.055	148.539	-0.079	0.106
-458.040	23.151	-0.122	-0.100
-457.026	-86.331	0.189	-0.058
-456.011	-200.000	-0.058	-0.336
-454.997	11.957	-0.364	-0.279
-453.982	220.500	-0.160	-0.256
-452.968	-57.507	0.316	0.138
-451.953	-46.600	-0.244	-0.119
-450.938	-194.073	-0.343	0.003
-449.924	227.709	-0.138	-0.223
-448.909	-115.580	0.124	0.023
-447.895	-200.000	0.029	0.205
-446.880	11.641	-0.116	0.089
-445.865	129.021	-0.110	-0.140
-444.851	-200.000	0.012	0.089
-443.836	614.667	-0.052	-0.131
-442.822	279.922	0.124	-0.222
-441.807	366.657	-0.029	-0.058
-440.792	-15.193	0.079	0.050
-439.778	12.279	-0.188	-0.145
-438.763	28.270	-0.283	-0.239
-437.749	800.000	-0.055	0.227
-436.734	-104.111	0.180	0.042
-435.719	67.434	0.145	0.148
-434.705	-116.820	0.296	0.054
-433.690	800.000	-0.068	0.272
-432.676	800.000	-0.036	0.138
-431.661	165.026	0.140	-0.197
-430.646	-0.635	-0.021	-0.015
-429.632	-64.810	0.117	0.047
-428.617	27.110	-0.091	-0.076
-427.603	-32.628	0.217	-0.121
-426.588	-70.724	0.102	0.038
-425.573	-48.259	0.147	-0.071
-424.559	396.534	-0.042	-0.088
-423.544	-144.455	0.375	0.035
-422.530	176.201	0.160	-0.231
-421.515	-200.000	-0.092	0.429
-420.500	-173.589	0.203	-0.006
-419.486	800.000	0.025	0.104
-418.471	-178.894	0.263	-0.006
-417.457	566.476	-0.065	0.158
-416.442	141.116	-0.198	-0.261
-415.428	54.831	-0.228	-0.219
-414.413	-200.000	0.023	-0.205
-413.398	330.179	-0.101	0.194
-412.384	-3.945	-0.349	-0.241
-411.369	-74.146	-0.227	0.082
-410.355	-185.864	-0.090	0.001
-409.340	-19.948	-0.271	-0.167
-408.325	-139.916	0.231	-0.024
-407.311	-120.951	-0.069	0.012
-406.296	-200.000	0.013	0.180
-405.282	-76.355	-0.100	0.035
-404.267	-53.322	-0.277	-0.127
-403.252	-50.058	0.198	-0.093
-402.238	320.867	0.237	-0.449
-401.223	36.241	-0.327	-0.287
-400.209	430.152	0.113	0.244
-399.194	350.981	0.129	0.255
-398.179	250.656	-0.063	0.107
-397.165	432.154	0.079	0.171
-396.150	-22.258	0.162	0.097
-395.136	-200.000	0.007	0.041
-394.121	-12.816	-0.081	-0.052
-393.106	-56.198	0.065	-0.029
-392.092	483.940	-0.075	0.170
-391.077	-120.906	0.256	-0.043
-390.063	3.468	0.238	0.173
-389.048	228.700	0.064	-0.103
-388.033	488.598	0.022	-0.050
-387.019	800.000	-0.052	0.185
-386.004	800.000	-0.035	0.139
-384.990	148.413	-0.202	-0.271
-383.975	-5.070	-0.210	-0.144
-382.960	176.775	-0.203	-0.293
-381.946	-200.000	0.006	-0.163
-380.931	205.721	0.130	-0.201
-379.917	-200.000	-0.041	0.216
-378.902	149.788	0.097	-0.130
-377.888	800.000	0.042	-0.137
-376.873	124.499	0.117	0.146
-375.858	-93.088	-0.107	0.030
-374.844	-200.000	0.026	0.183
-373.829	800.000	-0.058	0.186
-372.815	-200.000	-0.329	0.000
-371.800	150.392	-0.245	0.331
-370.785	109.426	-0.102	-0.121
-369.771	85.890	-0.129	0.141
-368.756	-200.000	0.004	0.077
-367.742	-10.334	0.159	-0.105
-366.727	380.743	-0.055	0.113
-365.712	-51.656	-0.409	0.190
-364.698	800.000	-0.037	0.107
-363.683	149.205	0.138	0.185
-362.669	-25.892	0.020	0.012
-361.654	-36.741	-0.347	0.185
-360.639	41.212	0.319	-0.287
-359.625	-200.000	-0.018	0.169
-358.610	-200.000	-0.006	-0.114
-357.596	-88.323	0.157	-0.047
-356.581	679.528	-0.104	0.270
-355.566	-180.901	0.185	-0.004
-354.552	-52.291	-0.274	0.126
-353.537	-47.265	0.040	0.019
-352.523	-95.742	0.113	0.030
-351.508	-62.868	-0.252	0.104
-350.493	-14.257	-0.272	-0.174
-349.479	51.097	0.161	-0.152
-348.464	-131.813	0.273	-0.035
-347.450	44.482	-0.244	-0.223
-346.435	-35.272	-0.159	-0.086
-345.420	286.477	-0.055	0.098
-344.406	442.442	-0.098	-0.214
-343.391	170.912	0.124	0.177
-342.377	-37.228	0.249	0.132
-341.362	-200.000	-0.035	-0.200
-340.348	-70.814	-0.169	0.063
-339.333	-40.836	0.249	-0.128
-338.318	800.000	0.161	-0.510
-337.304	800.000	0.032	-0.119
-336.289	368.779	-0.107	-0.214
-335.275	-137.763	-0.322	-0.036
-334.260	-89.290	0.134	-0.039
-333.245	144.424	0.215	0.285
-332.231	-20.614	-0.512	-0.312
-331.216	260.648	0.093	0.160
-330.202	-47.086	0.334	0.162
-329.187	-200.000	0.003	0.024
-328.172	40.554	-0.120	0.108
-327.158	44.042	0.305	-0.277
-326.143	91.910	0.243	0.272
-325.129	139.631	0.139	0.182
-324.114	-63.584	-0.164	-0.067
-323.099	48.085	-0.090	-0.083
-322.085	331.260	-0.194	0.372
-321.070	178.557	0.088	-0.128
-320.056	57.840	-0.060	0.058
-319.041	252.665	-0.061	-0.104
-318.026	618.391	0.071	-0.177
-317.012	-200.000	0.001	0.220
-315.997	-200.000	0.015	0.175
-314.983	-98.656	0.234	-0.059
-313.968	40.951	0.187	0.168
-312.953	80.335	0.099	0.106
-311.939	25.374	0.194	0.160
-310.924	800.000	-0.042	0.157
-309.910	800.000	0.032	-0.100
-308.895	800.000	0.101	0.389
-307.880	-36.624	0.200	-0.107
-306.866	17.624	0.177	-0.139
-305.851	-121.769	-0.354	0.058
-304.837	384.103	0.065	0.134
-303.822	210.926	-0.084	-0.131
-302.807	195.907	-0.090	0.136
-301.793	122.396	-0.103	-0.128
-300.778	-200.000	-0.017	-0.086
-299.764	94.863	-0.210	-0.237
-298.749	193.915	0.220	0.330
-297.735	64.093	0.174	0.174
-296.720	-200.000	0.018	0.199
-295.705	-200.000	0.028	0.195
-294.691	-110.075	0.026	0.005
-293.676	800.000	-0.053	-0.178
-292.662	100.624	-0.109	-0.126
-291.647	-87.568	0.222	0.067
-290.632	97.810	0.126	-0.144
-289.618	3.186	0.074	0.053
-288.603	-138.508	0.372	0.041
-287.589	-200.000	0.001	0.009
-286.574	-38.323	-0.463	-0.243
-285.559	243.425	-0.124	0.206
-284.545	-107.986	-0.128	0.027
-283.530	-136.803	0.141	0.016
-282.516	-105.507	0.405	0.091
-281.501	-9.665	0.259	0.171
-280.486	459.497	0.035	-0.076
-279.472	-200.000	-0.014	-0.076
-278.457	-119.310	-0.243	-0.042
-277.443	-187.184	-0.266	-0.004
-276.428	158.209	-0.060	-0.082
-275.413	522.662	-0.126	0.292
-274.399	65.153	-0.064	0.064
-273.384	800.000	0.029	-0.089
-272.370	502.232	-0.160	-0.367
-271.355	-35.671	-0.062	-0.033
-270.340	161.042	-0.098	-0.135
-269.326	-127.179	-0.112	0.016
-268.311	-200.000	0.003	0.382
-267.297	-200.000	-0.010	-0.078
-266.282	157.651	0.082	0.113
-265.267	-44.458	0.270	-0.134
-264.253	-155.552	0.130	-0.008
-263.238	41.705	0.181	-0.162
-262.224	-96.969	-0.084	0.022
-261.209	57.102	-0.278	-0.268
-260.195	31.954	0.055	0.047
-259.180	55.286	0.017	0.016
-258.165	176.936	0.219	-0.316
-257.151	413.967	0.227	0.478
-256.136	65.755	-0.164	0.165
-255.122	800.000	0.067	-0.215
-254.107	-70.896	0.138	0.051
-253.092	-66.793	0.257	0.101
-252.078	-200.000	-0.001	-0.096
-251.063	35.973	0.262	0.228
-250.049	-116.628	-0.374	0.068
-249.034	-108.687	0.183	-0.039
-248.019	437.378	0.106	0.228
-247.005	-76.433	0.077	0.027
-245.990	-67.433	0.066	-0.026
-244.976	93.048	0.202	0.226
-243.961	324.919	-0.146	-0.276
-242.946	-96.566	0.170	0.044
-241.932	-200.000	0.001	-0.127
-240.917	544.911	0.037	-0.088
-239.903	-43.214	-0.287	-0.144
-238.888	74.080	0.287	0.298
-237.873	11.528	0.071	0.054
-236.859	800.000	0.050	0.145
-235.844	-200.000	0.033	-0.155
-234.830	-150.289	-0.250	0.019
-233.815	-118.521	-0.164	0.029
-232.800	-200.000	-0.022	-0.196
-231.786	800.000	0.055	0.206
-230.771	-37.495	-0.241	-0.127
-229.757	141.768	0.066	0.086
-228.742	451.909	-0.044	0.096
-227.727	217.904	0.198	-0.312
-226.713	-67.393	0.106	-0.041
-225.698	69.769	-0.257	-0.262
-224.684	507.462	-0.170	0.391
-223.669	-49.606	-0.375	-0.177
-222.655	342.550	0.205	-0.398
-221.640	159.895	0.194	0.267
-220.625	-166.819	0.332	-0.014
-219.611	-200.000	-0.028	0.380
-218.596	-200.000	-0.076	0.343
-217.582	32.063	0.165	0.141
-216.567	48.904	0.320	0.297
-215.552	193.926	-0.055	0.082
-214.538	-200.000	0.020	-0.138
-213.523	216.665	-0.066	0.104
-212.509	-133.775	0.348	0.043
-211.494	-49.434	-0.269	0.127
-210.479	-54.353	-0.288	-0.129
-209.465	291.549	0.020	0.036
-208.450	-99.529	-0.157	-0.039
-207.436	18.058	-0.138	-0.109
-206.421	164.799	-0.183	-0.255
-205.406	9.298	0.182	-0.136
-204.392	76.925	-0.113	0.118
-203.377	-57.327	0.198	0.086
-202.363	35.369	0.192	-0.166
-201.348	-80.460	0.349	0.115
-200.333	-200.000	0.006	-0.269
-199.319	-76.625	0.301	0.104
-198.304	-200.000	0.012	-0.148
-197.290	214.620	-0.021	0.034
-196.275	-24.061	-0.093	-0.055
-195.260	103.876	0.149	0.173
-194.246	7.264	0.132	-0.097
-193.231	49.384	-0.135	0.125
-192.217	-61.146	-0.118	0.049
-191.202	-63.963	0.154	0.062
-190.187	201.259	-0.063	0.096
-189.173	-200.000	0.002	-0.016
-188.158	-162.504	0.303	0.015
-187.144	429.729	-0.091	0.194
-186.129	-93.694	-0.246	-0.067
-185.114	-200.000	-0.025	-0.114
-184.100	581.964	-0.073	0.177
-183.085	58.968	-0.231	0.225
-182.071	-134.043	-0.121	-0.015
-181.056	566.264	-0.121	0.291
-180.042	-200.000	-0.032	0.158
-179.027	-200.000	-0.007	0.042
-178.012	107.064	-0.226	0.265
-176.998	10.337	-0.053	-0.040
-175.983	800.000	-0.040	0.168
-174.969	-71.968	0.225	0.083
-173.954	43.183	0.135	-0.122
-172.939	-41.160	0.124	0.063
-171.925	-81.090	0.245	0.080
-170.910	-48.026	0.118	0.056
-169.896	-67.737	0.212	0.082
-168.881	-49.144	-0.222	0.105
-167.866	-139.456	0.125	-0.013
-166.852	256.378	0.229	0.387
-165.837	95.528	-0.130	0.146
-164.823	129.455	0.037	0.046
-163.808	-157.430	-0.238	-0.014
-162.793	-200.000	0.064	-0.335
-161.779	251.464	0.046	-0.077
-160.764	44.016	0.179	-0.162
-159.750	800.000	-0.046	0.182
-158.735	-167.033	0.129	0.005
-157.720	-134.483	-0.224	-0.027
-156.706	-163.483	0.326	0.015
-155.691	800.000	0.082	0.225
-154.677	-168.196	0.311	0.012
-153.662	-200.000	0.000	0.005
-152.647	-200.000	0.038	0.255
-151.633	384.243	0.049	-0.099
-150.618	-200.000	-0.072	-0.456
-149.604	-130.090	-0.424	0.057
-148.589	-200.000	-0.053	-0.232
-147.574	257.867	-0.180	0.305
-146.560	-98.240	0.207	-0.052
-145.545	-130.085	0.064	-0.009
-144.531	775.813	-0.060	0.161
-143.516	106.916	0.247	0.290
-142.502	800.000	0.070	0.293
-141.487	-12.419	-0.074	-0.048
-140.472	5.774	-0.240	0.175
-139.458	-118.505	0.279	0.049
-138.443	15.972	0.340	0.264
-137.429	-132.933	-0.288	-0.036
-136.414	-121.001	-0.182	-0.030
-135.399	-126.027	0.199	0.029
-134.385	180.889	0.145	0.209
-133.370	-38.227	0.190	0.099
-132.356	-24.925	0.093	-0.054
-131.341	522.522	-0.014	-0.032
-130.326	42.694	0.204	0.183
-129.312	-10.820	0.100	-0.065
-128.297	107.583	0.163	-0.191
-127.283	-18.317	-0.154	-0.095
-126.268	-116.899	0.172	0.031
-125.253	11.245	-0.046	0.034
-124.239	-25.321	0.103	0.060
-123.224	-200.000	0.000	0.143
-122.210	-134.811	-0.266	-0.032
-121.195	-130.743	0.385	-0.051
-120.180	-118.855	0.291	0.050
-119.166	-200.000	0.053	0.287
-118.151	156.208	-0.234	0.318
-117.137	-111.288	-0.322	0.065
-116.122	315.101	0.060	-0.111
-115.107	800.000	0.104	-0.373
-114.093	-200.000	0.072	-0.000
-113.078	-200.000	0.063	-0.336
-112.064	-200.000	0.005	-0.045
-111.049	50.707	0.038	-0.035
-110.034	87.260	0.265	-0.289
-109.020	-170.581	-0.299	0.010
-108.005	657.435	-0.175	0.444
-106.991	53.156	-0.201	0.189
-105.976	-200.000	0.004	-0.191
-104.962	590.857	-0.070	-0.170
-103.947	93.455	0.183	0.204
-102.932	-86.175	0.318	0.097
-101.918	776.071	-0.062	0.167
-100.903	-129.902	0.143	0.019
-99.889	-200.000	0.003	-0.019
-98.874	800.000	-0.090	-0.248
-97.859	519.463	0.051	-0.118
-96.845	451.444	-0.056	-0.121
-95.830	24.535	0.133	-0.108
-94.816	108.677	0.180	0.212
-93.801	-200.000	0.088	-0.418
-92.786	-80.027	0.044	-0.014
-91.772	-57.918	0.166	0.072
-90.757	-79.966	-0.357	-0.118
-89.743	-200.000	0.008	-0.123
-88.728	800.000	0.066	-0.238
-87.713	-200.000	0.026	0.187
-86.699	240.333	0.131	-0.215
-85.684	800.000	-0.180	-0.556
-84.670	-200.000	-0.021	0.104
-83.655	-200.000	-0.012	-0.196
-82.640	181.882	-0.174	-0.251
-81.626	-166.710	-0.182	0.007
-80.611	103.346	-0.012	0.014
-79.597	800.000	-0.044	-0.159
-78.582	-200.000	0.059	0.353
-77.567	-200.000	0.050	-0.372
-76.553	-130.536	-0.219	0.029
-75.538	67.159	0.164	-0.164
-74.524	472.825	-0.052	0.116
-73.509	-57.893	0.176	-0.076
-72.494	-200.000	-0.065	0.356
-71.480	157.515	-0.078	0.107
-70.465	800.000	-0.083	-0.226
-69.451	116.316	-0.144	0.174
-68.436	568.166	-0.068	0.162
-67.422	800.000	0.140	-0.394
-66.407	-70.112	-0.087	-0.033
-65.392	-200.000	0.042	0.277
-64.378	356.032	0.066	0.129
-63.363	1.150	0.098	-0.069
-62.349	321.516	0.087	-0.163
-61.334	109.289	-0.939	-1.104
-60.319	-92.079	0.591	0.164
-59.305	800.000	-0.267	-1.087
-58.290	222.282	0.723	1.143
-57.276	359.839	0.802	1.577
-56.261	-200.000	98.381	583.473
-55.246	478.452	1434.456	3190.292
-54.232	147.208	2657.726	3513.129
-53.217	102.091	2334.727	2677.696
-52.203	40.030	1947.883	1718.944
-51.188	33.832	1732.770	1480.918
-50.173	31.129	1689.065	1422.931
-49.159	48.912	1737.353	1601.454
-48.144	49.897	1753.396	1623.783
-47.130	33.390	1713.663	1460.943
-46.115	30.730	1699.185	1428.167
-45.100	30.552	1694.223	1422.574
-44.086	30.608	1691.517	1420.672
-43.071	30.596	1688.992	1418.402
-42.057	30.582	1686.142	1415.850
-41.042	30.590	1684.561	1414.523
-40.027	30.522	1682.660	1412.360
-39.013	30.519	1680.762	1410.684
-37.998	30.388	1679.211	1408.332
-36.984	30.512	1677.908	1408.127
-35.969	30.701	1676.171	1408.042
-34.954	30.698	1674.840	1406.847
-33.940	30.676	1672.780	1404.889
-32.925	30.661	1670.929	1403.169
-31.911	30.607	1669.880	1401.822
-30.896	30.645	1667.812	1400.321
-29.881	30.635	1666.044	1398.706
-28.867	30.628	1664.199	1397.050
-27.852	30.677	1662.259	1395.732
-26.838	30.567	1661.474	1394.194
-25.823	30.589	1660.085	1393.134
-24.809	30.685	1658.374	1392.359
-23.794	30.607	1657.240	1390.773
-22.779	30.725	1655.590	1390.211
-21.765	30.642	1653.726	1387.974
-20.750	30.655	1652.232	1386.763
-19.736	30.672	1651.081	1385.868
-18.721	30.690	1649.170	1384.341
-17.706	30.691	1648.055	1383.362
-16.692	30.633	1645.732	1380.923
-15.677	30.623	1644.723	1379.949
-14.663	30.677	1643.724	1379.454
-13.648	30.647	1641.880	1377.629
-12.633	30.627	1640.408	1376.196
-11.619	30.643	1638.852	1374.951
-10.604	30.591	1637.443	1373.333
-9.590	30.680	1635.985	1372.709
-8.575	30.600	1634.854	1371.121
-7.560	30.627	1633.813	1370.391
-6.546	30.651	1632.648	1369.537
-5.531	30.628	1631.360	1368.230
-4.517	30.533	1630.198	1366.503
-3.502	30.603	1629.231	1366.153
-2.487	30.722	1626.987	1365.091
-1.473	30.767	1615.916	1356.076
-0.458	28.301	1596.805	1322.205
0.556	23.754	1597.385	1289.222
1.571	20.871	1621.135	1287.004
2.586	19.728	1633.411	1288.124
3.600	17.849	1578.837	1231.428
4.615	10.060	1466.473	1091.291
5.629	2.590	1400.545	993.825
6.644	1.101	1392.066	978.118
7.659	1.023	1390.936	976.737
8.673	0.981	1389.841	975.608
9.688	0.876	1387.763	973.387
10.702	0.632	1384.557	969.489
11.717	3.968	1389.871	994.589
12.731	11.699	1401.646	1052.873
13.746	16.635	1408.072	1089.457
14.761	17.381	1408.618	1094.589
15.775	16.783	1406.298	1088.846
16.790	15.726	1404.182	1080.324
17.804	14.924	1401.701	1073.172
18.819	14.683	1400.260	1070.431
19.834	14.316	1398.900	1066.944
20.848	14.103	1397.416	1064.353
21.863	13.797	1396.205	1061.385
22.877	13.728	1394.638	1059.654
23.892	13.587	1393.855	1058.066
24.907	13.611	1392.861	1057.375
25.921	13.667	1392.078	1057.040
26.936	13.665	1391.030	1056.139
27.950	13.747	1390.448	1056.126
28.965	13.674	1389.402	1054.771
29.980	13.805	1388.186	1054.594
30.994	13.766	1387.525	1053.745
32.009	13.798	1386.435	1053.029
33.023	13.803	1385.106	1051.961
34.038	13.717	1384.211	1050.644
35.053	13.757	1383.039	1049.912
36.067	13.786	1381.410	1048.766
37.082	13.722	1380.760	1047.775
38.096	13.723	1379.878	1047.017
39.111	13.860	1378.671	1046.873
40.126	13.707	1378.132	1045.410
41.140	13.603	1377.320	1044.044
42.155	13.564	1377.397	1043.766
43.169	13.652	1376.762	1043.746
44.184	13.601	1376.639	1043.237
45.199	13.658	1375.927	1042.966
46.213	13.740	1374.854	1042.573
47.228	13.755	1374.091	1042.001
48.242	13.748	1372.572	1040.709
49.257	13.728	1371.165	1039.429
50.271	13.769	1369.823	1038.576
51.286	13.678	1368.854	1037.181
52.301	13.707	1367.521	1036.259
53.315	13.708	1366.382	1035.312
54.330	13.721	1365.389	1034.547
55.344	13.633	1364.498	1033.232
56.359	13.626	1362.996	1031.956
57.374	13.602	1362.346	1031.226
58.388	13.646	1361.637	1030.874
59.403	13.517	1361.146	1029.608
60.417	13.503	1360.952	1029.281
61.432	13.530	1359.850	1028.524
62.447	13.509	1358.575	1027.341
63.461	13.399	1357.773	1025.960
64.476	13.495	1356.456	1025.466
65.490	13.506	1355.190	1024.488
66.505	13.643	1353.549	1024.006
67.520	13.511	1352.332	1022.178
68.534	13.538	1351.631	1021.722
69.549	13.552	1350.265	1020.685
70.563	13.583	1349.201	1019.985
71.578	13.572	1347.605	1018.622
72.593	13.433	1347.632	1017.696
73.607	13.529	1346.180	1017.096
74.622	13.442	1345.325	1015.831
75.636	13.506	1344.666	1015.631
76.651	13.498	1343.607	1014.696
77.666	13.522	1343.338	1014.551
78.680	13.455	1342.814	1013.650
79.695	13.507	1341.930	1013.215
80.709	13.442	1341.466	1012.377
81.724	13.526	1340.642	1012.178
82.739	13.676	1339.042	1011.797
83.753	13.580	1338.845	1010.971
84.768	13.684	1337.247	1010.309
85.782	13.708	1336.093	1009.493
86.797	13.719	1334.619	1008.359
87.812	13.639	1333.386	1006.852
88.826	13.727	1332.172	1006.381
89.841	13.617	1331.559	1005.163
90.855	13.713	1330.452	1004.819
91.870	13.661	1329.602	1003.772
92.884	13.630	1329.207	1003.200
93.899	13.761	1327.816	1002.853
94.914	13.857	1326.692	1002.492
95.928	13.779	1326.585	1001.850
96.943	13.769	1325.383	1000.797
97.957	13.716	1324.035	999.372
98.972	13.792	1323.322	999.199
99.987	13.799	1322.155	998.273
101.001	13.737	1321.187	997.083
102.016	13.688	1320.093	995.873
103.030	13.806	1319.404	995.971
104.045	13.766	1318.447	994.926
105.060	13.723	1317.130	993.581
106.074	13.705	1315.781	992.368
107.089	13.642	1314.510	990.949
108.103	13.547	1313.307	989.388
109.118	13.552	1311.874	988.251
110.133	13.689	1310.255	987.757
111.147	13.567	1309.404	986.303
112.162	13.752	1307.639	985.987
113.176	13.752	1306.584	985.104
114.191	13.702	1305.693	984.047
115.206	13.673	1304.034	982.541
116.220	13.754	1303.274	982.357
117.235	13.602	1302.207	980.570
118.249	13.651	1301.069	979.915
119.264	13.681	1299.859	979.096
120.279	13.719	1298.895	978.504
121.293	13.704	1297.901	977.580
122.308	13.637	1296.975	976.401
123.322	13.626	1295.832	975.392
124.337	13.660	1294.672	974.632
125.352	13.625	1293.832	973.705
126.366	13.689	1291.967	972.590
127.381	13.609	1291.438	971.637
128.395	13.701	1290.188	971.149
129.410	13.696	1289.268	970.343
130.424	13.740	1288.452	969.901
131.439	13.822	1286.875	969.109
132.454	13.738	1286.179	968.008
133.468	13.787	1285.748	967.883
134.483	13.786	1284.894	967.147
135.497	13.756	1283.764	966.038
136.512	13.857	1282.279	965.420
137.527	13.765	1280.706	963.617
138.541	13.640	1279.776	962.109
139.556	13.802	1278.039	961.658
140.570	13.788	1277.107	960.790
141.585	13.860	1275.927	960.230
142.600	13.830	1274.416	958.838
143.614	13.882	1273.415	958.299
144.629	13.869	1272.566	957.503
145.643	13.829	1271.732	956.557
146.658	13.822	1270.298	955.353
147.673	13.868	1268.984	954.546
148.687	13.819	1267.863	953.335
149.702	13.850	1266.434	952.354
150.716	13.802	1265.299	951.142
151.731	13.775	1264.231	950.103
152.746	13.795	1263.147	949.316
153.760	13.854	1261.463	948.304
154.775	13.817	1260.582	947.350
155.789	13.876	1259.674	946.919
156.804	13.975	1258.334	946.388
157.819	14.018	1257.166	945.671
158.833	13.934	1256.677	944.741
159.848	14.002	1255.326	944.030
160.862	13.925	1254.166	942.637
161.877	13.932	1252.704	941.495
162.892	13.958	1252.021	941.046
163.906	13.940	1251.365	940.368
164.921	13.958	1250.369	939.639
165.935	13.922	1249.987	939.064
166.950	13.998	1248.550	938.331
167.964	13.981	1248.096	937.812
168.979	13.986	1247.690	937.451
169.994	14.059	1246.744	937.071
171.008	14.063	1245.827	936.321
172.023	14.143	1245.021	936.078
173.037	14.154	1243.912	935.223
174.052	14.202	1243.237	934.905
175.067	14.228	1242.059	934.082
176.081	14.076	1241.054	932.391
177.096	14.056	1240.381	931.689
178.110	14.146	1238.605	930.780
179.125	14.118	1237.701	929.862
180.140	14.061	1236.619	928.646
181.154	14.138	1235.397	928.079
182.169	14.194	1233.833	927.134
183.183	14.209	1232.598	926.207
184.198	14.272	1231.741	925.827
185.213	14.323	1230.417	925.035
186.227	14.275	1229.439	923.950
187.242	14.182	1228.594	922.720
188.256	14.351	1227.430	922.700
189.271	14.303	1226.312	921.512
190.286	14.261	1225.546	920.621
191.300	14.110	1224.832	919.169
192.315	14.143	1223.966	918.624
193.329	14.213	1223.240	918.380
194.344	14.136	1222.828	917.568
195.359	14.242	1221.906	917.379
196.373	14.325	1221.405	917.378
197.388	14.301	1221.160	916.980
198.402	14.380	1220.332	916.714
199.417	14.372	1219.971	916.317
200.432	14.453	1218.967	915.923
201.446	14.488	1217.879	915.218
202.461	14.561	1216.801	914.729
203.475	14.528	1215.739	913.665
204.490	14.462	1214.715	912.458
205.504	14.464	1213.359	911.370
206.519	14.449	1212.725	910.731
207.534	14.586	1210.958	910.071
208.548	14.499	1210.178	908.927
209.563	14.527	1209.609	908.574
210.577	14.560	1208.505	907.845
211.592	14.571	1207.827	907.314
212.607	14.645	1206.524	906.655
213.621	14.634	1206.242	906.306
214.636	14.617	1205.062	905.245
215.650	14.644	1204.211	904.671
216.665	14.622	1203.017	903.574
217.680	14.681	1202.396	903.347
218.694	14.670	1201.695	902.680
219.709	14.710	1200.611	902.002
220.723	14.717	1199.764	901.327
221.738	14.728	1199.468	901.085
222.753	14.641	1198.794	900.026
223.767	14.901	1197.813	900.612
224.782	14.831	1197.228	899.714
225.796	14.774	1197.195	899.307
226.811	14.869	1196.039	898.867
227.826	14.763	1195.329	897.685
228.840	14.849	1194.482	897.433
229.855	14.937	1193.555	897.128
230.869	14.850	1192.507	895.797
231.884	14.831	1191.749	895.045
232.899	14.840	1191.098	894.526
233.913	14.892	1190.070	893.951
234.928	14.830	1189.499	893.114
235.942	14.801	1189.331	892.749
236.957	14.849	1188.166	892.056
237.972	14.933	1187.275	891.754
238.986	14.952	1186.599	891.267
240.001	14.889	1185.717	890.191
241.015	14.922	1185.003	889.753
242.030	14.860	1184.366	888.866
243.045	15.004	1183.394	888.822
244.059	15.082	1182.394	888.408
245.074	14.910	1182.244	887.305
246.088	15.023	1181.094	886.963
247.103	15.007	1180.307	886.206
248.117	15.032	1179.414	885.589
249.132	15.192	1178.360	885.566
250.147	15.160	1177.866	884.948
251.161	15.261	1176.986	884.741
252.176	15.114	1176.700	883.671
253.190	15.316	1175.760	883.953
254.205	15.333	1174.957	883.360
255.220	15.274	1174.844	882.888
256.234	15.354	1173.982	882.581
257.249	15.240	1173.247	881.352
258.263	15.251	1172.910	881.076
259.278	15.303	1171.804	880.441
260.293	15.465	1171.219	880.774
261.307	15.468	1170.650	880.287
262.322	15.429	1169.994	879.510
263.336	15.361	1169.526	878.725
264.351	15.443	1169.104	878.757
265.366	15.527	1167.862	878.185
266.380	15.415	1167.721	877.419
267.395	15.399	1167.083	876.775
268.409	15.495	1165.778	876.217
269.424	15.545	1165.097	875.889
270.439	15.501	1164.644	875.241
271.453	15.437	1164.059	874.395
272.468	15.504	1162.799	873.718
273.482	15.647	1162.100	873.860
274.497	15.511	1161.787	872.840
275.512	15.541	1160.877	872.231
276.526	15.545	1160.168	871.643
277.541	15.556	1159.462	871.092
278.555	15.666	1158.420	870.806
279.570	15.749	1157.834	870.718
280.585	15.623	1157.302	869.586
281.599	15.725	1156.258	869.253
282.614	15.778	1155.240	868.686
283.628	15.693	1154.363	867.508
284.643	15.831	1153.116	867.205
285.657	15.724	1152.352	866.002
286.672	15.777	1151.499	865.560
287.687	15.814	1150.521	864.937
288.701	15.802	1149.754	864.223
289.716	15.933	1148.683	864.013
290.730	15.758	1148.240	862.705
291.745	15.809	1147.888	862.629
292.760	15.897	1146.904	862.262
293.774	15.826	1146.335	861.392
294.789	15.935	1145.637	861.350
295.803	15.935	1144.804	860.650
296.818	15.886	1144.121	859.807
297.833	15.969	1143.367	859.589
298.847	15.962	1142.485	858.814
299.862	15.958	1141.896	858.275
300.876	15.929	1141.148	857.488
301.891	15.999	1140.428	857.229
302.906	16.095	1139.543	856.979
303.920	16.130	1139.310	856.904
304.935	16.049	1138.831	856.056
305.949	16.177	1138.046	856.039
306.964	16.231	1137.216	855.613
307.979	16.123	1136.200	854.226
308.993	16.155	1135.584	853.849
310.008	16.188	1134.579	853.187
311.022	16.189	1133.783	852.514
312.037	16.253	1132.633	851.898
313.052	16.139	1132.012	850.781
314.066	16.253	1130.735	850.323
315.081	16.158	1130.087	849.278
316.095	16.125	1129.682	848.734
317.110	16.166	1128.809	848.207
318.125	16.190	1128.187	847.786
319.139	16.110	1127.435	846.748
320.154	16.181	1126.940	846.658
321.168	16.202	1126.380	846.263
322.183	16.334	1125.483	846.178
323.197	16.287	1125.027	845.526
324.212	16.235	1124.398	844.718
325.227	16.277	1123.540	844.207
326.241	16.409	1122.898	844.308
327.256	16.304	1122.407	843.344
328.270	16.241	1121.259	842.089
329.285	16.333	1120.355	841.795
330.300	16.354	1119.656	841.299
331.314	16.318	1118.273	840.009
332.329	16.368	1117.677	839.733
333.343	16.338	1116.707	838.781
334.358	16.412	1115.941	838.501
335.373	16.424	1115.091	837.848
336.387	16.517	1114.268	837.617
337.402	16.443	1113.577	836.653
338.416	16.373	1113.122	835.891
339.431	16.585	1112.155	836.139
340.446	16.625	1111.275	835.602
341.460	16.594	1110.756	834.987
342.475	16.612	1109.725	834.225
343.489	16.565	1109.162	833.495
344.504	16.690	1108.445	833.498
345.519	16.601	1107.381	832.187
346.533	16.832	1106.083	832.274
347.548	16.739	1105.693	831.451
348.562	16.751	1105.085	830.977
349.577	16.692	1104.373	830.081
350.592	16.584	1103.919	829.134
351.606	16.720	1103.057	829.081
352.621	16.749	1101.956	828.322
353.635	16.735	1101.805	828.066
354.650	16.597	1101.016	826.728
355.665	16.708	1100.197	826.581
356.679	16.731	1099.500	826.095
357.694	16.761	1098.610	825.498
358.708	16.906	1097.838	825.551
359.723	16.883	1097.253	824.928
360.738	16.831	1096.565	824.086
361.752	16.777	1096.431	823.647
362.767	16.854	1095.753	823.440
363.781	16.824	1095.403	822.959
364.796	16.937	1094.972	823.110
365.810	16.946	1094.100	822.427
366.825	16.949	1093.166	821.665
367.840	16.975	1092.711	821.377
368.854	17.033	1092.092	821.121
369.869	17.154	1091.260	821.006
370.883	17.044	1090.550	819.867
371.898	17.041	1089.934	819.317
372.913	17.077	1089.034	818.742
373.927	17.070	1088.757	818.426
374.942	17.254	1087.831	818.545
375.956	17.159	1087.744	817.950
376.971	17.166	1087.228	817.524
377.986	17.238	1086.039	816.904
379.000	17.218	1086.077	816.766
380.015	17.287	1085.204	816.364
381.029	17.271	1084.532	815.709
382.044	17.291	1083.580	815.019
383.059	17.365	1082.716	814.653
384.073	17.389	1082.208	814.311
385.088	17.371	1081.190	813.386
386.102	17.395	1080.432	812.861
387.117	17.279	1079.479	811.516
388.132	17.230	1078.805	810.706
389.146	17.281	1077.985	810.261
390.161	17.362	1077.369	810.110
391.175	17.378	1076.489	809.455
392.190	17.373	1075.804	808.842
393.205	17.450	1074.771	808.364
394.219	17.488	1074.243	808.072
395.234	17.425	1073.414	807.082
396.248	17.381	1072.277	805.946
397.263	17.398	1071.375	805.278
398.278	17.513	1070.473	805.073
399.292	17.439	1070.112	804.378
400.307	17.414	1069.327	803.597
401.321	17.366	1068.942	803.012
402.336	17.353	1068.478	802.529
403.350	17.455	1067.305	802.062
404.365	17.574	1066.417	801.883
405.380	17.514	1066.314	801.452
406.394	17.567	1065.293	800.861
407.409	17.502	1064.871	800.167
408.423	17.587	1063.901	799.766
409.438	17.689	1062.870	799.401
410.453	17.646	1062.382	798.762
411.467	17.580	1062.143	798.201
412.482	17.722	1061.059	797.982
413.496	17.833	1060.108	797.711
414.511	17.752	1059.870	797.086
415.526	17.704	1059.279	796.348
416.540	17.872	1059.075	796.906
417.555	17.836	1058.167	795.987
418.569	17.848	1057.629	795.565
419.584	17.898	1056.769	795.079
420.599	17.960	1056.848	795.361
421.613	103.227	1323.281	1465.125
422.628	95.206	1362.045	1465.237
